Data from USB4F104151__84__12-36-57-352.txt Node

Date: Fri Mar 14 12:36:57 EDT 2025
User: louis
Spectrometer: USB4F10415
Trigger mode: 4
Integration Time (sec): 2.000000E-2
Scans to average: 1
Electric dark correction enabled: true
Nonlinearity correction enabled: false
Boxcar width: 0
XAxis mode: Wavelengths
Number of Pixels in Spectrum: 3648
>>>>>Begin Spectral Data<<<<<
178.204	6.49
178.424	6.49
178.644	6.49
178.864	-46.76
179.084	-104.11
179.304	0.34
179.524	31.06
179.744	-22.19
179.964	-16.04
180.184	-104.11
180.404	0.34
180.624	-7.85
180.844	6.49
181.064	-16.04
181.283	49.49
181.503	33.11
181.723	45.4
181.943	-42.67
182.163	-11.95
182.383	6.49
182.602	24.92
182.822	115.03
183.042	45.4
183.262	-7.85
183.482	35.16
183.701	45.4
183.921	4.44
184.141	-34.47
184.361	65.88
184.58	29.01
184.8	43.35
185.02	35.16
185.239	61.78
185.459	125.27
185.679	92.5
185.898	16.73
186.118	82.26
186.338	26.96
186.557	37.2
186.777	33.11
186.997	98.64
187.216	-18.09
187.436	92.5
187.655	0.34
187.875	61.78
188.095	18.77
188.314	41.3
188.534	59.73
188.753	-3.75
188.973	22.87
189.192	10.58
189.412	106.84
189.631	14.68
189.851	24.92
190.07	49.49
190.29	-63.15
190.509	-5.8
190.729	41.3
190.948	115.03
191.168	2.39
191.387	65.88
191.607	78.16
191.826	45.4
192.045	63.83
192.265	47.44
192.484	47.44
192.704	57.68
192.923	18.77
193.142	92.5
193.362	59.73
193.581	12.63
193.8	12.63
194.02	69.97
194.239	4.44
194.458	29.01
194.678	12.63
194.897	51.54
195.116	12.63
195.335	18.77
195.555	67.92
195.774	-42.67
195.993	43.35
196.212	45.4
196.432	-59.05
196.651	49.49
196.87	-52.91
197.089	47.44
197.308	65.88
197.528	39.25
197.747	-3.75
197.966	33.11
198.185	-9.9
198.404	37.2
198.623	80.21
198.842	0.34
199.062	72.02
199.281	61.78
199.5	51.54
199.719	49.49
199.938	-9.9
200.157	16.73
200.376	55.64
200.595	63.83
200.814	24.92
201.033	-20.14
201.252	45.4
201.471	98.64
201.69	84.31
201.909	20.82
202.128	86.36
202.347	39.25
202.566	-5.8
202.785	-71.34
203.004	-22.19
203.223	63.83
203.442	4.44
203.661	41.3
203.879	26.96
204.098	-20.14
204.317	12.63
204.536	100.69
204.755	35.16
204.974	-3.75
205.193	26.96
205.411	86.36
205.63	10.58
205.849	98.64
206.068	47.44
206.287	20.82
206.505	-1.71
206.724	29.01
206.943	-28.33
207.162	8.53
207.381	-57
207.599	-28.33
207.818	55.64
208.037	20.82
208.255	37.2
208.474	65.88
208.693	51.54
208.911	115.03
209.13	61.78
209.349	84.31
209.567	76.12
209.786	69.97
210.005	20.82
210.223	12.63
210.442	86.36
210.661	104.79
210.879	22.87
211.098	37.2
211.316	35.16
211.535	63.83
211.753	86.36
211.972	-30.38
212.191	12.63
212.409	37.2
212.628	26.96
212.846	20.82
213.065	65.88
213.283	76.12
213.502	80.21
213.72	47.44
213.938	33.11
214.157	45.4
214.375	102.74
214.594	82.26
214.812	18.77
215.031	74.07
215.249	10.58
215.467	20.82
215.686	4.44
215.904	67.92
216.122	-40.62
216.341	61.78
216.559	43.35
216.778	45.4
216.996	10.58
217.214	-9.9
217.432	35.16
217.651	59.73
217.869	53.59
218.087	72.02
218.306	31.06
218.524	4.44
218.742	14.68
218.96	-1.71
219.179	47.44
219.397	29.01
219.615	63.83
219.833	57.68
220.051	-75.43
220.27	35.16
220.488	22.87
220.706	-7.85
220.924	16.73
221.142	61.78
221.36	-16.04
221.578	65.88
221.796	0.34
222.015	22.87
222.233	10.58
222.451	31.06
222.669	-1.71
222.887	96.6
223.105	14.68
223.323	82.26
223.541	45.4
223.759	80.21
223.977	24.92
224.195	119.12
224.413	33.11
224.631	65.88
224.849	86.36
225.067	55.64
225.285	-22.19
225.503	37.2
225.721	39.25
225.939	12.63
226.157	8.53
226.375	63.83
226.592	59.73
226.81	-5.8
227.028	125.27
227.246	35.16
227.464	0.34
227.682	43.35
227.9	4.44
228.117	88.4
228.335	4.44
228.553	59.73
228.771	4.44
228.989	16.73
229.206	57.68
229.424	41.3
229.642	31.06
229.86	-5.8
230.077	-11.95
230.295	110.93
230.513	31.06
230.731	51.54
230.948	88.4
231.166	-54.95
231.384	-59.05
231.601	61.78
231.819	33.11
232.037	18.77
232.254	6.49
232.472	65.88
232.689	53.59
232.907	24.92
233.125	84.31
233.342	67.92
233.56	-32.43
233.777	55.64
233.995	-20.14
234.213	22.87
234.43	31.06
234.648	98.64
234.865	37.2
235.083	-9.9
235.3	16.73
235.518	49.49
235.735	104.79
235.953	26.96
236.17	31.06
236.388	-5.8
236.605	-26.28
236.822	55.64
237.04	-1.71
237.257	14.68
237.475	86.36
237.692	72.02
237.909	63.83
238.127	35.16
238.344	31.06
238.562	37.2
238.779	41.3
238.996	-3.75
239.214	24.92
239.431	35.16
239.648	24.92
239.865	102.74
240.083	26.96
240.3	26.96
240.517	-36.52
240.735	22.87
240.952	-18.09
241.169	37.2
241.386	61.78
241.603	41.3
241.821	41.3
242.038	39.25
242.255	76.12
242.472	10.58
242.689	90.45
242.907	45.4
243.124	24.92
243.341	51.54
243.558	6.49
243.775	22.87
243.992	22.87
244.209	35.16
244.426	-16.04
244.643	-9.9
244.86	80.21
245.078	10.58
245.295	41.3
245.512	14.68
245.729	22.87
245.946	133.46
246.163	24.92
246.38	102.74
246.597	29.01
246.814	57.68
247.031	24.92
247.248	96.6
247.464	61.78
247.681	41.3
247.898	76.12
248.115	49.49
248.332	92.5
248.549	117.08
248.766	147.8
248.983	-18.09
249.2	65.88
249.417	-24.23
249.633	-5.8
249.85	67.92
250.067	10.58
250.284	12.63
250.501	35.16
250.717	53.59
250.934	33.11
251.151	47.44
251.368	74.07
251.585	82.26
251.801	57.68
252.018	88.4
252.235	74.07
252.451	47.44
252.668	33.11
252.885	80.21
253.102	65.88
253.318	18.77
253.535	51.54
253.752	-16.04
253.968	8.53
254.185	47.44
254.401	135.51
254.618	2.39
254.835	20.82
255.051	86.36
255.268	16.73
255.484	-16.04
255.701	90.45
255.917	12.63
256.134	55.64
256.351	55.64
256.567	65.88
256.784	2.39
257	-13.99
257.217	98.64
257.433	80.21
257.65	29.01
257.866	12.63
258.082	-3.75
258.299	82.26
258.515	20.82
258.732	53.59
258.948	-1.71
259.165	49.49
259.381	2.39
259.597	35.16
259.814	16.73
260.03	76.12
260.246	24.92
260.463	137.56
260.679	74.07
260.895	82.26
261.112	57.68
261.328	-22.19
261.544	47.44
261.761	67.92
261.977	35.16
262.193	33.11
262.409	108.88
262.626	51.54
262.842	4.44
263.058	80.21
263.274	31.06
263.49	88.4
263.707	51.54
263.923	90.45
264.139	80.21
264.355	61.78
264.571	86.36
264.787	33.11
265.004	47.44
265.22	37.2
265.436	33.11
265.652	-20.14
265.868	41.3
266.084	45.4
266.3	-26.28
266.516	80.21
266.732	10.58
266.948	59.73
267.164	53.59
267.38	57.68
267.596	49.49
267.812	-1.71
268.028	106.84
268.244	0.34
268.46	29.01
268.676	31.06
268.892	8.53
269.108	72.02
269.324	29.01
269.54	31.06
269.756	22.87
269.972	-11.95
270.188	12.63
270.403	18.77
270.619	35.16
270.835	92.5
271.051	82.26
271.267	24.92
271.483	4.44
271.698	133.46
271.914	78.16
272.13	-9.9
272.346	78.16
272.562	39.25
272.777	35.16
272.993	0.34
273.209	49.49
273.425	74.07
273.64	10.58
273.856	63.83
274.072	14.68
274.287	43.35
274.503	59.73
274.719	55.64
274.934	24.92
275.15	-54.95
275.366	59.73
275.581	16.73
275.797	24.92
276.012	90.45
276.228	51.54
276.444	86.36
276.659	39.25
276.875	94.55
277.09	61.78
277.306	24.92
277.521	78.16
277.737	26.96
277.952	2.39
278.168	29.01
278.383	61.78
278.599	45.4
278.814	49.49
279.03	29.01
279.245	53.59
279.461	59.73
279.676	94.55
279.892	55.64
280.107	88.4
280.322	24.92
280.538	72.02
280.753	-32.43
280.969	74.07
281.184	110.93
281.399	51.54
281.615	26.96
281.83	78.16
282.045	-3.75
282.26	65.88
282.476	0.34
282.691	14.68
282.906	4.44
283.122	72.02
283.337	0.34
283.552	39.25
283.767	47.44
283.983	63.83
284.198	-9.9
284.413	84.31
284.628	18.77
284.843	20.82
285.058	96.6
285.274	2.39
285.489	69.97
285.704	88.4
285.919	59.73
286.134	0.34
286.349	16.73
286.564	-22.19
286.779	59.73
286.995	63.83
287.21	76.12
287.425	24.92
287.64	59.73
287.855	76.12
288.07	76.12
288.285	31.06
288.5	43.35
288.715	65.88
288.93	-11.95
289.145	41.3
289.36	94.55
289.575	51.54
289.79	0.34
290.004	59.73
290.219	-5.8
290.434	80.21
290.649	29.01
290.864	22.87
291.079	76.12
291.294	39.25
291.509	47.44
291.724	6.49
291.938	51.54
292.153	-54.95
292.368	-32.43
292.583	170.32
292.798	53.59
293.012	4.44
293.227	63.83
293.442	90.45
293.657	-16.04
293.871	82.26
294.086	43.35
294.301	35.16
294.516	31.06
294.73	10.58
294.945	22.87
295.16	-13.99
295.374	67.92
295.589	86.36
295.804	2.39
296.018	31.06
296.233	84.31
296.447	37.2
296.662	-34.47
296.877	80.21
297.091	29.01
297.306	92.5
297.52	90.45
297.735	20.82
297.949	74.07
298.164	63.83
298.378	74.07
298.593	63.83
298.807	80.21
299.022	35.16
299.236	108.88
299.451	37.2
299.665	16.73
299.88	49.49
300.094	20.82
300.309	-48.81
300.523	39.25
300.737	55.64
300.952	84.31
301.166	160.08
301.381	-40.62
301.595	55.64
301.809	96.6
302.024	78.16
302.238	102.74
302.452	41.3
302.667	129.36
302.881	39.25
303.095	33.11
303.309	24.92
303.524	135.51
303.738	33.11
303.952	-13.99
304.166	59.73
304.381	6.49
304.595	80.21
304.809	-11.95
305.023	51.54
305.237	51.54
305.452	31.06
305.666	26.96
305.88	65.88
306.094	2.39
306.308	35.16
306.522	65.88
306.736	63.83
306.95	61.78
307.164	37.2
307.379	6.49
307.593	78.16
307.807	33.11
308.021	10.58
308.235	133.46
308.449	22.87
308.663	-46.76
308.877	61.78
309.091	59.73
309.305	90.45
309.519	24.92
309.733	117.08
309.947	24.92
310.161	100.69
310.374	14.68
310.588	80.21
310.802	4.44
311.016	67.92
311.23	53.59
311.444	29.01
311.658	45.4
311.872	-5.8
312.085	-28.33
312.299	106.84
312.513	49.49
312.727	72.02
312.941	72.02
313.154	112.98
313.368	86.36
313.582	74.07
313.796	-34.47
314.009	51.54
314.223	86.36
314.437	6.49
314.651	14.68
314.864	84.31
315.078	37.2
315.292	65.88
315.505	82.26
315.719	96.6
315.933	-7.85
316.146	72.02
316.36	31.06
316.573	125.27
316.787	2.39
317.001	31.06
317.214	-38.57
317.428	65.88
317.641	123.22
317.855	55.64
318.068	-11.95
318.282	94.55
318.495	90.45
318.709	55.64
318.922	76.12
319.136	139.6
319.349	98.64
319.563	4.44
319.776	10.58
319.99	45.4
320.203	33.11
320.417	53.59
320.63	18.77
320.843	2.39
321.057	6.49
321.27	2.39
321.483	43.35
321.697	96.6
321.91	78.16
322.124	88.4
322.337	106.84
322.55	47.44
322.763	18.77
322.977	22.87
323.19	4.44
323.403	61.78
323.617	127.32
323.83	65.88
324.043	4.44
324.256	63.83
324.469	6.49
324.683	141.65
324.896	51.54
325.109	-16.04
325.322	63.83
325.535	67.92
325.748	29.01
325.962	29.01
326.175	-5.8
326.388	63.83
326.601	55.64
326.814	-1.71
327.027	84.31
327.24	20.82
327.453	90.45
327.666	88.4
327.879	-7.85
328.092	78.16
328.305	80.21
328.518	24.92
328.731	51.54
328.944	24.92
329.157	-3.75
329.37	43.35
329.583	115.03
329.796	41.3
330.009	127.32
330.222	92.5
330.435	35.16
330.648	39.25
330.861	39.25
331.073	4.44
331.286	100.69
331.499	106.84
331.712	72.02
331.925	112.98
332.138	39.25
332.35	35.16
332.563	31.06
332.776	53.59
332.989	16.73
333.202	98.64
333.414	76.12
333.627	24.92
333.84	6.49
334.053	80.21
334.265	-44.71
334.478	10.58
334.691	78.16
334.903	94.55
335.116	10.58
335.329	39.25
335.541	26.96
335.754	0.34
335.966	53.59
336.179	61.78
336.392	-32.43
336.604	90.45
336.817	-34.47
337.029	59.73
337.242	31.06
337.454	0.34
337.667	76.12
337.88	69.97
338.092	33.11
338.305	37.2
338.517	84.31
338.729	96.6
338.942	37.2
339.154	29.01
339.367	-26.28
339.579	76.12
339.792	26.96
340.004	94.55
340.217	57.68
340.429	39.25
340.641	72.02
340.854	90.45
341.066	31.06
341.278	78.16
341.491	121.17
341.703	100.69
341.915	67.92
342.128	37.2
342.34	78.16
342.552	72.02
342.764	-44.71
342.977	51.54
343.189	0.34
343.401	43.35
343.613	-5.8
343.826	96.6
344.038	78.16
344.25	55.64
344.462	47.44
344.674	59.73
344.886	55.64
345.099	24.92
345.311	10.58
345.523	65.88
345.735	-13.99
345.947	110.93
346.159	65.88
346.371	18.77
346.583	80.21
346.795	121.17
347.007	63.83
347.219	31.06
347.431	131.41
347.643	151.89
347.855	12.63
348.067	119.12
348.279	20.82
348.491	84.31
348.703	43.35
348.915	35.16
349.127	57.68
349.339	92.5
349.551	53.59
349.763	16.73
349.975	74.07
350.187	-9.9
350.399	88.4
350.61	53.59
350.822	4.44
351.034	63.83
351.246	129.36
351.458	49.49
351.669	61.78
351.881	16.73
352.093	88.4
352.305	104.79
352.517	137.56
352.728	106.84
352.94	33.11
353.152	55.64
353.363	96.6
353.575	74.07
353.787	153.94
353.999	106.84
354.21	4.44
354.422	16.73
354.633	80.21
354.845	65.88
355.057	108.88
355.268	106.84
355.48	86.36
355.692	16.73
355.903	37.2
356.115	57.68
356.326	-28.33
356.538	117.08
356.749	22.87
356.961	86.36
357.172	14.68
357.384	61.78
357.595	80.21
357.807	8.53
358.018	33.11
358.23	82.26
358.441	76.12
358.653	67.92
358.864	123.22
359.075	33.11
359.287	74.07
359.498	88.4
359.709	18.77
359.921	61.78
360.132	10.58
360.344	76.12
360.555	39.25
360.766	67.92
360.977	24.92
361.189	80.21
361.4	65.88
361.611	125.27
361.823	43.35
362.034	49.49
362.245	96.6
362.456	14.68
362.667	31.06
362.879	29.01
363.09	18.77
363.301	78.16
363.512	131.41
363.723	74.07
363.935	76.12
364.146	88.4
364.357	39.25
364.568	127.32
364.779	47.44
364.99	78.16
365.201	61.78
365.412	53.59
365.623	86.36
365.834	88.4
366.045	14.68
366.256	53.59
366.467	26.96
366.678	80.21
366.889	55.64
367.1	96.6
367.311	90.45
367.522	72.02
367.733	72.02
367.944	43.35
368.155	39.25
368.366	76.12
368.577	143.7
368.788	74.07
368.999	100.69
369.209	4.44
369.42	121.17
369.631	117.08
369.842	72.02
370.053	41.3
370.264	100.69
370.474	108.88
370.685	24.92
370.896	88.4
371.107	10.58
371.317	63.83
371.528	74.07
371.739	78.16
371.95	31.06
372.16	98.64
372.371	26.96
372.582	61.78
372.792	59.73
373.003	102.74
373.214	16.73
373.424	-1.71
373.635	125.27
373.846	112.98
374.056	72.02
374.267	80.21
374.477	88.4
374.688	69.97
374.898	2.39
375.109	49.49
375.319	102.74
375.53	137.56
375.74	65.88
375.951	86.36
376.161	80.21
376.372	129.36
376.582	78.16
376.793	96.6
377.003	39.25
377.214	57.68
377.424	88.4
377.635	98.64
377.845	31.06
378.055	129.36
378.266	49.49
378.476	76.12
378.686	57.68
378.897	55.64
379.107	201.04
379.317	22.87
379.528	41.3
379.738	186.71
379.948	29.01
380.158	78.16
380.369	119.12
380.579	78.16
380.789	63.83
380.999	162.13
381.21	80.21
381.42	96.6
381.63	53.59
381.84	53.59
382.05	55.64
382.261	92.5
382.471	115.03
382.681	43.35
382.891	43.35
383.101	82.26
383.311	59.73
383.521	31.06
383.731	102.74
383.941	102.74
384.151	90.45
384.361	76.12
384.571	57.68
384.781	88.4
384.991	125.27
385.201	63.83
385.411	69.97
385.621	88.4
385.831	16.73
386.041	92.5
386.251	63.83
386.461	86.36
386.671	59.73
386.881	135.51
387.091	63.83
387.301	104.79
387.511	39.25
387.72	33.11
387.93	39.25
388.14	6.49
388.35	78.16
388.56	153.94
388.769	57.68
388.979	143.7
389.189	72.02
389.399	41.3
389.609	160.08
389.818	145.75
390.028	127.32
390.238	41.3
390.447	86.36
390.657	86.36
390.867	63.83
391.076	92.5
391.286	139.6
391.496	55.64
391.705	135.51
391.915	108.88
392.125	92.5
392.334	41.3
392.544	127.32
392.753	80.21
392.963	-24.23
393.172	94.55
393.382	22.87
393.591	117.08
393.801	82.26
394.01	166.23
394.22	90.45
394.429	127.32
394.639	76.12
394.848	125.27
395.058	82.26
395.267	104.79
395.477	53.59
395.686	88.4
395.895	147.8
396.105	155.99
396.314	147.8
396.524	94.55
396.733	106.84
396.942	158.03
397.152	137.56
397.361	37.2
397.57	45.4
397.78	31.06
397.989	125.27
398.198	164.18
398.407	86.36
398.617	108.88
398.826	94.55
399.035	166.23
399.244	131.41
399.453	229.71
399.663	121.17
399.872	137.56
400.081	131.41
400.29	102.74
400.499	127.32
400.708	123.22
400.917	149.84
401.127	117.08
401.336	90.45
401.545	108.88
401.754	139.6
401.963	207.19
402.172	106.84
402.381	110.93
402.59	139.6
402.799	160.08
403.008	139.6
403.217	139.6
403.426	67.92
403.635	168.27
403.844	198.99
404.053	127.32
404.262	209.23
404.471	225.62
404.68	203.09
404.888	198.99
405.097	192.85
405.306	211.28
405.515	139.6
405.724	137.56
405.933	158.03
406.142	213.33
406.35	168.27
406.559	149.84
406.768	211.28
406.977	242
407.185	231.76
407.394	170.32
407.603	158.03
407.812	319.82
408.02	215.38
408.229	219.47
408.438	256.34
408.646	260.43
408.855	274.77
409.064	311.63
409.272	276.82
409.481	340.3
409.69	336.21
409.898	274.77
410.107	424.27
410.315	375.12
410.524	407.89
410.733	432.46
410.941	420.17
411.15	481.61
411.358	375.12
411.567	493.9
411.775	452.94
411.984	467.28
412.192	545.1
412.401	498
412.609	620.88
412.818	579.92
413.026	491.85
413.234	598.35
413.443	651.6
413.651	661.84
413.86	686.41
414.068	670.03
414.276	817.48
414.485	721.23
414.693	733.51
414.901	772.43
415.11	819.53
415.318	878.92
415.526	844.1
415.734	883.02
415.943	926.02
416.151	1009.99
416.359	975.17
416.567	997.7
416.776	1061.19
416.984	1081.67
417.192	1161.54
417.4	1173.83
417.608	1141.06
417.817	1286.47
418.025	1229.12
418.233	1321.28
418.441	1245.51
418.649	1298.75
418.857	1425.73
419.065	1503.55
419.273	1571.13
419.481	1589.57
419.689	1626.43
419.897	1726.78
420.105	1808.7
420.313	1741.11
420.521	1872.18
420.729	1855.8
420.937	1970.49
421.145	2009.4
421.353	2050.36
421.561	2339.12
421.769	2251.06
421.977	2337.07
422.185	2388.27
422.393	2568.49
422.601	2591.02
422.809	2605.36
423.017	2763.05
423.224	2691.37
423.432	2748.72
423.64	2937.13
423.848	3103.01
424.056	3203.36
424.263	3361.06
424.471	3246.37
424.679	3377.44
424.887	3543.33
425.094	3615.01
425.302	3684.64
425.51	3795.23
425.718	3926.3
425.925	4083.99
426.133	4028.7
426.341	4311.32
426.548	4555.02
426.756	4522.26
426.964	4727.05
427.171	4847.88
427.379	5050.63
427.586	5142.79
427.794	5308.68
428.001	5562.62
428.209	5648.64
428.417	5648.64
428.624	5994.75
428.832	6193.4
429.039	5951.74
429.247	6088.95
429.454	6609.14
429.662	7051.5
429.869	6736.11
430.076	7031.02
430.284	6842.6
430.491	7205.1
430.699	7590.11
430.906	7534.82
431.114	7723.23
431.321	8009.95
431.528	8020.19
431.736	8550.61
431.943	9070.79
432.15	8644.82
432.358	8841.42
432.565	9306.31
432.772	9457.86
432.979	9705.67
433.187	9875.65
433.394	9959.61
433.601	10727.6
433.808	10870.96
434.016	10576.05
434.223	11116.72
434.43	11665.57
434.637	11534.5
434.844	12361.88
435.052	12511.38
435.259	12529.81
435.466	12435.61
435.673	12624.02
435.88	13131.92
436.087	14033.02
436.294	13981.82
436.501	13584.52
436.708	13822.08
436.915	14432.38
437.122	15038.58
437.329	14915.7
437.537	15614.06
437.743	15745.13
437.95	15769.7
438.157	16728.15
438.364	17014.87
438.571	16969.81
438.778	17166.42
438.985	18948.15
439.192	18190.4
439.399	18509.88
439.606	18212.93
439.813	19036.21
440.02	20090.91
440.227	19951.65
440.433	19830.82
440.64	20592.67
440.847	20330.53
441.054	20711.45
441.261	22208.51
441.467	21985.29
441.674	22411.26
441.881	22999.03
442.088	23039.99
442.294	22806.52
442.501	23402.48
442.708	24039.4
442.914	24958.94
443.121	25896.91
443.328	24944.6
443.534	27019.19
443.741	26171.33
443.948	25790.41
444.154	27842.48
444.361	27725.74
444.568	27795.37
444.774	27883.44
444.981	28010.41
445.187	29261.72
445.394	30156.68
445.6	29712.27
445.807	32589.67
446.013	31057.79
446.22	31778.67
446.426	33075.04
446.633	33316.7
446.839	34748.23
447.046	33496.92
447.252	34776.9
447.459	35190.59
447.665	35034.94
447.871	36214.57
448.078	37816.08
448.284	36290.35
448.491	36824.87
448.697	38598.41
448.903	39001.86
449.11	39522.04
449.316	38940.42
449.522	39399.16
449.728	40840.93
449.935	40906.47
450.141	40648.43
450.347	41633.5
450.553	40435.44
450.76	40963.81
450.966	41983.7
451.172	41750.23
451.378	42704.59
451.584	42325.71
451.791	43089.6
451.997	42958.53
452.203	43857.59
452.409	43691.71
452.615	43294.4
452.821	42084.05
453.027	41502.43
453.233	43278.02
453.44	42118.87
453.646	42819.27
453.852	42761.93
454.058	43519.68
454.264	41969.36
454.47	42942.15
454.676	42159.83
454.882	43495.1
455.088	39264
455.294	40222.45
455.5	40374
455.705	40750.82
455.911	39696.12
456.117	39087.87
456.323	38362.89
456.529	36370.22
456.735	38084.37
456.941	36962.08
457.147	36558.63
457.352	35403.58
457.558	34690.88
457.764	34916.16
457.97	34307.91
458.176	33718.1
458.381	33697.62
458.587	32104.3
458.793	32049
458.999	30033.8
459.204	32565.09
459.41	31373.17
459.616	29253.53
459.821	29255.57
460.027	29243.29
460.233	28665.76
460.438	27434.93
460.644	27664.3
460.85	26292.16
461.055	25915.34
461.261	25989.06
461.466	23771.11
461.672	23035.89
461.878	24764.38
462.083	23205.88
462.289	22614.01
462.494	22280.19
462.7	21561.36
462.905	21008.4
463.111	21418
463.316	21905.42
463.522	21159.95
463.727	21323.79
463.932	21704.71
464.138	21112.85
464.343	21487.63
464.549	20684.83
464.754	20932.63
464.959	21000.21
465.165	20813.85
465.37	19890.21
465.575	19329.07
465.781	20363.29
465.986	20344.86
466.191	19591.21
466.397	19228.72
466.602	18341.95
466.807	18958.39
467.012	18812.98
467.218	18776.12
467.423	18626.62
467.628	18739.26
467.833	19527.72
468.038	18862.13
468.244	18350.14
468.449	18948.15
468.654	18651.19
468.859	18137.15
469.064	18380.86
469.269	17477.71
469.474	17483.85
469.679	17764.42
469.885	17451.08
470.09	17629.26
470.295	17580.11
470.5	17049.68
470.705	17231.95
470.91	16619.61
471.115	16848.98
471.32	16846.93
471.525	16771.16
471.73	16597.08
471.935	16324.7
472.139	15986.79
472.344	16064.61
472.549	16076.9
472.754	15911.01
472.959	15546.47
473.164	14973.04
473.369	14794.87
473.574	15439.98
473.778	15151.21
473.983	15179.89
474.188	15057.01
474.393	14512.25
474.598	14450.81
474.802	14252.16
475.007	14266.49
475.212	14184.57
475.417	13787.27
475.621	13856.9
475.826	13844.61
476.031	13418.63
476.235	13121.68
476.44	13475.98
476.645	13314.19
476.849	13146.25
477.054	12953.74
477.259	12679.32
477.463	12804.24
477.668	12343.45
477.872	12486.81
478.077	12372.12
478.282	12155.04
478.486	12005.53
478.691	12034.21
478.895	11853.98
479.1	12007.58
479.304	11866.27
479.509	11671.72
479.713	11710.63
479.918	11557.03
480.122	11548.84
480.326	11616.42
480.531	11491.49
480.735	11229.35
480.94	11333.8
481.144	11477.16
481.348	11069.61
481.553	11067.56
481.757	10930.35
481.961	11137.2
482.166	11290.79
482.37	11092.14
482.574	10918.06
482.778	11153.58
482.983	11081.9
483.187	11194.54
483.391	11124.91
483.595	10926.25
483.8	10993.84
484.004	11165.87
484.208	11174.06
484.412	10977.45
484.616	11190.44
484.821	11016.37
485.025	10944.69
485.229	11061.42
485.433	10760.37
485.637	11004.08
485.841	10815.66
486.045	11264.17
486.249	11124.91
486.453	10905.77
486.657	11010.22
486.861	10956.97
487.065	10649.78
487.269	10918.06
487.473	11088.04
487.677	11159.72
487.881	10969.26
488.085	11096.24
488.289	10930.35
488.493	11133.1
488.697	11108.52
488.901	11104.43
489.105	10969.26
489.309	11194.54
489.512	11241.64
489.716	11225.26
489.92	11417.77
490.124	11122.86
490.328	11448.49
490.531	11227.31
490.735	11491.49
490.939	11565.22
491.143	11450.53
491.346	11243.69
491.55	11419.82
491.754	11321.51
491.958	11397.29
492.161	11460.77
492.365	11649.19
492.569	11616.42
492.772	11753.63
492.976	11798.69
493.18	11823.26
493.383	12007.58
493.587	12181.66
493.79	12189.85
493.994	11954.33
494.197	12216.47
494.401	12062.88
494.605	12222.62
494.808	12284.06
495.012	12380.31
495.215	12630.16
495.419	12683.41
495.622	12681.36
495.825	12886.16
496.029	12949.65
496.232	13023.37
496.436	13011.09
496.639	13340.81
496.843	13549.7
497.046	13711.49
497.249	13613.19
497.453	13996.16
497.656	14016.64
497.859	13793.41
498.063	14067.84
498.266	14499.96
498.469	14379.13
498.673	14512.25
498.876	14682.23
499.079	14966.9
499.282	14669.94
499.485	15188.08
499.689	15460.46
499.892	15425.64
500.095	15286.38
500.298	15974.5
500.501	15769.7
500.705	16060.51
500.908	16509.02
501.111	16466.01
501.314	16572.5
501.517	16773.21
501.72	17201.23
501.923	17090.64
502.126	17299.53
502.329	17676.36
502.532	17823.81
502.735	17817.67
502.938	18382.91
503.141	18354.24
503.344	18767.93
503.547	18593.85
503.75	19048.5
503.953	19443.76
504.156	19372.08
504.359	19517.48
504.562	19394.61
504.765	19841.06
504.968	20324.38
505.17	20627.48
505.373	20664.35
505.576	20957.21
505.779	20975.64
505.982	21143.57
506.185	21743.63
506.387	21643.28
506.59	21757.96
506.793	22437.89
506.996	22433.79
507.198	22798.33
507.401	22792.19
507.604	22947.83
507.807	23228.4
508.009	23883.75
508.212	23603.18
508.415	23977.96
508.617	24332.26
508.82	24313.83
509.022	24408.03
509.225	24993.75
509.428	25104.34
509.63	25497.55
509.833	25538.51
510.035	26003.4
510.238	25853.9
510.44	26599.36
510.643	26771.39
510.845	26994.62
511.048	26841.02
511.25	27459.51
511.453	27246.52
511.655	28448.68
511.858	28143.53
512.06	28194.73
512.262	28848.03
512.465	28632.99
512.667	29267.86
512.87	29570.96
513.072	29663.12
513.274	30164.87
513.477	30568.32
513.679	30453.64
513.881	30936.96
514.084	31186.81
514.286	31285.11
514.488	31348.6
514.69	31993.71
514.893	32341.86
515.095	32581.48
515.297	33017.69
515.499	32917.34
515.701	33709.91
515.904	34070.35
516.106	33970
516.308	34627.4
516.51	34592.58
516.712	34699.08
516.914	35352.38
517.116	35880.75
517.318	35321.66
517.52	36052.78
517.722	35821.36
517.925	36540.2
518.127	37379.87
518.329	37164.83
518.531	37103.39
518.733	37625.62
518.935	38131.47
519.136	38248.21
519.338	38641.42
519.54	38805.25
519.742	39255.81
519.944	39016.19
520.146	40374
520.348	40081.14
520.55	40464.11
520.752	40482.54
520.954	41131.75
521.155	41180.9
521.357	41338.59
521.559	41668.31
521.761	42219.22
521.963	42245.84
522.164	42501.84
522.366	42643.15
522.568	43222.72
522.77	43216.58
522.971	43749.05
523.173	43749.05
523.375	43744.95
523.576	44123.83
523.778	44080.82
523.98	45031.08
524.181	45096.61
524.383	45182.63
524.584	45567.65
524.786	45717.15
524.988	45719.2
525.189	45862.55
525.391	46749.32
525.592	46751.37
525.794	46878.35
525.995	46767.76
526.197	46755.47
526.398	46923.4
526.6	47279.75
526.801	47337.09
527.003	47740.54
527.204	47502.98
527.406	47904.38
527.607	48252.53
527.808	48762.48
528.01	47658.62
528.211	48453.23
528.412	49557.09
528.614	48635.5
528.815	48629.36
529.016	49124.97
529.218	49034.86
529.419	49262.18
529.62	49161.83
529.822	49118.82
530.023	48930.41
530.224	49376.87
530.425	49542.75
530.626	49327.72
530.828	48901.74
531.029	50216.54
531.23	49884.76
531.431	49569.38
531.632	49573.47
531.833	50234.97
532.035	49796.7
532.236	49849.95
532.437	50284.12
532.638	49929.82
532.839	49968.73
533.04	50249.3
533.241	49847.9
533.442	50986.57
533.643	50292.31
533.844	50417.24
534.045	50290.26
534.246	49833.56
534.447	50695.76
534.648	49856.09
534.849	50751.05
535.05	50226.77
535.251	49892.96
535.451	50155.1
535.652	50417.24
535.853	49983.07
536.054	50458.2
536.255	50415.19
536.456	49972.83
536.657	50916.94
536.857	50490.96
537.058	49999.45
537.259	50587.22
537.46	50396.76
537.66	50257.49
537.861	50187.86
538.062	50009.69
538.263	50413.14
538.463	49983.07
538.664	49858.14
538.865	50574.93
539.065	50599.51
539.266	49886.81
539.466	50611.79
539.667	49999.45
539.868	50642.51
540.068	50163.29
540.269	50064.99
540.469	50468.44
540.67	49741.41
540.87	50599.51
541.071	49995.35
541.271	50230.87
541.472	50187.86
541.672	50073.18
541.873	49688.16
542.073	49684.06
542.274	50337.37
542.474	49892.96
542.675	49466.98
542.875	50118.23
543.075	49864.28
543.276	49514.08
543.476	50286.17
543.676	49524.32
543.877	49919.58
544.077	49702.49
544.277	49839.71
544.478	49864.28
544.678	49903.2
544.878	49389.16
545.078	49655.39
545.279	49626.72
545.479	49718.88
545.679	49608.29
545.879	49976.92
546.079	49555.04
546.28	49729.12
546.48	49518.18
546.68	49614.43
546.88	49784.41
547.08	49520.23
547.28	49329.76
547.48	49106.54
547.68	49780.32
547.88	49415.78
548.081	49188.45
548.281	49372.77
548.481	49241.7
548.681	49413.73
548.881	49591.9
549.081	49335.91
549.28	49383.01
549.48	49606.24
549.68	49366.63
549.88	49669.73
550.08	49278.57
550.28	49626.72
550.48	49243.75
550.68	49512.03
550.88	49266.28
551.08	49184.36
551.279	49518.18
551.479	48694.89
551.679	49098.34
551.879	49213.03
552.079	49423.97
552.278	49233.51
552.478	49329.76
552.678	49389.16
552.878	49305.19
553.077	49184.36
553.277	48772.72
553.477	49636.96
553.676	48959.08
553.876	48815.72
554.076	49036.91
554.275	48643.7
554.475	48197.24
554.674	48895.6
554.874	48866.92
555.074	48588.4
555.273	49038.95
555.473	49397.35
555.672	48410.23
555.872	48717.42
556.071	48703.09
556.271	48975.47
556.47	48877.16
556.67	48164.47
556.869	48068.22
557.068	48635.5
557.268	47820.41
557.467	48297.59
557.667	48336.5
557.866	48217.72
558.065	48057.98
558.265	48031.35
558.464	47648.38
558.663	48307.83
558.863	47482.5
559.062	48383.6
559.261	47775.36
559.461	47867.51
559.66	47531.65
559.859	47656.57
560.058	47955.58
560.258	47556.22
560.457	47402.63
560.656	47629.95
560.855	47320.71
561.054	47943.29
561.253	46970.5
561.453	47195.78
561.652	47300.23
561.851	47525.5
562.05	47103.62
562.249	46694.03
562.448	46878.35
562.647	47156.87
562.846	47056.52
563.045	46876.3
563.244	46304.91
563.443	47328.9
563.642	46259.86
563.841	46298.77
564.04	45733.53
564.239	46950.02
564.438	46050.97
564.637	46456.46
564.836	45934.23
565.035	45342.37
565.234	46177.94
565.432	45682.33
565.631	45371.04
565.83	46065.3
566.029	45285.03
566.228	45172.39
566.427	45616.8
566.625	45506.21
566.824	45127.33
567.023	45307.55
567.222	44535.47
567.42	45489.82
567.619	44783.27
567.818	44795.56
568.016	44709.55
568.215	45045.41
568.414	44383.92
568.612	44832.43
568.811	44406.45
569.01	44349.1
569.208	43783.87
569.407	44576.43
569.605	44046.01
569.804	44791.47
570.002	43847.35
570.201	44166.84
570.4	43511.49
570.598	43646.65
570.797	43255.49
570.995	43814.58
571.193	42964.68
571.392	43441.85
571.59	42890.95
571.789	42976.97
571.987	42755.78
572.186	42983.11
572.384	42741.45
572.582	42995.4
572.781	43062.98
572.979	42616.52
573.177	42385.1
573.376	42766.02
573.574	42084.05
573.772	42784.46
573.971	42039
574.169	41668.31
574.367	41373.41
574.565	42131.15
574.763	41785.05
574.962	41645.79
575.16	41469.66
575.358	41176.8
575.556	41170.66
575.754	41709.27
575.952	40832.74
576.151	41326.3
576.349	40740.58
576.547	40439.53
576.745	40795.88
576.943	40853.22
577.141	40359.66
577.339	40642.28
577.537	40754.92
577.735	40521.45
577.933	39812.85
578.131	40847.08
578.329	40167.15
578.527	40175.34
578.725	39945.97
578.923	40220.4
579.121	39597.82
579.319	39517.95
579.516	39966.45
579.714	39603.96
579.912	39542.52
580.11	39309.05
580.308	39104.26
580.506	39139.07
580.704	38323.98
580.901	39231.23
581.099	39155.46
581.297	38672.14
581.495	38582.02
581.692	38803.21
581.89	38242.06
582.088	38420.24
582.285	38334.22
582.483	38579.98
582.681	38450.95
582.878	37754.65
583.076	37768.98
583.274	38158.1
583.471	37840.66
583.669	37711.64
583.866	37775.12
584.064	37578.52
584.262	37318.43
584.459	37396.25
584.657	37515.03
584.854	37506.84
585.052	36542.25
585.249	37109.54
585.447	36759.33
585.644	36609.83
585.841	36667.17
586.039	36939.55
586.236	36245.29
586.434	36239.15
586.631	36241.2
586.828	36378.41
587.026	36327.21
587.223	36300.59
587.42	35813.17
587.618	35890.99
587.815	35501.88
588.012	35704.63
588.21	35428.15
588.407	35841.84
588.604	35352.38
588.801	35295.03
588.999	35086.14
589.196	35067.71
589.393	34864.96
589.59	34934.59
589.787	35069.76
589.984	34910.02
590.182	34246.47
590.379	35112.77
590.576	34586.44
590.773	34674.5
590.97	34127.69
591.167	34338.63
591.364	33709.91
591.561	34416.46
591.758	33664.85
591.955	33562.45
592.152	33754.96
592.349	33595.22
592.546	33544.02
592.743	33439.58
592.94	33011.55
593.137	33378.14
593.334	33333.08
593.531	32593.76
593.727	32956.25
593.924	32956.25
594.121	32698.21
594.318	32823.14
594.515	32423.78
594.712	32759.65
594.908	32540.52
595.105	32468.84
595.302	32157.55
595.499	32362.34
595.696	32003.95
595.892	31582.07
596.089	32014.19
596.286	31928.17
596.482	31641.46
596.679	31553.4
596.876	31684.47
597.072	31414.13
597.269	31702.9
597.466	31242.1
597.662	30967.68
597.859	31082.36
598.055	30828.41
598.252	31299.45
598.448	31129.47
598.645	30353.29
598.841	30289.8
599.038	30820.22
599.234	30445.44
599.431	30443.4
599.627	30142.35
599.824	30115.72
600.02	29781.9
600.217	29777.81
600.413	29747.09
600.609	30056.33
600.806	29466.52
601.002	29659.02
601.198	29325.21
601.395	29509.52
601.591	29376.41
601.787	29198.23
601.984	29134.74
602.18	29476.76
602.376	29241.24
602.572	28927.9
602.769	29114.27
602.965	28731.29
603.161	28864.41
603.357	28559.27
603.553	28610.46
603.75	28587.94
603.946	28448.68
604.142	28487.59
604.338	28237.73
604.534	28358.56
604.73	28090.28
604.926	28039.08
605.122	28121
605.318	27969.45
605.514	27729.84
605.71	27531.19
605.906	27496.37
606.102	27684.78
606.298	27271.09
606.494	27465.65
606.69	27238.33
606.886	27205.56
607.082	26996.67
607.278	27365.3
607.474	26869.69
607.67	27172.79
607.866	26720.19
608.062	26943.42
608.257	26658.75
608.453	27011
608.649	26802.11
608.845	26556.35
609.041	26482.63
609.236	26605.5
609.432	26519.49
609.628	26494.91
609.824	26562.5
610.019	26570.69
610.215	26105.8
610.411	26456
610.606	25939.91
610.802	26224.58
610.998	26226.63
611.193	25868.23
611.389	25778.12
611.584	25831.37
611.78	25937.87
611.976	25923.53
612.171	25972.68
612.367	25939.91
612.562	25905.1
612.758	25462.74
612.953	25558.99
613.149	25608.14
613.344	25151.45
613.539	25382.87
613.735	25645.01
613.93	25970.63
614.126	25235.41
614.321	25147.35
614.517	24981.46
614.712	25159.64
614.907	24758.24
615.103	24948.7
615.298	24659.93
615.493	25513.94
615.688	24750.04
615.884	25184.21
616.079	24446.94
616.274	24641.5
616.47	24758.24
616.665	24530.91
616.86	24432.61
617.055	24586.21
617.25	24264.68
617.445	24645.6
617.641	24182.76
617.836	24442.85
618.031	24106.98
618.226	24440.8
618.421	24016.87
618.616	24375.27
618.811	23640.04
619.006	24109.03
619.201	23328.75
619.396	23719.92
619.591	23295.99
619.786	23752.68
619.981	23058.42
620.176	23222.26
620.371	23056.37
620.566	22720.51
620.761	22927.35
620.956	22962.17
621.151	22460.41
621.346	22898.68
621.541	22495.23
621.735	22614.01
621.93	22360.06
622.125	22444.03
622.32	21981.19
622.515	22022.15
622.709	22054.92
622.904	21903.37
623.099	21542.92
623.294	21667.85
623.488	21405.71
623.683	21383.18
623.878	20963.35
624.072	21274.64
624.267	21123.09
624.462	20910.1
624.656	20682.78
624.851	21002.26
625.046	20701.21
625.24	20936.73
625.435	20467.74
625.629	20404.25
625.824	20254.75
626.018	20273.18
626.213	19564.59
626.407	20133.92
626.602	19691.56
626.796	19992.61
626.991	19658.79
627.185	19599.4
627.38	19296.3
627.574	19255.34
627.768	19322.93
627.963	19042.35
628.157	18911.28
628.352	18907.19
628.546	18563.13
628.74	18819.13
628.935	18450.49
629.129	18501.69
629.323	18186.3
629.517	18262.08
629.712	18393.15
629.906	18202.69
630.1	17803.33
630.294	17803.33
630.489	17584.2
630.683	18010.18
630.877	17891.4
631.071	17403.98
631.265	17373.26
631.459	17236.05
631.653	17541.19
631.848	17205.33
632.042	16912.47
632.236	17236.05
632.43	16660.57
632.624	16926.8
632.818	16711.77
633.012	16412.76
633.206	16572.5
633.4	16566.36
633.594	16406.62
633.788	16257.12
633.982	16414.81
634.176	16156.77
634.369	16146.53
634.563	16029.79
634.757	15939.68
634.951	15798.37
635.145	15822.95
635.339	15898.72
635.533	15722.6
635.726	15759.46
635.92	15337.58
636.114	15472.75
636.308	15136.88
636.501	15437.93
636.695	15323.24
636.889	14989.42
637.083	14876.79
637.276	14952.56
637.47	14966.9
637.664	14731.38
637.857	14526.58
638.051	14762.1
638.244	14319.74
638.438	14459
638.632	14168.19
638.825	14293.12
639.019	14295.16
639.212	14018.69
639.406	13992.06
639.599	14020.74
639.793	13873.28
639.986	13643.91
640.18	13799.55
640.373	13686.92
640.567	13596.81
640.76	13555.85
640.954	13226.12
641.147	13412.49
641.34	13011.09
641.534	13432.97
641.727	13203.6
641.92	13095.05
642.114	12890.26
642.307	12978.32
642.5	13142.16
642.694	12519.57
642.887	12816.53
643.08	12839.06
643.273	12724.37
643.467	12531.86
643.66	12466.33
643.853	12413.08
644.046	12327.07
644.239	12314.78
644.432	12292.25
644.626	12040.35
644.819	12163.23
645.012	11989.15
645.205	12120.22
645.398	11874.46
645.591	11915.42
645.784	11534.5
645.977	11649.19
646.17	11837.6
646.363	11552.93
646.556	11532.45
646.749	11341.99
646.942	11573.41
647.135	11421.86
647.328	11141.29
647.521	11051.18
647.714	10903.73
647.907	11159.72
648.099	11047.08
648.292	10940.59
648.485	10916.01
648.678	10954.93
648.871	10916.01
649.064	10797.23
649.256	10950.83
649.449	10475.7
649.642	10649.78
649.835	10588.34
650.027	10371.26
650.22	10569.91
650.413	10287.29
650.605	10148.03
650.798	10350.78
650.991	10088.64
651.183	10195.13
651.376	9932.99
651.568	10021.05
651.761	9879.74
651.954	9838.78
652.146	9547.97
652.339	9832.64
652.531	9904.32
652.724	9889.98
652.916	9666.75
653.109	9662.66
653.301	9576.64
653.494	9572.55
653.686	9443.53
653.879	9552.07
654.071	9380.04
654.263	9261.26
654.456	9310.41
654.648	9466.05
654.84	9183.43
655.033	9179.34
655.225	9128.14
655.417	8960.2
655.61	9240.78
655.802	8968.4
655.994	8888.53
656.186	8777.94
656.379	8833.23
656.571	8933.58
656.763	8577.23
656.955	8571.09
657.148	8554.71
657.34	8544.47
657.532	8614.1
657.724	8431.83
657.916	8515.8
658.108	8491.22
658.3	8220.89
658.492	8255.7
658.684	8245.46
658.876	8141.02
659.068	8265.94
659.26	7989.47
659.452	8196.31
659.644	8003.8
659.836	8171.74
660.028	7989.47
660.22	8032.47
660.412	7964.89
660.604	7780.57
660.796	7821.53
660.988	7641.31
661.18	7692.51
661.372	7444.71
661.563	7665.89
661.755	7612.64
661.947	7540.96
662.139	7430.37
662.331	7493.86
662.522	7344.36
662.714	7385.32
662.906	7336.17
663.097	7307.49
663.289	7282.92
663.481	7270.63
663.673	7264.49
663.864	7270.63
664.056	7098.6
664.247	7131.37
664.439	7160.04
664.631	7055.59
664.822	7004.39
665.014	6961.39
665.205	7061.74
665.397	7125.22
665.588	6813.93
665.78	6953.2
665.971	6885.61
666.163	6633.71
666.354	6668.53
666.546	6777.07
666.737	6828.27
666.929	6643.95
667.12	6596.85
667.311	6559.99
667.503	6312.18
667.694	6547.7
667.885	6586.61
668.077	6459.63
668.268	6326.52
668.459	6502.64
668.651	6365.43
668.842	6387.96
669.033	6236.41
669.224	6320.37
669.416	6351.09
669.607	6392.05
669.798	6160.63
669.989	6349.04
670.18	6172.92
670.371	6183.16
670.563	6148.34
670.754	6152.44
670.945	6125.82
671.136	6127.86
671.327	5826.81
671.518	5947.64
671.709	5867.77
671.9	6009.08
672.091	5976.31
672.282	5961.98
672.473	5775.61
672.664	5792
672.855	5681.41
673.046	5777.66
673.237	5933.31
673.428	5927.16
673.619	5787.9
673.809	5642.5
674	5658.88
674.191	5681.41
674.382	5404.93
674.573	5507.33
674.764	5542.14
674.954	5566.72
675.145	5576.96
675.336	5411.07
675.527	5433.6
675.717	5501.19
675.908	5345.54
676.099	5320.96
676.289	5581.06
676.48	5363.97
676.671	5449.99
676.861	5513.47
677.052	5284.1
677.243	5173.51
677.433	5374.21
677.624	5312.77
677.814	5335.3
678.005	5239.05
678.195	5241.09
678.386	5159.17
678.576	5263.62
678.767	5218.57
678.957	5019.91
679.148	4976.91
679.338	5095.69
679.529	5173.51
679.719	5120.26
679.909	5081.35
680.1	5021.96
680.29	4905.23
680.481	5038.34
680.671	4919.56
680.861	5163.27
681.052	4911.37
681.242	5028.1
681.432	5062.92
681.622	4946.19
681.813	4919.56
682.003	4954.38
682.193	4970.76
682.383	4997.39
682.573	4735.25
682.764	4901.13
682.954	4921.61
683.144	4899.08
683.334	4786.44
683.524	4731.15
683.714	4884.75
683.904	4839.69
684.094	4874.51
684.284	4817.16
684.474	4864.27
684.664	4725.01
684.854	4819.21
685.044	4782.35
685.234	4765.96
685.424	4686.09
685.614	4671.76
685.804	4804.88
685.994	4661.52
686.184	4673.81
686.374	4497.68
686.564	4565.26
686.753	4595.98
686.943	4442.39
687.133	4548.88
687.323	4634.89
687.513	4516.11
687.702	4495.63
687.892	4413.71
688.082	4473.11
688.272	4505.87
688.461	4313.36
688.651	4368.66
688.841	4411.67
689.03	4333.84
689.22	4374.8
689.41	4182.29
689.599	4206.87
689.789	4221.2
689.979	4190.49
690.168	4235.54
690.358	4147.48
690.547	4204.82
690.737	4176.15
690.926	4024.6
691.116	4061.46
691.305	4057.37
691.495	4104.47
691.684	4043.03
691.874	4057.37
692.063	3975.45
692.252	4071.7
692.442	4030.74
692.631	3950.87
692.82	4047.13
693.01	3866.91
693.199	3862.81
693.388	3858.71
693.578	3932.44
693.767	4047.13
693.956	3752.22
694.146	3823.9
694.335	3797.28
694.524	3858.71
694.713	3856.67
694.902	3664.16
695.092	3834.14
695.281	3811.61
695.47	3764.51
695.659	3709.21
695.848	3756.32
696.037	3705.12
696.226	3733.79
696.415	3735.84
696.604	3588.38
696.793	3692.83
696.982	3637.53
697.171	3637.53
697.36	3731.74
697.549	3825.95
697.738	3457.31
697.927	3569.95
698.116	3483.94
698.305	3555.62
698.494	3533.09
698.683	3590.43
698.872	3578.14
699.061	3561.76
699.25	3430.69
699.438	3528.99
699.627	3526.94
699.816	3569.95
700.005	3535.14
700.193	3510.56
700.382	3447.07
700.571	3535.14
700.76	3483.94
700.948	3555.62
701.137	3520.8
701.326	3543.33
701.514	3465.5
701.703	3469.6
701.892	3475.74
702.08	3490.08
702.269	3432.74
702.457	3389.73
702.646	3412.26
702.834	3408.16
703.023	3414.31
703.212	3404.07
703.4	3373.35
703.589	3332.39
703.777	3270.95
703.965	3266.85
704.154	3279.14
704.342	3340.58
704.531	3324.19
704.719	3242.28
704.907	3406.11
705.096	3309.86
705.284	3350.82
705.472	3287.33
705.661	3381.54
705.849	3250.47
706.037	3225.89
706.226	3199.27
706.414	3264.8
706.602	3209.51
706.79	3248.42
706.979	3266.85
707.167	3236.13
707.355	3176.74
707.543	3305.76
707.731	3266.85
707.919	3217.7
708.107	3139.88
708.296	3193.12
708.484	3174.69
708.672	3242.28
708.86	3184.93
709.048	3148.07
709.236	3125.54
709.424	3148.07
709.612	3096.87
709.8	3184.93
709.988	3160.36
710.176	3057.96
710.364	3047.72
710.551	3201.32
710.739	3035.43
710.927	3221.8
711.115	2943.27
711.303	3060.01
711.491	2976.04
711.679	3023.14
711.866	2990.38
712.054	2930.98
712.242	3019.05
712.43	3021.1
712.617	2939.18
712.805	3049.77
712.993	2957.61
713.181	2844.97
713.368	2957.61
713.556	2961.7
713.744	2779.43
713.931	3012.9
714.119	2998.57
714.306	2887.98
714.494	2818.35
714.682	2922.79
714.869	2973.99
715.057	2971.94
715.244	2842.92
715.432	2928.94
715.619	2961.7
715.807	2865.45
715.994	2892.07
716.182	2844.97
716.369	2857.26
716.556	2920.74
716.744	2840.87
716.931	2896.17
717.119	2914.6
717.306	2758.96
717.493	2887.98
717.681	2933.03
717.868	2824.49
718.055	2847.02
718.242	2853.16
718.43	2801.96
718.617	2801.96
718.804	2744.62
718.991	2783.53
719.179	2787.63
719.366	2758.96
719.553	2810.15
719.74	2750.76
719.927	2840.87
720.114	2797.87
720.301	2777.39
720.488	2734.38
720.676	2732.33
720.863	2783.53
721.05	2832.68
721.237	2707.76
721.424	2724.14
721.611	2771.24
721.798	2658.6
721.985	2765.1
722.172	2664.75
722.358	2703.66
722.545	2556.21
722.732	2588.97
722.919	2718
723.106	2595.12
723.293	2566.45
723.48	2629.93
723.667	2756.91
723.853	2699.56
724.04	2631.98
724.227	2677.04
724.414	2646.32
724.6	2564.4
724.787	2574.64
724.974	2666.8
725.161	2574.64
725.347	2502.96
725.534	2586.93
725.72	2597.17
725.907	2500.91
726.094	2613.55
726.28	2564.4
726.467	2531.63
726.653	2586.93
726.84	2605.36
727.027	2646.32
727.213	2441.52
727.4	2586.93
727.586	2423.09
727.773	2611.5
727.959	2572.59
728.145	2554.16
728.332	2435.38
728.518	2560.3
728.705	2513.2
728.891	2492.72
729.077	2613.55
729.264	2472.24
729.45	2464.05
729.636	2623.79
729.823	2625.84
730.009	2484.53
730.195	2345.27
730.382	2341.17
730.568	2451.76
730.754	2494.77
730.94	2421.04
731.126	2513.2
731.313	2445.62
731.499	2562.35
731.685	2455.86
731.871	2359.6
732.057	2445.62
732.243	2488.62
732.429	2423.09
732.615	2380.08
732.801	2359.6
732.987	2384.18
733.173	2525.49
733.359	2375.99
733.545	2392.37
733.731	2349.36
733.917	2275.63
734.103	2421.04
734.289	2310.45
734.475	2253.11
734.661	2332.98
734.847	2199.86
735.033	2318.64
735.219	2244.92
735.404	2359.6
735.59	2328.88
735.776	2296.11
735.962	2273.59
736.148	2173.24
736.333	2380.08
736.519	2201.91
736.705	2242.87
736.89	2271.54
737.076	2230.58
737.262	2257.2
737.447	2345.27
737.633	2193.72
737.819	2271.54
738.004	2206
738.19	2234.68
738.375	2324.79
738.561	2191.67
738.747	2263.35
738.932	2175.28
739.118	2195.76
739.303	2156.85
739.489	2208.05
739.674	2185.52
739.859	2163
740.045	2132.28
740.23	2148.66
740.416	2091.32
740.601	2177.33
740.786	2064.69
740.972	2001.21
741.157	2128.18
741.342	2044.21
741.528	2101.56
741.713	2054.45
741.898	2064.69
742.084	2154.8
742.269	2081.08
742.454	1909.05
742.639	2136.37
742.824	2148.66
743.01	1861.94
743.195	1995.06
743.38	2097.46
743.565	1945.91
743.75	1960.25
743.935	1939.77
744.12	1911.1
744.305	1888.57
744.49	1947.96
744.675	1853.75
744.86	1986.87
745.045	1986.87
745.23	2009.4
745.415	1919.29
745.6	1761.59
745.785	1872.18
745.97	1904.95
746.155	1814.84
746.34	1837.37
746.525	1808.7
746.71	1786.17
746.895	1851.71
747.079	1773.88
747.264	1925.43
747.449	1831.23
747.634	1753.4
747.819	1792.31
748.003	1829.18
748.188	1698.11
748.373	1724.73
748.557	1689.92
748.742	1655.1
748.927	1659.2
749.111	1630.52
749.296	1589.57
749.481	1630.52
749.665	1628.48
749.85	1653.05
750.034	1638.72
750.219	1591.61
750.404	1663.29
750.588	1585.47
750.773	1589.57
750.957	1407.3
751.141	1474.88
751.326	1569.09
751.51	1487.17
751.695	1540.41
751.879	1431.87
752.064	1476.93
752.248	1540.41
752.432	1505.6
752.617	1528.13
752.801	1417.54
752.985	1337.66
753.17	1425.73
753.354	1417.54
753.538	1442.11
753.722	1454.4
753.907	1366.34
754.091	1343.81
754.275	1505.6
754.459	1386.82
754.643	1370.43
754.828	1372.48
755.012	1354.05
755.196	1366.34
755.38	1411.39
755.564	1362.24
755.748	1339.71
755.932	1364.29
756.116	1253.7
756.3	1272.13
756.484	1306.95
756.668	1247.55
756.852	1163.59
757.036	1265.99
757.22	1335.62
757.404	1182.02
757.588	1239.36
757.772	1235.27
757.956	1192.26
758.14	1237.31
758.323	1194.31
758.507	1069.38
758.691	1235.27
758.875	1188.16
759.059	1200.45
759.242	1208.64
759.426	1159.49
759.61	1210.69
759.794	1132.87
759.977	1147.2
760.161	1134.92
760.345	1145.16
760.528	1179.97
760.712	1089.86
760.895	1069.38
761.079	1001.8
761.263	1132.87
761.446	1014.09
761.63	1087.81
761.813	942.41
761.997	1016.13
762.18	1069.38
762.364	1055.05
762.547	964.93
762.731	1067.33
762.914	1048.9
763.098	983.37
763.281	1003.85
763.464	1022.28
763.648	1034.57
763.831	1003.85
764.015	975.17
764.198	1030.47
764.381	981.32
764.564	962.89
764.748	909.64
764.931	1022.28
765.114	983.37
765.297	1012.04
765.481	1003.85
765.664	1003.85
765.847	948.55
766.03	866.63
766.213	885.06
766.397	1005.89
766.58	966.98
766.763	923.98
766.946	956.74
767.129	942.41
767.312	913.74
767.495	850.25
767.678	876.87
767.861	833.86
768.044	889.16
768.227	893.26
768.41	878.92
768.593	944.45
768.776	905.54
768.959	821.58
769.142	825.67
769.324	854.34
769.507	872.78
769.69	739.66
769.873	780.62
770.056	909.64
770.239	921.93
770.421	899.4
770.604	862.54
770.787	866.63
770.97	811.34
771.152	887.11
771.335	821.58
771.518	797
771.7	844.1
771.883	837.96
772.066	846.15
772.248	846.15
772.431	788.81
772.613	762.19
772.796	805.19
772.978	807.24
773.161	772.43
773.343	760.14
773.526	717.13
773.708	692.55
773.891	770.38
774.073	698.7
774.256	772.43
774.438	729.42
774.621	684.36
774.803	762.19
774.985	710.99
775.168	706.89
775.35	717.13
775.532	727.37
775.715	637.26
775.897	688.46
776.079	723.27
776.261	659.79
776.444	659.79
776.626	737.61
776.808	682.31
776.99	657.74
777.173	672.08
777.355	743.75
777.537	715.08
777.719	665.93
777.901	618.83
778.083	594.25
778.265	667.98
778.447	676.17
778.629	663.88
778.811	645.45
778.993	563.53
779.175	667.98
779.357	565.58
779.539	608.59
779.721	573.77
779.903	586.06
780.085	600.4
780.267	627.02
780.449	557.39
780.631	575.82
780.812	502.09
780.994	602.44
781.176	524.62
781.358	510.29
781.54	512.33
781.721	594.25
781.903	516.43
782.085	588.11
782.267	467.28
782.448	577.87
782.63	586.06
782.812	536.91
782.993	532.81
783.175	471.37
783.357	487.76
783.538	563.53
783.72	467.28
783.901	581.96
784.083	469.33
784.264	459.09
784.446	473.42
784.627	493.9
784.809	461.13
784.99	502.09
785.172	504.14
785.353	450.89
785.535	481.61
785.716	440.65
785.897	405.84
786.079	450.89
786.26	428.37
786.441	428.37
786.623	411.98
786.804	420.17
786.985	454.99
787.167	461.13
787.348	475.47
787.529	442.7
787.71	448.85
787.891	325.97
788.073	381.26
788.254	459.09
788.435	434.51
788.616	354.64
788.797	354.64
788.978	442.7
789.159	438.61
789.34	459.09
789.522	364.88
789.703	405.84
789.884	377.17
790.065	416.08
790.246	356.69
790.427	360.78
790.607	414.03
790.788	354.64
790.969	303.44
791.15	383.31
791.331	332.11
791.512	334.16
791.693	319.82
791.874	364.88
792.054	321.87
792.235	385.36
792.416	358.74
792.597	334.16
792.778	330.06
792.958	332.11
793.139	278.87
793.32	364.88
793.5	287.06
793.681	397.65
793.862	332.11
794.042	280.91
794.223	252.24
794.404	385.36
794.584	239.95
794.765	287.06
794.945	272.72
795.126	307.54
795.306	285.01
795.487	350.54
795.667	250.19
795.848	285.01
796.028	280.91
796.209	270.67
796.389	317.78
796.57	289.1
796.75	266.58
796.93	303.44
797.111	305.49
797.291	317.78
797.471	256.34
797.652	274.77
797.832	301.39
798.012	266.58
798.192	287.06
798.373	270.67
798.553	323.92
798.733	287.06
798.913	203.09
799.093	317.78
799.274	205.14
799.454	317.78
799.634	266.58
799.814	229.71
799.994	192.85
800.174	291.15
800.354	235.86
800.534	219.47
800.714	211.28
800.894	282.96
801.074	244.05
801.254	262.48
801.434	285.01
801.614	176.47
801.794	227.67
801.974	594.25
802.154	225.62
802.334	297.3
802.514	209.23
802.693	248.15
802.873	299.34
803.053	192.85
803.233	332.11
803.413	266.58
803.592	217.43
803.772	184.66
803.952	219.47
804.131	162.13
804.311	235.86
804.491	233.81
804.67	297.3
804.85	190.8
805.03	229.71
805.209	211.28
805.389	198.99
805.568	170.32
805.748	176.47
805.928	203.09
806.107	260.43
806.287	209.23
806.466	147.8
806.646	194.9
806.825	203.09
807.004	190.8
807.184	201.04
807.363	219.47
807.543	151.89
807.722	203.09
807.901	209.23
808.081	178.51
808.26	80.21
808.439	158.03
808.619	108.88
808.798	190.8
808.977	129.36
809.156	235.86
809.336	182.61
809.515	258.39
809.694	256.34
809.873	153.94
810.052	192.85
810.231	76.12
810.411	198.99
810.59	135.51
810.769	266.58
810.948	235.86
811.127	127.32
811.306	139.6
811.485	135.51
811.664	192.85
811.843	205.14
812.022	131.41
812.201	184.66
812.38	168.27
812.559	108.88
812.737	160.08
812.916	104.79
813.095	123.22
813.274	110.93
813.453	186.71
813.632	143.7
813.811	164.18
813.989	168.27
814.168	190.8
814.347	137.56
814.526	127.32
814.704	182.61
814.883	133.46
815.062	133.46
815.24	176.47
815.419	82.26
815.598	168.27
815.776	74.07
815.955	123.22
816.133	176.47
816.312	141.65
816.49	176.47
816.669	174.42
816.847	115.03
817.026	131.41
817.204	119.12
817.383	198.99
817.561	88.4
817.74	147.8
817.918	135.51
818.097	143.7
818.275	72.02
818.453	198.99
818.632	141.65
818.81	88.4
818.988	143.7
819.167	133.46
819.345	151.89
819.523	168.27
819.701	160.08
819.879	203.09
820.058	98.64
820.236	117.08
820.414	147.8
820.592	141.65
820.77	112.98
820.948	98.64
821.127	82.26
821.305	151.89
821.483	106.84
821.661	94.55
821.839	69.97
822.017	108.88
822.195	129.36
822.373	153.94
822.551	188.75
822.729	151.89
822.907	41.3
823.085	139.6
823.262	102.74
823.44	98.64
823.618	43.35
823.796	88.4
823.974	90.45
824.152	61.78
824.329	123.22
824.507	121.17
824.685	147.8
824.863	117.08
825.04	92.5
825.218	61.78
825.396	145.75
825.574	162.13
825.751	74.07
825.929	147.8
826.107	106.84
826.284	170.32
826.462	106.84
826.639	100.69
826.817	41.3
826.994	90.45
827.172	194.9
827.349	115.03
827.527	61.78
827.704	186.71
827.882	92.5
828.059	108.88
828.237	96.6
828.414	86.36
828.591	55.64
828.769	74.07
828.946	-3.75
829.124	123.22
829.301	94.55
829.478	127.32
829.655	160.08
829.833	129.36
830.01	47.44
830.187	125.27
830.364	67.92
830.542	82.26
830.719	133.46
830.896	94.55
831.073	94.55
831.25	92.5
831.427	121.17
831.604	100.69
831.782	108.88
831.959	49.49
832.136	145.75
832.313	131.41
832.49	57.68
832.667	158.03
832.844	-30.38
833.021	104.79
833.198	82.26
833.374	110.93
833.551	137.56
833.728	31.06
833.905	104.79
834.082	35.16
834.259	55.64
834.436	102.74
834.612	49.49
834.789	168.27
834.966	82.26
835.143	119.12
835.319	98.64
835.496	104.79
835.673	82.26
835.85	78.16
836.026	90.45
836.203	102.74
836.38	88.4
836.556	39.25
836.733	43.35
836.909	131.41
837.086	61.78
837.262	74.07
837.439	18.77
837.616	65.88
837.792	106.84
837.968	86.36
838.145	35.16
838.321	49.49
838.498	92.5
838.674	100.69
838.851	49.49
839.027	98.64
839.203	110.93
839.38	69.97
839.556	119.12
839.732	133.46
839.909	39.25
840.085	123.22
840.261	65.88
840.437	112.98
840.614	47.44
840.79	57.68
840.966	22.87
841.142	117.08
841.318	8.53
841.494	-18.09
841.671	24.92
841.847	98.64
842.023	72.02
842.199	47.44
842.375	88.4
842.551	-30.38
842.727	67.92
842.903	166.23
843.079	72.02
843.255	39.25
843.431	45.4
843.607	98.64
843.783	82.26
843.959	47.44
844.134	63.83
844.31	139.6
844.486	104.79
844.662	4.44
844.838	53.59
845.013	76.12
845.189	90.45
845.365	63.83
845.541	104.79
845.716	92.5
845.892	90.45
846.068	63.83
846.244	61.78
846.419	16.73
846.595	22.87
846.77	45.4
846.946	67.92
847.122	72.02
847.297	45.4
847.473	29.01
847.648	-38.57
847.824	41.3
847.999	92.5
848.175	100.69
848.35	31.06
848.526	88.4
848.701	98.64
848.876	69.97
849.052	92.5
849.227	-11.95
849.403	37.2
849.578	12.63
849.753	24.92
849.929	86.36
850.104	10.58
850.279	26.96
850.454	100.69
850.63	49.49
850.805	82.26
850.98	35.16
851.155	37.2
851.33	-18.09
851.505	26.96
851.681	74.07
851.856	49.49
852.031	145.75
852.206	33.11
852.381	127.32
852.556	8.53
852.731	49.49
852.906	117.08
853.081	10.58
853.256	100.69
853.431	20.82
853.606	31.06
853.781	31.06
853.956	35.16
854.131	61.78
854.305	-59.05
854.48	63.83
854.655	33.11
854.83	-22.19
855.005	49.49
855.18	37.2
855.354	-7.85
855.529	12.63
855.704	14.68
855.879	125.27
856.053	51.54
856.228	-5.8
856.403	-36.52
856.577	106.84
856.752	10.58
856.926	90.45
857.101	53.59
857.276	63.83
857.45	20.82
857.625	35.16
857.799	-18.09
857.974	16.73
858.148	53.59
858.323	26.96
858.497	76.12
858.672	37.2
858.846	-50.86
859.02	45.4
859.195	-18.09
859.369	47.44
859.543	41.3
859.718	-9.9
859.892	104.79
860.066	-7.85
860.241	59.73
860.415	72.02
860.589	69.97
860.763	51.54
860.938	-24.23
861.112	4.44
861.286	2.39
861.46	18.77
861.634	35.16
861.808	51.54
861.982	29.01
862.157	10.58
862.331	26.96
862.505	61.78
862.679	12.63
862.853	74.07
863.027	2.39
863.201	8.53
863.375	49.49
863.549	61.78
863.722	67.92
863.896	6.49
864.07	-38.57
864.244	-18.09
864.418	51.54
864.592	35.16
864.766	-7.85
864.939	59.73
865.113	-7.85
865.287	76.12
865.461	41.3
865.634	86.36
865.808	-3.75
865.982	72.02
866.156	-20.14
866.329	16.73
866.503	14.68
866.676	22.87
866.85	10.58
867.024	55.64
867.197	39.25
867.371	39.25
867.544	6.49
867.718	35.16
867.891	61.78
868.065	-18.09
868.238	47.44
868.412	96.6
868.585	41.3
868.759	10.58
868.932	-5.8
869.105	10.58
869.279	-32.43
869.452	-36.52
869.625	74.07
869.799	63.83
869.972	43.35
870.145	-13.99
870.319	33.11
870.492	12.63
870.665	61.78
870.838	26.96
871.011	49.49
871.185	63.83
871.358	61.78
871.531	59.73
871.704	35.16
871.877	106.84
872.05	47.44
872.223	-1.71
872.396	24.92
872.569	100.69
872.742	22.87
872.915	131.41
873.088	18.77
873.261	14.68
873.434	33.11
873.607	6.49
873.78	39.25
873.953	26.96
874.126	84.31
874.299	51.54
874.471	-9.9
874.644	84.31
874.817	-9.9
874.99	41.3
875.163	0.34
875.335	65.88
875.508	2.39
875.681	31.06
875.853	61.78
876.026	18.77
876.199	35.16
876.371	31.06
876.544	-24.23
876.717	-11.95
876.889	2.39
877.062	57.68
877.234	2.39
877.407	12.63
877.579	18.77
877.752	43.35
877.924	51.54
878.097	43.35
878.269	16.73
878.442	69.97
878.614	29.01
878.786	37.2
878.959	49.49
879.131	47.44
879.303	78.16
879.476	24.92
879.648	22.87
879.82	26.96
879.993	26.96
880.165	16.73
880.337	-5.8
880.509	45.4
880.681	53.59
880.854	41.3
881.026	51.54
881.198	125.27
881.37	-38.57
881.542	119.12
881.714	29.01
881.886	72.02
882.058	35.16
882.23	20.82
882.402	-24.23
882.574	57.68
882.746	-32.43
882.918	33.11
883.09	39.25
883.262	12.63
883.434	33.11
883.606	16.73
883.778	6.49
883.95	65.88
884.122	84.31
884.293	0.34
884.465	57.68
884.637	24.92
884.809	4.44
884.98	47.44
885.152	-11.95
885.324	33.11
885.496	35.16
885.667	47.44
885.839	57.68
886.011	45.4
886.182	20.82
886.354	57.68
886.525	-7.85
886.697	-20.14
886.869	35.16
887.04	49.49
887.212	16.73
887.383	20.82
887.555	121.17
887.726	59.73
887.897	-20.14
888.069	92.5
888.24	39.25
888.412	45.4
888.583	-9.9
888.754	29.01
888.926	-50.86
889.097	37.2
889.268	-30.38
889.44	-3.75
889.611	78.16
889.782	-57
889.953	45.4
890.125	55.64
890.296	-24.23
890.467	8.53
890.638	-3.75
890.809	-3.75
890.98	20.82
891.151	-34.47
891.323	37.2
891.494	-3.75
891.665	18.77
891.836	49.49
892.007	2.39
892.178	-20.14
892.349	0.34
892.52	-46.76
892.691	43.35
892.862	35.16
893.032	-46.76
893.203	-36.52
893.374	16.73
893.545	43.35
893.716	35.16
893.887	-40.62
894.057	67.92
894.228	43.35
894.399	16.73
894.57	-13.99
894.74	78.16
894.911	-40.62
895.082	18.77
895.253	35.16
895.423	-7.85
895.594	57.68
895.764	-28.33
895.935	47.44
896.106	92.5
896.276	43.35
896.447	4.44
896.617	-7.85
896.788	39.25
896.958	65.88
897.129	61.78
897.299	-1.71
897.47	0.34
897.64	104.79
897.81	-24.23
897.981	22.87
898.151	33.11
898.322	39.25
898.492	10.58
898.662	-24.23
898.832	16.73
899.003	-18.09
899.173	61.78
899.343	-13.99
899.513	-30.38
