Data from USB4F104151__50__12-36-07-526.txt Node

Date: Fri Mar 14 12:36:07 EDT 2025
User: louis
Spectrometer: USB4F10415
Trigger mode: 4
Integration Time (sec): 2.000000E-2
Scans to average: 1
Electric dark correction enabled: true
Nonlinearity correction enabled: false
Boxcar width: 0
XAxis mode: Wavelengths
Number of Pixels in Spectrum: 3648
>>>>>Begin Spectral Data<<<<<
178.204	-145.58
178.424	-145.58
178.644	-145.58
178.864	-57.51
179.084	-86.19
179.304	12.12
179.524	-45.23
179.744	-47.27
179.964	1.88
180.184	12.12
180.404	100.18
180.624	-18.6
180.844	36.69
181.064	-32.94
181.283	12.12
181.503	-57.51
181.723	26.45
181.943	-24.75
182.163	5.97
182.383	-16.55
182.602	24.4
182.822	-12.46
183.042	-39.08
183.262	18.26
183.482	38.74
183.701	-37.03
183.921	32.6
184.141	16.21
184.361	-0.17
184.58	71.51
184.8	10.07
185.02	36.69
185.239	18.26
185.459	1.88
185.679	89.94
185.898	-8.36
186.118	63.32
186.338	32.6
186.557	44.88
186.777	-16.55
186.997	-65.71
187.216	-18.6
187.436	22.36
187.655	42.84
187.875	3.93
188.095	-30.89
188.314	34.64
188.534	79.7
188.753	26.45
188.973	-8.36
189.192	-2.22
189.412	57.17
189.631	-32.94
189.851	10.07
190.07	-24.75
190.29	-49.32
190.509	12.12
190.729	-10.41
190.948	87.89
191.168	87.89
191.387	-61.61
191.607	-24.75
191.826	-30.89
192.045	63.32
192.265	-59.56
192.484	-4.27
192.704	-4.27
192.923	18.26
193.142	38.74
193.362	44.88
193.581	36.69
193.8	20.31
194.02	57.17
194.239	26.45
194.458	-10.41
194.678	71.51
194.897	-2.22
195.116	-2.22
195.335	-6.31
195.555	-10.41
195.774	44.88
195.993	1.88
196.212	-6.31
196.432	42.84
196.651	16.21
196.87	12.12
197.089	102.23
197.308	26.45
197.528	-24.75
197.747	-123.05
197.966	-4.27
198.185	71.51
198.404	12.12
198.623	-39.08
198.842	48.98
199.062	24.4
199.281	20.31
199.5	32.6
199.719	-69.8
199.938	48.98
200.157	22.36
200.376	116.56
200.595	18.26
200.814	5.97
201.033	-43.18
201.252	120.66
201.471	26.45
201.69	40.79
201.909	110.42
202.128	77.65
202.347	79.7
202.566	71.51
202.785	-32.94
203.004	40.79
203.223	28.5
203.442	-16.55
203.661	-4.27
203.879	-47.27
204.098	100.18
204.317	-37.03
204.536	44.88
204.755	-49.32
204.974	40.79
205.193	28.5
205.411	12.12
205.63	-16.55
205.849	28.5
206.068	14.17
206.287	-10.41
206.505	-24.75
206.724	24.4
206.943	20.31
207.162	-32.94
207.381	-4.27
207.599	3.93
207.818	59.22
208.037	36.69
208.255	-39.08
208.474	-18.6
208.693	10.07
208.911	-6.31
209.13	51.03
209.349	18.26
209.567	22.36
209.786	53.08
210.005	-37.03
210.223	18.26
210.442	-18.6
210.661	32.6
210.879	89.94
211.098	-45.23
211.316	57.17
211.535	100.18
211.753	53.08
211.972	5.97
212.191	12.12
212.409	10.07
212.628	16.21
212.846	53.08
213.065	5.97
213.283	85.84
213.502	10.07
213.72	-16.55
213.938	18.26
214.157	-18.6
214.375	42.84
214.594	75.6
214.812	51.03
215.031	26.45
215.249	10.07
215.467	-12.46
215.686	8.02
215.904	40.79
216.122	-4.27
216.341	44.88
216.559	20.31
216.778	79.7
216.996	20.31
217.214	-20.65
217.432	-53.42
217.651	-32.94
217.869	18.26
218.087	73.56
218.306	-63.66
218.524	81.75
218.742	-4.27
218.96	67.41
219.179	48.98
219.397	1.88
219.615	71.51
219.833	-14.51
220.051	-51.37
220.27	-24.75
220.488	106.32
220.706	-20.65
220.924	14.17
221.142	81.75
221.36	5.97
221.578	5.97
221.796	53.08
222.015	108.37
222.233	48.98
222.451	10.07
222.669	12.12
222.887	44.88
223.105	8.02
223.323	-26.79
223.541	20.31
223.759	65.36
223.977	-45.23
224.195	94.04
224.413	16.21
224.631	-30.89
224.849	3.93
225.067	48.98
225.285	5.97
225.503	-14.51
225.721	44.88
225.939	-32.94
226.157	18.26
226.375	67.41
226.592	-4.27
226.81	-12.46
227.028	46.93
227.246	24.4
227.464	-8.36
227.682	53.08
227.9	-45.23
228.117	22.36
228.335	122.71
228.553	-63.66
228.771	-10.41
228.989	-4.27
229.206	20.31
229.424	46.93
229.642	1.88
229.86	3.93
230.077	65.36
230.295	34.64
230.513	26.45
230.731	18.26
230.948	85.84
231.166	18.26
231.384	32.6
231.601	12.12
231.819	16.21
232.037	34.64
232.254	10.07
232.472	-59.56
232.689	-32.94
232.907	44.88
233.125	-94.38
233.342	20.31
233.56	-4.27
233.777	-6.31
233.995	-30.89
234.213	98.13
234.43	24.4
234.648	55.12
234.865	-24.75
235.083	61.27
235.3	30.55
235.518	-0.17
235.735	42.84
235.953	102.23
236.17	-34.99
236.388	36.69
236.605	-24.75
236.822	24.4
237.04	10.07
237.257	71.51
237.475	-14.51
237.692	32.6
237.909	-0.17
238.127	-39.08
238.344	3.93
238.562	46.93
238.779	-4.27
238.996	-10.41
239.214	57.17
239.431	48.98
239.648	-45.23
239.865	63.32
240.083	18.26
240.3	1.88
240.517	75.6
240.735	-0.17
240.952	79.7
241.169	24.4
241.386	-10.41
241.603	5.97
241.821	26.45
242.038	24.4
242.255	42.84
242.472	-59.56
242.689	-30.89
242.907	53.08
243.124	14.17
243.341	63.32
243.558	22.36
243.775	28.5
243.992	24.4
244.209	32.6
244.426	-0.17
244.643	73.56
244.86	16.21
245.078	57.17
245.295	57.17
245.512	8.02
245.729	51.03
245.946	26.45
246.163	40.79
246.38	55.12
246.597	-53.42
246.814	-41.13
247.031	-6.31
247.248	-12.46
247.464	18.26
247.681	16.21
247.898	67.41
248.115	-8.36
248.332	-0.17
248.549	18.26
248.766	59.22
248.983	122.71
249.2	-10.41
249.417	-16.55
249.633	-37.03
249.85	94.04
250.067	-20.65
250.284	-28.84
250.501	51.03
250.717	94.04
250.934	46.93
251.151	36.69
251.368	-2.22
251.585	36.69
251.801	-2.22
252.018	-34.99
252.235	8.02
252.451	69.46
252.668	-45.23
252.885	77.65
253.102	8.02
253.318	116.56
253.535	-22.7
253.752	-14.51
253.968	-16.55
254.185	8.02
254.401	1.88
254.618	55.12
254.835	18.26
255.051	10.07
255.268	34.64
255.484	3.93
255.701	-16.55
255.917	34.64
256.134	12.12
256.351	14.17
256.567	32.6
256.784	-4.27
257	-41.13
257.217	81.75
257.433	-16.55
257.65	57.17
257.866	-0.17
258.082	-34.99
258.299	5.97
258.515	48.98
258.732	-4.27
258.948	-26.79
259.165	26.45
259.381	3.93
259.597	14.17
259.814	16.21
260.03	63.32
260.246	65.36
260.463	-53.42
260.679	12.12
260.895	-39.08
261.112	-18.6
261.328	36.69
261.544	59.22
261.761	-2.22
261.977	-34.99
262.193	-55.47
262.409	-8.36
262.626	34.64
262.842	-18.6
263.058	36.69
263.274	34.64
263.49	-51.37
263.707	81.75
263.923	87.89
264.139	-6.31
264.355	73.56
264.571	98.13
264.787	-0.17
265.004	38.74
265.22	-10.41
265.436	20.31
265.652	16.21
265.868	44.88
266.084	-22.7
266.3	5.97
266.516	-116.9
266.732	10.07
266.948	77.65
267.164	-4.27
267.38	22.36
267.596	-2.22
267.812	79.7
268.028	69.46
268.244	-41.13
268.46	5.97
268.676	12.12
268.892	38.74
269.108	38.74
269.324	14.17
269.54	24.4
269.756	1.88
269.972	-24.75
270.188	79.7
270.403	57.17
270.619	-26.79
270.835	26.45
271.051	8.02
271.267	-34.99
271.483	73.56
271.698	-2.22
271.914	61.27
272.13	40.79
272.346	-4.27
272.562	5.97
272.777	34.64
272.993	30.55
273.209	59.22
273.425	104.28
273.64	-10.41
273.856	44.88
274.072	87.89
274.287	28.5
274.503	-32.94
274.719	-26.79
274.934	73.56
275.15	28.5
275.366	14.17
275.581	-30.89
275.797	18.26
276.012	-34.99
276.228	38.74
276.444	3.93
276.659	-2.22
276.875	-30.89
277.09	51.03
277.306	67.41
277.521	30.55
277.737	-59.56
277.952	51.03
278.168	1.88
278.383	16.21
278.599	30.55
278.814	5.97
279.03	73.56
279.245	-16.55
279.461	-16.55
279.676	55.12
279.892	-26.79
280.107	28.5
280.322	38.74
280.538	-2.22
280.753	-49.32
280.969	24.4
281.184	10.07
281.399	-0.17
281.615	28.5
281.83	112.47
282.045	-53.42
282.26	10.07
282.476	-2.22
282.691	85.84
282.906	-12.46
283.122	79.7
283.337	10.07
283.552	-34.99
283.767	18.26
283.983	44.88
284.198	14.17
284.413	36.69
284.628	-45.23
284.843	48.98
285.058	10.07
285.274	28.5
285.489	42.84
285.704	-8.36
285.919	-18.6
286.134	-4.27
286.349	28.5
286.564	-0.17
286.779	59.22
286.995	-8.36
287.21	46.93
287.425	71.51
287.64	44.88
287.855	28.5
288.07	-49.32
288.285	132.95
288.5	24.4
288.715	8.02
288.93	42.84
289.145	24.4
289.36	1.88
289.575	91.99
289.79	73.56
290.004	-4.27
290.219	75.6
290.434	85.84
290.649	65.36
290.864	36.69
291.079	-20.65
291.294	3.93
291.509	77.65
291.724	73.56
291.938	14.17
292.153	-26.79
292.368	32.6
292.583	55.12
292.798	24.4
293.012	73.56
293.227	67.41
293.442	-18.6
293.657	-16.55
293.871	83.8
294.086	44.88
294.301	81.75
294.516	38.74
294.73	-30.89
294.945	-24.75
295.16	36.69
295.374	59.22
295.589	-4.27
295.804	-16.55
296.018	40.79
296.233	55.12
296.447	40.79
296.662	14.17
296.877	59.22
297.091	24.4
297.306	-2.22
297.52	-55.47
297.735	5.97
297.949	71.51
298.164	-45.23
298.378	53.08
298.593	-22.7
298.807	65.36
299.022	-2.22
299.236	3.93
299.451	18.26
299.665	-12.46
299.88	20.31
300.094	5.97
300.309	-30.89
300.523	-12.46
300.737	69.46
300.952	-26.79
301.166	1.88
301.381	18.26
301.595	14.17
301.809	48.98
302.024	81.75
302.238	-39.08
302.452	26.45
302.667	28.5
302.881	-18.6
303.095	91.99
303.309	-22.7
303.524	-12.46
303.738	-39.08
303.952	-6.31
304.166	69.46
304.381	-30.89
304.595	32.6
304.809	46.93
305.023	75.6
305.237	48.98
305.452	48.98
305.666	5.97
305.88	-2.22
306.094	108.37
306.308	55.12
306.522	69.46
306.736	-47.27
306.95	30.55
307.164	-49.32
307.379	-8.36
307.593	48.98
307.807	65.36
308.021	5.97
308.235	1.88
308.449	12.12
308.663	5.97
308.877	16.21
309.091	12.12
309.305	79.7
309.519	-53.42
309.733	46.93
309.947	5.97
310.161	16.21
310.374	51.03
310.588	20.31
310.802	-6.31
311.016	73.56
311.23	67.41
311.444	-28.84
311.658	26.45
311.872	32.6
312.085	100.18
312.299	-10.41
312.513	59.22
312.727	-28.84
312.941	-2.22
313.154	75.6
313.368	24.4
313.582	46.93
313.796	112.47
314.009	79.7
314.223	34.64
314.437	44.88
314.651	18.26
314.864	26.45
315.078	81.75
315.292	59.22
315.505	-16.55
315.719	34.64
315.933	-28.84
316.146	28.5
316.36	-2.22
316.573	-4.27
316.787	40.79
317.001	5.97
317.214	12.12
317.428	1.88
317.641	87.89
317.855	114.52
318.068	-39.08
318.282	48.98
318.495	-4.27
318.709	81.75
318.922	-0.17
319.136	79.7
319.349	30.55
319.563	18.26
319.776	20.31
319.99	-6.31
320.203	-37.03
320.417	77.65
320.63	-4.27
320.843	24.4
321.057	12.12
321.27	38.74
321.483	-6.31
321.697	137.04
321.91	-22.7
322.124	-6.31
322.337	79.7
322.55	30.55
322.763	42.84
322.977	98.13
323.19	38.74
323.403	32.6
323.617	89.94
323.83	61.27
324.043	-51.37
324.256	16.21
324.469	-6.31
324.683	36.69
324.896	3.93
325.109	24.4
325.322	-43.18
325.535	32.6
325.748	61.27
325.962	-2.22
326.175	36.69
326.388	36.69
326.601	20.31
326.814	10.07
327.027	42.84
327.24	57.17
327.453	-2.22
327.666	16.21
327.879	30.55
328.092	30.55
328.305	46.93
328.518	36.69
328.731	-2.22
328.944	-34.99
329.157	89.94
329.37	46.93
329.583	46.93
329.796	65.36
330.009	-8.36
330.222	55.12
330.435	-2.22
330.648	-22.7
330.861	-2.22
331.073	36.69
331.286	71.51
331.499	73.56
331.712	42.84
331.925	44.88
332.138	-18.6
332.35	102.23
332.563	16.21
332.776	67.41
332.989	22.36
333.202	24.4
333.414	-24.75
333.627	-10.41
333.84	22.36
334.053	38.74
334.265	1.88
334.478	53.08
334.691	34.64
334.903	61.27
335.116	-26.79
335.329	22.36
335.541	141.14
335.754	24.4
335.966	61.27
336.179	-24.75
336.392	-51.37
336.604	24.4
336.817	51.03
337.029	18.26
337.242	32.6
337.454	20.31
337.667	26.45
337.88	67.41
338.092	10.07
338.305	63.32
338.517	77.65
338.729	44.88
338.942	69.46
339.154	1.88
339.367	-20.65
339.579	48.98
339.792	30.55
340.004	-18.6
340.217	24.4
340.429	-59.56
340.641	55.12
340.854	28.5
341.066	-49.32
341.278	98.13
341.491	98.13
341.703	51.03
341.915	20.31
342.128	73.56
342.34	46.93
342.552	-32.94
342.764	-28.84
342.977	20.31
343.189	8.02
343.401	51.03
343.613	34.64
343.826	83.8
344.038	-10.41
344.25	53.08
344.462	-65.71
344.674	18.26
344.886	30.55
345.099	44.88
345.311	110.42
345.523	40.79
345.735	59.22
345.947	73.56
346.159	59.22
346.371	14.17
346.583	-2.22
346.795	83.8
347.007	-80.04
347.219	55.12
347.431	24.4
347.643	75.6
347.855	26.45
348.067	42.84
348.279	-67.75
348.491	-0.17
348.703	-22.7
348.915	12.12
349.127	48.98
349.339	-67.75
349.551	42.84
349.763	-28.84
349.975	-4.27
350.187	-6.31
350.399	34.64
350.61	5.97
350.822	22.36
351.034	-55.47
351.246	87.89
351.458	-61.61
351.669	34.64
351.881	71.51
352.093	34.64
352.305	89.94
352.517	14.17
352.728	-86.19
352.94	63.32
353.152	28.5
353.363	-34.99
353.575	1.88
353.787	81.75
353.999	12.12
354.21	85.84
354.422	55.12
354.633	-24.75
354.845	69.46
355.057	83.8
355.268	79.7
355.48	-16.55
355.692	30.55
355.903	14.17
356.115	38.74
356.326	22.36
356.538	32.6
356.749	14.17
356.961	120.66
357.172	51.03
357.384	42.84
357.595	8.02
357.807	30.55
358.018	-43.18
358.23	94.04
358.441	34.64
358.653	63.32
358.864	38.74
359.075	44.88
359.287	73.56
359.498	65.36
359.709	-0.17
359.921	-28.84
360.132	94.04
360.344	48.98
360.555	-14.51
360.766	32.6
360.977	3.93
361.189	53.08
361.4	1.88
361.611	46.93
361.823	71.51
362.034	26.45
362.245	-2.22
362.456	46.93
362.667	34.64
362.879	30.55
363.09	26.45
363.301	26.45
363.512	40.79
363.723	75.6
363.935	-28.84
364.146	53.08
364.357	-4.27
364.568	36.69
364.779	22.36
364.99	106.32
365.201	14.17
365.412	1.88
365.623	10.07
365.834	28.5
366.045	-30.89
366.256	63.32
366.467	69.46
366.678	16.21
366.889	57.17
367.1	67.41
367.311	69.46
367.522	-49.32
367.733	38.74
367.944	-20.65
368.155	-8.36
368.366	-0.17
368.577	24.4
368.788	87.89
368.999	100.18
369.209	67.41
369.42	96.08
369.631	91.99
369.842	83.8
370.053	3.93
370.264	-37.03
370.474	-34.99
370.685	98.13
370.896	24.4
371.107	20.31
371.317	94.04
371.528	94.04
371.739	77.65
371.95	65.36
372.16	110.42
372.371	48.98
372.582	63.32
372.792	65.36
373.003	8.02
373.214	61.27
373.424	40.79
373.635	16.21
373.846	69.46
374.056	71.51
374.267	87.89
374.477	34.64
374.688	42.84
374.898	135
375.109	51.03
375.319	-12.46
375.53	132.95
375.74	139.09
375.951	-0.17
376.161	-6.31
376.372	51.03
376.582	-67.75
376.793	77.65
377.003	18.26
377.214	40.79
377.424	26.45
377.635	8.02
377.845	44.88
378.055	69.46
378.266	61.27
378.476	32.6
378.686	1.88
378.897	16.21
379.107	63.32
379.317	51.03
379.528	44.88
379.738	77.65
379.948	16.21
380.158	-34.99
380.369	8.02
380.579	106.32
380.789	139.09
380.999	59.22
381.21	-24.75
381.42	20.31
381.63	63.32
381.84	75.6
382.05	67.41
382.261	55.12
382.471	42.84
382.681	75.6
382.891	20.31
383.101	96.08
383.311	28.5
383.521	57.17
383.731	59.22
383.941	87.89
384.151	36.69
384.361	81.75
384.571	110.42
384.781	46.93
384.991	75.6
385.201	100.18
385.411	26.45
385.621	73.56
385.831	51.03
386.041	30.55
386.251	-6.31
386.461	106.32
386.671	69.46
386.881	94.04
387.091	-55.47
387.301	89.94
387.511	48.98
387.72	65.36
387.93	38.74
388.14	46.93
388.35	104.28
388.56	75.6
388.769	53.08
388.979	40.79
389.189	36.69
389.399	79.7
389.609	69.46
389.818	118.61
390.028	73.56
390.238	116.56
390.447	18.26
390.657	104.28
390.867	18.26
391.076	89.94
391.286	36.69
391.496	-8.36
391.705	22.36
391.915	182.1
392.125	16.21
392.334	83.8
392.544	14.17
392.753	81.75
392.963	14.17
393.172	106.32
393.382	73.56
393.591	36.69
393.801	24.4
394.01	130.9
394.22	94.04
394.429	102.23
394.639	120.66
394.848	44.88
395.058	38.74
395.267	44.88
395.477	61.27
395.686	51.03
395.895	141.14
396.105	77.65
396.314	36.69
396.524	85.84
396.733	147.28
396.942	145.24
397.152	114.52
397.361	106.32
397.57	51.03
397.78	106.32
397.989	67.41
398.198	196.43
398.407	87.89
398.617	175.95
398.826	87.89
399.035	98.13
399.244	108.37
399.453	171.86
399.663	67.41
399.872	178
400.081	59.22
400.29	165.71
400.499	18.26
400.708	163.67
400.917	91.99
401.127	89.94
401.336	81.75
401.545	130.9
401.754	223.06
401.963	122.71
402.172	98.13
402.381	63.32
402.59	85.84
402.799	73.56
403.008	110.42
403.217	98.13
403.426	63.32
403.635	184.15
403.844	44.88
404.053	108.37
404.262	83.8
404.471	173.91
404.68	137.04
404.888	81.75
405.097	122.71
405.306	122.71
405.515	145.24
405.724	180.05
405.933	169.81
406.142	198.48
406.35	212.82
406.559	91.99
406.768	221.01
406.977	251.73
407.185	198.48
407.394	163.67
407.603	194.39
407.812	178
408.02	255.83
408.229	251.73
408.438	245.59
408.646	247.63
408.855	243.54
409.064	210.77
409.272	309.07
409.481	311.12
409.69	266.07
409.898	264.02
410.107	255.83
410.315	309.07
410.524	284.5
410.733	337.74
410.941	376.66
411.15	380.75
411.358	407.38
411.567	481.1
411.775	446.29
411.984	442.19
412.192	382.8
412.401	417.61
412.609	556.88
412.818	530.25
413.026	491.34
413.234	610.12
413.443	542.54
413.651	567.12
413.86	540.49
414.068	540.49
414.276	644.94
414.485	649.04
414.693	685.9
414.901	642.89
415.11	747.34
415.318	767.82
415.526	851.78
415.734	827.21
415.943	845.64
416.151	812.87
416.359	902.98
416.567	941.89
416.776	966.47
416.984	991.05
417.192	976.71
417.4	1007.43
417.608	1113.92
417.817	1136.45
418.025	1193.8
418.233	1251.14
418.441	1218.37
418.649	1300.29
418.857	1328.96
419.065	1335.1
419.273	1349.44
419.481	1406.78
419.689	1478.46
419.897	1607.48
420.105	1668.92
420.313	1685.31
420.521	1693.5
420.729	1654.59
420.937	1826.62
421.145	1863.48
421.353	1945.4
421.561	1996.6
421.769	2066.23
421.977	2115.38
422.185	2154.29
422.393	2162.48
422.601	2418.48
422.809	2385.71
423.017	2361.14
423.224	2539.31
423.432	2588.46
423.64	2664.24
423.848	2871.08
424.056	2848.55
424.263	2793.26
424.471	2973.48
424.679	3026.73
424.887	3129.13
425.094	3270.44
425.302	3393.31
425.51	3401.51
425.718	3491.62
425.925	3606.3
426.133	3864.35
426.341	3911.45
426.548	4103.96
426.756	4009.75
426.964	4056.86
427.171	4450.07
427.379	4525.84
427.586	4505.36
427.794	4632.33
428.001	4935.43
428.209	4988.68
428.417	5023.5
428.624	5353.22
428.832	5435.14
429.039	5365.51
429.247	5351.17
429.454	5938.94
429.662	6321.91
429.869	6006.52
430.076	6321.91
430.284	6127.35
430.491	6504.18
430.699	6784.75
430.906	6700.78
431.114	6858.48
431.321	7126.76
431.528	7349.99
431.736	7669.47
431.943	8068.83
432.15	7945.95
432.358	7941.85
432.565	8310.49
432.772	8298.2
432.979	8707.79
433.187	8883.92
433.394	9014.99
433.601	9563.84
433.808	9600.71
434.016	9463.49
434.223	9895.61
434.43	10587.83
434.637	10380.98
434.844	10935.98
435.052	11181.74
435.259	11022
435.466	11255.47
435.673	11065
435.88	11923.1
436.087	12480.15
436.294	12592.79
436.501	12265.11
436.708	12443.29
436.915	12850.83
437.122	13313.67
437.329	13428.36
437.537	13833.86
437.743	14241.4
437.95	13958.78
438.157	14544.5
438.364	15087.22
438.571	15066.74
438.778	15099.5
438.985	16533.08
439.192	15900.26
439.399	16406.11
439.606	16127.58
439.813	16993.87
440.02	18200.13
440.227	17749.57
440.433	17587.78
440.64	18173.5
440.847	18083.39
441.054	18605.63
441.261	19826.21
441.467	19686.95
441.674	19779.11
441.881	20706.84
442.088	20233.76
442.294	20256.29
442.501	20964.89
442.708	21411.34
442.914	21902.86
443.121	23113.2
443.328	22576.64
443.534	23766.51
443.741	23051.77
443.948	23066.1
444.154	24686.04
444.361	24925.66
444.568	24796.63
444.774	24606.17
444.981	25349.59
445.187	25779.66
445.394	27219.38
445.6	26549.7
445.807	29134.23
446.013	27858.35
446.22	28462.5
446.426	29291.93
446.633	29322.65
446.839	30696.83
447.046	29445.52
447.252	31176.06
447.459	31245.69
447.665	31188.35
447.871	32847.2
448.078	34061.65
448.284	32025.96
448.491	33187.16
448.697	34456.9
448.903	35190.08
449.11	35663.16
449.316	34563.4
449.522	35362.11
449.728	35880.24
449.935	36472.1
450.141	36672.81
450.347	37500.19
450.553	36207.92
450.76	36818.21
450.966	37960.98
451.172	37549.34
451.378	38515.98
451.584	38100.24
451.791	38565.13
451.997	38743.3
452.203	39171.33
452.409	39165.18
452.615	39042.31
452.821	37772.56
453.027	37549.34
453.233	39558.39
453.44	38202.64
453.646	38212.88
453.852	38597.9
454.058	39240.96
454.264	37942.55
454.47	38702.34
454.676	38014.23
454.882	39103.74
455.088	35855.67
455.294	36257.07
455.5	36969.76
455.705	37430.55
455.911	35800.37
456.117	35153.21
456.323	34411.85
456.529	32912.74
456.735	34311.5
456.941	33867.09
457.147	32763.23
457.352	32241
457.558	31350.13
457.764	31649.14
457.97	30766.46
458.176	30487.94
458.381	30217.61
458.587	28906.91
458.793	29076.89
458.999	27671.98
459.204	29656.46
459.41	28779.93
459.616	26660.29
459.821	26926.52
460.027	26623.42
460.233	25875.91
460.438	24628.7
460.644	25437.65
460.85	24008.17
461.055	23737.84
461.261	23905.77
461.466	21593.61
461.672	21323.28
461.878	22894.07
462.083	21169.68
462.289	20674.07
462.494	20747.8
462.7	19674.67
462.905	18740.79
463.111	19781.16
463.316	19875.37
463.522	19402.29
463.727	19385.9
463.932	19330.61
464.138	18994.74
464.343	19154.48
464.549	18751.03
464.754	19181.1
464.959	19142.19
465.165	18906.68
465.37	18136.64
465.575	17528.39
465.781	18306.62
465.986	18669.11
466.191	17757.77
466.397	17514.06
466.602	16608.86
466.807	17473.1
467.012	17421.9
467.218	17266.25
467.423	16991.83
467.628	17092.18
467.833	17749.57
468.038	17204.81
468.244	16739.93
468.449	17188.43
468.654	16797.27
468.859	16506.46
469.064	16592.47
469.269	15912.55
469.474	16199.26
469.679	16477.79
469.885	16096.86
470.09	15949.41
470.295	15896.16
470.5	15527.53
470.705	15838.82
470.91	15251.05
471.115	15206
471.32	15523.43
471.525	15122.03
471.73	14790.26
471.935	14798.45
472.139	14511.74
472.344	14642.81
472.549	14569.08
472.754	14446.2
472.959	13858.43
473.164	13903.49
473.369	13610.63
473.574	14048.89
473.778	13903.49
473.983	13672.07
474.188	13891.2
474.393	13276.81
474.598	13192.84
474.802	13041.29
475.007	12867.22
475.212	13133.45
475.417	12396.18
475.621	12414.62
475.826	12598.93
476.031	12363.42
476.235	12109.47
476.44	12557.97
476.645	12097.18
476.849	12207.77
477.054	11804.32
477.259	11796.13
477.463	11822.75
477.668	11277.99
477.872	11490.98
478.077	11277.99
478.282	11136.68
478.486	11167.4
478.691	10909.36
478.895	10903.21
479.1	10831.54
479.304	10806.96
479.509	10471.09
479.713	10751.67
479.918	10440.37
480.122	10346.17
480.326	10421.94
480.531	10602.16
480.735	10280.63
480.94	10124.99
481.144	10485.43
481.348	10116.79
481.553	10221.24
481.757	10041.02
481.961	10167.99
482.166	10139.32
482.37	10325.69
482.574	10032.83
482.778	10057.4
482.983	10165.95
483.187	10151.61
483.391	10391.22
483.595	9789.12
483.8	9946.81
484.004	10018.49
484.208	10231.48
484.412	9981.63
484.616	10081.98
484.821	10100.41
485.025	9791.17
485.229	10022.59
485.433	10006.2
485.637	9807.55
485.841	10002.11
486.045	10059.45
486.249	9959.1
486.453	10090.17
486.657	10022.59
486.861	10247.86
487.065	9608.9
487.269	10012.35
487.473	9813.7
487.677	10073.79
487.881	10286.78
488.085	9817.79
488.289	10006.2
488.493	9936.57
488.697	10188.47
488.901	10014.4
489.105	10049.21
489.309	10174.14
489.512	10237.63
489.716	10211
489.92	10202.81
490.124	10090.17
490.328	10233.53
490.531	10059.45
490.735	10294.97
490.939	10245.82
491.143	10276.54
491.346	10272.44
491.55	10759.86
491.754	10428.09
491.958	10374.84
492.161	10456.76
492.365	10395.32
492.569	10360.5
492.772	10628.79
492.976	10737.33
493.18	10716.85
493.383	10956.46
493.587	10722.99
493.79	10870.45
493.994	10860.21
494.197	11036.33
494.401	11124.4
494.605	11200.17
494.808	11255.47
495.012	11093.68
495.215	11292.33
495.419	11572.9
495.622	11329.19
495.825	11560.61
496.029	11597.48
496.232	11910.82
496.436	12050.08
496.639	12218.01
496.843	11916.96
497.046	12150.43
497.249	12238.49
497.453	12627.6
497.656	12523.16
497.859	12752.53
498.063	12732.05
498.266	13172.36
498.469	12809.87
498.673	13102.73
498.876	13207.18
499.079	13477.51
499.282	13350.54
499.485	13827.71
499.689	13663.88
499.892	13823.62
500.095	14241.4
500.298	14507.64
500.501	14450.3
500.705	14794.36
500.908	14712.44
501.111	14943.86
501.314	15087.22
501.517	15375.98
501.72	15500.9
501.923	15576.68
502.126	16107.1
502.329	16236.13
502.532	16127.58
502.735	15967.84
502.938	16600.66
503.141	16784.98
503.344	16965.2
503.547	16901.72
503.75	17159.76
503.953	17487.43
504.156	17561.16
504.359	18011.71
504.562	17954.37
504.765	18361.92
504.968	18857.53
505.17	18695.74
505.373	18548.28
505.576	18912.82
505.779	19293.74
505.982	19404.33
506.185	19955.24
506.387	19924.52
506.59	20094.5
506.793	20561.44
506.996	20563.48
507.198	20964.89
507.401	20805.14
507.604	21284.37
507.807	21773.83
508.009	21392.91
508.212	22093.32
508.415	22179.33
508.617	22414.85
508.82	22681.08
509.022	22410.75
509.225	23363.06
509.428	23625.2
509.63	23332.34
509.833	23746.03
510.035	23991.78
510.238	24051.17
510.44	24727
510.643	24974.81
510.845	24958.42
511.048	24774.11
511.25	25703.89
511.453	25490.9
511.655	26435.01
511.858	26379.71
512.06	26846.65
512.262	27149.75
512.465	26705.34
512.667	27303.35
512.87	27489.71
513.072	27563.44
513.274	28269.99
513.477	28507.55
513.679	28624.29
513.881	29048.22
514.084	29472.15
514.286	29128.09
514.488	29676.94
514.69	30395.78
514.893	30518.66
515.095	30752.13
515.297	31016.32
515.499	31124.86
515.701	31708.53
515.904	32159.08
516.106	32208.23
516.308	32585.06
516.51	32877.92
516.712	33326.42
516.914	33217.88
517.116	34110.8
517.318	34286.92
517.52	34602.31
517.722	34487.62
517.925	35036.48
518.127	35276.09
518.329	35659.06
518.531	35534.14
518.733	36056.37
518.935	36623.65
519.136	36494.63
519.338	37174.56
519.54	36877.6
519.742	37838.1
519.944	37756.18
520.146	38149.39
520.348	38528.27
520.55	38616.33
520.752	38761.73
520.954	39619.83
521.155	39435.52
521.357	39916.79
521.559	40135.92
521.761	40637.67
521.963	40490.22
522.164	40838.37
522.366	41061.6
522.568	41696.47
522.77	41379.04
522.971	42149.07
523.173	41884.89
523.375	42056.92
523.576	42628.3
523.778	42403.02
523.98	43400.38
524.181	43300.03
524.383	43191.49
524.584	44162.23
524.786	43883.7
524.988	43736.25
525.189	44463.28
525.391	44760.23
525.592	45051.05
525.794	44756.14
525.995	45165.73
526.197	45055.14
526.398	45302.95
526.6	45976.73
526.801	45700.25
527.003	46144.66
527.204	46304.4
527.406	46390.42
527.607	46388.37
527.808	46599.31
528.01	46017.69
528.211	46288.02
528.412	47549.57
528.614	46808.2
528.815	46896.27
529.016	47588.48
529.218	46857.35
529.419	47182.98
529.62	47254.66
529.822	47127.69
530.023	47463.55
530.224	47400.07
530.425	47778.94
530.626	47086.73
530.828	47475.84
531.029	48335.99
531.23	47543.42
531.431	47572.1
531.632	48047.22
531.833	47961.21
532.035	47967.35
532.236	48303.22
532.437	48174.2
532.638	48055.42
532.839	48266.36
533.04	48082.04
533.241	47426.69
533.442	48850.03
533.643	48143.48
533.844	48079.99
534.045	48192.63
534.246	47719.55
534.447	48262.26
534.648	47877.24
534.849	48292.98
535.05	47651.97
535.251	47699.07
535.451	47803.52
535.652	48233.59
535.853	47856.76
536.054	48159.86
536.255	48192.63
536.456	47510.66
536.657	48356.47
536.857	47899.77
537.058	47568
537.259	48368.76
537.46	48348.28
537.66	47170.69
537.861	47848.57
538.062	47742.08
538.263	48018.55
538.463	47631.49
538.664	47434.88
538.865	47520.9
539.065	47873.15
539.266	47203.46
539.466	47824
539.667	47176.84
539.868	48028.79
540.068	47701.12
540.269	47287.43
540.469	47568
540.67	47062.15
540.87	47580.29
541.071	47625.34
541.271	47348.87
541.472	47506.56
541.672	47486.08
541.873	47602.81
542.073	46582.93
542.274	47694.97
542.474	47277.19
542.675	46814.35
542.875	47592.58
543.075	47213.7
543.276	46820.49
543.476	47236.23
543.676	46959.75
543.877	47080.58
544.077	46843.02
544.277	46947.46
544.478	47119.49
544.678	46961.8
544.878	46918.79
545.078	47023.24
545.279	46654.61
545.479	46705.8
545.679	47096.97
545.879	46939.27
546.079	47004.81
546.28	46582.93
546.48	46578.83
546.68	46714
546.88	46480.53
547.08	47103.11
547.28	46808.2
547.48	46609.55
547.68	46845.07
547.88	46875.79
548.081	46847.11
548.281	46275.73
548.481	46681.23
548.681	46865.55
548.881	47090.82
549.081	46490.77
549.28	46728.33
549.48	47017.1
549.68	46515.34
549.88	47248.52
550.08	46271.64
550.28	46742.67
550.48	46650.51
550.68	46552.21
550.88	46654.61
551.08	46808.2
551.279	46640.27
551.479	46480.53
551.679	46460.05
551.879	46501.01
552.079	46652.56
552.278	46371.99
552.478	46439.57
552.678	46531.73
552.878	46711.95
553.077	45931.67
553.277	46349.46
553.477	47023.24
553.676	46099.61
553.876	46107.8
554.076	46423.18
554.275	46242.96
554.475	46005.4
554.674	46599.31
554.874	46541.97
555.074	46412.95
555.273	46564.49
555.473	46335.12
555.672	45866.14
555.872	46431.38
556.071	46298.26
556.271	46806.16
556.47	46040.21
556.67	46058.65
556.869	46351.51
557.068	46283.92
557.268	46185.62
557.467	46023.83
557.667	46210.2
557.866	46097.56
558.065	45804.7
558.265	45661.34
558.464	45448.35
558.663	46316.69
558.863	45405.34
559.062	46056.6
559.261	45376.67
559.461	45958.3
559.66	45415.58
559.859	45464.74
560.058	45325.47
560.258	45618.33
560.457	44696.75
560.656	45812.89
560.855	44915.88
561.054	45397.15
561.253	45194.4
561.453	45214.88
561.652	45202.6
561.851	45350.05
562.05	44813.48
562.249	44797.1
562.448	45098.15
562.647	44973.22
562.846	44690.6
563.045	44846.25
563.244	44199.09
563.443	44725.42
563.642	44096.69
563.841	44342.45
564.04	44512.43
564.239	44840.11
564.438	43678.91
564.637	44348.59
564.836	43998.39
565.035	43580.6
565.234	44367.02
565.432	43601.08
565.631	43814.07
565.83	43642.04
566.029	43304.13
566.228	43306.18
566.427	43377.86
566.625	43314.37
566.824	42988.74
567.023	43365.57
567.222	42579.15
567.42	43330.75
567.619	42820.81
567.818	42945.73
568.016	42521.8
568.215	42929.35
568.414	42630.35
568.612	43062.47
568.811	42267.86
569.01	42286.29
569.208	41694.43
569.407	42503.37
569.605	41719
569.804	42317.01
570.002	41250.02
570.201	42169.55
570.4	41356.51
570.598	41180.38
570.797	41276.64
570.995	40924.39
571.193	40738.02
571.392	41493.72
571.59	41032.93
571.789	40791.27
571.987	40789.22
572.186	40701.16
572.384	40527.08
572.582	40568.04
572.781	40695.02
572.979	40137.97
573.177	40248.56
573.376	40471.79
573.574	39955.7
573.772	40172.78
573.971	39912.69
574.169	39511.29
574.367	39568.63
574.565	39912.69
574.763	39517.43
574.962	39517.43
575.16	39103.74
575.358	39343.36
575.556	38763.78
575.754	39310.59
575.952	38638.86
576.151	38911.24
576.349	38274.32
576.547	38276.37
576.745	38696.2
576.943	38411.53
577.141	38405.39
577.339	37778.71
577.537	37797.14
577.735	37793.04
577.933	37274.91
578.131	38380.81
578.329	37561.62
578.527	37467.42
578.725	37416.22
578.923	37608.73
579.121	37164.32
579.319	37219.61
579.516	37360.92
579.714	37063.97
579.912	36973.86
580.11	36787.49
580.308	36719.91
580.506	36535.59
580.704	35841.33
580.901	36515.11
581.099	36551.98
581.297	35794.23
581.495	35931.44
581.692	36529.45
581.89	35749.17
582.088	36023.6
582.285	35775.8
582.483	36005.17
582.681	35806.51
582.878	35665.21
583.076	35003.71
583.274	35575.09
583.471	34544.97
583.669	35136.83
583.866	34753.86
584.064	35259.71
584.262	34417.99
584.459	35003.71
584.657	34651.46
584.854	34327.88
585.052	34094.41
585.249	34440.52
585.447	34159.95
585.644	33951.06
585.841	33877.33
586.039	34524.49
586.236	33715.54
586.434	34125.13
586.631	33824.08
586.828	33697.11
587.026	33690.96
587.223	33502.55
587.42	33385.82
587.618	33267.03
587.815	33023.33
588.012	32630.12
588.21	33072.48
588.407	33541.46
588.604	32849.25
588.801	32640.36
588.999	32236.91
589.196	32759.14
589.393	32480.61
589.59	32392.55
589.787	31911.28
589.984	32482.66
590.182	31812.98
590.379	32081.26
590.576	32050.54
590.773	31835.5
590.97	31739.25
591.167	31917.42
591.364	31470.97
591.561	31370.61
591.758	30823.81
591.955	31298.94
592.152	31530.36
592.349	31182.2
592.546	31343.99
592.743	31049.08
592.94	31057.28
593.137	31102.33
593.334	31063.42
593.531	30471.56
593.727	30770.56
593.924	30715.26
594.121	30158.22
594.318	30246.28
594.515	29887.89
594.712	30416.26
594.908	30072.2
595.105	30346.63
595.302	29945.23
595.499	30125.45
595.696	29828.49
595.892	30000.52
596.089	29521.3
596.286	29785.49
596.482	29478.29
596.679	29746.58
596.876	29466
597.072	29437.33
597.269	29443.48
597.466	28935.58
597.662	28997.02
597.859	29021.59
598.055	29304.21
598.252	28648.86
598.448	28835.23
598.645	28798.37
598.841	28542.37
599.038	28605.86
599.234	28671.39
599.431	28358.05
599.627	28487.07
599.824	28505.51
600.02	28304.81
600.217	28415.4
600.413	27876.78
600.609	28085.67
600.806	27887.02
601.002	27973.03
601.198	27684.27
601.395	27676.08
601.591	27514.29
601.787	27706.8
601.984	27542.96
602.18	27829.68
602.376	27383.22
602.572	27463.09
602.769	27309.49
602.965	27190.71
603.161	27422.13
603.357	26852.8
603.553	26699.2
603.75	26940.86
603.946	26486.21
604.142	26963.39
604.338	26529.22
604.534	26596.8
604.73	26090.95
604.926	26215.88
605.122	26645.95
605.318	26127.81
605.514	26156.49
605.71	26080.71
605.906	26039.75
606.102	25990.6
606.298	26086.86
606.494	25974.22
606.69	25966.03
606.886	26049.99
607.082	25767.37
607.278	25654.73
607.474	25093.59
607.67	25806.28
607.866	25208.28
608.062	25800.14
608.257	25023.96
608.453	25431.51
608.649	24950.23
608.845	25095.64
609.041	25161.17
609.236	25054.68
609.432	24894.94
609.628	25210.32
609.824	25030.1
610.019	24581.6
610.215	25140.69
610.411	24862.17
610.606	24255.97
610.802	24464.86
610.998	24301.03
611.193	24679.9
611.389	24495.58
611.584	24401.38
611.78	24280.55
611.976	24276.45
612.171	24161.76
612.367	24288.74
612.562	24116.71
612.758	23838.19
612.953	23647.72
613.149	24436.19
613.344	23676.4
613.539	24255.97
613.735	23862.76
613.93	23813.61
614.126	23707.12
614.321	23825.9
614.517	23500.27
614.712	23367.15
614.907	23627.24
615.103	23555.57
615.298	23451.12
615.493	23676.4
615.688	22877.69
615.884	23533.04
616.079	23053.81
616.274	23076.34
616.47	23072.25
616.665	23358.96
616.86	22943.22
617.055	23019
617.25	22959.61
617.445	23217.65
617.641	22412.8
617.836	22865.4
618.031	22404.61
618.226	22719.99
618.421	22484.48
618.616	22662.65
618.811	22150.66
619.006	22572.54
619.201	21822.98
619.396	22150.66
619.591	21847.56
619.786	22033.93
619.981	21986.82
620.176	22015.49
620.371	21708.3
620.566	21691.91
620.761	21503.5
620.956	21573.13
621.151	21055
621.346	21364.24
621.541	21079.57
621.735	21083.67
621.93	20692.51
622.125	20655.64
622.32	20385.31
622.515	20522.52
622.709	20624.92
622.904	20409.89
623.099	20268.58
623.294	20319.78
623.488	20231.71
623.683	20311.58
623.878	19635.75
624.072	19670.57
624.267	19899.94
624.462	19799.59
624.656	19443.24
624.851	19490.35
625.046	19361.33
625.24	19265.07
625.435	19232.3
625.629	19125.81
625.824	18859.57
626.018	18755.13
626.213	18361.92
626.407	18439.74
626.602	18206.27
626.796	18351.68
626.991	18331.2
627.185	18337.34
627.38	18196.03
627.574	18183.74
627.768	17833.54
627.963	17589.83
628.157	17538.63
628.352	17878.6
628.546	17256.01
628.74	17589.83
628.935	16942.67
629.129	17282.64
629.323	16993.87
629.517	17145.42
629.712	16967.25
629.906	16758.36
630.1	16725.59
630.294	16715.35
630.489	16414.3
630.683	16809.56
630.877	16201.31
631.071	16037.47
631.265	16262.75
631.459	16176.73
631.653	16205.41
631.848	16100.96
632.042	15765.09
632.236	15941.22
632.43	15623.78
632.624	15840.87
632.818	15773.28
633.012	15386.22
633.206	15398.51
633.4	15476.33
633.594	15117.93
633.788	15091.31
633.982	14896.75
634.176	15177.33
634.369	14956.15
634.563	14827.12
634.757	14757.49
634.951	14534.26
635.145	14741.11
635.339	14694.01
635.533	14673.53
635.726	14421.63
635.92	14282.36
636.114	14057.09
636.308	14014.08
636.501	14032.51
636.695	14114.43
636.889	13649.54
637.083	13850.24
637.276	13635.21
637.47	13844.1
637.664	13426.31
637.857	13653.64
638.051	13543.05
638.244	13282.95
638.438	13106.83
638.632	13072.01
638.825	13106.83
639.019	12996.24
639.212	12977.81
639.406	13008.53
639.599	12910.22
639.793	12803.73
639.986	12543.64
640.18	12682.9
640.373	12482.2
640.567	12342.94
640.76	12203.68
640.954	12273.31
641.147	11968.16
641.34	12146.33
641.534	11931.3
641.727	11810.47
641.92	11982.49
642.114	11962.01
642.307	11638.44
642.5	11599.52
642.694	11439.78
642.887	11339.43
643.08	11646.63
643.273	11347.62
643.467	11097.77
643.66	11259.56
643.853	11077.29
644.046	10837.68
644.239	11024.05
644.432	10790.58
644.626	10897.07
644.819	10630.84
645.012	10753.71
645.205	10528.44
645.398	10694.32
645.591	10593.97
645.784	10559.16
645.977	10440.37
646.17	10327.74
646.363	10325.69
646.556	10081.98
646.749	10100.41
646.942	10071.74
647.135	9920.19
647.328	9934.53
647.521	9688.77
647.714	9746.11
647.907	9699.01
648.099	9776.83
648.292	9754.3
648.485	9764.54
648.678	9537.22
648.871	9608.9
649.064	9475.78
649.256	9406.15
649.449	9324.23
649.642	9473.73
649.835	9273.03
650.027	8914.64
650.22	9004.75
650.413	8918.73
650.605	9166.54
650.798	8949.45
650.991	8865.49
651.183	8791.76
651.376	8814.29
651.568	8586.96
651.761	8836.81
651.954	8601.3
652.146	8476.37
652.339	8509.14
652.531	8447.7
652.724	8562.39
652.916	8347.35
653.109	8419.03
653.301	8388.31
653.494	8318.68
653.686	8124.12
653.879	8175.32
654.071	8074.97
654.263	8169.18
654.456	8087.26
654.648	7984.86
654.84	7784.16
655.033	7800.54
655.225	7655.14
655.417	7806.69
655.61	7599.84
655.802	7745.25
655.994	7773.92
656.186	7741.15
656.379	7675.62
656.571	7522.02
656.763	7589.6
656.955	7464.68
657.148	7444.2
657.34	7442.15
657.532	7165.67
657.724	7349.99
657.916	7325.41
658.108	7427.81
658.3	7249.64
658.492	7165.67
658.684	7003.88
658.876	7046.89
659.068	7055.08
659.26	6725.36
659.452	6938.35
659.644	6733.55
659.836	6940.4
660.028	6885.1
660.22	6684.4
660.412	6768.37
660.604	6606.58
660.796	6702.83
660.988	6565.62
661.18	6461.17
661.372	6561.52
661.563	6434.55
661.755	6471.41
661.947	6606.58
662.139	6668.02
662.331	6418.16
662.522	6276.85
662.714	6274.81
662.906	6342.39
663.097	6283
663.289	6002.43
663.481	6252.28
663.673	6194.93
663.864	6139.64
664.056	6004.47
664.247	6033.15
664.439	5844.73
664.631	6129.4
664.822	6020.86
665.014	5900.03
665.205	5904.12
665.397	5973.75
665.588	5824.25
665.78	5807.87
665.971	5713.66
666.163	5709.57
666.354	5799.68
666.546	5629.7
666.737	5549.82
666.929	5555.97
667.12	5510.91
667.311	5447.43
667.503	5484.29
667.694	5437.19
667.885	5357.32
668.077	5484.29
668.268	5228.29
668.459	5476.1
668.651	5353.22
668.842	5322.5
669.033	5474.05
669.224	5213.96
669.416	5398.27
669.607	5406.47
669.798	5033.74
669.989	5238.53
670.18	5199.62
670.371	5136.13
670.563	5162.76
670.754	5138.18
670.945	4894.47
671.136	5003.02
671.327	5005.06
671.518	5029.64
671.709	4968.2
671.9	5058.31
672.091	5009.16
672.282	4841.23
672.473	4972.3
672.664	4898.57
672.855	5005.06
673.046	4917
673.237	4849.42
673.428	4863.76
673.619	4675.34
673.809	4785.93
674	4824.84
674.191	4904.71
674.382	4736.78
674.573	4757.26
674.764	4722.45
674.954	4720.4
675.145	4665.1
675.336	4591.38
675.527	4790.03
675.717	4540.18
675.908	4753.16
676.099	4669.2
676.289	4767.5
676.48	4613.9
676.671	4685.58
676.861	4613.9
677.052	4626.19
677.243	4536.08
677.433	4536.08
677.624	4595.47
677.814	4658.96
678.005	4579.09
678.195	4613.9
678.386	4517.65
678.576	4546.32
678.767	4486.93
678.957	4534.03
679.148	4548.37
679.338	4591.38
679.529	4460.31
679.719	4329.24
679.909	4538.13
680.1	4550.42
680.29	4425.49
680.481	4568.85
680.671	4511.5
680.861	4691.73
681.052	4370.19
681.242	4474.64
681.432	4579.09
681.622	4273.94
681.813	4497.17
682.003	4374.29
682.193	4509.46
682.383	4536.08
682.573	4396.82
682.764	4263.7
682.954	4302.61
683.144	4427.54
683.334	4398.87
683.524	4368.15
683.714	4466.45
683.904	4468.5
684.094	4435.73
684.284	4409.11
684.474	4460.31
684.664	4400.91
684.854	4261.65
685.044	4417.3
685.234	4296.47
685.424	4161.3
685.614	4167.45
685.804	4228.88
685.994	4339.48
686.184	4456.21
686.374	4333.33
686.564	4146.97
686.753	4267.8
686.943	4169.49
687.133	4185.88
687.323	4296.47
687.513	4198.17
687.702	4153.11
687.892	4267.8
688.082	4271.89
688.272	4175.64
688.461	4163.35
688.651	4110.1
688.841	3970.84
689.03	4083.48
689.22	4015.9
689.41	4216.6
689.599	3893.02
689.789	4007.7
689.979	4058.9
690.168	3944.22
690.358	4063
690.547	4038.42
690.737	4019.99
690.926	4079.38
691.116	3985.18
691.305	4005.66
691.495	4060.95
691.684	3995.42
691.874	4054.81
692.063	3958.55
692.252	3884.83
692.442	3882.78
692.631	3897.11
692.82	3817.24
693.01	4005.66
693.199	3788.57
693.388	3802.91
693.578	3761.95
693.767	3764
693.956	3954.46
694.146	3825.43
694.335	3714.84
694.524	3794.72
694.713	3888.92
694.902	3825.43
695.092	3837.72
695.281	3813.15
695.47	3927.83
695.659	3864.35
695.848	3845.91
696.037	3913.5
696.226	3792.67
696.415	3915.55
696.604	3761.95
696.793	3761.95
696.982	3759.9
697.171	3780.38
697.36	3725.08
697.549	3706.65
697.738	3864.35
697.927	3600.16
698.116	3809.05
698.305	3661.6
698.494	3669.79
698.683	3827.48
698.872	3645.21
699.061	3802.91
699.25	3649.31
699.438	3639.07
699.627	3632.93
699.816	3811.1
700.005	3694.36
700.193	3749.66
700.382	3643.17
700.571	3751.71
700.76	3671.84
700.948	3690.27
701.137	3622.69
701.326	3647.26
701.514	3669.79
701.703	3542.82
701.892	3614.49
702.08	3686.17
702.269	3657.5
702.457	3469.09
702.646	3548.96
702.834	3565.34
703.023	3634.97
703.212	3624.73
703.4	3559.2
703.589	3383.07
703.777	3561.25
703.965	3557.15
704.154	3563.29
704.342	3487.52
704.531	3551.01
704.719	3340.07
704.907	3510.05
705.096	3565.34
705.284	3393.31
705.472	3493.66
705.661	3354.4
705.849	3508
706.037	3534.62
706.226	3516.19
706.414	3419.94
706.602	3417.89
706.79	3421.99
706.979	3426.08
707.167	3407.65
707.355	3411.75
707.543	3282.72
707.731	3442.46
707.919	3256.1
708.107	3340.07
708.296	3299.11
708.484	3297.06
708.672	3258.15
708.86	3368.74
709.048	3346.21
709.236	3311.39
709.424	3239.72
709.612	3235.62
709.8	3268.39
709.988	3112.74
710.176	3133.22
710.364	3270.44
710.551	3213.09
710.739	3274.53
710.927	3172.13
711.115	3192.61
711.303	3311.39
711.491	3129.13
711.679	3071.78
711.866	3211.04
712.054	3163.94
712.242	3110.69
712.43	3131.17
712.617	3129.13
712.805	3071.78
712.993	3053.35
713.181	3012.39
713.368	2981.67
713.556	3127.08
713.744	2942.76
713.931	3137.32
714.119	3018.54
714.306	3051.3
714.494	3000.1
714.682	2922.28
714.869	2998.06
715.057	3024.68
715.244	2918.18
715.432	3053.35
715.619	3016.49
715.807	2817.83
715.994	2897.71
716.182	2953
716.369	2826.03
716.556	3016.49
716.744	2957.1
716.931	2795.31
717.119	2864.94
717.306	2860.84
717.493	2778.92
717.681	2838.31
717.868	2762.54
718.055	2752.3
718.242	2864.94
718.43	2778.92
718.617	2875.18
718.804	2733.87
718.991	2799.4
719.179	2707.24
719.366	2828.07
719.553	2817.83
719.74	2778.92
719.927	2731.82
720.114	2697
720.301	2662.19
720.488	2699.05
720.676	2803.5
720.863	2701.1
721.05	2619.18
721.237	2697
721.424	2606.89
721.611	2664.24
721.798	2590.51
721.985	2455.34
722.172	2567.98
722.358	2684.72
722.545	2629.42
722.732	2537.26
722.919	2608.94
723.106	2608.94
723.293	2549.55
723.48	2610.99
723.667	2512.69
723.853	2510.64
724.04	2547.5
724.227	2477.87
724.414	2524.97
724.6	2336.56
724.787	2531.12
724.974	2492.21
725.161	2395.95
725.347	2473.78
725.534	2469.68
725.72	2488.11
725.907	2498.35
726.094	2486.06
726.28	2508.59
726.467	2389.81
726.653	2432.82
726.84	2443.06
727.027	2389.81
727.213	2383.66
727.4	2262.83
727.586	2352.95
727.773	2357.04
727.959	2346.8
728.145	2393.9
728.332	2314.03
728.518	2389.81
728.705	2359.09
728.891	2410.29
729.077	2348.85
729.264	2301.75
729.45	2305.84
729.636	2303.79
729.823	2307.89
730.009	2406.19
730.195	2301.75
730.382	2291.51
730.568	2336.56
730.754	2246.45
730.94	2176.82
731.126	2258.74
731.313	2199.35
731.499	2230.07
731.685	2260.79
731.871	2273.07
732.057	2197.3
732.243	2113.33
732.429	2287.41
732.615	2219.83
732.801	2238.26
732.987	2185.01
733.173	2088.76
733.359	2113.33
733.545	2187.06
733.731	2139.96
733.917	2064.18
734.103	2131.76
734.289	2162.48
734.475	2146.1
734.661	2172.72
734.847	2174.77
735.033	2156.34
735.219	2205.49
735.404	2078.52
735.59	2129.72
735.776	2066.23
735.962	2076.47
736.148	2027.32
736.333	2154.29
736.519	2055.99
736.705	2101.05
736.89	1990.45
737.076	2105.14
737.262	1965.88
737.447	1929.02
737.633	1996.6
737.819	2074.42
738.004	2019.13
738.19	1939.26
738.375	2035.51
738.561	1957.69
738.747	1982.26
738.932	1904.44
739.118	1974.07
739.303	1959.74
739.489	1943.35
739.674	1863.48
739.859	1951.54
740.045	1924.92
740.23	1861.43
740.416	1994.55
740.601	1799.99
740.786	1914.68
740.972	1937.21
741.157	1896.25
741.342	1832.76
741.528	1920.82
741.713	1935.16
741.898	1896.25
742.084	1785.66
742.269	1883.96
742.454	1812.28
742.639	1824.57
742.824	1697.6
743.01	1840.95
743.195	1763.13
743.38	1734.46
743.565	1777.47
743.75	1713.98
743.935	1709.88
744.12	1781.56
744.305	1705.79
744.49	1738.55
744.675	1773.37
744.86	1627.96
745.045	1562.43
745.23	1689.4
745.415	1703.74
745.6	1765.18
745.785	1603.39
745.97	1812.28
746.155	1611.58
746.34	1623.87
746.525	1554.24
746.71	1480.51
746.895	1617.72
747.079	1562.43
747.264	1578.81
747.449	1644.35
747.634	1529.66
747.819	1572.67
748.003	1490.75
748.188	1498.94
748.373	1509.18
748.557	1509.18
748.742	1490.75
748.927	1523.52
749.111	1498.94
749.296	1396.54
749.481	1402.69
749.665	1472.32
749.85	1449.79
750.034	1478.46
750.219	1404.74
750.404	1390.4
750.588	1406.78
750.773	1431.36
750.957	1355.58
751.141	1390.4
751.326	1357.63
751.51	1294.15
751.695	1421.12
751.879	1265.47
752.064	1335.1
752.248	1320.77
752.432	1294.15
752.617	1251.14
752.801	1263.43
752.985	1324.87
753.17	1312.58
753.354	1230.66
753.538	1302.34
753.722	1134.4
753.907	1273.67
754.091	1244.99
754.275	1197.89
754.459	1154.88
754.643	1261.38
754.828	1179.46
755.012	1163.08
755.196	1091.4
755.38	1173.32
755.564	1142.6
755.748	1199.94
755.932	1181.51
756.116	1191.75
756.3	1040.2
756.484	1099.59
756.668	1052.49
756.852	1087.3
757.036	1036.1
757.22	1083.2
757.404	1081.16
757.588	1146.69
757.772	1009.48
757.956	997.19
758.14	1087.3
758.323	1034.05
758.507	1023.81
758.691	1085.25
758.875	1062.73
759.059	1066.82
759.242	917.32
759.426	968.52
759.61	976.71
759.794	950.09
759.977	919.37
760.161	1050.44
760.345	929.61
760.528	896.84
760.712	876.36
760.895	927.56
761.079	1025.86
761.263	831.3
761.446	950.09
761.63	925.51
761.813	841.54
761.997	948.04
762.18	911.18
762.364	964.42
762.547	831.3
762.731	999.24
762.914	841.54
763.098	874.31
763.281	853.83
763.464	851.78
763.648	872.26
763.831	827.21
764.015	870.22
764.198	862.02
764.381	913.22
764.564	831.3
764.748	833.35
764.931	773.96
765.114	864.07
765.297	841.54
765.481	825.16
765.664	808.78
765.847	833.35
766.03	890.7
766.213	804.68
766.397	831.3
766.58	763.72
766.763	739.15
766.946	814.92
767.129	669.52
767.312	800.59
767.495	776.01
767.678	804.68
767.861	825.16
768.044	730.95
768.227	761.67
768.41	755.53
768.593	827.21
768.776	784.2
768.959	810.82
769.142	776.01
769.324	798.54
769.507	747.34
769.69	706.38
769.873	704.33
770.056	788.3
770.239	739.15
770.421	788.3
770.604	749.39
770.787	667.47
770.97	761.67
771.152	780.11
771.335	792.39
771.518	733
771.7	692.04
771.883	776.01
772.066	735.05
772.248	632.65
772.431	730.95
772.613	677.71
772.796	606.03
772.978	692.04
773.161	661.32
773.343	651.08
773.526	597.84
773.708	642.89
773.891	571.21
774.073	681.8
774.256	575.31
774.438	700.23
774.621	649.04
774.803	642.89
774.985	548.68
775.168	636.75
775.35	550.73
775.532	565.07
775.715	567.12
775.897	626.51
776.079	544.59
776.261	577.36
776.444	534.35
776.626	610.12
776.808	571.21
776.99	606.03
777.173	649.04
777.355	548.68
777.537	505.68
777.719	509.77
777.901	554.83
778.083	552.78
778.265	499.53
778.447	552.78
778.629	460.62
778.811	589.64
778.993	593.74
779.175	540.49
779.357	540.49
779.539	509.77
779.721	466.77
779.903	552.78
780.085	472.91
780.267	489.29
780.449	485.2
780.631	477.01
780.812	513.87
780.994	470.86
781.176	474.96
781.358	468.81
781.54	384.85
781.721	477.01
781.903	495.44
782.085	427.85
782.267	472.91
782.448	497.49
782.63	380.75
782.812	419.66
782.993	464.72
783.175	474.96
783.357	540.49
783.538	454.48
783.72	456.53
783.901	474.96
784.083	442.19
784.264	393.04
784.446	339.79
784.627	337.74
784.809	341.84
784.99	360.27
785.172	427.85
785.353	421.71
785.535	337.74
785.716	272.21
785.897	362.32
786.079	282.45
786.26	376.66
786.441	390.99
786.623	407.38
786.804	337.74
786.985	390.99
787.167	442.19
787.348	319.31
787.529	309.07
787.71	313.17
787.891	376.66
788.073	307.02
788.254	280.4
788.435	307.02
788.616	300.88
788.797	282.45
788.978	325.46
789.159	278.35
789.34	339.79
789.522	302.93
789.703	253.78
789.884	270.16
790.065	302.93
790.246	331.6
790.427	345.94
790.607	384.85
790.788	366.42
790.969	253.78
791.15	395.09
791.331	239.44
791.512	276.31
791.693	290.64
791.874	294.74
792.054	251.73
792.235	282.45
792.416	227.15
792.597	268.11
792.778	284.5
792.958	286.54
793.139	313.17
793.32	233.3
793.5	292.69
793.681	278.35
793.862	302.93
794.042	284.5
794.223	276.31
794.404	235.35
794.584	235.35
794.765	243.54
794.945	223.06
795.126	229.2
795.306	264.02
795.487	268.11
795.667	296.78
795.848	276.31
796.028	153.43
796.209	251.73
796.389	237.39
796.57	229.2
796.75	231.25
796.93	327.5
797.111	243.54
797.291	206.67
797.471	266.07
797.652	274.26
797.832	155.47
798.012	270.16
798.192	259.92
798.373	227.15
798.553	153.43
798.733	216.91
798.913	184.15
799.093	276.31
799.274	206.67
799.454	157.52
799.634	245.59
799.814	239.44
799.994	192.34
800.174	247.63
800.354	198.48
800.534	155.47
800.714	229.2
800.894	188.24
801.074	231.25
801.254	245.59
801.434	298.83
801.614	206.67
801.794	200.53
801.974	626.51
802.154	192.34
802.334	200.53
802.514	171.86
802.693	167.76
802.873	180.05
803.053	218.96
803.233	126.8
803.413	192.34
803.592	147.28
803.772	192.34
803.952	159.57
804.131	221.01
804.311	161.62
804.491	196.43
804.67	116.56
804.85	102.23
805.03	200.53
805.209	186.19
805.389	204.63
805.568	130.9
805.748	149.33
805.928	124.76
806.107	104.28
806.287	141.14
806.466	241.49
806.646	186.19
806.825	182.1
807.004	173.91
807.184	149.33
807.363	173.91
807.543	233.3
807.722	65.36
807.901	128.85
808.081	143.19
808.26	130.9
808.439	128.85
808.619	208.72
808.798	180.05
808.977	128.85
809.156	175.95
809.336	122.71
809.515	165.71
809.694	178
809.873	165.71
810.052	161.62
810.231	83.8
810.411	87.89
810.59	126.8
810.769	143.19
810.948	71.51
811.127	112.47
811.306	161.62
811.485	171.86
811.664	118.61
811.843	55.12
812.022	184.15
812.201	112.47
812.38	69.46
812.559	85.84
812.737	141.14
812.916	98.13
813.095	171.86
813.274	196.43
813.453	108.37
813.632	163.67
813.811	110.42
813.989	57.17
814.168	153.43
814.347	132.95
814.526	196.43
814.704	83.8
814.883	153.43
815.062	77.65
815.24	114.52
815.419	100.18
815.598	96.08
815.776	98.13
815.955	91.99
816.133	96.08
816.312	184.15
816.49	79.7
816.669	104.28
816.847	182.1
817.026	106.32
817.204	128.85
817.383	73.56
817.561	61.27
817.74	116.56
817.918	94.04
818.097	81.75
818.275	79.7
818.453	128.85
818.632	85.84
818.81	159.57
818.988	104.28
819.167	118.61
819.345	104.28
819.523	120.66
819.701	91.99
819.879	186.19
820.058	96.08
820.236	77.65
820.414	112.47
820.592	108.37
820.77	48.98
820.948	145.24
821.127	73.56
821.305	155.47
821.483	145.24
821.661	118.61
821.839	96.08
822.017	98.13
822.195	122.71
822.373	110.42
822.551	63.32
822.729	94.04
822.907	63.32
823.085	51.03
823.262	85.84
823.44	98.13
823.618	110.42
823.796	135
823.974	24.4
824.152	89.94
824.329	130.9
824.507	51.03
824.685	38.74
824.863	24.4
825.04	69.46
825.218	98.13
825.396	18.26
825.574	79.7
825.751	91.99
825.929	55.12
826.107	112.47
826.284	16.21
826.462	94.04
826.639	116.56
826.817	24.4
826.994	24.4
827.172	77.65
827.349	65.36
827.527	89.94
827.704	89.94
827.882	98.13
828.059	40.79
828.237	67.41
828.414	104.28
828.591	10.07
828.769	40.79
828.946	38.74
829.124	48.98
829.301	36.69
829.478	-30.89
829.655	-2.22
829.833	59.22
830.01	30.55
830.187	116.56
830.364	83.8
830.542	57.17
830.719	85.84
830.896	42.84
831.073	63.32
831.25	108.37
831.427	12.12
831.604	81.75
831.782	102.23
831.959	40.79
832.136	-0.17
832.313	73.56
832.49	114.52
832.667	77.65
832.844	-18.6
833.021	65.36
833.198	81.75
833.374	79.7
833.551	59.22
833.728	-47.27
833.905	16.21
834.082	44.88
834.259	59.22
834.436	163.67
834.612	18.26
834.789	122.71
834.966	114.52
835.143	53.08
835.319	40.79
835.496	79.7
835.673	24.4
835.85	132.95
836.026	87.89
836.203	59.22
836.38	59.22
836.556	38.74
836.733	14.17
836.909	48.98
837.086	44.88
837.262	-4.27
837.439	42.84
837.616	79.7
837.792	-53.42
837.968	14.17
838.145	-6.31
838.321	18.26
838.498	73.56
838.674	-53.42
838.851	44.88
839.027	8.02
839.203	1.88
839.38	-2.22
839.556	-43.18
839.732	106.32
839.909	14.17
840.085	53.08
840.261	14.17
840.437	-8.36
840.614	34.64
840.79	102.23
840.966	59.22
841.142	36.69
841.318	3.93
841.494	61.27
841.671	34.64
841.847	46.93
842.023	-24.75
842.199	87.89
842.375	81.75
842.551	22.36
842.727	-8.36
842.903	102.23
843.079	8.02
843.255	-6.31
843.431	-6.31
843.607	-45.23
843.783	59.22
843.959	10.07
844.134	48.98
844.31	69.46
844.486	77.65
844.662	-14.51
844.838	48.98
845.013	20.31
845.189	98.13
845.365	-6.31
845.541	55.12
845.716	51.03
845.892	20.31
846.068	69.46
846.244	38.74
846.419	-8.36
846.595	102.23
846.77	24.4
846.946	40.79
847.122	28.5
847.297	-18.6
847.473	59.22
847.648	40.79
847.824	-0.17
847.999	14.17
848.175	18.26
848.35	44.88
848.526	77.65
848.701	14.17
848.876	89.94
849.052	59.22
849.227	22.36
849.403	3.93
849.578	61.27
849.753	3.93
849.929	40.79
850.104	65.36
850.279	-26.79
850.454	-41.13
850.63	89.94
850.805	-61.61
850.98	5.97
851.155	3.93
851.33	-10.41
851.505	32.6
851.681	104.28
851.856	81.75
852.031	-30.89
852.206	46.93
852.381	5.97
852.556	48.98
852.731	28.5
852.906	36.69
853.081	110.42
853.256	-18.6
853.431	-51.37
853.606	1.88
853.781	-30.89
853.956	-10.41
854.131	26.45
854.305	-2.22
854.48	30.55
854.655	-47.27
854.83	36.69
855.005	-12.46
855.18	16.21
855.354	32.6
855.529	36.69
855.704	-18.6
855.879	40.79
856.053	1.88
856.228	-0.17
856.403	-41.13
856.577	28.5
856.752	-55.47
856.926	79.7
857.101	-34.99
857.276	53.08
857.45	-75.95
857.625	104.28
857.799	-18.6
857.974	1.88
858.148	1.88
858.323	40.79
858.497	-37.03
858.672	48.98
858.846	1.88
859.02	124.76
859.195	-26.79
859.369	3.93
859.543	34.64
859.718	-18.6
859.892	-0.17
860.066	8.02
860.241	10.07
860.415	-22.7
860.589	-4.27
860.763	94.04
860.938	5.97
861.112	28.5
861.286	-0.17
861.46	44.88
861.634	-41.13
861.808	-28.84
861.982	-22.7
862.157	16.21
862.331	-26.79
862.505	-14.51
862.679	-14.51
862.853	-57.51
863.027	-0.17
863.201	-8.36
863.375	28.5
863.549	3.93
863.722	-18.6
863.896	30.55
864.07	24.4
864.244	-53.42
864.418	18.26
864.592	40.79
864.766	-10.41
864.939	71.51
865.113	22.36
865.287	46.93
865.461	-98.47
865.634	3.93
865.808	12.12
865.982	-24.75
866.156	-26.79
866.329	-6.31
866.503	44.88
866.676	16.21
866.85	77.65
867.024	8.02
867.197	24.4
867.371	81.75
867.544	-12.46
867.718	42.84
867.891	8.02
868.065	22.36
868.238	51.03
868.412	5.97
868.585	30.55
868.759	5.97
868.932	-16.55
869.105	-6.31
869.279	65.36
869.452	-28.84
869.625	5.97
869.799	44.88
869.972	-18.6
870.145	-12.46
870.319	61.27
870.492	-24.75
870.665	61.27
870.838	-12.46
871.011	-20.65
871.185	-10.41
871.358	-43.18
871.531	57.17
871.704	1.88
871.877	65.36
872.05	94.04
872.223	-10.41
872.396	28.5
872.569	28.5
872.742	-86.19
872.915	20.31
873.088	28.5
873.261	-2.22
873.434	16.21
873.607	-6.31
873.78	53.08
873.953	75.6
874.126	8.02
874.299	38.74
874.471	1.88
874.644	-14.51
874.817	-12.46
874.99	63.32
875.163	79.7
875.335	14.17
875.508	-12.46
875.681	-2.22
875.853	-34.99
876.026	-4.27
876.199	51.03
876.371	57.17
876.544	20.31
876.717	1.88
876.889	48.98
877.062	42.84
877.234	-47.27
877.407	-8.36
877.579	-22.7
877.752	-43.18
877.924	-26.79
878.097	-0.17
878.269	24.4
878.442	-18.6
878.614	1.88
878.786	-20.65
878.959	61.27
879.131	34.64
879.303	-51.37
879.476	12.12
879.648	-12.46
879.82	16.21
879.993	-43.18
880.165	-37.03
880.337	-14.51
880.509	34.64
880.681	-14.51
880.854	57.17
881.026	30.55
881.198	3.93
881.37	-90.28
881.542	-28.84
881.714	-30.89
881.886	71.51
882.058	-14.51
882.23	-45.23
882.402	-26.79
882.574	44.88
882.746	79.7
882.918	8.02
883.09	14.17
883.262	-30.89
883.434	40.79
883.606	1.88
883.778	12.12
883.95	34.64
884.122	14.17
884.293	-4.27
884.465	-24.75
884.637	-2.22
884.809	-34.99
884.98	10.07
885.152	-20.65
885.324	-24.75
885.496	5.97
885.667	20.31
885.839	-67.75
886.011	-14.51
886.182	-61.61
886.354	14.17
886.525	-0.17
886.697	34.64
886.869	-14.51
887.04	-53.42
887.212	-30.89
887.383	28.5
887.555	16.21
887.726	-45.23
887.897	-63.66
888.069	-2.22
888.24	18.26
888.412	-30.89
888.583	3.93
888.754	112.47
888.926	-26.79
889.097	48.98
889.268	20.31
889.44	-4.27
889.611	-39.08
889.782	-20.65
889.953	-45.23
890.125	14.17
890.296	-6.31
890.467	-2.22
890.638	-14.51
890.809	65.36
890.98	-4.27
891.151	83.8
891.323	48.98
891.494	16.21
891.665	-57.51
891.836	8.02
892.007	-12.46
892.178	30.55
892.349	34.64
892.52	34.64
892.691	-73.9
892.862	24.4
893.032	-10.41
893.203	14.17
893.374	-22.7
893.545	-82.09
893.716	-55.47
893.887	-6.31
894.057	-6.31
894.228	34.64
894.399	-57.51
894.57	16.21
894.74	16.21
894.911	71.51
895.082	20.31
895.253	55.12
895.423	-10.41
895.594	-41.13
895.764	57.17
895.935	-26.79
896.106	-53.42
896.276	32.6
896.447	38.74
896.617	1.88
896.788	-32.94
896.958	32.6
897.129	-8.36
897.299	71.51
897.47	24.4
897.64	-28.84
897.81	30.55
897.981	-10.41
898.151	-18.6
898.322	20.31
898.492	12.12
898.662	-4.27
898.832	-26.79
899.003	24.4
899.173	38.74
899.343	-8.36
899.513	8.02
