Data from USB4F104151__20__12-35-25-022.txt Node

Date: Fri Mar 14 12:35:25 EDT 2025
User: louis
Spectrometer: USB4F10415
Trigger mode: 4
Integration Time (sec): 2.000000E-2
Scans to average: 1
Electric dark correction enabled: true
Nonlinearity correction enabled: false
Boxcar width: 0
XAxis mode: Wavelengths
Number of Pixels in Spectrum: 3648
>>>>>Begin Spectral Data<<<<<
178.204	-115.71
178.424	-115.71
178.644	-115.71
178.864	-41.98
179.084	-115.71
179.304	-46.08
179.524	27.65
179.744	-44.03
179.964	60.42
180.184	37.89
180.404	-52.22
180.624	-35.84
180.844	7.17
181.064	17.41
181.283	70.65
181.503	-46.08
181.723	3.07
181.943	25.6
182.163	56.32
182.383	46.08
182.602	23.55
182.822	50.18
183.042	95.23
183.262	33.79
183.482	56.32
183.701	84.99
183.921	11.26
184.141	1.02
184.361	87.04
184.58	44.03
184.8	19.46
185.02	17.41
185.239	29.7
185.459	76.8
185.679	35.84
185.898	15.36
186.118	72.7
186.338	13.31
186.557	66.56
186.777	37.89
186.997	89.09
187.216	-11.26
187.436	80.89
187.655	29.7
187.875	29.7
188.095	29.7
188.314	62.46
188.534	39.94
188.753	46.08
188.973	-11.26
189.192	3.07
189.412	54.27
189.631	87.04
189.851	58.37
190.07	66.56
190.29	-5.12
190.509	29.7
190.729	21.5
190.948	17.41
191.168	117.76
191.387	29.7
191.607	-37.89
191.826	46.08
192.045	70.65
192.265	15.36
192.484	-29.7
192.704	-5.12
192.923	41.98
193.142	82.94
193.362	21.5
193.581	41.98
193.8	9.22
194.02	111.61
194.239	37.89
194.458	-1.02
194.678	66.56
194.897	103.42
195.116	3.07
195.335	68.61
195.555	66.56
195.774	23.55
195.993	41.98
196.212	52.22
196.432	-46.08
196.651	117.76
196.87	3.07
197.089	101.37
197.308	56.32
197.528	44.03
197.747	-1.02
197.966	-62.46
198.185	87.04
198.404	-60.42
198.623	128
198.842	52.22
199.062	132.09
199.281	70.65
199.5	19.46
199.719	35.84
199.938	31.74
200.157	89.09
200.376	9.22
200.595	58.37
200.814	-46.08
201.033	-3.07
201.252	-17.41
201.471	78.85
201.69	54.27
201.909	48.13
202.128	119.81
202.347	17.41
202.566	54.27
202.785	39.94
203.004	33.79
203.223	101.37
203.442	27.65
203.661	41.98
203.879	62.46
204.098	9.22
204.317	27.65
204.536	23.55
204.755	-5.12
204.974	64.51
205.193	19.46
205.411	91.13
205.63	-52.22
205.849	64.51
206.068	25.6
206.287	21.5
206.505	60.42
206.724	44.03
206.943	46.08
207.162	56.32
207.381	52.22
207.599	111.61
207.818	21.5
208.037	3.07
208.255	-29.7
208.474	15.36
208.693	76.8
208.911	70.65
209.13	97.28
209.349	-7.17
209.567	-9.22
209.786	105.47
210.005	41.98
210.223	76.8
210.442	58.37
210.661	52.22
210.879	27.65
211.098	9.22
211.316	46.08
211.535	39.94
211.753	29.7
211.972	25.6
212.191	7.17
212.409	76.8
212.628	27.65
212.846	17.41
213.065	62.46
213.283	64.51
213.502	33.79
213.72	-19.46
213.938	19.46
214.157	13.31
214.375	82.94
214.594	-5.12
214.812	70.65
215.031	103.42
215.249	3.07
215.467	68.61
215.686	9.22
215.904	89.09
216.122	95.23
216.341	70.65
216.559	21.5
216.778	119.81
216.996	21.5
217.214	50.18
217.432	15.36
217.651	-9.22
217.869	60.42
218.087	76.8
218.306	13.31
218.524	50.18
218.742	60.42
218.96	23.55
219.179	23.55
219.397	121.85
219.615	44.03
219.833	56.32
220.051	76.8
220.27	91.13
220.488	41.98
220.706	60.42
220.924	33.79
221.142	3.07
221.36	33.79
221.578	9.22
221.796	74.75
222.015	76.8
222.233	7.17
222.451	-5.12
222.669	27.65
222.887	46.08
223.105	-17.41
223.323	17.41
223.541	64.51
223.759	27.65
223.977	7.17
224.195	132.09
224.413	19.46
224.631	23.55
224.849	27.65
225.067	60.42
225.285	74.75
225.503	-27.65
225.721	48.13
225.939	9.22
226.157	50.18
226.375	99.33
226.592	13.31
226.81	9.22
227.028	97.28
227.246	95.23
227.464	62.46
227.682	78.85
227.9	25.6
228.117	44.03
228.335	52.22
228.553	76.8
228.771	37.89
228.989	58.37
229.206	7.17
229.424	-11.26
229.642	50.18
229.86	62.46
230.077	109.57
230.295	50.18
230.513	37.89
230.731	58.37
230.948	50.18
231.166	48.13
231.384	9.22
231.601	-5.12
231.819	60.42
232.037	80.89
232.254	44.03
232.472	31.74
232.689	-1.02
232.907	62.46
233.125	15.36
233.342	35.84
233.56	-23.55
233.777	72.7
233.995	31.74
234.213	89.09
234.43	17.41
234.648	78.85
234.865	64.51
235.083	78.85
235.3	13.31
235.518	39.94
235.735	95.23
235.953	89.09
236.17	35.84
236.388	46.08
236.605	97.28
236.822	50.18
237.04	31.74
237.257	39.94
237.475	50.18
237.692	70.65
237.909	82.94
238.127	-50.18
238.344	72.7
238.562	56.32
238.779	9.22
238.996	-21.5
239.214	82.94
239.431	31.74
239.648	1.02
239.865	58.37
240.083	107.52
240.3	72.7
240.517	23.55
240.735	103.42
240.952	-17.41
241.169	50.18
241.386	52.22
241.603	115.71
241.821	-7.17
242.038	109.57
242.255	-31.74
242.472	31.74
242.689	99.33
242.907	66.56
243.124	7.17
243.341	60.42
243.558	9.22
243.775	35.84
243.992	-1.02
244.209	15.36
244.426	58.37
244.643	29.7
244.86	-11.26
245.078	23.55
245.295	52.22
245.512	25.6
245.729	-1.02
245.946	-31.74
246.163	70.65
246.38	25.6
246.597	52.22
246.814	91.13
247.031	56.32
247.248	62.46
247.464	54.27
247.681	74.75
247.898	17.41
248.115	101.37
248.332	29.7
248.549	29.7
248.766	33.79
248.983	44.03
249.2	19.46
249.417	19.46
249.633	78.85
249.85	33.79
250.067	93.18
250.284	76.8
250.501	-35.84
250.717	84.99
250.934	66.56
251.151	48.13
251.368	-15.36
251.585	15.36
251.801	68.61
252.018	9.22
252.235	39.94
252.451	21.5
252.668	-11.26
252.885	19.46
253.102	46.08
253.318	7.17
253.535	23.55
253.752	56.32
253.968	84.99
254.185	3.07
254.401	54.27
254.618	101.37
254.835	23.55
255.051	5.12
255.268	17.41
255.484	15.36
255.701	7.17
255.917	50.18
256.134	9.22
256.351	87.04
256.567	19.46
256.784	48.13
257	33.79
257.217	99.33
257.433	41.98
257.65	-15.36
257.866	50.18
258.082	5.12
258.299	13.31
258.515	95.23
258.732	7.17
258.948	-9.22
259.165	60.42
259.381	93.18
259.597	56.32
259.814	-7.17
260.03	15.36
260.246	50.18
260.463	60.42
260.679	3.07
260.895	52.22
261.112	25.6
261.328	5.12
261.544	7.17
261.761	162.81
261.977	11.26
262.193	-3.07
262.409	60.42
262.626	66.56
262.842	62.46
263.058	-5.12
263.274	99.33
263.49	27.65
263.707	17.41
263.923	68.61
264.139	13.31
264.355	39.94
264.571	91.13
264.787	103.42
265.004	3.07
265.22	-13.31
265.436	66.56
265.652	74.75
265.868	76.8
266.084	-31.74
266.3	84.99
266.516	21.5
266.732	62.46
266.948	60.42
267.164	1.02
267.38	46.08
267.596	109.57
267.812	93.18
268.028	93.18
268.244	44.03
268.46	66.56
268.676	-25.6
268.892	154.62
269.108	-1.02
269.324	33.79
269.54	-15.36
269.756	76.8
269.972	46.08
270.188	-5.12
270.403	-1.02
270.619	37.89
270.835	3.07
271.051	68.61
271.267	-19.46
271.483	33.79
271.698	80.89
271.914	35.84
272.13	44.03
272.346	46.08
272.562	46.08
272.777	115.71
272.993	17.41
273.209	35.84
273.425	125.95
273.64	15.36
273.856	87.04
274.072	101.37
274.287	113.66
274.503	89.09
274.719	35.84
274.934	19.46
275.15	-9.22
275.366	74.75
275.581	54.27
275.797	48.13
276.012	-9.22
276.228	46.08
276.444	99.33
276.659	115.71
276.875	89.09
277.09	50.18
277.306	89.09
277.521	62.46
277.737	-35.84
277.952	82.94
278.168	58.37
278.383	93.18
278.599	39.94
278.814	68.61
279.03	72.7
279.245	-7.17
279.461	50.18
279.676	3.07
279.892	50.18
280.107	60.42
280.322	68.61
280.538	103.42
280.753	41.98
280.969	21.5
281.184	29.7
281.399	19.46
281.615	66.56
281.83	41.98
282.045	-5.12
282.26	82.94
282.476	13.31
282.691	50.18
282.906	35.84
283.122	52.22
283.337	70.65
283.552	60.42
283.767	93.18
283.983	-7.17
284.198	76.8
284.413	121.85
284.628	56.32
284.843	-11.26
285.058	39.94
285.274	-5.12
285.489	72.7
285.704	39.94
285.919	62.46
286.134	89.09
286.349	23.55
286.564	35.84
286.779	7.17
286.995	82.94
287.21	-1.02
287.425	11.26
287.64	80.89
287.855	99.33
288.07	-29.7
288.285	70.65
288.5	66.56
288.715	46.08
288.93	66.56
289.145	9.22
289.36	46.08
289.575	119.81
289.79	74.75
290.004	56.32
290.219	64.51
290.434	39.94
290.649	37.89
290.864	95.23
291.079	105.47
291.294	111.61
291.509	84.99
291.724	13.31
291.938	97.28
292.153	78.85
292.368	15.36
292.583	29.7
292.798	78.85
293.012	107.52
293.227	84.99
293.442	66.56
293.657	74.75
293.871	50.18
294.086	93.18
294.301	97.28
294.516	29.7
294.73	23.55
294.945	-15.36
295.16	60.42
295.374	76.8
295.589	134.14
295.804	105.47
296.018	50.18
296.233	54.27
296.447	41.98
296.662	58.37
296.877	48.13
297.091	111.61
297.306	91.13
297.52	35.84
297.735	70.65
297.949	21.5
298.164	64.51
298.378	99.33
298.593	70.65
298.807	-11.26
299.022	89.09
299.236	41.98
299.451	-3.07
299.665	93.18
299.88	72.7
300.094	-56.32
300.309	7.17
300.523	-5.12
300.737	-23.55
300.952	76.8
301.166	60.42
301.381	17.41
301.595	56.32
301.809	48.13
302.024	74.75
302.238	-19.46
302.452	35.84
302.667	15.36
302.881	132.09
303.095	107.52
303.309	-1.02
303.524	19.46
303.738	46.08
303.952	31.74
304.166	93.18
304.381	91.13
304.595	27.65
304.809	37.89
305.023	46.08
305.237	-13.31
305.452	37.89
305.666	103.42
305.88	125.95
306.094	25.6
306.308	68.61
306.522	7.17
306.736	11.26
306.95	56.32
307.164	52.22
307.379	44.03
307.593	56.32
307.807	84.99
308.021	50.18
308.235	29.7
308.449	29.7
308.663	7.17
308.877	189.44
309.091	113.66
309.305	52.22
309.519	56.32
309.733	46.08
309.947	-13.31
310.161	33.79
310.374	84.99
310.588	60.42
310.802	58.37
311.016	52.22
311.23	99.33
311.444	66.56
311.658	17.41
311.872	91.13
312.085	87.04
312.299	111.61
312.513	91.13
312.727	37.89
312.941	95.23
313.154	82.94
313.368	35.84
313.582	46.08
313.796	27.65
314.009	82.94
314.223	113.66
314.437	119.81
314.651	29.7
314.864	84.99
315.078	44.03
315.292	19.46
315.505	5.12
315.719	54.27
315.933	93.18
316.146	84.99
316.36	58.37
316.573	109.57
316.787	68.61
317.001	72.7
317.214	11.26
317.428	105.47
317.641	37.89
317.855	35.84
318.068	84.99
318.282	52.22
318.495	89.09
318.709	62.46
318.922	-56.32
319.136	95.23
319.349	62.46
319.563	103.42
319.776	91.13
319.99	89.09
320.203	80.89
320.417	74.75
320.63	54.27
320.843	52.22
321.057	-7.17
321.27	78.85
321.483	74.75
321.697	82.94
321.91	35.84
322.124	27.65
322.337	132.09
322.55	89.09
322.763	21.5
322.977	-15.36
323.19	31.74
323.403	44.03
323.617	-1.02
323.83	64.51
324.043	-11.26
324.256	44.03
324.469	-3.07
324.683	101.37
324.896	62.46
325.109	54.27
325.322	-5.12
325.535	27.65
325.748	46.08
325.962	76.8
326.175	138.24
326.388	97.28
326.601	29.7
326.814	64.51
327.027	60.42
327.24	23.55
327.453	44.03
327.666	64.51
327.879	66.56
328.092	62.46
328.305	64.51
328.518	128
328.731	25.6
328.944	97.28
329.157	82.94
329.37	64.51
329.583	62.46
329.796	101.37
330.009	64.51
330.222	113.66
330.435	9.22
330.648	154.62
330.861	37.89
331.073	39.94
331.286	105.47
331.499	-9.22
331.712	58.37
331.925	56.32
332.138	109.57
332.35	48.13
332.563	76.8
332.776	54.27
332.989	31.74
333.202	70.65
333.414	62.46
333.627	25.6
333.84	62.46
334.053	37.89
334.265	44.03
334.478	89.09
334.691	76.8
334.903	44.03
335.116	35.84
335.329	70.65
335.541	107.52
335.754	140.29
335.966	37.89
336.179	78.85
336.392	17.41
336.604	93.18
336.817	37.89
337.029	93.18
337.242	37.89
337.454	62.46
337.667	37.89
337.88	84.99
338.092	64.51
338.305	121.85
338.517	74.75
338.729	72.7
338.942	80.89
339.154	37.89
339.367	76.8
339.579	60.42
339.792	-27.65
340.004	13.31
340.217	58.37
340.429	17.41
340.641	-11.26
340.854	58.37
341.066	5.12
341.278	44.03
341.491	91.13
341.703	54.27
341.915	56.32
342.128	70.65
342.34	31.74
342.552	5.12
342.764	48.13
342.977	54.27
343.189	29.7
343.401	46.08
343.613	11.26
343.826	84.99
344.038	41.98
344.25	103.42
344.462	44.03
344.674	-3.07
344.886	68.61
345.099	46.08
345.311	50.18
345.523	29.7
345.735	35.84
345.947	-7.17
346.159	62.46
346.371	52.22
346.583	60.42
346.795	60.42
347.007	80.89
347.219	17.41
347.431	64.51
347.643	93.18
347.855	99.33
348.067	56.32
348.279	9.22
348.491	111.61
348.703	48.13
348.915	74.75
349.127	-13.31
349.339	113.66
349.551	21.5
349.763	107.52
349.975	64.51
350.187	56.32
350.399	-11.26
350.61	111.61
350.822	148.48
351.034	33.79
351.246	48.13
351.458	54.27
351.669	105.47
351.881	123.9
352.093	109.57
352.305	60.42
352.517	78.85
352.728	58.37
352.94	37.89
353.152	60.42
353.363	105.47
353.575	66.56
353.787	33.79
353.999	56.32
354.21	80.89
354.422	123.9
354.633	62.46
354.845	72.7
355.057	68.61
355.268	7.17
355.48	150.53
355.692	21.5
355.903	99.33
356.115	46.08
356.326	74.75
356.538	-17.41
356.749	25.6
356.961	84.99
357.172	84.99
357.384	58.37
357.595	140.29
357.807	64.51
358.018	15.36
358.23	35.84
358.441	25.6
358.653	130.05
358.864	93.18
359.075	3.07
359.287	64.51
359.498	19.46
359.709	93.18
359.921	140.29
360.132	31.74
360.344	56.32
360.555	35.84
360.766	35.84
360.977	15.36
361.189	60.42
361.4	54.27
361.611	46.08
361.823	121.85
362.034	54.27
362.245	17.41
362.456	66.56
362.667	66.56
362.879	72.7
363.09	80.89
363.301	101.37
363.512	89.09
363.723	35.84
363.935	15.36
364.146	68.61
364.357	-56.32
364.568	72.7
364.779	119.81
364.99	97.28
365.201	72.7
365.412	125.95
365.623	33.79
365.834	68.61
366.045	103.42
366.256	82.94
366.467	48.13
366.678	76.8
366.889	41.98
367.1	74.75
367.311	41.98
367.522	105.47
367.733	54.27
367.944	52.22
368.155	91.13
368.366	76.8
368.577	72.7
368.788	132.09
368.999	9.22
369.209	99.33
369.42	74.75
369.631	117.76
369.842	-11.26
370.053	103.42
370.264	64.51
370.474	105.47
370.685	80.89
370.896	117.76
371.107	58.37
371.317	58.37
371.528	91.13
371.739	84.99
371.95	76.8
372.16	113.66
372.371	99.33
372.582	76.8
372.792	15.36
373.003	19.46
373.214	74.75
373.424	74.75
373.635	82.94
373.846	62.46
374.056	39.94
374.267	78.85
374.477	93.18
374.688	89.09
374.898	7.17
375.109	82.94
375.319	44.03
375.53	132.09
375.74	103.42
375.951	19.46
376.161	68.61
376.372	123.9
376.582	25.6
376.793	84.99
377.003	62.46
377.214	62.46
377.424	56.32
377.635	-23.55
377.845	80.89
378.055	70.65
378.266	62.46
378.476	46.08
378.686	72.7
378.897	-5.12
379.107	68.61
379.317	66.56
379.528	58.37
379.738	78.85
379.948	-37.89
380.158	152.57
380.369	11.26
380.579	52.22
380.789	7.17
380.999	111.61
381.21	58.37
381.42	46.08
381.63	25.6
381.84	107.52
382.05	54.27
382.261	132.09
382.471	117.76
382.681	101.37
382.891	132.09
383.101	52.22
383.311	103.42
383.521	1.02
383.731	52.22
383.941	105.47
384.151	62.46
384.361	142.33
384.571	31.74
384.781	48.13
384.991	101.37
385.201	101.37
385.411	128
385.621	89.09
385.831	99.33
386.041	125.95
386.251	48.13
386.461	130.05
386.671	97.28
386.881	138.24
387.091	82.94
387.301	150.53
387.511	101.37
387.72	74.75
387.93	146.43
388.14	33.79
388.35	93.18
388.56	74.75
388.769	87.04
388.979	105.47
389.189	50.18
389.399	105.47
389.609	82.94
389.818	136.19
390.028	119.81
390.238	115.71
390.447	76.8
390.657	87.04
390.867	134.14
391.076	50.18
391.286	52.22
391.496	140.29
391.705	56.32
391.915	136.19
392.125	105.47
392.334	60.42
392.544	123.9
392.753	50.18
392.963	39.94
393.172	74.75
393.382	101.37
393.591	152.57
393.801	160.77
394.01	166.91
394.22	101.37
394.429	138.24
394.639	93.18
394.848	136.19
395.058	103.42
395.267	97.28
395.477	50.18
395.686	148.48
395.895	216.06
396.105	136.19
396.314	142.33
396.524	115.71
396.733	111.61
396.942	179.2
397.152	125.95
397.361	132.09
397.57	87.04
397.78	95.23
397.989	134.14
398.198	209.92
398.407	156.67
398.617	105.47
398.826	201.72
399.035	144.38
399.244	162.81
399.453	80.89
399.663	134.14
399.872	89.09
400.081	103.42
400.29	152.57
400.499	148.48
400.708	113.66
400.917	123.9
401.127	93.18
401.336	181.25
401.545	175.1
401.754	173.05
401.963	54.27
402.172	177.15
402.381	226.3
402.59	109.57
402.799	166.91
403.008	119.81
403.217	162.81
403.426	166.91
403.635	138.24
403.844	175.1
404.053	168.96
404.262	138.24
404.471	207.87
404.68	201.72
404.888	168.96
405.097	185.34
405.306	193.53
405.515	183.29
405.724	205.82
405.933	193.53
406.142	177.15
406.35	234.49
406.559	242.68
406.768	175.1
406.977	201.72
407.185	300.03
407.394	273.4
407.603	238.59
407.812	297.98
408.02	263.16
408.229	214.01
408.438	238.59
408.646	226.3
408.855	332.79
409.064	289.79
409.272	285.69
409.481	279.55
409.69	402.43
409.898	291.84
410.107	330.75
410.315	388.09
410.524	369.66
410.733	392.19
410.941	381.95
411.15	441.34
411.358	515.06
411.567	490.49
411.775	441.34
411.984	476.15
412.192	588.79
412.401	510.97
412.609	515.06
412.818	551.93
413.026	613.37
413.234	609.27
413.443	637.94
413.651	721.91
413.86	631.8
414.068	789.49
414.276	783.35
414.485	781.3
414.693	805.88
414.901	848.88
415.11	941.04
415.318	865.27
415.526	895.99
415.734	930.8
415.943	949.23
416.151	955.38
416.359	1000.43
416.567	1068.02
416.776	1010.67
416.984	1080.3
417.192	1166.32
417.4	1076.21
417.608	1078.26
417.817	1201.13
418.025	1319.92
418.233	1342.44
418.441	1285.1
418.649	1481.71
418.857	1485.8
419.065	1520.62
419.273	1467.37
419.481	1614.82
419.689	1782.76
419.897	1780.71
420.105	1842.15
420.313	1756.13
420.521	1944.55
420.729	1938.4
420.937	1977.31
421.145	1977.31
421.353	2155.49
421.561	2288.61
421.769	2442.2
421.977	2395.1
422.185	2386.91
422.393	2415.58
422.601	2642.9
422.809	2638.81
423.017	2786.26
423.224	2819.03
423.432	2921.43
423.64	2837.46
423.848	3253.2
424.056	3066.83
424.263	3230.67
424.471	3419.08
424.679	3527.63
424.887	3470.28
425.094	3773.38
425.302	3785.67
425.51	3871.68
425.718	4064.19
425.925	4002.75
426.133	4066.24
426.341	4264.89
426.548	4604.86
426.756	4613.05
426.964	4688.82
427.171	4991.92
427.379	5077.94
427.586	5166
427.794	5247.92
428.001	5524.4
428.209	5741.48
428.417	5677.99
428.624	6144.93
428.832	6136.74
429.039	6187.94
429.247	6103.97
429.454	6579.1
429.662	7070.61
429.869	6597.53
430.076	7050.13
430.284	6845.34
430.491	7211.92
430.699	7553.93
430.906	7707.53
431.114	7496.59
431.321	7947.14
431.528	8266.63
431.736	8719.23
431.943	8981.37
432.15	8682.36
432.358	8737.66
432.565	9247.6
432.772	9276.27
432.979	9845.61
433.187	9960.3
433.394	9818.99
433.601	10660.7
433.808	10605.41
434.016	10623.84
434.223	11170.65
434.43	11635.53
434.637	11625.29
434.844	12301.12
435.052	12446.53
435.259	12434.24
435.466	12399.43
435.673	12180.29
435.88	13269.81
436.087	13691.7
436.294	13937.45
436.501	13609.78
436.708	13634.35
436.915	14385.96
437.122	15035.16
437.329	14949.15
437.537	15319.83
437.743	15375.13
437.95	15551.25
438.157	16298.76
438.364	16589.57
438.571	16814.85
438.778	16984.83
438.985	18541.29
439.192	17599.22
439.399	18258.67
439.606	17992.43
439.813	18760.42
440.02	20095.69
440.227	19725.01
440.433	19536.6
440.64	20105.93
440.847	20073.17
441.054	20595.4
441.261	22098.61
441.467	21476.02
441.674	21619.38
441.881	22612.65
442.088	22661.8
442.294	22637.22
442.501	23050.91
442.708	23771.8
442.914	24267.41
443.121	25559.67
443.328	24937.09
443.534	26393.2
443.741	25772.66
443.948	25098.88
444.154	27333.21
444.361	26819.17
444.568	27208.29
444.774	27495
444.981	27578.97
445.187	28406.35
445.394	29676.09
445.6	29346.37
445.807	32522.77
446.013	30949.93
446.22	30994.98
446.426	32565.78
446.633	32778.76
446.839	33741.31
447.046	32545.3
447.252	34241.01
447.459	33976.83
447.665	34198.01
447.871	36352.47
448.078	37398.98
448.284	35643.87
448.491	36407.76
448.697	37986.75
448.903	38320.57
449.11	38457.78
449.316	37917.12
449.522	38621.62
449.728	39606.69
449.935	39893.41
450.141	39758.24
450.347	41294.22
450.553	39657.89
450.76	40042.91
450.966	41406.86
451.172	40835.47
451.378	42101.12
451.584	40743.31
451.791	41728.39
451.997	42015.1
452.203	42895.73
452.409	42783.09
452.615	42424.7
452.821	41058.7
453.027	40817.04
453.233	42350.97
453.44	40991.12
453.646	41904.51
453.852	41693.57
454.058	42500.47
454.264	41193.87
454.47	41677.19
454.676	40786.32
454.882	42527.1
455.088	38689.2
455.294	39547.3
455.5	40079.77
455.705	40593.81
455.911	38918.57
456.117	37810.62
456.323	37403.08
456.529	35580.39
456.735	37073.35
456.941	36092.38
457.147	35598.82
457.352	34335.22
457.558	34025.98
457.764	34077.18
457.97	33364.48
458.176	32780.81
458.381	33157.64
458.587	31457.82
458.793	31328.8
458.999	29850.17
459.204	31978.01
459.41	30859.82
459.616	28912.2
459.821	28994.12
460.027	28891.72
460.233	28215.89
460.438	26888.81
460.644	26944.1
460.85	25821.81
461.055	25475.71
461.261	25367.16
461.466	23556.76
461.672	22778.53
461.878	24328.84
462.083	22645.41
462.289	22432.43
462.494	22045.36
462.7	21125.82
462.905	20601.54
463.111	21140.16
463.316	21174.97
463.522	21168.83
463.727	21187.26
463.932	21050.05
464.138	20445.9
464.343	20697.8
464.549	20081.36
464.754	20992.7
464.959	20366.03
465.165	20832.96
465.37	19634.9
465.575	18887.39
465.781	19618.52
465.986	19743.44
466.191	19294.94
466.397	18873.06
466.602	17918.7
466.807	18479.85
467.012	18617.06
467.218	18399.98
467.423	18485.99
467.628	18242.28
467.833	19262.17
468.038	18293.48
468.244	17859.31
468.449	18492.13
468.654	18088.68
468.859	17875.7
469.064	17783.54
469.269	17226.49
469.474	17337.08
469.679	17711.86
469.885	17097.47
470.09	17214.2
470.295	17181.43
470.5	16661.25
470.705	16902.91
470.91	16548.61
471.115	16343.81
471.32	16524.04
471.525	16378.63
471.73	16114.44
471.935	16061.19
472.139	15311.64
472.344	15958.8
472.549	15538.96
472.754	15518.48
472.959	15074.07
473.164	14856.99
473.369	14760.73
473.574	15065.88
473.778	15016.73
473.983	14816.03
474.188	14789.41
474.393	14175.02
474.598	14086.95
474.802	13865.77
475.007	13910.83
475.212	13966.12
475.417	13460.27
475.621	13292.34
475.826	13564.72
476.031	13114.17
476.235	12948.28
476.44	13001.53
476.645	12858.17
476.849	12811.07
477.054	12661.57
477.259	12421.95
477.463	12677.95
477.668	12235.59
477.872	12593.98
478.077	12139.33
478.282	11844.43
478.486	11959.11
478.691	11707.21
478.895	11686.73
479.1	11443.03
479.304	11567.95
479.509	11463.51
479.713	11613.01
479.918	11092.82
480.122	11053.91
480.326	11311.96
480.531	11440.98
480.735	11084.63
480.94	11174.74
481.144	11481.94
481.348	10644.32
481.553	11088.73
481.757	10728.28
481.961	10941.27
482.166	10969.94
482.37	10986.33
482.574	10691.42
482.778	10892.12
482.983	10795.87
483.187	10707.8
483.391	10752.86
483.595	10726.24
483.8	10689.37
484.004	10902.36
484.208	10752.86
484.412	10779.48
484.616	10789.72
484.821	10734.43
485.025	10607.45
485.229	10732.38
485.433	10601.31
485.637	10793.82
485.841	10593.12
486.045	10634.08
486.249	10705.76
486.453	10799.96
486.657	10765.15
486.861	10773.34
487.065	10451.81
487.269	10845.02
487.473	10306.4
487.677	10650.46
487.881	10857.31
488.085	10525.54
488.289	10832.73
488.493	10629.98
488.697	10818.39
488.901	10810.2
489.105	10961.75
489.309	11168.6
489.512	10963.8
489.716	10885.98
489.92	10810.2
490.124	10877.79
490.328	11098.97
490.531	10847.07
490.735	10742.62
490.939	11006.81
491.143	11000.66
491.346	11107.16
491.55	11139.93
491.754	11332.44
491.958	11367.25
492.161	11154.26
492.365	11582.29
492.569	11336.53
492.772	11357.01
492.976	11500.37
493.18	11455.31
493.383	11686.73
493.587	11635.53
493.79	11842.38
493.994	11621.2
494.197	11864.91
494.401	11940.68
494.605	11907.91
494.808	12112.71
495.012	12114.76
495.215	12243.78
495.419	12278.6
495.622	12192.58
495.825	12426.05
496.029	12456.77
496.232	12827.45
496.436	12720.96
496.639	12968.76
496.843	13040.44
497.046	12862.27
497.249	13421.36
497.453	13079.35
497.656	13538.1
497.859	13417.27
498.063	13787.95
498.266	13847.34
498.469	13968.17
498.673	14039.85
498.876	14244.65
499.079	14357.28
499.282	14363.43
499.485	14965.53
499.689	14635.81
499.892	14762.78
500.095	14824.22
500.298	15336.21
500.501	15080.22
500.705	15774.48
500.908	15973.13
501.111	16016.14
501.314	16036.62
501.517	16157.45
501.72	16450.31
501.923	16655.11
502.126	16923.39
502.329	17029.88
502.532	16982.78
502.735	17427.19
502.938	17834.74
503.141	17816.3
503.344	17955.57
503.547	17939.18
503.75	18309.86
503.953	18660.07
504.156	18680.55
504.359	19055.33
504.562	19006.17
504.765	19641.04
504.968	19491.54
505.17	19911.38
505.373	19831.51
505.576	20216.52
505.779	20384.46
505.982	20384.46
506.185	21084.86
506.387	21017.28
506.59	21357.24
506.793	21791.41
506.996	21748.4
507.198	22201.01
507.401	22123.18
507.604	22481.58
507.807	22950.56
508.009	23102.11
508.212	23114.4
508.415	23493.27
508.617	23806.61
508.82	23769.75
509.022	23710.36
509.225	24201.87
509.428	24562.31
509.63	24908.42
509.833	24609.42
510.035	25580.15
510.238	25328.25
510.44	25803.38
510.643	25963.12
510.845	26329.71
511.048	26346.09
511.25	26958.44
511.453	26894.95
511.655	27925.08
511.858	27218.53
512.06	27884.12
512.262	28240.47
512.465	28160.59
512.667	28467.79
512.87	28785.22
513.072	28912.2
513.274	29356.61
513.477	29954.61
513.679	29995.57
513.881	30188.08
514.084	30616.11
514.286	30655.02
514.488	30802.47
514.69	31730.2
514.893	31656.48
515.095	31992.34
515.297	32281.11
515.499	32463.38
515.701	32905.74
515.904	33520.13
516.106	33597.95
516.308	33862.14
516.51	34142.71
516.712	34273.78
516.914	34363.89
517.116	35244.52
517.318	35084.78
517.52	35600.86
517.722	35869.15
517.925	36221.4
518.127	36129.24
518.329	36706.77
518.531	36483.54
518.733	37407.17
518.935	37771.71
519.136	37915.07
519.338	38435.25
519.54	38506.93
519.742	38863.28
519.944	38998.44
520.146	39618.98
520.348	39956.89
520.55	39975.33
520.752	40077.72
520.954	40829.33
521.155	40452.5
521.357	41054.61
521.559	41470.34
521.761	42017.15
521.963	41976.19
522.164	42277.24
522.366	42232.19
522.568	43121.01
522.77	43086.19
522.971	43657.57
523.173	43028.85
523.375	43628.9
523.576	43839.84
523.778	43964.77
523.98	44734.81
524.181	44749.14
524.383	44618.07
524.584	45392.2
524.786	45535.56
524.988	45220.17
525.189	46291.26
525.391	45646.15
525.592	46178.62
525.794	46119.23
525.995	46567.74
526.197	46192.96
526.398	46350.65
526.6	47034.67
526.801	47116.59
527.003	47481.13
527.204	46985.52
527.406	47339.82
527.607	47819.05
527.808	48126.24
528.01	47427.88
528.211	48017.7
528.412	48773.4
528.614	48386.33
528.815	48404.77
529.016	48900.37
529.218	48509.21
529.419	48492.83
529.62	49051.92
529.822	48683.29
530.023	48560.41
530.224	49316.11
530.425	49154.32
530.626	48908.57
530.828	48892.18
531.029	50262.27
531.23	49049.88
531.431	49058.07
531.632	49445.13
531.833	49694.99
532.035	49690.89
532.236	49553.68
532.437	49568.01
532.638	49062.16
532.839	49912.07
533.04	49326.35
533.241	49352.97
533.442	50174.21
533.643	49959.17
533.844	49645.83
534.045	49860.87
534.246	49266.96
534.447	50108.68
534.648	49748.23
534.849	49774.86
535.05	49180.95
535.251	49715.47
535.451	49350.93
535.652	49936.65
535.853	49840.39
536.054	49791.24
536.255	49713.42
536.456	49334.54
536.657	50196.74
536.857	49647.88
537.058	49260.82
537.259	49887.49
537.46	50051.33
537.66	49340.69
537.861	49754.38
538.062	49584.4
538.263	49787.14
538.463	49643.79
538.664	49406.22
538.865	49312.02
539.065	49842.44
539.266	48843.03
539.466	49940.74
539.667	48967.96
539.868	49723.66
540.068	49066.26
540.269	49314.06
540.469	49379.6
540.67	49115.41
540.87	49008.92
541.071	49254.67
541.271	49586.44
541.472	49240.34
541.672	48607.51
541.873	48501.02
542.073	48660.76
542.274	49461.52
542.474	48869.65
542.675	49164.56
542.875	49152.27
543.075	48843.03
543.276	48417.05
543.476	48970
543.676	48779.54
543.877	48765.21
544.077	49090.83
544.277	49082.64
544.478	48701.72
544.678	48617.75
544.878	48572.7
545.078	48830.74
545.279	48048.42
545.479	48288.03
545.679	48777.5
545.879	48664.86
546.079	48627.99
546.28	48621.85
546.48	48068.9
546.68	48386.33
546.88	48810.26
547.08	48642.33
547.28	48236.83
547.48	48326.94
547.68	48208.16
547.88	48472.35
548.081	48609.56
548.281	48441.63
548.481	48109.86
548.681	48460.06
548.881	48437.53
549.081	48376.09
549.28	47790.37
549.48	48806.17
549.68	47952.16
549.88	49035.54
550.08	48111.91
550.28	48322.85
550.48	47946.02
550.68	48632.09
550.88	48138.53
551.08	47900.97
551.279	48113.95
551.479	47655.21
551.679	48232.74
551.879	48040.23
552.079	48339.23
552.278	48109.86
552.478	47753.51
552.678	48331.04
552.878	48310.56
553.077	48245.02
553.277	47690.02
553.477	48177.44
553.676	48093.47
553.876	47900.97
554.076	47526.19
554.275	47853.86
554.475	47407.4
554.674	47773.99
554.874	48103.71
555.074	47554.86
555.273	47714.6
555.473	47954.21
555.672	47780.13
555.872	47872.29
556.071	47454.51
556.271	48105.76
556.47	47302.96
556.67	47221.04
556.869	47327.53
557.068	47180.08
557.268	47106.35
557.467	47558.95
557.667	47200.56
557.866	46989.62
558.065	47262
558.265	46799.16
558.464	46979.38
558.663	47362.35
558.863	46489.91
559.062	47503.66
559.261	46610.74
559.461	47356.21
559.66	46336.32
559.859	46737.72
560.058	46162.24
560.258	46405.95
560.457	45992.26
560.656	46451
560.855	45920.58
561.054	46256.45
561.253	46178.62
561.453	46240.06
561.652	46117.18
561.851	45992.26
562.05	46534.97
562.249	45769.03
562.448	46076.22
562.647	46033.22
562.846	45644.1
563.045	45863.24
563.244	45590.86
563.443	46043.46
563.642	45273.42
563.841	45408.59
564.04	45556.04
564.239	45742.41
564.438	44802.39
564.637	45183.31
564.836	45341
565.035	44347.74
565.234	45353.29
565.432	44255.58
565.631	44513.62
565.83	44910.93
566.029	44061.02
566.228	44343.64
566.427	43993.44
566.625	44155.23
566.824	43561.32
567.023	44310.88
567.222	43374.95
567.42	44210.53
567.619	43733.35
567.818	43518.31
568.016	43596.13
568.215	43665.77
568.414	43370.86
568.612	43878.75
568.811	42944.88
569.01	43288.94
569.208	42701.17
569.407	43354.47
569.605	42602.87
569.804	43024.75
570.002	42639.73
570.201	42633.59
570.4	42389.88
570.598	42258.81
570.797	42236.28
570.995	42547.57
571.193	41564.55
571.392	42408.31
571.59	41709.96
571.789	42011.01
571.987	41318.79
572.186	41695.62
572.384	41312.65
572.582	41410.95
572.781	41591.17
572.979	40421.78
573.177	41025.93
573.376	41240.97
573.574	41015.69
573.772	40978.83
573.971	40350.1
574.169	40386.97
574.367	40315.29
574.565	40436.12
574.763	40081.82
574.962	40186.27
575.16	39868.83
575.358	40202.65
575.556	39385.51
575.754	39776.67
575.952	39551.4
576.151	39942.56
576.349	39020.97
576.547	39008.68
576.745	39055.79
576.943	39164.33
577.141	38865.33
577.339	39309.74
577.537	38945.2
577.735	38857.14
577.933	38353.33
578.131	38828.46
578.329	37902.78
578.527	38261.18
578.725	38388.15
578.923	38580.66
579.121	37683.65
579.319	37444.04
579.516	38103.48
579.714	37765.57
579.912	37732.8
580.11	37116.36
580.308	37745.09
580.506	37169.61
580.704	36876.75
580.901	37099.98
581.099	37423.56
581.297	36334.04
581.495	36755.92
581.692	37095.88
581.89	36184.54
582.088	36893.13
582.285	36145.62
582.483	36874.7
582.681	36344.28
582.878	36080.09
583.076	35719.65
583.274	36098.52
583.471	35647.97
583.669	35265
583.866	35570.15
584.064	35738.08
584.262	34961.9
584.459	35516.9
584.657	35002.86
584.854	35172.84
585.052	34372.08
585.249	35187.18
585.447	35269.09
585.644	34621.94
585.841	34695.66
586.039	34767.34
586.236	34288.12
586.434	34253.3
586.631	34189.81
586.828	34124.28
587.026	33706.49
587.223	34034.17
587.42	33860.09
587.618	34011.64
587.815	33487.36
588.012	33552.9
588.21	33323.52
588.407	33669.63
588.604	32944.65
588.801	33335.81
588.999	33208.84
589.196	32983.56
589.393	33124.87
589.59	32879.11
589.787	32754.19
589.984	32483.86
590.182	32410.13
590.379	32641.55
590.576	32176.66
590.773	32590.35
590.97	31902.23
591.167	32389.65
591.364	31740.44
591.561	31734.3
591.758	31664.67
591.955	32074.26
592.152	31855.13
592.349	31314.47
592.546	31840.79
592.743	31932.95
592.94	31031.85
593.137	31355.43
593.334	31142.44
593.531	30988.84
593.727	31377.95
593.924	30982.7
594.121	31005.22
594.318	30923.3
594.515	30519.85
594.712	31136.29
594.908	30378.54
595.105	30345.78
595.302	30077.49
595.499	30233.14
595.696	29989.43
595.892	29960.76
596.089	30120.5
596.286	30024.25
596.482	29930.04
596.679	29821.5
596.876	29495.87
597.072	29641.28
597.269	29594.17
597.466	29258.31
597.662	29112.9
597.859	29041.22
598.055	29102.66
598.252	28799.56
598.448	29086.28
598.645	28785.22
598.841	28676.68
599.038	28588.62
599.234	28625.48
599.431	28236.37
599.627	28287.57
599.824	28303.95
600.02	28217.94
600.217	28500.56
600.413	28176.98
600.609	28029.52
600.806	27931.22
601.002	27914.84
601.198	27527.77
601.395	27621.98
601.591	27644.51
601.787	27402.85
601.984	27355.74
602.18	27755.1
602.376	27329.12
602.572	27206.24
602.769	27357.79
602.965	26921.57
603.161	27138.66
603.357	26974.82
603.553	26970.72
603.75	26561.13
603.946	26870.37
604.142	26452.59
604.338	26274.42
604.534	26419.82
604.73	26239.6
604.926	26139.25
605.122	26579.56
605.318	26243.7
605.514	25743.99
605.71	25793.14
605.906	25860.73
606.102	25612.92
606.298	25838.2
606.494	25920.12
606.69	25817.72
606.886	25582.2
607.082	25260.67
607.278	25492.09
607.474	25078.4
607.67	25553.53
607.866	24992.39
608.062	25401.98
608.257	25164.42
608.453	25240.19
608.649	24818.31
608.845	24990.34
609.041	24838.79
609.236	24926.85
609.432	24793.73
609.628	24928.9
609.824	24504.97
610.019	24584.84
610.215	24515.21
610.411	24605.32
610.606	24382.09
610.802	24652.42
610.998	24203.92
611.193	24298.13
611.389	24205.97
611.584	24042.13
611.78	23741.08
611.976	24142.48
612.171	24042.13
612.367	23960.21
612.562	23861.91
612.758	23825.04
612.953	23646.87
613.149	23802.52
613.344	23339.68
613.539	23935.63
613.735	23700.12
613.93	23743.13
614.126	23446.17
614.321	23620.25
614.517	23556.76
614.712	23306.91
614.907	23366.3
615.103	23263.9
615.298	23286.43
615.493	23511.71
615.688	22745.76
615.884	23247.52
616.079	22823.59
616.274	22694.57
616.47	22762.15
616.665	22878.88
616.86	22772.39
617.055	22794.92
617.25	22454.95
617.445	23122.59
617.641	22303.4
617.836	22700.71
618.031	22215.34
618.226	22516.39
618.421	22119.09
618.616	22477.48
618.811	22043.31
619.006	22160.05
619.201	21942.96
619.396	22332.08
619.591	21596.85
619.786	21787.32
619.981	21732.02
620.176	21672.63
620.371	21545.66
620.566	21258.94
620.761	21086.91
620.956	21533.37
621.151	21072.57
621.346	21050.05
621.541	20789.95
621.735	21039.81
621.93	20308.68
622.125	20611.78
622.32	20275.91
622.515	20622.02
622.709	20187.85
622.904	20103.89
623.099	20134.6
623.294	19876.56
623.488	19815.12
623.683	19759.83
623.878	19483.35
624.072	19634.9
624.267	19344.09
624.462	19358.42
624.656	19395.29
624.851	19127
625.046	18920.16
625.24	19038.94
625.435	18825.95
625.629	18868.96
625.824	18520.81
626.018	18787.04
626.213	18236.14
626.407	18461.41
626.602	18207.47
626.796	18199.27
626.991	17963.76
627.185	17908.46
627.38	17865.46
627.574	17748.72
627.768	17681.14
627.963	17738.48
628.157	17455.86
628.352	17562.36
628.546	16859.9
628.74	17056.51
628.935	17062.65
629.129	16943.87
629.323	16947.97
629.517	16972.54
629.712	16644.87
629.906	16661.25
630.1	16685.83
630.294	16395.01
630.489	16284.42
630.683	16366.34
630.877	15989.52
631.071	16026.38
631.265	16055.05
631.459	15749.9
631.653	15909.65
631.848	15885.07
632.042	15473.43
632.236	15856.4
632.43	15676.18
632.624	15659.79
632.818	15387.41
633.012	15149.85
633.206	15237.91
633.4	15414.04
633.594	15041.31
633.788	14998.3
633.982	15086.36
634.176	15057.69
634.369	14648.1
634.563	14572.32
634.757	14574.37
634.951	14740.26
635.145	14662.43
635.339	14676.77
635.533	14295.85
635.726	14433.06
635.92	14070.57
636.114	14099.24
636.308	14029.61
636.501	13912.88
636.695	14027.56
636.889	13861.68
637.083	13744.94
637.276	13726.51
637.47	13443.89
637.664	13517.62
637.857	13476.66
638.051	13235
638.244	13022.01
638.438	13273.91
638.632	13075.26
638.825	12878.65
639.019	13101.88
639.212	12784.44
639.406	12856.12
639.599	12766.01
639.793	12522.3
639.986	12538.69
640.18	12593.98
640.373	12471.11
640.567	12217.16
640.76	12202.82
640.954	12176.2
641.147	12239.69
641.34	12129.09
641.534	12180.29
641.727	11995.98
641.92	11916.11
642.114	11731.79
642.307	11838.28
642.5	11893.58
642.694	11555.66
642.887	11555.66
643.08	11514.7
643.273	11457.36
643.467	11131.73
643.66	11166.55
643.853	11195.22
644.046	11107.16
644.239	11068.25
644.432	11105.11
644.626	10986.33
644.819	10974.04
645.012	10865.5
645.205	10744.67
645.398	10756.96
645.591	10589.02
645.784	10511.2
645.977	10640.22
646.17	10597.21
646.363	10242.92
646.556	10204
646.749	10226.53
646.942	10361.7
647.135	10236.77
647.328	10287.97
647.521	10122.09
647.714	9835.37
647.907	9941.86
648.099	9845.61
648.292	9716.59
648.485	9741.16
648.678	9517.93
648.871	9628.53
649.064	9546.61
649.256	9634.67
649.449	9454.45
649.642	9294.71
649.835	9233.27
650.027	9243.51
650.22	9237.36
650.413	9137.01
650.605	9151.35
650.798	9137.01
650.991	8981.37
651.183	8952.7
651.376	8940.41
651.568	8870.78
651.761	8833.91
651.954	8788.86
652.146	8807.29
652.339	8676.22
652.531	8811.39
652.724	8559.49
652.916	8582.01
653.109	8342.4
653.301	8567.68
653.494	8606.59
653.686	8182.66
653.879	8430.46
654.071	8536.96
654.263	8176.52
654.456	8246.15
654.648	8313.73
654.84	8133.51
655.033	7918.47
655.225	8014.73
655.417	7709.58
655.61	7871.37
655.802	7932.81
655.994	7918.47
656.186	7773.07
656.379	7715.72
656.571	7846.79
656.763	7646.09
656.955	7609.23
657.148	7777.16
657.34	7508.88
657.532	7621.52
657.724	7605.13
657.916	7615.37
658.108	7332.75
658.3	7285.65
658.492	7269.27
658.684	7289.74
658.876	7388.05
659.068	7078.8
659.26	7119.76
659.452	7121.81
659.644	7027.6
659.836	7175.06
660.028	7099.28
660.22	6894.49
660.412	7099.28
660.604	6855.58
660.796	6867.86
660.988	6861.72
661.18	6706.07
661.372	6820.76
661.563	6921.11
661.755	6583.2
661.947	6605.72
662.139	6521.76
662.331	6411.17
662.522	6513.56
662.714	6488.99
662.906	6445.98
663.097	6544.28
663.289	6292.38
663.481	6370.21
663.673	6409.12
663.864	6220.71
664.056	6134.69
664.247	6304.67
664.439	6175.65
664.631	6257.57
664.822	6122.4
665.014	6173.6
665.205	6063.01
665.397	6155.17
665.588	6083.49
665.78	6009.76
665.971	5815.21
666.163	6024.1
666.354	5886.89
666.546	5888.93
666.737	5864.36
666.929	5780.39
667.12	5823.4
667.311	5731.24
667.503	5727.14
667.694	5768.1
667.885	5616.55
668.077	5561.26
668.268	5626.79
668.459	5569.45
668.651	5436.33
668.842	5743.53
669.033	5520.3
669.224	5335.98
669.416	5614.51
669.607	5596.07
669.798	5393.33
669.989	5565.36
670.18	5487.53
670.371	5290.93
670.563	5356.46
670.754	5499.82
670.945	5432.24
671.136	5405.61
671.327	5247.92
671.518	5180.34
671.709	5215.15
671.9	5077.94
672.091	5219.25
672.282	5202.86
672.473	5155.76
672.664	5139.38
672.855	5127.09
673.046	5096.37
673.237	5049.27
673.428	4977.59
673.619	5178.29
673.809	5041.08
674	5041.08
674.191	5026.74
674.382	5082.03
674.573	4924.34
674.764	5135.28
674.954	5059.51
675.145	5002.16
675.336	5032.88
675.527	4871.09
675.717	4926.39
675.908	4918.2
676.099	4789.17
676.289	4914.1
676.48	4787.13
676.671	4813.75
676.861	4871.09
677.052	4791.22
677.243	4694.97
677.433	4780.98
677.624	4875.19
677.814	4711.35
678.005	4701.11
678.195	4719.54
678.386	4815.8
678.576	4682.68
678.767	4690.87
678.957	4760.5
679.148	4709.3
679.338	4690.87
679.529	4654.01
679.719	4705.21
679.909	4643.77
680.1	4760.5
680.29	4637.63
680.481	4570.04
680.671	4768.7
680.861	4582.33
681.052	4457.4
681.242	4590.52
681.432	4645.82
681.622	4492.22
681.813	4578.23
682.003	4567.99
682.193	4541.37
682.383	4670.39
682.573	4563.9
682.764	4774.84
682.954	4590.52
683.144	4578.23
683.334	4463.55
683.524	4547.51
683.714	4576.19
683.904	4541.37
684.094	4608.95
684.284	4516.8
684.474	4570.04
684.664	4500.41
684.854	4441.02
685.044	4574.14
685.234	4481.98
685.424	4559.8
685.614	4441.02
685.804	4432.83
685.994	4238.27
686.184	4400.06
686.374	4314.05
686.564	4404.16
686.753	4303.81
686.943	4348.86
687.133	4438.97
687.323	4330.43
687.513	4406.2
687.702	4185.02
687.892	4328.38
688.082	4330.43
688.272	4228.03
688.461	4279.23
688.651	4385.73
688.841	4240.32
689.03	4293.57
689.22	4127.68
689.41	4111.3
689.599	4111.3
689.789	4096.96
689.979	4142.02
690.168	4133.82
690.358	4035.52
690.547	4066.24
690.737	4037.57
690.926	4142.02
691.116	3990.47
691.305	4111.3
691.495	3994.56
691.684	3969.99
691.874	3935.17
692.063	4031.43
692.252	3896.26
692.442	3857.35
692.631	3851.21
692.82	4144.06
693.01	3763.14
693.199	3695.56
693.388	3863.49
693.578	4031.43
693.767	3908.55
693.956	3795.91
694.146	3857.35
694.335	3888.07
694.524	4035.52
694.713	3945.41
694.902	3804.1
695.092	3898.31
695.281	3871.68
695.47	3763.14
695.659	3748.81
695.848	3779.53
696.037	3746.76
696.226	3789.77
696.415	3820.49
696.604	3894.21
696.793	3771.33
696.982	3812.29
697.171	3822.53
697.36	3611.59
697.549	3673.03
697.738	3836.87
697.927	3693.51
698.116	3728.33
698.305	3599.31
698.494	3724.23
698.683	3693.51
698.872	3773.38
699.061	3728.33
699.25	3722.18
699.438	3654.6
699.627	3648.46
699.816	3691.46
700.005	3824.58
700.193	3591.11
700.382	3660.74
700.571	3584.97
700.76	3517.39
700.948	3642.31
701.137	3601.35
701.326	3566.54
701.514	3576.78
701.703	3722.18
701.892	3515.34
702.08	3611.59
702.269	3560.39
702.457	3613.64
702.646	3496.91
702.834	3644.36
703.023	3503.05
703.212	3564.49
703.4	3582.92
703.589	3535.82
703.777	3482.57
703.965	3419.08
704.154	3423.18
704.342	3617.74
704.531	3505.1
704.719	3509.19
704.907	3539.91
705.096	3525.58
705.284	3453.9
705.472	3437.52
705.661	3353.55
705.849	3453.9
706.037	3408.84
706.226	3503.05
706.414	3328.97
706.602	3355.6
706.79	3406.8
706.979	3392.46
707.167	3447.76
707.355	3431.37
707.543	3355.6
707.731	3398.6
707.919	3167.18
708.107	3271.63
708.296	3277.77
708.484	3335.12
708.672	3365.84
708.86	3249.1
709.048	3357.64
709.236	3353.55
709.424	3228.62
709.612	3144.66
709.8	3269.58
709.988	3224.53
710.176	3218.38
710.364	3236.81
710.551	3285.97
710.739	3288.01
710.927	3251.15
711.115	3111.89
711.303	3134.42
711.491	3228.62
711.679	3140.56
711.866	3199.95
712.054	3128.27
712.242	3054.55
712.43	3261.39
712.617	3130.32
712.805	3081.17
712.993	3077.07
713.181	3118.03
713.368	3140.56
713.556	3122.13
713.744	3040.21
713.931	3097.55
714.119	3017.68
714.306	3013.59
714.494	3011.54
714.682	3034.07
714.869	3115.98
715.057	2950.1
715.244	2950.1
715.432	3050.45
715.619	3052.5
715.807	2939.86
715.994	3081.17
716.182	2952.15
716.369	3001.3
716.556	3087.31
716.744	2939.86
716.931	2923.48
717.119	2941.91
717.306	2956.24
717.493	2874.32
717.681	2933.72
717.868	2841.56
718.055	2913.24
718.242	2913.24
718.43	2876.37
718.617	2855.89
718.804	2841.56
718.991	2890.71
719.179	2937.81
719.366	2866.13
719.553	2833.36
719.74	2835.41
719.927	2816.98
720.114	2739.16
720.301	2810.84
720.488	2696.15
720.676	2735.06
720.863	2776.02
721.05	2745.3
721.237	2821.08
721.424	2692.05
721.611	2692.05
721.798	2690.01
721.985	2733.01
722.172	2735.06
722.358	2640.86
722.545	2647
722.732	2542.55
722.919	2790.36
723.106	2647
723.293	2618.33
723.48	2632.66
723.667	2714.58
723.853	2599.9
724.04	2706.39
724.227	2661.34
724.414	2655.19
724.6	2560.98
724.787	2620.38
724.974	2630.62
725.161	2546.65
725.347	2599.9
725.534	2472.92
725.72	2520.03
725.907	2563.03
726.094	2522.07
726.28	2536.41
726.467	2495.45
726.653	2511.83
726.84	2565.08
727.027	2593.75
727.213	2595.8
727.4	2509.79
727.586	2438.11
727.773	2532.31
727.959	2401.24
728.145	2391
728.332	2507.74
728.518	2403.29
728.705	2509.79
728.891	2403.29
729.077	2464.73
729.264	2403.29
729.45	2485.21
729.636	2372.57
729.823	2446.3
730.009	2368.48
730.195	2337.76
730.382	2333.66
730.568	2335.71
730.754	2350.04
730.94	2358.24
731.126	2307.04
731.313	2425.82
731.499	2296.8
731.685	2325.47
731.871	2368.48
732.057	2372.57
732.243	2333.66
732.429	2423.77
732.615	2380.76
732.801	2329.56
732.987	2307.04
733.173	2282.46
733.359	2276.32
733.545	2325.47
733.731	2323.42
733.917	2413.53
734.103	2325.47
734.289	2233.31
734.475	2360.28
734.661	2235.36
734.847	2270.17
735.033	2225.12
735.219	2323.42
735.404	2268.13
735.59	2286.56
735.776	2225.12
735.962	2223.07
736.148	2145.25
736.333	2266.08
736.519	2243.55
736.705	2280.41
736.89	2206.69
737.076	2182.11
737.262	2087.9
737.447	2178.01
737.633	2145.25
737.819	2239.45
738.004	2196.45
738.19	2151.39
738.375	2116.58
738.561	2096.1
738.747	2120.67
738.932	2034.66
739.118	2126.82
739.303	2137.06
739.489	2110.43
739.674	2055.14
739.859	1958.88
740.045	2106.34
740.23	2032.61
740.416	2059.23
740.601	2048.99
740.786	2044.9
740.972	1948.64
741.157	1948.64
741.342	1983.46
741.528	2012.13
741.713	2032.61
741.898	1924.07
742.084	1942.5
742.269	1919.97
742.454	1907.68
742.639	1905.63
742.824	1887.2
743.01	1977.31
743.195	1979.36
743.38	1919.97
743.565	1850.34
743.75	1946.59
743.935	1924.07
744.12	1907.68
744.305	1735.65
744.49	1827.81
744.675	1870.82
744.86	1692.65
745.045	1797.09
745.23	1838.05
745.415	1870.82
745.6	1758.18
745.785	1790.95
745.97	1795.04
746.155	1793
746.34	1729.51
746.525	1797.09
746.71	1690.6
746.895	1698.79
747.079	1586.15
747.264	1647.59
747.449	1823.72
747.634	1618.92
747.819	1709.03
748.003	1606.63
748.188	1627.11
748.373	1653.73
748.557	1569.77
748.742	1565.67
748.927	1674.21
749.111	1604.58
749.296	1618.92
749.481	1528.81
749.665	1481.71
749.85	1586.15
750.034	1641.45
750.219	1518.57
750.404	1434.6
750.588	1479.66
750.773	1467.37
750.957	1485.8
751.141	1450.99
751.326	1397.74
751.51	1418.22
751.695	1520.62
751.879	1461.23
752.064	1534.95
752.248	1371.12
752.432	1403.88
752.617	1401.83
752.801	1434.6
752.985	1401.83
753.17	1381.35
753.354	1350.64
753.538	1344.49
753.722	1389.55
753.907	1420.27
754.091	1319.92
754.275	1324.01
754.459	1324.01
754.643	1348.59
754.828	1291.24
755.012	1199.09
755.196	1264.62
755.38	1283.05
755.564	1256.43
755.748	1256.43
755.932	1287.15
756.116	1256.43
756.3	1270.76
756.484	1227.76
756.668	1250.28
756.852	1151.98
757.036	1215.47
757.22	1166.32
757.404	1127.41
757.588	1141.74
757.772	1158.13
757.956	1127.41
758.14	1192.94
758.323	1100.78
758.507	1053.68
758.691	1104.88
758.875	1100.78
759.059	1080.3
759.242	1104.88
759.426	1045.49
759.61	1008.62
759.794	1051.63
759.977	1025.01
760.161	986.1
760.345	1068.02
760.528	998.38
760.712	1080.3
760.895	1041.39
761.079	969.71
761.263	986.1
761.446	994.29
761.63	1035.25
761.813	1047.54
761.997	994.29
762.18	998.38
762.364	1039.34
762.547	984.05
762.731	1016.82
762.914	969.71
763.098	990.19
763.281	977.91
763.464	979.95
763.648	934.9
763.831	906.23
764.015	898.03
764.198	898.03
764.381	1039.34
764.564	932.85
764.748	889.84
764.931	1016.82
765.114	906.23
765.297	908.27
765.481	941.04
765.664	857.07
765.847	975.86
766.03	906.23
766.213	814.07
766.397	904.18
766.58	895.99
766.763	920.56
766.946	836.6
767.129	904.18
767.312	910.32
767.495	879.6
767.678	859.12
767.861	809.97
768.044	785.4
768.227	826.36
768.41	865.27
768.593	889.84
768.776	801.78
768.959	783.35
769.142	842.74
769.324	736.24
769.507	822.26
769.69	736.24
769.873	801.78
770.056	928.75
770.239	883.7
770.421	828.4
770.604	846.84
770.787	816.12
770.97	766.96
771.152	781.3
771.335	846.84
771.518	721.91
771.7	766.96
771.883	728.05
772.066	693.24
772.248	760.82
772.431	785.4
772.613	715.77
772.796	758.77
772.978	824.31
773.161	691.19
773.343	744.44
773.526	703.48
773.708	740.34
773.891	656.37
774.073	785.4
774.256	635.89
774.438	783.35
774.621	734.2
774.803	703.48
774.985	648.18
775.168	717.81
775.35	619.51
775.532	662.52
775.715	650.23
775.897	642.04
776.079	674.81
776.261	699.38
776.444	617.46
776.626	656.37
776.808	558.07
776.99	732.15
777.173	635.89
777.355	723.96
777.537	637.94
777.719	568.31
777.901	633.85
778.083	558.07
778.265	570.36
778.447	596.98
778.629	560.12
778.811	568.31
778.993	549.88
779.175	592.89
779.357	527.35
779.539	627.7
779.721	533.5
779.903	607.22
780.085	531.45
780.267	535.54
780.449	480.25
780.631	627.7
780.812	541.69
780.994	472.06
781.176	482.3
781.358	498.68
781.54	476.15
781.721	551.93
781.903	470.01
782.085	506.87
782.267	513.02
782.448	553.98
782.63	418.81
782.812	533.5
782.993	527.35
783.175	549.88
783.357	490.49
783.538	484.34
783.72	439.29
783.901	416.76
784.083	533.5
784.264	490.49
784.446	414.71
784.627	404.47
784.809	431.1
784.99	445.43
785.172	463.86
785.353	388.09
785.535	416.76
785.716	334.84
785.897	371.71
786.079	383.99
786.26	371.71
786.441	383.99
786.623	394.23
786.804	461.82
786.985	422.91
787.167	394.23
787.348	394.23
787.529	424.95
787.71	412.67
787.891	418.81
788.073	373.75
788.254	439.29
788.435	351.23
788.616	375.8
788.797	310.27
788.978	369.66
789.159	322.56
789.34	326.65
789.522	340.99
789.703	326.65
789.884	334.84
790.065	273.4
790.246	336.89
790.427	353.27
790.607	367.61
790.788	373.75
790.969	287.74
791.15	320.51
791.331	390.14
791.512	306.17
791.693	291.84
791.874	351.23
792.054	353.27
792.235	355.32
792.416	236.54
792.597	316.41
792.778	318.46
792.958	232.44
793.139	244.73
793.32	277.5
793.5	295.93
793.681	367.61
793.862	310.27
794.042	263.16
794.223	259.07
794.404	271.36
794.584	232.44
794.765	273.4
794.945	300.03
795.126	267.26
795.306	355.32
795.487	216.06
795.667	306.17
795.848	291.84
796.028	308.22
796.209	214.01
796.389	271.36
796.57	226.3
796.75	232.44
796.93	259.07
797.111	242.68
797.291	316.41
797.471	291.84
797.652	297.98
797.832	312.32
798.012	254.97
798.192	238.59
798.373	297.98
798.553	209.92
798.733	201.72
798.913	179.2
799.093	257.02
799.274	248.83
799.454	211.96
799.634	199.68
799.814	283.64
799.994	228.35
800.174	226.3
800.354	285.69
800.534	267.26
800.714	205.82
800.894	166.91
801.074	209.92
801.254	211.96
801.434	275.45
801.614	164.86
801.794	220.16
801.974	605.17
802.154	238.59
802.334	203.77
802.514	287.74
802.693	214.01
802.873	238.59
803.053	281.6
803.233	224.25
803.413	187.39
803.592	216.06
803.772	134.14
803.952	257.02
804.131	160.77
804.311	234.49
804.491	240.64
804.67	224.25
804.85	230.4
805.03	244.73
805.209	193.53
805.389	123.9
805.568	224.25
805.748	230.4
805.928	179.2
806.107	220.16
806.287	238.59
806.466	166.91
806.646	103.42
806.825	173.05
807.004	189.44
807.184	171.01
807.363	189.44
807.543	173.05
807.722	134.14
807.901	148.48
808.081	222.2
808.26	134.14
808.439	197.63
808.619	123.9
808.798	130.05
808.977	189.44
809.156	220.16
809.336	183.29
809.515	166.91
809.694	95.23
809.873	142.33
810.052	218.11
810.231	181.25
810.411	193.53
810.59	205.82
810.769	214.01
810.948	234.49
811.127	103.42
811.306	146.43
811.485	209.92
811.664	261.12
811.843	138.24
812.022	160.77
812.201	113.66
812.38	195.58
812.559	105.47
812.737	199.68
812.916	84.99
813.095	97.28
813.274	119.81
813.453	195.58
813.632	107.52
813.811	244.73
813.989	144.38
814.168	193.53
814.347	140.29
814.526	181.25
814.704	144.38
814.883	87.04
815.062	154.62
815.24	183.29
815.419	162.81
815.598	197.63
815.776	150.53
815.955	144.38
816.133	115.71
816.312	187.39
816.49	181.25
816.669	191.49
816.847	132.09
817.026	119.81
817.204	99.33
817.383	150.53
817.561	117.76
817.74	130.05
817.918	121.85
818.097	119.81
818.275	107.52
818.453	148.48
818.632	109.57
818.81	164.86
818.988	54.27
819.167	166.91
819.345	66.56
819.523	68.61
819.701	111.61
819.879	111.61
820.058	44.03
820.236	162.81
820.414	130.05
820.592	162.81
820.77	89.09
820.948	109.57
821.127	113.66
821.305	183.29
821.483	87.04
821.661	130.05
821.839	130.05
822.017	99.33
822.195	95.23
822.373	101.37
822.551	39.94
822.729	99.33
822.907	123.9
823.085	162.81
823.262	91.13
823.44	222.2
823.618	109.57
823.796	93.18
823.974	93.18
824.152	109.57
824.329	107.52
824.507	93.18
824.685	93.18
824.863	89.09
825.04	87.04
825.218	181.25
825.396	128
825.574	136.19
825.751	78.85
825.929	152.57
826.107	76.8
826.284	52.22
826.462	68.61
826.639	72.7
826.817	1.02
826.994	144.38
827.172	89.09
827.349	136.19
827.527	68.61
827.704	74.75
827.882	78.85
828.059	97.28
828.237	107.52
828.414	115.71
828.591	58.37
828.769	113.66
828.946	84.99
829.124	175.1
829.301	76.8
829.478	138.24
829.655	125.95
829.833	105.47
830.01	48.13
830.187	113.66
830.364	103.42
830.542	68.61
830.719	97.28
830.896	48.13
831.073	66.56
831.25	99.33
831.427	99.33
831.604	46.08
831.782	70.65
831.959	119.81
832.136	50.18
832.313	136.19
832.49	117.76
832.667	136.19
832.844	87.04
833.021	156.67
833.198	115.71
833.374	140.29
833.551	41.98
833.728	80.89
833.905	168.96
834.082	70.65
834.259	113.66
834.436	211.96
834.612	60.42
834.789	76.8
834.966	52.22
835.143	132.09
835.319	41.98
835.496	156.67
835.673	56.32
835.85	95.23
836.026	58.37
836.203	80.89
836.38	68.61
836.556	76.8
836.733	62.46
836.909	146.43
837.086	25.6
837.262	78.85
837.439	33.79
837.616	84.99
837.792	80.89
837.968	68.61
838.145	62.46
838.321	72.7
838.498	136.19
838.674	37.89
838.851	76.8
839.027	35.84
839.203	95.23
839.38	148.48
839.556	41.98
839.732	80.89
839.909	17.41
840.085	-15.36
840.261	17.41
840.437	19.46
840.614	80.89
840.79	80.89
840.966	109.57
841.142	97.28
841.318	72.7
841.494	68.61
841.671	123.9
841.847	41.98
842.023	41.98
842.199	128
842.375	76.8
842.551	-33.79
842.727	76.8
842.903	109.57
843.079	82.94
843.255	119.81
843.431	97.28
843.607	80.89
843.783	25.6
843.959	54.27
844.134	-7.17
844.31	54.27
844.486	48.13
844.662	52.22
844.838	23.55
845.013	27.65
845.189	74.75
845.365	158.72
845.541	60.42
845.716	89.09
845.892	46.08
846.068	68.61
846.244	17.41
846.419	62.46
846.595	74.75
846.77	37.89
846.946	39.94
847.122	15.36
847.297	52.22
847.473	7.17
847.648	11.26
847.824	91.13
847.999	72.7
848.175	5.12
848.35	33.79
848.526	54.27
848.701	80.89
848.876	41.98
849.052	11.26
849.227	41.98
849.403	-11.26
849.578	-29.7
849.753	52.22
849.929	128
850.104	-27.65
850.279	87.04
850.454	41.98
850.63	91.13
850.805	33.79
850.98	39.94
851.155	21.5
851.33	11.26
851.505	80.89
851.681	72.7
851.856	21.5
852.031	130.05
852.206	74.75
852.381	23.55
852.556	27.65
852.731	64.51
852.906	74.75
853.081	97.28
853.256	70.65
853.431	111.61
853.606	39.94
853.781	39.94
853.956	-11.26
854.131	27.65
854.305	33.79
854.48	119.81
854.655	-1.02
854.83	21.5
855.005	-13.31
855.18	-27.65
855.354	80.89
855.529	19.46
855.704	15.36
855.879	78.85
856.053	89.09
856.228	50.18
856.403	11.26
856.577	76.8
856.752	-1.02
856.926	-5.12
857.101	76.8
857.276	1.02
857.45	1.02
857.625	23.55
857.799	99.33
857.974	72.7
858.148	-41.98
858.323	48.13
858.497	33.79
858.672	74.75
858.846	19.46
859.02	99.33
859.195	76.8
859.369	29.7
859.543	37.89
859.718	68.61
859.892	78.85
860.066	15.36
860.241	93.18
860.415	21.5
860.589	29.7
860.763	56.32
860.938	46.08
861.112	23.55
861.286	-13.31
861.46	31.74
861.634	11.26
861.808	64.51
861.982	52.22
862.157	23.55
862.331	23.55
862.505	44.03
862.679	-23.55
862.853	15.36
863.027	-21.5
863.201	35.84
863.375	60.42
863.549	25.6
863.722	21.5
863.896	68.61
864.07	48.13
864.244	41.98
864.418	105.47
864.592	33.79
864.766	27.65
864.939	76.8
865.113	5.12
865.287	62.46
865.461	27.65
865.634	-17.41
865.808	60.42
865.982	58.37
866.156	80.89
866.329	44.03
866.503	13.31
866.676	44.03
866.85	-39.94
867.024	46.08
867.197	54.27
867.371	74.75
867.544	60.42
867.718	70.65
867.891	39.94
868.065	56.32
868.238	99.33
868.412	89.09
868.585	82.94
868.759	17.41
868.932	87.04
869.105	39.94
869.279	35.84
869.452	-1.02
869.625	41.98
869.799	82.94
869.972	17.41
870.145	41.98
870.319	27.65
870.492	82.94
870.665	13.31
870.838	11.26
871.011	35.84
871.185	19.46
871.358	41.98
871.531	11.26
871.704	60.42
871.877	66.56
872.05	19.46
872.223	23.55
872.396	15.36
872.569	103.42
872.742	25.6
872.915	9.22
873.088	103.42
873.261	37.89
873.434	25.6
873.607	21.5
873.78	-3.07
873.953	60.42
874.126	-48.13
874.299	31.74
874.471	-35.84
874.644	52.22
874.817	-13.31
874.99	11.26
875.163	-23.55
875.335	58.37
875.508	-54.27
875.681	33.79
875.853	-5.12
876.026	101.37
876.199	7.17
876.371	41.98
876.544	-35.84
876.717	11.26
876.889	25.6
877.062	-17.41
877.234	-9.22
877.407	17.41
877.579	7.17
877.752	7.17
877.924	35.84
878.097	15.36
878.269	25.6
878.442	78.85
878.614	3.07
878.786	54.27
878.959	68.61
879.131	80.89
879.303	19.46
879.476	23.55
879.648	19.46
879.82	25.6
879.993	95.23
880.165	60.42
880.337	37.89
880.509	-5.12
880.681	7.17
880.854	54.27
881.026	21.5
881.198	44.03
881.37	-15.36
881.542	-1.02
881.714	17.41
881.886	31.74
882.058	-19.46
882.23	17.41
882.402	80.89
882.574	46.08
882.746	-62.46
882.918	78.85
883.09	46.08
883.262	54.27
883.434	89.09
883.606	37.89
883.778	33.79
883.95	97.28
884.122	9.22
884.293	74.75
884.465	54.27
884.637	-3.07
884.809	-1.02
884.98	25.6
885.152	52.22
885.324	25.6
885.496	13.31
885.667	23.55
885.839	46.08
886.011	78.85
886.182	-13.31
886.354	-25.6
886.525	48.13
886.697	9.22
886.869	23.55
887.04	17.41
887.212	-64.51
887.383	-13.31
887.555	25.6
887.726	-41.98
887.897	-21.5
888.069	70.65
888.24	-21.5
888.412	76.8
888.583	-3.07
888.754	-46.08
888.926	95.23
889.097	-17.41
889.268	52.22
889.44	70.65
889.611	-39.94
889.782	11.26
889.953	31.74
890.125	66.56
890.296	7.17
890.467	25.6
890.638	-27.65
890.809	50.18
890.98	-1.02
891.151	13.31
891.323	60.42
891.494	23.55
891.665	-1.02
891.836	58.37
892.007	23.55
892.178	68.61
892.349	-17.41
892.52	41.98
892.691	-56.32
892.862	41.98
893.032	19.46
893.203	56.32
893.374	-1.02
893.545	121.85
893.716	31.74
893.887	82.94
894.057	23.55
894.228	21.5
894.399	48.13
894.57	-35.84
894.74	1.02
894.911	25.6
895.082	7.17
895.253	11.26
895.423	-11.26
895.594	-19.46
895.764	33.79
895.935	54.27
896.106	15.36
896.276	-9.22
896.447	48.13
896.617	41.98
896.788	41.98
896.958	37.89
897.129	-52.22
897.299	-1.02
897.47	62.46
897.64	35.84
897.81	25.6
897.981	62.46
898.151	27.65
898.322	-37.89
898.492	60.42
898.662	-46.08
898.832	56.32
899.003	5.12
899.173	50.18
899.343	46.08
899.513	-13.31
