Data from USB4F104151__41__12-35-55-099.txt Node

Date: Fri Mar 14 12:35:55 EDT 2025
User: louis
Spectrometer: USB4F10415
Trigger mode: 4
Integration Time (sec): 2.000000E-2
Scans to average: 1
Electric dark correction enabled: true
Nonlinearity correction enabled: false
Boxcar width: 0
XAxis mode: Wavelengths
Number of Pixels in Spectrum: 3648
>>>>>Begin Spectral Data<<<<<
178.204	-88.4
178.424	-88.4
178.644	-88.4
178.864	-61.78
179.084	-135.51
179.304	-2.39
179.524	-4.44
179.744	-69.97
179.964	11.95
180.184	11.95
180.404	-82.26
180.624	13.99
180.844	30.38
181.064	67.24
181.283	5.8
181.503	-20.82
181.723	38.57
181.943	22.19
182.163	61.1
182.383	44.71
182.602	91.82
182.822	54.95
183.042	-39.25
183.262	13.99
183.482	18.09
183.701	65.19
183.921	-39.25
184.141	-35.16
184.361	20.14
184.58	-26.96
184.8	30.38
185.02	44.71
185.239	32.43
185.459	3.75
185.679	48.81
185.898	32.43
186.118	79.53
186.338	50.86
186.557	81.58
186.777	9.9
186.997	65.19
187.216	52.91
187.436	59.05
187.655	52.91
187.875	26.28
188.095	11.95
188.314	75.43
188.534	69.29
188.753	59.05
188.973	132.78
189.192	71.34
189.412	-53.59
189.631	79.53
189.851	26.28
190.07	40.62
190.29	20.14
190.509	81.58
190.729	-6.49
190.948	67.24
191.168	153.26
191.387	30.38
191.607	-76.12
191.826	59.05
192.045	61.1
192.265	-8.53
192.484	9.9
192.704	46.76
192.923	16.04
193.142	118.44
193.362	-18.77
193.581	81.58
193.8	-4.44
194.02	13.99
194.239	-14.68
194.458	26.28
194.678	42.67
194.897	126.63
195.116	57
195.335	85.67
195.555	-37.2
195.774	42.67
195.993	32.43
196.212	26.28
196.432	-6.49
196.651	32.43
196.87	42.67
197.089	71.34
197.308	-31.06
197.528	87.72
197.747	-31.06
197.966	52.91
198.185	28.33
198.404	73.39
198.623	26.28
198.842	-6.49
199.062	36.52
199.281	85.67
199.5	18.09
199.719	54.95
199.938	24.23
200.157	75.43
200.376	-39.25
200.595	73.39
200.814	28.33
201.033	-26.96
201.252	36.52
201.471	24.23
201.69	38.57
201.909	104.11
202.128	69.29
202.347	-33.11
202.566	28.33
202.785	22.19
203.004	73.39
203.223	52.91
203.442	63.15
203.661	71.34
203.879	40.62
204.098	83.63
204.317	24.23
204.536	59.05
204.755	79.53
204.974	30.38
205.193	5.8
205.411	32.43
205.63	-6.49
205.849	48.81
206.068	9.9
206.287	1.71
206.505	20.14
206.724	46.76
206.943	48.81
207.162	-8.53
207.381	40.62
207.599	93.87
207.818	-2.39
208.037	46.76
208.255	69.29
208.474	-35.16
208.693	95.91
208.911	52.91
209.13	24.23
209.349	-33.11
209.567	-14.68
209.786	40.62
210.005	36.52
210.223	126.63
210.442	32.43
210.661	57
210.879	22.19
211.098	40.62
211.316	108.2
211.535	79.53
211.753	30.38
211.972	71.34
212.191	44.71
212.409	1.71
212.628	54.95
212.846	32.43
213.065	52.91
213.283	130.73
213.502	79.53
213.72	-31.06
213.938	65.19
214.157	52.91
214.375	36.52
214.594	32.43
214.812	34.47
215.031	20.14
215.249	1.71
215.467	42.67
215.686	30.38
215.904	91.82
216.122	54.95
216.341	91.82
216.559	34.47
216.778	75.43
216.996	30.38
217.214	22.19
217.432	52.91
217.651	-35.16
217.869	30.38
218.087	54.95
218.306	-67.92
218.524	65.19
218.742	63.15
218.96	145.06
219.179	-39.25
219.397	71.34
219.615	-2.39
219.833	67.24
220.051	42.67
220.27	44.71
220.488	-12.63
220.706	52.91
220.924	26.28
221.142	7.85
221.36	81.58
221.578	44.71
221.796	5.8
222.015	91.82
222.233	54.95
222.451	32.43
222.669	28.33
222.887	93.87
223.105	-12.63
223.323	-6.49
223.541	-24.92
223.759	40.62
223.977	1.71
224.195	42.67
224.413	22.19
224.631	108.2
224.849	34.47
225.067	36.52
225.285	38.57
225.503	50.86
225.721	1.71
225.939	73.39
226.157	38.57
226.375	143.02
226.592	63.15
226.81	46.76
227.028	-12.63
227.246	85.67
227.464	20.14
227.682	104.11
227.9	22.19
228.117	61.1
228.335	34.47
228.553	-12.63
228.771	9.9
228.989	34.47
229.206	22.19
229.424	26.28
229.642	5.8
229.86	38.57
230.077	57
230.295	40.62
230.513	87.72
230.731	22.19
230.948	95.91
231.166	16.04
231.384	16.04
231.601	30.38
231.819	40.62
232.037	36.52
232.254	67.24
232.472	-0.34
232.689	50.86
232.907	69.29
233.125	52.91
233.342	5.8
233.56	-10.58
233.777	42.67
233.995	65.19
234.213	89.77
234.43	59.05
234.648	1.71
234.865	54.95
235.083	-10.58
235.3	34.47
235.518	83.63
235.735	83.63
235.953	89.77
236.17	20.14
236.388	34.47
236.605	-6.49
236.822	26.28
237.04	34.47
237.257	52.91
237.475	18.09
237.692	44.71
237.909	48.81
238.127	71.34
238.344	22.19
238.562	28.33
238.779	-49.49
238.996	54.95
239.214	30.38
239.431	61.1
239.648	65.19
239.865	11.95
240.083	102.06
240.3	50.86
240.517	44.71
240.735	44.71
240.952	7.85
241.169	116.39
241.386	11.95
241.603	65.19
241.821	57
242.038	54.95
242.255	-10.58
242.472	-10.58
242.689	73.39
242.907	102.06
243.124	75.43
243.341	5.8
243.558	63.15
243.775	-24.92
243.992	18.09
244.209	75.43
244.426	20.14
244.643	44.71
244.86	67.24
245.078	11.95
245.295	36.52
245.512	11.95
245.729	-12.63
245.946	-6.49
246.163	40.62
246.38	-0.34
246.597	61.1
246.814	20.14
247.031	48.81
247.248	18.09
247.464	102.06
247.681	1.71
247.898	73.39
248.115	77.48
248.332	42.67
248.549	95.91
248.766	22.19
248.983	22.19
249.2	108.2
249.417	-2.39
249.633	-45.4
249.85	73.39
250.067	57
250.284	-4.44
250.501	36.52
250.717	106.15
250.934	26.28
251.151	79.53
251.368	-20.82
251.585	13.99
251.801	28.33
252.018	46.76
252.235	-6.49
252.451	59.05
252.668	61.1
252.885	13.99
253.102	71.34
253.318	38.57
253.535	50.86
253.752	-18.77
253.968	24.23
254.185	-4.44
254.401	44.71
254.618	104.11
254.835	7.85
255.051	42.67
255.268	40.62
255.484	26.28
255.701	48.81
255.917	89.77
256.134	28.33
256.351	36.52
256.567	-8.53
256.784	-14.68
257	-16.73
257.217	28.33
257.433	28.33
257.65	93.87
257.866	16.04
258.082	-18.77
258.299	24.23
258.515	57
258.732	24.23
258.948	87.72
259.165	-22.87
259.381	34.47
259.597	61.1
259.814	65.19
260.03	79.53
260.246	102.06
260.463	32.43
260.679	73.39
260.895	69.29
261.112	-31.06
261.328	44.71
261.544	9.9
261.761	134.82
261.977	38.57
262.193	-0.34
262.409	-8.53
262.626	52.91
262.842	95.91
263.058	-94.55
263.274	20.14
263.49	46.76
263.707	65.19
263.923	-29.01
264.139	5.8
264.355	59.05
264.571	63.15
264.787	83.63
265.004	71.34
265.22	-39.25
265.436	-6.49
265.652	61.1
265.868	89.77
266.084	54.95
266.3	48.81
266.516	3.75
266.732	93.87
266.948	18.09
267.164	69.29
267.38	-2.39
267.596	30.38
267.812	61.1
268.028	81.58
268.244	-2.39
268.46	16.04
268.676	59.05
268.892	22.19
269.108	9.9
269.324	-26.96
269.54	-2.39
269.756	100.01
269.972	18.09
270.188	71.34
270.403	20.14
270.619	18.09
270.835	42.67
271.051	18.09
271.267	36.52
271.483	54.95
271.698	140.97
271.914	57
272.13	30.38
272.346	28.33
272.562	9.9
272.777	79.53
272.993	24.23
273.209	52.91
273.425	-16.73
273.64	-4.44
273.856	52.91
274.072	22.19
274.287	-6.49
274.503	106.15
274.719	-65.88
274.934	18.09
275.15	28.33
275.366	30.38
275.581	-14.68
275.797	110.25
276.012	-2.39
276.228	59.05
276.444	38.57
276.659	5.8
276.875	-2.39
277.09	9.9
277.306	9.9
277.521	54.95
277.737	32.43
277.952	67.24
278.168	87.72
278.383	46.76
278.599	97.96
278.814	38.57
279.03	-0.34
279.245	136.87
279.461	-24.92
279.676	81.58
279.892	24.23
280.107	44.71
280.322	42.67
280.538	-4.44
280.753	18.09
280.969	63.15
281.184	42.67
281.399	11.95
281.615	48.81
281.83	100.01
282.045	3.75
282.26	48.81
282.476	46.76
282.691	40.62
282.906	34.47
283.122	11.95
283.337	65.19
283.552	-6.49
283.767	-14.68
283.983	59.05
284.198	-16.73
284.413	50.86
284.628	50.86
284.843	95.91
285.058	69.29
285.274	1.71
285.489	7.85
285.704	89.77
285.919	59.05
286.134	-22.87
286.349	57
286.564	38.57
286.779	104.11
286.995	48.81
287.21	-22.87
287.425	16.04
287.64	85.67
287.855	112.3
288.07	34.47
288.285	110.25
288.5	42.67
288.715	28.33
288.93	89.77
289.145	7.85
289.36	30.38
289.575	52.91
289.79	130.73
290.004	61.1
290.219	34.47
290.434	61.1
290.649	85.67
290.864	-16.73
291.079	1.71
291.294	36.52
291.509	50.86
291.724	32.43
291.938	28.33
292.153	165.54
292.368	13.99
292.583	13.99
292.798	63.15
293.012	36.52
293.227	44.71
293.442	42.67
293.657	30.38
293.871	73.39
294.086	36.52
294.301	59.05
294.516	5.8
294.73	7.85
294.945	40.62
295.16	-20.82
295.374	108.2
295.589	57
295.804	-37.2
296.018	24.23
296.233	110.25
296.447	95.91
296.662	30.38
296.877	100.01
297.091	54.95
297.306	65.19
297.52	20.14
297.735	79.53
297.949	26.28
298.164	22.19
298.378	54.95
298.593	42.67
298.807	20.14
299.022	38.57
299.236	38.57
299.451	93.87
299.665	79.53
299.88	-39.25
300.094	54.95
300.309	57
300.523	79.53
300.737	54.95
300.952	48.81
301.166	67.24
301.381	73.39
301.595	71.34
301.809	-6.49
302.024	30.38
302.238	46.76
302.452	61.1
302.667	61.1
302.881	95.91
303.095	22.19
303.309	73.39
303.524	20.14
303.738	-12.63
303.952	-8.53
304.166	50.86
304.381	5.8
304.595	95.91
304.809	71.34
305.023	79.53
305.237	134.82
305.452	48.81
305.666	85.67
305.88	1.71
306.094	54.95
306.308	118.44
306.522	22.19
306.736	42.67
306.95	59.05
307.164	26.28
307.379	100.01
307.593	57
307.807	42.67
308.021	61.1
308.235	11.95
308.449	40.62
308.663	91.82
308.877	138.92
309.091	13.99
309.305	71.34
309.519	67.24
309.733	79.53
309.947	13.99
310.161	65.19
310.374	13.99
310.588	106.15
310.802	63.15
311.016	28.33
311.23	46.76
311.444	22.19
311.658	44.71
311.872	50.86
312.085	57
312.299	149.16
312.513	75.43
312.727	63.15
312.941	79.53
313.154	71.34
313.368	65.19
313.582	1.71
313.796	24.23
314.009	73.39
314.223	22.19
314.437	42.67
314.651	79.53
314.864	85.67
315.078	59.05
315.292	5.8
315.505	-8.53
315.719	30.38
315.933	77.48
316.146	87.72
316.36	24.23
316.573	134.82
316.787	93.87
317.001	104.11
317.214	46.76
317.428	77.48
317.641	-2.39
317.855	67.24
318.068	85.67
318.282	38.57
318.495	110.25
318.709	91.82
318.922	34.47
319.136	132.78
319.349	65.19
319.563	120.49
319.776	30.38
319.99	112.3
320.203	48.81
320.417	75.43
320.63	11.95
320.843	44.71
321.057	20.14
321.27	89.77
321.483	13.99
321.697	157.35
321.91	71.34
322.124	28.33
322.337	83.63
322.55	48.81
322.763	65.19
322.977	5.8
323.19	3.75
323.403	77.48
323.617	83.63
323.83	108.2
324.043	34.47
324.256	20.14
324.469	34.47
324.683	-6.49
324.896	81.58
325.109	-6.49
325.322	63.15
325.535	54.95
325.748	52.91
325.962	63.15
326.175	40.62
326.388	85.67
326.601	81.58
326.814	50.86
327.027	91.82
327.24	-16.73
327.453	24.23
327.666	52.91
327.879	122.54
328.092	93.87
328.305	81.58
328.518	77.48
328.731	48.81
328.944	-22.87
329.157	-16.73
329.37	-0.34
329.583	71.34
329.796	87.72
330.009	48.81
330.222	61.1
330.435	67.24
330.648	32.43
330.861	44.71
331.073	93.87
331.286	63.15
331.499	61.1
331.712	9.9
331.925	124.58
332.138	89.77
332.35	83.63
332.563	52.91
332.776	97.96
332.989	7.85
333.202	50.86
333.414	36.52
333.627	65.19
333.84	100.01
334.053	5.8
334.265	-18.77
334.478	20.14
334.691	52.91
334.903	59.05
335.116	108.2
335.329	106.15
335.541	95.91
335.754	87.72
335.966	85.67
336.179	61.1
336.392	63.15
336.604	13.99
336.817	108.2
337.029	104.11
337.242	69.29
337.454	52.91
337.667	-16.73
337.88	93.87
338.092	-16.73
338.305	30.38
338.517	32.43
338.729	-18.77
338.942	108.2
339.154	26.28
339.367	50.86
339.579	69.29
339.792	36.52
340.004	87.72
340.217	54.95
340.429	89.77
340.641	-2.39
340.854	57
341.066	63.15
341.278	67.24
341.491	30.38
341.703	87.72
341.915	32.43
342.128	32.43
342.34	65.19
342.552	7.85
342.764	65.19
342.977	102.06
343.189	71.34
343.401	85.67
343.613	36.52
343.826	73.39
344.038	26.28
344.25	46.76
344.462	65.19
344.674	100.01
344.886	26.28
345.099	116.39
345.311	67.24
345.523	50.86
345.735	73.39
345.947	-26.96
346.159	77.48
346.371	91.82
346.583	32.43
346.795	138.92
347.007	18.09
347.219	108.2
347.431	26.28
347.643	63.15
347.855	7.85
348.067	54.95
348.279	5.8
348.491	73.39
348.703	71.34
348.915	73.39
349.127	-37.2
349.339	7.85
349.551	26.28
349.763	102.06
349.975	95.91
350.187	114.34
350.399	48.81
350.61	40.62
350.822	-26.96
351.034	5.8
351.246	79.53
351.458	165.54
351.669	63.15
351.881	48.81
352.093	87.72
352.305	124.58
352.517	61.1
352.728	77.48
352.94	71.34
353.152	73.39
353.363	1.71
353.575	108.2
353.787	54.95
353.999	26.28
354.21	54.95
354.422	-12.63
354.633	97.96
354.845	87.72
355.057	75.43
355.268	75.43
355.48	126.63
355.692	-72.02
355.903	77.48
356.115	50.86
356.326	89.77
356.538	112.3
356.749	28.33
356.961	165.54
357.172	61.1
357.384	108.2
357.595	126.63
357.807	63.15
358.018	42.67
358.23	97.96
358.441	145.06
358.653	28.33
358.864	108.2
359.075	44.71
359.287	3.75
359.498	100.01
359.709	95.91
359.921	85.67
360.132	50.86
360.344	83.63
360.555	83.63
360.766	93.87
360.977	79.53
361.189	83.63
361.4	77.48
361.611	91.82
361.823	52.91
362.034	73.39
362.245	-4.44
362.456	46.76
362.667	42.67
362.879	-33.11
363.09	13.99
363.301	120.49
363.512	22.19
363.723	114.34
363.935	97.96
364.146	95.91
364.357	67.24
364.568	104.11
364.779	46.76
364.99	22.19
365.201	36.52
365.412	85.67
365.623	87.72
365.834	110.25
366.045	30.38
366.256	61.1
366.467	87.72
366.678	3.75
366.889	46.76
367.1	52.91
367.311	-2.39
367.522	118.44
367.733	54.95
367.944	11.95
368.155	36.52
368.366	118.44
368.577	5.8
368.788	75.43
368.999	36.52
369.209	132.78
369.42	93.87
369.631	65.19
369.842	77.48
370.053	79.53
370.264	54.95
370.474	65.19
370.685	48.81
370.896	38.57
371.107	50.86
371.317	54.95
371.528	85.67
371.739	50.86
371.95	36.52
372.16	104.11
372.371	63.15
372.582	89.77
372.792	79.53
373.003	71.34
373.214	7.85
373.424	65.19
373.635	61.1
373.846	181.93
374.056	67.24
374.267	5.8
374.477	69.29
374.688	24.23
374.898	-6.49
375.109	93.87
375.319	106.15
375.53	3.75
375.74	34.47
375.951	75.43
376.161	67.24
376.372	126.63
376.582	48.81
376.793	50.86
377.003	126.63
377.214	75.43
377.424	173.74
377.635	83.63
377.845	93.87
378.055	106.15
378.266	54.95
378.476	36.52
378.686	73.39
378.897	67.24
379.107	69.29
379.317	61.1
379.528	-0.34
379.738	85.67
379.948	89.77
380.158	118.44
380.369	122.54
380.579	79.53
380.789	83.63
380.999	93.87
381.21	87.72
381.42	61.1
381.63	48.81
381.84	95.91
382.05	13.99
382.261	50.86
382.471	69.29
382.681	79.53
382.891	42.67
383.101	102.06
383.311	46.76
383.521	9.9
383.731	104.11
383.941	130.73
384.151	79.53
384.361	44.71
384.571	67.24
384.781	69.29
384.991	75.43
385.201	61.1
385.411	40.62
385.621	106.15
385.831	52.91
386.041	93.87
386.251	57
386.461	91.82
386.671	91.82
386.881	163.5
387.091	48.81
387.301	138.92
387.511	97.96
387.72	83.63
387.93	147.11
388.14	-6.49
388.35	120.49
388.56	132.78
388.769	159.4
388.979	-2.39
389.189	24.23
389.399	9.9
389.609	71.34
389.818	24.23
390.028	106.15
390.238	124.58
390.447	85.67
390.657	77.48
390.867	77.48
391.076	132.78
391.286	116.39
391.496	57
391.705	9.9
391.915	138.92
392.125	100.01
392.334	120.49
392.544	71.34
392.753	89.77
392.963	108.2
393.172	177.83
393.382	104.11
393.591	83.63
393.801	128.68
394.01	130.73
394.22	112.3
394.429	102.06
394.639	134.82
394.848	122.54
395.058	104.11
395.267	59.05
395.477	87.72
395.686	147.11
395.895	106.15
396.105	91.82
396.314	118.44
396.524	89.77
396.733	108.2
396.942	161.45
397.152	155.3
397.361	85.67
397.57	169.64
397.78	69.29
397.989	212.65
398.198	186.02
398.407	155.3
398.617	136.87
398.826	69.29
399.035	143.02
399.244	169.64
399.453	128.68
399.663	151.21
399.872	153.26
400.081	175.78
400.29	190.12
400.499	132.78
400.708	226.98
400.917	231.08
401.127	226.98
401.336	85.67
401.545	171.69
401.754	159.4
401.963	267.94
402.172	140.97
402.381	116.39
402.59	239.27
402.799	153.26
403.008	108.2
403.217	167.59
403.426	145.06
403.635	143.02
403.844	302.76
404.053	167.59
404.262	147.11
404.471	196.26
404.68	255.65
404.888	235.18
405.097	208.55
405.306	196.26
405.515	253.61
405.724	229.03
405.933	247.46
406.142	212.65
406.35	292.52
406.559	251.56
406.768	276.13
406.977	214.7
407.185	233.13
407.394	280.23
407.603	269.99
407.812	253.61
408.02	435.88
408.229	378.53
408.438	198.31
408.646	284.33
408.855	292.52
409.064	362.15
409.272	351.91
409.481	405.16
409.69	339.62
409.898	394.92
410.107	376.48
410.315	427.68
410.524	401.06
410.733	525.99
410.941	460.45
411.15	519.84
411.358	538.27
411.567	519.84
411.775	525.99
411.984	587.43
412.192	523.94
412.401	636.58
412.609	564.9
412.818	632.48
413.026	743.07
413.234	779.93
413.443	706.21
413.651	683.68
413.86	781.98
414.068	798.37
414.276	888.48
414.485	798.37
414.693	878.24
414.901	954.01
415.11	960.16
415.318	1031.83
415.526	997.02
415.734	1035.93
415.943	1066.65
416.151	1216.15
416.359	1107.61
416.567	1191.58
416.776	1234.58
416.984	1265.3
417.192	1326.74
417.4	1291.93
417.608	1277.59
417.817	1398.42
418.025	1406.61
418.233	1437.33
418.441	1466
418.649	1558.16
418.857	1713.81
419.065	1670.8
419.273	1736.34
419.481	1851.02
419.689	1926.8
419.897	1992.33
420.105	2104.97
420.313	2250.38
420.521	2158.22
420.729	2176.65
420.937	2287.24
421.145	2412.17
421.353	2379.4
421.561	2559.62
421.769	2610.82
421.977	2772.61
422.185	2737.79
422.393	2862.72
422.601	3133.05
422.809	3008.12
423.017	3116.67
423.224	3108.48
423.432	3374.71
423.64	3454.58
423.848	3706.48
424.056	3593.84
424.263	3858.03
424.471	3835.5
424.679	3925.61
424.887	4177.51
425.094	4257.39
425.302	4249.19
425.51	4492.9
425.718	4488.81
425.925	4511.33
426.133	4947.55
426.341	5056.09
426.548	5312.09
426.756	5269.08
426.964	5363.29
427.171	5795.41
427.379	5754.45
427.586	5867.09
427.794	6075.98
428.001	6260.3
428.209	6647.37
428.417	6422.09
428.624	6936.13
428.832	7142.97
429.039	6886.98
429.247	6997.57
429.454	7491.13
429.662	8076.85
429.869	7544.38
430.076	8085.04
430.284	7958.07
430.491	8314.41
430.699	8791.59
430.906	8459.82
431.114	8834.6
431.321	9031.2
431.528	9332.25
431.736	9973.27
431.943	10241.55
432.15	9874.96
432.358	10034.71
432.565	10624.52
432.772	10558.99
432.979	11257.34
433.187	11339.26
433.394	11503.1
433.601	12123.63
433.808	12293.62
434.016	12170.74
434.223	12580.33
434.43	13370.85
434.637	13196.77
434.844	13940.18
435.052	14312.91
435.259	14349.78
435.466	14349.78
435.673	14009.81
435.88	15060.42
436.087	15799.74
436.294	16055.73
436.501	15562.17
436.708	15818.17
436.915	16299.44
437.122	17073.57
437.329	17139.11
437.537	17628.57
437.743	17919.39
437.95	17761.69
438.157	18726.28
438.364	19344.77
438.571	19252.61
438.778	19492.23
438.985	21214.57
439.192	20145.53
439.399	21155.18
439.606	20481.39
439.813	21609.82
440.02	22824.27
440.227	22443.35
440.433	22449.49
440.64	23039.31
440.847	23276.87
441.054	23715.14
441.261	25113.9
441.467	24773.94
441.674	25214.25
441.881	26191.13
442.088	25742.63
442.294	25744.67
442.501	26576.15
442.708	27065.61
442.914	28187.9
443.121	29140.21
443.328	28542.2
443.534	30336.22
443.741	29175.02
443.948	29398.25
444.154	31313.1
444.361	31108.3
444.568	31376.59
444.774	31302.86
444.981	31706.31
445.187	32722.1
445.394	34047.14
445.6	33580.2
445.807	36777.08
446.013	35595.4
446.22	35894.41
446.426	37694.57
446.633	37803.11
446.839	38773.85
447.046	37506.16
447.252	39451.73
447.459	39582.8
447.665	39375.95
447.871	40854.59
448.078	42980.38
448.284	40934.46
448.491	41718.83
448.697	43451.41
448.903	43994.12
449.11	44153.86
449.316	43703.31
449.522	44239.88
449.728	45558.77
449.935	45847.54
450.141	45992.94
450.347	46980.06
450.553	45675.51
450.76	46554.08
450.966	47440.85
451.172	47238.11
451.378	48524.23
451.584	47399.9
451.791	48268.23
451.997	48272.33
452.203	48993.22
452.409	48755.65
452.615	48726.98
452.821	47346.65
453.027	46437.35
453.233	48991.17
453.44	47236.06
453.646	47713.23
453.852	47801.3
454.058	48899.01
454.264	46836.7
454.47	48237.51
454.676	47191
454.882	48638.92
455.088	44710.91
455.294	45280.25
455.5	45691.89
455.705	46377.96
455.911	44930.05
456.117	43744.27
456.323	43203.61
456.529	40817.72
456.735	43060.25
456.941	41823.28
457.147	40977.47
457.352	39857.23
457.558	39119.96
457.764	39541.84
457.97	38440.03
458.176	37811.31
458.381	38161.51
458.587	36191.36
458.793	36195.46
458.999	33930.4
459.204	36375.68
459.41	35576.97
459.616	33365.17
459.821	33254.58
460.027	33266.86
460.233	32410.81
460.438	30940.37
460.644	31624.39
460.85	29922.53
461.055	29283.56
461.261	29228.27
461.466	27428.1
461.672	26404.12
461.878	28187.9
462.083	26391.83
462.289	25816.35
462.494	25724.19
462.7	24503.6
462.905	23786.82
463.111	24692.02
463.316	24565.04
463.522	23821.63
463.727	24358.2
463.932	24288.57
464.138	23858.49
464.343	23938.37
464.549	23299.4
464.754	24038.72
464.959	23866.69
465.165	23782.72
465.37	22547.79
465.575	21917.02
465.781	22820.17
465.986	22867.28
466.191	22332.76
466.397	21699.94
466.602	20737.39
466.807	21364.07
467.012	21480.8
467.218	21423.46
467.423	21306.73
467.628	21282.15
467.833	21695.84
468.038	21286.25
468.244	20761.97
468.449	21597.54
468.654	20710.77
468.859	20755.82
469.064	20354.42
469.269	19735.93
469.474	19854.72
469.679	20374.9
469.885	19690.88
470.09	20020.6
470.295	19733.89
470.5	19320.2
470.705	19651.97
470.91	19094.92
471.115	18920.84
471.32	19475.84
471.525	19156.36
471.73	18785.68
471.935	18357.65
472.139	17909.15
472.344	18021.78
472.549	18021.78
472.754	17765.79
472.959	17225.12
473.164	17092.01
473.369	17034.66
473.574	17323.43
473.778	17458.59
473.983	17270.18
474.188	17069.48
474.393	16342.45
474.598	16516.53
474.802	16184.76
475.007	15965.62
475.212	16182.71
475.417	15758.78
475.621	15592.89
475.826	15535.55
476.031	15224.26
476.235	15130.05
476.44	15445.44
476.645	14826.95
476.849	15082.95
477.054	14775.75
477.259	14687.69
477.463	14636.49
477.668	13962.71
477.872	14276.05
478.077	13792.73
478.282	13782.49
478.486	13712.86
478.691	13837.78
478.895	13618.65
479.1	13426.14
479.304	13442.53
479.509	13184.48
479.713	13403.61
479.918	13082.08
480.122	12879.33
480.326	12971.49
480.531	12830.18
480.735	12862.95
480.94	12742.12
481.144	12860.9
481.348	12652.01
481.553	12649.96
481.757	12324.33
481.961	12713.45
482.166	12600.81
482.37	12627.43
482.574	12424.69
482.778	12375.53
482.983	12621.29
483.187	12572.14
483.391	12557.8
483.595	12217.84
483.8	12273.14
484.004	12404.21
484.208	12654.06
484.412	12393.97
484.616	12576.23
484.821	12504.56
485.025	12375.53
485.229	12516.84
485.433	12355.05
485.637	12488.17
485.841	12383.73
486.045	12291.57
486.249	12293.62
486.453	12232.18
486.657	12353.01
486.861	12576.23
487.065	12070.39
487.269	12434.92
487.473	12094.96
487.677	12359.15
487.881	12723.69
488.085	12275.18
488.289	12426.73
488.493	12297.71
488.697	12418.54
488.901	12461.55
489.105	12572.14
489.309	12424.69
489.512	12465.64
489.716	12445.16
489.92	12529.13
490.124	12520.94
490.328	12760.55
490.531	12496.36
490.735	12531.18
490.939	12862.95
491.143	12541.42
491.346	12643.82
491.55	12801.51
491.754	12733.93
491.958	13012.45
492.161	12973.54
492.365	13088.23
492.569	12785.13
492.772	13037.03
492.976	13200.87
493.18	13258.21
493.383	13352.41
493.587	13243.87
493.79	13430.24
493.994	13276.64
494.197	13614.55
494.401	13698.52
494.605	13569.5
494.808	14022.1
495.012	14112.21
495.215	13936.09
495.419	14130.64
495.622	14026.2
495.825	14267.86
496.029	14216.66
496.232	14534.09
496.436	14433.74
496.639	15093.19
496.843	15046.09
497.046	15078.85
497.249	15289.79
497.453	15205.83
497.656	15322.56
497.859	15461.82
498.063	15560.13
498.266	15877.56
498.469	15959.48
498.673	15898.04
498.876	16332.21
499.079	16686.51
499.282	16659.88
499.485	16979.37
499.689	17044.9
499.892	17243.56
500.095	17206.69
500.298	17587.61
500.501	17712.54
500.705	18058.65
500.908	18292.12
501.111	18488.72
501.314	18589.07
501.517	18818.44
501.72	19002.76
501.923	19027.34
502.126	19256.71
502.329	19662.21
502.532	19776.89
502.735	19897.72
502.938	20268.41
503.141	20379
503.344	20766.06
503.547	20456.82
503.75	21034.35
503.953	21509.47
504.156	21466.47
504.359	21601.63
504.562	21790.05
504.765	22295.89
504.968	22576.47
505.17	22375.77
505.373	23043.4
505.576	23258.44
505.779	23502.15
505.982	23745.86
506.185	24069.44
506.387	24096.06
506.59	24259.9
506.793	24872.24
506.996	24655.15
507.198	25111.85
507.401	25120.04
507.604	25857.31
507.807	26012.96
508.009	26256.67
508.212	26549.53
508.415	27094.29
508.617	26952.98
508.82	27313.42
509.022	27057.42
509.225	27778.31
509.428	28060.93
509.63	28433.66
509.833	28681.46
510.035	29252.84
510.238	29005.04
510.44	29471.98
510.643	30051.55
510.845	30338.27
511.048	30131.42
511.25	30606.55
511.453	31075.54
511.655	31816.9
511.858	31452.36
512.06	31984.83
512.262	32013.51
512.465	31986.88
512.667	32699.58
512.87	33119.41
513.072	32797.88
513.274	33821.86
513.477	34045.09
513.679	34632.86
513.881	34473.12
514.084	35126.42
514.286	35150.99
514.488	35357.84
514.69	36080.77
514.893	36494.46
515.095	36424.83
515.297	36928.63
515.499	37192.82
515.701	37268.59
515.904	38542.43
516.106	38425.7
516.308	38714.46
516.51	39040.09
516.712	39468.11
516.914	39838.79
517.116	40324.16
517.318	40168.52
517.52	40651.84
517.722	40875.07
517.925	41245.75
518.127	41641.01
518.329	41823.28
518.531	41647.15
518.733	42558.5
518.935	42884.12
519.136	43441.17
519.338	43539.47
519.54	43774.99
519.742	44026.89
519.944	44194.82
520.146	45274.1
520.348	45360.12
520.55	45218.81
520.752	45323.26
520.954	46590.95
521.155	46160.87
521.357	46527.46
521.559	46828.51
521.761	47420.38
521.963	47737.81
522.164	47911.89
522.366	48141.26
522.568	48579.53
522.77	48905.15
522.971	49593.27
523.173	49159.1
523.375	49796.02
523.576	49859.51
523.778	49732.53
523.98	50254.76
524.181	50711.46
524.383	50600.87
524.584	51170.21
524.786	51510.17
524.988	51340.19
525.189	51596.18
525.391	52345.74
525.592	52261.77
525.794	52675.46
525.995	52593.54
526.197	52341.64
526.398	52894.6
526.6	53345.15
526.801	53529.47
527.003	53570.43
527.204	53455.74
527.406	53736.31
527.607	54225.78
527.808	54496.11
528.01	53836.66
528.211	54039.41
528.412	55212.9
528.614	54561.64
528.815	54530.92
529.016	55329.63
529.218	54793.06
529.419	55126.88
529.62	55278.43
529.822	55219.04
530.023	54883.17
530.224	55190.37
530.425	55006.05
530.626	55171.94
530.828	54956.9
531.029	56144.72
531.23	55319.39
531.431	55470.94
531.632	55847.77
531.833	55800.66
532.035	55845.72
532.236	55874.39
532.437	56476.49
532.638	55552.86
532.839	56142.67
533.04	56431.44
533.241	55294.81
533.442	56374.09
533.643	56345.42
533.844	56077.14
534.045	56480.59
534.246	55690.07
534.447	56765.26
534.648	55913.3
534.849	56208.21
535.05	55896.92
535.251	55962.45
535.451	55610.2
535.652	56085.33
535.853	55739.22
536.054	56638.28
536.255	56257.36
536.456	55528.28
536.657	56173.39
536.857	55960.4
537.058	55898.97
537.259	55997.27
537.46	55968.6
537.66	55827.29
537.861	55743.32
538.062	56365.9
538.263	56109.91
538.463	55663.45
538.664	55669.59
538.865	55970.64
539.065	56290.13
539.266	55040.87
539.466	56060.76
539.667	55178.08
539.868	55806.81
540.068	55573.34
540.269	55944.02
540.469	55868.25
540.67	55493.47
540.87	55141.22
541.071	55413.6
541.271	55825.24
541.472	55460.7
541.672	55374.69
541.873	55292.77
542.073	55149.41
542.274	55475.04
542.474	54709.1
542.675	55094.11
542.875	55659.35
543.075	55122.79
543.276	54848.36
543.476	55954.26
543.676	55063.39
543.877	55544.67
544.077	55235.42
544.277	55137.12
544.478	54846.31
544.678	55188.32
544.878	54928.23
545.078	55053.15
545.279	54492.01
545.479	54721.38
545.679	54791.01
545.879	55038.82
546.079	55137.12
546.28	55004
546.48	54633.32
546.68	55210.85
546.88	55044.96
547.08	55036.77
547.28	54696.81
547.48	54621.03
547.68	54743.91
547.88	54393.71
548.081	55053.15
548.281	54811.49
548.481	54481.77
548.681	54760.3
548.881	54561.64
549.081	54899.56
549.28	54498.16
549.48	54719.34
549.68	54784.87
549.88	55645.02
550.08	54612.84
550.28	54756.2
550.48	54348.65
550.68	55051.11
550.88	54303.6
551.08	54684.52
551.279	54414.19
551.479	54647.66
551.679	54086.51
551.879	54117.23
552.079	54711.14
552.278	54432.62
552.478	53910.39
552.678	54756.2
552.878	54831.97
553.077	54057.84
553.277	54033.27
553.477	54412.14
553.676	54369.13
553.876	54135.66
554.076	54012.79
554.275	53920.63
554.475	53611.38
554.674	54362.99
554.874	53934.96
555.074	53742.45
555.273	54442.86
555.473	54473.58
555.672	53965.68
555.872	54035.31
556.071	53857.14
556.271	54283.12
556.47	53658.49
556.67	53572.47
556.869	53785.46
557.068	54070.13
557.268	53445.5
557.467	53502.84
557.667	53709.69
557.866	53709.69
558.065	52888.45
558.265	53300.09
558.464	53244.8
558.663	53611.38
558.863	53326.72
559.062	53504.89
559.261	52507.53
559.461	53551.99
559.66	52648.84
559.859	53271.42
560.058	52353.93
560.258	52929.41
560.457	52456.33
560.656	52923.27
560.855	52489.1
561.054	52706.18
561.253	52345.74
561.453	52456.33
561.652	52458.38
561.851	52583.3
562.05	52519.82
562.249	51667.86
562.448	52595.59
562.647	52110.22
562.846	51913.62
563.045	52095.89
563.244	51862.42
563.443	52386.7
563.642	51098.53
563.841	51508.12
564.04	51405.72
564.239	51979.15
564.438	50817.96
564.637	51973.01
564.836	51315.61
565.035	50619.3
565.234	51112.86
565.432	50930.59
565.631	50813.86
565.83	50914.21
566.029	50371.5
566.228	50588.58
566.427	50799.52
566.625	50164.65
566.824	50088.88
567.023	50215.85
567.222	49556.41
567.42	50101.17
567.619	50185.13
567.818	49892.27
568.016	49355.71
568.215	50185.13
568.414	49570.74
568.612	49667
568.811	49036.22
569.01	49195.96
569.208	48124.88
569.407	48794.56
569.605	48122.83
569.804	49040.32
570.002	48401.35
570.201	48892.86
570.4	48110.54
570.598	48214.99
570.797	47844.3
570.995	48010.19
571.193	47807.44
571.392	47829.97
571.59	47113.18
571.789	47627.22
571.987	47326.17
572.186	47528.92
572.384	47033.31
572.582	47205.34
572.781	47483.86
572.979	46234.6
573.177	47070.17
573.376	46908.38
573.574	46672.87
573.772	46754.79
573.971	46414.82
574.169	46033.9
574.367	45810.67
574.565	46074.86
574.763	45765.62
574.962	46076.91
575.16	45210.62
575.358	45915.12
575.556	44776.45
575.754	45663.22
575.952	44905.47
576.151	45171.71
576.349	44934.14
576.547	44977.15
576.745	44823.55
576.943	44643.33
577.141	44708.86
577.339	44669.95
577.537	44078.09
577.735	44348.42
577.933	43725.84
578.131	44180.49
578.329	44059.66
578.527	43576.34
578.725	43600.91
578.923	43422.74
579.121	43533.33
579.319	43367.44
579.516	43643.92
579.714	43316.25
579.912	43219.99
580.11	42724.38
580.308	42968.09
580.506	42609.7
580.704	41929.77
580.901	42681.38
581.099	42761.25
581.297	42105.9
581.495	41987.11
581.692	42140.71
581.89	41423.92
582.088	41964.59
582.285	41530.42
582.483	41479.22
582.681	41862.19
582.878	41335.86
583.076	40750.14
583.274	41350.2
583.471	40778.81
583.669	41129.02
583.866	40657.98
584.064	40999.99
584.262	40641.6
584.459	40660.03
584.657	40516.67
584.854	40518.72
585.052	39767.12
585.249	40031.3
585.447	40008.78
585.644	39625.81
585.841	39670.86
586.039	40062.02
586.236	39513.17
586.434	38984.79
586.631	39205.97
586.828	39124.05
587.026	38886.49
587.223	38937.69
587.42	38913.11
587.618	38683.74
587.815	38284.39
588.012	38272.1
588.21	38515.81
588.407	38603.87
588.604	38206.56
588.801	37756.01
588.999	37870.7
589.196	37645.42
589.393	37923.94
589.59	37569.65
589.787	37522.54
589.984	37327.99
590.182	37178.48
590.379	37323.89
590.576	37074.04
590.773	37092.47
590.97	36930.68
591.167	37033.08
591.364	36138.12
591.561	36859
591.758	36166.79
591.955	36064.39
592.152	36590.72
592.349	35927.17
592.546	35818.63
592.743	35974.28
592.94	35462.29
593.137	35966.09
593.334	36058.24
593.531	34759.83
593.727	35589.26
593.924	35511.44
594.121	34927.77
594.318	35263.63
594.515	35183.76
594.712	35083.41
594.908	34630.81
595.105	34663.58
595.302	34659.48
595.499	34782.36
595.696	34540.7
595.892	34108.58
596.089	34204.83
596.286	34432.16
596.482	34043.04
596.679	34147.49
596.876	34104.48
597.072	33725.61
597.269	34016.42
597.466	33148.08
597.662	33442.99
597.859	33410.22
598.055	33254.58
598.252	33098.93
598.448	33275.05
598.645	32914.61
598.841	32820.41
599.038	33051.83
599.234	32791.73
599.431	32736.44
599.627	32455.87
599.824	32529.59
600.02	32251.07
600.217	32206.02
600.413	32087.23
600.609	31997.12
600.806	31878.34
601.002	32152.77
601.198	31446.22
601.395	31390.92
601.591	31761.61
601.787	31734.98
601.984	31358.16
602.18	31476.94
602.376	31608.01
602.572	30973.14
602.769	31190.22
602.965	30362.84
603.161	31087.82
603.357	30506.2
603.553	30547.16
603.75	30741.72
603.946	30555.35
604.142	30719.19
604.338	30207.2
604.534	30471.39
604.73	29693.16
604.926	29719.78
605.122	30063.84
605.318	29639.91
605.514	29793.51
605.71	29752.55
605.906	29525.22
606.102	29523.18
606.298	29824.23
606.494	29250.8
606.69	29428.97
606.886	29680.87
607.082	29121.77
607.278	29207.79
607.474	28861.68
607.67	29072.62
607.866	28826.87
608.062	29275.37
608.257	28699.89
608.453	28992.75
608.649	28726.52
608.845	28415.23
609.041	28378.36
609.236	28478.71
609.432	28144.89
609.628	28237.05
609.824	28019.97
610.019	28204.28
610.215	28013.82
610.411	28351.74
610.606	28017.92
610.802	27720.96
610.998	27868.42
611.193	27811.07
611.389	27757.83
611.584	27483.4
611.78	27387.14
611.976	27692.29
612.171	27712.77
612.367	27505.93
612.562	27530.5
612.758	26969.36
612.953	26823.95
613.149	27401.48
613.344	26688.79
613.539	27319.56
613.735	27028.75
613.93	26914.06
614.126	26735.89
614.321	26946.83
614.517	26690.84
614.712	26744.08
614.907	26418.46
615.103	26912.02
615.298	26187.04
615.493	26789.14
615.688	26256.67
615.884	27006.22
616.079	26307.87
616.274	26383.64
616.47	26381.59
616.665	26084.64
616.86	25906.46
617.055	26133.79
617.25	25824.54
617.445	26105.12
617.641	25761.06
617.836	25832.74
618.031	25433.38
618.226	25840.93
618.421	25283.88
618.616	25550.12
618.811	24954.16
619.006	25322.79
619.201	24751.41
619.396	24931.63
619.591	24681.78
619.786	24986.93
619.981	24534.32
620.176	24939.82
620.371	24225.08
620.566	24642.87
620.761	24313.14
620.956	24470.84
621.151	24114.49
621.346	24274.23
621.541	23745.86
621.735	24425.78
621.93	23391.56
622.125	23530.82
622.32	23235.91
622.515	23350.6
622.709	23129.42
622.904	23020.88
623.099	23151.95
623.294	22895.95
623.488	22494.55
623.683	22637.91
623.878	22467.92
624.072	22590.8
624.267	22482.26
624.462	22093.15
624.656	21927.26
624.851	21765.47
625.046	21681.5
625.24	21601.63
625.435	21493.09
625.629	21667.17
625.824	21353.83
626.018	21276.01
626.213	21099.88
626.407	20946.28
626.602	20673.9
626.796	20612.46
626.991	20565.36
627.185	20403.57
627.38	20610.42
627.574	20190.58
627.768	20241.78
627.963	20034.94
628.157	19942.78
628.352	19895.68
628.546	19744.13
628.74	19869.05
628.935	19293.57
629.129	19522.94
629.323	19277.19
629.517	19514.75
629.712	19301.76
629.906	19107.21
630.1	18988.42
630.294	18855.31
630.489	18910.6
630.683	18990.47
630.877	18222.48
631.071	18224.53
631.265	18400.66
631.459	17921.43
631.653	18249.11
631.848	18281.88
632.042	17972.63
632.236	17989.02
632.43	17829.27
632.624	17898.91
632.818	17612.19
633.012	17460.64
633.206	17509.79
633.4	17446.3
633.594	17071.53
633.788	17270.18
633.982	17208.74
634.176	17145.25
634.369	16772.52
634.563	16649.64
634.757	16807.34
634.951	16657.84
635.145	16522.67
635.339	16604.59
635.533	16248.24
635.726	16268.72
635.92	16182.71
636.114	16154.04
636.308	16084.41
636.501	15996.34
636.695	16065.97
636.889	15580.6
637.083	15523.26
637.276	15621.56
637.47	15791.55
637.664	15373.76
637.857	15441.34
638.051	15209.92
638.244	15007.17
638.438	15085
638.632	14863.82
638.825	15082.95
639.019	14659.02
639.212	14554.57
639.406	14966.21
639.599	14636.49
639.793	14386.64
639.986	14210.51
640.18	14278.1
640.373	14314.96
640.567	14022.1
640.76	14011.86
640.954	14024.15
641.147	13751.77
641.34	13776.34
641.534	13645.27
641.727	13649.37
641.92	13864.41
642.114	13207.01
642.307	13397.47
642.5	13463.01
642.694	13174.24
642.887	13082.08
643.08	13284.83
643.273	13397.47
643.467	12987.88
643.66	12699.11
643.853	13108.71
644.046	12490.22
644.239	12631.53
644.432	12525.04
644.626	12469.74
644.819	12365.29
645.012	12531.18
645.205	12348.91
645.398	12180.98
645.591	12219.89
645.784	12086.77
645.977	12121.59
646.17	12146.16
646.363	11947.51
646.556	11632.12
646.749	11714.04
646.942	11808.25
647.135	11720.18
647.328	11671.03
647.521	11398.65
647.714	11326.97
647.907	11361.79
648.099	11292.16
648.292	11380.22
648.485	11238.91
648.678	10939.91
648.871	10944
649.064	10862.08
649.256	11013.63
649.449	10999.3
649.642	10878.47
649.835	10548.75
650.027	10868.23
650.22	10731.01
650.413	10491.4
650.605	10632.71
650.798	10206.73
650.991	10292.75
651.183	10440.2
651.376	10194.45
651.568	10380.81
651.761	10100.24
651.954	10008.08
652.146	10049.04
652.339	10106.38
652.531	9973.27
652.724	10024.47
652.916	9772.57
653.109	9797.14
653.301	9612.82
653.494	9985.55
653.686	9573.91
653.879	9639.45
654.071	9444.89
654.263	9688.6
654.456	9569.82
654.648	9551.38
654.84	9276.96
655.033	9117.22
655.225	9311.77
655.417	9262.62
655.61	9192.99
655.802	9209.37
655.994	9029.15
656.186	9317.92
656.379	8908.32
656.571	9029.15
656.763	8789.54
656.955	8918.56
657.148	8898.08
657.34	8900.13
657.532	8750.63
657.724	8502.82
657.916	8584.74
658.108	8474.15
658.3	8334.89
658.492	8345.13
658.684	8386.09
658.876	8285.74
659.068	8255.02
659.26	8330.8
659.452	8166.96
659.644	8205.87
659.836	8015.41
660.028	8230.45
660.22	8082.99
660.412	7894.58
660.604	7968.31
660.796	8085.04
660.988	7892.53
661.18	7851.57
661.372	7935.54
661.563	7831.09
661.755	7624.25
661.947	7661.11
662.139	7585.33
662.331	7628.34
662.522	7552.57
662.714	7521.85
662.906	7487.03
663.097	7476.79
663.289	7456.31
663.481	7366.2
663.673	7360.06
663.864	7353.91
664.056	7337.53
664.247	7312.96
664.439	7081.53
664.631	7177.79
664.822	7142.97
665.014	7179.84
665.205	7106.11
665.397	6919.75
665.588	6936.13
665.78	6770.24
665.971	6862.4
666.163	6889.03
666.354	6778.44
666.546	6884.93
666.737	6651.46
666.929	6843.97
667.12	6807.11
667.311	6725.19
667.503	6651.46
667.694	6448.71
667.885	6483.53
668.077	6604.36
668.268	6635.08
668.459	6481.48
668.651	6522.44
668.842	6436.42
669.033	6229.58
669.224	6352.46
669.416	6446.66
669.607	6430.28
669.798	6286.92
669.989	6174.28
670.18	6092.37
670.371	6164.04
670.563	6143.56
670.754	6297.16
670.945	6162
671.136	6180.43
671.327	6018.64
671.518	6051.41
671.709	6073.93
671.9	6016.59
672.091	5926.48
672.282	6010.45
672.473	5781.07
672.664	5975.63
672.855	5869.14
673.046	5994.06
673.237	5932.62
673.428	5889.62
673.619	5930.58
673.809	5697.11
674	5656.15
674.191	5754.45
674.382	5713.49
674.573	5764.69
674.764	5707.35
674.954	5750.35
675.145	5635.67
675.336	5711.44
675.527	5609.05
675.717	5719.64
675.908	5506.65
676.099	5469.78
676.289	5539.41
676.48	5576.28
676.671	5492.31
676.861	5473.88
677.052	5463.64
677.243	5457.5
677.433	5500.5
677.624	5518.93
677.814	5430.87
678.005	5570.13
678.195	5523.03
678.386	5445.21
678.576	5447.26
678.767	5369.43
678.957	5537.37
679.148	5453.4
679.338	5301.85
679.529	5324.38
679.719	5342.81
679.909	5377.62
680.1	5283.42
680.29	5410.39
680.481	5408.34
680.671	5271.13
680.861	5262.94
681.052	5318.23
681.242	5092.96
681.432	5277.27
681.622	5160.54
681.813	5185.12
682.003	5197.4
682.193	5207.64
682.383	5158.49
682.573	5211.74
682.764	5148.25
682.954	5140.06
683.144	5092.96
683.334	4961.89
683.524	5135.96
683.714	5156.44
683.904	5166.68
684.094	5221.98
684.284	5000.8
684.474	5076.57
684.664	5107.29
684.854	5019.23
685.044	5033.57
685.234	5088.86
685.424	5058.14
685.614	4963.93
685.804	5064.29
685.994	5074.53
686.184	4943.46
686.374	4818.53
686.564	5029.47
686.753	4955.74
686.943	4912.74
687.133	4957.79
687.323	4873.82
687.513	5090.91
687.702	4671.08
687.892	4869.73
688.082	4812.39
688.272	4900.45
688.461	4695.65
688.651	4802.15
688.841	4875.87
689.03	4652.64
689.22	4601.44
689.41	4638.31
689.599	4666.98
689.789	4595.3
689.979	4574.82
690.168	4611.68
690.358	4585.06
690.547	4476.52
690.737	4566.63
690.926	4587.11
691.116	4443.75
691.305	4505.19
691.495	4490.85
691.684	4431.46
691.874	4523.62
692.063	4433.51
692.252	4509.29
692.442	4447.85
692.631	4308.58
692.82	4540.01
693.01	4474.47
693.199	4353.64
693.388	4308.58
693.578	4390.5
693.767	4370.02
693.956	4357.74
694.146	4322.92
694.335	4200.04
694.524	4388.46
694.713	4275.82
694.902	4167.28
695.092	4290.15
695.281	4286.06
695.47	4298.35
695.659	4148.84
695.848	4095.6
696.037	4290.15
696.226	4349.54
696.415	4314.73
696.604	4310.63
696.793	4154.99
696.982	4208.23
697.171	4214.38
697.36	4294.25
697.549	4154.99
697.738	4169.32
697.927	4079.21
698.116	4025.97
698.305	4140.65
698.494	4220.52
698.683	4169.32
698.872	4165.23
699.061	4068.97
699.25	3960.43
699.438	4048.49
699.627	4058.73
699.816	3978.86
700.005	4048.49
700.193	4173.42
700.382	4048.49
700.571	3954.29
700.76	4038.25
700.948	4038.25
701.137	4017.77
701.326	4030.06
701.514	3999.34
701.703	3896.94
701.892	3841.65
702.08	3978.86
702.269	4089.45
702.457	3790.45
702.646	3919.47
702.834	3835.5
703.023	3884.66
703.212	3892.85
703.4	3925.61
703.589	3946.09
703.777	3913.33
703.965	3896.94
704.154	3946.09
704.342	3774.07
704.531	3913.33
704.719	3739.25
704.907	3976.81
705.096	3724.91
705.284	3769.97
705.472	3696.24
705.661	3688.05
705.849	3749.49
706.037	3716.72
706.226	3806.83
706.414	3681.91
706.602	3618.42
706.79	3628.66
706.979	3784.3
707.167	3720.82
707.355	3593.84
707.543	3702.39
707.731	3657.33
707.919	3624.56
708.107	3790.45
708.296	3593.84
708.484	3620.47
708.672	3665.52
708.86	3661.43
709.048	3792.5
709.236	3651.19
709.424	3583.6
709.612	3524.21
709.8	3577.46
709.988	3446.39
710.176	3509.88
710.364	3552.88
710.551	3487.35
710.739	3477.11
710.927	3434.1
711.115	3405.43
711.303	3364.47
711.491	3384.95
711.679	3458.68
711.866	3466.87
712.054	3354.23
712.242	3432.05
712.43	3526.26
712.617	3446.39
712.805	3374.71
712.993	3493.49
713.181	3237.5
713.368	3251.83
713.556	3280.5
713.744	3311.22
713.931	3341.94
714.119	3288.7
714.306	3348.09
714.494	3319.42
714.682	3210.87
714.869	3194.49
715.057	3241.59
715.244	3270.26
715.432	3296.89
715.619	3167.87
715.807	3194.49
715.994	3200.63
716.182	3307.13
716.369	3294.84
716.556	3139.19
716.744	3053.18
716.931	3145.34
717.119	3139.19
717.306	3079.8
717.493	3059.32
717.681	3108.48
717.868	2997.88
718.055	3010.17
718.242	3116.67
718.43	3124.86
718.617	3057.28
718.804	3217.02
718.991	3059.32
719.179	3104.38
719.366	2920.06
719.553	2934.4
719.74	3122.81
719.927	3110.52
720.114	2899.58
720.301	2963.07
720.488	2985.6
720.676	2971.26
720.863	2854.53
721.05	3147.39
721.237	2819.71
721.424	2926.21
721.611	3047.04
721.798	2821.76
721.985	3001.98
722.172	2860.67
722.358	2858.62
722.545	2770.56
722.732	2764.42
722.919	2934.4
723.106	2780.8
723.293	2752.13
723.48	2887.29
723.667	2780.8
723.853	2733.7
724.04	2852.48
724.227	2791.04
724.414	2750.08
724.6	2750.08
724.787	2674.31
724.974	2768.51
725.161	2764.42
725.347	2768.51
725.534	2721.41
725.72	2684.55
725.907	2719.36
726.094	2655.87
726.28	2809.47
726.467	2600.58
726.653	2680.45
726.84	2606.72
727.027	2739.84
727.213	2539.14
727.4	2590.34
727.586	2625.15
727.773	2662.02
727.959	2619.01
728.145	2623.11
728.332	2668.16
728.518	2545.28
728.705	2594.44
728.891	2551.43
729.077	2625.15
729.264	2588.29
729.45	2518.66
729.636	2553.48
729.823	2500.23
730.009	2569.86
730.195	2576
730.382	2391.69
730.568	2569.86
730.754	2451.08
730.94	2631.3
731.126	2479.75
731.313	2520.71
731.499	2576
731.685	2457.22
731.871	2430.6
732.057	2438.79
732.243	2494.08
732.429	2363.01
732.615	2434.69
732.801	2467.46
732.987	2360.97
733.173	2467.46
733.359	2363.01
733.545	2461.32
733.731	2303.62
733.917	2416.26
734.103	2492.04
734.289	2277
734.475	2403.97
734.661	2424.45
734.847	2489.99
735.033	2324.1
735.219	2473.6
735.404	2303.62
735.59	2309.77
735.776	2293.38
735.962	2381.45
736.148	2299.53
736.333	2309.77
736.519	2193.03
736.705	2387.59
736.89	2344.58
737.076	2174.6
737.262	2307.72
737.447	2281.1
737.633	2375.3
737.819	2244.23
738.004	2221.7
738.19	2231.94
738.375	2186.89
738.561	2145.93
738.747	2217.61
738.932	2178.7
739.118	2250.38
739.303	2211.46
739.489	2168.46
739.674	2211.46
739.859	2188.94
740.045	2184.84
740.23	2188.94
740.416	2049.68
740.601	2043.53
740.786	2049.68
740.972	2047.63
741.157	2008.72
741.342	1990.28
741.528	2111.11
741.713	2078.35
741.898	1988.24
742.084	2035.34
742.269	2029.2
742.454	1969.8
742.639	2092.68
742.824	2145.93
743.01	2008.72
743.195	2027.15
743.38	1969.8
743.565	1896.08
743.75	1947.28
743.935	1947.28
744.12	2057.87
744.305	1869.45
744.49	1988.24
744.675	2014.86
744.86	1801.87
745.045	1986.19
745.23	1871.5
745.415	1932.94
745.6	1937.04
745.785	1683.09
745.97	1896.08
746.155	1822.35
746.34	1808.02
746.525	1736.34
746.71	1826.45
746.895	1756.82
747.079	1781.39
747.264	1652.37
747.449	1709.71
747.634	1797.78
747.819	1644.18
748.003	1672.85
748.188	1691.28
748.373	1717.9
748.557	1783.44
748.742	1707.66
748.927	1744.53
749.111	1652.37
749.296	1562.26
749.481	1693.33
749.665	1650.32
749.85	1549.97
750.034	1617.55
750.219	1597.07
750.404	1619.6
750.588	1590.93
750.773	1463.96
750.957	1484.44
751.141	1558.16
751.326	1552.02
751.51	1470.1
751.695	1519.25
751.879	1431.19
752.064	1543.83
752.248	1574.55
752.432	1447.57
752.617	1484.44
752.801	1408.66
752.985	1457.81
753.17	1429.14
753.354	1437.33
753.538	1394.33
753.722	1347.22
753.907	1308.31
754.091	1410.71
754.275	1365.65
754.459	1345.17
754.643	1394.33
754.828	1345.17
755.012	1257.11
755.196	1332.89
755.38	1287.83
755.564	1343.13
755.748	1326.74
755.932	1304.21
756.116	1306.26
756.3	1232.54
756.484	1242.78
756.668	1253.02
756.852	1267.35
757.036	1207.96
757.22	1263.26
757.404	1189.53
757.588	1289.88
757.772	1207.96
757.956	1207.96
758.14	1158.81
758.323	1169.05
758.507	1142.43
758.691	1074.84
758.875	1212.06
759.059	1169.05
759.242	1126.04
759.426	1091.23
759.61	1093.27
759.794	968.35
759.977	1103.51
760.161	1152.67
760.345	1062.55
760.528	1074.84
760.712	1054.36
760.895	951.96
761.079	1019.55
761.263	1050.27
761.446	958.11
761.63	1054.36
761.813	1076.89
761.997	1044.12
762.18	980.64
762.364	1011.36
762.547	968.35
762.731	1052.31
762.914	954.01
763.098	947.87
763.281	999.07
763.464	990.88
763.648	956.06
763.831	976.54
764.015	872.09
764.198	951.96
764.381	906.91
764.564	966.3
764.748	972.44
764.931	982.68
765.114	943.77
765.297	1048.22
765.481	935.58
765.664	937.63
765.847	908.96
766.03	956.06
766.213	863.9
766.397	870.05
766.58	925.34
766.763	921.24
766.946	935.58
767.129	824.99
767.312	929.44
767.495	884.38
767.678	915.1
767.861	847.52
768.044	964.25
768.227	933.53
768.41	894.62
768.593	882.33
768.776	851.61
768.959	861.85
769.142	855.71
769.324	835.23
769.507	872.09
769.69	994.97
769.873	855.71
770.056	847.52
770.239	884.38
770.421	863.9
770.604	822.94
770.787	781.98
770.97	788.13
771.152	796.32
771.335	839.33
771.518	761.5
771.7	761.5
771.883	837.28
772.066	693.92
772.248	784.03
772.431	734.88
772.613	837.28
772.796	734.88
772.978	820.89
773.161	722.59
773.343	722.59
773.526	738.98
773.708	716.45
773.891	741.02
774.073	712.35
774.256	781.98
774.438	734.88
774.621	769.69
774.803	779.93
774.985	650.91
775.168	661.15
775.35	716.45
775.532	683.68
775.715	595.62
775.897	732.83
776.079	634.53
776.261	698.02
776.444	685.73
776.626	599.71
776.808	702.11
776.99	675.49
777.173	673.44
777.355	650.91
777.537	605.86
777.719	638.62
777.901	628.39
778.083	638.62
778.265	564.9
778.447	659.1
778.629	593.57
778.811	638.62
778.993	585.38
779.175	616.1
779.357	597.67
779.539	591.52
779.721	566.95
779.903	618.15
780.085	560.8
780.267	669.34
780.449	534.18
780.631	532.13
780.812	609.95
780.994	550.56
781.176	564.9
781.358	544.42
781.54	450.21
781.721	583.33
781.903	528.03
782.085	480.93
782.267	521.89
782.448	470.69
782.63	427.68
782.812	566.95
782.993	583.33
783.175	560.8
783.357	517.79
783.538	487.08
783.72	538.27
783.901	485.03
784.083	442.02
784.264	452.26
784.446	415.4
784.627	464.55
784.809	554.66
784.99	454.31
785.172	460.45
785.353	394.92
785.535	382.63
785.716	403.11
785.897	378.53
786.079	429.73
786.26	442.02
786.441	560.8
786.623	429.73
786.804	454.31
786.985	433.83
787.167	358.05
787.348	382.63
787.529	464.55
787.71	478.88
787.891	433.83
788.073	382.63
788.254	452.26
788.435	390.82
788.616	405.16
788.797	425.64
788.978	382.63
789.159	399.01
789.34	399.01
789.522	347.81
789.703	423.59
789.884	384.68
790.065	284.33
790.246	364.2
790.427	319.14
790.607	300.71
790.788	442.02
790.969	288.42
791.15	341.67
791.331	286.37
791.512	345.77
791.693	325.29
791.874	341.67
792.054	323.24
792.235	374.44
792.416	372.39
792.597	306.85
792.778	294.57
792.958	325.29
793.139	341.67
793.32	261.8
793.5	272.04
793.681	368.29
793.862	296.61
794.042	300.71
794.223	241.32
794.404	349.86
794.584	280.23
794.765	304.81
794.945	321.19
795.126	237.22
795.306	298.66
795.487	300.71
795.667	276.13
795.848	337.57
796.028	286.37
796.209	308.9
796.389	294.57
796.57	278.18
796.75	310.95
796.93	272.04
797.111	286.37
797.291	302.76
797.471	235.18
797.652	280.23
797.832	362.15
798.012	337.57
798.192	235.18
798.373	247.46
798.553	261.8
798.733	216.74
798.913	269.99
799.093	218.79
799.274	222.89
799.454	247.46
799.634	265.89
799.814	284.33
799.994	368.29
800.174	239.27
800.354	306.85
800.534	247.46
800.714	290.47
800.894	267.94
801.074	235.18
801.254	276.13
801.434	265.89
801.614	181.93
801.794	222.89
801.974	620.19
802.154	186.02
802.334	179.88
802.514	179.88
802.693	323.24
802.873	179.88
803.053	261.8
803.233	235.18
803.413	257.7
803.592	171.69
803.772	210.6
803.952	237.22
804.131	194.22
804.311	237.22
804.491	272.04
804.67	183.98
804.85	200.36
805.03	243.37
805.209	190.12
805.389	147.11
805.568	179.88
805.748	161.45
805.928	212.65
806.107	233.13
806.287	231.08
806.466	196.26
806.646	210.6
806.825	134.82
807.004	169.64
807.184	294.57
807.363	231.08
807.543	204.46
807.722	177.83
807.901	192.17
808.081	202.41
808.26	161.45
808.439	85.67
808.619	196.26
808.798	143.02
808.977	147.11
809.156	175.78
809.336	183.98
809.515	161.45
809.694	130.73
809.873	157.35
810.052	216.74
810.231	181.93
810.411	173.74
810.59	190.12
810.769	263.85
810.948	169.64
811.127	108.2
811.306	216.74
811.485	169.64
811.664	208.55
811.843	198.31
812.022	224.94
812.201	159.4
812.38	173.74
812.559	259.75
812.737	251.56
812.916	124.58
813.095	143.02
813.274	147.11
813.453	233.13
813.632	169.64
813.811	222.89
813.989	52.91
814.168	220.84
814.347	122.54
814.526	140.97
814.704	159.4
814.883	226.98
815.062	130.73
815.24	157.35
815.419	61.1
815.598	130.73
815.776	114.34
815.955	181.93
816.133	145.06
816.312	120.49
816.49	126.63
816.669	163.5
816.847	163.5
817.026	159.4
817.204	165.54
817.383	73.39
817.561	165.54
817.74	179.88
817.918	204.46
818.097	157.35
818.275	169.64
818.453	161.45
818.632	153.26
818.81	93.87
818.988	91.82
819.167	161.45
819.345	114.34
819.523	110.25
819.701	210.6
819.879	169.64
820.058	145.06
820.236	112.3
820.414	50.86
820.592	59.05
820.77	147.11
820.948	93.87
821.127	214.7
821.305	126.63
821.483	128.68
821.661	200.36
821.839	149.16
822.017	110.25
822.195	179.88
822.373	108.2
822.551	153.26
822.729	145.06
822.907	114.34
823.085	165.54
823.262	110.25
823.44	157.35
823.618	106.15
823.796	102.06
823.974	71.34
824.152	65.19
824.329	102.06
824.507	120.49
824.685	120.49
824.863	87.72
825.04	118.44
825.218	67.24
825.396	122.54
825.574	114.34
825.751	102.06
825.929	114.34
826.107	91.82
826.284	118.44
826.462	93.87
826.639	79.53
826.817	100.01
826.994	126.63
827.172	93.87
827.349	128.68
827.527	48.81
827.704	120.49
827.882	-2.39
828.059	136.87
828.237	42.67
828.414	81.58
828.591	106.15
828.769	42.67
828.946	85.67
829.124	63.15
829.301	79.53
829.478	54.95
829.655	34.47
829.833	130.73
830.01	75.43
830.187	100.01
830.364	75.43
830.542	95.91
830.719	73.39
830.896	91.82
831.073	136.87
831.25	126.63
831.427	112.3
831.604	52.91
831.782	40.62
831.959	169.64
832.136	108.2
832.313	110.25
832.49	124.58
832.667	120.49
832.844	120.49
833.021	120.49
833.198	97.96
833.374	114.34
833.551	102.06
833.728	20.14
833.905	198.31
834.082	114.34
834.259	16.04
834.436	77.48
834.612	36.52
834.789	20.14
834.966	7.85
835.143	147.11
835.319	89.77
835.496	100.01
835.673	57
835.85	63.15
836.026	130.73
836.203	112.3
836.38	11.95
836.556	22.19
836.733	87.72
836.909	134.82
837.086	95.91
837.262	136.87
837.439	93.87
837.616	18.09
837.792	81.58
837.968	102.06
838.145	46.76
838.321	130.73
838.498	75.43
838.674	75.43
838.851	81.58
839.027	134.82
839.203	67.24
839.38	140.97
839.556	112.3
839.732	118.44
839.909	95.91
840.085	77.48
840.261	116.39
840.437	122.54
840.614	54.95
840.79	93.87
840.966	75.43
841.142	114.34
841.318	-18.77
841.494	77.48
841.671	-4.44
841.847	24.23
842.023	77.48
842.199	57
842.375	93.87
842.551	46.76
842.727	3.75
842.903	122.54
843.079	95.91
843.255	59.05
843.431	110.25
843.607	61.1
843.783	-0.34
843.959	85.67
844.134	26.28
844.31	46.76
844.486	32.43
844.662	89.77
844.838	-4.44
845.013	65.19
845.189	48.81
845.365	54.95
845.541	67.24
845.716	104.11
845.892	100.01
846.068	16.04
846.244	-47.44
846.419	13.99
846.595	77.48
846.77	32.43
846.946	50.86
847.122	75.43
847.297	26.28
847.473	75.43
847.648	46.76
847.824	34.47
847.999	24.23
848.175	59.05
848.35	73.39
848.526	-14.68
848.701	46.76
848.876	20.14
849.052	13.99
849.227	44.71
849.403	48.81
849.578	40.62
849.753	44.71
849.929	59.05
850.104	1.71
850.279	46.76
850.454	34.47
850.63	112.3
850.805	95.91
850.98	79.53
851.155	59.05
851.33	18.09
851.505	52.91
851.681	112.3
851.856	-8.53
852.031	83.63
852.206	24.23
852.381	28.33
852.556	71.34
852.731	54.95
852.906	46.76
853.081	122.54
853.256	44.71
853.431	3.75
853.606	-16.73
853.781	-10.58
853.956	-20.82
854.131	-6.49
854.305	73.39
854.48	18.09
854.655	-20.82
854.83	69.29
855.005	13.99
855.18	34.47
855.354	7.85
855.529	26.28
855.704	65.19
855.879	34.47
856.053	7.85
856.228	71.34
856.403	44.71
856.577	7.85
856.752	-4.44
856.926	40.62
857.101	85.67
857.276	143.02
857.45	59.05
857.625	77.48
857.799	28.33
857.974	30.38
858.148	48.81
858.323	38.57
858.497	77.48
858.672	-4.44
858.846	24.23
859.02	44.71
859.195	9.9
859.369	38.57
859.543	-37.2
859.718	36.52
859.892	24.23
860.066	-43.35
860.241	7.85
860.415	-2.39
860.589	-0.34
860.763	63.15
860.938	11.95
861.112	93.87
861.286	63.15
861.46	81.58
861.634	-22.87
861.808	5.8
861.982	32.43
862.157	38.57
862.331	24.23
862.505	3.75
862.679	63.15
862.853	48.81
863.027	61.1
863.201	73.39
863.375	28.33
863.549	-55.64
863.722	-29.01
863.896	20.14
864.07	7.85
864.244	89.77
864.418	69.29
864.592	13.99
864.766	26.28
864.939	-33.11
865.113	38.57
865.287	52.91
865.461	-16.73
865.634	-2.39
865.808	-33.11
865.982	-14.68
866.156	11.95
866.329	69.29
866.503	63.15
866.676	28.33
866.85	-4.44
867.024	11.95
867.197	7.85
867.371	1.71
867.544	22.19
867.718	-26.96
867.891	91.82
868.065	24.23
868.238	-18.77
868.412	52.91
868.585	34.47
868.759	54.95
868.932	-4.44
869.105	30.38
869.279	11.95
869.452	16.04
869.625	46.76
869.799	-127.32
869.972	-24.92
870.145	32.43
870.319	-39.25
870.492	36.52
870.665	26.28
870.838	-20.82
871.011	-4.44
871.185	-18.77
871.358	-14.68
871.531	36.52
871.704	-6.49
871.877	106.15
872.05	-0.34
872.223	-33.11
872.396	44.71
872.569	9.9
872.742	-61.78
872.915	83.63
873.088	63.15
873.261	-10.58
873.434	52.91
873.607	54.95
873.78	9.9
873.953	42.67
874.126	20.14
874.299	52.91
874.471	20.14
874.644	-16.73
874.817	22.19
874.99	108.2
875.163	44.71
875.335	50.86
875.508	71.34
875.681	116.39
875.853	59.05
876.026	59.05
876.199	44.71
876.371	44.71
876.544	118.44
876.717	65.19
876.889	22.19
877.062	32.43
877.234	7.85
877.407	87.72
877.579	-18.77
877.752	-22.87
877.924	22.19
878.097	50.86
878.269	24.23
878.442	44.71
878.614	13.99
878.786	11.95
878.959	38.57
879.131	48.81
879.303	28.33
879.476	54.95
879.648	52.91
879.82	5.8
879.993	5.8
880.165	24.23
880.337	52.91
880.509	9.9
880.681	5.8
880.854	16.04
881.026	69.29
881.198	59.05
881.37	50.86
881.542	44.71
881.714	30.38
881.886	26.28
882.058	65.19
882.23	69.29
882.402	87.72
882.574	50.86
882.746	26.28
882.918	59.05
883.09	46.76
883.262	48.81
883.434	-45.4
883.606	20.14
883.778	7.85
883.95	46.76
884.122	13.99
884.293	36.52
884.465	75.43
884.637	36.52
884.809	-26.96
884.98	52.91
885.152	32.43
885.324	16.04
885.496	11.95
885.667	-6.49
885.839	20.14
886.011	93.87
886.182	46.76
886.354	-6.49
886.525	24.23
886.697	20.14
886.869	5.8
887.04	1.71
887.212	-18.77
887.383	-4.44
887.555	-4.44
887.726	-16.73
887.897	38.57
888.069	100.01
888.24	24.23
888.412	32.43
888.583	75.43
888.754	-10.58
888.926	-14.68
889.097	16.04
889.268	-59.73
889.44	-14.68
889.611	22.19
889.782	40.62
889.953	-57.68
890.125	143.02
890.296	95.91
890.467	9.9
890.638	44.71
890.809	-12.63
890.98	38.57
891.151	22.19
891.323	87.72
891.494	-0.34
891.665	-8.53
891.836	-0.34
892.007	-18.77
892.178	3.75
892.349	52.91
892.52	28.33
892.691	34.47
892.862	-37.2
893.032	61.1
893.203	16.04
893.374	9.9
893.545	95.91
893.716	-10.58
893.887	-41.3
894.057	34.47
894.228	36.52
894.399	-72.02
894.57	79.53
894.74	-67.92
894.911	63.15
895.082	7.85
895.253	48.81
895.423	-43.35
895.594	-0.34
895.764	38.57
895.935	-14.68
896.106	-31.06
896.276	83.63
896.447	-8.53
896.617	34.47
896.788	13.99
896.958	71.34
897.129	-55.64
897.299	50.86
897.47	18.09
897.64	-10.58
897.81	71.34
897.981	-29.01
898.151	11.95
898.322	93.87
898.492	50.86
898.662	83.63
898.832	63.15
899.003	-10.58
899.173	36.52
899.343	-29.01
899.513	-20.82
