Data from USB4F104151__90__12-37-06-991.txt Node

Date: Fri Mar 14 12:37:06 EDT 2025
User: louis
Spectrometer: USB4F10415
Trigger mode: 4
Integration Time (sec): 2.000000E-2
Scans to average: 1
Electric dark correction enabled: true
Nonlinearity correction enabled: false
Boxcar width: 0
XAxis mode: Wavelengths
Number of Pixels in Spectrum: 3648
>>>>>Begin Spectral Data<<<<<
178.204	-59.73
178.424	-59.73
178.644	-59.73
178.864	-67.92
179.084	-84.31
179.304	-51.54
179.524	24.23
179.744	-24.92
179.964	9.9
180.184	52.91
180.404	40.62
180.624	3.75
180.844	-14.68
181.064	-2.39
181.283	-31.06
181.503	13.99
181.723	-20.82
181.943	-24.92
182.163	73.39
182.383	-14.68
182.602	-16.73
182.822	67.24
183.042	42.67
183.262	-14.68
183.482	73.39
183.701	-33.11
183.921	-6.49
184.141	-49.49
184.361	-20.82
184.58	104.11
184.8	-49.49
185.02	69.29
185.239	69.29
185.459	67.24
185.679	116.39
185.898	-33.11
186.118	57
186.338	16.04
186.557	13.99
186.777	24.23
186.997	65.19
187.216	-59.73
187.436	30.38
187.655	24.23
187.875	57
188.095	-4.44
188.314	46.76
188.534	95.91
188.753	54.95
188.973	-2.39
189.192	-12.63
189.412	1.71
189.631	-24.92
189.851	-78.16
190.07	46.76
190.29	22.19
190.509	-24.92
190.729	16.04
190.948	3.75
191.168	87.72
191.387	110.25
191.607	20.14
191.826	89.77
192.045	75.43
192.265	36.52
192.484	18.09
192.704	26.28
192.923	71.34
193.142	52.91
193.362	5.8
193.581	52.91
193.8	11.95
194.02	-14.68
194.239	42.67
194.458	52.91
194.678	-4.44
194.897	46.76
195.116	102.06
195.335	63.15
195.555	7.85
195.774	48.81
195.993	110.25
196.212	28.33
196.432	-29.01
196.651	11.95
196.87	42.67
197.089	87.72
197.308	44.71
197.528	44.71
197.747	24.23
197.966	34.47
198.185	102.06
198.404	40.62
198.623	73.39
198.842	26.28
199.062	44.71
199.281	104.11
199.5	34.47
199.719	48.81
199.938	59.05
200.157	120.49
200.376	18.09
200.595	118.44
200.814	46.76
201.033	-43.35
201.252	67.24
201.471	9.9
201.69	97.96
201.909	71.34
202.128	108.2
202.347	-26.96
202.566	57
202.785	-78.16
203.004	75.43
203.223	138.92
203.442	-22.87
203.661	28.33
203.879	-10.58
204.098	40.62
204.317	36.52
204.536	22.19
204.755	93.87
204.974	71.34
205.193	-0.34
205.411	-18.77
205.63	54.95
205.849	36.52
206.068	20.14
206.287	42.67
206.505	7.85
206.724	32.43
206.943	-22.87
207.162	52.91
207.381	-8.53
207.599	34.47
207.818	16.04
208.037	13.99
208.255	32.43
208.474	9.9
208.693	-24.92
208.911	71.34
209.13	57
209.349	30.38
209.567	63.15
209.786	22.19
210.005	42.67
210.223	52.91
210.442	11.95
210.661	69.29
210.879	-0.34
211.098	20.14
211.316	30.38
211.535	22.19
211.753	36.52
211.972	48.81
212.191	-8.53
212.409	52.91
212.628	11.95
212.846	22.19
213.065	-26.96
213.283	38.57
213.502	40.62
213.72	28.33
213.938	-16.73
214.157	-16.73
214.375	-4.44
214.594	50.86
214.812	16.04
215.031	34.47
215.249	52.91
215.467	34.47
215.686	9.9
215.904	77.48
216.122	7.85
216.341	69.29
216.559	24.23
216.778	46.76
216.996	71.34
217.214	16.04
217.432	36.52
217.651	-12.63
217.869	32.43
218.087	52.91
218.306	67.24
218.524	102.06
218.742	-4.44
218.96	85.67
219.179	18.09
219.397	71.34
219.615	81.58
219.833	59.05
220.051	40.62
220.27	26.28
220.488	54.95
220.706	69.29
220.924	-6.49
221.142	89.77
221.36	-29.01
221.578	-33.11
221.796	28.33
222.015	116.39
222.233	67.24
222.451	11.95
222.669	57
222.887	57
223.105	-37.2
223.323	28.33
223.541	-41.3
223.759	-20.82
223.977	91.82
224.195	50.86
224.413	5.8
224.631	5.8
224.849	-2.39
225.067	48.81
225.285	75.43
225.503	-45.4
225.721	75.43
225.939	52.91
226.157	38.57
226.375	83.63
226.592	32.43
226.81	30.38
227.028	128.68
227.246	95.91
227.464	71.34
227.682	44.71
227.9	36.52
228.117	73.39
228.335	65.19
228.553	30.38
228.771	85.67
228.989	89.77
229.206	20.14
229.424	1.71
229.642	34.47
229.86	-0.34
230.077	-2.39
230.295	24.23
230.513	22.19
230.731	75.43
230.948	54.95
231.166	44.71
231.384	-0.34
231.601	-31.06
231.819	77.48
232.037	48.81
232.254	24.23
232.472	30.38
232.689	18.09
232.907	69.29
233.125	50.86
233.342	-8.53
233.56	59.05
233.777	13.99
233.995	36.52
234.213	48.81
234.43	42.67
234.648	13.99
234.865	-4.44
235.083	104.11
235.3	18.09
235.518	57
235.735	61.1
235.953	118.44
236.17	73.39
236.388	67.24
236.605	-26.96
236.822	69.29
237.04	42.67
237.257	102.06
237.475	65.19
237.692	13.99
237.909	-14.68
238.127	48.81
238.344	1.71
238.562	91.82
238.779	-0.34
238.996	22.19
239.214	108.2
239.431	13.99
239.648	65.19
239.865	65.19
240.083	7.85
240.3	-31.06
240.517	18.09
240.735	20.14
240.952	52.91
241.169	63.15
241.386	48.81
241.603	59.05
241.821	-24.92
242.038	26.28
242.255	44.71
242.472	-4.44
242.689	143.02
242.907	77.48
243.124	110.25
243.341	-14.68
243.558	22.19
243.775	-16.73
243.992	85.67
244.209	73.39
244.426	81.58
244.643	52.91
244.86	36.52
245.078	83.63
245.295	87.72
245.512	38.57
245.729	18.09
245.946	79.53
246.163	-0.34
246.38	52.91
246.597	77.48
246.814	63.15
247.031	11.95
247.248	75.43
247.464	-10.58
247.681	44.71
247.898	28.33
248.115	50.86
248.332	9.9
248.549	50.86
248.766	97.96
248.983	63.15
249.2	91.82
249.417	16.04
249.633	91.82
249.85	75.43
250.067	65.19
250.284	87.72
250.501	30.38
250.717	95.91
250.934	5.8
251.151	36.52
251.368	63.15
251.585	9.9
251.801	-22.87
252.018	28.33
252.235	63.15
252.451	-0.34
252.668	-18.77
252.885	114.34
253.102	63.15
253.318	30.38
253.535	38.57
253.752	7.85
253.968	-6.49
254.185	32.43
254.401	57
254.618	67.24
254.835	75.43
255.051	44.71
255.268	48.81
255.484	73.39
255.701	28.33
255.917	75.43
256.134	28.33
256.351	24.23
256.567	75.43
256.784	-55.64
257	36.52
257.217	50.86
257.433	57
257.65	30.38
257.866	13.99
258.082	34.47
258.299	97.96
258.515	63.15
258.732	36.52
258.948	48.81
259.165	-6.49
259.381	83.63
259.597	63.15
259.814	71.34
260.03	46.76
260.246	46.76
260.463	5.8
260.679	54.95
260.895	3.75
261.112	85.67
261.328	-12.63
261.544	59.05
261.761	46.76
261.977	38.57
262.193	-31.06
262.409	20.14
262.626	54.95
262.842	89.77
263.058	50.86
263.274	24.23
263.49	63.15
263.707	50.86
263.923	54.95
264.139	5.8
264.355	11.95
264.571	140.97
264.787	36.52
265.004	112.3
265.22	-51.54
265.436	42.67
265.652	65.19
265.868	40.62
266.084	-26.96
266.3	63.15
266.516	18.09
266.732	112.3
266.948	50.86
267.164	3.75
267.38	7.85
267.596	83.63
267.812	57
268.028	75.43
268.244	11.95
268.46	61.1
268.676	-41.3
268.892	52.91
269.108	-16.73
269.324	59.05
269.54	-16.73
269.756	63.15
269.972	30.38
270.188	69.29
270.403	-0.34
270.619	-41.3
270.835	91.82
271.051	32.43
271.267	30.38
271.483	-12.63
271.698	85.67
271.914	24.23
272.13	16.04
272.346	-16.73
272.562	9.9
272.777	7.85
272.993	26.28
273.209	-0.34
273.425	1.71
273.64	-61.78
273.856	59.05
274.072	-0.34
274.287	48.81
274.503	42.67
274.719	95.91
274.934	30.38
275.15	5.8
275.366	5.8
275.581	22.19
275.797	38.57
276.012	34.47
276.228	71.34
276.444	22.19
276.659	46.76
276.875	28.33
277.09	20.14
277.306	-29.01
277.521	63.15
277.737	42.67
277.952	89.77
278.168	89.77
278.383	81.58
278.599	32.43
278.814	52.91
279.03	11.95
279.245	116.39
279.461	40.62
279.676	61.1
279.892	13.99
280.107	42.67
280.322	-31.06
280.538	44.71
280.753	-8.53
280.969	46.76
281.184	54.95
281.399	81.58
281.615	50.86
281.83	-4.44
282.045	38.57
282.26	1.71
282.476	50.86
282.691	67.24
282.906	34.47
283.122	13.99
283.337	11.95
283.552	16.04
283.767	63.15
283.983	79.53
284.198	38.57
284.413	16.04
284.628	30.38
284.843	63.15
285.058	-16.73
285.274	50.86
285.489	16.04
285.704	5.8
285.919	-18.77
286.134	38.57
286.349	38.57
286.564	3.75
286.779	138.92
286.995	54.95
287.21	63.15
287.425	46.76
287.64	44.71
287.855	50.86
288.07	30.38
288.285	44.71
288.5	57
288.715	69.29
288.93	-33.11
289.145	-12.63
289.36	54.95
289.575	-39.25
289.79	110.25
290.004	102.06
290.219	116.39
290.434	110.25
290.649	52.91
290.864	61.1
291.079	26.28
291.294	42.67
291.509	11.95
291.724	69.29
291.938	83.63
292.153	30.38
292.368	67.24
292.583	-47.44
292.798	87.72
293.012	75.43
293.227	52.91
293.442	18.09
293.657	7.85
293.871	71.34
294.086	22.19
294.301	149.16
294.516	26.28
294.73	50.86
294.945	9.9
295.16	95.91
295.374	34.47
295.589	54.95
295.804	97.96
296.018	52.91
296.233	140.97
296.447	-33.11
296.662	69.29
296.877	61.1
297.091	7.85
297.306	38.57
297.52	26.28
297.735	44.71
297.949	65.19
298.164	42.67
298.378	13.99
298.593	44.71
298.807	-18.77
299.022	36.52
299.236	32.43
299.451	7.85
299.665	83.63
299.88	63.15
300.094	-35.16
300.309	52.91
300.523	126.63
300.737	65.19
300.952	57
301.166	13.99
301.381	16.04
301.595	-29.01
301.809	-20.82
302.024	7.85
302.238	3.75
302.452	30.38
302.667	36.52
302.881	63.15
303.095	24.23
303.309	-0.34
303.524	26.28
303.738	73.39
303.952	1.71
304.166	77.48
304.381	24.23
304.595	75.43
304.809	-51.54
305.023	75.43
305.237	26.28
305.452	7.85
305.666	87.72
305.88	22.19
306.094	85.67
306.308	38.57
306.522	124.58
306.736	112.3
306.95	32.43
307.164	-18.77
307.379	79.53
307.593	61.1
307.807	87.72
308.021	22.19
308.235	59.05
308.449	28.33
308.663	18.09
308.877	67.24
309.091	-8.53
309.305	102.06
309.519	-31.06
309.733	120.49
309.947	40.62
310.161	118.44
310.374	42.67
310.588	20.14
310.802	48.81
311.016	120.49
311.23	75.43
311.444	38.57
311.658	24.23
311.872	81.58
312.085	36.52
312.299	77.48
312.513	-2.39
312.727	44.71
312.941	1.71
313.154	67.24
313.368	32.43
313.582	116.39
313.796	73.39
314.009	-18.77
314.223	30.38
314.437	75.43
314.651	71.34
314.864	34.47
315.078	130.73
315.292	9.9
315.505	-2.39
315.719	20.14
315.933	73.39
316.146	132.78
316.36	65.19
316.573	79.53
316.787	42.67
317.001	-8.53
317.214	71.34
317.428	59.05
317.641	-4.44
317.855	24.23
318.068	46.76
318.282	40.62
318.495	18.09
318.709	73.39
318.922	73.39
319.136	38.57
319.349	26.28
319.563	42.67
319.776	13.99
319.99	89.77
320.203	69.29
320.417	87.72
320.63	91.82
320.843	104.11
321.057	38.57
321.27	40.62
321.483	95.91
321.697	104.11
321.91	79.53
322.124	28.33
322.337	59.05
322.55	18.09
322.763	63.15
322.977	24.23
323.19	-63.83
323.403	77.48
323.617	-0.34
323.83	67.24
324.043	151.21
324.256	81.58
324.469	-16.73
324.683	91.82
324.896	81.58
325.109	46.76
325.322	24.23
325.535	52.91
325.748	89.77
325.962	71.34
326.175	48.81
326.388	91.82
326.601	59.05
326.814	34.47
327.027	54.95
327.24	57
327.453	-43.35
327.666	44.71
327.879	61.1
328.092	40.62
328.305	7.85
328.518	71.34
328.731	46.76
328.944	63.15
329.157	89.77
329.37	16.04
329.583	7.85
329.796	-47.44
330.009	22.19
330.222	22.19
330.435	102.06
330.648	91.82
330.861	13.99
331.073	54.95
331.286	108.2
331.499	102.06
331.712	40.62
331.925	108.2
332.138	38.57
332.35	87.72
332.563	22.19
332.776	11.95
332.989	28.33
333.202	71.34
333.414	26.28
333.627	26.28
333.84	26.28
334.053	59.05
334.265	97.96
334.478	59.05
334.691	67.24
334.903	106.15
335.116	63.15
335.329	93.87
335.541	32.43
335.754	108.2
335.966	81.58
336.179	24.23
336.392	24.23
336.604	87.72
336.817	46.76
337.029	93.87
337.242	36.52
337.454	71.34
337.667	79.53
337.88	67.24
338.092	79.53
338.305	32.43
338.517	30.38
338.729	124.58
338.942	28.33
339.154	40.62
339.367	57
339.579	38.57
339.792	24.23
340.004	73.39
340.217	32.43
340.429	83.63
340.641	46.76
340.854	38.57
341.066	-12.63
341.278	75.43
341.491	104.11
341.703	34.47
341.915	-37.2
342.128	57
342.34	73.39
342.552	77.48
342.764	34.47
342.977	48.81
343.189	36.52
343.401	75.43
343.613	22.19
343.826	83.63
344.038	63.15
344.25	61.1
344.462	48.81
344.674	42.67
344.886	77.48
345.099	151.21
345.311	81.58
345.523	-10.58
345.735	48.81
345.947	71.34
346.159	38.57
346.371	85.67
346.583	48.81
346.795	120.49
347.007	46.76
347.219	48.81
347.431	32.43
347.643	120.49
347.855	71.34
348.067	32.43
348.279	16.04
348.491	20.14
348.703	28.33
348.915	36.52
349.127	7.85
349.339	42.67
349.551	63.15
349.763	122.54
349.975	-12.63
350.187	83.63
350.399	97.96
350.61	46.76
350.822	48.81
351.034	104.11
351.246	63.15
351.458	18.09
351.669	57
351.881	134.82
352.093	46.76
352.305	63.15
352.517	83.63
352.728	136.87
352.94	69.29
353.152	63.15
353.363	38.57
353.575	83.63
353.787	30.38
353.999	46.76
354.21	77.48
354.422	38.57
354.633	32.43
354.845	48.81
355.057	28.33
355.268	-8.53
355.48	44.71
355.692	79.53
355.903	24.23
356.115	65.19
356.326	11.95
356.538	120.49
356.749	36.52
356.961	177.83
357.172	61.1
357.384	36.52
357.595	118.44
357.807	71.34
358.018	16.04
358.23	48.81
358.441	87.72
358.653	91.82
358.864	36.52
359.075	87.72
359.287	24.23
359.498	71.34
359.709	77.48
359.921	54.95
360.132	48.81
360.344	69.29
360.555	67.24
360.766	11.95
360.977	-8.53
361.189	83.63
361.4	102.06
361.611	48.81
361.823	54.95
362.034	71.34
362.245	42.67
362.456	20.14
362.667	155.3
362.879	-18.77
363.09	44.71
363.301	67.24
363.512	102.06
363.723	24.23
363.935	52.91
364.146	69.29
364.357	38.57
364.568	122.54
364.779	63.15
364.99	95.91
365.201	26.28
365.412	136.87
365.623	5.8
365.834	18.09
366.045	81.58
366.256	46.76
366.467	114.34
366.678	91.82
366.889	38.57
367.1	1.71
367.311	61.1
367.522	77.48
367.733	46.76
367.944	83.63
368.155	24.23
368.366	79.53
368.577	87.72
368.788	79.53
368.999	-14.68
369.209	44.71
369.42	102.06
369.631	46.76
369.842	61.1
370.053	126.63
370.264	83.63
370.474	44.71
370.685	20.14
370.896	44.71
371.107	112.3
371.317	110.25
371.528	95.91
371.739	85.67
371.95	67.24
372.16	77.48
372.371	32.43
372.582	18.09
372.792	13.99
373.003	130.73
373.214	67.24
373.424	151.21
373.635	85.67
373.846	42.67
374.056	114.34
374.267	69.29
374.477	77.48
374.688	110.25
374.898	100.01
375.109	65.19
375.319	44.71
375.53	77.48
375.74	104.11
375.951	28.33
376.161	36.52
376.372	69.29
376.582	22.19
376.793	93.87
377.003	71.34
377.214	18.09
377.424	-20.82
377.635	75.43
377.845	69.29
378.055	112.3
378.266	57
378.476	112.3
378.686	147.11
378.897	112.3
379.107	102.06
379.317	108.2
379.528	13.99
379.738	61.1
379.948	38.57
380.158	116.39
380.369	54.95
380.579	69.29
380.789	97.96
380.999	77.48
381.21	93.87
381.42	79.53
381.63	83.63
381.84	138.92
382.05	91.82
382.261	57
382.471	112.3
382.681	57
382.891	128.68
383.101	85.67
383.311	79.53
383.521	81.58
383.731	67.24
383.941	102.06
384.151	77.48
384.361	63.15
384.571	124.58
384.781	87.72
384.991	110.25
385.201	73.39
385.411	44.71
385.621	91.82
385.831	34.47
386.041	79.53
386.251	22.19
386.461	73.39
386.671	61.1
386.881	85.67
387.091	65.19
387.301	102.06
387.511	44.71
387.72	52.91
387.93	52.91
388.14	67.24
388.35	116.39
388.56	93.87
388.769	44.71
388.979	89.77
389.189	50.86
389.399	67.24
389.609	57
389.818	114.34
390.028	124.58
390.238	100.01
390.447	100.01
390.657	124.58
390.867	89.77
391.076	120.49
391.286	95.91
391.496	46.76
391.705	52.91
391.915	50.86
392.125	132.78
392.334	91.82
392.544	73.39
392.753	36.52
392.963	16.04
393.172	108.2
393.382	95.91
393.591	169.64
393.801	52.91
394.01	114.34
394.22	106.15
394.429	110.25
394.639	116.39
394.848	38.57
395.058	91.82
395.267	112.3
395.477	89.77
395.686	167.59
395.895	93.87
396.105	161.45
396.314	143.02
396.524	124.58
396.733	81.58
396.942	134.82
397.152	54.95
397.361	91.82
397.57	163.5
397.78	102.06
397.989	128.68
398.198	145.06
398.407	138.92
398.617	63.15
398.826	102.06
399.035	104.11
399.244	128.68
399.453	173.74
399.663	243.37
399.872	149.16
400.081	91.82
400.29	161.45
400.499	122.54
400.708	147.11
400.917	169.64
401.127	151.21
401.336	204.46
401.545	114.34
401.754	183.98
401.963	241.32
402.172	138.92
402.381	163.5
402.59	149.16
402.799	179.88
403.008	188.07
403.217	171.69
403.426	147.11
403.635	138.92
403.844	157.35
404.053	206.5
404.262	147.11
404.471	183.98
404.68	159.4
404.888	198.31
405.097	165.54
405.306	136.87
405.515	200.36
405.724	220.84
405.933	272.04
406.142	216.74
406.35	216.74
406.559	251.56
406.768	329.38
406.977	364.2
407.185	243.37
407.394	267.94
407.603	200.36
407.812	247.46
408.02	276.13
408.229	274.09
408.438	317.09
408.646	241.32
408.855	294.57
409.064	366.25
409.272	351.91
409.481	329.38
409.69	370.34
409.898	337.57
410.107	452.26
410.315	347.81
410.524	372.39
410.733	333.48
410.941	429.73
411.15	487.08
411.358	450.21
411.567	509.6
411.775	536.23
411.984	515.75
412.192	624.29
412.401	593.57
412.609	624.29
412.818	609.95
413.026	675.49
413.234	652.96
413.443	595.62
413.651	700.06
413.86	679.58
414.068	812.7
414.276	706.21
414.485	763.55
414.693	667.3
414.901	872.09
415.11	902.81
415.318	824.99
415.526	927.39
415.734	1019.55
415.943	951.96
416.151	1013.4
416.359	990.88
416.567	1003.16
416.776	1175.19
416.984	1201.82
417.192	1203.86
417.4	1158.81
417.608	1398.42
417.817	1322.65
418.025	1400.47
418.233	1423
418.441	1461.91
418.649	1457.81
418.857	1638.03
419.065	1599.12
419.273	1617.55
419.481	1711.76
419.689	1873.55
419.897	1871.5
420.105	1947.28
420.313	1943.18
420.521	2162.31
420.729	2080.39
420.937	2217.61
421.145	2258.57
421.353	2344.58
421.561	2514.56
421.769	2430.6
421.977	2666.11
422.185	2580.1
422.393	2705.03
422.601	2760.32
422.809	2709.12
423.017	2877.05
423.224	2973.31
423.432	3151.48
423.64	3180.15
423.848	3518.07
424.056	3315.32
424.263	3507.83
424.471	3614.32
424.679	3675.76
424.887	3962.48
425.094	3948.14
425.302	3944.05
425.51	4204.14
425.718	4204.14
425.925	4234.86
426.133	4525.67
426.341	4783.71
426.548	4916.83
426.756	5000.8
426.964	5142.11
427.171	5142.11
427.379	5396.06
427.586	5496.41
427.794	5756.5
428.001	6037.07
428.209	6256.2
428.417	6200.91
428.624	6446.66
428.832	6497.86
429.039	6587.97
429.247	6561.35
429.454	7214.65
429.662	7677.49
429.869	6923.84
430.076	7663.16
430.284	7482.94
430.491	7851.57
430.699	8328.75
430.906	8203.82
431.114	8232.49
431.321	8693.29
431.528	8697.38
431.736	9299.48
431.943	9702.93
432.15	9330.2
432.358	9500.19
432.565	10210.83
432.772	10133.01
432.979	10647.05
433.187	10837.51
433.394	10903.04
433.601	11533.82
433.808	11658.74
434.016	11439.61
434.223	12074.48
434.43	12885.48
434.637	12430.83
434.844	13303.26
435.052	13532.64
435.259	13374.94
435.466	13618.65
435.673	13569.5
435.88	14419.41
436.087	15015.37
436.294	15017.41
436.501	14765.51
436.708	15056.32
436.915	15803.83
437.122	16307.63
437.329	16297.39
437.537	16799.15
437.743	17128.87
437.95	17071.53
438.157	17884.57
438.364	18517.39
438.571	18417.04
438.778	18511.25
438.985	19981.69
439.192	19154.31
439.399	20039.03
439.606	19651.97
439.813	20583.79
440.02	21955.93
440.227	21441.89
440.433	21134.7
440.64	21890.4
440.847	21810.53
441.054	22629.71
441.261	24040.76
441.467	23287.11
441.674	24257.85
441.881	25087.28
442.088	25185.58
442.294	24620.34
442.501	24997.17
442.708	25922.85
442.914	26756.37
443.121	27841.79
443.328	27452.68
443.534	29119.73
443.741	28112.13
443.948	27751.68
444.154	30020.83
444.361	30221.53
444.568	30153.95
444.774	30235.87
444.981	30395.61
445.187	31384.78
445.394	32603.32
445.6	32238.78
445.807	35243.15
446.013	33594.54
446.22	34432.16
446.426	35452.05
446.633	35923.08
446.839	37188.72
447.046	35579.02
447.252	37291.12
447.459	38022.25
447.665	37459.06
447.871	39208.02
448.078	41006.14
448.284	39210.07
448.491	40154.18
448.697	41641.01
448.903	42583.07
449.11	42548.26
449.316	41657.39
449.522	42791.97
449.728	43914.25
449.935	44135.43
450.141	43975.69
450.347	44844.03
450.553	43510.8
450.76	44571.65
450.966	45292.54
451.172	45057.02
451.378	46220.27
451.584	45556.72
451.791	46318.57
451.997	45939.69
452.203	46828.51
452.409	47522.77
452.615	46785.5
452.821	45480.95
453.027	44397.57
453.233	46844.9
453.44	45347.83
453.646	45728.75
453.852	46009.32
454.058	46388.2
454.264	44979.2
454.47	46074.86
454.676	44946.43
454.882	46664.67
455.088	42716.19
455.294	43246.61
455.5	44000.27
455.705	44184.58
455.911	42458.15
456.117	41780.27
456.323	41008.18
456.529	39253.08
456.735	40707.13
456.941	40025.16
457.147	39085.14
457.352	38114.41
457.558	37426.29
457.764	37809.26
457.97	36824.18
458.176	36535.42
458.381	35945.61
458.587	34342.05
458.793	34163.87
458.999	32543.93
459.204	34972.82
459.41	33883.3
459.616	31538.38
459.821	31675.59
460.027	31612.1
460.233	30702.81
460.438	29447.4
460.644	30020.83
460.85	28554.49
461.055	28269.82
461.261	28028.16
461.466	26230.04
461.672	25161
461.878	26690.84
462.083	24966.45
462.289	24339.77
462.494	24343.86
462.7	22990.16
462.905	22734.16
463.111	23815.49
463.316	23405.89
463.522	23020.88
463.727	23086.41
463.932	22875.47
464.138	22746.45
464.343	22936.91
464.549	22203.74
464.754	23031.12
464.959	22789.45
465.165	22705.49
465.37	21677.41
465.575	21026.15
465.781	21929.31
465.986	22009.18
466.191	21210.47
466.397	21161.32
466.602	19815.8
466.807	20659.57
467.012	20757.87
467.218	20505.97
467.423	20188.53
467.628	20401.52
467.833	21521.76
468.038	20186.49
468.244	20008.31
468.449	20637.04
468.654	19873.15
468.859	20036.98
469.064	19774.84
469.269	19002.76
469.474	19221.89
469.679	19467.65
469.885	18795.92
470.09	19174.79
470.295	19135.88
470.5	18662.8
470.705	18531.73
470.91	18218.39
471.115	18091.41
471.32	18308.5
471.525	18142.61
471.73	17708.44
471.935	17663.39
472.139	17108.39
472.344	17515.94
472.549	17348
472.754	17085.86
472.959	16809.39
473.164	16561.58
473.369	16111.03
473.574	16700.84
473.778	16731.56
473.983	16555.44
474.188	16240.05
474.393	15637.95
474.598	15687.1
474.802	15369.66
475.007	15551.93
475.212	15584.7
475.417	15101.38
475.621	14902.73
475.826	15023.56
476.031	14622.16
476.235	14380.5
476.44	14906.82
476.645	14317.01
476.849	14333.39
477.054	14020.05
477.259	14050.77
477.463	13884.89
477.668	13858.26
477.872	13620.7
478.077	13342.18
478.282	13047.27
478.486	13082.08
478.691	13196.77
478.895	12854.76
479.1	12678.63
479.304	12748.26
479.509	12512.75
479.713	12768.74
479.918	12393.97
480.122	12238.32
480.326	12334.57
480.531	12457.45
480.735	12250.61
480.94	12105.2
481.144	12463.6
481.348	12076.53
481.553	12281.33
481.757	11888.12
481.961	12078.58
482.166	12250.61
482.37	12180.98
482.574	11959.8
482.778	11789.81
482.983	12193.26
483.187	11867.64
483.391	12142.07
483.595	11861.49
483.8	11539.96
484.004	11943.41
484.208	12203.5
484.412	11861.49
484.616	11859.45
484.821	11841.01
485.025	11716.09
485.229	11789.81
485.433	11826.68
485.637	11769.34
485.841	12027.38
486.045	11867.64
486.249	11937.27
486.453	11832.82
486.657	11834.87
486.861	11828.73
487.065	11482.62
487.269	11873.78
487.473	11761.14
487.677	11978.23
487.881	12074.48
488.085	11965.94
488.289	12094.96
488.493	11908.6
488.697	11988.47
488.901	11943.41
489.105	12090.87
489.309	11943.41
489.512	11818.49
489.716	11867.64
489.92	12041.71
490.124	11798.01
490.328	12199.41
490.531	12039.67
490.735	12310
490.939	12303.85
491.143	12185.07
491.346	12342.77
491.55	12525.04
491.754	12402.16
491.958	12516.84
492.161	12459.5
492.365	12471.79
492.569	12664.3
492.772	12482.03
492.976	12748.26
493.18	12893.67
493.383	12838.37
493.587	12883.43
493.79	12789.22
493.994	12705.26
494.197	13022.69
494.401	13231.58
494.605	13102.56
494.808	13379.04
495.012	13350.37
495.215	13268.45
495.419	13719
495.622	13700.57
495.825	13962.71
496.029	13888.98
496.232	14128.6
496.436	14181.84
496.639	14454.22
496.843	14327.25
497.046	14628.3
497.249	14652.88
497.453	14589.39
497.656	14955.97
497.859	14687.69
498.063	15033.8
498.266	15443.39
498.469	15113.67
498.673	15381.95
498.876	15730.11
499.079	16078.26
499.282	15936.95
499.485	16307.63
499.689	16139.7
499.892	16670.12
500.095	16440.75
500.298	17089.96
500.501	17173.92
500.705	17128.87
500.908	17673.63
501.111	17806.75
501.314	17675.68
501.517	17982.87
501.72	18197.91
501.923	18081.17
502.126	18318.74
502.329	18789.77
502.532	19017.1
502.735	18972.04
502.938	19506.56
503.141	19291.52
503.344	19975.55
503.547	19889.53
503.75	20481.39
503.953	20364.66
504.156	20465.01
504.359	20661.62
504.562	20993.39
504.765	21427.56
504.968	21331.3
505.17	21945.69
505.373	21693.79
505.576	22142.3
505.779	22455.64
505.982	22435.16
506.185	23035.21
506.387	23190.86
506.59	23137.61
506.793	23792.96
506.996	23772.48
507.198	24218.94
507.401	24171.83
507.604	24665.39
507.807	25048.36
508.009	25382.18
508.212	25070.89
508.415	25834.78
508.617	26021.15
508.82	25769.25
509.022	25808.16
509.225	26692.88
509.428	26971.41
509.63	27288.84
509.833	26985.74
510.035	28038.4
510.238	27577.61
510.44	28433.66
510.643	28943.6
510.845	28534.01
511.048	28595.45
511.25	29332.72
511.453	29531.37
511.655	30047.46
511.858	30033.12
512.06	30211.29
512.262	30579.93
512.465	30665.94
512.667	30946.51
512.87	31786.18
513.072	31261.9
513.274	32076.99
513.477	32214.21
513.679	32306.37
513.881	32726.2
514.084	33137.84
514.286	33352.88
514.488	33252.53
514.69	34378.91
514.893	34342.05
515.095	34309.28
515.297	34843.8
515.499	34864.28
515.701	35505.29
515.904	35806.34
516.106	36217.99
516.308	36007.05
516.51	36770.94
516.712	36912.25
516.914	37194.87
517.116	37622.89
517.318	38222.95
517.52	38405.22
517.722	38599.77
517.925	38982.74
518.127	39193.68
518.329	39466.06
518.531	39421.01
518.733	39922.76
518.935	40094.79
519.136	40760.38
519.338	41032.76
519.54	41245.75
519.742	41454.64
519.944	41679.92
520.146	42372.13
520.348	42759.2
520.55	42652.7
520.752	43070.49
520.954	43475.99
521.155	43140.12
521.357	43920.4
521.559	44393.48
521.761	44796.93
521.963	44837.89
522.164	45007.87
522.366	45005.82
522.568	45900.78
522.77	45806.58
522.971	46556.13
523.173	46480.36
523.375	46894.05
523.576	46689.25
523.778	46842.85
523.98	47260.63
524.181	47444.95
524.383	48026.57
524.584	48380.87
524.786	48509.89
524.988	48251.85
525.189	49212.35
525.391	48868.29
525.592	49314.75
525.794	49677.24
525.995	49726.39
526.197	49318.84
526.398	49744.82
526.6	50195.37
526.801	50025.39
527.003	50684.84
527.204	50510.76
527.406	51245.98
527.607	50998.18
527.808	51456.92
528.01	50324.39
528.211	50791.33
528.412	51884.95
528.614	51895.19
528.815	51798.93
529.016	52216.72
529.218	51471.26
529.419	51940.24
529.62	52048.78
529.822	52265.87
530.023	52401.04
530.224	52433.8
530.425	52435.85
530.626	51841.94
530.828	52603.78
531.029	53033.86
531.23	52384.65
531.431	52552.58
531.632	52636.55
531.833	53234.56
532.035	52804.48
532.236	52945.79
532.437	53183.36
532.638	52980.61
532.839	53156.74
533.04	53377.92
533.241	52999.04
533.442	53715.83
533.643	53343.1
533.844	53191.55
534.045	53259.13
534.246	52773.77
534.447	53543.8
534.648	53091.2
534.849	53654.39
535.05	52915.08
535.251	53570.43
535.451	52947.84
535.652	53670.78
535.853	53306.24
536.054	53642.1
536.255	53363.58
536.456	53359.48
536.657	54010.74
536.857	53384.06
537.058	53554.04
537.259	53214.08
537.46	53193.6
537.66	53521.27
537.861	53392.25
538.062	53013.38
538.263	53609.34
538.463	53318.53
538.664	53142.4
538.865	53083.01
539.065	53672.82
539.266	52644.74
539.466	53392.25
539.667	52784.01
539.868	53885.81
540.068	53111.68
540.269	53312.38
540.469	53347.2
540.67	52956.03
540.87	52966.27
541.071	53070.72
541.271	53773.17
541.472	52784.01
541.672	53298.05
541.873	52824.96
542.073	51901.33
542.274	53103.49
542.474	53234.56
542.675	53121.92
542.875	53402.49
543.075	53197.69
543.276	52386.7
543.476	53515.13
543.676	52689.8
543.877	52937.6
544.077	52755.33
544.277	52722.57
544.478	52865.92
544.678	52659.08
544.878	52792.2
545.078	52917.12
545.279	52933.51
545.479	52575.11
545.679	52704.13
545.879	52804.48
546.079	52896.64
546.28	52847.49
546.48	52323.21
546.68	52798.34
546.88	52626.31
547.08	53203.84
547.28	52511.63
547.48	52036.5
547.68	52675.46
547.88	52444.04
548.081	52708.23
548.281	52480.91
548.481	52263.82
548.681	52781.96
548.881	52335.5
549.081	52878.21
549.28	52380.56
549.48	53015.43
549.68	52730.76
549.88	53003.14
550.08	52507.53
550.28	52589.45
550.48	52396.94
550.68	52747.14
550.88	52007.83
551.08	52229.01
551.279	52528.01
551.479	52069.26
551.679	52390.8
551.879	52063.12
552.079	52796.29
552.278	52130.7
552.478	52190.09
552.678	52161.42
552.878	52454.28
553.077	52247.44
553.277	51872.66
553.477	52579.21
553.676	51739.54
553.876	51757.97
554.076	51645.33
554.275	52046.74
554.475	51465.11
554.674	52179.85
554.874	51905.43
555.074	51831.7
555.273	51868.56
555.473	51864.47
555.672	51694.49
555.872	51504.02
556.071	51921.81
556.271	52042.64
556.47	51542.94
556.67	51319.71
556.869	51463.07
557.068	51581.85
557.268	51485.59
557.467	51784.6
557.667	51381.15
557.866	51368.86
558.065	51096.48
558.265	51254.17
558.464	50604.97
558.663	51422.11
558.863	50582.44
559.062	51579.8
559.261	50664.36
559.461	51413.91
559.66	50525.1
559.859	50830.24
560.058	50353.07
560.258	50930.59
560.457	49990.58
560.656	50637.73
560.855	50185.13
561.054	50453.42
561.253	50457.51
561.453	50133.93
561.652	50539.43
561.851	50555.82
562.05	50119.6
562.249	50105.26
562.448	50551.72
562.647	50109.36
562.846	49740.72
563.045	50068.4
563.244	49388.47
563.443	49886.13
563.642	49333.18
563.841	49136.57
564.04	49505.21
564.239	49591.22
564.438	49019.84
564.637	49157.05
564.836	49374.14
565.035	48597.96
565.234	49447.86
565.432	48759.75
565.631	48937.92
565.83	49054.65
566.029	48292.81
566.228	48579.53
566.427	48282.57
566.625	48002
566.824	48012.24
567.023	48309.19
567.222	47715.28
567.42	47913.94
567.619	48079.82
567.818	48081.87
568.016	47279.07
568.215	47901.65
568.414	47721.43
568.612	47977.42
568.811	47174.62
569.01	47641.56
569.208	46910.43
569.407	47705.04
569.605	46701.54
569.804	47516.63
570.002	46535.65
570.201	47045.6
570.4	46322.66
570.598	46287.85
570.797	46486.5
570.995	46224.36
571.193	45726.7
571.392	46339.05
571.59	45999.08
571.789	45798.38
571.987	45704.18
572.186	45865.97
572.384	45575.16
572.582	46027.76
572.781	45962.22
572.979	44831.74
573.177	45497.33
573.376	45835.25
573.574	44547.07
573.772	45425.65
573.971	45138.94
574.169	44774.4
574.367	44370.95
574.565	44829.69
574.763	44436.48
574.962	44194.82
575.16	44147.72
575.358	44585.99
575.556	43955.21
575.754	44049.42
575.952	43578.39
576.151	44243.98
576.349	43410.45
576.547	43518.99
576.745	43529.23
576.943	43463.7
577.141	43244.57
577.339	43422.74
577.537	43035.67
577.735	43072.54
577.933	42660.9
578.131	42646.56
578.329	42603.55
578.527	42411.04
578.725	42746.91
578.923	42505.25
579.121	42368.04
579.319	41980.97
579.516	42439.72
579.714	42296.36
579.912	41886.76
580.11	41710.64
580.308	41815.08
580.506	41505.84
580.704	41198.65
580.901	41673.77
581.099	41428.02
581.297	41368.63
581.495	40913.98
581.692	41231.41
581.89	40430.66
582.088	41108.54
582.285	40676.41
582.483	40729.66
582.681	40246.34
582.878	40586.3
583.076	39912.52
583.274	40477.76
583.471	39824.46
583.669	40150.09
583.866	39877.71
584.064	40338.5
584.262	39519.31
584.459	39634
584.657	39212.12
584.854	39930.95
585.052	39105.62
585.249	39261.27
585.447	39154.77
585.644	38968.41
585.841	39083.09
586.039	39033.94
586.236	38480.99
586.434	38749.28
586.631	38390.88
586.828	38442.08
587.026	38409.31
587.223	38317.15
587.42	38358.11
587.618	38145.12
587.815	37559.41
588.012	37696.62
588.21	37626.99
588.407	37891.18
588.604	37176.44
588.801	36985.97
588.999	37264.5
589.196	36932.73
589.393	37166.2
589.59	36938.87
589.787	36889.72
589.984	36662.4
590.182	36291.71
590.379	36326.53
590.576	36340.86
590.773	36209.79
590.97	36072.58
591.167	36287.62
591.364	35529.87
591.561	35937.41
591.758	35683.47
591.955	35759.24
592.152	36025.48
592.349	35366.03
592.546	35587.21
592.743	35718.28
592.94	35157.14
593.137	35304.59
593.334	35228.82
593.531	34450.59
593.727	34774.17
593.924	34952.34
594.121	34380.96
594.318	34849.94
594.515	34407.58
594.712	34700.44
594.908	34239.65
595.105	34589.85
595.302	34063.52
595.499	34165.92
595.696	33776.81
595.892	33772.71
596.089	34006.18
596.286	33696.94
596.482	33412.27
596.679	33412.27
596.876	33399.98
597.072	33311.92
597.269	33098.93
597.466	32668.86
597.662	32830.65
597.859	32797.88
598.055	32574.65
598.252	32767.16
598.448	32675
598.645	32443.58
598.841	32171.2
599.038	32302.27
599.234	32234.69
599.431	31864
599.627	31769.8
599.824	31696.07
600.02	31595.72
600.217	31868.1
600.413	31706.31
600.609	31327.44
600.806	31569.1
601.002	31438.03
601.198	30934.23
601.395	31063.25
601.591	31020.24
601.787	31495.37
601.984	30602.46
602.18	30979.28
602.376	30510.3
602.572	30518.49
602.769	30250.21
602.965	30440.67
603.161	30432.47
603.357	30248.16
603.553	30108.9
603.75	29932.77
603.946	29910.24
604.142	29977.83
604.338	29760.74
604.534	29641.96
604.73	29224.17
604.926	29359.34
605.122	29443.31
605.318	29084.91
605.514	29043.95
605.71	29175.02
605.906	29035.76
606.102	29138.16
606.298	29265.13
606.494	28732.66
606.69	28640.5
606.886	28787.96
607.082	28099.84
607.278	28593.4
607.474	28095.74
607.67	28597.49
607.866	28128.51
608.062	28302.59
608.257	28310.78
608.453	28450.04
608.649	28173.56
608.845	27782.4
609.041	27649.28
609.236	28103.93
609.432	27612.42
609.628	27739.4
609.824	27774.21
610.019	27376.9
610.215	27569.41
610.411	27555.08
610.606	27426.06
610.802	27516.17
610.998	27817.22
611.193	27331.85
611.389	27120.91
611.584	27215.12
611.78	26887.44
611.976	27129.1
612.171	26991.89
612.367	26981.65
612.562	26737.94
612.758	26510.61
612.953	26508.57
613.149	26965.26
613.344	26463.51
613.539	27008.27
613.735	26463.51
613.93	26492.18
614.126	26672.4
614.321	26856.72
614.517	26449.18
614.712	26518.81
614.907	26187.04
615.103	26500.37
615.298	25969.95
615.493	26336.54
615.688	25724.19
615.884	26451.22
616.079	25974.05
616.274	25867.55
616.47	26010.91
616.665	25795.87
616.86	25707.81
617.055	25949.47
617.25	25791.78
617.445	25969.95
617.641	25005.36
617.836	25681.19
618.031	25308.46
618.226	25564.45
618.421	25320.74
618.616	25242.92
618.811	25095.47
619.006	25177.39
619.201	24456.5
619.396	24720.69
619.591	24126.78
619.786	24927.53
619.981	24198.46
620.176	24552.76
620.371	24208.7
620.566	24204.6
620.761	24116.54
620.956	24202.55
621.151	23655.75
621.346	23889.21
621.541	23237.96
621.735	23510.34
621.93	23211.34
622.125	23102.79
622.32	22900.05
622.515	23289.16
622.709	23051.59
622.904	22936.91
623.099	22947.15
623.294	22922.57
623.488	22375.77
623.683	22707.54
623.878	22166.87
624.072	22447.44
624.267	22089.05
624.462	21679.46
624.656	21716.32
624.851	21978.46
625.046	21894.49
625.24	21374.31
625.435	21261.67
625.629	21204.33
625.824	21388.64
626.018	21194.09
626.213	20675.95
626.407	20774.25
626.602	20563.31
626.796	20688.24
626.991	20653.42
627.185	20383.09
627.38	20397.43
627.574	20446.58
627.768	19774.84
627.963	19983.74
628.157	20000.12
628.352	20149.62
628.546	19510.66
628.74	19541.38
628.935	19500.42
629.129	19473.79
629.323	19207.56
629.517	19244.42
629.712	19078.54
629.906	19064.2
630.1	18763.15
630.294	18716.05
630.489	18728.33
630.683	18750.86
630.877	18568.59
631.071	18398.61
631.265	18648.46
631.459	18163.09
631.653	18081.17
631.848	17939.86
632.042	17857.95
632.236	17905.05
632.43	17673.63
632.624	17890.71
632.818	17649.05
633.012	17368.48
633.206	17323.43
633.4	17569.18
633.594	17214.88
633.788	17302.95
633.982	16985.51
634.176	16887.21
634.369	16897.45
634.563	16747.95
634.757	16661.93
634.951	16704.94
635.145	16594.35
635.339	16633.26
635.533	16287.15
635.726	16375.22
635.92	16012.73
636.114	16129.46
636.308	16223.67
636.501	15941.05
636.695	15928.76
636.889	15832.51
637.083	15650.24
637.276	15728.06
637.47	15373.76
637.664	15537.6
637.857	15422.91
638.051	15357.38
638.244	15226.31
638.438	15029.7
638.632	15050.18
638.825	15107.52
639.019	14994.89
639.212	14640.59
639.406	14943.69
639.599	14601.68
639.793	14736.84
639.986	14380.5
640.18	14331.34
640.373	14716.36
640.567	14317.01
640.76	14073.3
640.954	14224.85
641.147	13995.48
641.34	14009.81
641.534	13915.61
641.727	13897.17
641.92	13915.61
642.114	13854.17
642.307	13612.51
642.5	13463.01
642.694	13469.15
642.887	13194.72
643.08	13508.06
643.273	13389.28
643.467	13178.34
643.66	13110.75
643.853	13133.28
644.046	12719.59
644.239	12889.57
644.432	13010.4
644.626	12854.76
644.819	12604.91
645.012	12723.69
645.205	12875.24
645.398	12590.57
645.591	12477.93
645.784	12576.23
645.977	12228.08
646.17	12170.74
646.363	12058.1
646.556	12019.19
646.749	12103.15
646.942	11982.32
647.135	11822.58
647.328	11957.75
647.521	11791.86
647.714	11703.8
647.907	11681.27
648.099	11802.1
648.292	11578.87
648.485	11867.64
648.678	11503.1
648.871	11240.96
649.064	11353.6
649.256	11337.21
649.449	11425.28
649.642	11200
649.835	11148.8
650.027	11159.04
650.22	11040.26
650.413	11156.99
650.605	10927.62
650.798	10839.56
650.991	10604.04
651.183	10694.15
651.376	10556.94
651.568	10620.42
651.761	10386.96
651.954	10573.32
652.146	10413.58
652.339	10139.15
652.531	10315.28
652.724	10333.71
652.916	10018.32
653.109	10313.23
653.301	10126.86
653.494	10133.01
653.686	9956.88
653.879	9975.31
654.071	9889.3
654.263	9936.4
654.456	9846.29
654.648	9664.02
654.84	9684.5
655.033	9614.87
655.225	9694.74
655.417	9491.99
655.61	9461.27
655.802	9465.37
655.994	9213.47
656.186	9307.68
656.379	9195.04
656.571	9135.65
656.763	9322.01
656.955	9270.81
657.148	9289.24
657.34	9080.35
657.532	8932.9
657.724	9043.49
657.916	8994.34
658.108	8986.15
658.3	8648.23
658.492	8926.75
658.684	8705.57
658.876	8678.95
659.068	8650.28
659.26	8525.35
659.452	8617.51
659.644	8535.59
659.836	8484.39
660.028	8427.05
660.22	8515.11
660.412	8238.64
660.604	8328.75
660.796	8318.51
660.988	8121.9
661.18	8160.81
661.372	8064.56
661.563	8298.03
661.755	8244.78
661.947	7986.74
662.139	8093.23
662.331	7896.63
662.522	7833.14
662.714	7781.94
662.906	7827
663.097	7536.18
663.289	7704.12
663.481	7665.21
663.673	7679.54
663.864	7759.41
664.056	7401.02
664.247	7398.97
664.439	7384.63
664.631	7407.16
664.822	7474.74
665.014	7343.67
665.205	7558.71
665.397	7163.45
665.588	7382.59
665.78	7153.21
665.971	7284.28
666.163	7194.17
666.354	7120.45
666.546	6979.14
666.737	6985.28
666.929	7056.96
667.12	6966.85
667.311	7075.39
667.503	6895.17
667.694	6899.27
667.885	6839.87
668.077	6749.76
668.268	6592.07
668.459	6891.07
668.651	6866.5
668.842	6823.49
669.033	6612.55
669.224	6690.37
669.416	6667.84
669.607	6811.2
669.798	6387.27
669.989	6616.65
670.18	6489.67
670.371	6475.34
670.563	6465.1
670.754	6319.69
670.945	6372.94
671.136	6415.94
671.327	6274.63
671.518	6299.21
671.709	6358.6
671.9	6327.88
672.091	6311.5
672.282	6256.2
672.473	6162
672.664	6141.52
672.855	6207.05
673.046	6108.75
673.237	5992.02
673.428	5899.86
673.619	6016.59
673.809	6110.8
674	5971.54
674.191	5985.87
674.382	5924.43
674.573	5930.58
674.764	5891.66
674.954	5920.34
675.145	5660.24
675.336	5922.38
675.527	5916.24
675.717	5811.79
675.908	5684.82
676.099	5869.14
676.289	5678.68
676.48	5699.16
676.671	5602.9
676.861	5697.11
677.052	5582.42
677.243	5615.19
677.433	5566.04
677.624	5717.59
677.814	5643.86
678.005	5658.2
678.195	5561.94
678.386	5535.32
678.576	5375.58
678.767	5443.16
678.957	5510.74
679.148	5449.3
679.338	5416.54
679.529	5549.65
679.719	5424.73
679.909	5531.22
680.1	5455.45
680.29	5318.23
680.481	5297.75
680.671	5271.13
680.861	5125.72
681.052	5389.91
681.242	5176.92
681.432	5404.25
681.622	5250.65
681.813	5156.44
682.003	5246.55
682.193	5125.72
682.383	5152.35
682.573	5211.74
682.764	5070.43
682.954	5195.36
683.144	5004.89
683.334	5002.85
683.524	4996.7
683.714	4998.75
683.904	5099.1
684.094	5064.29
684.284	4998.75
684.474	5015.13
684.664	5000.8
684.854	4959.84
685.044	4877.92
685.234	4728.42
685.424	4992.61
685.614	4810.34
685.804	4861.54
685.994	4892.26
686.184	4855.39
686.374	4636.26
686.564	4775.52
686.753	4916.83
686.943	4812.39
687.133	4681.32
687.323	4752.99
687.513	4697.7
687.702	4697.7
687.892	4632.16
688.082	4623.97
688.272	4685.41
688.461	4671.08
688.651	4793.95
688.841	4427.37
689.03	4517.48
689.22	4531.81
689.41	4519.53
689.599	4470.37
689.789	4474.47
689.979	4406.89
690.168	4519.53
690.358	4466.28
690.547	4343.4
690.737	4275.82
690.926	4484.71
691.116	4279.91
691.305	4306.54
691.495	4200.04
691.684	4173.42
691.874	4257.39
692.063	4220.52
692.252	4089.45
692.442	4296.3
692.631	4322.92
692.82	4077.16
693.01	4146.8
693.199	4128.36
693.388	4163.18
693.578	4099.69
693.767	4025.97
693.956	3987.05
694.146	3964.53
694.335	4087.4
694.524	4038.25
694.713	3989.1
694.902	4064.88
695.092	4015.73
695.281	3946.09
695.47	3944.05
695.659	3985.01
695.848	3987.05
696.037	3823.22
696.226	3882.61
696.415	3829.36
696.604	3939.95
696.793	3829.36
696.982	3972.72
697.171	3868.27
697.36	3694.19
697.549	3839.6
697.738	3862.13
697.927	3794.54
698.116	3802.74
698.305	3819.12
698.494	3796.59
698.683	3688.05
698.872	3745.39
699.061	3698.29
699.25	3743.35
699.438	3694.19
699.627	3772.02
699.816	3718.77
700.005	3745.39
700.193	3679.86
700.382	3747.44
700.571	3608.18
700.76	3567.22
700.948	3604.08
701.137	3466.87
701.326	3667.57
701.514	3655.28
701.703	3589.75
701.892	3714.67
702.08	3731.06
702.269	3546.74
702.457	3538.55
702.646	3534.45
702.834	3577.46
703.023	3448.44
703.212	3516.02
703.4	3466.87
703.589	3503.73
703.777	3599.99
703.965	3548.79
704.154	3454.58
704.342	3536.5
704.531	3417.72
704.719	3391.09
704.907	3473.01
705.096	3317.37
705.284	3507.83
705.472	3389.05
705.661	3372.66
705.849	3440.25
706.037	3366.52
706.226	3405.43
706.414	3438.2
706.602	3272.31
706.79	3425.91
706.979	3370.62
707.167	3253.88
707.355	3274.36
707.543	3348.09
707.731	3360.38
707.919	3276.41
708.107	3317.37
708.296	3350.14
708.484	3307.13
708.672	3268.22
708.86	3239.55
709.048	3260.02
709.236	3198.59
709.424	3100.28
709.612	3157.63
709.8	3155.58
709.988	3171.96
710.176	3126.91
710.364	3235.45
710.551	3147.39
710.739	3161.72
710.927	3217.02
711.115	3116.67
711.303	3171.96
711.491	3018.36
711.679	3159.67
711.866	3147.39
712.054	3128.95
712.242	3028.6
712.43	3067.52
712.617	3151.48
712.805	3081.85
712.993	3100.28
713.181	3026.56
713.368	3083.9
713.556	3088
713.744	3065.47
713.931	3321.46
714.119	3022.46
714.306	3042.94
714.494	3036.8
714.682	3073.66
714.869	2946.69
715.057	3006.08
715.244	2930.3
715.432	2993.79
715.619	2979.45
715.807	2922.11
715.994	2993.79
716.182	2983.55
716.369	2889.34
716.556	2952.83
716.744	2893.44
716.931	2866.81
717.119	2989.69
717.306	2934.4
717.493	2907.77
717.681	2856.58
717.868	2934.4
718.055	2975.36
718.242	2926.21
718.43	2778.75
718.617	2832
718.804	2756.22
718.991	2739.84
719.179	2899.58
719.366	2766.46
719.553	2805.38
719.74	2778.75
719.927	2780.8
720.114	2788.99
720.301	2680.45
720.488	2729.6
720.676	2688.64
720.863	2674.31
721.05	2854.53
721.237	2731.65
721.424	2655.87
721.611	2911.87
721.798	2635.39
721.985	2688.64
722.172	2649.73
722.358	2639.49
722.545	2770.56
722.732	2715.27
722.919	2684.55
723.106	2684.55
723.293	2748.03
723.48	2688.64
723.667	2641.54
723.853	2657.92
724.04	2772.61
724.227	2657.92
724.414	2551.43
724.6	2555.52
724.787	2645.63
724.974	2535.04
725.161	2694.79
725.347	2420.36
725.534	2590.34
725.72	2582.15
725.907	2610.82
726.094	2553.48
726.28	2533
726.467	2563.72
726.653	2524.8
726.84	2557.57
727.027	2723.46
727.213	2455.17
727.4	2510.47
727.586	2520.71
727.773	2586.24
727.959	2645.63
728.145	2461.32
728.332	2559.62
728.518	2487.94
728.705	2541.19
728.891	2481.8
729.077	2475.65
729.264	2479.75
729.45	2477.7
729.636	2313.86
729.823	2500.23
730.009	2459.27
730.195	2387.59
730.382	2492.04
730.568	2430.6
730.754	2410.12
730.94	2451.08
731.126	2422.41
731.313	2395.78
731.499	2483.84
731.685	2465.41
731.871	2481.8
732.057	2502.28
732.243	2395.78
732.429	2416.26
732.615	2375.3
732.801	2383.49
732.987	2387.59
733.173	2305.67
733.359	2352.77
733.545	2211.46
733.731	2373.25
733.917	2334.34
734.103	2426.5
734.289	2434.69
734.475	2311.82
734.661	2477.7
734.847	2287.24
735.033	2346.63
735.219	2260.62
735.404	2356.87
735.59	2297.48
735.776	2330.25
735.962	2360.97
736.148	2363.01
736.333	2293.38
736.519	2279.05
736.705	2383.49
736.89	2229.9
737.076	2182.79
737.262	2289.29
737.447	2264.71
737.633	2252.42
737.819	2129.55
738.004	2174.6
738.19	2229.9
738.375	2199.18
738.561	2162.31
738.747	2166.41
738.932	2199.18
739.118	2166.41
739.303	2176.65
739.489	2197.13
739.674	2111.11
739.859	2090.63
740.045	2147.98
740.23	2084.49
740.416	2008.72
740.601	2113.16
740.786	2064.01
740.972	2100.87
741.157	2094.73
741.342	2023.05
741.528	1980.04
741.713	2150.03
741.898	1953.42
742.084	2055.82
742.269	2102.92
742.454	1971.85
742.639	2115.21
742.824	2090.63
743.01	1998.48
743.195	2006.67
743.38	2053.77
743.565	1951.37
743.75	1965.71
743.935	1980.04
744.12	2029.2
744.305	1877.65
744.49	2033.29
744.675	2096.78
744.86	1939.09
745.045	1975.95
745.23	1879.69
745.415	1773.2
745.6	1965.71
745.785	1853.07
745.97	1932.94
746.155	1851.02
746.34	1877.65
746.525	1851.02
746.71	1805.97
746.895	1750.67
747.079	1781.39
747.264	1744.53
747.449	1719.95
747.634	1777.3
747.819	1777.3
748.003	1752.72
748.188	1685.14
748.373	1752.72
748.557	1719.95
748.742	1707.66
748.927	1691.28
749.111	1791.63
749.296	1719.95
749.481	1705.62
749.665	1676.95
749.85	1603.22
750.034	1656.47
750.219	1605.27
750.404	1650.32
750.588	1533.59
750.773	1490.58
750.957	1545.88
751.141	1506.96
751.326	1476.24
751.51	1615.51
751.695	1496.72
751.879	1441.43
752.064	1531.54
752.248	1353.37
752.432	1517.2
752.617	1509.01
752.801	1463.96
752.985	1369.75
753.17	1500.82
753.354	1449.62
753.538	1535.64
753.722	1330.84
753.907	1431.19
754.091	1451.67
754.275	1322.65
754.459	1322.65
754.643	1449.62
754.828	1369.75
755.012	1298.07
755.196	1269.4
755.38	1265.3
755.564	1296.02
755.748	1304.21
755.932	1345.17
756.116	1156.76
756.3	1314.45
756.484	1347.22
756.668	1218.2
756.852	1148.57
757.036	1267.35
757.22	1146.52
757.404	1277.59
757.588	1175.19
757.772	1287.83
757.956	1179.29
758.14	1191.58
758.323	1105.56
758.507	1181.34
758.691	1146.52
758.875	1226.39
759.059	1228.44
759.242	1091.23
759.426	1117.85
759.61	1117.85
759.794	1037.98
759.977	1177.24
760.161	1146.52
760.345	1140.38
760.528	1115.8
760.712	1107.61
760.895	992.92
761.079	1099.42
761.263	1025.69
761.446	1017.5
761.63	1037.98
761.813	1037.98
761.997	1052.31
762.18	1076.89
762.364	994.97
762.547	1031.83
762.731	1115.8
762.914	1072.79
763.098	1044.12
763.281	976.54
763.464	988.83
763.648	939.68
763.831	951.96
764.015	986.78
764.198	964.25
764.381	894.62
764.564	1011.36
764.748	1019.55
764.931	943.77
765.114	900.76
765.297	1056.41
765.481	947.87
765.664	931.48
765.847	845.47
766.03	1003.16
766.213	917.15
766.397	904.86
766.58	1019.55
766.763	896.67
766.946	908.96
767.129	851.61
767.312	904.86
767.495	911
767.678	837.28
767.861	861.85
768.044	902.81
768.227	911
768.41	824.99
768.593	896.67
768.776	857.76
768.959	845.47
769.142	855.71
769.324	872.09
769.507	929.44
769.69	865.95
769.873	855.71
770.056	960.16
770.239	831.13
770.421	839.33
770.604	915.1
770.787	786.08
770.97	734.88
771.152	763.55
771.335	839.33
771.518	757.41
771.7	773.79
771.883	820.89
772.066	800.41
772.248	904.86
772.431	790.17
772.613	874.14
772.796	698.02
772.978	749.22
773.161	753.31
773.343	669.34
773.526	796.32
773.708	761.5
773.891	765.6
774.073	767.65
774.256	808.61
774.438	849.57
774.621	683.68
774.803	759.46
774.985	667.3
775.168	765.6
775.35	708.26
775.532	761.5
775.715	708.26
775.897	714.4
776.079	628.39
776.261	698.02
776.444	620.19
776.626	632.48
776.808	712.35
776.99	583.33
777.173	650.91
777.355	704.16
777.537	640.67
777.719	700.06
777.901	640.67
778.083	683.68
778.265	648.86
778.447	612
778.629	568.99
778.811	605.86
778.993	591.52
779.175	612
779.357	642.72
779.539	562.85
779.721	597.67
779.903	698.02
780.085	560.8
780.267	628.39
780.449	550.56
780.631	638.62
780.812	591.52
780.994	548.51
781.176	575.14
781.358	544.42
781.54	550.56
781.721	495.27
781.903	626.34
782.085	525.99
782.267	556.71
782.448	478.88
782.63	501.41
782.812	589.47
782.993	562.85
783.175	476.84
783.357	450.21
783.538	554.66
783.72	474.79
783.901	542.37
784.083	521.89
784.264	503.46
784.446	452.26
784.627	437.92
784.809	495.27
784.99	515.75
785.172	501.41
785.353	413.35
785.535	388.77
785.716	482.98
785.897	464.55
786.079	390.82
786.26	456.36
786.441	519.84
786.623	466.6
786.804	458.4
786.985	435.88
787.167	456.36
787.348	431.78
787.529	396.96
787.71	470.69
787.891	442.02
788.073	380.58
788.254	401.06
788.435	411.3
788.616	409.25
788.797	376.48
788.978	382.63
789.159	378.53
789.34	339.62
789.522	388.77
789.703	417.44
789.884	249.51
790.065	468.64
790.246	419.49
790.427	321.19
790.607	358.05
790.788	380.58
790.969	304.81
791.15	325.29
791.331	333.48
791.512	323.24
791.693	310.95
791.874	245.41
792.054	362.15
792.235	362.15
792.416	356.01
792.597	356.01
792.778	296.61
792.958	353.96
793.139	321.19
793.32	362.15
793.5	360.1
793.681	339.62
793.862	362.15
794.042	294.57
794.223	251.56
794.404	265.89
794.584	337.57
794.765	323.24
794.945	210.6
795.126	339.62
795.306	272.04
795.487	294.57
795.667	313
795.848	237.22
796.028	220.84
796.209	235.18
796.389	337.57
796.57	304.81
796.75	351.91
796.93	292.52
797.111	288.42
797.291	313
797.471	251.56
797.652	226.98
797.832	249.51
798.012	304.81
798.192	276.13
798.373	165.54
798.553	267.94
798.733	237.22
798.913	222.89
799.093	202.41
799.274	196.26
799.454	315.05
799.634	210.6
799.814	259.75
799.994	198.31
800.174	214.7
800.354	163.5
800.534	263.85
800.714	245.41
800.894	200.36
801.074	243.37
801.254	194.22
801.434	255.65
801.614	206.5
801.794	247.46
801.974	626.34
802.154	274.09
802.334	229.03
802.514	165.54
802.693	263.85
802.873	220.84
803.053	272.04
803.233	206.5
803.413	134.82
803.592	229.03
803.772	226.98
803.952	255.65
804.131	216.74
804.311	261.8
804.491	190.12
804.67	235.18
804.85	169.64
805.03	134.82
805.209	147.11
805.389	186.02
805.568	251.56
805.748	175.78
805.928	198.31
806.107	220.84
806.287	237.22
806.466	235.18
806.646	239.27
806.825	200.36
807.004	149.16
807.184	106.15
807.363	216.74
807.543	173.74
807.722	181.93
807.901	194.22
808.081	237.22
808.26	126.63
808.439	212.65
808.619	202.41
808.798	175.78
808.977	251.56
809.156	192.17
809.336	85.67
809.515	177.83
809.694	104.11
809.873	212.65
810.052	163.5
810.231	220.84
810.411	231.08
810.59	130.73
810.769	167.59
810.948	251.56
811.127	157.35
811.306	208.55
811.485	159.4
811.664	153.26
811.843	204.46
812.022	167.59
812.201	134.82
812.38	157.35
812.559	110.25
812.737	138.92
812.916	177.83
813.095	102.06
813.274	196.26
813.453	177.83
813.632	186.02
813.811	226.98
813.989	122.54
814.168	153.26
814.347	138.92
814.526	173.74
814.704	186.02
814.883	220.84
815.062	147.11
815.24	183.98
815.419	145.06
815.598	134.82
815.776	34.47
815.955	163.5
816.133	145.06
816.312	126.63
816.49	118.44
816.669	112.3
816.847	114.34
817.026	192.17
817.204	48.81
817.383	128.68
817.561	194.22
817.74	91.82
817.918	145.06
818.097	112.3
818.275	124.58
818.453	177.83
818.632	126.63
818.81	30.38
818.988	165.54
819.167	85.67
819.345	24.23
819.523	124.58
819.701	67.24
819.879	157.35
820.058	89.77
820.236	128.68
820.414	22.19
820.592	183.98
820.77	206.5
820.948	159.4
821.127	122.54
821.305	132.78
821.483	134.82
821.661	204.46
821.839	102.06
822.017	147.11
822.195	126.63
822.373	114.34
822.551	153.26
822.729	126.63
822.907	65.19
823.085	202.41
823.262	159.4
823.44	104.11
823.618	124.58
823.796	130.73
823.974	44.71
824.152	106.15
824.329	87.72
824.507	81.58
824.685	120.49
824.863	151.21
825.04	116.39
825.218	73.39
825.396	100.01
825.574	59.05
825.751	67.24
825.929	179.88
826.107	73.39
826.284	81.58
826.462	54.95
826.639	120.49
826.817	93.87
826.994	120.49
827.172	26.28
827.349	110.25
827.527	138.92
827.704	118.44
827.882	235.18
828.059	122.54
828.237	59.05
828.414	112.3
828.591	73.39
828.769	69.29
828.946	63.15
829.124	100.01
829.301	126.63
829.478	179.88
829.655	81.58
829.833	69.29
830.01	57
830.187	110.25
830.364	132.78
830.542	77.48
830.719	138.92
830.896	149.16
831.073	38.57
831.25	159.4
831.427	134.82
831.604	126.63
831.782	54.95
831.959	85.67
832.136	114.34
832.313	93.87
832.49	71.34
832.667	91.82
832.844	116.39
833.021	138.92
833.198	122.54
833.374	91.82
833.551	-4.44
833.728	106.15
833.905	132.78
834.082	128.68
834.259	-2.39
834.436	120.49
834.612	91.82
834.789	124.58
834.966	44.71
835.143	79.53
835.319	50.86
835.496	106.15
835.673	67.24
835.85	93.87
836.026	93.87
836.203	167.59
836.38	85.67
836.556	134.82
836.733	54.95
836.909	100.01
837.086	69.29
837.262	108.2
837.439	65.19
837.616	71.34
837.792	93.87
837.968	145.06
838.145	120.49
838.321	63.15
838.498	81.58
838.674	24.23
838.851	108.2
839.027	110.25
839.203	61.1
839.38	73.39
839.556	73.39
839.732	71.34
839.909	26.28
840.085	18.09
840.261	-35.16
840.437	38.57
840.614	65.19
840.79	122.54
840.966	67.24
841.142	120.49
841.318	48.81
841.494	38.57
841.671	48.81
841.847	69.29
842.023	40.62
842.199	85.67
842.375	75.43
842.551	89.77
842.727	97.96
842.903	32.43
843.079	46.76
843.255	91.82
843.431	34.47
843.607	85.67
843.783	9.9
843.959	67.24
844.134	63.15
844.31	81.58
844.486	104.11
844.662	30.38
844.838	59.05
845.013	48.81
845.189	89.77
845.365	36.52
845.541	34.47
845.716	104.11
845.892	59.05
846.068	34.47
846.244	42.67
846.419	40.62
846.595	38.57
846.77	22.19
846.946	106.15
847.122	61.1
847.297	50.86
847.473	28.33
847.648	-12.63
847.824	61.1
847.999	77.48
848.175	63.15
848.35	54.95
848.526	52.91
848.701	40.62
848.876	73.39
849.052	100.01
849.227	3.75
849.403	24.23
849.578	52.91
849.753	42.67
849.929	95.91
850.104	13.99
850.279	48.81
850.454	81.58
850.63	30.38
850.805	13.99
850.98	79.53
851.155	44.71
851.33	57
851.505	30.38
851.681	114.34
851.856	18.09
852.031	61.1
852.206	-10.58
852.381	54.95
852.556	46.76
852.731	83.63
852.906	89.77
853.081	140.97
853.256	34.47
853.431	97.96
853.606	73.39
853.781	30.38
853.956	3.75
854.131	87.72
854.305	57
854.48	52.91
854.655	-26.96
854.83	7.85
855.005	5.8
855.18	9.9
855.354	71.34
855.529	67.24
855.704	57
855.879	93.87
856.053	46.76
856.228	22.19
856.403	44.71
856.577	65.19
856.752	61.1
856.926	13.99
857.101	97.96
857.276	28.33
857.45	20.14
857.625	61.1
857.799	63.15
857.974	54.95
858.148	-39.25
858.323	9.9
858.497	42.67
858.672	-24.92
858.846	20.14
859.02	48.81
859.195	52.91
859.369	65.19
859.543	100.01
859.718	5.8
859.892	63.15
860.066	83.63
860.241	-24.92
860.415	32.43
860.589	38.57
860.763	9.9
860.938	46.76
861.112	20.14
861.286	22.19
861.46	59.05
861.634	-0.34
861.808	59.05
861.982	7.85
862.157	13.99
862.331	36.52
862.505	-12.63
862.679	-0.34
862.853	48.81
863.027	77.48
863.201	44.71
863.375	13.99
863.549	20.14
863.722	-0.34
863.896	34.47
864.07	-0.34
864.244	100.01
864.418	-35.16
864.592	22.19
864.766	54.95
864.939	40.62
865.113	95.91
865.287	93.87
865.461	11.95
865.634	59.05
865.808	3.75
865.982	11.95
866.156	1.71
866.329	26.28
866.503	52.91
866.676	26.28
866.85	48.81
867.024	-12.63
867.197	71.34
867.371	-37.2
867.544	-2.39
867.718	40.62
867.891	73.39
868.065	59.05
868.238	124.58
868.412	20.14
868.585	50.86
868.759	57
868.932	-6.49
869.105	24.23
869.279	18.09
869.452	-12.63
869.625	11.95
869.799	11.95
869.972	1.71
870.145	-4.44
870.319	9.9
870.492	69.29
870.665	20.14
870.838	34.47
871.011	42.67
871.185	-20.82
871.358	3.75
871.531	57
871.704	75.43
871.877	44.71
872.05	20.14
872.223	97.96
872.396	52.91
872.569	34.47
872.742	-39.25
872.915	57
873.088	69.29
873.261	-0.34
873.434	20.14
873.607	26.28
873.78	57
873.953	-47.44
874.126	-31.06
874.299	65.19
874.471	-20.82
874.644	-12.63
874.817	20.14
874.99	67.24
875.163	1.71
875.335	-31.06
875.508	42.67
875.681	9.9
875.853	-47.44
876.026	61.1
876.199	32.43
876.371	30.38
876.544	26.28
876.717	-37.2
876.889	40.62
877.062	67.24
877.234	32.43
877.407	126.63
877.579	20.14
877.752	97.96
877.924	87.72
878.097	36.52
878.269	63.15
878.442	71.34
878.614	7.85
878.786	69.29
878.959	106.15
879.131	52.91
879.303	-57.68
879.476	52.91
879.648	54.95
879.82	20.14
879.993	73.39
880.165	-8.53
880.337	-8.53
880.509	7.85
880.681	-57.68
880.854	-8.53
881.026	54.95
881.198	63.15
881.37	5.8
881.542	-12.63
881.714	7.85
881.886	18.09
882.058	1.71
882.23	34.47
882.402	11.95
882.574	46.76
882.746	-33.11
882.918	52.91
883.09	85.67
883.262	-65.88
883.434	38.57
883.606	77.48
883.778	-2.39
883.95	40.62
884.122	-4.44
884.293	67.24
884.465	26.28
884.637	30.38
884.809	-20.82
884.98	34.47
885.152	32.43
885.324	16.04
885.496	93.87
885.667	30.38
885.839	1.71
886.011	5.8
886.182	63.15
886.354	46.76
886.525	26.28
886.697	36.52
886.869	-8.53
887.04	75.43
887.212	11.95
887.383	54.95
887.555	-2.39
887.726	30.38
887.897	-10.58
888.069	42.67
888.24	26.28
888.412	44.71
888.583	-18.77
888.754	69.29
888.926	-57.68
889.097	38.57
889.268	-37.2
889.44	9.9
889.611	-96.6
889.782	32.43
889.953	-4.44
890.125	71.34
890.296	18.09
890.467	1.71
890.638	3.75
890.809	22.19
890.98	7.85
891.151	48.81
891.323	-6.49
891.494	89.77
891.665	36.52
891.836	42.67
892.007	26.28
892.178	91.82
892.349	32.43
892.52	34.47
892.691	40.62
892.862	40.62
893.032	-76.12
893.203	-18.77
893.374	52.91
893.545	36.52
893.716	-74.07
893.887	9.9
894.057	-43.35
894.228	28.33
894.399	7.85
894.57	157.35
894.74	9.9
894.911	40.62
895.082	-12.63
895.253	36.52
895.423	20.14
895.594	-14.68
895.764	9.9
895.935	-63.83
896.106	46.76
896.276	-12.63
896.447	20.14
896.617	-74.07
896.788	34.47
896.958	16.04
897.129	20.14
897.299	46.76
897.47	-8.53
897.64	44.71
897.81	42.67
897.981	5.8
898.151	65.19
898.322	36.52
898.492	26.28
898.662	32.43
898.832	59.05
899.003	-41.3
899.173	44.71
899.343	26.28
899.513	110.25
