Data from USB4F104151__7__11-36-20-834.txt Node

Date: Fri Mar 14 11:36:20 EDT 2025
User: louis
Spectrometer: USB4F10415
Trigger mode: 4
Integration Time (sec): 2.000000E-2
Scans to average: 1
Electric dark correction enabled: true
Nonlinearity correction enabled: false
Boxcar width: 0
XAxis mode: Wavelengths
Number of Pixels in Spectrum: 3648
>>>>>Begin Spectral Data<<<<<
178.204	-81.58
178.424	-81.58
178.644	-81.58
178.864	-71.34
179.084	-104.11
179.304	2.39
179.524	-61.1
179.744	51.54
179.964	14.68
180.184	-3.75
180.404	10.58
180.624	-5.8
180.844	35.16
181.064	-52.91
181.283	53.59
181.503	-9.9
181.723	-34.47
181.943	10.58
182.163	63.83
182.383	14.68
182.602	0.34
182.822	59.73
183.042	20.82
183.262	18.77
183.482	37.2
183.701	37.2
183.921	47.44
184.141	-38.57
184.361	65.88
184.58	88.4
184.8	0.34
185.02	100.69
185.239	49.49
185.459	143.7
185.679	14.68
185.898	45.4
186.118	61.78
186.338	10.58
186.557	39.25
186.777	37.2
186.997	-20.14
187.216	-18.09
187.436	69.97
187.655	-40.62
187.875	94.55
188.095	51.54
188.314	59.73
188.534	-3.75
188.753	-20.14
188.973	4.44
189.192	55.64
189.412	14.68
189.631	14.68
189.851	63.83
190.07	119.12
190.29	51.54
190.509	26.96
190.729	10.58
190.948	16.73
191.168	119.12
191.387	72.02
191.607	31.06
191.826	47.44
192.045	26.96
192.265	8.53
192.484	57.68
192.704	-18.09
192.923	16.73
193.142	51.54
193.362	-34.47
193.581	65.88
193.8	39.25
194.02	41.3
194.239	26.96
194.458	61.78
194.678	14.68
194.897	-18.09
195.116	-7.85
195.335	72.02
195.555	59.73
195.774	72.02
195.993	-9.9
196.212	82.26
196.432	-52.91
196.651	26.96
196.87	16.73
197.089	16.73
197.308	-1.71
197.528	-1.71
197.747	65.88
197.966	-13.99
198.185	53.59
198.404	86.36
198.623	-34.47
198.842	-42.67
199.062	53.59
199.281	98.64
199.5	31.06
199.719	-5.8
199.938	65.88
200.157	76.12
200.376	31.06
200.595	20.82
200.814	6.49
201.033	12.63
201.252	8.53
201.471	35.16
201.69	76.12
201.909	-34.47
202.128	26.96
202.347	-13.99
202.566	4.44
202.785	24.92
203.004	26.96
203.223	51.54
203.442	53.59
203.661	72.02
203.879	-9.9
204.098	67.92
204.317	6.49
204.536	86.36
204.755	24.92
204.974	49.49
205.193	10.58
205.411	74.07
205.63	-13.99
205.849	100.69
206.068	24.92
206.287	-9.9
206.505	115.03
206.724	61.78
206.943	94.55
207.162	45.4
207.381	61.78
207.599	-24.23
207.818	86.36
208.037	86.36
208.255	43.35
208.474	18.77
208.693	20.82
208.911	-3.75
209.13	63.83
209.349	10.58
209.567	37.2
209.786	29.01
210.005	33.11
210.223	47.44
210.442	-22.19
210.661	-9.9
210.879	-9.9
211.098	67.92
211.316	35.16
211.535	39.25
211.753	-61.1
211.972	22.87
212.191	4.44
212.409	-11.95
212.628	65.88
212.846	0.34
213.065	33.11
213.283	31.06
213.502	47.44
213.72	20.82
213.938	4.44
214.157	82.26
214.375	29.01
214.594	20.82
214.812	39.25
215.031	24.92
215.249	18.77
215.467	-28.33
215.686	4.44
215.904	31.06
216.122	43.35
216.341	65.88
216.559	39.25
216.778	76.12
216.996	39.25
217.214	47.44
217.432	-1.71
217.651	-34.47
217.869	22.87
218.087	8.53
218.306	100.69
218.524	61.78
218.742	65.88
218.96	26.96
219.179	49.49
219.397	88.4
219.615	69.97
219.833	16.73
220.051	-42.67
220.27	-3.75
220.488	26.96
220.706	35.16
220.924	-1.71
221.142	12.63
221.36	2.39
221.578	26.96
221.796	22.87
222.015	12.63
222.233	-38.57
222.451	59.73
222.669	37.2
222.887	86.36
223.105	51.54
223.323	29.01
223.541	29.01
223.759	20.82
223.977	43.35
224.195	80.21
224.413	6.49
224.631	61.78
224.849	-13.99
225.067	47.44
225.285	8.53
225.503	39.25
225.721	-30.38
225.939	-32.43
226.157	29.01
226.375	104.79
226.592	22.87
226.81	55.64
227.028	51.54
227.246	53.59
227.464	43.35
227.682	63.83
227.9	14.68
228.117	61.78
228.335	26.96
228.553	-9.9
228.771	2.39
228.989	26.96
229.206	41.3
229.424	-3.75
229.642	29.01
229.86	47.44
230.077	102.74
230.295	102.74
230.513	47.44
230.731	90.45
230.948	29.01
231.166	43.35
231.384	98.64
231.601	31.06
231.819	74.07
232.037	20.82
232.254	-3.75
232.472	33.11
232.689	51.54
232.907	51.54
233.125	-3.75
233.342	24.92
233.56	-13.99
233.777	-24.23
233.995	59.73
234.213	37.2
234.43	94.55
234.648	84.31
234.865	6.49
235.083	59.73
235.3	-34.47
235.518	82.26
235.735	98.64
235.953	51.54
236.17	10.58
236.388	-5.8
236.605	84.31
236.822	-48.81
237.04	55.64
237.257	92.5
237.475	-3.75
237.692	16.73
237.909	59.73
238.127	94.55
238.344	2.39
238.562	67.92
238.779	31.06
238.996	0.34
239.214	26.96
239.431	145.75
239.648	-16.04
239.865	49.49
240.083	47.44
240.3	18.77
240.517	61.78
240.735	-11.95
240.952	117.08
241.169	39.25
241.386	29.01
241.603	31.06
241.821	20.82
242.038	43.35
242.255	6.49
242.472	12.63
242.689	55.64
242.907	20.82
243.124	61.78
243.341	47.44
243.558	14.68
243.775	57.68
243.992	6.49
244.209	20.82
244.426	115.03
244.643	14.68
244.86	29.01
245.078	-1.71
245.295	72.02
245.512	45.4
245.729	65.88
245.946	63.83
246.163	22.87
246.38	-28.33
246.597	-3.75
246.814	2.39
247.031	115.03
247.248	51.54
247.464	47.44
247.681	92.5
247.898	-26.28
248.115	18.77
248.332	43.35
248.549	43.35
248.766	43.35
248.983	6.49
249.2	29.01
249.417	88.4
249.633	82.26
249.85	53.59
250.067	43.35
250.284	119.12
250.501	12.63
250.717	31.06
250.934	-28.33
251.151	88.4
251.368	6.49
251.585	74.07
251.801	-61.1
252.018	12.63
252.235	86.36
252.451	-38.57
252.668	0.34
252.885	43.35
253.102	43.35
253.318	55.64
253.535	51.54
253.752	88.4
253.968	67.92
254.185	-13.99
254.401	80.21
254.618	69.97
254.835	14.68
255.051	92.5
255.268	102.74
255.484	49.49
255.701	22.87
255.917	22.87
256.134	8.53
256.351	12.63
256.567	78.16
256.784	37.2
257	35.16
257.217	63.83
257.433	33.11
257.65	18.77
257.866	51.54
258.082	-38.57
258.299	-9.9
258.515	104.79
258.732	41.3
258.948	-5.8
259.165	-48.81
259.381	20.82
259.597	59.73
259.814	16.73
260.03	80.21
260.246	63.83
260.463	69.97
260.679	6.49
260.895	-9.9
261.112	59.73
261.328	31.06
261.544	-34.47
261.761	65.88
261.977	33.11
262.193	-18.09
262.409	80.21
262.626	94.55
262.842	22.87
263.058	47.44
263.274	49.49
263.49	14.68
263.707	12.63
263.923	16.73
264.139	65.88
264.355	22.87
264.571	65.88
264.787	145.75
265.004	61.78
265.22	22.87
265.436	-44.71
265.652	37.2
265.868	-30.38
266.084	29.01
266.3	47.44
266.516	10.58
266.732	2.39
266.948	37.2
267.164	35.16
267.38	2.39
267.596	-7.85
267.812	37.2
268.028	37.2
268.244	-24.23
268.46	88.4
268.676	37.2
268.892	26.96
269.108	45.4
269.324	63.83
269.54	-28.33
269.756	20.82
269.972	31.06
270.188	-13.99
270.403	94.55
270.619	12.63
270.835	-5.8
271.051	10.58
271.267	-7.85
271.483	92.5
271.698	-26.28
271.914	76.12
272.13	-1.71
272.346	31.06
272.562	16.73
272.777	69.97
272.993	53.59
273.209	35.16
273.425	26.96
273.64	69.97
273.856	-24.23
274.072	4.44
274.287	-26.28
274.503	104.79
274.719	-3.75
274.934	61.78
275.15	-32.43
275.366	145.75
275.581	37.2
275.797	4.44
276.012	20.82
276.228	-32.43
276.444	-28.33
276.659	129.36
276.875	26.96
277.09	10.58
277.306	-1.71
277.521	67.92
277.737	14.68
277.952	14.68
278.168	65.88
278.383	59.73
278.599	-67.24
278.814	82.26
279.03	8.53
279.245	145.75
279.461	76.12
279.676	96.6
279.892	-7.85
280.107	35.16
280.322	45.4
280.538	22.87
280.753	-52.91
280.969	31.06
281.184	45.4
281.399	8.53
281.615	-18.09
281.83	123.22
282.045	-57
282.26	39.25
282.476	6.49
282.691	6.49
282.906	14.68
283.122	43.35
283.337	47.44
283.552	-18.09
283.767	2.39
283.983	-40.62
284.198	14.68
284.413	-20.14
284.628	35.16
284.843	59.73
285.058	72.02
285.274	43.35
285.489	22.87
285.704	80.21
285.919	43.35
286.134	-7.85
286.349	41.3
286.564	-40.62
286.779	43.35
286.995	104.79
287.21	26.96
287.425	31.06
287.64	14.68
287.855	35.16
288.07	-18.09
288.285	29.01
288.5	35.16
288.715	47.44
288.93	37.2
289.145	47.44
289.36	29.01
289.575	20.82
289.79	6.49
290.004	29.01
290.219	29.01
290.434	29.01
290.649	69.97
290.864	51.54
291.079	94.55
291.294	-9.9
291.509	18.77
291.724	47.44
291.938	51.54
292.153	-18.09
292.368	51.54
292.583	67.92
292.798	88.4
293.012	43.35
293.227	-11.95
293.442	18.77
293.657	16.73
293.871	-18.09
294.086	33.11
294.301	37.2
294.516	98.64
294.73	102.74
294.945	69.97
295.16	-44.71
295.374	67.92
295.589	4.44
295.804	-44.71
296.018	39.25
296.233	47.44
296.447	45.4
296.662	47.44
296.877	65.88
297.091	55.64
297.306	47.44
297.52	-1.71
297.735	22.87
297.949	45.4
298.164	86.36
298.378	-16.04
298.593	12.63
298.807	39.25
299.022	76.12
299.236	69.97
299.451	53.59
299.665	12.63
299.88	119.12
300.094	45.4
300.309	14.68
300.523	43.35
300.737	72.02
300.952	112.98
301.166	96.6
301.381	-13.99
301.595	47.44
301.809	31.06
302.024	-7.85
302.238	20.82
302.452	6.49
302.667	35.16
302.881	51.54
303.095	45.4
303.309	94.55
303.524	-3.75
303.738	39.25
303.952	29.01
304.166	12.63
304.381	10.58
304.595	76.12
304.809	-52.91
305.023	63.83
305.237	-5.8
305.452	22.87
305.666	67.92
305.88	41.3
306.094	4.44
306.308	88.4
306.522	102.74
306.736	18.77
306.95	96.6
307.164	55.64
307.379	12.63
307.593	63.83
307.807	51.54
308.021	24.92
308.235	-34.47
308.449	37.2
308.663	37.2
308.877	92.5
309.091	55.64
309.305	45.4
309.519	76.12
309.733	63.83
309.947	90.45
310.161	119.12
310.374	0.34
310.588	84.31
310.802	78.16
311.016	20.82
311.23	41.3
311.444	-67.24
311.658	47.44
311.872	98.64
312.085	92.5
312.299	100.69
312.513	26.96
312.727	31.06
312.941	49.49
313.154	129.36
313.368	-22.19
313.582	10.58
313.796	74.07
314.009	55.64
314.223	55.64
314.437	57.68
314.651	-3.75
314.864	14.68
315.078	4.44
315.292	88.4
315.505	53.59
315.719	53.59
315.933	55.64
316.146	82.26
316.36	16.73
316.573	112.98
316.787	-5.8
317.001	115.03
317.214	2.39
317.428	12.63
317.641	115.03
317.855	37.2
318.068	90.45
318.282	-1.71
318.495	0.34
318.709	8.53
318.922	55.64
319.136	72.02
319.349	39.25
319.563	2.39
319.776	106.84
319.99	65.88
320.203	35.16
320.417	24.92
320.63	8.53
320.843	67.92
321.057	-16.04
321.27	14.68
321.483	80.21
321.697	-1.71
321.91	67.92
322.124	96.6
322.337	59.73
322.55	47.44
322.763	61.78
322.977	55.64
323.19	59.73
323.403	88.4
323.617	-11.95
323.83	110.93
324.043	59.73
324.256	65.88
324.469	59.73
324.683	119.12
324.896	-9.9
325.109	69.97
325.322	-40.62
325.535	8.53
325.748	61.78
325.962	-30.38
326.175	22.87
326.388	6.49
326.601	35.16
326.814	6.49
327.027	47.44
327.24	61.78
327.453	94.55
327.666	94.55
327.879	33.11
328.092	96.6
328.305	106.84
328.518	8.53
328.731	45.4
328.944	16.73
329.157	98.64
329.37	84.31
329.583	94.55
329.796	31.06
330.009	-5.8
330.222	67.92
330.435	53.59
330.648	-5.8
330.861	-18.09
331.073	84.31
331.286	-5.8
331.499	84.31
331.712	-7.85
331.925	31.06
332.138	82.26
332.35	63.83
332.563	-28.33
332.776	37.2
332.989	-5.8
333.202	67.92
333.414	-3.75
333.627	-26.28
333.84	104.79
334.053	26.96
334.265	92.5
334.478	121.17
334.691	98.64
334.903	74.07
335.116	45.4
335.329	26.96
335.541	-16.04
335.754	-11.95
335.966	33.11
336.179	78.16
336.392	16.73
336.604	115.03
336.817	33.11
337.029	8.53
337.242	-46.76
337.454	35.16
337.667	86.36
337.88	86.36
338.092	-11.95
338.305	92.5
338.517	24.92
338.729	45.4
338.942	45.4
339.154	31.06
339.367	22.87
339.579	35.16
339.792	16.73
340.004	39.25
340.217	84.31
340.429	63.83
340.641	26.96
340.854	39.25
341.066	90.45
341.278	90.45
341.491	78.16
341.703	80.21
341.915	69.97
342.128	45.4
342.34	88.4
342.552	47.44
342.764	76.12
342.977	-42.67
343.189	-50.86
343.401	90.45
343.613	-20.14
343.826	29.01
344.038	51.54
344.25	76.12
344.462	88.4
344.674	10.58
344.886	22.87
345.099	45.4
345.311	31.06
345.523	33.11
345.735	35.16
345.947	72.02
346.159	31.06
346.371	18.77
346.583	43.35
346.795	43.35
347.007	35.16
347.219	69.97
347.431	31.06
347.643	12.63
347.855	59.73
348.067	115.03
348.279	24.92
348.491	31.06
348.703	57.68
348.915	133.46
349.127	67.92
349.339	61.78
349.551	78.16
349.763	63.83
349.975	88.4
350.187	12.63
350.399	104.79
350.61	31.06
350.822	22.87
351.034	20.82
351.246	57.68
351.458	80.21
351.669	10.58
351.881	63.83
352.093	94.55
352.305	112.98
352.517	63.83
352.728	55.64
352.94	82.26
353.152	76.12
353.363	6.49
353.575	84.31
353.787	43.35
353.999	76.12
354.21	92.5
354.422	6.49
354.633	-7.85
354.845	59.73
355.057	31.06
355.268	22.87
355.48	6.49
355.692	55.64
355.903	43.35
356.115	37.2
356.326	6.49
356.538	72.02
356.749	-59.05
356.961	57.68
357.172	14.68
357.384	22.87
357.595	69.97
357.807	63.83
358.018	45.4
358.23	49.49
358.441	112.98
358.653	94.55
358.864	55.64
359.075	24.92
359.287	139.6
359.498	63.83
359.709	69.97
359.921	37.2
360.132	26.96
360.344	22.87
360.555	29.01
360.766	45.4
360.977	45.4
361.189	55.64
361.4	55.64
361.611	102.74
361.823	94.55
362.034	-7.85
362.245	45.4
362.456	127.32
362.667	92.5
362.879	-16.04
363.09	47.44
363.301	29.01
363.512	117.08
363.723	61.78
363.935	51.54
364.146	55.64
364.357	-22.19
364.568	67.92
364.779	26.96
364.99	45.4
365.201	125.27
365.412	96.6
365.623	39.25
365.834	63.83
366.045	96.6
366.256	59.73
366.467	86.36
366.678	20.82
366.889	-11.95
367.1	69.97
367.311	-1.71
367.522	76.12
367.733	90.45
367.944	69.97
368.155	82.26
368.366	18.77
368.577	51.54
368.788	69.97
368.999	-26.28
369.209	53.59
369.42	39.25
369.631	84.31
369.842	16.73
370.053	8.53
370.264	92.5
370.474	39.25
370.685	43.35
370.896	49.49
371.107	67.92
371.317	33.11
371.528	47.44
371.739	80.21
371.95	45.4
372.16	100.69
372.371	29.01
372.582	98.64
372.792	6.49
373.003	74.07
373.214	61.78
373.424	-40.62
373.635	8.53
373.846	63.83
374.056	57.68
374.267	80.21
374.477	90.45
374.688	78.16
374.898	49.49
375.109	57.68
375.319	78.16
375.53	88.4
375.74	31.06
375.951	16.73
376.161	-24.23
376.372	65.88
376.582	35.16
376.793	57.68
377.003	63.83
377.214	26.96
377.424	0.34
377.635	55.64
377.845	-26.28
378.055	84.31
378.266	6.49
378.476	14.68
378.686	39.25
378.897	4.44
379.107	117.08
379.317	72.02
379.528	63.83
379.738	20.82
379.948	37.2
380.158	33.11
380.369	76.12
380.579	47.44
380.789	37.2
380.999	53.59
381.21	53.59
381.42	94.55
381.63	39.25
381.84	141.65
382.05	-26.28
382.261	55.64
382.471	69.97
382.681	43.35
382.891	108.88
383.101	160.08
383.311	43.35
383.521	14.68
383.731	51.54
383.941	59.73
384.151	49.49
384.361	86.36
384.571	-11.95
384.781	26.96
384.991	125.27
385.201	117.08
385.411	129.36
385.621	86.36
385.831	61.78
386.041	78.16
386.251	26.96
386.461	100.69
386.671	102.74
386.881	125.27
387.091	26.96
387.301	57.68
387.511	49.49
387.72	22.87
387.93	112.98
388.14	47.44
388.35	51.54
388.56	80.21
388.769	63.83
388.979	98.64
389.189	-1.71
389.399	127.32
389.609	33.11
389.818	20.82
390.028	117.08
390.238	104.79
390.447	69.97
390.657	96.6
390.867	63.83
391.076	74.07
391.286	26.96
391.496	53.59
391.705	12.63
391.915	74.07
392.125	92.5
392.334	51.54
392.544	65.88
392.753	80.21
392.963	33.11
393.172	102.74
393.382	125.27
393.591	139.6
393.801	104.79
394.01	67.92
394.22	63.83
394.429	55.64
394.639	164.18
394.848	86.36
395.058	100.69
395.267	106.84
395.477	53.59
395.686	63.83
395.895	74.07
396.105	158.03
396.314	2.39
396.524	123.22
396.733	45.4
396.942	100.69
397.152	137.56
397.361	139.6
397.57	53.59
397.78	151.89
397.989	104.79
398.198	129.36
398.407	69.97
398.617	88.4
398.826	137.56
399.035	149.84
399.244	127.32
399.453	115.03
399.663	96.6
399.872	125.27
400.081	33.11
400.29	158.03
400.499	129.36
400.708	203.09
400.917	104.79
401.127	186.71
401.336	86.36
401.545	127.32
401.754	67.92
401.963	178.51
402.172	84.31
402.381	98.64
402.59	219.47
402.799	164.18
403.008	145.75
403.217	59.73
403.426	188.75
403.635	108.88
403.844	69.97
404.053	137.56
404.262	121.17
404.471	182.61
404.68	123.22
404.888	207.19
405.097	96.6
405.306	221.52
405.515	178.51
405.724	143.7
405.933	121.17
406.142	178.51
406.35	174.42
406.559	186.71
406.768	194.9
406.977	219.47
407.185	201.04
407.394	229.71
407.603	133.46
407.812	213.33
408.02	274.77
408.229	227.67
408.438	246.1
408.646	305.49
408.855	260.43
409.064	264.53
409.272	321.87
409.481	254.29
409.69	180.56
409.898	330.06
410.107	332.11
410.315	313.68
410.524	338.26
410.733	377.17
410.941	346.45
411.15	338.26
411.358	432.46
411.567	391.5
411.775	424.27
411.984	420.17
412.192	471.37
412.401	530.77
412.609	473.42
412.818	487.76
413.026	545.1
413.234	524.62
413.443	547.15
413.651	530.77
413.86	624.97
414.068	643.4
414.276	653.64
414.485	678.22
414.693	706.89
414.901	741.71
415.11	706.89
415.318	680.27
415.526	717.13
415.734	741.71
415.943	799.05
416.151	813.38
416.359	891.21
416.567	780.62
416.776	932.17
416.984	1005.89
417.192	1016.13
417.4	1009.99
417.608	1044.81
417.817	1118.53
418.025	1085.76
418.233	1169.73
418.441	1128.77
418.649	1218.88
418.857	1263.94
419.065	1323.33
419.273	1257.79
419.481	1390.91
419.689	1415.49
419.897	1501.5
420.105	1456.45
420.313	1544.51
420.521	1616.19
420.729	1608
420.937	1605.95
421.145	1796.41
421.353	1886.52
421.561	1939.77
421.769	2042.17
421.977	2111.8
422.185	2038.07
422.393	2296.11
422.601	2326.83
422.809	2267.44
423.017	2289.97
423.224	2322.74
423.432	2502.96
423.64	2537.77
423.848	2773.29
424.056	2707.76
424.263	2890.03
424.471	2830.63
424.679	2982.18
424.887	3115.3
425.094	3150.12
425.302	3221.8
425.51	3391.78
425.718	3178.79
425.925	3402.02
426.133	3594.53
426.341	3871
426.548	4004.12
426.756	4092.18
426.964	4061.46
427.171	4182.29
427.379	4296.98
427.586	4374.8
427.794	4641.04
428.001	4739.34
428.209	5042.44
428.417	4899.08
428.624	5191.94
428.832	5290.24
429.039	5122.31
429.247	5175.56
429.454	5716.22
429.662	6242.55
429.869	5632.26
430.076	6093.05
430.284	6031.61
430.491	6228.21
430.699	6523.12
430.906	6598.9
431.114	6805.74
431.321	6783.21
431.528	7192.81
431.736	7579.87
431.943	7782.62
432.15	7467.24
432.358	7631.07
432.565	7954.65
432.772	8081.63
432.979	8542.42
433.187	8480.98
433.394	8534.23
433.601	9328.84
433.808	9031.88
434.016	9216.2
434.223	9738.43
434.43	10176.7
434.637	10176.7
434.844	10754.23
435.052	10758.32
435.259	10836.14
435.466	11045.04
435.673	10848.43
435.88	11538.6
436.087	12050.59
436.294	12077.21
436.501	11831.46
436.708	12155.04
436.915	12368.02
437.122	13015.18
437.329	13072.53
437.537	13449.35
437.743	13553.8
437.95	13537.41
438.157	14235.77
438.364	14710.9
438.571	14604.41
438.778	14839.92
438.985	16142.43
439.192	15513.7
439.399	16115.81
439.606	15716.45
439.813	16652.38
440.02	17535.05
440.227	17188.94
440.433	17037.39
440.64	17780.81
440.847	17743.94
441.054	18083.91
441.261	19247.15
441.467	18788.41
441.674	19220.53
441.881	20185.12
442.088	20011.04
442.294	19652.65
442.501	20428.83
442.708	20594.72
442.914	21532.68
443.121	22501.37
443.328	21934.09
443.534	23246.83
443.741	22761.47
443.948	22685.69
444.154	24211.43
444.361	23797.74
444.568	24221.67
444.774	24575.97
444.981	24438.75
445.187	25176.02
445.394	26281.92
445.6	25747.4
445.807	28379.04
446.013	27244.47
446.22	27547.57
446.426	28796.83
446.633	28981.15
446.839	30156.68
447.046	28850.08
447.252	30371.72
447.459	30513.03
447.665	30480.26
447.871	31793.01
448.078	33085.28
448.284	31706.99
448.491	32259.95
448.697	33742.67
448.903	34262.86
449.11	34156.36
449.316	33576.79
449.522	34131.79
449.728	35229.5
449.935	35612.47
450.141	35548.98
450.347	36003.63
450.553	35295.03
450.76	35780.4
450.966	36874.02
451.172	36517.67
451.378	37349.15
451.584	36351.79
451.791	37627.67
451.997	37580.57
452.203	38323.98
452.409	38264.59
452.615	37863.19
452.821	36394.79
453.027	36071.21
453.233	38227.73
453.44	36489
453.646	37084.96
453.852	36978.47
454.058	37580.57
454.264	36722.47
454.47	37510.94
454.676	36247.34
454.882	37386.01
455.088	34352.97
455.294	34721.6
455.5	35159.87
455.705	35438.39
455.911	34232.14
456.117	33883.98
456.323	33279.83
456.529	31010.68
456.735	33083.23
456.941	31965.04
457.147	31317.88
457.352	30392.2
457.558	30216.07
457.764	30248.84
457.97	29761.42
458.176	29274.01
458.381	29294.49
458.587	27959.21
458.793	27604.91
458.999	26320.84
459.204	28274.6
459.41	27254.71
459.616	25429.97
459.821	25278.42
460.027	25296.85
460.233	24846.3
460.438	23822.31
460.644	23678.96
460.85	22751.23
461.055	22421.5
461.261	22499.33
461.466	20824.09
461.672	20101.15
461.878	21768.2
462.083	20095.01
462.289	19863.59
462.494	19617.83
462.7	18606.14
462.905	18268.22
463.111	18661.43
463.316	18935.86
463.522	18331.71
463.727	18745.4
463.932	18524.22
464.138	18184.26
464.343	18329.66
464.549	17545.29
464.754	18391.1
464.959	18395.2
465.165	18196.54
465.37	17252.43
465.575	17037.39
465.781	17391.69
465.986	17778.76
466.191	16767.06
466.397	16734.29
466.602	15947.87
466.807	16431.19
467.012	16541.78
467.218	16384.09
467.423	16164.96
467.628	16347.23
467.833	17080.4
468.038	16230.49
468.244	16007.27
468.449	16402.52
468.654	15949.92
468.859	16085.09
469.064	15599.72
469.269	15605.86
469.474	15112.3
469.679	15472.75
469.885	15241.32
470.09	15534.18
470.295	15392.87
470.5	14803.06
470.705	15065.2
470.91	14481.53
471.115	14583.93
471.32	14850.16
471.525	14768.24
471.73	14332.03
471.935	14194.81
472.139	13713.54
472.344	13922.43
472.549	13875.33
472.754	13813.89
472.959	13480.07
473.164	12963.98
473.369	13060.24
473.574	13385.87
473.778	13222.03
473.983	13334.67
474.188	13170.83
474.393	12765.33
474.598	12642.45
474.802	12396.7
475.007	12372.12
475.212	12384.41
475.417	11956.38
475.621	11950.24
475.826	11933.86
476.031	11673.76
476.235	11724.96
476.44	11866.27
476.645	11677.86
476.849	11634.85
477.054	11301.03
477.259	11057.32
477.463	11159.72
477.668	10803.38
477.872	11237.55
478.077	10922.16
478.282	10539.19
478.486	10641.59
478.691	10528.95
478.895	10678.45
479.1	10588.34
479.304	10383.54
479.509	10215.61
479.713	10455.22
479.918	10148.03
480.122	9902.27
480.326	10086.59
480.531	10125.5
480.735	9932.99
480.94	9932.99
481.144	10125.5
481.348	9822.4
481.553	9984.19
481.757	9664.71
481.961	9908.41
482.166	9722.05
482.37	9640.13
482.574	9564.36
482.778	9705.67
482.983	9763.01
483.187	9724.1
483.391	9783.49
483.595	9631.94
483.8	9492.68
484.004	9674.95
484.208	9789.63
484.412	9703.62
484.616	9717.95
484.821	9660.61
485.025	9468.1
485.229	9826.5
485.433	9722.05
485.637	9822.4
485.841	9525.44
486.045	9828.54
486.249	9588.93
486.453	9857.21
486.657	9525.44
486.861	9498.82
487.065	9607.36
487.269	9539.78
487.473	9560.26
487.677	9875.65
487.881	9826.5
488.085	9599.17
488.289	9578.69
488.493	9537.73
488.697	9683.14
488.901	9670.85
489.105	9683.14
489.309	9767.1
489.512	9797.82
489.716	9922.75
489.92	9744.58
490.124	9732.29
490.328	9963.71
490.531	9928.89
490.735	9953.47
490.939	9906.37
491.143	9939.13
491.346	9996.48
491.55	9918.65
491.754	9932.99
491.958	10150.07
492.161	10002.62
492.365	10330.3
492.569	10260.66
492.772	10143.93
492.976	10162.36
493.18	10336.44
493.383	10830
493.587	10469.56
493.79	10655.92
493.994	10479.8
494.197	10864.82
494.401	10977.45
494.605	10682.55
494.808	10819.76
495.012	10733.75
495.215	10975.41
495.419	11309.22
495.622	11165.87
495.825	11352.23
496.029	11178.15
496.232	11634.85
496.436	11546.79
496.639	11845.79
496.843	11657.38
497.046	11841.7
497.249	11901.09
497.453	12001.44
497.656	12206.24
497.859	12290.2
498.063	12241.05
498.266	12546.2
498.469	12974.22
498.673	12787.86
498.876	12937.36
499.079	13095.05
499.282	13248.65
499.485	13217.93
499.689	13531.27
499.892	13703.3
500.095	13641.86
500.298	13942.91
500.501	13844.61
500.705	14076.03
500.908	14325.88
501.111	14626.93
501.314	14739.57
501.517	14983.28
501.72	15069.3
501.923	15278.19
502.126	15130.73
502.329	15657.06
502.532	15765.6
502.735	15636.58
502.938	16195.68
503.141	16103.52
503.344	16175.2
503.547	16324.7
503.75	16556.12
503.953	16980.05
504.156	16910.42
504.359	16986.19
504.562	17229.9
504.765	17524.81
504.968	18006.08
505.17	17799.24
505.373	18030.66
505.576	18339.9
505.779	18397.24
505.982	18630.71
506.185	18833.46
506.387	19036.21
506.59	19238.96
506.793	19466.28
506.996	19501.1
507.198	19986.47
507.401	19931.17
507.604	20301.86
507.807	20647.96
508.009	20736.02
508.212	21041.17
508.415	21106.71
508.617	21243.92
508.82	21504.01
509.022	21420.05
509.225	22243.33
509.428	22409.22
509.63	22245.38
509.833	22040.58
510.035	22702.07
510.238	22720.51
510.44	23056.37
510.643	23310.32
510.845	23676.91
511.048	23615.47
511.25	23961.58
511.453	23850.99
511.655	24846.3
511.858	24453.09
512.06	24797.15
512.262	25544.66
512.465	24979.42
512.667	25509.84
512.87	25573.33
513.072	25679.82
513.274	26204.1
513.477	26419.14
513.679	26761.15
513.881	26785.72
514.084	27256.76
514.286	27273.14
514.488	27432.88
514.69	28307.37
514.893	28395.43
515.095	28401.57
515.297	28643.23
515.499	28473.25
515.701	28997.53
515.904	29380.5
516.106	29472.66
516.308	29804.43
516.51	29865.87
516.712	30201.74
516.914	30607.23
517.116	31102.84
517.318	30584.71
517.52	31195
517.722	31444.85
517.925	32014.19
518.127	32358.25
518.329	31850.35
518.531	32051.05
518.733	32866.14
518.935	33175.39
519.136	33081.18
519.338	33369.94
519.54	33607.51
519.742	33601.36
519.944	33986.38
520.146	34895.68
520.348	34590.53
520.55	34697.03
520.752	34940.74
520.954	35389.24
521.155	35290.94
521.357	35587.89
521.559	35819.31
521.761	36484.9
521.963	36515.62
522.164	36413.23
522.366	36640.55
522.568	37271.32
522.77	36847.4
522.971	37963.54
523.173	37388.06
523.375	37877.52
523.576	37857.04
523.778	37920.53
523.98	38620.94
524.181	38582.02
524.383	38360.84
524.584	39315.2
524.786	39227.13
524.988	39157.5
525.189	38960.9
525.391	39800.57
525.592	39675.64
525.794	40009.46
525.995	39886.58
526.197	40034.03
526.398	40582.89
526.6	40337.13
526.801	40636.14
527.003	40961.76
527.204	40599.27
527.406	41172.71
527.607	40972
527.808	41504.48
528.01	40918.76
528.211	41250.53
528.412	42059.48
528.614	41572.06
528.815	41760.47
529.016	42155.73
529.218	41549.53
529.419	42184.4
529.62	41991.89
529.822	41729.75
530.023	42225.36
530.224	42327.76
530.425	42182.35
530.626	42139.35
530.828	42311.38
531.029	43065.03
531.23	42395.34
531.431	42612.43
531.632	42471.12
531.833	42522.32
532.035	42475.21
532.236	42772.17
532.437	42919.62
532.638	42692.3
532.839	42985.16
533.04	42688.2
533.241	42352.34
533.442	43710.14
533.643	43155.14
533.844	43249.35
534.045	43120.32
534.246	42827.46
534.447	43273.92
534.648	43267.78
534.849	43226.82
535.05	42712.78
535.251	43345.6
535.451	43026.12
535.652	43222.72
535.853	42921.67
536.054	43241.15
536.255	43312.83
536.456	42594
536.657	43812.54
536.857	43396.8
537.058	43101.89
537.259	43433.66
537.46	43398.85
537.66	43052.74
537.861	43331.26
538.062	43249.35
538.263	42962.63
538.463	42688.2
538.664	43179.71
538.865	42919.62
539.065	43335.36
539.266	42766.02
539.466	43400.9
539.667	42811.08
539.868	43343.55
540.068	42964.68
540.269	42944.2
540.469	43374.27
540.67	42817.22
540.87	43005.64
541.071	43028.16
541.271	43032.26
541.472	43009.73
541.672	43036.36
541.873	43062.98
542.073	42534.6
542.274	43347.65
542.474	42751.69
542.675	42708.68
542.875	43124.42
543.075	42923.72
543.276	42522.32
543.476	43034.31
543.676	42802.89
543.877	42882.76
544.077	43359.94
544.277	43089.6
544.478	42788.55
544.678	43077.32
544.878	42741.45
545.078	42723.02
545.279	42415.82
545.479	42817.22
545.679	43099.84
545.879	42968.77
546.079	42616.52
546.28	42876.62
546.48	42389.2
546.68	42673.87
546.88	42637
547.08	42925.77
547.28	42491.6
547.48	41977.56
547.68	42933.96
547.88	42233.55
548.081	42966.73
548.281	42712.78
548.481	42630.86
548.681	42594
548.881	42467.02
549.081	42383.05
549.28	42217.17
549.48	42665.67
549.68	42274.51
549.88	42864.33
550.08	42266.32
550.28	42387.15
550.48	42215.12
550.68	42581.71
550.88	42282.7
551.08	42450.64
551.279	42342.1
551.479	41950.93
551.679	42299.09
551.879	42215.12
552.079	42440.4
552.278	41989.84
552.478	42233.55
552.678	42258.13
552.878	42460.88
553.077	42307.28
553.277	42157.78
553.477	42741.45
553.676	41828.06
553.876	42139.35
554.076	41647.83
554.275	41791.19
554.475	41584.35
554.674	42000.08
554.874	41983.7
555.074	41897.69
555.273	42057.43
555.473	42079.96
555.672	41832.15
555.872	41963.22
556.071	41961.17
556.271	41891.54
556.47	41973.46
556.67	41311.97
556.869	41541.34
557.068	41899.73
557.268	41488.09
557.467	41279.2
557.667	41467.61
557.866	41426.65
558.065	41287.39
558.265	41502.43
558.464	41125.6
558.663	41713.37
558.863	40697.58
559.062	41320.16
559.261	40691.43
559.461	41062.11
559.66	40244.98
559.859	40976.1
560.058	40707.82
560.258	41101.03
560.457	40615.66
560.656	40685.29
560.855	40795.88
561.054	40924.9
561.253	40804.07
561.453	40738.54
561.652	41025.25
561.851	40527.59
562.05	40333.04
562.249	40328.94
562.448	40337.13
562.647	40316.65
562.846	40148.72
563.045	40425.2
563.244	39689.98
563.443	40763.11
563.642	39829.24
563.841	40005.36
564.04	39704.31
564.239	40363.76
564.438	39501.56
564.637	39857.91
564.836	39814.9
565.035	39378.68
565.234	39542.52
565.432	39413.5
565.631	38973.19
565.83	39608.06
566.029	39112.45
566.228	39206.66
566.427	39069.44
566.625	39024.39
566.824	38405.9
567.023	39024.39
567.222	38285.07
567.42	39194.37
567.619	38694.66
567.818	38778.63
568.016	38407.95
568.215	38862.6
568.414	38246.16
568.612	38514.44
568.811	38436.62
569.01	38530.83
569.208	37531.42
569.407	38272.78
569.605	37625.62
569.804	38078.22
570.002	37392.15
570.201	37818.13
570.4	37601.05
570.598	37762.84
570.797	37730.07
570.995	37535.51
571.193	37379.87
571.392	37752.6
571.59	37343
571.789	37478.17
571.987	37472.03
572.186	36861.73
572.384	36968.23
572.582	37074.72
572.781	36871.97
572.979	36654.89
573.177	37158.69
573.376	36923.17
573.574	36185.9
573.772	36851.49
573.971	36312.88
574.169	36595.49
574.367	35876.66
574.565	36507.43
574.763	35999.54
574.962	36255.53
575.16	35757.88
575.358	36122.41
575.556	35567.41
575.754	35964.72
575.952	35587.89
576.151	35823.41
576.349	35086.14
576.547	35219.26
576.745	35354.43
576.943	35536.7
577.141	35131.2
577.339	35069.76
577.537	34926.4
577.735	35045.18
577.933	34971.46
578.131	34893.63
578.329	34414.41
578.527	34457.42
578.725	34680.64
578.923	34746.18
579.121	34207.56
579.319	34187.08
579.516	34746.18
579.714	34455.37
579.912	33937.23
580.11	34137.93
580.308	34137.93
580.506	33685.33
580.704	33552.21
580.901	33810.26
581.099	34187.08
581.297	33535.83
581.495	33484.63
581.692	33673.04
581.89	33167.2
582.088	33599.32
582.285	33185.63
582.483	33472.34
582.681	33443.67
582.878	33453.91
583.076	32608.1
583.274	33003.36
583.471	32700.26
583.669	33021.79
583.866	32515.94
584.064	32853.86
584.262	32153.45
584.459	32493.41
584.657	32284.52
584.854	32434.02
585.052	32028.52
585.249	31870.83
585.447	32116.59
585.644	31633.27
585.841	31799.15
586.039	31977.33
586.236	31612.79
586.434	31547.25
586.631	31586.16
586.828	31397.75
587.026	31356.79
587.223	31049.6
587.42	31256.44
587.618	30836.61
587.815	30914.43
588.012	31084.41
588.21	30769.02
588.407	31156.09
588.604	30861.18
588.801	30334.85
588.999	30670.72
589.196	30168.97
589.393	30228.36
589.59	30154.63
589.787	30476.16
589.984	30459.78
590.182	29804.43
590.379	29943.69
590.576	29769.62
590.773	29771.66
590.97	29706.13
591.167	29677.46
591.364	29185.94
591.561	29556.63
591.758	29237.14
591.955	29163.42
592.152	29214.62
592.349	29095.83
592.546	29048.73
592.743	29300.63
592.94	28766.11
593.137	28882.84
593.334	28745.63
593.531	28764.06
593.727	28323.75
593.924	28692.38
594.121	28309.41
594.318	28534.69
594.515	28141.48
594.712	28522.4
594.908	28065.71
595.105	28168.1
595.302	27778.99
595.499	27738.03
595.696	27637.68
595.892	27543.47
596.089	27312.05
596.286	27697.07
596.482	27228.09
596.679	27543.47
596.876	27389.88
597.072	27291.57
597.269	27451.31
597.466	27072.44
597.662	26722.24
597.859	26830.78
598.055	27121.59
598.252	26976.19
598.448	26716.09
598.645	26847.16
598.841	26281.92
599.038	26439.62
599.234	26566.59
599.431	25997.26
599.627	26085.32
599.824	26546.11
600.02	25864.14
600.217	26228.68
600.413	26417.09
600.609	25642.96
600.806	25933.77
601.002	25950.15
601.198	25520.08
601.395	25628.62
601.591	25532.37
601.787	25726.92
601.984	25231.32
602.18	25616.33
602.376	25219.03
602.572	25280.47
602.769	25272.28
602.965	24672.22
603.161	24960.98
603.357	24686.56
603.553	24508.38
603.75	24862.68
603.946	24436.7
604.142	24444.9
604.338	24248.29
604.534	24379.36
604.73	24387.55
604.926	24027.11
605.122	24260.58
605.318	24317.92
605.514	24182.76
605.71	23908.33
605.906	23826.41
606.102	23719.92
606.298	23646.19
606.494	23672.81
606.69	23844.84
606.886	23932.9
607.082	23359.47
607.278	23273.46
607.474	23322.61
607.67	23328.75
607.866	23019.51
608.062	23338.99
608.257	23191.54
608.453	23123.96
608.649	23207.92
608.845	22974.45
609.041	23068.66
609.236	23158.77
609.432	22880.25
609.628	22857.72
609.824	22880.25
610.019	22749.18
610.215	22597.63
610.411	22851.58
610.606	22540.29
610.802	22718.46
610.998	22433.79
611.193	22634.49
611.389	22456.32
611.584	22241.28
611.78	22157.32
611.976	22464.51
612.171	22259.71
612.367	22286.34
612.562	22345.73
612.758	21841.93
612.953	21669.9
613.149	22312.96
613.344	21684.23
613.539	22304.77
613.735	22040.58
613.93	22317.06
614.126	21594.12
614.321	22009.86
614.517	21717
614.712	21805.06
614.907	21608.46
615.103	21862.41
615.298	21428.24
615.493	21649.42
615.688	21422.09
615.884	21768.2
616.079	21155.86
616.274	21723.15
616.47	21258.26
616.665	21094.42
616.86	21014.55
617.055	21135.38
617.25	21221.39
617.445	21327.89
617.641	21067.8
617.836	21067.8
618.031	20981.78
618.226	21112.85
618.421	20918.29
618.616	21028.88
618.811	20410.4
619.006	20860.95
619.201	20371.49
619.396	20473.88
619.591	20195.36
619.786	20615.19
619.981	19998.76
620.176	20224.03
620.371	19873.83
620.566	20013.09
620.761	19884.07
620.956	20052
621.151	19484.72
621.346	19585.07
621.541	19560.49
621.735	19646.51
621.93	19349.55
622.125	19304.49
622.32	19195.95
622.515	19134.51
622.709	19085.36
622.904	19116.08
623.099	18917.43
623.294	18855.99
623.488	18409.53
623.683	18739.26
623.878	18507.83
624.072	18194.5
624.267	18214.98
624.462	18202.69
624.656	18010.18
624.851	17791.05
625.046	17950.79
625.24	17815.62
625.435	17535.05
625.629	17795.14
625.824	17397.84
626.018	17487.95
626.213	17262.67
626.407	17330.25
626.602	16842.84
626.796	17188.94
626.991	16980.05
627.185	17023.06
627.38	16922.71
627.574	16539.74
627.768	16617.56
627.963	16592.98
628.157	16205.92
628.352	16556.12
628.546	16152.67
628.74	16484.44
628.935	15999.07
629.129	16144.48
629.323	15919.2
629.517	15763.56
629.712	15847.52
629.906	15618.15
630.1	15433.83
630.294	15384.68
630.489	15272.04
630.683	15614.06
630.877	15339.63
631.071	15235.18
631.265	15229.04
631.459	14868.59
631.653	14846.07
631.848	14803.06
632.042	14823.54
632.236	15028.34
632.43	14626.93
632.624	14604.41
632.818	14545.02
633.012	14448.76
633.206	14143.61
633.4	14289.02
633.594	14231.68
633.788	14217.34
633.982	14162.05
634.176	14157.95
634.369	13930.62
634.563	13637.77
634.757	13918.34
634.951	13793.41
635.145	13584.52
635.339	13686.92
635.533	13326.47
635.726	13402.25
635.92	13287.56
636.114	13224.08
636.308	13408.39
636.501	13195.4
636.695	13144.2
636.889	13031.57
637.083	12886.16
637.276	12726.42
637.47	12918.93
637.664	12523.67
637.857	12630.16
638.051	12714.13
638.244	12877.97
638.438	12466.33
638.632	12310.68
638.825	12286.11
639.019	12230.81
639.212	12239
639.406	12144.8
639.599	12107.93
639.793	11942.05
639.986	12015.77
640.18	11831.46
640.373	11999.39
640.567	11649.19
640.76	11647.14
640.954	11532.45
641.147	11415.72
641.34	11538.6
641.534	11548.84
641.727	11401.38
641.92	11231.4
642.114	11188.39
642.307	11405.48
642.5	11092.14
642.694	11040.94
642.887	11135.15
643.08	11157.68
643.273	11004.08
643.467	10944.69
643.66	10877.1
643.853	10678.45
644.046	10805.42
644.239	10746.03
644.432	10459.32
644.626	10459.32
644.819	10268.86
645.012	10420.41
645.205	10465.46
645.398	10373.3
645.591	10219.71
645.784	10162.36
645.977	10049.72
646.17	10186.94
646.363	9859.26
646.556	10094.78
646.749	9959.61
646.942	10019
647.135	9912.51
647.328	9754.82
647.521	9679.04
647.714	9535.68
647.907	9619.65
648.099	9629.89
648.292	9519.3
648.485	9574.6
648.678	9447.62
648.871	9261.26
649.064	9167.05
649.256	9382.09
649.449	9246.92
649.642	9298.12
649.835	9222.34
650.027	8984.78
650.22	9148.62
650.413	9035.98
650.605	8949.96
650.798	8941.77
650.991	8831.18
651.183	8702.16
651.376	8827.09
651.568	8767.7
651.761	8630.48
651.954	8747.22
652.146	8546.51
652.339	8417.49
652.531	8399.06
652.724	8364.25
652.916	8319.19
653.109	8405.21
653.301	8388.82
653.494	8419.54
653.686	8122.59
653.879	8407.25
654.071	8128.73
654.263	8141.02
654.456	7964.89
654.648	8065.24
654.84	7704.8
655.033	7936.22
655.225	7772.38
655.417	7758.05
655.61	7862.49
655.802	7801.05
655.994	7899.36
656.186	7710.94
656.379	7688.42
656.571	7495.91
656.763	7567.59
656.955	7588.07
657.148	7428.32
657.34	7485.67
657.532	7416.04
657.724	7225.58
657.916	7268.58
658.108	7123.18
658.3	7256.29
658.492	7209.19
658.684	7131.37
658.876	7006.44
659.068	7012.59
659.26	7053.55
659.452	6967.53
659.644	7039.21
659.836	6889.71
660.028	6996.2
660.22	6852.84
660.412	6893.8
660.604	6719.73
660.796	6721.77
660.988	6426.87
661.18	6633.71
661.372	6598.9
661.563	6605.04
661.755	6430.96
661.947	6445.3
662.139	6369.52
662.331	6428.92
662.522	6353.14
662.714	6367.48
662.906	6230.26
663.097	6361.33
663.289	6320.37
663.481	6058.23
663.673	6269.17
663.864	6156.54
664.056	6091
664.247	6017.27
664.439	6043.9
664.631	6117.62
664.822	6029.56
665.014	6004.99
665.205	5947.64
665.397	5724.41
665.588	6009.08
665.78	5757.18
665.971	5822.72
666.163	5902.59
666.354	5691.65
666.546	5517.57
666.737	5613.82
666.929	5673.21
667.12	5701.89
667.311	5546.24
667.503	5558.53
667.694	5654.78
667.885	5626.11
668.077	5626.11
668.268	5427.46
668.459	5566.72
668.651	5572.86
668.842	5277.96
669.033	5290.24
669.224	5366.02
669.416	5331.2
669.607	5439.75
669.798	5218.57
669.989	5329.16
670.18	5306.63
670.371	5237
670.563	5226.76
670.754	5193.99
670.945	5206.28
671.136	5222.66
671.327	5134.6
671.518	5036.3
671.709	5114.12
671.9	5021.96
672.091	4985.1
672.282	4991.24
672.473	5056.78
672.664	5126.41
672.855	5001.48
673.046	4901.13
673.237	4958.47
673.428	4944.14
673.619	4784.4
673.809	4757.77
674	4800.78
674.191	4929.8
674.382	4845.84
674.573	4782.35
674.764	4768.01
674.954	4688.14
675.145	4604.18
675.336	4749.58
675.527	4679.95
675.717	4753.68
675.908	4733.2
676.099	4612.37
676.289	4479.25
676.48	4630.8
676.671	4610.32
676.861	4628.75
677.052	4487.44
677.243	4530.45
677.433	4630.8
677.624	4548.88
677.814	4385.04
678.005	4630.8
678.195	4421.91
678.386	4491.54
678.576	4436.24
678.767	4290.84
678.957	4450.58
679.148	4460.82
679.338	4317.46
679.529	4444.43
679.719	4376.85
679.909	4430.1
680.1	4337.94
680.29	4364.56
680.481	4219.16
680.671	4448.53
680.861	4374.8
681.052	4286.74
681.242	4348.18
681.432	4237.59
681.622	4258.07
681.813	4049.18
682.003	4319.51
682.193	4245.78
682.383	4210.97
682.573	4163.86
682.764	4122.9
682.954	4198.68
683.144	4116.76
683.334	4188.44
683.524	4194.58
683.714	4266.26
683.904	4081.94
684.094	4206.87
684.284	4165.91
684.474	4231.44
684.664	4098.33
684.854	3963.16
685.044	4092.18
685.234	4002.07
685.424	3858.71
685.614	4028.7
685.804	4006.17
685.994	3909.91
686.184	3985.69
686.374	3969.3
686.564	3903.77
686.753	4000.02
686.943	3856.67
687.133	3862.81
687.323	3778.84
687.513	3885.34
687.702	3860.76
687.892	3770.65
688.082	3903.77
688.272	3791.13
688.461	3893.53
688.651	3645.73
688.841	3703.07
689.03	3725.6
689.22	3723.55
689.41	3662.11
689.599	3567.9
689.789	3787.04
689.979	3668.25
690.168	3664.16
690.358	3619.1
690.547	3641.63
690.737	3485.98
690.926	3578.14
691.116	3578.14
691.305	3457.31
691.495	3432.74
691.684	3442.98
691.874	3434.78
692.063	3492.13
692.252	3377.44
692.442	3502.37
692.631	3461.41
692.82	3365.15
693.01	3332.39
693.199	3311.91
693.388	3307.81
693.578	3332.39
693.767	3399.97
693.956	3133.73
694.146	3125.54
694.335	3316
694.524	3225.89
694.713	3273
694.902	3166.5
695.092	3156.26
695.281	3047.72
695.47	3240.23
695.659	3068.2
695.848	3041.57
696.037	3109.16
696.226	3064.1
696.415	3076.39
696.604	3168.55
696.793	2980.14
696.982	3029.29
697.171	3078.44
697.36	2967.85
697.549	3066.15
697.738	2953.51
697.927	2980.14
698.116	3033.38
698.305	2926.89
698.494	3012.9
698.683	2971.94
698.872	2890.03
699.061	2971.94
699.25	2945.32
699.438	2935.08
699.627	2779.43
699.816	2881.83
700.005	2777.39
700.193	2824.49
700.382	2890.03
700.571	2861.35
700.76	2877.74
700.948	2930.98
701.137	2857.26
701.326	2808.11
701.514	2806.06
701.703	2828.59
701.892	2855.21
702.08	2855.21
702.269	2795.82
702.457	2791.72
702.646	2761
702.834	2709.8
703.023	2685.23
703.212	2830.63
703.4	2793.77
703.589	2703.66
703.777	2699.56
703.965	2744.62
704.154	2681.13
704.342	2677.04
704.531	2728.24
704.719	2646.32
704.907	2826.54
705.096	2674.99
705.284	2685.23
705.472	2650.41
705.661	2724.14
705.849	2699.56
706.037	2765.1
706.226	2707.76
706.414	2730.28
706.602	2742.57
706.79	2758.96
706.979	2525.49
707.167	2769.2
707.355	2560.3
707.543	2599.21
707.731	2601.26
707.919	2660.65
708.107	2543.92
708.296	2578.73
708.484	2732.33
708.672	2685.23
708.86	2599.21
709.048	2707.76
709.236	2705.71
709.424	2611.5
709.612	2748.72
709.8	2615.6
709.988	2578.73
710.176	2593.07
710.364	2644.27
710.551	2644.27
710.739	2701.61
710.927	2517.29
711.115	2644.27
711.303	2672.94
711.491	2685.23
711.679	2476.34
711.866	2601.26
712.054	2695.47
712.242	2496.82
712.43	2478.38
712.617	2728.24
712.805	2513.2
712.993	2726.19
713.181	2574.64
713.368	2605.36
713.556	2605.36
713.744	2623.79
713.931	2769.2
714.119	2613.55
714.306	2613.55
714.494	2677.04
714.682	2650.41
714.869	2523.44
715.057	2601.26
715.244	2507.06
715.432	2627.89
715.619	2728.24
715.807	2564.4
715.994	2814.25
716.182	2484.53
716.369	2568.49
716.556	2570.54
716.744	2588.97
716.931	2543.92
717.119	2455.86
717.306	2670.89
717.493	2556.21
717.681	2570.54
717.868	2631.98
718.055	2677.04
718.242	2634.03
718.43	2496.82
718.617	2556.21
718.804	2623.79
718.991	2605.36
719.179	2554.16
719.366	2568.49
719.553	2595.12
719.74	2578.73
719.927	2660.65
720.114	2687.28
720.301	2652.46
720.488	2527.53
720.676	2505.01
720.863	2629.93
721.05	2660.65
721.237	2625.84
721.424	2597.17
721.611	2550.06
721.798	2556.21
721.985	2453.81
722.172	2513.2
722.358	2519.34
722.545	2566.45
722.732	2517.29
722.919	2568.49
723.106	2570.54
723.293	2681.13
723.48	2539.82
723.667	2578.73
723.853	2513.2
724.04	2570.54
724.227	2545.97
724.414	2552.11
724.6	2558.25
724.787	2521.39
724.974	2580.78
725.161	2576.69
725.347	2591.02
725.534	2599.21
725.72	2558.25
725.907	2533.68
726.094	2457.9
726.28	2550.06
726.467	2576.69
726.653	2509.1
726.84	2558.25
727.027	2572.59
727.213	2609.45
727.4	2519.34
727.586	2554.16
727.773	2537.77
727.959	2545.97
728.145	2492.72
728.332	2572.59
728.518	2623.79
728.705	2584.88
728.891	2617.65
729.077	2642.22
729.264	2507.06
729.45	2578.73
729.636	2595.12
729.823	2496.82
730.009	2502.96
730.195	2439.47
730.382	2593.07
730.568	2513.2
730.754	2492.72
730.94	2572.59
731.126	2638.13
731.313	2568.49
731.499	2554.16
731.685	2539.82
731.871	2537.77
732.057	2603.31
732.243	2521.39
732.429	2582.83
732.615	2509.1
732.801	2531.63
732.987	2519.34
733.173	2566.45
733.359	2533.68
733.545	2488.62
733.731	2513.2
733.917	2373.94
734.103	2646.32
734.289	2519.34
734.475	2365.75
734.661	2562.35
734.847	2562.35
735.033	2566.45
735.219	2531.63
735.404	2427.18
735.59	2408.75
735.776	2496.82
735.962	2556.21
736.148	2545.97
736.333	2548.01
736.519	2439.47
736.705	2566.45
736.89	2486.58
737.076	2484.53
737.262	2435.38
737.447	2361.65
737.633	2480.43
737.819	2367.79
738.004	2359.6
738.19	2412.85
738.375	2396.46
738.561	2427.18
738.747	2437.42
738.932	2406.7
739.118	2429.23
739.303	2378.03
739.489	2443.57
739.674	2373.94
739.859	2337.07
740.045	2431.28
740.23	2353.46
740.416	2277.68
740.601	2375.99
740.786	2349.36
740.972	2271.54
741.157	2335.03
741.342	2222.39
741.528	2328.88
741.713	2273.59
741.898	2242.87
742.084	2292.02
742.269	2390.32
742.454	2292.02
742.639	2314.55
742.824	2146.61
743.01	2255.15
743.195	2302.26
743.38	2236.72
743.565	2165.04
743.75	2228.53
743.935	2210.1
744.12	2222.39
744.305	2134.32
744.49	2142.52
744.675	2238.77
744.86	2119.99
745.045	2134.32
745.23	2087.22
745.415	2130.23
745.6	2109.75
745.785	2060.6
745.97	2072.89
746.155	2101.56
746.34	2177.33
746.525	2109.75
746.71	2115.89
746.895	1978.68
747.079	2087.22
747.264	1970.49
747.449	2046.26
747.634	1947.96
747.819	2021.69
748.003	1870.14
748.188	1997.11
748.373	1950.01
748.557	1823.03
748.742	1913.14
748.927	1943.86
749.111	1894.71
749.296	1900.86
749.481	1919.29
749.665	1798.46
749.85	1872.18
750.034	1868.09
750.219	1825.08
750.404	1896.76
750.588	1755.45
750.773	1730.87
750.957	1861.94
751.141	1796.41
751.326	1814.84
751.51	1726.78
751.695	1704.25
751.879	1743.16
752.064	1777.98
752.248	1761.59
752.432	1751.35
752.617	1691.96
752.801	1751.35
752.985	1585.47
753.17	1513.79
753.354	1648.96
753.538	1648.96
753.722	1661.24
753.907	1605.95
754.091	1603.9
754.275	1655.1
754.459	1612.09
754.643	1538.37
754.828	1601.85
755.012	1442.11
755.196	1489.21
755.38	1483.07
755.564	1493.31
755.748	1571.13
755.932	1476.93
756.116	1513.79
756.3	1472.83
756.484	1411.39
756.668	1515.84
756.852	1374.53
757.036	1349.95
757.22	1362.24
757.404	1392.96
757.588	1460.54
757.772	1358.14
757.956	1317.19
758.14	1245.51
758.323	1272.13
758.507	1337.66
758.691	1333.57
758.875	1341.76
759.059	1306.95
759.242	1292.61
759.426	1292.61
759.61	1290.56
759.794	1265.99
759.977	1347.9
760.161	1384.77
760.345	1298.75
760.528	1308.99
760.712	1149.25
760.895	1251.65
761.079	1261.89
761.263	1292.61
761.446	1263.94
761.63	1177.92
761.813	1208.64
761.997	1210.69
762.18	1251.65
762.364	1161.54
762.547	1139.01
762.731	1153.35
762.914	1153.35
763.098	1124.68
763.281	1218.88
763.464	1210.69
763.648	1083.72
763.831	1151.3
764.015	1286.47
764.198	1083.72
764.381	1024.33
764.564	1059.14
764.748	1128.77
764.931	1018.18
765.114	1048.9
765.297	1134.92
765.481	1030.47
765.664	1139.01
765.847	1120.58
766.03	1085.76
766.213	1022.28
766.397	1012.04
766.58	1100.1
766.763	1020.23
766.946	977.22
767.129	1075.52
767.312	979.27
767.495	1069.38
767.678	1012.04
767.861	1059.14
768.044	1007.94
768.227	1038.66
768.41	975.17
768.593	1077.57
768.776	1003.85
768.959	1024.33
769.142	1071.43
769.324	1005.89
769.507	973.13
769.69	993.61
769.873	954.69
770.056	1026.37
770.239	874.82
770.421	938.31
770.604	905.54
770.787	926.02
770.97	952.65
771.152	897.35
771.335	885.06
771.518	940.36
771.7	907.59
771.883	883.02
772.066	883.02
772.248	874.82
772.431	895.3
772.613	840.01
772.796	907.59
772.978	948.55
773.161	905.54
773.343	979.27
773.526	837.96
773.708	883.02
773.891	868.68
774.073	870.73
774.256	874.82
774.438	901.45
774.621	786.76
774.803	792.91
774.985	823.62
775.168	801.1
775.35	827.72
775.532	846.15
775.715	809.29
775.897	844.1
776.079	751.95
776.261	876.87
776.444	743.75
776.626	764.23
776.808	825.67
776.99	723.27
777.173	782.67
777.355	823.62
777.537	700.75
777.719	784.71
777.901	762.19
778.083	719.18
778.265	725.32
778.447	653.64
778.629	805.19
778.811	723.27
778.993	784.71
779.175	772.43
779.357	694.6
779.539	665.93
779.721	692.55
779.903	708.94
780.085	665.93
780.267	581.96
780.449	633.16
780.631	639.31
780.812	653.64
780.994	633.16
781.176	663.88
781.358	575.82
781.54	618.83
781.721	624.97
781.903	594.25
782.085	647.5
782.267	584.01
782.448	526.67
782.63	571.72
782.812	565.58
782.993	481.61
783.175	538.96
783.357	584.01
783.538	543.05
783.72	551.24
783.901	528.72
784.083	561.48
784.264	643.4
784.446	577.87
784.627	508.24
784.809	610.64
784.99	588.11
785.172	575.82
785.353	444.75
785.535	506.19
785.716	491.85
785.897	577.87
786.079	487.76
786.26	557.39
786.441	559.44
786.623	594.25
786.804	498
786.985	465.23
787.167	506.19
787.348	567.63
787.529	506.19
787.71	459.09
787.891	567.63
788.073	389.46
788.254	446.8
788.435	479.57
788.616	346.45
788.797	405.84
788.978	479.57
789.159	416.08
789.34	379.22
789.522	366.93
789.703	381.26
789.884	377.17
790.065	403.79
790.246	364.88
790.427	399.7
790.607	432.46
790.788	348.5
790.969	342.35
791.15	454.99
791.331	434.51
791.512	434.51
791.693	401.74
791.874	387.41
792.054	454.99
792.235	401.74
792.416	391.5
792.597	418.13
792.778	328.02
792.958	371.02
793.139	397.65
793.32	375.12
793.5	344.4
793.681	399.7
793.862	463.18
794.042	321.87
794.223	276.82
794.404	289.1
794.584	289.1
794.765	319.82
794.945	321.87
795.126	358.74
795.306	321.87
795.487	373.07
795.667	325.97
795.848	235.86
796.028	338.26
796.209	401.74
796.389	340.3
796.57	297.3
796.75	338.26
796.93	280.91
797.111	293.2
797.291	289.1
797.471	323.92
797.652	317.78
797.832	299.34
798.012	330.06
798.192	338.26
798.373	303.44
798.553	219.47
798.733	239.95
798.913	194.9
799.093	221.52
799.274	262.48
799.454	221.52
799.634	268.63
799.814	256.34
799.994	309.58
800.174	262.48
800.354	328.02
800.534	272.72
800.714	346.45
800.894	278.87
801.074	219.47
801.254	264.53
801.434	225.62
801.614	239.95
801.794	266.58
801.974	543.05
802.154	250.19
802.334	344.4
802.514	268.63
802.693	244.05
802.873	274.77
803.053	340.3
803.233	278.87
803.413	237.91
803.592	158.03
803.772	176.47
803.952	299.34
804.131	233.81
804.311	250.19
804.491	278.87
804.67	223.57
804.85	227.67
805.03	305.49
805.209	285.01
805.389	170.32
805.568	258.39
805.748	153.94
805.928	237.91
806.107	256.34
806.287	194.9
806.466	203.09
806.646	268.63
806.825	201.04
807.004	233.81
807.184	174.42
807.363	201.04
807.543	188.75
807.722	211.28
807.901	162.13
808.081	231.76
808.26	227.67
808.439	186.71
808.619	239.95
808.798	229.71
808.977	213.33
809.156	246.1
809.336	252.24
809.515	227.67
809.694	203.09
809.873	172.37
810.052	227.67
810.231	221.52
810.411	145.75
810.59	180.56
810.769	215.38
810.948	207.19
811.127	155.99
811.306	168.27
811.485	123.22
811.664	278.87
811.843	174.42
812.022	127.32
812.201	192.85
812.38	190.8
812.559	164.18
812.737	129.36
812.916	176.47
813.095	164.18
813.274	186.71
813.453	72.02
813.632	242
813.811	153.94
813.989	131.41
814.168	217.43
814.347	168.27
814.526	162.13
814.704	164.18
814.883	186.71
815.062	174.42
815.24	221.52
815.419	174.42
815.598	162.13
815.776	168.27
815.955	141.65
816.133	47.44
816.312	119.12
816.49	141.65
816.669	127.32
816.847	153.94
817.026	166.23
817.204	141.65
817.383	166.23
817.561	149.84
817.74	176.47
817.918	96.6
818.097	69.97
818.275	141.65
818.453	182.61
818.632	86.36
818.81	129.36
818.988	188.75
819.167	153.94
819.345	115.03
819.523	141.65
819.701	182.61
819.879	106.84
820.058	86.36
820.236	127.32
820.414	129.36
820.592	166.23
820.77	211.28
820.948	182.61
821.127	80.21
821.305	112.98
821.483	123.22
821.661	141.65
821.839	194.9
822.017	92.5
822.195	137.56
822.373	100.69
822.551	76.12
822.729	117.08
822.907	168.27
823.085	106.84
823.262	139.6
823.44	110.93
823.618	201.04
823.796	117.08
823.974	92.5
824.152	139.6
824.329	115.03
824.507	153.94
824.685	135.51
824.863	162.13
825.04	92.5
825.218	119.12
825.396	112.98
825.574	143.7
825.751	141.65
825.929	139.6
826.107	104.79
826.284	102.74
826.462	106.84
826.639	194.9
826.817	94.55
826.994	174.42
827.172	104.79
827.349	108.88
827.527	67.92
827.704	72.02
827.882	96.6
828.059	127.32
828.237	10.58
828.414	80.21
828.591	133.46
828.769	88.4
828.946	76.12
829.124	143.7
829.301	63.83
829.478	92.5
829.655	131.41
829.833	186.71
830.01	43.35
830.187	141.65
830.364	121.17
830.542	59.73
830.719	149.84
830.896	145.75
831.073	108.88
831.25	127.32
831.427	88.4
831.604	80.21
831.782	100.69
831.959	104.79
832.136	129.36
832.313	106.84
832.49	39.25
832.667	106.84
832.844	31.06
833.021	39.25
833.198	47.44
833.374	115.03
833.551	80.21
833.728	145.75
833.905	86.36
834.082	33.11
834.259	149.84
834.436	57.68
834.612	74.07
834.789	82.26
834.966	121.17
835.143	108.88
835.319	80.21
835.496	82.26
835.673	108.88
835.85	133.46
836.026	16.73
836.203	63.83
836.38	37.2
836.556	63.83
836.733	45.4
836.909	78.16
837.086	86.36
837.262	74.07
837.439	72.02
837.616	88.4
837.792	24.92
837.968	94.55
838.145	47.44
838.321	92.5
838.498	145.75
838.674	108.88
838.851	86.36
839.027	26.96
839.203	-9.9
839.38	100.69
839.556	16.73
839.732	155.99
839.909	51.54
840.085	78.16
840.261	-40.62
840.437	94.55
840.614	59.73
840.79	115.03
840.966	63.83
841.142	133.46
841.318	59.73
841.494	51.54
841.671	22.87
841.847	133.46
842.023	24.92
842.199	57.68
842.375	31.06
842.551	47.44
842.727	67.92
842.903	78.16
843.079	49.49
843.255	49.49
843.431	12.63
843.607	78.16
843.783	106.84
843.959	125.27
844.134	112.98
844.31	67.92
844.486	104.79
844.662	-50.86
844.838	69.97
845.013	45.4
845.189	84.31
845.365	16.73
845.541	22.87
845.716	129.36
845.892	45.4
846.068	31.06
846.244	39.25
846.419	65.88
846.595	76.12
846.77	24.92
846.946	98.64
847.122	47.44
847.297	47.44
847.473	47.44
847.648	51.54
847.824	88.4
847.999	31.06
848.175	104.79
848.35	39.25
848.526	86.36
848.701	43.35
848.876	80.21
849.052	108.88
849.227	55.64
849.403	39.25
849.578	31.06
849.753	-22.19
849.929	76.12
850.104	18.77
850.279	80.21
850.454	123.22
850.63	94.55
850.805	29.01
850.98	104.79
851.155	47.44
851.33	24.92
851.505	51.54
851.681	112.98
851.856	41.3
852.031	80.21
852.206	22.87
852.381	18.77
852.556	26.96
852.731	4.44
852.906	96.6
853.081	84.31
853.256	65.88
853.431	84.31
853.606	82.26
853.781	14.68
853.956	12.63
854.131	47.44
854.305	63.83
854.48	-1.71
854.655	14.68
854.83	39.25
855.005	67.92
855.18	49.49
855.354	0.34
855.529	90.45
855.704	-28.33
855.879	47.44
856.053	-50.86
856.228	22.87
856.403	-1.71
856.577	67.92
856.752	39.25
856.926	43.35
857.101	31.06
857.276	33.11
857.45	80.21
857.625	112.98
857.799	88.4
857.974	65.88
858.148	80.21
858.323	-16.04
858.497	20.82
858.672	6.49
858.846	4.44
859.02	14.68
859.195	16.73
859.369	14.68
859.543	53.59
859.718	0.34
859.892	67.92
860.066	86.36
860.241	31.06
860.415	55.64
860.589	-30.38
860.763	26.96
860.938	137.56
861.112	57.68
861.286	6.49
861.46	45.4
861.634	98.64
861.808	108.88
861.982	-3.75
862.157	26.96
862.331	72.02
862.505	-7.85
862.679	80.21
862.853	-5.8
863.027	43.35
863.201	31.06
863.375	51.54
863.549	63.83
863.722	22.87
863.896	33.11
864.07	61.78
864.244	29.01
864.418	37.2
864.592	6.49
864.766	24.92
864.939	108.88
865.113	-28.33
865.287	63.83
865.461	16.73
865.634	10.58
865.808	47.44
865.982	12.63
866.156	-20.14
866.329	22.87
866.503	51.54
866.676	31.06
866.85	-16.04
867.024	47.44
867.197	18.77
867.371	0.34
867.544	-5.8
867.718	22.87
867.891	59.73
868.065	104.79
868.238	80.21
868.412	22.87
868.585	-7.85
868.759	-18.09
868.932	-13.99
869.105	29.01
869.279	55.64
869.452	82.26
869.625	24.92
869.799	67.92
869.972	45.4
870.145	26.96
870.319	26.96
870.492	51.54
870.665	-22.19
870.838	4.44
871.011	16.73
871.185	49.49
871.358	35.16
871.531	16.73
871.704	-46.76
871.877	63.83
872.05	51.54
872.223	31.06
872.396	47.44
872.569	37.2
872.742	10.58
872.915	-1.71
873.088	-50.86
873.261	-7.85
873.434	31.06
873.607	-13.99
873.78	26.96
873.953	18.77
874.126	35.16
874.299	10.58
874.471	-34.47
874.644	0.34
874.817	-18.09
874.99	26.96
875.163	51.54
875.335	35.16
875.508	2.39
875.681	37.2
875.853	-20.14
876.026	55.64
876.199	31.06
876.371	53.59
876.544	-7.85
876.717	49.49
876.889	22.87
877.062	16.73
877.234	-30.38
877.407	-44.71
877.579	67.92
877.752	74.07
877.924	-5.8
878.097	-9.9
878.269	-5.8
878.442	76.12
878.614	8.53
878.786	26.96
878.959	18.77
879.131	26.96
879.303	88.4
879.476	43.35
879.648	69.97
879.82	49.49
879.993	18.77
880.165	-30.38
880.337	47.44
880.509	-46.76
880.681	-36.52
880.854	-5.8
881.026	57.68
881.198	41.3
881.37	51.54
881.542	4.44
881.714	53.59
881.886	45.4
882.058	41.3
882.23	-22.19
882.402	-3.75
882.574	29.01
882.746	55.64
882.918	18.77
883.09	-20.14
883.262	6.49
883.434	0.34
883.606	20.82
883.778	29.01
883.95	90.45
884.122	33.11
884.293	22.87
884.465	-9.9
884.637	14.68
884.809	53.59
884.98	57.68
885.152	55.64
885.324	18.77
885.496	-22.19
885.667	53.59
885.839	26.96
886.011	22.87
886.182	2.39
886.354	22.87
886.525	-5.8
886.697	-11.95
886.869	-3.75
887.04	51.54
887.212	43.35
887.383	100.69
887.555	22.87
887.726	69.97
887.897	20.82
888.069	6.49
888.24	-3.75
888.412	4.44
888.583	-28.33
888.754	-1.71
888.926	-34.47
889.097	-20.14
889.268	39.25
889.44	55.64
889.611	22.87
889.782	-11.95
889.953	-52.91
890.125	31.06
890.296	12.63
890.467	35.16
890.638	-18.09
890.809	35.16
890.98	53.59
891.151	10.58
891.323	22.87
891.494	69.97
891.665	-38.57
891.836	82.26
892.007	0.34
892.178	55.64
892.349	10.58
892.52	12.63
892.691	31.06
892.862	-9.9
893.032	-26.28
893.203	4.44
893.374	22.87
893.545	10.58
893.716	-34.47
893.887	-18.09
894.057	84.31
894.228	49.49
894.399	24.92
894.57	-20.14
894.74	-61.1
894.911	4.44
895.082	-3.75
895.253	29.01
895.423	14.68
895.594	6.49
895.764	-44.71
895.935	8.53
896.106	-1.71
896.276	26.96
896.447	12.63
896.617	-26.28
896.788	12.63
896.958	-50.86
897.129	-77.48
897.299	-42.67
897.47	-3.75
897.64	112.98
897.81	-11.95
897.981	55.64
898.151	-87.72
898.322	39.25
898.492	59.73
898.662	-5.8
898.832	53.59
899.003	20.82
899.173	67.92
899.343	8.53
899.513	6.49
