Data from USB4F104151__77__11-37-39-327.txt Node

Date: Fri Mar 14 11:37:39 EDT 2025
User: louis
Spectrometer: USB4F10415
Trigger mode: 4
Integration Time (sec): 2.000000E-2
Scans to average: 1
Electric dark correction enabled: true
Nonlinearity correction enabled: false
Boxcar width: 0
XAxis mode: Wavelengths
Number of Pixels in Spectrum: 3648
>>>>>Begin Spectral Data<<<<<
178.204	-125.44
178.424	-125.44
178.644	-125.44
178.864	-39.42
179.084	-2.56
179.304	-8.7
179.524	-82.43
179.744	26.11
179.964	-0.51
180.184	22.02
180.404	-16.9
180.624	-84.48
180.844	26.11
181.064	58.88
181.283	-27.14
181.503	48.64
181.723	38.4
181.943	-51.71
182.163	122.37
182.383	22.02
182.602	79.36
182.822	38.4
183.042	30.21
183.262	-55.81
183.482	54.78
183.701	54.78
183.921	17.92
184.141	-6.66
184.361	95.74
184.58	24.06
184.8	-55.81
185.02	-23.04
185.239	126.46
185.459	-23.04
185.679	17.92
185.898	54.78
186.118	34.3
186.338	52.74
186.557	93.69
186.777	28.16
186.997	-27.14
187.216	44.54
187.436	54.78
187.655	73.21
187.875	83.45
188.095	-39.42
188.314	48.64
188.534	28.16
188.753	-41.47
188.973	24.06
189.192	30.21
189.412	-2.56
189.631	-51.71
189.851	1.54
190.07	54.78
190.29	56.83
190.509	-104.96
190.729	56.83
190.948	-29.18
191.168	146.94
191.387	28.16
191.607	7.68
191.826	26.11
192.045	17.92
192.265	5.63
192.484	-10.75
192.704	32.26
192.923	-37.38
193.142	71.17
193.362	-23.04
193.581	81.41
193.8	1.54
194.02	58.88
194.239	-29.18
194.458	83.45
194.678	3.58
194.897	62.98
195.116	52.74
195.335	73.21
195.555	-2.56
195.774	7.68
195.993	-25.09
196.212	13.82
196.432	26.11
196.651	-2.56
196.87	26.11
197.089	108.03
197.308	-8.7
197.528	69.12
197.747	-33.28
197.966	19.97
198.185	44.54
198.404	32.26
198.623	44.54
198.842	-6.66
199.062	67.07
199.281	62.98
199.5	-10.75
199.719	58.88
199.938	38.4
200.157	44.54
200.376	60.93
200.595	-55.81
200.814	44.54
201.033	-16.9
201.252	17.92
201.471	46.59
201.69	34.3
201.909	54.78
202.128	22.02
202.347	46.59
202.566	17.92
202.785	38.4
203.004	-23.04
203.223	19.97
203.442	91.65
203.661	-2.56
203.879	32.26
204.098	-6.66
204.317	15.87
204.536	93.69
204.755	44.54
204.974	38.4
205.193	9.73
205.411	44.54
205.63	-2.56
205.849	-10.75
206.068	-37.38
206.287	-6.66
206.505	15.87
206.724	52.74
206.943	44.54
207.162	50.69
207.381	54.78
207.599	15.87
207.818	11.78
208.037	32.26
208.255	-14.85
208.474	17.92
208.693	50.69
208.911	-23.04
209.13	9.73
209.349	15.87
209.567	17.92
209.786	89.6
210.005	24.06
210.223	38.4
210.442	-33.28
210.661	34.3
210.879	71.17
211.098	-39.42
211.316	52.74
211.535	52.74
211.753	-80.38
211.972	79.36
212.191	79.36
212.409	22.02
212.628	77.31
212.846	36.35
213.065	-57.86
213.283	65.02
213.502	36.35
213.72	81.41
213.938	79.36
214.157	22.02
214.375	26.11
214.594	15.87
214.812	75.26
215.031	-23.04
215.249	9.73
215.467	54.78
215.686	28.16
215.904	7.68
216.122	67.07
216.341	79.36
216.559	-29.18
216.778	7.68
216.996	67.07
217.214	71.17
217.432	44.54
217.651	46.59
217.869	108.03
218.087	46.59
218.306	9.73
218.524	34.3
218.742	-12.8
218.96	26.11
219.179	-16.9
219.397	48.64
219.615	48.64
219.833	28.16
220.051	42.5
220.27	58.88
220.488	17.92
220.706	28.16
220.924	62.98
221.142	73.21
221.36	32.26
221.578	65.02
221.796	46.59
222.015	73.21
222.233	32.26
222.451	54.78
222.669	-14.85
222.887	42.5
223.105	5.63
223.323	19.97
223.541	56.83
223.759	30.21
223.977	58.88
224.195	65.02
224.413	89.6
224.631	17.92
224.849	19.97
225.067	93.69
225.285	-45.57
225.503	1.54
225.721	7.68
225.939	38.4
226.157	24.06
226.375	62.98
226.592	67.07
226.81	30.21
227.028	26.11
227.246	103.93
227.464	79.36
227.682	26.11
227.9	95.74
228.117	32.26
228.335	32.26
228.553	13.82
228.771	32.26
228.989	22.02
229.206	58.88
229.424	17.92
229.642	103.93
229.86	-2.56
230.077	83.45
230.295	38.4
230.513	85.5
230.731	9.73
230.948	50.69
231.166	114.17
231.384	42.5
231.601	28.16
231.819	32.26
232.037	24.06
232.254	-6.66
232.472	19.97
232.689	44.54
232.907	22.02
233.125	17.92
233.342	15.87
233.56	-64
233.777	-0.51
233.995	-41.47
234.213	99.84
234.43	26.11
234.648	15.87
234.865	46.59
235.083	24.06
235.3	5.63
235.518	1.54
235.735	67.07
235.953	32.26
236.17	13.82
236.388	-14.85
236.605	7.68
236.822	52.74
237.04	110.08
237.257	-10.75
237.475	-6.66
237.692	75.26
237.909	67.07
238.127	77.31
238.344	52.74
238.562	103.93
238.779	15.87
238.996	-8.7
239.214	89.6
239.431	13.82
239.648	24.06
239.865	15.87
240.083	75.26
240.3	22.02
240.517	-72.19
240.735	58.88
240.952	-14.85
241.169	46.59
241.386	-2.56
241.603	13.82
241.821	9.73
242.038	50.69
242.255	73.21
242.472	-6.66
242.689	28.16
242.907	58.88
243.124	40.45
243.341	105.98
243.558	-0.51
243.775	15.87
243.992	-23.04
244.209	26.11
244.426	28.16
244.643	9.73
244.86	32.26
245.078	56.83
245.295	3.58
245.512	103.93
245.729	-14.85
245.946	-10.75
246.163	46.59
246.38	62.98
246.597	-8.7
246.814	114.17
247.031	128.51
247.248	62.98
247.464	-25.09
247.681	9.73
247.898	38.4
248.115	48.64
248.332	40.45
248.549	22.02
248.766	62.98
248.983	28.16
249.2	77.31
249.417	89.6
249.633	81.41
249.85	56.83
250.067	38.4
250.284	34.3
250.501	-2.56
250.717	17.92
250.934	34.3
251.151	58.88
251.368	71.17
251.585	5.63
251.801	28.16
252.018	22.02
252.235	32.26
252.451	-18.94
252.668	58.88
252.885	91.65
253.102	32.26
253.318	34.3
253.535	-47.62
253.752	56.83
253.968	62.98
254.185	30.21
254.401	108.03
254.618	-6.66
254.835	85.5
255.051	30.21
255.268	-55.81
255.484	38.4
255.701	13.82
255.917	17.92
256.134	-12.8
256.351	9.73
256.567	-4.61
256.784	24.06
257	5.63
257.217	24.06
257.433	30.21
257.65	3.58
257.866	40.45
258.082	-20.99
258.299	-16.9
258.515	62.98
258.732	40.45
258.948	7.68
259.165	89.6
259.381	-0.51
259.597	46.59
259.814	22.02
260.03	13.82
260.246	-25.09
260.463	-8.7
260.679	-10.75
260.895	30.21
261.112	26.11
261.328	56.83
261.544	42.5
261.761	99.84
261.977	-14.85
262.193	73.21
262.409	3.58
262.626	36.35
262.842	-6.66
263.058	91.65
263.274	-6.66
263.49	93.69
263.707	73.21
263.923	69.12
264.139	-10.75
264.355	15.87
264.571	24.06
264.787	-23.04
265.004	116.22
265.22	17.92
265.436	-25.09
265.652	22.02
265.868	112.13
266.084	32.26
266.3	-2.56
266.516	34.3
266.732	38.4
266.948	-66.05
267.164	9.73
267.38	-4.61
267.596	7.68
267.812	89.6
268.028	-37.38
268.244	9.73
268.46	54.78
268.676	58.88
268.892	24.06
269.108	-8.7
269.324	75.26
269.54	26.11
269.756	17.92
269.972	54.78
270.188	-0.51
270.403	-59.9
270.619	65.02
270.835	42.5
271.051	24.06
271.267	38.4
271.483	46.59
271.698	50.69
271.914	62.98
272.13	42.5
272.346	67.07
272.562	24.06
272.777	91.65
272.993	89.6
273.209	-45.57
273.425	93.69
273.64	-8.7
273.856	58.88
274.072	46.59
274.287	24.06
274.503	-8.7
274.719	9.73
274.934	22.02
275.15	-35.33
275.366	15.87
275.581	5.63
275.797	17.92
276.012	-31.23
276.228	56.83
276.444	-27.14
276.659	40.45
276.875	-10.75
277.09	32.26
277.306	44.54
277.521	13.82
277.737	81.41
277.952	-2.56
278.168	97.79
278.383	42.5
278.599	142.85
278.814	36.35
279.03	26.11
279.245	46.59
279.461	73.21
279.676	48.64
279.892	62.98
280.107	81.41
280.322	58.88
280.538	-6.66
280.753	24.06
280.969	62.98
281.184	-10.75
281.399	108.03
281.615	-18.94
281.83	99.84
282.045	65.02
282.26	54.78
282.476	17.92
282.691	67.07
282.906	65.02
283.122	34.3
283.337	15.87
283.552	81.41
283.767	48.64
283.983	-14.85
284.198	-43.52
284.413	103.93
284.628	40.45
284.843	5.63
285.058	38.4
285.274	87.55
285.489	85.5
285.704	22.02
285.919	17.92
286.134	-2.56
286.349	28.16
286.564	1.54
286.779	83.45
286.995	38.4
287.21	-94.72
287.425	7.68
287.64	46.59
287.855	134.65
288.07	44.54
288.285	140.8
288.5	58.88
288.715	79.36
288.93	67.07
289.145	67.07
289.36	71.17
289.575	42.5
289.79	56.83
290.004	26.11
290.219	22.02
290.434	-18.94
290.649	22.02
290.864	-10.75
291.079	46.59
291.294	-53.76
291.509	32.26
291.724	-29.18
291.938	40.45
292.153	67.07
292.368	38.4
292.583	85.5
292.798	71.17
293.012	38.4
293.227	34.3
293.442	103.93
293.657	28.16
293.871	42.5
294.086	28.16
294.301	71.17
294.516	-6.66
294.73	85.5
294.945	-20.99
295.16	19.97
295.374	101.89
295.589	50.69
295.804	-2.56
296.018	17.92
296.233	60.93
296.447	17.92
296.662	13.82
296.877	116.22
297.091	75.26
297.306	-12.8
297.52	24.06
297.735	40.45
297.949	46.59
298.164	91.65
298.378	114.17
298.593	-20.99
298.807	24.06
299.022	1.54
299.236	24.06
299.451	44.54
299.665	87.55
299.88	93.69
300.094	42.5
300.309	85.5
300.523	50.69
300.737	9.73
300.952	-6.66
301.166	11.78
301.381	71.17
301.595	7.68
301.809	-4.61
302.024	9.73
302.238	52.74
302.452	65.02
302.667	34.3
302.881	52.74
303.095	65.02
303.309	46.59
303.524	13.82
303.738	24.06
303.952	-35.33
304.166	77.31
304.381	1.54
304.595	122.37
304.809	44.54
305.023	79.36
305.237	130.56
305.452	42.5
305.666	85.5
305.88	75.26
306.094	48.64
306.308	46.59
306.522	71.17
306.736	-8.7
306.95	40.45
307.164	69.12
307.379	17.92
307.593	48.64
307.807	116.22
308.021	24.06
308.235	62.98
308.449	79.36
308.663	62.98
308.877	81.41
309.091	108.03
309.305	67.07
309.519	-18.94
309.733	46.59
309.947	24.06
310.161	58.88
310.374	60.93
310.588	-8.7
310.802	24.06
311.016	-6.66
311.23	36.35
311.444	7.68
311.658	79.36
311.872	5.63
312.085	73.21
312.299	40.45
312.513	15.87
312.727	5.63
312.941	3.58
313.154	128.51
313.368	83.45
313.582	44.54
313.796	34.3
314.009	48.64
314.223	95.74
314.437	54.78
314.651	58.88
314.864	-4.61
315.078	7.68
315.292	-6.66
315.505	28.16
315.719	95.74
315.933	38.4
316.146	52.74
316.36	26.11
316.573	83.45
316.787	-14.85
317.001	-51.71
317.214	9.73
317.428	11.78
317.641	22.02
317.855	-8.7
318.068	-49.66
318.282	95.74
318.495	91.65
318.709	79.36
318.922	32.26
319.136	34.3
319.349	67.07
319.563	1.54
319.776	134.65
319.99	52.74
320.203	28.16
320.417	30.21
320.63	50.69
320.843	69.12
321.057	1.54
321.27	22.02
321.483	50.69
321.697	38.4
321.91	42.5
322.124	77.31
322.337	50.69
322.55	22.02
322.763	46.59
322.977	44.54
323.19	26.11
323.403	54.78
323.617	91.65
323.83	103.93
324.043	42.5
324.256	50.69
324.469	7.68
324.683	134.65
324.896	89.6
325.109	22.02
325.322	-53.76
325.535	97.79
325.748	75.26
325.962	-10.75
326.175	-33.28
326.388	118.27
326.601	50.69
326.814	-16.9
327.027	120.32
327.24	34.3
327.453	22.02
327.666	71.17
327.879	110.08
328.092	52.74
328.305	81.41
328.518	75.26
328.731	50.69
328.944	15.87
329.157	-12.8
329.37	79.36
329.583	103.93
329.796	7.68
330.009	54.78
330.222	-23.04
330.435	28.16
330.648	87.55
330.861	-4.61
331.073	11.78
331.286	40.45
331.499	93.69
331.712	44.54
331.925	79.36
332.138	62.98
332.35	26.11
332.563	50.69
332.776	69.12
332.989	30.21
333.202	52.74
333.414	24.06
333.627	60.93
333.84	11.78
334.053	58.88
334.265	34.3
334.478	1.54
334.691	30.21
334.903	122.37
335.116	73.21
335.329	58.88
335.541	42.5
335.754	65.02
335.966	-33.28
336.179	40.45
336.392	17.92
336.604	26.11
336.817	69.12
337.029	58.88
337.242	42.5
337.454	83.45
337.667	-0.51
337.88	112.13
338.092	46.59
338.305	81.41
338.517	-8.7
338.729	65.02
338.942	114.17
339.154	19.97
339.367	93.69
339.579	120.32
339.792	85.5
340.004	-33.28
340.217	34.3
340.429	-4.61
340.641	22.02
340.854	54.78
341.066	101.89
341.278	9.73
341.491	54.78
341.703	-0.51
341.915	73.21
342.128	56.83
342.34	91.65
342.552	71.17
342.764	15.87
342.977	22.02
343.189	120.32
343.401	42.5
343.613	36.35
343.826	77.31
344.038	36.35
344.25	17.92
344.462	11.78
344.674	-20.99
344.886	38.4
345.099	54.78
345.311	-43.52
345.523	48.64
345.735	9.73
345.947	24.06
346.159	77.31
346.371	22.02
346.583	87.55
346.795	73.21
347.007	-41.47
347.219	38.4
347.431	34.3
347.643	44.54
347.855	-10.75
348.067	50.69
348.279	116.22
348.491	32.26
348.703	40.45
348.915	67.07
349.127	-18.94
349.339	9.73
349.551	65.02
349.763	54.78
349.975	42.5
350.187	167.42
350.399	28.16
350.61	87.55
350.822	1.54
351.034	91.65
351.246	-16.9
351.458	73.21
351.669	17.92
351.881	65.02
352.093	71.17
352.305	101.89
352.517	15.87
352.728	30.21
352.94	-2.56
353.152	65.02
353.363	30.21
353.575	54.78
353.787	73.21
353.999	62.98
354.21	50.69
354.422	99.84
354.633	103.93
354.845	79.36
355.057	15.87
355.268	56.83
355.48	112.13
355.692	9.73
355.903	11.78
356.115	11.78
356.326	22.02
356.538	81.41
356.749	40.45
356.961	50.69
357.172	9.73
357.384	-35.33
357.595	77.31
357.807	60.93
358.018	95.74
358.23	3.58
358.441	56.83
358.653	91.65
358.864	-35.33
359.075	-29.18
359.287	42.5
359.498	52.74
359.709	-23.04
359.921	65.02
360.132	19.97
360.344	42.5
360.555	58.88
360.766	126.46
360.977	60.93
361.189	83.45
361.4	15.87
361.611	87.55
361.823	56.83
362.034	11.78
362.245	9.73
362.456	130.56
362.667	108.03
362.879	54.78
363.09	44.54
363.301	30.21
363.512	65.02
363.723	73.21
363.935	50.69
364.146	50.69
364.357	26.11
364.568	1.54
364.779	3.58
364.99	85.5
365.201	50.69
365.412	-8.7
365.623	50.69
365.834	75.26
366.045	65.02
366.256	130.56
366.467	54.78
366.678	58.88
366.889	58.88
367.1	40.45
367.311	65.02
367.522	38.4
367.733	46.59
367.944	91.65
368.155	87.55
368.366	26.11
368.577	-2.56
368.788	116.22
368.999	9.73
369.209	99.84
369.42	50.69
369.631	132.61
369.842	95.74
370.053	54.78
370.264	48.64
370.474	24.06
370.685	30.21
370.896	22.02
371.107	87.55
371.317	101.89
371.528	54.78
371.739	71.17
371.95	120.32
372.16	77.31
372.371	28.16
372.582	71.17
372.792	95.74
373.003	60.93
373.214	134.65
373.424	-29.18
373.635	54.78
373.846	79.36
374.056	40.45
374.267	44.54
374.477	40.45
374.688	95.74
374.898	3.58
375.109	56.83
375.319	28.16
375.53	81.41
375.74	48.64
375.951	89.6
376.161	54.78
376.372	1.54
376.582	69.12
376.793	42.5
377.003	69.12
377.214	108.03
377.424	144.89
377.635	79.36
377.845	26.11
378.055	97.79
378.266	95.74
378.476	130.56
378.686	99.84
378.897	73.21
379.107	108.03
379.317	75.26
379.528	34.3
379.738	83.45
379.948	9.73
380.158	71.17
380.369	30.21
380.579	54.78
380.789	118.27
380.999	26.11
381.21	138.75
381.42	87.55
381.63	54.78
381.84	138.75
382.05	56.83
382.261	83.45
382.471	114.17
382.681	-41.47
382.891	50.69
383.101	112.13
383.311	77.31
383.521	42.5
383.731	56.83
383.941	83.45
384.151	89.6
384.361	97.79
384.571	36.35
384.781	13.82
384.991	95.74
385.201	73.21
385.411	71.17
385.621	32.26
385.831	-25.09
386.041	-31.23
386.251	67.07
386.461	5.63
386.671	110.08
386.881	34.3
387.091	79.36
387.301	101.89
387.511	97.79
387.72	110.08
387.93	67.07
388.14	-2.56
388.35	-16.9
388.56	30.21
388.769	99.84
388.979	46.59
389.189	42.5
389.399	105.98
389.609	36.35
389.818	142.85
390.028	103.93
390.238	22.02
390.447	79.36
390.657	36.35
390.867	56.83
391.076	42.5
391.286	28.16
391.496	101.89
391.705	50.69
391.915	128.51
392.125	50.69
392.334	62.98
392.544	140.8
392.753	114.17
392.963	87.55
393.172	101.89
393.382	42.5
393.591	136.7
393.801	124.41
394.01	118.27
394.22	46.59
394.429	81.41
394.639	114.17
394.848	30.21
395.058	144.89
395.267	75.26
395.477	161.28
395.686	122.37
395.895	103.93
396.105	167.42
396.314	148.99
396.524	212.48
396.733	120.32
396.942	95.74
397.152	93.69
397.361	181.76
397.57	132.61
397.78	79.36
397.989	65.02
398.198	173.57
398.407	99.84
398.617	169.47
398.826	128.51
399.035	103.93
399.244	151.04
399.453	177.66
399.663	144.89
399.872	140.8
400.081	103.93
400.29	179.71
400.499	112.13
400.708	87.55
400.917	91.65
401.127	171.52
401.336	73.21
401.545	58.88
401.754	138.75
401.963	165.37
402.172	200.19
402.381	153.09
402.59	138.75
402.799	155.13
403.008	132.61
403.217	185.85
403.426	163.33
403.635	216.57
403.844	185.85
404.053	108.03
404.262	132.61
404.471	181.76
404.68	120.32
404.888	157.18
405.097	202.24
405.306	181.76
405.515	165.37
405.724	161.28
405.933	159.23
406.142	122.37
406.35	228.86
406.559	161.28
406.768	226.81
406.977	263.68
407.185	179.71
407.394	269.82
407.603	237.05
407.812	214.52
408.02	208.38
408.229	263.68
408.438	259.58
408.646	245.24
408.855	288.25
409.064	259.58
409.272	280.06
409.481	378.36
409.69	327.16
409.898	273.92
410.107	374.27
410.315	318.97
410.524	341.5
410.733	318.97
410.941	386.55
411.15	386.55
411.358	372.22
411.567	540.15
411.775	554.49
411.984	386.55
412.192	450.04
412.401	458.23
412.609	570.87
412.818	527.86
413.026	476.66
413.234	593.4
413.443	536.06
413.651	550.39
413.86	620.02
414.068	585.21
414.276	667.13
414.485	513.53
414.693	710.13
414.901	828.92
415.11	781.81
415.318	728.56
415.526	814.58
415.734	775.67
415.943	818.68
416.151	892.4
416.359	796.15
416.567	959.99
416.776	853.49
416.984	1019.38
417.192	966.13
417.4	1148.4
417.608	1062.38
417.817	1074.67
418.025	1076.72
418.233	1267.18
418.441	1037.81
418.649	1291.76
418.857	1302
419.065	1377.77
419.273	1316.33
419.481	1416.68
419.689	1480.17
419.897	1555.94
420.105	1562.09
420.313	1652.2
420.521	1678.82
420.729	1717.73
420.937	1828.32
421.145	1838.56
421.353	1816.04
421.561	2037.22
421.769	2158.05
421.977	2227.68
422.185	2176.48
422.393	2252.25
422.601	2274.78
422.809	2436.57
423.017	2395.61
423.224	2475.48
423.432	2641.37
423.64	2713.05
423.848	2762.2
424.056	2807.25
424.263	3046.87
424.471	3014.1
424.679	3081.68
424.887	3298.77
425.094	3268.05
425.302	3290.57
425.51	3491.27
425.718	3589.58
425.925	3636.68
426.133	3626.44
426.341	3810.76
426.548	4066.75
426.756	4027.84
426.964	4087.23
427.171	4441.53
427.379	4570.55
427.586	4488.64
427.794	4634.04
428.001	5084.59
428.209	5227.95
428.417	5035.44
428.624	5399.98
428.832	5539.24
429.039	5442.99
429.247	5291.44
429.454	6026.66
429.662	6243.74
429.869	6010.28
430.076	6311.33
430.284	6143.39
430.491	6411.68
430.699	6938.01
430.906	6870.42
431.114	7056.79
431.321	7044.5
431.528	7320.98
431.736	7593.36
431.943	7986.57
432.15	7923.08
432.358	7749
432.565	8336.77
432.772	8179.08
432.979	8805.75
433.187	9031.03
433.394	8985.97
433.601	9457.01
433.808	9620.85
434.016	9346.42
434.223	9993.58
434.43	10569.05
434.637	10341.73
434.844	10974.55
435.052	11509.07
435.259	11144.53
435.466	11453.78
435.673	11124.05
435.88	11799.88
436.087	12465.47
436.294	12643.65
436.501	12174.66
436.708	12432.71
436.915	12834.11
437.122	13415.73
437.329	13524.27
437.537	13825.33
437.743	14107.94
437.95	13843.76
438.157	14767.39
438.364	14939.42
438.571	15027.48
438.778	14964
438.985	16631.04
439.192	16098.57
439.399	16311.56
439.606	16123.15
439.813	17097.98
440.02	17988.85
440.227	17870.06
440.433	17487.09
440.64	18283.75
440.847	18035.95
441.054	18529.51
441.261	19573.97
441.467	19330.27
441.674	19860.69
441.881	20669.64
442.088	20241.61
442.294	20423.88
442.501	21036.22
442.708	20923.58
442.914	22211.76
443.121	23014.56
443.328	22512.81
443.534	23995.54
443.741	23391.39
443.948	23116.96
444.154	24540.3
444.361	24489.1
444.568	24808.58
444.774	24818.82
444.981	25177.22
445.187	25810.04
445.394	26834.02
445.6	26258.54
445.807	29062.21
446.013	27880.53
446.22	28226.64
446.426	29310.02
446.633	29867.06
446.839	30346.29
447.046	29920.31
447.252	31302.69
447.459	31202.34
447.665	31003.69
447.871	32357.39
448.078	33827.84
448.284	32060.44
448.491	32898.06
448.697	34245.62
448.903	34829.29
449.11	34776.05
449.316	34417.65
449.522	34919.4
449.728	35687.39
449.935	36137.94
450.141	36084.7
450.347	37217.22
450.553	35832.8
450.76	36094.94
450.966	37370.82
451.172	36965.32
451.378	37612.48
451.584	37352.39
451.791	38278.07
451.997	38022.08
452.203	38257.59
452.409	38206.39
452.615	38386.61
452.821	36768.72
453.027	36281.3
453.233	38456.25
453.44	36867.02
453.646	37374.92
453.852	37759.94
454.058	38030.27
454.264	36801.49
454.47	37989.31
454.676	36738
454.882	38251.45
455.088	34745.33
455.294	35202.02
455.5	35748.83
455.705	36082.65
455.911	34786.29
456.117	33991.67
456.323	33471.49
456.529	32005.14
456.735	33520.64
456.941	32232.47
457.147	31884.31
457.352	31036.45
457.558	30536.75
457.764	30807.08
457.97	30121.01
458.176	29129.8
458.381	29385.79
458.587	28124.24
458.793	28222.55
458.999	26422.38
459.204	28396.62
459.41	27456.61
459.616	26063.99
459.821	25629.82
460.027	25517.18
460.233	25150.59
460.438	24112.27
460.644	24444.04
460.85	23100.58
461.055	22596.78
461.261	22928.55
461.466	21214.4
461.672	20528.33
461.878	22035.63
462.083	20301
462.289	20217.04
462.494	19940.56
462.7	19016.93
462.905	18820.32
463.111	19309.79
463.316	19172.57
463.522	18672.87
463.727	18662.63
463.932	18842.85
464.138	18480.36
464.343	18715.87
464.549	17972.46
464.754	18758.88
464.959	18488.55
465.165	18326.76
465.37	17339.64
465.575	17327.35
465.781	18011.37
465.986	17794.29
466.191	17190.14
466.397	16821.5
466.602	16112.91
466.807	17009.92
467.012	16854.27
467.218	16936.19
467.423	16600.32
467.628	16608.51
467.833	17216.76
468.038	16628.99
468.244	16301.32
468.449	16788.74
468.654	16112.91
468.859	16086.28
469.064	16008.46
469.269	15254.81
469.474	15582.48
469.679	15926.54
469.885	15258.9
470.09	15609.11
470.295	15490.32
470.5	14916.89
470.705	15068.44
470.91	14771.49
471.115	14933.28
471.32	14851.36
471.525	14654.75
471.73	14409
471.935	14406.95
472.139	14007.59
472.344	14243.11
472.549	14224.68
472.754	13796.65
472.959	13643.06
473.164	13051.19
473.369	13143.35
473.574	13804.85
473.778	13413.68
473.983	13221.17
474.188	13452.59
474.393	12715.33
474.598	12799.29
474.802	12602.69
475.007	12608.83
475.212	12461.38
475.417	11795.79
475.621	12088.65
475.826	12303.68
476.031	11990.35
476.235	11709.77
476.44	11980.11
476.645	11603.28
476.849	11720.01
477.054	11441.49
477.259	11148.63
477.463	11167.06
477.668	10812.76
477.872	11144.53
478.077	10896.73
478.282	10628.45
478.486	10767.71
478.691	10708.32
478.895	10362.21
479.1	10458.46
479.304	10546.53
479.509	10153.32
479.713	10364.26
479.918	10204.52
480.122	9966.95
480.326	10345.83
480.531	10229.09
480.735	9839.98
480.94	10003.82
481.144	10235.24
481.348	9667.95
481.553	9897.32
481.757	9694.57
481.961	9676.14
482.166	10024.3
482.37	9774.44
482.574	9647.47
482.778	9694.57
482.983	9928.04
483.187	9635.18
483.391	9833.83
483.595	9610.61
483.8	9344.37
484.004	9676.14
484.208	9686.38
484.412	9622.89
484.616	9561.45
484.821	9753.96
485.025	9506.16
485.229	9553.26
485.433	9766.25
485.637	9602.41
485.841	9641.32
486.045	9563.5
486.249	9469.3
486.453	9516.4
486.657	9626.99
486.861	9749.87
487.065	9401.71
487.269	9450.86
487.473	9330.03
487.677	9512.3
487.881	9655.66
488.085	9610.61
488.289	9710.96
488.493	9534.83
488.697	9598.32
488.901	9670
489.105	9710.96
489.309	9899.37
489.512	9790.83
489.716	9801.07
489.92	9626.99
490.124	9895.27
490.328	9805.16
490.531	9641.32
490.735	9827.69
490.939	9891.18
491.143	9805.16
491.346	9774.44
491.55	10018.15
491.754	10044.77
491.958	10175.84
492.161	10012.01
492.365	10298.72
492.569	10071.4
492.772	10032.49
492.976	10165.6
493.18	10394.98
493.383	10372.45
493.587	10409.31
493.79	10423.65
493.994	10450.27
494.197	10589.53
494.401	10474.85
494.605	10437.98
494.808	10964.31
495.012	10712.41
495.215	10913.11
495.419	11093.33
495.622	10898.78
495.825	10896.73
496.029	11132.25
496.232	11359.57
496.436	11162.97
496.639	11568.46
496.843	11801.93
497.046	11662.67
497.249	11740.49
497.453	11916.62
497.656	11945.29
497.859	12051.78
498.063	12021.06
498.266	12246.34
498.469	12193.09
498.673	12324.16
498.876	12551.49
499.079	13036.86
499.282	12780.86
499.485	13221.17
499.689	13190.45
499.892	13149.5
500.095	13507.89
500.298	13724.97
500.501	13483.31
500.705	13972.78
500.908	14001.45
501.111	14249.25
501.314	14564.64
501.517	14593.31
501.72	14673.18
501.923	14556.45
502.126	15172.89
502.329	15097.11
502.532	15310.1
502.735	15308.05
502.938	15758.61
503.141	15727.89
503.344	15979.79
503.547	15758.61
503.75	16254.22
503.953	16432.39
504.156	16672
504.359	16715.01
504.562	16751.87
504.765	16932.09
504.968	17345.78
505.17	17407.22
505.373	17446.13
505.576	17652.98
505.779	17972.46
505.982	18216.17
506.185	18410.73
506.387	18529.51
506.59	18570.47
506.793	18699.49
506.996	18779.36
507.198	19444.95
507.401	19234.01
507.604	19657.94
507.807	19758.29
508.009	19858.64
508.212	20147.4
508.415	20214.99
508.617	20995.26
508.82	20845.76
509.022	20698.31
509.225	21132.48
509.428	21277.88
509.63	21826.74
509.833	21580.98
510.035	21861.55
510.238	22041.78
510.44	22303.92
510.643	22482.09
510.845	22783.14
511.048	22588.58
511.25	23178.4
511.453	23055.52
511.655	24073.36
511.858	23213.21
512.06	23831.7
512.262	23973.01
512.465	24056.98
512.667	24695.94
512.87	24712.33
513.072	24654.98
513.274	25128.06
513.477	25640.06
513.679	25732.22
513.881	26047.6
514.084	26311.79
514.286	26223.73
514.488	26344.56
514.69	27169.89
514.893	27237.47
515.095	27354.21
515.297	27554.91
515.499	27460.7
515.701	27640.92
515.904	28273.74
516.106	28400.72
516.308	28384.33
516.51	28824.65
516.712	28793.93
516.914	29049.92
517.116	29432.89
517.318	29647.93
517.52	29611.07
517.722	29885.5
517.925	30127.16
518.127	30583.85
518.329	30866.47
518.531	30776.36
518.733	31317.03
518.935	31298.59
519.136	31659.04
519.338	32203.8
519.54	32160.79
519.742	32255
519.944	32271.38
520.146	32795.66
520.348	33094.66
520.55	32947.21
520.752	33018.89
520.954	33860.6
521.155	33307.65
521.357	33911.8
521.559	34417.65
521.761	34618.35
521.963	34532.34
522.164	34997.23
522.366	35138.54
522.568	35478.5
522.77	35224.55
522.971	35632.1
523.173	35402.72
523.375	36109.27
523.576	36047.83
523.778	35965.92
523.98	36201.43
524.181	36469.72
524.383	37032.91
524.584	37051.34
524.786	36879.31
524.988	37045.19
525.189	37710.78
525.391	37645.25
525.592	37649.35
525.794	37424.07
525.995	37858.24
526.197	38155.19
526.398	38060.99
526.6	38433.72
526.801	38505.4
527.003	38611.89
527.204	38794.16
527.406	39291.82
527.607	38894.51
527.808	39410.6
528.01	38460.34
528.211	38771.63
528.412	39898.02
528.614	39494.57
528.815	39332.78
529.016	39818.14
529.218	39375.78
529.419	39912.35
529.62	40123.29
529.822	39551.91
530.023	39830.43
530.224	40266.65
530.425	39805.86
530.626	39707.55
530.828	39762.85
531.029	40571.8
531.23	39936.93
531.431	40092.57
531.632	40291.23
531.833	40600.47
532.035	40403.86
532.236	40610.71
532.437	40561.56
532.638	40553.37
532.839	40801.17
533.04	40635.28
533.241	40061.85
533.442	40905.62
533.643	40668.05
533.844	40563.61
534.045	40815.51
534.246	40307.61
534.447	40833.94
534.648	40516.5
534.849	40532.89
535.05	40217.5
535.251	40848.27
535.451	40407.96
535.652	40717.2
535.853	40733.59
536.054	40690.58
536.255	40801.17
536.456	40352.66
536.657	41210.76
536.857	40852.37
537.058	40539.03
537.259	41020.3
537.46	40940.43
537.66	40741.78
537.861	40692.63
538.062	40399.77
538.263	40727.44
538.463	40440.73
538.664	40385.43
538.865	40571.8
539.065	40962.96
539.266	40299.42
539.466	41118.6
539.667	40248.22
539.868	40973.2
540.068	40487.83
540.269	41038.73
540.469	40745.87
540.67	40432.54
540.87	40522.65
541.071	40674.2
541.271	40565.65
541.472	40311.7
541.672	40332.18
541.873	40483.73
542.073	40483.73
542.274	40659.86
542.474	40745.87
542.675	40348.57
542.875	40895.38
543.075	40547.22
543.276	40151.96
543.476	40729.49
543.676	40020.89
543.877	40790.93
544.077	40536.98
544.277	39981.98
544.478	40369.05
544.678	40688.53
544.878	40272.79
545.078	40782.74
545.279	40514.45
545.479	40457.11
545.679	40637.33
545.879	40448.92
546.079	40377.24
546.28	40358.81
546.48	40074.14
546.68	40410.01
546.88	39689.12
547.08	40199.07
547.28	40364.95
547.48	40111
547.68	40330.14
547.88	40127.39
548.081	40364.95
548.281	39918.49
548.481	39816.1
548.681	40164.25
548.881	40358.81
549.081	40041.37
549.28	39836.58
549.48	40524.69
549.68	39951.26
549.88	40563.61
550.08	39926.69
550.28	40229.79
550.48	39766.95
550.68	40168.35
550.88	39846.82
551.08	39783.33
551.279	40440.73
551.479	39513
551.679	39674.79
551.879	39893.92
552.079	39971.74
552.278	40092.57
552.478	39803.81
552.678	39775.14
552.878	40090.52
553.077	40051.61
553.277	39848.86
553.477	39912.35
553.676	39480.23
553.876	40012.7
554.076	39377.83
554.275	39793.57
554.475	39334.82
554.674	39816.1
554.874	39189.42
555.074	39349.16
555.273	39664.55
555.473	39469.99
555.672	39402.41
555.872	39244.71
556.071	39418.79
556.271	39695.27
556.47	39187.37
556.67	39019.44
556.869	39388.07
557.068	39674.79
557.268	38910.89
557.467	39283.62
557.667	39353.26
557.866	39359.4
558.065	38634.42
558.265	39205.8
558.464	38931.37
558.663	39242.67
558.863	38759.34
559.062	39420.84
559.261	38845.36
559.461	39019.44
559.66	37929.92
559.859	38919.09
560.058	38765.49
560.258	38689.71
560.457	38265.78
560.656	38611.89
560.855	38185.91
561.054	38167.48
561.253	38157.24
561.453	38359.99
561.652	38183.87
561.851	38509.49
562.05	38034.36
562.249	38159.29
562.448	38159.29
562.647	38233.02
562.846	37989.31
563.045	38009.79
563.244	37952.44
563.443	38220.73
563.642	37575.62
563.841	38040.51
564.04	37479.36
564.239	38011.84
564.438	37557.19
564.637	37729.22
564.836	37796.8
565.035	37346.25
565.234	37413.83
565.432	37307.33
565.631	37188.55
565.83	37454.79
566.029	36727.76
566.228	36985.8
566.427	36785.1
566.625	36957.13
566.824	36621.27
567.023	37243.85
567.222	36240.34
567.42	36828.11
567.619	36522.96
567.818	36576.21
568.016	36645.84
568.215	36594.64
568.414	36152.28
568.612	36705.23
568.811	35750.88
569.01	36395.99
569.208	35574.75
569.407	35957.72
569.605	35474.4
569.804	36053.98
570.002	35417.06
570.201	35679.2
570.4	35793.89
570.598	35404.77
570.797	35517.41
570.995	35816.41
571.193	35234.79
571.392	35810.27
571.59	35083.24
571.789	35369.96
571.987	35507.17
572.186	35197.93
572.384	34753.52
572.582	34935.79
572.781	35007.47
572.979	34339.83
573.177	34622.45
573.376	34915.31
573.574	34112.5
573.772	34915.31
573.971	34245.62
574.169	34212.85
574.367	34231.29
574.565	34237.43
574.763	34225.14
574.962	34128.89
575.16	33801.21
575.358	33967.1
575.556	33799.16
575.754	33565.7
575.952	33797.12
576.151	34163.7
576.349	33246.21
576.547	33510.4
576.745	33487.87
576.943	33436.67
577.141	33192.97
577.339	33252.36
577.537	33209.35
577.735	33319.94
577.933	32842.76
578.131	33176.58
578.329	32992.26
578.527	32680.97
578.725	32975.88
578.923	32695.31
579.121	32644.11
579.319	32508.94
579.516	32631.82
579.714	32467.98
579.912	32402.45
580.11	32023.58
580.308	32533.52
580.506	32150.55
580.704	31560.73
580.901	32019.48
581.099	32066.58
581.297	31544.35
581.495	31781.92
581.692	31681.56
581.89	31005.73
582.088	31824.92
582.285	31312.93
582.483	31540.25
582.681	31566.88
582.878	30975.02
583.076	30766.12
583.274	31149.09
583.471	30753.83
583.669	30903.34
583.866	30565.42
584.064	30966.82
584.262	30487.6
584.459	30792.75
584.657	30583.85
584.854	30716.97
585.052	29897.78
585.249	30129.2
585.447	30137.4
585.644	29922.36
585.841	30282.8
586.039	30264.37
586.236	30008.37
586.434	29768.76
586.631	29805.63
586.828	29713.47
587.026	29701.18
587.223	29490.24
587.42	29209.67
587.618	29645.88
587.815	29148.23
588.012	29205.57
588.21	28970.05
588.407	29359.17
588.604	29039.68
588.801	28750.92
588.999	28730.44
589.196	28834.89
589.393	28662.86
589.59	28869.7
589.787	28572.75
589.984	28261.46
590.182	28310.61
590.379	28144.72
590.576	28054.61
590.773	28288.08
590.97	27771.99
591.167	28290.13
591.364	27923.54
591.561	27823.19
591.758	27669.59
591.955	27700.31
592.152	27827.29
592.349	27636.83
592.546	27450.46
592.743	27413.6
592.94	26899.56
593.137	27468.89
593.334	27364.45
593.531	26961
593.727	27053.16
593.924	26870.89
594.121	26758.25
594.318	26809.45
594.515	26395.76
594.712	27116.64
594.908	26461.29
595.105	26580.07
595.302	26229.87
595.499	26279.02
595.696	26113.14
595.892	26041.46
596.089	26274.93
596.286	26213.49
596.482	25834.61
596.679	25797.75
596.876	25826.42
597.072	25517.18
597.269	25818.23
597.466	25480.32
597.662	25373.82
597.859	25506.94
598.055	25672.82
598.252	25263.23
598.448	25570.43
598.645	25158.78
598.841	24849.54
599.038	25009.28
599.234	24935.56
599.431	25023.62
599.627	24824.97
599.824	24892.55
600.02	24874.12
600.217	24667.27
600.413	24421.52
600.609	24360.08
600.806	24398.99
601.002	24208.53
601.198	24249.49
601.395	24102.03
601.591	24261.77
601.787	23913.62
601.984	24081.55
602.18	24073.36
602.376	23739.54
602.572	23684.25
602.769	23577.75
602.965	23686.29
603.161	23456.92
603.357	23555.22
603.553	23303.32
603.75	23327.9
603.946	22797.48
604.142	23585.94
604.338	23106.72
604.534	23147.68
604.73	22934.69
604.926	22934.69
605.122	22985.89
605.318	22760.61
605.514	22822.05
605.71	22518.95
605.906	22525.1
606.102	22598.82
606.298	22666.41
606.494	22424.75
606.69	22525.1
606.886	22467.75
607.082	22285.48
607.278	22424.75
607.474	21863.6
607.67	22045.87
607.866	21757.11
608.062	22092.97
608.257	22076.59
608.453	22031.54
608.649	21849.27
608.845	21683.38
609.041	21638.33
609.236	21890.23
609.432	21724.34
609.628	21748.92
609.824	21806.26
610.019	21908.66
610.215	21427.39
610.411	21966
610.606	21292.22
610.802	21580.98
610.998	21486.78
611.193	21079.23
611.389	21386.43
611.584	21054.65
611.78	21087.42
611.976	21034.18
612.171	21107.9
612.367	20931.78
612.562	20737.22
612.758	20929.73
612.953	20841.67
613.149	21089.47
613.344	20708.55
613.539	20890.82
613.735	20716.74
613.93	20956.35
614.126	20581.57
614.321	20925.63
614.517	20329.67
614.712	20567.24
614.907	20489.42
615.103	20923.58
615.298	20665.54
615.493	20626.63
615.688	20303.05
615.884	20569.29
616.079	20214.99
616.274	20384.97
616.47	20264.14
616.665	20411.59
616.86	19696.85
617.055	20329.67
617.25	19920.08
617.445	20100.3
617.641	19799.25
617.836	19952.85
618.031	19774.67
618.226	19963.09
618.421	19903.7
618.616	19817.68
618.811	19430.62
619.006	19801.3
619.201	19530.97
619.396	19428.57
619.591	19373.27
619.786	19432.66
619.981	19281.11
620.176	19539.16
620.371	18947.29
620.566	19262.68
620.761	18881.76
620.956	19156.19
621.151	18717.92
621.346	18689.25
621.541	18539.75
621.735	18687.2
621.93	18398.44
622.125	18488.55
622.32	18236.65
622.515	18345.19
622.709	17954.03
622.904	17888.5
623.099	18220.27
623.294	17667.31
623.488	17759.47
623.683	17806.58
623.878	17380.6
624.072	17399.03
624.267	17612.02
624.462	17421.56
624.656	16979.2
624.851	17161.47
625.046	16938.24
625.24	17016.06
625.435	16778.5
625.629	16776.45
625.824	16557.32
626.018	16735.49
626.213	16112.91
626.407	16549.12
626.602	16172.3
626.796	16270.6
626.991	16325.89
627.185	16082.19
627.38	15965.45
627.574	15635.73
627.768	15938.83
627.963	15822.09
628.157	15422.74
628.352	15639.83
628.546	15564.05
628.74	15426.84
628.935	15254.81
629.129	15324.44
629.323	15004.96
629.517	15326.49
629.712	15023.39
629.906	15025.43
630.1	14632.22
630.294	14595.36
630.489	14556.45
630.683	14869.79
630.877	14427.43
631.071	14404.9
631.265	14503.2
631.459	14116.14
631.653	14409
631.848	14216.49
632.042	14134.57
632.236	14077.23
632.43	13778.22
632.624	13706.54
632.818	13591.86
633.012	13802.8
633.206	13614.38
633.4	13610.29
633.594	13333.81
633.788	13720.88
633.982	13477.17
634.176	13362.48
634.369	13188.41
634.563	13389.11
634.757	13135.16
634.951	12952.89
635.145	13006.14
635.339	12999.99
635.533	12760.38
635.726	12756.29
635.92	12592.45
636.114	12545.34
636.308	12506.43
636.501	12520.77
636.695	12418.37
636.889	12393.79
637.083	12418.37
637.276	12361.03
637.47	12195.14
637.664	12080.46
637.857	12156.23
638.051	12035.4
638.244	12084.55
638.438	11951.43
638.632	11752.78
638.825	11584.85
639.019	11765.07
639.212	11810.12
639.406	11644.24
639.599	11662.67
639.793	11709.77
639.986	11320.66
640.18	11556.18
640.373	11281.75
640.567	11169.11
640.76	11287.89
640.954	11433.3
641.147	11115.86
641.34	10880.35
641.534	10843.48
641.727	10988.89
641.92	10847.58
642.114	10743.13
642.307	10679.65
642.5	10816.86
642.694	10454.37
642.887	10491.23
643.08	10454.37
643.273	10364.26
643.467	10411.36
643.66	10378.59
643.853	10102.12
644.046	10222.95
644.239	10337.63
644.432	10069.35
644.626	10181.99
644.819	9788.78
645.012	9948.52
645.205	10052.97
645.398	9874.79
645.591	9692.52
645.784	9803.11
645.977	9586.03
646.17	9778.54
646.363	9721.2
646.556	9532.78
646.749	9438.58
646.942	9385.33
647.135	9291.12
647.328	9377.14
647.521	9268.59
647.714	9250.16
647.907	8945.02
648.099	9221.49
648.292	9149.81
648.485	9282.93
648.678	9033.08
648.871	8865.14
649.064	8865.14
649.256	8916.34
649.449	8983.93
649.642	9020.79
649.835	8705.4
650.027	8633.72
650.22	8598.91
650.413	8611.2
650.605	8676.73
650.798	8439.17
650.991	8433.02
651.183	8459.65
651.376	8142.21
651.568	8508.8
651.761	8238.47
651.954	8250.75
652.146	8301.95
652.339	8031.62
652.531	8074.63
652.724	8002.95
652.916	8039.81
653.109	8035.72
653.301	7943.56
653.494	7925.13
653.686	7947.65
653.879	7908.74
654.071	7824.78
654.263	7828.87
654.456	7755.15
654.648	8005
654.84	7601.55
655.033	7775.63
655.225	7716.23
655.417	7482.77
655.61	7476.62
655.802	7433.61
655.994	7261.59
656.186	7267.73
656.379	7120.28
656.571	7380.37
656.763	7105.94
656.955	7161.23
657.148	7077.27
657.34	7171.47
657.532	7099.8
657.724	7110.04
657.916	7017.88
658.108	6870.42
658.3	6970.77
658.492	6800.79
658.684	6772.12
658.876	6854.04
659.068	6682.01
659.26	6774.17
659.452	6872.47
659.644	6804.89
659.836	6636.95
660.028	6690.2
660.22	6596
660.412	6694.3
660.604	6573.47
660.796	6505.88
660.988	6423.97
661.18	6278.56
661.372	6344.1
661.563	6309.28
661.755	6299.04
661.947	6456.73
662.139	6331.81
662.331	6274.46
662.522	6110.63
662.714	6077.86
662.906	6186.4
663.097	6143.39
663.289	6129.06
663.481	6081.96
663.673	6012.32
663.864	5885.35
664.056	6086.05
664.247	6014.37
664.439	5733.8
664.631	6026.66
664.822	5854.63
665.014	5821.86
665.205	5887.4
665.397	5776.81
665.588	5795.24
665.78	5707.18
665.971	5696.94
666.163	5750.18
666.354	5668.27
666.546	5658.03
666.737	5643.69
666.929	5469.61
667.12	5436.85
667.311	5293.49
667.503	5590.44
667.694	5313.97
667.885	5375.41
668.077	5309.87
668.268	5408.17
668.459	5414.32
668.651	5365.17
668.842	5164.47
669.033	5375.41
669.224	5156.27
669.416	5119.41
669.607	5303.73
669.798	5244.34
669.989	5172.66
670.18	5215.66
670.371	5316.01
670.563	5107.12
670.754	5148.08
670.945	4986.29
671.136	5010.87
671.327	4947.38
671.518	5055.92
671.709	4851.13
671.9	5045.68
672.091	5000.63
672.282	4900.28
672.473	4957.62
672.664	4951.48
672.855	4720.06
673.046	4908.47
673.237	4849.08
673.428	4763.06
673.619	4607.42
673.809	4695.48
674	4705.72
674.191	4629.95
674.382	4771.26
674.573	4679.1
674.764	4734.39
674.954	4611.51
675.145	4541.88
675.336	4588.99
675.527	4568.51
675.717	4486.59
675.908	4613.56
676.099	4486.59
676.289	4537.79
676.48	4453.82
676.671	4455.87
676.861	4482.49
677.052	4466.11
677.243	4386.24
677.433	4423.1
677.624	4320.7
677.814	4267.45
678.005	4335.04
678.195	4322.75
678.386	4316.61
678.576	4251.07
678.767	4416.96
678.957	4451.77
679.148	4380.09
679.338	4249.02
679.529	4365.76
679.719	4212.16
679.909	4265.41
680.1	4187.58
680.29	4167.1
680.481	4349.37
680.671	4160.96
680.861	4148.67
681.052	4163.01
681.242	4103.62
681.432	4089.28
681.622	4292.03
681.813	4214.21
682.003	4163.01
682.193	4040.13
682.383	4158.91
682.573	4138.43
682.764	4105.67
682.954	4128.19
683.144	3954.12
683.334	3950.02
683.524	4003.27
683.714	3964.36
683.904	3950.02
684.094	4095.43
684.284	4056.51
684.474	4036.03
684.664	3945.92
684.854	4031.94
685.044	3818.95
685.234	3823.05
685.424	3710.41
685.614	3859.91
685.804	3696.07
685.994	3777.99
686.184	3884.48
686.374	3866.05
686.564	3603.91
686.753	3716.55
686.943	3622.34
687.133	3763.65
687.323	3681.74
687.513	3642.82
687.702	3683.78
687.892	3632.58
688.082	3464.65
688.272	3638.73
688.461	3616.2
688.651	3565
688.841	3483.08
689.03	3605.96
689.22	3560.91
689.41	3585.48
689.599	3433.93
689.789	3419.6
689.979	3392.97
690.168	3358.16
690.358	3352.01
690.547	3335.63
690.737	3452.36
690.926	3450.32
691.116	3268.05
691.305	3478.99
691.495	3229.13
691.684	3229.13
691.874	3261.9
692.063	3300.81
692.252	3208.66
692.442	3124.69
692.631	3182.03
692.82	3239.37
693.01	3128.78
693.199	3145.17
693.388	3114.45
693.578	3184.08
693.767	3028.43
693.956	3071.44
694.146	2885.08
694.335	2932.18
694.524	2979.28
694.713	3059.15
694.902	2981.33
695.092	2983.38
695.281	2921.94
695.47	3065.3
695.659	3005.91
695.848	2932.18
696.037	2870.74
696.226	2799.06
696.415	2844.12
696.604	2866.64
696.793	2844.12
696.982	2766.29
697.171	2831.83
697.36	2835.92
697.549	2864.6
697.738	2797.01
697.927	2749.91
698.116	2811.35
698.305	2774.49
698.494	2749.91
698.683	2756.05
698.872	2762.2
699.061	2792.92
699.25	2694.61
699.438	2694.61
699.627	2770.39
699.816	2743.77
700.005	2694.61
700.193	2786.77
700.382	2690.52
700.571	2780.63
700.76	2692.57
700.948	2749.91
701.137	2622.94
701.326	2696.66
701.514	2549.21
701.703	2602.46
701.892	2663.9
702.08	2743.77
702.269	2557.4
702.457	2846.16
702.646	2721.24
702.834	2514.39
703.023	2627.03
703.212	2569.69
703.4	2567.64
703.589	2573.78
703.777	2506.2
703.965	2530.78
704.154	2661.85
704.342	2485.72
704.531	2557.4
704.719	2577.88
704.907	2629.08
705.096	2471.39
705.284	2684.38
705.472	2586.07
705.661	2571.74
705.849	2559.45
706.037	2471.39
706.226	2616.79
706.414	2594.26
706.602	2672.09
706.79	2434.52
706.979	2491.87
707.167	2551.26
707.355	2561.5
707.543	2586.07
707.731	2528.73
707.919	2500.06
708.107	2450.91
708.296	2514.39
708.484	2432.47
708.672	2608.6
708.86	2543.07
709.048	2489.82
709.236	2463.19
709.424	2680.28
709.612	2524.63
709.8	2557.4
709.988	2516.44
710.176	2512.35
710.364	2448.86
710.551	2424.28
710.739	2592.22
710.927	2500.06
711.115	2418.14
711.303	2504.15
711.491	2561.5
711.679	2455
711.866	2430.43
712.054	2450.91
712.242	2377.18
712.43	2557.4
712.617	2491.87
712.805	2512.35
712.993	2547.16
713.181	2477.53
713.368	2553.31
713.556	2504.15
713.744	2428.38
713.931	2620.89
714.119	2577.88
714.306	2524.63
714.494	2409.95
714.682	2491.87
714.869	2485.72
715.057	2543.07
715.244	2356.7
715.432	2520.54
715.619	2500.06
715.807	2385.37
715.994	2500.06
716.182	2426.33
716.369	2495.96
716.556	2549.21
716.744	2424.28
716.931	2489.82
717.119	2575.83
717.306	2536.92
717.493	2532.83
717.681	2545.11
717.868	2426.33
718.055	2541.02
718.242	2528.73
718.43	2565.59
718.617	2436.57
718.804	2584.02
718.991	2520.54
719.179	2557.4
719.366	2502.11
719.553	2442.71
719.74	2412
719.927	2545.11
720.114	2440.67
720.301	2452.95
720.488	2438.62
720.676	2465.24
720.863	2504.15
721.05	2473.43
721.237	2430.43
721.424	2475.48
721.611	2469.34
721.798	2319.84
721.985	2491.87
722.172	2426.33
722.358	2442.71
722.545	2508.25
722.732	2383.32
722.919	2448.86
723.106	2500.06
723.293	2547.16
723.48	2557.4
723.667	2379.23
723.853	2434.52
724.04	2493.91
724.227	2452.95
724.414	2463.19
724.6	2551.26
724.787	2459.1
724.974	2498.01
725.161	2442.71
725.347	2262.49
725.534	2377.18
725.72	2375.13
725.907	2416.09
726.094	2323.93
726.28	2352.6
726.467	2401.76
726.653	2362.84
726.84	2461.15
727.027	2493.91
727.213	2340.32
727.4	2440.67
727.586	2442.71
727.773	2487.77
727.959	2338.27
728.145	2377.18
728.332	2412
728.518	2342.36
728.705	2430.43
728.891	2348.51
729.077	2354.65
729.264	2448.86
729.45	2387.42
729.636	2467.29
729.823	2334.17
730.009	2457.05
730.195	2489.82
730.382	2455
730.568	2442.71
730.754	2389.47
730.94	2366.94
731.126	2455
731.313	2368.99
731.499	2471.39
731.685	2416.09
731.871	2379.23
732.057	2416.09
732.243	2397.66
732.429	2401.76
732.615	2350.56
732.801	2381.28
732.987	2401.76
733.173	2307.55
733.359	2426.33
733.545	2342.36
733.731	2473.43
733.917	2459.1
734.103	2266.59
734.289	2434.52
734.475	2348.51
734.661	2418.14
734.847	2260.45
735.033	2336.22
735.219	2242.01
735.404	2362.84
735.59	2256.35
735.776	2299.36
735.962	2164.19
736.148	2407.9
736.333	2297.31
736.519	2416.09
736.705	2242.01
736.89	2307.55
737.076	2368.99
737.262	2352.6
737.447	2280.93
737.633	2209.25
737.819	2199.01
738.004	2209.25
738.19	2317.79
738.375	2319.84
738.561	2323.93
738.747	2282.97
738.932	2221.53
739.118	2311.64
739.303	2332.12
739.489	2293.21
739.674	2268.64
739.859	2186.72
740.045	2221.53
740.23	2233.82
740.416	2237.92
740.601	2235.87
740.786	2254.3
740.972	2235.87
741.157	2115.04
741.342	2213.34
741.528	2156
741.713	2151.9
741.898	2063.84
742.084	2115.04
742.269	2063.84
742.454	2102.75
742.639	2145.76
742.824	2131.42
743.01	2117.09
743.195	2108.9
743.38	1990.11
743.565	1983.97
743.75	2022.88
743.935	2084.32
744.12	1996.26
744.305	2016.74
744.49	2069.98
744.675	1918.43
744.86	2022.88
745.045	1932.77
745.23	1963.49
745.415	2020.83
745.6	1994.21
745.785	1828.32
745.97	1945.06
746.155	1938.91
746.34	1932.77
746.525	1844.71
746.71	1889.76
746.895	1881.57
747.079	1811.94
747.264	1811.94
747.449	1793.51
747.634	1822.18
747.819	1842.66
748.003	1707.49
748.188	1746.41
748.373	1826.28
748.557	1779.17
748.742	1732.07
748.927	1791.46
749.111	1816.04
749.296	1684.97
749.481	1799.65
749.665	1730.02
749.85	1611.24
750.034	1695.21
750.219	1670.63
750.404	1725.93
750.588	1680.87
750.773	1625.58
750.957	1652.2
751.141	1531.37
751.326	1682.92
751.51	1633.77
751.695	1674.73
751.879	1549.8
752.064	1682.92
752.248	1555.94
752.432	1537.51
752.617	1549.8
752.801	1615.34
752.985	1521.13
753.17	1578.47
753.354	1578.47
753.538	1535.46
753.722	1385.96
753.907	1371.63
754.091	1418.73
754.275	1531.37
754.459	1428.97
754.643	1435.11
754.828	1521.13
755.012	1369.58
755.196	1345
755.38	1414.63
755.564	1388.01
755.748	1342.96
755.932	1392.11
756.116	1361.39
756.3	1410.54
756.484	1297.9
756.668	1297.9
756.852	1254.89
757.036	1322.48
757.22	1349.1
757.404	1295.85
757.588	1271.28
757.772	1422.83
757.956	1285.61
758.14	1326.57
758.323	1172.97
758.507	1263.08
758.691	1232.37
758.875	1263.08
759.059	1304.04
759.242	1250.8
759.426	1263.08
759.61	1336.81
759.794	1275.37
759.977	1170.93
760.161	1218.03
760.345	1064.43
760.528	1185.26
760.712	1134.06
760.895	1170.93
761.079	1175.02
761.263	1140.21
761.446	1164.78
761.63	1189.36
761.813	1203.69
761.997	1054.19
762.18	1082.86
762.364	1093.1
762.547	1148.4
762.731	1101.3
762.914	1054.19
763.098	1095.15
763.281	1002.99
763.464	1009.14
763.648	959.99
763.831	1156.59
764.015	1015.28
764.198	1050.1
764.381	1080.82
764.564	1074.67
764.748	1023.47
764.931	1035.76
765.114	968.18
765.297	1031.66
765.481	1058.29
765.664	1017.33
765.847	900.59
766.03	1074.67
766.213	1089.01
766.397	966.13
766.58	976.37
766.763	937.46
766.946	968.18
767.129	927.22
767.312	1048.05
767.495	990.7
767.678	943.6
767.861	959.99
768.044	919.03
768.227	986.61
768.41	898.55
768.593	974.32
768.776	943.6
768.959	941.55
769.142	1005.04
769.324	902.64
769.507	976.37
769.69	902.64
769.873	849.4
770.056	976.37
770.239	863.73
770.421	959.99
770.604	902.64
770.787	867.83
770.97	902.64
771.152	814.58
771.335	886.26
771.518	787.96
771.7	927.22
771.883	861.68
772.066	785.91
772.248	853.49
772.431	869.87
772.613	861.68
772.796	699.89
772.978	847.35
773.161	830.96
773.343	755.19
773.526	865.78
773.708	779.76
773.891	701.94
774.073	871.92
774.256	734.71
774.438	871.92
774.621	806.39
774.803	869.87
774.985	771.57
775.168	726.52
775.35	753.14
775.532	673.27
775.715	738.8
775.897	767.48
776.079	751.09
776.261	775.67
776.444	771.57
776.626	683.51
776.808	634.36
776.99	708.09
777.173	775.67
777.355	654.84
777.537	646.65
777.719	669.17
777.901	611.83
778.083	732.66
778.265	722.42
778.447	636.41
778.629	697.85
778.811	747
778.993	648.69
779.175	693.75
779.357	615.93
779.539	628.21
779.721	605.69
779.903	634.36
780.085	601.59
780.267	572.92
780.449	597.49
780.631	622.07
780.812	607.73
780.994	628.21
781.176	630.26
781.358	648.69
781.54	615.93
781.721	579.06
781.903	599.54
782.085	617.97
782.267	570.87
782.448	540.15
782.63	542.2
782.812	505.34
782.993	648.69
783.175	460.28
783.357	488.95
783.538	556.54
783.72	472.57
783.901	515.58
784.083	515.58
784.264	501.24
784.446	505.34
784.627	605.69
784.809	513.53
784.99	534.01
785.172	550.39
785.353	456.19
785.535	419.32
785.716	470.52
785.897	351.74
786.079	466.42
786.26	437.75
786.441	509.43
786.623	450.04
786.804	456.19
786.985	417.27
787.167	450.04
787.348	429.56
787.529	472.57
787.71	429.56
787.891	382.46
788.073	409.08
788.254	419.32
788.435	396.79
788.616	394.75
788.797	351.74
788.978	366.07
789.159	441.85
789.34	468.47
789.522	456.19
789.703	286.2
789.884	441.85
790.065	421.37
790.246	384.51
790.427	398.84
790.607	460.28
790.788	368.12
790.969	409.08
791.15	413.18
791.331	333.31
791.512	357.88
791.693	329.21
791.874	290.3
792.054	402.94
792.235	359.93
792.416	361.98
792.597	411.13
792.778	341.5
792.958	407.03
793.139	318.97
793.32	368.12
793.5	382.46
793.681	359.93
793.862	351.74
794.042	339.45
794.223	245.24
794.404	349.69
794.584	302.59
794.765	353.79
794.945	321.02
795.126	357.88
795.306	316.92
795.487	288.25
795.667	286.2
795.848	357.88
796.028	222.72
796.209	357.88
796.389	265.72
796.57	323.07
796.75	335.35
796.93	296.44
797.111	290.3
797.291	321.02
797.471	288.25
797.652	376.31
797.832	364.03
798.012	337.4
798.192	241.15
798.373	241.15
798.553	321.02
798.733	331.26
798.913	200.19
799.093	239.1
799.274	302.59
799.454	298.49
799.634	263.68
799.814	372.22
799.994	333.31
800.174	275.96
800.354	239.1
800.534	232.96
800.714	210.43
800.894	263.68
801.074	208.38
801.254	204.28
801.434	302.59
801.614	181.76
801.794	204.28
801.974	613.88
802.154	157.18
802.334	214.52
802.514	235
802.693	282.11
802.873	235
803.053	269.82
803.233	290.3
803.413	202.24
803.592	189.95
803.772	259.58
803.952	222.72
804.131	239.1
804.311	249.34
804.491	239.1
804.67	210.43
804.85	138.75
805.03	214.52
805.209	251.39
805.389	214.52
805.568	224.76
805.748	247.29
805.928	255.48
806.107	275.96
806.287	206.33
806.466	173.57
806.646	173.57
806.825	235
807.004	194.05
807.184	208.38
807.363	183.81
807.543	226.81
807.722	175.61
807.901	175.61
808.081	179.71
808.26	232.96
808.439	192
808.619	243.2
808.798	140.8
808.977	165.37
809.156	228.86
809.336	196.09
809.515	210.43
809.694	181.76
809.873	194.05
810.052	71.17
810.231	206.33
810.411	120.32
810.59	208.38
810.769	169.47
810.948	232.96
811.127	157.18
811.306	198.14
811.485	148.99
811.664	124.41
811.843	136.7
812.022	267.77
812.201	159.23
812.38	269.82
812.559	165.37
812.737	189.95
812.916	179.71
813.095	122.37
813.274	230.91
813.453	140.8
813.632	181.76
813.811	212.48
813.989	105.98
814.168	196.09
814.347	230.91
814.526	138.75
814.704	169.47
814.883	216.57
815.062	122.37
815.24	159.23
815.419	9.73
815.598	165.37
815.776	105.98
815.955	163.33
816.133	65.02
816.312	144.89
816.49	177.66
816.669	151.04
816.847	103.93
817.026	194.05
817.204	161.28
817.383	169.47
817.561	134.65
817.74	97.79
817.918	138.75
818.097	140.8
818.275	52.74
818.453	110.08
818.632	105.98
818.81	155.13
818.988	130.56
819.167	44.54
819.345	95.74
819.523	189.95
819.701	132.61
819.879	138.75
820.058	157.18
820.236	110.08
820.414	103.93
820.592	103.93
820.77	54.78
820.948	122.37
821.127	179.71
821.305	83.45
821.483	148.99
821.661	81.41
821.839	122.37
822.017	116.22
822.195	99.84
822.373	157.18
822.551	136.7
822.729	192
822.907	177.66
823.085	159.23
823.262	42.5
823.44	146.94
823.618	114.17
823.796	69.12
823.974	132.61
824.152	77.31
824.329	153.09
824.507	44.54
824.685	151.04
824.863	132.61
825.04	126.46
825.218	165.37
825.396	85.5
825.574	93.69
825.751	126.46
825.929	83.45
826.107	122.37
826.284	134.65
826.462	95.74
826.639	87.55
826.817	65.02
826.994	85.5
827.172	81.41
827.349	112.13
827.527	99.84
827.704	42.5
827.882	155.13
828.059	130.56
828.237	136.7
828.414	132.61
828.591	73.21
828.769	95.74
828.946	120.32
829.124	132.61
829.301	132.61
829.478	54.78
829.655	91.65
829.833	62.98
830.01	91.65
830.187	126.46
830.364	128.51
830.542	173.57
830.719	103.93
830.896	110.08
831.073	22.02
831.25	48.64
831.427	62.98
831.604	65.02
831.782	7.68
831.959	71.17
832.136	130.56
832.313	97.79
832.49	108.03
832.667	93.69
832.844	85.5
833.021	75.26
833.198	144.89
833.374	126.46
833.551	73.21
833.728	134.65
833.905	87.55
834.082	99.84
834.259	69.12
834.436	128.51
834.612	30.21
834.789	97.79
834.966	75.26
835.143	97.79
835.319	69.12
835.496	71.17
835.673	108.03
835.85	56.83
836.026	128.51
836.203	65.02
836.38	112.13
836.556	44.54
836.733	124.41
836.909	101.89
837.086	60.93
837.262	30.21
837.439	132.61
837.616	50.69
837.792	91.65
837.968	65.02
838.145	54.78
838.321	87.55
838.498	36.35
838.674	95.74
838.851	71.17
839.027	54.78
839.203	108.03
839.38	120.32
839.556	36.35
839.732	114.17
839.909	34.3
840.085	75.26
840.261	32.26
840.437	79.36
840.614	73.21
840.79	85.5
840.966	116.22
841.142	42.5
841.318	132.61
841.494	52.74
841.671	52.74
841.847	28.16
842.023	124.41
842.199	34.3
842.375	91.65
842.551	42.5
842.727	69.12
842.903	95.74
843.079	148.99
843.255	116.22
843.431	24.06
843.607	99.84
843.783	62.98
843.959	91.65
844.134	-0.51
844.31	138.75
844.486	85.5
844.662	46.59
844.838	91.65
845.013	7.68
845.189	34.3
845.365	48.64
845.541	26.11
845.716	38.4
845.892	65.02
846.068	40.45
846.244	56.83
846.419	114.17
846.595	44.54
846.77	-8.7
846.946	124.41
847.122	-35.33
847.297	48.64
847.473	110.08
847.648	42.5
847.824	83.45
847.999	46.59
848.175	81.41
848.35	58.88
848.526	118.27
848.701	28.16
848.876	114.17
849.052	1.54
849.227	87.55
849.403	-25.09
849.578	11.78
849.753	65.02
849.929	46.59
850.104	58.88
850.279	30.21
850.454	26.11
850.63	36.35
850.805	85.5
850.98	79.36
851.155	28.16
851.33	58.88
851.505	5.63
851.681	46.59
851.856	-0.51
852.031	28.16
852.206	116.22
852.381	-18.94
852.556	69.12
852.731	7.68
852.906	148.99
853.081	28.16
853.256	54.78
853.431	-0.51
853.606	7.68
853.781	58.88
853.956	56.83
854.131	58.88
854.305	-6.66
854.48	-12.8
854.655	110.08
854.83	75.26
855.005	-2.56
855.18	-10.75
855.354	48.64
855.529	-27.14
855.704	26.11
855.879	69.12
856.053	17.92
856.228	11.78
856.403	50.69
856.577	24.06
856.752	-53.76
856.926	-2.56
857.101	32.26
857.276	38.4
857.45	99.84
857.625	138.75
857.799	-4.61
857.974	34.3
858.148	50.69
858.323	46.59
858.497	3.58
858.672	-25.09
858.846	77.31
859.02	28.16
859.195	24.06
859.369	50.69
859.543	1.54
859.718	77.31
859.892	11.78
860.066	30.21
860.241	-51.71
860.415	-2.56
860.589	71.17
860.763	126.46
860.938	17.92
861.112	30.21
861.286	44.54
861.46	-8.7
861.634	65.02
861.808	67.07
861.982	58.88
862.157	5.63
862.331	-2.56
862.505	95.74
862.679	48.64
862.853	30.21
863.027	36.35
863.201	81.41
863.375	-18.94
863.549	91.65
863.722	-41.47
863.896	46.59
864.07	34.3
864.244	114.17
864.418	1.54
864.592	52.74
864.766	-6.66
864.939	77.31
865.113	-25.09
865.287	50.69
865.461	-6.66
865.634	58.88
865.808	-6.66
865.982	-33.28
866.156	-18.94
866.329	71.17
866.503	-31.23
866.676	71.17
866.85	9.73
867.024	40.45
867.197	89.6
867.371	28.16
867.544	62.98
867.718	38.4
867.891	28.16
868.065	-35.33
868.238	42.5
868.412	73.21
868.585	54.78
868.759	32.26
868.932	40.45
869.105	-41.47
869.279	26.11
869.452	22.02
869.625	-4.61
869.799	-8.7
869.972	32.26
870.145	-41.47
870.319	17.92
870.492	-31.23
870.665	-14.85
870.838	17.92
871.011	-12.8
871.185	34.3
871.358	-4.61
871.531	19.97
871.704	-2.56
871.877	52.74
872.05	44.54
872.223	79.36
872.396	34.3
872.569	26.11
872.742	40.45
872.915	50.69
873.088	19.97
873.261	13.82
873.434	22.02
873.607	24.06
873.78	24.06
873.953	-33.28
874.126	26.11
874.299	62.98
874.471	40.45
874.644	58.88
874.817	17.92
874.99	-10.75
875.163	42.5
875.335	52.74
875.508	32.26
875.681	126.46
875.853	7.68
876.026	132.61
876.199	-64
876.371	77.31
876.544	5.63
876.717	118.27
876.889	-23.04
877.062	48.64
877.234	34.3
877.407	85.5
877.579	-25.09
877.752	5.63
877.924	69.12
878.097	-18.94
878.269	11.78
878.442	75.26
878.614	48.64
878.786	28.16
878.959	-12.8
879.131	95.74
879.303	-64
879.476	-25.09
879.648	42.5
879.82	65.02
879.993	58.88
880.165	19.97
880.337	38.4
880.509	114.17
880.681	-8.7
880.854	5.63
881.026	-33.28
881.198	65.02
881.37	34.3
881.542	5.63
881.714	-18.94
881.886	50.69
882.058	13.82
882.23	-47.62
882.402	34.3
882.574	30.21
882.746	54.78
882.918	75.26
883.09	-16.9
883.262	54.78
883.434	-16.9
883.606	17.92
883.778	15.87
883.95	50.69
884.122	9.73
884.293	26.11
884.465	58.88
884.637	9.73
884.809	69.12
884.98	48.64
885.152	22.02
885.324	7.68
885.496	3.58
885.667	-8.7
885.839	13.82
886.011	26.11
886.182	42.5
886.354	75.26
886.525	1.54
886.697	38.4
886.869	36.35
887.04	-25.09
887.212	71.17
887.383	48.64
887.555	-70.14
887.726	-8.7
887.897	52.74
888.069	38.4
888.24	22.02
888.412	17.92
888.583	38.4
888.754	101.89
888.926	-20.99
889.097	1.54
889.268	-37.38
889.44	62.98
889.611	-41.47
889.782	52.74
889.953	42.5
890.125	44.54
890.296	-39.42
890.467	34.3
890.638	34.3
890.809	32.26
890.98	48.64
891.151	38.4
891.323	42.5
891.494	-16.9
891.665	26.11
891.836	60.93
892.007	46.59
892.178	9.73
892.349	-8.7
892.52	-16.9
892.691	13.82
892.862	22.02
893.032	-10.75
893.203	-0.51
893.374	-39.42
893.545	1.54
893.716	-16.9
893.887	36.35
894.057	1.54
894.228	-20.99
894.399	54.78
894.57	38.4
894.74	15.87
894.911	17.92
895.082	56.83
895.253	48.64
895.423	-23.04
895.594	36.35
895.764	-27.14
895.935	-66.05
896.106	-2.56
896.276	7.68
896.447	7.68
896.617	46.59
896.788	-12.8
896.958	-14.85
897.129	-23.04
897.299	50.69
897.47	67.07
897.64	-66.05
897.81	83.45
897.981	9.73
898.151	17.92
898.322	11.78
898.492	26.11
898.662	42.5
898.832	42.5
899.003	-23.04
899.173	-8.7
899.343	13.82
899.513	-47.62
