Data from USB4F104151__64__11-37-26-701.txt Node

Date: Fri Mar 14 11:37:26 EDT 2025
User: louis
Spectrometer: USB4F10415
Trigger mode: 4
Integration Time (sec): 2.000000E-2
Scans to average: 1
Electric dark correction enabled: true
Nonlinearity correction enabled: false
Boxcar width: 0
XAxis mode: Wavelengths
Number of Pixels in Spectrum: 3648
>>>>>Begin Spectral Data<<<<<
178.204	-32.43
178.424	-32.43
178.644	-32.43
178.864	-67.24
179.084	-79.53
179.304	8.53
179.524	57.68
179.744	14.68
179.964	43.35
180.184	-34.47
180.404	57.68
180.624	-13.99
180.844	0.34
181.064	-28.33
181.283	-36.52
181.503	-77.48
181.723	8.53
181.943	-9.9
182.163	6.49
182.383	-22.19
182.602	51.54
182.822	8.53
183.042	-13.99
183.262	49.49
183.482	-118.44
183.701	-9.9
183.921	39.25
184.141	-42.67
184.361	43.35
184.58	37.2
184.8	31.06
185.02	69.97
185.239	98.64
185.459	37.2
185.679	-18.09
185.898	0.34
186.118	-5.8
186.338	-18.09
186.557	51.54
186.777	39.25
186.997	2.39
187.216	-28.33
187.436	78.16
187.655	88.4
187.875	37.2
188.095	-46.76
188.314	24.92
188.534	-7.85
188.753	39.25
188.973	33.11
189.192	106.84
189.412	33.11
189.631	18.77
189.851	14.68
190.07	8.53
190.29	24.92
190.509	86.36
190.729	16.73
190.948	39.25
191.168	49.49
191.387	-65.19
191.607	16.73
191.826	8.53
192.045	55.64
192.265	37.2
192.484	-11.95
192.704	78.16
192.923	-7.85
193.142	100.69
193.362	45.4
193.581	22.87
193.8	94.55
194.02	45.4
194.239	-32.43
194.458	-5.8
194.678	-11.95
194.897	4.44
195.116	63.83
195.335	-11.95
195.555	33.11
195.774	72.02
195.993	-1.71
196.212	-1.71
196.432	55.64
196.651	14.68
196.87	12.63
197.089	33.11
197.308	39.25
197.528	-1.71
197.747	47.44
197.966	55.64
198.185	31.06
198.404	41.3
198.623	4.44
198.842	-9.9
199.062	20.82
199.281	39.25
199.5	16.73
199.719	20.82
199.938	-9.9
200.157	59.73
200.376	-59.05
200.595	18.77
200.814	-75.43
201.033	8.53
201.252	22.87
201.471	-9.9
201.69	10.58
201.909	-26.28
202.128	29.01
202.347	-9.9
202.566	16.73
202.785	41.3
203.004	-1.71
203.223	55.64
203.442	-20.14
203.661	-42.67
203.879	-9.9
204.098	-5.8
204.317	0.34
204.536	84.31
204.755	31.06
204.974	18.77
205.193	35.16
205.411	18.77
205.63	-48.81
205.849	92.5
206.068	57.68
206.287	-5.8
206.505	47.44
206.724	-34.47
206.943	12.63
207.162	0.34
207.381	82.26
207.599	47.44
207.818	-48.81
208.037	59.73
208.255	-16.04
208.474	33.11
208.693	6.49
208.911	-1.71
209.13	37.2
209.349	6.49
209.567	-9.9
209.786	55.64
210.005	4.44
210.223	12.63
210.442	8.53
210.661	-7.85
210.879	72.02
211.098	84.31
211.316	-3.75
211.535	8.53
211.753	41.3
211.972	37.2
212.191	-16.04
212.409	-42.67
212.628	24.92
212.846	-13.99
213.065	33.11
213.283	102.74
213.502	0.34
213.72	49.49
213.938	-59.05
214.157	94.55
214.375	6.49
214.594	0.34
214.812	55.64
215.031	57.68
215.249	-44.71
215.467	51.54
215.686	57.68
215.904	12.63
216.122	26.96
216.341	90.45
216.559	33.11
216.778	24.92
216.996	0.34
217.214	-5.8
217.432	37.2
217.651	41.3
217.869	-79.53
218.087	-46.76
218.306	-30.38
218.524	45.4
218.742	-38.57
218.96	43.35
219.179	20.82
219.397	-9.9
219.615	8.53
219.833	-26.28
220.051	90.45
220.27	22.87
220.488	-7.85
220.706	10.58
220.924	47.44
221.142	74.07
221.36	33.11
221.578	33.11
221.796	18.77
222.015	55.64
222.233	-48.81
222.451	55.64
222.669	2.39
222.887	39.25
223.105	-122.54
223.323	-9.9
223.541	-7.85
223.759	86.36
223.977	55.64
224.195	8.53
224.413	-9.9
224.631	57.68
224.849	29.01
225.067	65.88
225.285	94.55
225.503	29.01
225.721	-57
225.939	14.68
226.157	-20.14
226.375	86.36
226.592	-9.9
226.81	-20.14
227.028	8.53
227.246	-42.67
227.464	33.11
227.682	6.49
227.9	16.73
228.117	24.92
228.335	-13.99
228.553	78.16
228.771	-1.71
228.989	-20.14
229.206	26.96
229.424	-93.87
229.642	4.44
229.86	98.64
230.077	86.36
230.295	88.4
230.513	-7.85
230.731	-1.71
230.948	37.2
231.166	26.96
231.384	26.96
231.601	-50.86
231.819	29.01
232.037	-20.14
232.254	-9.9
232.472	37.2
232.689	-18.09
232.907	39.25
233.125	51.54
233.342	49.49
233.56	4.44
233.777	43.35
233.995	22.87
234.213	162.13
234.43	-13.99
234.648	69.97
234.865	78.16
235.083	-3.75
235.3	-63.15
235.518	29.01
235.735	12.63
235.953	33.11
236.17	24.92
236.388	-42.67
236.605	-24.23
236.822	8.53
237.04	55.64
237.257	26.96
237.475	16.73
237.692	69.97
237.909	-50.86
238.127	41.3
238.344	-26.28
238.562	88.4
238.779	35.16
238.996	-85.67
239.214	-50.86
239.431	47.44
239.648	-18.09
239.865	33.11
240.083	-54.95
240.3	49.49
240.517	41.3
240.735	0.34
240.952	69.97
241.169	37.2
241.386	35.16
241.603	-61.1
241.821	24.92
242.038	31.06
242.255	80.21
242.472	-32.43
242.689	-3.75
242.907	45.4
243.124	-44.71
243.341	59.73
243.558	-22.19
243.775	10.58
243.992	-26.28
244.209	26.96
244.426	24.92
244.643	96.6
244.86	43.35
245.078	51.54
245.295	14.68
245.512	-16.04
245.729	41.3
245.946	-22.19
246.163	33.11
246.38	-1.71
246.597	45.4
246.814	24.92
247.031	112.98
247.248	69.97
247.464	12.63
247.681	78.16
247.898	47.44
248.115	82.26
248.332	-24.23
248.549	12.63
248.766	-75.43
248.983	-1.71
249.2	22.87
249.417	-11.95
249.633	6.49
249.85	82.26
250.067	-44.71
250.284	53.59
250.501	-7.85
250.717	41.3
250.934	-3.75
251.151	26.96
251.368	-9.9
251.585	57.68
251.801	12.63
252.018	0.34
252.235	0.34
252.451	-26.28
252.668	-1.71
252.885	86.36
253.102	6.49
253.318	117.08
253.535	10.58
253.752	-11.95
253.968	31.06
254.185	31.06
254.401	45.4
254.618	12.63
254.835	-40.62
255.051	37.2
255.268	37.2
255.484	78.16
255.701	98.64
255.917	22.87
256.134	90.45
256.351	24.92
256.567	-34.47
256.784	45.4
257	20.82
257.217	16.73
257.433	55.64
257.65	94.55
257.866	106.84
258.082	-5.8
258.299	-32.43
258.515	0.34
258.732	22.87
258.948	57.68
259.165	-9.9
259.381	29.01
259.597	41.3
259.814	-3.75
260.03	18.77
260.246	-7.85
260.463	6.49
260.679	-11.95
260.895	43.35
261.112	18.77
261.328	-30.38
261.544	67.92
261.761	47.44
261.977	31.06
262.193	51.54
262.409	51.54
262.626	37.2
262.842	86.36
263.058	-13.99
263.274	10.58
263.49	29.01
263.707	84.31
263.923	4.44
264.139	-13.99
264.355	-9.9
264.571	-44.71
264.787	-20.14
265.004	84.31
265.22	20.82
265.436	24.92
265.652	16.73
265.868	10.58
266.084	-57
266.3	18.77
266.516	-11.95
266.732	12.63
266.948	-22.19
267.164	59.73
267.38	-57
267.596	-11.95
267.812	18.77
268.028	-65.19
268.244	-26.28
268.46	49.49
268.676	12.63
268.892	63.83
269.108	2.39
269.324	8.53
269.54	72.02
269.756	102.74
269.972	35.16
270.188	-20.14
270.403	-42.67
270.619	57.68
270.835	65.88
271.051	6.49
271.267	2.39
271.483	12.63
271.698	51.54
271.914	47.44
272.13	24.92
272.346	-13.99
272.562	18.77
272.777	43.35
272.993	63.83
273.209	49.49
273.425	33.11
273.64	53.59
273.856	29.01
274.072	-3.75
274.287	22.87
274.503	57.68
274.719	26.96
274.934	61.78
275.15	39.25
275.366	43.35
275.581	4.44
275.797	10.58
276.012	24.92
276.228	47.44
276.444	41.3
276.659	106.84
276.875	-36.52
277.09	90.45
277.306	2.39
277.521	-7.85
277.737	67.92
277.952	102.74
278.168	61.78
278.383	43.35
278.599	-28.33
278.814	69.97
279.03	29.01
279.245	20.82
279.461	45.4
279.676	65.88
279.892	51.54
280.107	33.11
280.322	53.59
280.538	47.44
280.753	-7.85
280.969	-1.71
281.184	-16.04
281.399	37.2
281.615	-48.81
281.83	51.54
282.045	51.54
282.26	-42.67
282.476	0.34
282.691	29.01
282.906	26.96
283.122	74.07
283.337	-18.09
283.552	61.78
283.767	53.59
283.983	41.3
284.198	84.31
284.413	-48.81
284.628	10.58
284.843	47.44
285.058	18.77
285.274	108.88
285.489	-1.71
285.704	35.16
285.919	33.11
286.134	12.63
286.349	16.73
286.564	-5.8
286.779	-73.39
286.995	6.49
287.21	31.06
287.425	104.79
287.64	39.25
287.855	29.01
288.07	16.73
288.285	69.97
288.5	72.02
288.715	-11.95
288.93	76.12
289.145	-7.85
289.36	41.3
289.575	20.82
289.79	0.34
290.004	8.53
290.219	26.96
290.434	10.58
290.649	14.68
290.864	-9.9
291.079	-16.04
291.294	4.44
291.509	4.44
291.724	24.92
291.938	-9.9
292.153	-16.04
292.368	45.4
292.583	20.82
292.798	6.49
293.012	102.74
293.227	-1.71
293.442	82.26
293.657	55.64
293.871	43.35
294.086	37.2
294.301	92.5
294.516	-54.95
294.73	78.16
294.945	-36.52
295.16	33.11
295.374	57.68
295.589	-38.57
295.804	-5.8
296.018	29.01
296.233	33.11
296.447	96.6
296.662	-30.38
296.877	59.73
297.091	63.83
297.306	33.11
297.52	-16.04
297.735	22.87
297.949	53.59
298.164	47.44
298.378	-16.04
298.593	33.11
298.807	16.73
299.022	-34.47
299.236	37.2
299.451	41.3
299.665	18.77
299.88	-36.52
300.094	69.97
300.309	24.92
300.523	35.16
300.737	55.64
300.952	-7.85
301.166	8.53
301.381	0.34
301.595	26.96
301.809	37.2
302.024	26.96
302.238	12.63
302.452	31.06
302.667	22.87
302.881	121.17
303.095	55.64
303.309	80.21
303.524	33.11
303.738	26.96
303.952	59.73
304.166	65.88
304.381	-42.67
304.595	41.3
304.809	53.59
305.023	-1.71
305.237	37.2
305.452	18.77
305.666	29.01
305.88	31.06
306.094	82.26
306.308	26.96
306.522	26.96
306.736	74.07
306.95	80.21
307.164	123.22
307.379	82.26
307.593	49.49
307.807	65.88
308.021	41.3
308.235	43.35
308.449	51.54
308.663	16.73
308.877	45.4
309.091	-40.62
309.305	49.49
309.519	-7.85
309.733	61.78
309.947	61.78
310.161	51.54
310.374	115.03
310.588	-34.47
310.802	33.11
311.016	-1.71
311.23	72.02
311.444	-9.9
311.658	61.78
311.872	41.3
312.085	26.96
312.299	16.73
312.513	37.2
312.727	88.4
312.941	24.92
313.154	-32.43
313.368	72.02
313.582	49.49
313.796	63.83
314.009	67.92
314.223	12.63
314.437	-32.43
314.651	-3.75
314.864	88.4
315.078	-32.43
315.292	8.53
315.505	-36.52
315.719	31.06
315.933	-40.62
316.146	6.49
316.36	82.26
316.573	47.44
316.787	26.96
317.001	76.12
317.214	26.96
317.428	14.68
317.641	49.49
317.855	59.73
318.068	37.2
318.282	61.78
318.495	106.84
318.709	90.45
318.922	61.78
319.136	37.2
319.349	-24.23
319.563	4.44
319.776	22.87
319.99	-7.85
320.203	14.68
320.417	41.3
320.63	45.4
320.843	96.6
321.057	63.83
321.27	61.78
321.483	-38.57
321.697	67.92
321.91	39.25
322.124	33.11
322.337	4.44
322.55	18.77
322.763	84.31
322.977	39.25
323.19	-16.04
323.403	65.88
323.617	47.44
323.83	-20.14
324.043	-11.95
324.256	49.49
324.469	53.59
324.683	16.73
324.896	-30.38
325.109	-1.71
325.322	0.34
325.535	33.11
325.748	41.3
325.962	41.3
326.175	59.73
326.388	0.34
326.601	59.73
326.814	16.73
327.027	-22.19
327.24	-3.75
327.453	57.68
327.666	4.44
327.879	74.07
328.092	61.78
328.305	43.35
328.518	26.96
328.731	33.11
328.944	41.3
329.157	-18.09
329.37	10.58
329.583	-3.75
329.796	-13.99
330.009	82.26
330.222	20.82
330.435	-34.47
330.648	-48.81
330.861	22.87
331.073	4.44
331.286	2.39
331.499	102.74
331.712	35.16
331.925	53.59
332.138	-57
332.35	88.4
332.563	22.87
332.776	35.16
332.989	53.59
333.202	57.68
333.414	80.21
333.627	14.68
333.84	20.82
334.053	80.21
334.265	-26.28
334.478	-38.57
334.691	74.07
334.903	98.64
335.116	6.49
335.329	-1.71
335.541	-18.09
335.754	-26.28
335.966	-1.71
336.179	65.88
336.392	57.68
336.604	4.44
336.817	39.25
337.029	94.55
337.242	14.68
337.454	31.06
337.667	82.26
337.88	80.21
338.092	41.3
338.305	65.88
338.517	20.82
338.729	8.53
338.942	98.64
339.154	55.64
339.367	10.58
339.579	24.92
339.792	12.63
340.004	102.74
340.217	-44.71
340.429	31.06
340.641	2.39
340.854	69.97
341.066	33.11
341.278	129.36
341.491	63.83
341.703	35.16
341.915	-65.19
342.128	147.8
342.34	33.11
342.552	57.68
342.764	-1.71
342.977	55.64
343.189	59.73
343.401	88.4
343.613	6.49
343.826	69.97
344.038	49.49
344.25	-9.9
344.462	-40.62
344.674	37.2
344.886	59.73
345.099	55.64
345.311	-7.85
345.523	-22.19
345.735	14.68
345.947	53.59
346.159	4.44
346.371	0.34
346.583	41.3
346.795	47.44
347.007	-13.99
347.219	53.59
347.431	49.49
347.643	47.44
347.855	35.16
348.067	100.69
348.279	8.53
348.491	82.26
348.703	35.16
348.915	39.25
349.127	61.78
349.339	51.54
349.551	24.92
349.763	6.49
349.975	-73.39
350.187	61.78
350.399	90.45
350.61	49.49
350.822	57.68
351.034	49.49
351.246	22.87
351.458	63.83
351.669	78.16
351.881	55.64
352.093	57.68
352.305	-11.95
352.517	6.49
352.728	63.83
352.94	0.34
353.152	20.82
353.363	39.25
353.575	35.16
353.787	-11.95
353.999	29.01
354.21	80.21
354.422	61.78
354.633	55.64
354.845	-69.29
355.057	67.92
355.268	33.11
355.48	80.21
355.692	2.39
355.903	59.73
356.115	-20.14
356.326	33.11
356.538	104.79
356.749	-7.85
356.961	-40.62
357.172	26.96
357.384	53.59
357.595	82.26
357.807	47.44
358.018	41.3
358.23	49.49
358.441	12.63
358.653	102.74
358.864	61.78
359.075	6.49
359.287	-20.14
359.498	86.36
359.709	47.44
359.921	61.78
360.132	20.82
360.344	74.07
360.555	98.64
360.766	10.58
360.977	98.64
361.189	26.96
361.4	22.87
361.611	76.12
361.823	33.11
362.034	57.68
362.245	86.36
362.456	39.25
362.667	8.53
362.879	41.3
363.09	65.88
363.301	45.4
363.512	20.82
363.723	-22.19
363.935	-3.75
364.146	4.44
364.357	20.82
364.568	-26.28
364.779	0.34
364.99	26.96
365.201	63.83
365.412	49.49
365.623	10.58
365.834	55.64
366.045	47.44
366.256	106.84
366.467	53.59
366.678	55.64
366.889	41.3
367.1	123.22
367.311	74.07
367.522	12.63
367.733	51.54
367.944	45.4
368.155	-34.47
368.366	106.84
368.577	-46.76
368.788	100.69
368.999	26.96
369.209	10.58
369.42	106.84
369.631	53.59
369.842	51.54
370.053	59.73
370.264	45.4
370.474	110.93
370.685	14.68
370.896	-9.9
371.107	45.4
371.317	49.49
371.528	69.97
371.739	61.78
371.95	24.92
372.16	35.16
372.371	72.02
372.582	16.73
372.792	69.97
373.003	104.79
373.214	53.59
373.424	74.07
373.635	22.87
373.846	102.74
374.056	-13.99
374.267	-9.9
374.477	55.64
374.688	8.53
374.898	57.68
375.109	-1.71
375.319	74.07
375.53	100.69
375.74	80.21
375.951	102.74
376.161	35.16
376.372	33.11
376.582	47.44
376.793	112.98
377.003	-32.43
377.214	24.92
377.424	31.06
377.635	10.58
377.845	53.59
378.055	55.64
378.266	53.59
378.476	18.77
378.686	8.53
378.897	86.36
379.107	74.07
379.317	100.69
379.528	153.94
379.738	78.16
379.948	18.77
380.158	92.5
380.369	80.21
380.579	67.92
380.789	49.49
380.999	69.97
381.21	20.82
381.42	82.26
381.63	63.83
381.84	-1.71
382.05	98.64
382.261	55.64
382.471	-3.75
382.681	0.34
382.891	26.96
383.101	110.93
383.311	22.87
383.521	22.87
383.731	4.44
383.941	57.68
384.151	49.49
384.361	96.6
384.571	57.68
384.781	104.79
384.991	69.97
385.201	90.45
385.411	55.64
385.621	53.59
385.831	65.88
386.041	84.31
386.251	-50.86
386.461	69.97
386.671	61.78
386.881	51.54
387.091	53.59
387.301	14.68
387.511	37.2
387.72	67.92
387.93	39.25
388.14	69.97
388.35	4.44
388.56	51.54
388.769	82.26
388.979	65.88
389.189	-11.95
389.399	20.82
389.609	67.92
389.818	115.03
390.028	20.82
390.238	8.53
390.447	78.16
390.657	24.92
390.867	16.73
391.076	49.49
391.286	55.64
391.496	69.97
391.705	12.63
391.915	47.44
392.125	110.93
392.334	4.44
392.544	115.03
392.753	10.58
392.963	55.64
393.172	20.82
393.382	20.82
393.591	106.84
393.801	37.2
394.01	78.16
394.22	98.64
394.429	41.3
394.639	74.07
394.848	63.83
395.058	45.4
395.267	119.12
395.477	8.53
395.686	14.68
395.895	129.36
396.105	121.17
396.314	176.47
396.524	41.3
396.733	20.82
396.942	106.84
397.152	106.84
397.361	98.64
397.57	18.77
397.78	67.92
397.989	35.16
398.198	125.27
398.407	47.44
398.617	104.79
398.826	94.55
399.035	57.68
399.244	133.46
399.453	96.6
399.663	119.12
399.872	207.19
400.081	98.64
400.29	141.65
400.499	90.45
400.708	121.17
400.917	108.88
401.127	131.41
401.336	92.5
401.545	207.19
401.754	121.17
401.963	121.17
402.172	94.55
402.381	96.6
402.59	123.22
402.799	98.64
403.008	104.79
403.217	92.5
403.426	137.56
403.635	145.75
403.844	168.27
404.053	69.97
404.262	112.98
404.471	198.99
404.68	76.12
404.888	139.6
405.097	225.62
405.306	160.08
405.515	145.75
405.724	149.84
405.933	121.17
406.142	201.04
406.35	143.7
406.559	182.61
406.768	174.42
406.977	237.91
407.185	272.72
407.394	229.71
407.603	194.9
407.812	176.47
408.02	233.81
408.229	164.18
408.438	213.33
408.646	227.67
408.855	162.13
409.064	203.09
409.272	266.58
409.481	315.73
409.69	237.91
409.898	213.33
410.107	332.11
410.315	309.58
410.524	336.21
410.733	334.16
410.941	358.74
411.15	389.46
411.358	473.42
411.567	350.54
411.775	426.32
411.984	313.68
412.192	467.28
412.401	489.81
412.609	483.66
412.818	567.63
413.026	475.47
413.234	520.53
413.443	530.77
413.651	545.1
413.86	547.15
414.068	631.12
414.276	688.46
414.485	577.87
414.693	571.72
414.901	690.51
415.11	760.14
415.318	792.91
415.526	727.37
415.734	813.38
415.943	768.33
416.151	852.3
416.359	792.91
416.567	942.41
416.776	901.45
416.984	891.21
417.192	940.36
417.4	940.36
417.608	987.46
417.817	1036.61
418.025	1073.48
418.233	1192.26
418.441	1120.58
418.649	1163.59
418.857	1253.7
419.065	1202.5
419.273	1407.3
419.481	1425.73
419.689	1517.89
419.897	1526.08
420.105	1530.17
420.313	1612.09
420.521	1655.1
420.729	1657.15
420.937	1782.07
421.145	1761.59
421.353	1929.53
421.561	2033.97
421.769	1923.38
421.977	2036.02
422.185	2085.17
422.393	2158.9
422.601	2365.75
422.809	2302.26
423.017	2320.69
423.224	2294.07
423.432	2502.96
423.64	2466.1
423.848	2687.28
424.056	2728.24
424.263	2826.54
424.471	2953.51
424.679	2945.32
424.887	3082.53
425.094	3232.04
425.302	3096.87
425.51	3342.63
425.718	3336.48
425.925	3610.91
426.133	3684.64
426.341	3701.02
426.548	3997.98
426.756	4063.51
426.964	4077.85
427.171	4208.92
427.379	4423.95
427.586	4313.36
427.794	4534.54
428.001	4874.51
428.209	5015.82
428.417	4892.94
428.624	5419.27
428.832	5308.68
429.039	5134.6
429.247	5216.52
429.454	5910.78
429.662	6211.83
429.869	5933.31
430.076	6271.22
430.284	5841.15
430.491	6326.52
430.699	6648.05
430.906	6549.75
431.114	6766.83
431.321	7069.93
431.528	7022.83
431.736	7479.52
431.943	7880.93
432.15	7485.67
432.358	7737.57
432.565	8134.87
432.772	8235.22
432.979	8458.45
433.187	8786.13
433.394	8892.62
433.601	9410.76
433.808	9412.81
434.016	9248.97
434.223	9695.43
434.43	10264.76
434.637	10076.35
434.844	10600.63
435.052	11180.2
435.259	10936.49
435.466	11073.71
435.673	10920.11
435.88	11700.39
436.087	12337.31
436.294	12155.04
436.501	12056.73
436.708	12116.12
436.915	12576.92
437.122	13195.4
437.329	13074.57
437.537	13596.81
437.743	13828.23
437.95	13676.68
438.157	14696.57
438.364	14727.28
438.571	14848.11
438.778	14999.66
438.985	16425.05
439.192	15700.07
439.399	16171.1
439.606	15822.95
439.813	16740.44
440.02	17784.9
440.227	17469.51
440.433	17154.13
440.64	17891.4
440.847	17702.98
441.054	18038.85
441.261	19130.42
441.467	18952.24
441.674	19621.93
441.881	20326.43
442.088	20230.18
442.294	20099.11
442.501	20527.13
442.708	21127.19
442.914	21725.19
443.121	22726.65
443.328	22188.03
443.534	23580.65
443.741	22974.45
443.948	22597.63
444.154	24432.61
444.361	24309.73
444.568	24356.83
444.774	24489.95
444.981	24508.38
445.187	25339.86
445.394	26308.55
445.6	26236.87
445.807	28512.16
446.013	27373.49
446.22	27971.5
446.426	29118.36
446.633	29325.21
446.839	30154.63
447.046	28899.23
447.252	31016.83
447.459	30848.89
447.665	30525.32
447.871	31651.7
448.078	33253.21
448.284	31469.43
448.491	32704.35
448.697	33986.38
448.903	34740.04
449.11	34834.24
449.316	33869.65
449.522	34527.05
449.728	35528.5
449.935	35950.38
450.141	35639.09
450.347	36957.99
450.553	35581.75
450.76	36118.32
450.966	37361.44
451.172	36489
451.378	37658.39
451.584	37105.44
451.791	38115.09
451.997	37725.97
452.203	38379.28
452.409	38545.16
452.615	38014.74
452.821	36435.75
453.027	36386.6
453.233	38434.57
453.44	36970.27
453.646	37367.58
453.852	37652.25
454.058	37914.39
454.264	37041.95
454.47	37242.65
454.676	36726.56
454.882	38092.56
455.088	34514.76
455.294	35243.84
455.5	35882.8
455.705	36269.87
455.911	34545.48
456.117	33746.77
456.323	33728.34
456.529	31975.28
456.735	33093.47
456.941	32448.36
457.147	31909.74
457.352	31055.74
457.558	30717.82
457.764	30850.94
457.97	30089.1
458.176	29503.38
458.381	29239.19
458.587	28002.22
458.793	28274.6
458.999	26238.92
459.204	28358.56
459.41	27668.4
459.616	26023.88
459.821	25784.27
460.027	25716.68
460.233	25475.02
460.438	23670.76
460.644	24299.49
460.85	23197.68
461.055	23009.27
461.261	22562.81
461.466	21133.33
461.672	20518.94
461.878	21831.69
462.083	20498.46
462.289	20287.52
462.494	19849.25
462.7	19073.07
462.905	18260.03
463.111	19028.02
463.316	19101.75
463.522	18993.2
463.727	18597.95
463.932	18556.99
464.138	18741.3
464.343	18708.54
464.549	18145.34
464.754	18884.66
464.959	18417.72
465.165	18362.43
465.37	17713.22
465.575	17205.33
465.781	17905.73
465.986	17862.72
466.191	17348.68
466.397	17035.35
466.602	16007.27
466.807	16879.7
467.012	16656.47
467.218	16793.69
467.423	16562.26
467.628	16285.79
467.833	17158.22
468.038	16816.21
468.244	16201.82
468.449	16683.09
468.654	16302.17
468.859	16138.34
469.064	16042.08
469.269	15431.79
469.474	15571.05
469.679	16037.98
469.885	15310.96
470.09	15433.83
470.295	15493.22
470.5	15065.2
470.705	15034.48
470.91	14876.79
471.115	14909.55
471.32	15087.73
471.525	14850.16
471.73	14522.49
471.935	14270.59
472.139	13793.41
472.344	14303.36
472.549	14000.26
472.754	13992.06
472.959	13496.46
473.164	13463.69
473.369	13041.81
473.574	13607.05
473.778	13449.35
473.983	13322.38
474.188	13506.7
474.393	12646.55
474.598	12877.97
474.802	12611.73
475.007	12724.37
475.212	12824.72
475.417	12064.93
475.621	12109.98
475.826	12275.87
476.031	11913.38
476.235	11870.37
476.44	11890.85
476.645	11579.56
476.849	11638.95
477.054	11436.2
477.259	11401.38
477.463	11514.02
477.668	11032.75
477.872	11159.72
478.077	11067.56
478.282	10850.48
478.486	10674.35
478.691	10643.63
478.895	10713.27
479.1	10598.58
479.304	10498.23
479.509	10363.06
479.713	10492.09
479.918	10268.86
480.122	9982.14
480.326	10430.65
480.531	10105.02
480.735	10016.96
480.94	9808.06
481.144	10227.9
481.348	9588.93
481.553	9992.38
481.757	9547.97
481.961	9834.69
482.166	10049.72
482.37	9625.79
482.574	9601.22
482.778	9627.84
482.983	10062.01
483.187	9863.36
483.391	9857.21
483.595	9685.19
483.8	9599.17
484.004	10045.63
484.208	9787.58
484.412	9617.6
484.616	9808.06
484.821	9771.2
485.025	9754.82
485.229	9824.45
485.433	9771.2
485.637	9885.89
485.841	9627.84
486.045	9638.08
486.249	9822.4
486.453	9707.71
486.657	9793.73
486.861	9554.12
487.065	9513.16
487.269	9713.86
487.473	9746.62
487.677	9781.44
487.881	9844.93
488.085	9560.26
488.289	9789.63
488.493	9785.54
488.697	9672.9
488.901	9861.31
489.105	9869.5
489.309	9896.13
489.512	9881.79
489.716	9971.9
489.92	9953.47
490.124	9603.27
490.328	10199.23
490.531	10088.64
490.735	9912.51
490.939	10145.98
491.143	10145.98
491.346	9924.8
491.55	10154.17
491.754	9992.38
491.958	10252.47
492.161	10348.73
492.365	10418.36
492.569	10162.36
492.772	10387.64
492.976	10520.76
493.18	10574
493.383	10490.04
493.587	10758.32
493.79	10832.05
493.994	10422.45
494.197	10842.29
494.401	10854.58
494.605	10989.74
494.808	10956.97
495.012	11059.37
495.215	11022.51
495.419	11028.65
495.622	11260.07
495.825	11235.5
496.029	11155.63
496.232	11444.39
496.436	11466.92
496.639	11815.07
496.843	11761.83
497.046	12005.53
497.249	12204.19
497.453	12212.38
497.656	12304.54
497.859	12378.26
498.063	12478.61
498.266	12398.74
498.469	12753.04
498.673	12689.56
498.876	13074.57
499.079	13105.29
499.282	13205.64
499.485	13705.35
499.689	13291.66
499.892	13813.89
500.095	13828.23
500.298	13893.76
500.501	13738.12
500.705	14393.47
500.908	14520.44
501.111	14608.5
501.314	14696.57
501.517	15145.07
501.72	15202.41
501.923	14934.13
502.126	15462.51
502.329	15521.9
502.532	15747.17
502.735	15573.1
502.938	16164.96
503.141	16074.85
503.344	16427.1
503.547	16414.81
503.75	16621.66
503.953	17074.26
504.156	16992.34
504.359	17070.16
504.562	17248.33
504.765	17858.63
504.968	17784.9
505.17	17956.93
505.373	18018.37
505.576	18284.61
505.779	18704.44
505.982	18427.96
506.185	19142.71
506.387	19202.1
506.59	19202.1
506.793	19408.94
506.996	19529.77
507.198	20015.14
507.401	20189.22
507.604	20404.25
507.807	20584.48
508.009	20584.48
508.212	21102.61
508.415	21037.08
508.617	21467.15
508.82	21428.24
509.022	21532.68
509.225	22077.44
509.428	22185.99
509.63	22517.76
509.833	22493.18
510.035	22900.73
510.238	23345.14
510.44	23023.61
510.643	23224.31
510.845	23654.38
511.048	23947.24
511.25	23928.81
511.453	24264.68
511.655	25065.43
511.858	24655.84
512.06	24954.84
512.262	25198.55
512.465	25042.9
512.667	25882.57
512.87	25845.71
513.072	25817.04
513.274	26400.71
513.477	26564.54
513.679	26863.55
513.881	27205.56
514.084	27334.58
514.286	27330.48
514.488	27471.79
514.69	28198.82
514.893	28227.49
515.095	27897.77
515.297	28508.07
515.499	28821.41
515.701	29067.16
515.904	29147.03
516.106	29808.53
516.308	29996.94
516.51	30300.04
516.712	30056.33
516.914	30412.68
517.116	31043.45
517.318	30707.58
517.52	31037.31
517.722	31663.99
517.925	31629.17
518.127	32010.09
518.329	32350.06
518.531	32051.05
518.733	32810.85
518.935	33371.99
519.136	32771.94
519.338	33482.58
519.54	33818.45
519.742	33859.41
519.944	34105.16
520.146	34371.4
520.348	34545.48
520.55	34543.43
520.752	34838.34
520.954	35387.19
521.155	35139.39
521.357	35612.47
521.559	35948.34
521.761	36282.16
521.963	36271.92
522.164	36607.78
522.366	37023.52
522.568	36886.31
522.77	37000.99
522.971	37855
523.173	37439.26
523.375	37846.8
523.576	38119.18
523.778	37553.94
523.98	38471.43
524.181	38686.47
524.383	38522.63
524.584	38780.68
524.786	38815.49
524.988	38964.99
525.189	39296.77
525.391	39427.84
525.592	39458.56
525.794	39667.45
525.995	39683.83
526.197	39773.94
526.398	39991.03
526.6	40453.87
526.801	40445.68
527.003	40642.28
527.204	40722.15
527.406	40926.95
527.607	40543.98
527.808	41101.03
528.01	41010.92
528.211	41062.11
528.412	41903.83
528.614	41559.77
528.815	41400.03
529.016	41543.39
529.218	41635.55
529.419	41899.73
529.62	41985.75
529.822	41776.86
530.023	41920.21
530.224	41776.86
530.425	42231.5
530.626	41885.4
530.828	41758.42
531.029	43034.31
531.23	42141.39
531.431	42313.42
531.632	42378.96
531.833	42311.38
532.035	42469.07
532.236	42469.07
532.437	42684.11
532.638	42395.34
532.839	42731.21
533.04	42567.37
533.241	42333.9
533.442	43069.12
533.643	42653.39
533.844	42698.44
534.045	42555.08
534.246	42432.21
534.447	42745.55
534.648	42776.26
534.849	42903.24
535.05	42370.77
535.251	42723.02
535.451	42235.6
535.652	42536.65
535.853	42888.9
536.054	42481.36
536.255	43091.65
536.456	42383.05
536.657	43509.44
536.857	42618.57
537.058	42583.76
537.259	43005.64
537.46	42960.58
537.66	42733.26
537.861	42751.69
538.062	42960.58
538.263	42798.79
538.463	42383.05
538.664	42847.94
538.865	42720.97
539.065	42897.09
539.266	42520.27
539.466	42915.53
539.667	42417.87
539.868	43226.82
540.068	42864.33
540.269	42479.31
540.469	42999.49
540.67	42952.39
540.87	42464.97
541.071	42448.59
541.271	43001.54
541.472	42847.94
541.672	42411.73
541.873	42368.72
542.073	41961.17
542.274	42987.21
542.474	42620.62
542.675	42493.64
542.875	43003.59
543.075	42438.35
543.276	41891.54
543.476	42419.92
543.676	42247.89
543.877	42677.96
544.077	42348.24
544.277	42485.45
544.478	42268.37
544.678	42716.87
544.878	42444.49
545.078	42755.78
545.279	41787.1
545.479	42516.17
545.679	42288.85
545.879	42141.39
546.079	42477.26
546.28	42165.97
546.48	42006.23
546.68	42487.5
546.88	42424.01
547.08	42346.19
547.28	42315.47
547.48	41985.75
547.68	42555.08
547.88	41936.6
548.081	42256.08
548.281	41920.21
548.481	42170.07
548.681	42641.1
548.881	42100.43
549.081	42426.06
549.28	41791.19
549.48	42098.39
549.68	41791.19
549.88	43032.26
550.08	41936.6
550.28	42110.67
550.48	41631.45
550.68	42727.11
550.88	41887.45
551.08	42348.24
551.279	42184.4
551.479	41735.9
551.679	42491.6
551.879	41610.97
552.079	42092.24
552.278	42106.58
552.478	41821.91
552.678	41637.59
552.878	42034.9
553.077	41735.9
553.277	41590.49
553.477	42145.49
553.676	41576.15
553.876	41572.06
554.076	41570.01
554.275	41309.92
554.475	41103.07
554.674	41643.74
554.874	41430.75
555.074	41447.13
555.273	41813.72
555.473	41563.87
555.672	41250.53
555.872	41352.93
556.071	41373.41
556.271	41780.95
556.47	41563.87
556.67	41406.17
556.869	40929
557.068	41395.93
557.268	40969.96
557.467	41299.68
557.667	41137.89
557.866	41015.01
558.065	41172.71
558.265	40617.71
558.464	40791.78
558.663	41352.93
558.863	40371.95
559.062	41119.46
559.261	40769.26
559.461	40912.61
559.66	40607.47
559.859	40818.41
560.058	40507.12
560.258	40378.09
560.457	40179.44
560.656	40580.84
560.855	40445.68
561.054	40599.27
561.253	40367.85
561.453	40290.03
561.652	40081.14
561.851	40562.41
562.05	40392.43
562.249	39945.97
562.448	40398.57
562.647	39868.15
562.846	39751.41
563.045	40115.95
563.244	39673.59
563.443	39931.64
563.642	39503.61
563.841	39945.97
564.04	39671.54
564.239	39960.31
564.438	39321.34
564.637	39765.75
564.836	39399.16
565.035	39128.83
565.234	39476.99
565.432	39196.42
565.631	39016.19
565.83	39700.22
566.029	39347.96
566.228	38844.16
566.427	39030.53
566.625	38766.34
566.824	38293.26
567.023	38938.37
567.222	38018.83
567.42	39175.94
567.619	38838.02
567.818	38592.26
568.016	38727.43
568.215	38674.18
568.414	38268.69
568.612	38549.26
568.811	37910.29
569.01	38485.77
569.208	37934.87
569.407	38213.39
569.605	37777.17
569.804	37941.01
570.002	37719.83
570.201	38240.01
570.4	37459.74
570.598	37398.3
570.797	37377.82
570.995	37619.48
571.193	37060.38
571.392	37691.16
571.59	36828.96
571.789	37179.17
571.987	37351.2
572.186	37201.69
572.384	36908.83
572.582	37480.22
572.781	36912.93
572.979	36587.3
573.177	36413.23
573.376	36771.62
573.574	36810.53
573.772	36648.74
573.971	36419.37
574.169	36101.93
574.367	36255.53
574.565	36271.92
574.763	35989.3
574.962	36153.13
575.16	35940.14
575.358	36155.18
575.556	35735.35
575.754	36251.44
575.952	35198.78
576.151	35723.06
576.349	34981.7
576.547	35346.23
576.745	35352.38
576.943	35295.03
577.141	35395.39
577.339	35344.19
577.537	35149.63
577.735	34731.84
577.933	34885.44
578.131	35108.67
578.329	34883.39
578.527	34651.97
578.725	34654.02
578.923	34703.17
579.121	34543.43
579.319	34301.77
579.516	34457.42
579.714	34326.35
579.912	34121.55
580.11	33978.19
580.308	34121.55
580.506	33675.09
580.704	33716.05
580.901	33851.22
581.099	33795.92
581.297	33658.71
581.495	33236.83
581.692	33922.9
581.89	33458.01
582.088	33777.49
582.285	33232.73
582.483	33486.68
582.681	33126.24
582.878	33191.77
583.076	32530.28
583.274	33079.13
583.471	32862.05
583.669	32763.75
583.866	32520.04
584.064	32597.86
584.262	32610.15
584.459	32802.66
584.657	32311.14
584.854	32405.35
585.052	31778.67
585.249	32194.41
585.447	31809.39
585.644	31745.9
585.841	31981.42
586.039	32092.01
586.236	31649.65
586.434	31479.67
586.631	31201.15
586.828	31555.44
587.026	31324.02
587.223	31352.69
587.42	31319.93
587.618	31133.56
587.815	30640
588.012	30992.25
588.21	30822.27
588.407	30914.43
588.604	30715.78
588.801	30672.77
588.999	30979.96
589.196	30672.77
589.393	30556.04
589.59	30259.08
589.787	30269.32
589.984	30179.21
590.182	30039.95
590.379	30375.81
590.576	29816.72
590.773	29902.73
590.97	29738.9
591.167	30209.93
591.364	29396.88
591.561	29882.25
591.758	29501.33
591.955	29665.17
592.152	29693.84
592.349	29022.11
592.546	29083.55
592.743	29265.81
592.94	28696.48
593.137	28876.7
593.334	29265.81
593.531	28882.84
593.727	29083.55
593.924	29063.07
594.121	28366.76
594.318	28508.07
594.515	27875.24
594.712	28551.07
594.908	27862.96
595.105	28233.64
595.302	28172.2
595.499	28221.35
595.696	28116.9
595.892	27924.4
596.089	27801.52
596.286	28217.25
596.482	27547.57
596.679	27410.36
596.876	27707.31
597.072	27320.24
597.269	27631.54
597.466	27219.89
597.662	27060.15
597.859	27387.83
598.055	27043.77
598.252	27150.26
598.448	26898.36
598.645	26791.87
598.841	26466.24
599.038	26433.47
599.234	26693.57
599.431	26421.19
599.627	26079.18
599.824	26451.91
600.02	25960.39
600.217	26032.07
600.413	25888.71
600.609	25954.25
600.806	25962.44
601.002	25823.18
601.198	25569.23
601.395	25776.08
601.591	25423.83
601.787	25401.3
601.984	25329.62
602.18	25636.81
602.376	25270.23
602.572	25130.97
602.769	25417.68
602.965	25141.21
603.161	25071.57
603.357	25149.4
603.553	24655.84
603.75	24791
603.946	24418.27
604.142	24897.5
604.338	24377.31
604.534	24791
604.73	24391.65
604.926	24303.59
605.122	24352.74
605.318	24369.12
605.514	24205.28
605.71	23947.24
605.906	24123.37
606.102	24209.38
606.298	24045.54
606.494	23885.8
606.69	23910.38
606.886	23928.81
607.082	23582.7
607.278	23664.62
607.474	23412.72
607.67	23640.04
607.866	23295.99
608.062	23642.09
608.257	23543.79
608.453	23320.56
608.649	23441.39
608.845	23314.42
609.041	23209.97
609.236	22908.92
609.432	23382
609.628	23113.72
609.824	22921.21
610.019	22665.21
610.215	22800.38
610.411	22968.31
610.606	22790.14
610.802	22923.26
610.998	22992.89
611.193	22956.02
611.389	22689.79
611.584	22468.61
611.78	22253.57
611.976	22437.89
612.171	22300.67
612.367	22409.22
612.562	22345.73
612.758	22261.76
612.953	22136.84
613.149	22478.85
613.344	21854.22
613.539	22310.91
613.735	22226.95
613.93	22206.47
614.126	21856.26
614.321	22222.85
614.517	22267.91
614.712	21796.87
614.907	21837.83
615.103	21942.28
615.298	21762.06
615.493	21870.6
615.688	21893.13
615.884	22003.72
616.079	21659.66
616.274	21790.73
616.47	21577.74
616.665	21870.6
616.86	21346.32
617.055	21456.91
617.25	21456.91
617.445	21360.66
617.641	21131.28
617.836	21387.28
618.031	20815.9
618.226	21215.25
618.421	21098.52
618.616	20985.88
618.811	20744.22
619.006	20996.12
619.201	20375.58
619.396	20838.42
619.591	20506.65
619.786	20815.9
619.981	20402.21
620.176	20369.44
620.371	20041.76
620.566	20326.43
620.761	20119.59
620.956	20242.46
621.151	19929.13
621.346	20226.08
621.541	19699.75
621.735	19824.68
621.93	19447.85
622.125	19509.29
622.32	19165.23
622.515	19343.41
622.709	19404.85
622.904	19275.82
623.099	19378.22
623.294	19105.84
623.488	18704.44
623.683	18784.31
623.878	18675.77
624.072	18626.62
624.267	18686.01
624.462	18085.95
624.656	18067.52
624.851	18292.8
625.046	18184.26
625.24	17885.25
625.435	17936.45
625.629	17825.86
625.824	17475.66
626.018	17817.67
626.213	17094.74
626.407	17576.01
626.602	17369.16
626.796	17328.2
626.991	17039.44
627.185	17066.06
627.38	16910.42
627.574	16967.76
627.768	16730.2
627.963	16537.69
628.157	16627.8
628.352	16668.76
628.546	16291.93
628.74	16425.05
628.935	16015.46
629.129	16152.67
629.323	15886.43
629.517	15863.91
629.712	15876.2
629.906	15994.98
630.1	15597.67
630.294	15720.55
630.489	15732.84
630.683	15585.38
630.877	15349.87
631.071	15239.28
631.265	15491.18
631.459	15233.13
631.653	15018.1
631.848	15261.8
632.042	14995.57
632.236	14860.4
632.43	14774.39
632.624	15005.81
632.818	14823.54
633.012	14217.34
633.206	14549.11
633.4	14485.62
633.594	14274.68
633.788	14297.21
633.982	14280.83
634.176	14362.75
634.369	14102.65
634.563	13901.95
634.757	13949.06
634.951	14006.4
635.145	13715.59
635.339	13734.02
635.533	13504.65
635.726	13637.77
635.92	13320.33
636.114	13449.35
636.308	13265.03
636.501	13236.36
636.695	13271.18
636.889	13250.7
637.083	13129.87
637.276	13045.9
637.47	12869.78
637.664	12837.01
637.857	12890.26
638.051	12757.14
638.244	12601.49
638.438	12566.68
638.632	12419.22
638.825	12492.95
639.019	12337.31
639.212	12529.81
639.406	12425.37
639.599	12218.52
639.793	12269.72
639.986	12128.41
640.18	12060.83
640.373	12073.12
640.567	11864.22
640.76	11862.18
640.954	11618.47
641.147	11772.07
641.34	11829.41
641.534	11677.86
641.727	11458.73
641.92	11493.54
642.114	11462.82
642.307	11466.92
642.5	11509.93
642.694	11337.9
642.887	11139.24
643.08	11159.72
643.273	11073.71
643.467	11012.27
643.66	10995.89
643.853	10891.44
644.046	10801.33
644.239	10799.28
644.432	10727.6
644.626	10639.54
644.819	10541.24
645.012	10531
645.205	10444.98
645.398	10582.2
645.591	10344.63
645.784	10428.6
645.977	10301.62
646.17	10354.87
646.363	10203.32
646.556	10096.83
646.749	10213.56
646.942	10096.83
647.135	9945.28
647.328	9879.74
647.521	9832.64
647.714	9822.4
647.907	9593.03
648.099	9496.77
648.292	9930.94
648.485	9543.88
648.678	9609.41
648.871	9545.92
649.064	9203.91
649.256	9464
649.449	9482.44
649.642	9496.77
649.835	9244.87
650.027	9281.74
650.22	9109.71
650.413	9128.14
650.605	9083.08
650.798	9025.74
650.991	9017.55
651.183	8972.49
651.376	8779.98
651.568	8886.48
651.761	8868.05
651.954	8775.89
652.146	8808.65
652.339	8765.65
652.531	8526.04
652.724	8560.85
652.916	8347.86
653.109	8505.56
653.301	8337.62
653.494	8575.19
653.686	8278.23
653.879	8384.73
654.071	8270.04
654.263	8276.18
654.456	8200.41
654.648	8106.2
654.84	8181.98
655.033	7977.18
655.225	8040.67
655.417	7962.84
655.61	8067.29
655.802	8022.23
655.994	7788.77
656.186	7698.66
656.379	7774.43
656.571	7751.9
656.763	7626.98
656.955	7588.07
657.148	7655.65
657.34	7561.44
657.532	7313.64
657.724	7520.48
657.916	7418.08
658.108	7350.5
658.3	7313.64
658.492	7514.34
658.684	7178.47
658.876	7078.12
659.068	7338.21
659.26	7207.14
659.452	7145.7
659.644	7127.27
659.836	7174.38
660.028	6902
660.22	6822.13
660.412	6840.56
660.604	6822.13
660.796	6869.23
660.988	6873.32
661.18	6738.16
661.372	6717.68
661.563	6547.7
661.755	6586.61
661.947	6699.25
662.139	6480.11
662.331	6650.1
662.522	6365.43
662.714	6492.4
662.906	6379.76
663.097	6437.11
663.289	6256.89
663.481	6269.17
663.673	6369.52
663.864	6375.67
664.056	6099.19
664.247	6146.3
664.439	6029.56
664.631	6109.43
664.822	6193.4
665.014	6142.2
665.205	5916.92
665.397	6021.37
665.588	5927.16
665.78	5882.11
665.971	5988.6
666.163	5914.88
666.354	5884.16
666.546	5824.76
666.737	5705.98
666.929	5753.09
667.12	5701.89
667.311	5757.18
667.503	5476.61
667.694	5632.26
667.885	5728.51
668.077	5554.43
668.268	5486.85
668.459	5462.27
668.651	5486.85
668.842	5531.9
669.033	5398.79
669.224	5366.02
669.416	5421.31
669.607	5349.64
669.798	5443.84
669.989	5267.72
670.18	5323.01
670.371	5245.19
670.563	5208.33
670.754	5253.38
670.945	5237
671.136	5150.98
671.327	5148.93
671.518	5136.65
671.709	5001.48
671.9	5058.82
672.091	4972.81
672.282	5095.69
672.473	4905.23
672.664	5136.65
672.855	4915.47
673.046	4915.47
673.237	5036.3
673.428	4831.5
673.619	4845.84
673.809	4907.27
674	4882.7
674.191	4798.73
674.382	4813.07
674.573	4757.77
674.764	4794.64
674.954	4655.37
675.145	4772.11
675.336	4708.62
675.527	4581.65
675.717	4755.72
675.908	4659.47
676.099	4749.58
676.289	4612.37
676.48	4694.29
676.671	4651.28
676.861	4606.22
677.052	4581.65
677.243	4645.13
677.433	4479.25
677.624	4587.79
677.814	4628.75
678.005	4647.18
678.195	4550.93
678.386	4423.95
678.576	4456.72
678.767	4444.43
678.957	4421.91
679.148	4325.65
679.338	4389.14
679.529	4385.04
679.719	4223.25
679.909	4473.11
680.1	4229.4
680.29	4260.12
680.481	4278.55
680.671	4415.76
680.861	4243.73
681.052	4366.61
681.242	4200.73
681.432	4317.46
681.622	4217.11
681.813	4243.73
682.003	4094.23
682.193	4206.87
682.383	4305.17
682.573	4346.13
682.764	4143.38
682.954	4253.97
683.144	4120.85
683.334	4018.46
683.524	3938.59
683.714	3959.06
683.904	4014.36
684.094	4116.76
684.284	4118.81
684.474	4174.1
684.664	4040.98
684.854	3907.87
685.044	4098.33
685.234	3909.91
685.424	3928.35
685.614	3954.97
685.804	3950.87
685.994	3952.92
686.184	3936.54
686.374	3914.01
686.564	3950.87
686.753	3750.17
686.943	3817.76
687.133	3944.73
687.323	3860.76
687.513	3856.67
687.702	3797.28
687.892	3832.09
688.082	3729.69
688.272	3737.88
688.461	3744.03
688.651	3594.53
688.841	3674.4
689.03	3778.84
689.22	3666.21
689.41	3795.23
689.599	3696.92
689.789	3555.62
689.979	3561.76
690.168	3471.65
690.358	3522.85
690.547	3410.21
690.737	3615.01
690.926	3473.7
691.116	3420.45
691.305	3510.56
691.495	3426.59
691.684	3375.39
691.874	3483.94
692.063	3363.11
692.252	3385.63
692.442	3432.74
692.631	3309.86
692.82	3260.71
693.01	3264.8
693.199	3049.77
693.388	3373.35
693.578	3201.32
693.767	3121.45
693.956	3229.99
694.146	3180.84
694.335	3074.34
694.524	3080.49
694.713	3084.58
694.902	3113.25
695.092	3166.5
695.281	3131.69
695.47	2996.52
695.659	2973.99
695.848	3023.14
696.037	2945.32
696.226	3062.05
696.415	2971.94
696.604	3125.54
696.793	3090.73
696.982	2967.85
697.171	3082.53
697.36	2959.66
697.549	2973.99
697.738	2867.5
697.927	2881.83
698.116	2912.55
698.305	3006.76
698.494	2840.87
698.683	2892.07
698.872	3000.62
699.061	2900.27
699.25	2763.05
699.438	2724.14
699.627	2767.15
699.816	2791.72
700.005	2822.44
700.193	2703.66
700.382	2881.83
700.571	2773.29
700.76	2840.87
700.948	2808.11
701.137	2662.7
701.326	2707.76
701.514	2713.9
701.703	2726.19
701.892	2609.45
702.08	2728.24
702.269	2732.33
702.457	2617.65
702.646	2806.06
702.834	2621.74
703.023	2607.41
703.212	2621.74
703.4	2529.58
703.589	2699.56
703.777	2578.73
703.965	2578.73
704.154	2642.22
704.342	2660.65
704.531	2554.16
704.719	2572.59
704.907	2566.45
705.096	2599.21
705.284	2601.26
705.472	2726.19
705.661	2611.5
705.849	2730.28
706.037	2625.84
706.226	2605.36
706.414	2529.58
706.602	2527.53
706.79	2582.83
706.979	2574.64
707.167	2455.86
707.355	2627.89
707.543	2597.17
707.731	2541.87
707.919	2605.36
708.107	2500.91
708.296	2492.72
708.484	2572.59
708.672	2511.15
708.86	2527.53
709.048	2462
709.236	2591.02
709.424	2593.07
709.612	2556.21
709.8	2400.56
709.988	2511.15
710.176	2474.29
710.364	2566.45
710.551	2457.9
710.739	2556.21
710.927	2482.48
711.115	2537.77
711.303	2646.32
711.491	2480.43
711.679	2349.36
711.866	2410.8
712.054	2511.15
712.242	2556.21
712.43	2459.95
712.617	2535.73
712.805	2576.69
712.993	2466.1
713.181	2451.76
713.368	2552.11
713.556	2515.25
713.744	2404.66
713.931	2515.25
714.119	2464.05
714.306	2486.58
714.494	2515.25
714.682	2435.38
714.869	2357.55
715.057	2459.95
715.244	2521.39
715.432	2433.33
715.619	2552.11
715.807	2466.1
715.994	2451.76
716.182	2384.18
716.369	2447.66
716.556	2531.63
716.744	2390.32
716.931	2384.18
717.119	2396.46
717.306	2537.77
717.493	2427.18
717.681	2398.51
717.868	2361.65
718.055	2560.3
718.242	2431.28
718.43	2390.32
718.617	2345.27
718.804	2505.01
718.991	2523.44
719.179	2531.63
719.366	2443.57
719.553	2396.46
719.74	2492.72
719.927	2421.04
720.114	2580.78
720.301	2316.59
720.488	2380.08
720.676	2335.03
720.863	2449.71
721.05	2453.81
721.237	2462
721.424	2445.62
721.611	2531.63
721.798	2433.33
721.985	2482.48
722.172	2306.35
722.358	2410.8
722.545	2408.75
722.732	2339.12
722.919	2433.33
723.106	2339.12
723.293	2396.46
723.48	2373.94
723.667	2375.99
723.853	2416.94
724.04	2455.86
724.227	2443.57
724.414	2384.18
724.6	2453.81
724.787	2384.18
724.974	2390.32
725.161	2384.18
725.347	2292.02
725.534	2257.2
725.72	2341.17
725.907	2449.71
726.094	2486.58
726.28	2443.57
726.467	2447.66
726.653	2449.71
726.84	2371.89
727.027	2488.62
727.213	2390.32
727.4	2427.18
727.586	2335.03
727.773	2437.42
727.959	2312.5
728.145	2382.13
728.332	2400.56
728.518	2375.99
728.705	2480.43
728.891	2470.19
729.077	2298.16
729.264	2447.66
729.45	2398.51
729.636	2412.85
729.823	2357.55
730.009	2412.85
730.195	2371.89
730.382	2478.38
730.568	2349.36
730.754	2351.41
730.94	2423.09
731.126	2328.88
731.313	2316.59
731.499	2347.31
731.685	2462
731.871	2400.56
732.057	2322.74
732.243	2439.47
732.429	2302.26
732.615	2396.46
732.801	2351.41
732.987	2412.85
733.173	2416.94
733.359	2320.69
733.545	2332.98
733.731	2341.17
733.917	2447.66
734.103	2308.4
734.289	2361.65
734.475	2326.83
734.661	2447.66
734.847	2416.94
735.033	2328.88
735.219	2279.73
735.404	2351.41
735.59	2246.96
735.776	2328.88
735.962	2355.51
736.148	2335.03
736.333	2380.08
736.519	2328.88
736.705	2234.68
736.89	2255.15
737.076	2179.38
737.262	2226.48
737.447	2322.74
737.633	2324.79
737.819	2277.68
738.004	2271.54
738.19	2259.25
738.375	2246.96
738.561	2277.68
738.747	2238.77
738.932	2351.41
739.118	2267.44
739.303	2234.68
739.489	2249.01
739.674	2146.61
739.859	2203.96
740.045	2111.8
740.23	2193.72
740.416	2142.52
740.601	2265.39
740.786	2109.75
740.972	2150.71
741.157	2156.85
741.342	2140.47
741.528	2048.31
741.713	2277.68
741.898	2165.04
742.084	2068.79
742.269	1966.39
742.454	2031.93
742.639	2036.02
742.824	1993.01
743.01	2079.03
743.195	2152.76
743.38	2011.45
743.565	2044.21
743.75	2033.97
743.935	1999.16
744.12	2105.65
744.305	2017.59
744.49	1954.1
744.675	2122.04
744.86	1993.01
745.045	1884.47
745.23	1941.82
745.415	1913.14
745.6	1974.58
745.785	1988.92
745.97	1925.43
746.155	2007.35
746.34	1982.78
746.525	1956.15
746.71	1990.97
746.895	1866.04
747.079	1931.58
747.264	1849.66
747.449	1831.23
747.634	1792.31
747.819	1851.71
748.003	1712.44
748.188	1716.54
748.373	1894.71
748.557	1696.06
748.742	1728.83
748.927	1798.46
749.111	1806.65
749.296	1722.68
749.481	1853.75
749.665	1816.89
749.85	1741.11
750.034	1653.05
750.219	1716.54
750.404	1659.2
750.588	1669.44
750.773	1667.39
750.957	1659.2
751.141	1603.9
751.326	1700.16
751.51	1603.9
751.695	1601.85
751.879	1653.05
752.064	1554.75
752.248	1569.09
752.432	1597.76
752.617	1620.28
752.801	1585.47
752.985	1433.92
753.17	1524.03
753.354	1452.35
753.538	1462.59
753.722	1575.23
753.907	1521.98
754.091	1446.21
754.275	1444.16
754.459	1495.36
754.643	1452.35
754.828	1308.99
755.012	1300.8
755.196	1366.34
755.38	1395.01
755.564	1425.73
755.748	1335.62
755.932	1438.02
756.116	1274.18
756.3	1345.86
756.484	1364.29
756.668	1419.58
756.852	1433.92
757.036	1216.83
757.22	1368.38
757.404	1319.23
757.588	1302.85
757.772	1278.27
757.956	1280.32
758.14	1200.45
758.323	1165.64
758.507	1204.55
758.691	1233.22
758.875	1243.46
759.059	1233.22
759.242	1218.88
759.426	1280.32
759.61	1151.3
759.794	1165.64
759.977	1175.88
760.161	1212.74
760.345	1212.74
760.528	1122.63
760.712	1151.3
760.895	1233.22
761.079	1016.13
761.263	1157.44
761.446	1114.44
761.63	1155.4
761.813	1200.45
761.997	1085.76
762.18	1081.67
762.364	1061.19
762.547	1124.68
762.731	1089.86
762.914	1093.96
763.098	1075.52
763.281	1098.05
763.464	1102.15
763.648	1100.1
763.831	1069.38
764.015	1128.77
764.198	1096
764.381	1032.52
764.564	1059.14
764.748	1057.09
764.931	1036.61
765.114	1065.29
765.297	930.12
765.481	1009.99
765.664	1104.2
765.847	1038.66
766.03	1007.94
766.213	942.41
766.397	952.65
766.58	932.17
766.763	1042.76
766.946	1032.52
767.129	979.27
767.312	921.93
767.495	1016.13
767.678	975.17
767.861	1067.33
768.044	1005.89
768.227	999.75
768.41	934.22
768.593	999.75
768.776	880.97
768.959	901.45
769.142	995.65
769.324	956.74
769.507	921.93
769.69	907.59
769.873	893.26
770.056	917.83
770.239	975.17
770.421	928.07
770.604	840.01
770.787	854.34
770.97	932.17
771.152	872.78
771.335	911.69
771.518	827.72
771.7	885.06
771.883	997.7
772.066	893.26
772.248	901.45
772.431	862.54
772.613	911.69
772.796	751.95
772.978	792.91
773.161	809.29
773.343	762.19
773.526	809.29
773.708	842.06
773.891	846.15
774.073	862.54
774.256	792.91
774.438	821.58
774.621	786.76
774.803	792.91
774.985	786.76
775.168	747.85
775.35	805.19
775.532	760.14
775.715	717.13
775.897	778.57
776.079	653.64
776.261	745.8
776.444	753.99
776.626	698.7
776.808	614.73
776.99	715.08
777.173	721.23
777.355	700.75
777.537	643.4
777.719	721.23
777.901	633.16
778.083	649.55
778.265	637.26
778.447	637.26
778.629	657.74
778.811	649.55
778.993	696.65
779.175	680.27
779.357	608.59
779.539	680.27
779.721	686.41
779.903	586.06
780.085	567.63
780.267	645.45
780.449	571.72
780.631	567.63
780.812	678.22
780.994	561.48
781.176	676.17
781.358	624.97
781.54	579.92
781.721	596.3
781.903	573.77
782.085	512.33
782.267	622.92
782.448	491.85
782.63	477.52
782.812	561.48
782.993	555.34
783.175	483.66
783.357	520.53
783.538	465.23
783.72	536.91
783.901	522.57
784.083	569.68
784.264	495.95
784.446	620.88
784.627	457.04
784.809	543.05
784.99	545.1
785.172	561.48
785.353	538.96
785.535	565.58
785.716	477.52
785.897	481.61
786.079	446.8
786.26	424.27
786.441	446.8
786.623	430.41
786.804	418.13
786.985	465.23
787.167	444.75
787.348	418.13
787.529	459.09
787.71	409.94
787.891	491.85
788.073	483.66
788.254	424.27
788.435	426.32
788.616	405.84
788.797	467.28
788.978	483.66
789.159	432.46
789.34	399.7
789.522	383.31
789.703	383.31
789.884	434.51
790.065	393.55
790.246	389.46
790.427	348.5
790.607	379.22
790.788	401.74
790.969	352.59
791.15	368.98
791.331	375.12
791.512	342.35
791.693	332.11
791.874	373.07
792.054	418.13
792.235	350.54
792.416	285.01
792.597	297.3
792.778	352.59
792.958	371.02
793.139	377.17
793.32	270.67
793.5	366.93
793.681	446.8
793.862	358.74
794.042	342.35
794.223	328.02
794.404	207.19
794.584	328.02
794.765	299.34
794.945	256.34
795.126	303.44
795.306	315.73
795.487	299.34
795.667	291.15
795.848	233.81
796.028	334.16
796.209	297.3
796.389	338.26
796.57	336.21
796.75	221.52
796.93	248.15
797.111	334.16
797.291	262.48
797.471	321.87
797.652	278.87
797.832	344.4
798.012	278.87
798.192	205.14
798.373	246.1
798.553	266.58
798.733	250.19
798.913	282.96
799.093	252.24
799.274	248.15
799.454	229.71
799.634	285.01
799.814	252.24
799.994	291.15
800.174	184.66
800.354	307.54
800.534	229.71
800.714	256.34
800.894	258.39
801.074	188.75
801.254	336.21
801.434	227.67
801.614	264.53
801.794	246.1
801.974	717.13
802.154	254.29
802.334	252.24
802.514	207.19
802.693	295.25
802.873	211.28
803.053	221.52
803.233	147.8
803.413	250.19
803.592	162.13
803.772	201.04
803.952	209.23
804.131	170.32
804.311	272.72
804.491	295.25
804.67	176.47
804.85	207.19
805.03	287.06
805.209	264.53
805.389	198.99
805.568	188.75
805.748	158.03
805.928	137.56
806.107	252.24
806.287	160.08
806.466	295.25
806.646	223.57
806.825	260.43
807.004	198.99
807.184	182.61
807.363	239.95
807.543	131.41
807.722	260.43
807.901	217.43
808.081	112.98
808.26	141.65
808.439	172.37
808.619	252.24
808.798	198.99
808.977	246.1
809.156	227.67
809.336	139.6
809.515	160.08
809.694	246.1
809.873	129.36
810.052	121.17
810.231	160.08
810.411	170.32
810.59	198.99
810.769	196.95
810.948	209.23
811.127	174.42
811.306	196.95
811.485	172.37
811.664	198.99
811.843	205.14
812.022	106.84
812.201	168.27
812.38	145.75
812.559	135.51
812.737	151.89
812.916	188.75
813.095	158.03
813.274	207.19
813.453	133.46
813.632	135.51
813.811	168.27
813.989	115.03
814.168	180.56
814.347	123.22
814.526	237.91
814.704	145.75
814.883	135.51
815.062	135.51
815.24	188.75
815.419	164.18
815.598	135.51
815.776	147.8
815.955	186.71
816.133	96.6
816.312	151.89
816.49	112.98
816.669	180.56
816.847	166.23
817.026	88.4
817.204	112.98
817.383	137.56
817.561	115.03
817.74	127.32
817.918	176.47
818.097	178.51
818.275	164.18
818.453	168.27
818.632	155.99
818.81	104.79
818.988	98.64
819.167	182.61
819.345	137.56
819.523	65.88
819.701	127.32
819.879	186.71
820.058	119.12
820.236	141.65
820.414	149.84
820.592	59.73
820.77	137.56
820.948	86.36
821.127	129.36
821.305	115.03
821.483	170.32
821.661	127.32
821.839	160.08
822.017	76.12
822.195	110.93
822.373	135.51
822.551	94.55
822.729	149.84
822.907	76.12
823.085	162.13
823.262	80.21
823.44	143.7
823.618	98.64
823.796	57.68
823.974	104.79
824.152	86.36
824.329	78.16
824.507	135.51
824.685	117.08
824.863	67.92
825.04	63.83
825.218	149.84
825.396	49.49
825.574	104.79
825.751	96.6
825.929	135.51
826.107	57.68
826.284	59.73
826.462	84.31
826.639	139.6
826.817	80.21
826.994	141.65
827.172	125.27
827.349	115.03
827.527	29.01
827.704	82.26
827.882	65.88
828.059	125.27
828.237	100.69
828.414	82.26
828.591	-3.75
828.769	115.03
828.946	84.31
829.124	176.47
829.301	49.49
829.478	43.35
829.655	35.16
829.833	196.95
830.01	76.12
830.187	127.32
830.364	55.64
830.542	82.26
830.719	92.5
830.896	119.12
831.073	43.35
831.25	74.07
831.427	98.64
831.604	72.02
831.782	61.78
831.959	63.83
832.136	115.03
832.313	31.06
832.49	49.49
832.667	41.3
832.844	57.68
833.021	96.6
833.198	143.7
833.374	61.78
833.551	84.31
833.728	47.44
833.905	127.32
834.082	59.73
834.259	59.73
834.436	43.35
834.612	90.45
834.789	133.46
834.966	18.77
835.143	110.93
835.319	59.73
835.496	110.93
835.673	41.3
835.85	65.88
836.026	41.3
836.203	33.11
836.38	53.59
836.556	92.5
836.733	102.74
836.909	67.92
837.086	76.12
837.262	37.2
837.439	55.64
837.616	39.25
837.792	84.31
837.968	78.16
838.145	16.73
838.321	37.2
838.498	82.26
838.674	20.82
838.851	33.11
839.027	4.44
839.203	10.58
839.38	82.26
839.556	82.26
839.732	131.41
839.909	65.88
840.085	67.92
840.261	53.59
840.437	94.55
840.614	84.31
840.79	100.69
840.966	57.68
841.142	82.26
841.318	20.82
841.494	6.49
841.671	-5.8
841.847	69.97
842.023	18.77
842.199	39.25
842.375	18.77
842.551	55.64
842.727	-7.85
842.903	65.88
843.079	61.78
843.255	29.01
843.431	69.97
843.607	39.25
843.783	-20.14
843.959	106.84
844.134	102.74
844.31	76.12
844.486	65.88
844.662	20.82
844.838	78.16
845.013	26.96
845.189	51.54
845.365	6.49
845.541	57.68
845.716	-7.85
845.892	90.45
846.068	-9.9
846.244	8.53
846.419	57.68
846.595	31.06
846.77	57.68
846.946	57.68
847.122	24.92
847.297	-30.38
847.473	4.44
847.648	12.63
847.824	12.63
847.999	26.96
848.175	8.53
848.35	39.25
848.526	51.54
848.701	-13.99
848.876	41.3
849.052	18.77
849.227	41.3
849.403	12.63
849.578	39.25
849.753	24.92
849.929	-3.75
850.104	24.92
850.279	100.69
850.454	16.73
850.63	47.44
850.805	37.2
850.98	102.74
851.155	4.44
851.33	-7.85
851.505	39.25
851.681	33.11
851.856	57.68
852.031	31.06
852.206	94.55
852.381	110.93
852.556	22.87
852.731	8.53
852.906	76.12
853.081	47.44
853.256	84.31
853.431	31.06
853.606	61.78
853.781	26.96
853.956	33.11
854.131	12.63
854.305	39.25
854.48	115.03
854.655	67.92
854.83	-13.99
855.005	100.69
855.18	6.49
855.354	-7.85
855.529	47.44
855.704	16.73
855.879	35.16
856.053	-9.9
856.228	37.2
856.403	12.63
856.577	-44.71
856.752	69.97
856.926	-5.8
857.101	31.06
857.276	4.44
857.45	74.07
857.625	67.92
857.799	74.07
857.974	31.06
858.148	-28.33
858.323	49.49
858.497	26.96
858.672	-36.52
858.846	16.73
859.02	24.92
859.195	88.4
859.369	65.88
859.543	-83.63
859.718	-22.19
859.892	-7.85
860.066	82.26
860.241	-26.28
860.415	49.49
860.589	6.49
860.763	16.73
860.938	-42.67
861.112	61.78
861.286	-1.71
861.46	76.12
861.634	49.49
861.808	72.02
861.982	57.68
862.157	10.58
862.331	39.25
862.505	33.11
862.679	39.25
862.853	57.68
863.027	35.16
863.201	57.68
863.375	-20.14
863.549	-77.48
863.722	8.53
863.896	90.45
864.07	98.64
864.244	14.68
864.418	10.58
864.592	-11.95
864.766	-1.71
864.939	26.96
865.113	12.63
865.287	61.78
865.461	-1.71
865.634	6.49
865.808	-71.34
865.982	-26.28
866.156	29.01
866.329	84.31
866.503	104.79
866.676	18.77
866.85	35.16
867.024	26.96
867.197	47.44
867.371	49.49
867.544	0.34
867.718	-52.91
867.891	-7.85
868.065	20.82
868.238	41.3
868.412	33.11
868.585	72.02
868.759	14.68
868.932	31.06
869.105	20.82
869.279	-28.33
869.452	110.93
869.625	47.44
869.799	-30.38
869.972	0.34
870.145	-24.23
870.319	14.68
870.492	-9.9
870.665	-46.76
870.838	-40.62
871.011	4.44
871.185	-1.71
871.358	65.88
871.531	84.31
871.704	18.77
871.877	-5.8
872.05	49.49
872.223	26.96
872.396	90.45
872.569	-5.8
872.742	16.73
872.915	18.77
873.088	43.35
873.261	-7.85
873.434	-26.28
873.607	31.06
873.78	-9.9
873.953	-16.04
874.126	72.02
874.299	31.06
874.471	-9.9
874.644	55.64
874.817	102.74
874.99	29.01
875.163	12.63
875.335	-32.43
875.508	8.53
875.681	-26.28
875.853	-77.48
876.026	39.25
876.199	-75.43
876.371	-40.62
876.544	-73.39
876.717	39.25
876.889	-48.81
877.062	104.79
877.234	-42.67
877.407	-32.43
877.579	35.16
877.752	-77.48
877.924	41.3
878.097	39.25
878.269	41.3
878.442	98.64
878.614	-16.04
878.786	63.83
878.959	26.96
879.131	57.68
879.303	-89.77
879.476	16.73
879.648	76.12
879.82	0.34
879.993	-16.04
880.165	-7.85
880.337	20.82
880.509	39.25
880.681	-20.14
880.854	-57
881.026	-9.9
881.198	67.92
881.37	57.68
881.542	-44.71
881.714	-48.81
881.886	-61.1
882.058	31.06
882.23	-3.75
882.402	-52.91
882.574	22.87
882.746	22.87
882.918	47.44
883.09	6.49
883.262	-28.33
883.434	-11.95
883.606	-24.23
883.778	37.2
883.95	4.44
884.122	33.11
884.293	-32.43
884.465	-9.9
884.637	-57
884.809	20.82
884.98	-24.23
885.152	39.25
885.324	20.82
885.496	8.53
885.667	6.49
885.839	-3.75
886.011	33.11
886.182	2.39
886.354	-9.9
886.525	-9.9
886.697	-18.09
886.869	8.53
887.04	-81.58
887.212	-36.52
887.383	82.26
887.555	-57
887.726	-50.86
887.897	-3.75
888.069	-9.9
888.24	-48.81
888.412	-40.62
888.583	22.87
888.754	14.68
888.926	16.73
889.097	-73.39
889.268	-20.14
889.44	10.58
889.611	-16.04
889.782	-28.33
889.953	-28.33
890.125	35.16
890.296	-18.09
890.467	16.73
890.638	-24.23
890.809	69.97
890.98	65.88
891.151	47.44
891.323	18.77
891.494	-24.23
891.665	-24.23
891.836	-34.47
892.007	-1.71
892.178	16.73
892.349	-20.14
892.52	-34.47
892.691	-93.87
892.862	53.59
893.032	-20.14
893.203	-16.04
893.374	-32.43
893.545	41.3
893.716	12.63
893.887	37.2
894.057	22.87
894.228	-34.47
894.399	61.78
894.57	-5.8
894.74	2.39
894.911	14.68
895.082	-9.9
895.253	41.3
895.423	0.34
895.594	41.3
895.764	-9.9
895.935	14.68
896.106	72.02
896.276	29.01
896.447	-1.71
896.617	-16.04
896.788	-11.95
896.958	57.68
897.129	-38.57
897.299	29.01
897.47	-30.38
897.64	16.73
897.81	-9.9
897.981	-26.28
898.151	-13.99
898.322	47.44
898.492	4.44
898.662	-1.71
898.832	-24.23
899.003	-13.99
899.173	-36.52
899.343	-20.14
899.513	-32.43
