Data from USB4F104151__11__11-36-24-987.txt Node

Date: Fri Mar 14 11:36:24 EDT 2025
User: louis
Spectrometer: USB4F10415
Trigger mode: 4
Integration Time (sec): 2.000000E-2
Scans to average: 1
Electric dark correction enabled: true
Nonlinearity correction enabled: false
Boxcar width: 0
XAxis mode: Wavelengths
Number of Pixels in Spectrum: 3648
>>>>>Begin Spectral Data<<<<<
178.204	-93.69
178.424	-93.69
178.644	-93.69
178.864	-77.31
179.084	-44.54
179.304	-73.21
179.524	35.33
179.744	-44.54
179.964	61.95
180.184	-44.54
180.404	0.51
180.624	4.61
180.844	53.76
181.064	16.9
181.283	-19.97
181.503	-30.21
181.723	39.42
181.943	-36.35
182.163	98.81
182.383	29.18
182.602	51.71
182.822	59.9
183.042	-60.93
183.262	-95.74
183.482	-34.3
183.701	0.51
183.921	8.7
184.141	-3.58
184.361	-19.97
184.58	-56.83
184.8	35.33
185.02	14.85
185.239	31.23
185.459	-36.35
185.679	-19.97
185.898	-32.26
186.118	-17.92
186.338	12.8
186.557	102.91
186.777	4.61
186.997	43.52
187.216	-24.06
187.436	59.9
187.655	-11.78
187.875	-7.68
188.095	-19.97
188.314	20.99
188.534	45.57
188.753	-42.5
188.973	-5.63
189.192	37.38
189.412	18.94
189.631	78.33
189.851	41.47
190.07	-13.82
190.29	4.61
190.509	2.56
190.729	-3.58
190.948	107.01
191.168	12.8
191.387	74.24
191.607	-60.93
191.826	86.53
192.045	-3.58
192.265	59.9
192.484	49.66
192.704	0.51
192.923	10.75
193.142	4.61
193.362	-9.73
193.581	115.2
193.8	-30.21
194.02	35.33
194.239	-54.78
194.458	43.52
194.678	4.61
194.897	33.28
195.116	-15.87
195.335	-38.4
195.555	-13.82
195.774	-77.31
195.993	20.99
196.212	23.04
196.432	43.52
196.651	27.14
196.87	12.8
197.089	61.95
197.308	43.52
197.528	37.38
197.747	-48.64
197.966	53.76
198.185	-3.58
198.404	43.52
198.623	31.23
198.842	-34.3
199.062	20.99
199.281	-11.78
199.5	-11.78
199.719	45.57
199.938	-3.58
200.157	-22.02
200.376	-32.26
200.595	4.61
200.814	53.76
201.033	-73.21
201.252	27.14
201.471	31.23
201.69	18.94
201.909	72.19
202.128	4.61
202.347	37.38
202.566	14.85
202.785	12.8
203.004	12.8
203.223	23.04
203.442	61.95
203.661	-30.21
203.879	47.62
204.098	35.33
204.317	10.75
204.536	-52.74
204.755	-3.58
204.974	64
205.193	-7.68
205.411	4.61
205.63	20.99
205.849	27.14
206.068	8.7
206.287	-32.26
206.505	68.09
206.724	-81.41
206.943	53.76
207.162	76.29
207.381	61.95
207.599	37.38
207.818	0.51
208.037	-40.45
208.255	8.7
208.474	27.14
208.693	8.7
208.911	-7.68
209.13	23.04
209.349	2.56
209.567	16.9
209.786	8.7
210.005	-44.54
210.223	-30.21
210.442	-36.35
210.661	45.57
210.879	27.14
211.098	25.09
211.316	33.28
211.535	2.56
211.753	-65.02
211.972	12.8
212.191	-50.69
212.409	-44.54
212.628	-44.54
212.846	2.56
213.065	51.71
213.283	4.61
213.502	-36.35
213.72	-11.78
213.938	8.7
214.157	-36.35
214.375	14.85
214.594	-60.93
214.812	23.04
215.031	41.47
215.249	-3.58
215.467	82.43
215.686	53.76
215.904	23.04
216.122	-1.54
216.341	10.75
216.559	-3.58
216.778	-3.58
216.996	20.99
217.214	-17.92
217.432	-24.06
217.651	8.7
217.869	51.71
218.087	31.23
218.306	49.66
218.524	88.57
218.742	0.51
218.96	133.63
219.179	-7.68
219.397	4.61
219.615	-44.54
219.833	-46.59
220.051	20.99
220.27	8.7
220.488	-22.02
220.706	-7.68
220.924	-22.02
221.142	37.38
221.36	-3.58
221.578	-48.64
221.796	61.95
222.015	100.86
222.233	4.61
222.451	31.23
222.669	-26.11
222.887	-11.78
223.105	10.75
223.323	-60.93
223.541	-71.17
223.759	-38.4
223.977	-11.78
224.195	43.52
224.413	-13.82
224.631	-28.16
224.849	20.99
225.067	102.91
225.285	-7.68
225.503	-7.68
225.721	-62.98
225.939	33.28
226.157	68.09
226.375	31.23
226.592	-13.82
226.81	-28.16
227.028	88.57
227.246	-7.68
227.464	82.43
227.682	29.18
227.9	-7.68
228.117	20.99
228.335	43.52
228.553	-101.89
228.771	31.23
228.989	57.86
229.206	-36.35
229.424	10.75
229.642	-58.88
229.86	-65.02
230.077	78.33
230.295	-9.73
230.513	12.8
230.731	6.66
230.948	-44.54
231.166	109.05
231.384	-32.26
231.601	-26.11
231.819	2.56
232.037	10.75
232.254	-34.3
232.472	37.38
232.689	47.62
232.907	10.75
233.125	2.56
233.342	-5.63
233.56	-24.06
233.777	18.94
233.995	-19.97
234.213	35.33
234.43	-19.97
234.648	-32.26
234.865	12.8
235.083	59.9
235.3	4.61
235.518	29.18
235.735	-9.73
235.953	45.57
236.17	29.18
236.388	25.09
236.605	-11.78
236.822	96.77
237.04	31.23
237.257	45.57
237.475	18.94
237.692	66.05
237.909	-11.78
238.127	-34.3
238.344	-11.78
238.562	31.23
238.779	8.7
238.996	-9.73
239.214	-48.64
239.431	37.38
239.648	16.9
239.865	41.47
240.083	-32.26
240.3	-13.82
240.517	12.8
240.735	-19.97
240.952	18.94
241.169	-38.4
241.386	90.62
241.603	20.99
241.821	16.9
242.038	-11.78
242.255	4.61
242.472	45.57
242.689	18.94
242.907	-5.63
243.124	-30.21
243.341	61.95
243.558	-36.35
243.775	-34.3
243.992	-38.4
244.209	37.38
244.426	47.62
244.643	47.62
244.86	-9.73
245.078	53.76
245.295	78.33
245.512	45.57
245.729	-30.21
245.946	4.61
246.163	66.05
246.38	49.66
246.597	-24.06
246.814	0.51
247.031	-9.73
247.248	45.57
247.464	6.66
247.681	-28.16
247.898	12.8
248.115	61.95
248.332	-22.02
248.549	45.57
248.766	23.04
248.983	-46.59
249.2	49.66
249.417	12.8
249.633	70.14
249.85	-28.16
250.067	-60.93
250.284	47.62
250.501	20.99
250.717	-1.54
250.934	-22.02
251.151	20.99
251.368	14.85
251.585	12.8
251.801	53.76
252.018	-19.97
252.235	64
252.451	-44.54
252.668	25.09
252.885	12.8
253.102	-3.58
253.318	37.38
253.535	51.71
253.752	-67.07
253.968	31.23
254.185	-11.78
254.401	43.52
254.618	8.7
254.835	-19.97
255.051	37.38
255.268	49.66
255.484	4.61
255.701	45.57
255.917	-17.92
256.134	-50.69
256.351	8.7
256.567	-3.58
256.784	-5.63
257	45.57
257.217	-5.63
257.433	61.95
257.65	18.94
257.866	18.94
258.082	10.75
258.299	27.14
258.515	14.85
258.732	47.62
258.948	27.14
259.165	27.14
259.381	-46.59
259.597	45.57
259.814	16.9
260.03	29.18
260.246	59.9
260.463	-3.58
260.679	27.14
260.895	-5.63
261.112	41.47
261.328	18.94
261.544	29.18
261.761	45.57
261.977	51.71
262.193	20.99
262.409	0.51
262.626	76.29
262.842	-44.54
263.058	-28.16
263.274	2.56
263.49	45.57
263.707	-5.63
263.923	68.09
264.139	45.57
264.355	23.04
264.571	57.86
264.787	31.23
265.004	-28.16
265.22	64
265.436	98.81
265.652	29.18
265.868	49.66
266.084	18.94
266.3	39.42
266.516	74.24
266.732	-9.73
266.948	18.94
267.164	61.95
267.38	-38.4
267.596	55.81
267.812	100.86
268.028	45.57
268.244	49.66
268.46	68.09
268.676	94.72
268.892	-7.68
269.108	-5.63
269.324	-3.58
269.54	6.66
269.756	12.8
269.972	-17.92
270.188	-3.58
270.403	8.7
270.619	25.09
270.835	25.09
271.051	4.61
271.267	-11.78
271.483	-40.45
271.698	-5.63
271.914	-15.87
272.13	2.56
272.346	8.7
272.562	-69.12
272.777	102.91
272.993	-15.87
273.209	8.7
273.425	72.19
273.64	-7.68
273.856	-28.16
274.072	20.99
274.287	82.43
274.503	25.09
274.719	-54.78
274.934	96.77
275.15	20.99
275.366	-81.41
275.581	41.47
275.797	0.51
276.012	18.94
276.228	39.42
276.444	-11.78
276.659	20.99
276.875	8.7
277.09	-13.82
277.306	53.76
277.521	-15.87
277.737	-3.58
277.952	45.57
278.168	49.66
278.383	6.66
278.599	23.04
278.814	78.33
279.03	45.57
279.245	27.14
279.461	6.66
279.676	41.47
279.892	-40.45
280.107	-9.73
280.322	27.14
280.538	27.14
280.753	8.7
280.969	14.85
281.184	-48.64
281.399	20.99
281.615	35.33
281.83	-62.98
282.045	-44.54
282.26	94.72
282.476	53.76
282.691	70.14
282.906	37.38
283.122	20.99
283.337	23.04
283.552	76.29
283.767	-24.06
283.983	18.94
284.198	61.95
284.413	45.57
284.628	-7.68
284.843	8.7
285.058	92.67
285.274	4.61
285.489	68.09
285.704	-19.97
285.919	16.9
286.134	-3.58
286.349	-44.54
286.564	41.47
286.779	86.53
286.995	55.81
287.21	-28.16
287.425	-17.92
287.64	27.14
287.855	-36.35
288.07	59.9
288.285	31.23
288.5	74.24
288.715	66.05
288.93	37.38
289.145	-22.02
289.36	14.85
289.575	41.47
289.79	61.95
290.004	-15.87
290.219	92.67
290.434	16.9
290.649	68.09
290.864	0.51
291.079	-15.87
291.294	-15.87
291.509	0.51
291.724	-13.82
291.938	70.14
292.153	-19.97
292.368	53.76
292.583	-9.73
292.798	41.47
293.012	-1.54
293.227	33.28
293.442	-17.92
293.657	41.47
293.871	-19.97
294.086	-1.54
294.301	74.24
294.516	-7.68
294.73	53.76
294.945	-15.87
295.16	53.76
295.374	-11.78
295.589	111.1
295.804	-40.45
296.018	2.56
296.233	16.9
296.447	2.56
296.662	-19.97
296.877	53.76
297.091	72.19
297.306	-42.5
297.52	-28.16
297.735	-26.11
297.949	-11.78
298.164	84.48
298.378	-7.68
298.593	84.48
298.807	61.95
299.022	20.99
299.236	6.66
299.451	23.04
299.665	-44.54
299.88	29.18
300.094	-52.74
300.309	0.51
300.523	-26.11
300.737	-24.06
300.952	-9.73
301.166	-3.58
301.381	64
301.595	33.28
301.809	-15.87
302.024	43.52
302.238	0.51
302.452	4.61
302.667	-3.58
302.881	84.48
303.095	2.56
303.309	8.7
303.524	-50.69
303.738	10.75
303.952	53.76
304.166	-24.06
304.381	-15.87
304.595	43.52
304.809	-11.78
305.023	90.62
305.237	80.38
305.452	43.52
305.666	-15.87
305.88	29.18
306.094	37.38
306.308	-24.06
306.522	20.99
306.736	23.04
306.95	-13.82
307.164	12.8
307.379	27.14
307.593	-46.59
307.807	72.19
308.021	27.14
308.235	0.51
308.449	-3.58
308.663	16.9
308.877	-9.73
309.091	8.7
309.305	43.52
309.519	-9.73
309.733	43.52
309.947	29.18
310.161	66.05
310.374	-54.78
310.588	45.57
310.802	-3.58
311.016	10.75
311.23	64
311.444	12.8
311.658	-30.21
311.872	-17.92
312.085	27.14
312.299	53.76
312.513	-36.35
312.727	37.38
312.941	-19.97
313.154	84.48
313.368	23.04
313.582	66.05
313.796	39.42
314.009	70.14
314.223	-15.87
314.437	49.66
314.651	53.76
314.864	-11.78
315.078	2.56
315.292	23.04
315.505	23.04
315.719	0.51
315.933	43.52
316.146	29.18
316.36	27.14
316.573	74.24
316.787	-1.54
317.001	-32.26
317.214	-48.64
317.428	8.7
317.641	94.72
317.855	-24.06
318.068	64
318.282	-17.92
318.495	57.86
318.709	25.09
318.922	37.38
319.136	43.52
319.349	61.95
319.563	29.18
319.776	-19.97
319.99	2.56
320.203	25.09
320.417	20.99
320.63	68.09
320.843	20.99
321.057	-5.63
321.27	25.09
321.483	18.94
321.697	86.53
321.91	4.61
322.124	12.8
322.337	37.38
322.55	45.57
322.763	-3.58
322.977	-13.82
323.19	41.47
323.403	-3.58
323.617	-9.73
323.83	90.62
324.043	-3.58
324.256	-11.78
324.469	-44.54
324.683	53.76
324.896	-32.26
325.109	68.09
325.322	33.28
325.535	-3.58
325.748	27.14
325.962	35.33
326.175	35.33
326.388	25.09
326.601	8.7
326.814	31.23
327.027	70.14
327.24	59.9
327.453	18.94
327.666	2.56
327.879	-17.92
328.092	-19.97
328.305	-46.59
328.518	4.61
328.731	66.05
328.944	-19.97
329.157	4.61
329.37	10.75
329.583	86.53
329.796	53.76
330.009	14.85
330.222	43.52
330.435	45.57
330.648	45.57
330.861	-28.16
331.073	16.9
331.286	139.77
331.499	68.09
331.712	51.71
331.925	12.8
332.138	-5.63
332.35	59.9
332.563	-13.82
332.776	45.57
332.989	12.8
333.202	41.47
333.414	25.09
333.627	53.76
333.84	82.43
334.053	-24.06
334.265	-36.35
334.478	12.8
334.691	-11.78
334.903	53.76
335.116	-83.45
335.329	72.19
335.541	37.38
335.754	25.09
335.966	25.09
336.179	31.23
336.392	41.47
336.604	43.52
336.817	35.33
337.029	51.71
337.242	-44.54
337.454	-28.16
337.667	-13.82
337.88	119.29
338.092	-22.02
338.305	37.38
338.517	20.99
338.729	-24.06
338.942	107.01
339.154	18.94
339.367	25.09
339.579	20.99
339.792	-65.02
340.004	45.57
340.217	47.62
340.429	18.94
340.641	35.33
340.854	16.9
341.066	-65.02
341.278	59.9
341.491	35.33
341.703	-5.63
341.915	-38.4
342.128	57.86
342.34	57.86
342.552	-30.21
342.764	4.61
342.977	-7.68
343.189	-11.78
343.401	74.24
343.613	-77.31
343.826	135.68
344.038	20.99
344.25	74.24
344.462	55.81
344.674	86.53
344.886	8.7
345.099	-28.16
345.311	20.99
345.523	-48.64
345.735	-3.58
345.947	45.57
346.159	-34.3
346.371	61.95
346.583	37.38
346.795	-19.97
347.007	8.7
347.219	41.47
347.431	16.9
347.643	10.75
347.855	-19.97
348.067	66.05
348.279	18.94
348.491	76.29
348.703	70.14
348.915	18.94
349.127	47.62
349.339	59.9
349.551	16.9
349.763	57.86
349.975	43.52
350.187	23.04
350.399	100.86
350.61	76.29
350.822	-5.63
351.034	70.14
351.246	2.56
351.458	31.23
351.669	10.75
351.881	57.86
352.093	59.9
352.305	43.52
352.517	0.51
352.728	14.85
352.94	90.62
353.152	61.95
353.363	-1.54
353.575	102.91
353.787	80.38
353.999	27.14
354.21	100.86
354.422	4.61
354.633	-36.35
354.845	-52.74
355.057	-17.92
355.268	25.09
355.48	41.47
355.692	78.33
355.903	31.23
356.115	29.18
356.326	41.47
356.538	41.47
356.749	111.1
356.961	102.91
357.172	78.33
357.384	-11.78
357.595	45.57
357.807	-19.97
358.018	-13.82
358.23	41.47
358.441	16.9
358.653	33.28
358.864	-22.02
359.075	18.94
359.287	43.52
359.498	64
359.709	-5.63
359.921	27.14
360.132	4.61
360.344	31.23
360.555	51.71
360.766	-7.68
360.977	20.99
361.189	51.71
361.4	10.75
361.611	111.1
361.823	74.24
362.034	47.62
362.245	-3.58
362.456	-24.06
362.667	25.09
362.879	-19.97
363.09	49.66
363.301	57.86
363.512	4.61
363.723	41.47
363.935	-7.68
364.146	18.94
364.357	39.42
364.568	16.9
364.779	8.7
364.99	25.09
365.201	20.99
365.412	88.57
365.623	4.61
365.834	47.62
366.045	53.76
366.256	20.99
366.467	35.33
366.678	20.99
366.889	102.91
367.1	37.38
367.311	39.42
367.522	70.14
367.733	53.76
367.944	-22.02
368.155	59.9
368.366	70.14
368.577	55.81
368.788	47.62
368.999	-56.83
369.209	35.33
369.42	27.14
369.631	76.29
369.842	109.05
370.053	59.9
370.264	2.56
370.474	20.99
370.685	12.8
370.896	27.14
371.107	51.71
371.317	14.85
371.528	18.94
371.739	27.14
371.95	68.09
372.16	70.14
372.371	-3.58
372.582	-15.87
372.792	10.75
373.003	107.01
373.214	37.38
373.424	27.14
373.635	45.57
373.846	53.76
374.056	80.38
374.267	-44.54
374.477	90.62
374.688	14.85
374.898	-17.92
375.109	119.29
375.319	78.33
375.53	31.23
375.74	35.33
375.951	57.86
376.161	-26.11
376.372	82.43
376.582	-13.82
376.793	80.38
377.003	-1.54
377.214	20.99
377.424	51.71
377.635	27.14
377.845	16.9
378.055	43.52
378.266	-1.54
378.476	82.43
378.686	25.09
378.897	86.53
379.107	-44.54
379.317	10.75
379.528	39.42
379.738	20.99
379.948	4.61
380.158	104.96
380.369	-38.4
380.579	45.57
380.789	33.28
380.999	57.86
381.21	33.28
381.42	20.99
381.63	-7.68
381.84	82.43
382.05	29.18
382.261	66.05
382.471	14.85
382.681	76.29
382.891	39.42
383.101	74.24
383.311	-28.16
383.521	57.86
383.731	78.33
383.941	68.09
384.151	20.99
384.361	-9.73
384.571	47.62
384.781	14.85
384.991	35.33
385.201	29.18
385.411	12.8
385.621	27.14
385.831	74.24
386.041	8.7
386.251	31.23
386.461	27.14
386.671	35.33
386.881	119.29
387.091	100.86
387.301	43.52
387.511	53.76
387.72	45.57
387.93	31.23
388.14	4.61
388.35	53.76
388.56	2.56
388.769	0.51
388.979	-15.87
389.189	-22.02
389.399	16.9
389.609	18.94
389.818	53.76
390.028	78.33
390.238	59.9
390.447	125.44
390.657	-3.58
390.867	41.47
391.076	20.99
391.286	-32.26
391.496	66.05
391.705	-50.69
391.915	80.38
392.125	109.05
392.334	25.09
392.544	53.76
392.753	45.57
392.963	86.53
393.172	43.52
393.382	25.09
393.591	82.43
393.801	-5.63
394.01	107.01
394.22	74.24
394.429	-13.82
394.639	53.76
394.848	119.29
395.058	119.29
395.267	76.29
395.477	68.09
395.686	37.38
395.895	8.7
396.105	131.58
396.314	53.76
396.524	135.68
396.733	4.61
396.942	82.43
397.152	6.66
397.361	137.73
397.57	27.14
397.78	6.66
397.989	43.52
398.198	162.3
398.407	117.25
398.617	100.86
398.826	31.23
399.035	61.95
399.244	57.86
399.453	113.15
399.663	139.77
399.872	70.14
400.081	109.05
400.29	82.43
400.499	96.77
400.708	139.77
400.917	37.38
401.127	35.33
401.336	53.76
401.545	188.93
401.754	29.18
401.963	78.33
402.172	47.62
402.381	92.67
402.59	109.05
402.799	100.86
403.008	172.54
403.217	111.1
403.426	29.18
403.635	100.86
403.844	125.44
404.053	199.16
404.262	131.58
404.471	76.29
404.68	100.86
404.888	207.36
405.097	184.83
405.306	61.95
405.515	184.83
405.724	98.81
405.933	143.87
406.142	158.21
406.35	166.4
406.559	143.87
406.768	225.79
406.977	145.92
407.185	178.69
407.394	158.21
407.603	209.4
407.812	207.36
408.02	254.46
408.229	260.6
408.438	180.73
408.646	248.32
408.855	184.83
409.064	256.51
409.272	145.92
409.481	272.89
409.69	188.93
409.898	272.89
410.107	305.66
410.315	330.23
410.524	221.69
410.733	342.52
410.941	340.47
411.15	274.94
411.358	305.66
411.567	406.01
411.775	365.05
411.984	363
412.192	391.67
412.401	471.54
412.609	418.3
412.818	449.02
413.026	422.39
413.234	508.41
413.443	438.78
413.651	469.5
413.86	575.99
414.068	575.99
414.276	573.94
414.485	535.03
414.693	684.53
414.901	614.9
415.11	664.05
415.318	623.09
415.526	672.25
415.734	799.22
415.943	725.49
416.151	807.41
416.359	903.67
416.567	846.32
416.776	840.18
416.984	858.61
417.192	893.43
417.4	946.67
417.608	920.05
417.817	1032.69
418.025	1024.5
418.233	1130.99
418.441	1120.75
418.649	1130.99
418.857	1274.35
419.065	1284.59
419.273	1309.16
419.481	1339.88
419.689	1331.69
419.897	1389.03
420.105	1518.06
420.313	1397.23
420.521	1561.06
420.729	1577.45
420.937	1612.26
421.145	1683.94
421.353	1821.16
421.561	1784.29
421.769	1888.74
421.977	2017.76
422.185	1896.93
422.393	2111.97
422.601	2200.03
422.809	2212.32
423.017	2187.74
423.224	2314.72
423.432	2419.16
423.64	2415.07
423.848	2593.24
424.056	2456.03
424.263	2814.42
424.471	2826.71
424.679	2853.33
424.887	2867.67
425.094	3025.36
425.302	3017.17
425.51	3191.25
425.718	3113.42
425.925	3166.67
426.133	3432.91
426.341	3545.55
426.548	3727.82
426.756	3707.34
426.964	3787.21
427.171	4067.78
427.379	4133.31
427.586	4215.23
427.794	4254.14
428.001	4438.46
428.209	4735.42
428.417	4827.57
428.624	4964.79
428.832	5034.42
429.039	4952.5
429.247	4891.06
429.454	5429.68
429.662	5595.56
429.869	5398.96
430.076	5874.09
430.284	5622.19
430.491	5919.14
430.699	6275.49
430.906	6187.43
431.114	6203.81
431.321	6525.34
431.528	6697.37
431.736	6992.28
431.943	7391.63
432.15	7260.56
432.358	7250.32
432.565	7621
432.772	7618.96
432.979	7897.48
433.187	8126.85
433.394	8352.13
433.601	8735.1
433.808	8677.76
434.016	8864.12
434.223	9046.39
434.43	9720.17
434.637	9351.54
434.844	9871.72
435.052	10275.17
435.259	10131.81
435.466	10207.59
435.673	10211.68
435.88	10721.63
436.087	11489.62
436.294	11374.93
436.501	11080.02
436.708	11424.08
436.915	11895.11
437.122	12339.52
437.329	12163.4
437.537	12611.9
437.743	12935.48
437.95	12708.16
438.157	13441.33
438.364	13928.75
438.571	13812.01
438.778	14020.91
438.985	15331.61
439.192	14420.26
439.399	15229.21
439.606	14752.03
439.813	15364.37
440.02	16496.9
440.227	16124.17
440.433	15905.04
440.64	16580.87
440.847	16492.8
441.054	16802.05
441.261	17807.6
441.467	17893.61
441.674	18122.99
441.881	19020
442.088	18561.25
442.294	18661.6
442.501	19077.34
442.708	19534.04
442.914	20275.4
443.121	21201.08
443.328	20631.75
443.534	22014.13
443.741	21403.83
443.948	21174.46
444.154	22759.59
444.361	22427.82
444.568	22509.74
444.774	22345.9
444.981	23054.5
445.187	23615.64
445.394	24684.68
445.6	24287.37
445.807	26634.35
446.013	25188.48
446.22	25940.08
446.426	26929.25
446.633	27394.14
446.839	28106.84
447.046	26691.69
447.252	28434.51
447.459	28446.8
447.665	28188.75
447.871	29376.58
448.078	30738.47
448.284	29417.54
448.491	30109.75
448.697	31361.06
448.903	32010.26
449.11	31860.76
449.316	31672.35
449.522	32012.31
449.728	32729.1
449.935	33349.64
450.141	33003.53
450.347	33961.98
450.553	32741.39
450.76	33054.73
450.966	33931.26
451.172	33675.26
451.378	34695.15
451.584	33880.06
451.791	35078.12
451.997	34815.98
452.203	35411.94
452.409	35129.32
452.615	35039.21
452.821	34140.15
453.027	33302.53
453.233	34961.39
453.44	34009.08
453.646	34416.63
453.852	34535.41
454.058	34799.6
454.264	33847.29
454.47	34639.86
454.676	33357.83
454.882	34633.71
455.088	31787.03
455.294	32217.11
455.5	32702.48
455.705	32954.38
455.911	31881.24
456.117	31086.63
456.323	30775.34
456.529	29231.17
456.735	30038.07
456.941	29648.96
457.147	28885.06
457.352	28416.08
457.558	27852.89
457.764	27742.3
457.97	27476.06
458.176	26923.11
458.381	26675.3
458.587	25454.72
458.793	25563.26
458.999	24051.86
459.204	26146.93
459.41	24885.38
459.616	23466.14
459.821	23474.33
460.027	23220.38
460.233	22941.86
460.438	21774.52
460.644	22053.04
460.85	20803.78
461.055	20807.87
461.261	20666.56
461.466	18772.19
461.672	18497.77
461.878	20013.26
462.083	18483.43
462.289	18280.68
462.494	17862.9
462.7	17211.64
462.905	16861.44
463.111	17410.29
463.316	17213.69
463.522	17068.28
463.727	16910.59
463.932	16859.39
464.138	16867.58
464.343	16955.65
464.549	16566.53
464.754	17107.19
464.959	16658.69
465.165	16670.98
465.37	15739.15
465.575	15493.4
465.781	16138.51
465.986	16292.1
466.191	15755.54
466.397	15350.04
466.602	14567.71
466.807	15397.14
467.012	15227.16
467.218	14905.63
467.423	14870.81
467.628	14805.28
467.833	15700.24
468.038	15081.75
468.244	14647.58
468.449	15243.54
468.654	14979.36
468.859	14766.37
469.064	14385.44
469.269	14115.11
469.474	13955.37
469.679	14299.43
469.885	13812.01
470.09	14235.94
470.295	13949.23
470.5	13619.5
470.705	13760.81
470.91	13338.93
471.115	13465.91
471.32	13431.09
471.525	13521.2
471.73	12974.39
471.935	12976.44
472.139	12374.34
472.344	12726.59
472.549	12775.74
472.754	12517.7
472.959	12222.79
473.164	11884.87
473.369	12001.61
473.574	12433.73
473.778	12120.39
473.983	12087.62
474.188	11938.12
474.393	11460.95
474.598	11534.67
474.802	11366.74
475.007	11350.35
475.212	11227.48
475.417	11077.97
475.621	10838.36
475.826	11155.8
476.031	10629.47
476.235	10621.28
476.44	10840.41
476.645	10432.86
476.849	10619.23
477.054	10273.12
477.259	10338.66
477.463	10361.19
477.668	9914.73
477.872	9982.31
478.077	9648.49
478.282	9681.26
478.486	9503.09
478.691	9640.3
478.895	9533.81
479.1	9220.47
479.304	9304.43
479.509	9208.18
479.713	9343.35
479.918	9179.51
480.122	9073.01
480.326	9138.55
480.531	9146.74
480.735	9073.01
480.94	8989.05
481.144	9281.91
481.348	8825.21
481.553	8882.55
481.757	8831.35
481.961	8925.56
482.166	8905.08
482.37	8915.32
482.574	8655.23
482.778	8923.51
482.983	8847.74
483.187	8921.46
483.391	8688
483.595	8653.18
483.8	8581.5
484.004	8810.87
484.208	8909.18
484.412	8802.68
484.616	8814.97
484.821	8780.15
485.025	8552.83
485.229	8896.89
485.433	8483.2
485.637	8671.61
485.841	8640.89
486.045	8860.02
486.249	8774.01
486.453	8628.6
486.657	8876.41
486.861	8892.79
487.065	8526.21
487.269	8634.75
487.473	8565.12
487.677	8616.32
487.881	8688
488.085	8618.36
488.289	8726.91
488.493	8761.72
488.697	8784.25
488.901	8823.16
489.105	8814.97
489.309	8872.31
489.512	8759.67
489.716	8890.74
489.92	8794.49
490.124	8917.37
490.328	9001.33
490.531	8833.4
490.735	9042.29
490.939	9220.47
491.143	8888.7
491.346	9056.63
491.55	8999.29
491.754	9064.82
491.958	9228.66
492.161	9220.47
492.365	9130.36
492.569	9187.7
492.772	9359.73
492.976	9294.19
493.18	9390.45
493.383	9255.28
493.587	9750.89
493.79	9652.59
493.994	9529.71
494.197	9552.24
494.401	9533.81
494.605	9666.92
494.808	9961.83
495.012	9757.04
495.215	9873.77
495.419	9894.25
495.622	9877.87
495.825	10080.61
496.029	10033.51
496.232	10416.48
496.436	10297.7
496.639	10383.71
496.843	10520.93
497.046	10549.6
497.249	10846.55
497.453	10750.3
497.656	10961.24
497.859	10727.77
498.063	10971.48
498.266	11376.98
498.469	11370.83
498.673	11358.55
498.876	11557.2
499.079	11579.73
499.282	11594.06
499.485	11929.93
499.689	12110.15
499.892	12192.07
500.095	12091.72
500.298	12372.29
500.501	12562.75
500.705	12675.39
500.908	12740.93
501.111	13021.5
501.314	13025.59
501.517	13127.99
501.72	13367.6
501.923	13283.64
502.126	13654.32
502.329	13867.31
502.532	13908.27
502.735	14205.22
502.938	14250.28
503.141	14281
503.344	14575.91
503.547	14510.37
503.75	14766.37
503.953	15126.81
504.156	15110.43
504.359	15345.94
504.562	15366.42
504.765	15511.83
504.968	15665.42
505.17	15915.28
505.373	15644.95
505.576	16394.5
505.779	16201.99
505.982	16578.82
506.185	16597.25
506.387	16892.16
506.59	16935.17
506.793	17146.11
506.996	17285.37
507.198	17744.11
507.401	17608.95
507.604	17522.93
507.807	18233.58
508.009	18307.3
508.212	18401.51
508.415	18610.4
508.617	18720.99
508.82	19003.61
509.022	18747.62
509.225	19284.19
509.428	19544.28
509.63	19495.13
509.833	19747.03
510.035	20074.7
510.238	19755.22
510.44	20203.72
510.643	20365.51
510.845	20762.82
511.048	20680.9
511.25	21074.11
511.453	21014.72
511.655	22112.43
511.858	21555.38
512.06	21795
512.262	22100.14
512.465	21739.7
512.667	22192.3
512.87	22302.89
513.072	22407.34
513.274	22796.45
513.477	23216.29
513.679	23390.36
513.881	23339.16
514.084	23926.93
514.286	23738.52
514.488	23974.03
514.69	24615.05
514.893	24445.07
515.095	24385.68
515.297	25073.79
515.499	24701.06
515.701	25520.25
515.904	25407.61
516.106	25563.26
516.308	25606.27
516.51	26357.87
516.712	26323.05
516.914	26546.28
517.116	26798.18
517.318	26833
517.52	27013.22
517.722	27215.97
517.925	27396.19
518.127	27912.28
518.329	27875.41
518.531	27666.52
518.733	28194.9
518.935	28594.25
519.136	28545.1
519.338	28776.52
519.54	28964.93
519.742	29534.27
519.944	29317.18
520.146	30099.51
520.348	29929.53
520.55	29997.11
520.752	29927.48
520.954	30670.89
521.155	30095.41
521.357	30812.2
521.559	31227.94
521.761	31371.3
521.963	31137.83
522.164	31494.18
522.366	31744.03
522.568	31502.37
522.77	32153.62
522.971	32131.09
523.173	31959.06
523.375	32505.87
523.576	32970.76
523.778	32651.28
523.98	32888.84
524.181	33142.79
524.383	33067.02
524.584	33429.51
524.786	33425.41
524.988	33419.27
525.189	33824.76
525.391	33959.93
525.592	34062.33
525.794	34551.79
525.995	34367.48
526.197	34396.15
526.398	34381.81
526.6	34801.64
526.801	34904.04
527.003	35061.74
527.204	34885.61
527.406	35426.28
527.607	35248.1
527.808	35182.57
528.01	34768.88
528.211	35268.58
528.412	35710.94
528.614	35618.78
528.815	35428.32
529.016	36528.08
529.218	35256.29
529.419	35897.31
529.62	35952.6
529.822	36341.72
530.023	36380.63
530.224	35862.49
530.425	36169.69
530.626	36085.72
530.828	35772.38
531.029	36808.65
531.23	36302.81
531.431	36452.31
531.632	36397.01
531.833	36241.37
532.035	36411.35
532.236	36487.12
532.437	37066.7
532.638	36558.8
532.839	36741.07
533.04	36653.01
533.241	35631.07
533.442	37156.81
533.643	36874.19
533.844	36992.97
534.045	37021.64
534.246	36618.19
534.447	36952.01
534.648	36724.69
534.849	36704.21
535.05	36583.38
535.251	36788.17
535.451	36773.84
535.652	37033.93
535.853	36980.68
536.054	36892.62
536.255	36777.93
536.456	36464.6
536.657	37580.74
536.857	36706.26
537.058	36198.36
537.259	36870.09
537.46	36523.99
537.66	36900.81
537.861	36792.27
538.062	36546.51
538.263	36472.79
538.463	36208.6
538.664	36749.26
538.865	37142.47
539.065	36648.91
539.266	36767.69
539.466	36997.07
539.667	36141.02
539.868	36829.13
540.068	36741.07
540.269	36603.86
540.469	36710.35
540.67	36427.73
540.87	36618.19
541.071	36595.67
541.271	36878.29
541.472	36706.26
541.672	36339.67
541.873	36573.14
542.073	35796.96
542.274	36663.25
542.474	36249.56
542.675	36315.09
542.875	36822.99
543.075	36335.57
543.276	36360.15
543.476	36358.1
543.676	36487.12
543.877	36298.71
544.077	36616.15
544.277	36364.25
544.478	36138.97
544.678	36397.01
544.878	36435.92
545.078	36460.5
545.279	35973.08
545.479	36265.94
545.679	36507.6
545.879	36462.55
546.079	36585.43
546.28	36546.51
546.48	35864.54
546.68	36427.73
546.88	36276.18
547.08	36233.18
547.28	36296.66
547.48	35817.44
547.68	35985.37
547.88	36104.15
548.081	36384.72
548.281	36286.42
548.481	36001.75
548.681	36108.25
548.881	36327.38
549.081	36124.63
549.28	35948.51
549.48	36073.43
549.68	35936.22
549.88	36476.88
550.08	35882.97
550.28	35852.25
550.48	35960.8
550.68	36313.05
550.88	35952.6
551.08	35903.45
551.279	35725.28
551.479	35686.37
551.679	36157.4
551.879	35772.38
552.079	36134.87
552.278	35968.99
552.478	35760.09
552.678	35835.87
552.878	35833.82
553.077	35686.37
553.277	35364.84
553.477	36349.91
553.676	35622.88
553.876	35471.33
554.076	35940.32
554.275	35882.97
554.475	35381.22
554.674	35811.29
554.874	35637.22
555.074	35272.68
555.273	35764.19
555.473	35856.35
555.672	35164.14
555.872	35303.4
556.071	35688.42
556.271	35825.63
556.47	35256.29
556.67	34934.76
556.869	35270.63
557.068	35450.85
557.268	34783.21
557.467	35268.58
557.667	35086.31
557.866	34969.58
558.065	34844.65
558.265	34826.22
558.464	34895.85
558.663	35512.29
558.863	34486.26
559.062	34912.24
559.261	34971.63
559.461	35182.57
559.66	34306.04
559.859	35198.95
560.058	34385.91
560.258	34918.38
560.457	34287.6
560.656	34791.41
560.855	34482.16
561.054	34592.75
561.253	34246.65
561.453	34562.03
561.652	34572.27
561.851	34441.2
562.05	33703.93
562.249	33705.98
562.448	34482.16
562.647	34273.27
562.846	33972.22
563.045	34242.55
563.244	33976.31
563.443	34027.51
563.642	33609.73
563.841	33822.72
564.04	33890.3
564.239	33816.57
564.438	33386.5
564.637	33452.03
564.836	33339.4
565.035	33443.84
565.234	33753.08
565.432	32903.18
565.631	33398.79
565.83	33568.77
566.029	32905.23
566.228	33204.23
566.427	33185.8
566.625	33015.82
566.824	32497.68
567.023	33226.76
567.222	32182.29
567.42	32688.14
567.619	32749.58
567.818	32819.21
568.016	32487.44
568.215	32540.69
568.414	32790.54
568.612	32886.79
568.811	32735.24
569.01	32643.09
569.208	32081.94
569.407	32415.76
569.605	32284.69
569.804	32497.68
570.002	31848.47
570.201	32233.49
570.4	32030.74
570.598	31997.98
570.797	31856.67
570.995	31764.51
571.193	31631.39
571.392	31854.62
571.59	31664.16
571.789	31522.85
571.987	31381.54
572.186	31639.58
572.384	31442.98
572.582	31363.11
572.781	31600.67
572.979	30791.72
573.177	30949.42
573.376	31219.75
573.574	30775.34
573.772	31080.49
573.971	30679.08
574.169	30728.24
574.367	30648.36
574.565	30877.74
574.763	30720.04
574.962	30722.09
575.16	30132.28
575.358	30742.57
575.556	30091.32
575.754	30603.31
575.952	30060.6
576.151	30103.6
576.349	29759.55
576.547	30353.46
576.745	30117.94
576.943	30093.36
577.141	29980.73
577.339	29935.67
577.537	29720.63
577.735	29671.48
577.933	29272.13
578.131	29597.76
578.329	29311.04
578.527	29053
578.725	29155.4
578.923	29595.71
579.121	29317.18
579.319	29452.35
579.516	29204.55
579.714	29032.52
579.912	29157.44
580.11	29268.03
580.308	29077.57
580.506	28983.37
580.704	28352.59
580.901	28686.41
581.099	29177.92
581.297	28213.33
581.495	28211.28
581.692	28391.5
581.89	28276.82
582.088	28532.81
582.285	28084.31
582.483	28317.78
582.681	27920.47
582.878	27879.51
583.076	27887.7
583.274	27867.22
583.471	27779.16
583.669	27883.61
583.866	27658.33
584.064	28129.36
584.262	27627.61
584.459	27449.44
584.657	27289.7
584.854	27433.05
585.052	26951.78
585.249	27570.27
585.447	27248.74
585.644	26865.77
585.841	27211.87
586.039	26826.85
586.236	26706.02
586.434	26824.81
586.631	26613.87
586.828	26851.43
587.026	26450.03
587.223	26812.52
587.42	26245.23
587.618	26275.95
587.815	26175.6
588.012	26247.28
588.21	25993.33
588.407	26318.96
588.604	25819.25
588.801	26124.4
588.999	26050.67
589.196	26071.15
589.393	25874.55
589.59	25600.12
589.787	25927.8
589.984	25397.37
590.182	25245.82
590.379	25471.1
590.576	25055.36
590.773	25280.64
590.97	25442.43
591.167	25260.16
591.364	24750.21
591.561	25024.64
591.758	24928.39
591.955	24932.48
592.152	25026.69
592.349	24539.27
592.546	24643.72
592.743	25059.46
592.94	24311.95
593.137	24600.71
593.334	24555.66
593.531	24123.54
593.727	24447.11
593.924	24111.25
594.121	24254.61
594.318	24402.06
594.515	23871.64
594.712	24383.63
594.908	23947.41
595.105	23959.7
595.302	23611.54
595.499	23849.11
595.696	23591.06
595.892	23486.62
596.089	23486.62
596.286	23488.67
596.482	23236.77
596.679	23050.4
596.876	23427.23
597.072	23109.79
597.269	23570.58
597.466	22804.64
597.662	22698.15
597.859	23007.39
598.055	22896.8
598.252	22704.29
598.448	22841.51
598.645	22890.66
598.841	22614.18
599.038	22710.44
599.234	22702.25
599.431	22210.73
599.627	22325.42
599.824	22661.29
600.02	22036.66
600.217	22067.38
600.413	22122.67
600.609	21903.54
600.806	21952.69
601.002	21715.12
601.198	21661.88
601.395	21643.45
601.591	21702.84
601.787	21577.91
601.984	21504.18
602.18	21907.63
602.376	21280.96
602.572	21504.18
602.769	21160.13
602.965	21256.38
603.161	21309.63
603.357	21168.32
603.553	21174.46
603.75	21184.7
603.946	20947.14
604.142	20834.5
604.338	20603.08
604.534	20869.31
604.73	20932.8
604.926	20721.86
605.122	20609.22
605.318	20547.78
605.514	20596.93
605.71	20244.68
605.906	20515.01
606.102	20433.1
606.298	20152.52
606.494	20353.23
606.69	20308.17
606.886	20086.99
607.082	19851.47
607.278	20113.61
607.474	19675.35
607.67	20156.62
607.866	19675.35
608.062	20048.08
608.257	19593.43
608.453	19738.83
608.649	19585.24
608.845	19927.25
609.041	19720.4
609.236	19503.32
609.432	19632.34
609.628	19478.74
609.824	19499.22
610.019	19353.82
610.215	19405.02
610.411	19396.82
610.606	19118.3
610.802	19179.74
610.998	19386.58
611.193	19187.93
611.389	19110.11
611.584	19042.53
611.78	19095.77
611.976	19206.36
612.171	18856.16
612.367	19071.2
612.562	18888.93
612.758	18907.36
612.953	18600.16
613.149	18888.93
613.344	18723.04
613.539	18761.95
613.735	18778.34
613.93	18886.88
614.126	18508.01
614.321	18675.94
614.517	18338.02
614.712	18583.78
614.907	18434.28
615.103	18565.35
615.298	18421.99
615.493	18845.92
615.688	18217.19
615.884	18454.76
616.079	18143.47
616.274	18405.61
616.47	18260.2
616.665	18532.58
616.86	18229.48
617.055	18143.47
617.25	18237.67
617.445	18286.82
617.641	17797.36
617.836	18020.59
618.031	17838.32
618.226	18069.74
618.421	17813.74
618.616	18084.08
618.811	17621.24
619.006	17725.68
619.201	17604.85
619.396	17459.45
619.591	17187.07
619.786	17400.05
619.981	17043.71
620.176	17406.2
620.371	17225.98
620.566	17111.29
620.761	17053.95
620.956	16855.29
621.151	16785.66
621.346	17023.23
621.541	16515.33
621.735	16931.07
621.93	16324.87
622.125	16599.3
622.32	16072.97
622.515	16322.82
622.709	16288.01
622.904	16216.33
623.099	16021.77
623.294	16245
623.488	16023.82
623.683	15821.07
623.878	15595.79
624.072	15630.61
624.267	15581.46
624.462	15825.17
624.656	15370.52
624.851	15405.33
625.046	15311.13
625.24	15188.25
625.435	15294.74
625.629	14897.44
625.824	15001.88
626.018	15110.43
626.213	14534.95
626.407	14766.37
626.602	14704.93
626.796	14768.41
626.991	14434.6
627.185	14373.16
627.38	14283.05
627.574	14350.63
627.768	14080.3
627.963	14074.15
628.157	14025
628.352	14072.11
628.546	13779.25
628.74	13992.23
628.935	13805.87
629.129	13791.53
629.323	13580.59
629.517	13637.94
629.712	13627.7
629.906	13558.07
630.1	13179.19
630.294	13328.69
630.489	13078.84
630.683	13181.24
630.877	13074.74
631.071	13041.98
631.265	12886.33
631.459	12736.83
631.653	12855.61
631.848	12798.27
632.042	12695.87
632.236	12796.22
632.43	12624.19
632.624	12597.57
632.818	12568.9
633.012	12400.96
633.206	12278.08
633.4	12208.45
633.594	12239.17
633.788	12022.09
633.982	12253.51
634.176	12040.52
634.369	11850.06
634.563	11882.83
634.757	11825.48
634.951	11893.07
635.145	11872.59
635.339	11817.29
635.533	11583.82
635.726	11551.06
635.92	11135.32
636.114	11544.91
636.308	11413.84
636.501	11350.35
636.695	11295.06
636.889	11159.89
637.083	11057.5
637.276	11055.45
637.47	11114.84
637.664	10905.95
637.857	10897.75
638.051	11108.69
638.244	10811.74
638.438	10744.16
638.632	10856.79
638.825	10656.09
639.019	10684.76
639.212	10494.3
639.406	10279.27
639.599	10221.92
639.793	10744.16
639.986	10262.88
640.18	10629.47
640.373	10144.1
640.567	9961.83
640.76	10260.84
640.954	10015.08
641.147	9732.46
641.34	9871.72
641.534	9937.26
641.727	9808.23
641.92	9761.13
642.114	9740.65
642.307	9503.09
642.5	9636.2
642.694	9400.69
642.887	9347.44
643.08	9550.19
643.273	9398.64
643.467	9472.37
643.66	9144.69
643.853	9224.56
644.046	9255.28
644.239	9077.11
644.432	8970.62
644.626	9199.99
644.819	8964.47
645.012	8909.18
645.205	8857.98
645.398	9181.56
645.591	8821.11
645.784	8778.11
645.977	8741.24
646.17	8937.85
646.363	8665.47
646.556	8497.53
646.749	8472.96
646.942	8651.13
647.135	8491.39
647.328	8366.46
647.521	8358.27
647.714	8259.97
647.907	8292.74
648.099	8292.74
648.292	8460.67
648.485	8137.09
648.678	8102.28
648.871	8139.14
649.064	8032.65
649.256	8114.56
649.449	7979.4
649.642	8010.12
649.835	7897.48
650.027	7889.29
650.22	7911.82
650.413	7698.83
650.605	7868.81
650.798	7696.78
650.991	7752.07
651.183	7639.44
651.376	7625.1
651.568	7448.97
651.761	7416.21
651.954	7438.73
652.146	7405.97
652.339	7403.92
652.531	7342.48
652.724	7307.66
652.916	7149.97
653.109	7238.03
653.301	7291.28
653.494	7350.67
653.686	7254.42
653.879	7311.76
654.071	7035.28
654.263	6988.18
654.456	7029.14
654.648	7088.53
654.84	6777.24
655.033	6855.06
655.225	6924.69
655.417	6859.16
655.61	6697.37
655.802	6736.28
655.994	6490.52
656.186	6644.12
656.379	6703.51
656.571	6590.88
656.763	6517.15
656.955	6449.57
657.148	6660.51
657.34	6529.44
657.532	6474.14
657.724	6367.65
657.916	6373.79
658.108	6295.97
658.3	6447.52
658.492	6263.2
658.684	6125.99
658.876	6199.71
659.068	6175.14
659.26	6185.38
659.452	6302.11
659.644	6039.97
659.836	6136.23
660.028	6193.57
660.22	6017.44
660.412	5931.43
660.604	5857.7
660.796	5935.53
660.988	5831.08
661.18	5753.26
661.372	5853.61
661.563	5708.2
661.755	5628.33
661.947	5847.46
662.139	5661.1
662.331	5861.8
662.522	5425.58
662.714	5685.67
662.906	5646.76
663.097	5624.23
663.289	5480.88
663.481	5341.61
663.673	5435.82
663.864	5476.78
664.056	5337.52
664.247	5433.77
664.439	5245.36
664.631	5360.05
664.822	5202.35
665.014	5194.16
665.205	5263.79
665.397	5294.51
665.588	5267.89
665.78	5247.41
665.971	5278.13
666.163	5222.83
666.354	4977.08
666.546	5009.84
666.737	4999.6
666.929	5196.21
667.12	5228.98
667.311	4985.27
667.503	4868.53
667.694	4915.64
667.885	4962.74
668.077	4809.14
668.268	4858.29
668.459	4774.33
668.651	4819.38
668.842	4796.85
669.033	4743.61
669.224	4731.32
669.416	4772.28
669.607	4772.28
669.798	4702.65
669.989	4862.39
670.18	4600.25
670.371	4538.81
670.563	4667.83
670.754	4671.93
670.945	4575.67
671.136	4612.54
671.327	4563.39
671.518	4620.73
671.709	4526.52
671.9	4475.32
672.091	4479.42
672.282	4387.26
672.473	4291.01
672.664	4383.17
672.855	4471.23
673.046	4284.86
673.237	4415.93
673.428	4393.4
673.619	4284.86
673.809	4221.38
674	4327.87
674.191	4264.38
674.382	4417.98
674.573	4268.48
674.764	4237.76
674.954	4377.02
675.145	4192.7
675.336	4178.37
675.527	4059.59
675.717	4088.26
675.908	4049.35
676.099	4164.03
676.289	4161.98
676.48	4178.37
676.671	3946.95
676.861	4059.59
677.052	4090.31
677.243	4164.03
677.433	4057.54
677.624	4225.47
677.814	3985.86
678.005	4026.82
678.195	4037.06
678.386	3977.67
678.576	3946.95
678.767	3977.67
678.957	3826.12
679.148	4045.25
679.338	3873.22
679.529	3961.28
679.719	3883.46
679.909	4020.67
680.1	3826.12
680.29	3895.75
680.481	3963.33
680.671	3815.88
680.861	3885.51
681.052	3983.81
681.242	3740.1
681.432	3912.13
681.622	3836.36
681.813	3953.09
682.003	3815.88
682.193	3776.97
682.383	3779.01
682.573	3860.93
682.764	3867.08
682.954	3897.8
683.144	3838.41
683.334	3854.79
683.524	3752.39
683.714	3846.6
683.904	3652.04
684.094	3631.56
684.284	3580.36
684.474	3766.73
684.664	3721.67
684.854	3682.76
685.044	3652.04
685.234	3629.51
685.424	3645.9
685.614	3494.35
685.804	3508.68
685.994	3518.92
686.184	3647.94
686.374	3496.39
686.564	3471.82
686.753	3424.72
686.943	3379.66
687.133	3465.68
687.323	3426.76
687.513	3375.56
687.702	3496.39
687.892	3305.93
688.082	3342.8
688.272	3394
688.461	3359.18
688.651	3426.76
688.841	3285.45
689.03	3269.07
689.22	3293.65
689.41	3156.43
689.599	3174.86
689.789	3371.47
689.979	3187.15
690.168	3267.02
690.358	3131.86
690.547	3068.37
690.737	3094.99
690.926	3049.94
691.116	3090.9
691.305	3039.7
691.495	3023.31
691.684	3107.28
691.874	2918.87
692.063	3060.18
692.252	2992.59
692.442	2998.74
692.631	2949.59
692.82	2841.04
693.01	2890.2
693.199	2861.52
693.388	2863.57
693.578	2888.15
693.767	2843.09
693.956	2738.65
694.146	2851.28
694.335	2736.6
694.524	2818.52
694.713	2769.37
694.902	2791.89
695.092	2879.96
695.281	2703.83
695.47	2632.15
695.659	2763.22
695.848	2691.54
696.037	2712.02
696.226	2697.69
696.415	2740.69
696.604	2648.54
696.793	2623.96
696.982	2576.86
697.171	2601.43
697.36	2681.3
697.549	2503.13
697.738	2544.09
697.927	2548.19
698.116	2556.38
698.305	2505.18
698.494	2523.61
698.683	2451.93
698.872	2554.33
699.061	2410.97
699.25	2480.6
699.438	2386.4
699.627	2413.02
699.816	2486.75
700.005	2320.86
700.193	2447.83
700.382	2492.89
700.571	2347.48
700.76	2449.88
700.948	2406.88
701.137	2376.16
701.326	2372.06
701.514	2394.59
701.703	2390.49
701.892	2445.79
702.08	2433.5
702.269	2286.05
702.457	2288.09
702.646	2402.78
702.834	2298.33
703.023	2408.92
703.212	2355.68
703.4	2320.86
703.589	2267.61
703.777	2378.2
703.965	2335.2
704.154	2335.2
704.342	2503.13
704.531	2329.05
704.719	2249.18
704.907	2277.85
705.096	2232.8
705.284	2249.18
705.472	2259.42
705.661	2277.85
705.849	2265.57
706.037	2394.59
706.226	2308.57
706.414	2372.06
706.602	2240.99
706.79	2388.44
706.979	2183.65
707.167	2331.1
707.355	2212.32
707.543	2281.95
707.731	2232.8
707.919	2345.44
708.107	2243.04
708.296	2195.93
708.484	2265.57
708.672	2277.85
708.86	2269.66
709.048	2173.41
709.236	2277.85
709.424	2273.76
709.612	2228.7
709.8	2292.19
709.988	2245.09
710.176	2228.7
710.364	2316.76
710.551	2331.1
710.739	2349.53
710.927	2191.84
711.115	2271.71
711.303	2279.9
711.491	2281.95
711.679	2361.82
711.866	2339.29
712.054	2310.62
712.242	2240.99
712.43	2277.85
712.617	2232.8
712.805	2279.9
712.993	2224.61
713.181	2228.7
713.368	2232.8
713.556	2417.12
713.744	2240.99
713.931	2314.72
714.119	2236.89
714.306	2359.77
714.494	2228.7
714.682	2269.66
714.869	2281.95
715.057	2224.61
715.244	2236.89
715.432	2267.61
715.619	2341.34
715.807	2284
715.994	2335.2
716.182	2300.38
716.369	2271.71
716.556	2306.52
716.744	2296.28
716.931	2318.81
717.119	2310.62
717.306	2314.72
717.493	2312.67
717.681	2298.33
717.868	2220.51
718.055	2281.95
718.242	2255.33
718.43	2339.29
718.617	2310.62
718.804	2304.48
718.991	2329.05
719.179	2343.39
719.366	2427.35
719.553	2306.52
719.74	2337.24
719.927	2243.04
720.114	2486.75
720.301	2390.49
720.488	2251.23
720.676	2425.31
720.863	2349.53
721.05	2417.12
721.237	2410.97
721.424	2374.11
721.611	2333.15
721.798	2451.93
721.985	2331.1
722.172	2456.03
722.358	2320.86
722.545	2320.86
722.732	2394.59
722.919	2425.31
723.106	2306.52
723.293	2224.61
723.48	2359.77
723.667	2304.48
723.853	2398.68
724.04	2574.81
724.227	2394.59
724.414	2347.48
724.6	2310.62
724.787	2548.19
724.974	2492.89
725.161	2425.31
725.347	2347.48
725.534	2347.48
725.72	2392.54
725.907	2449.88
726.094	2394.59
726.28	2370.01
726.467	2435.55
726.653	2494.94
726.84	2361.82
727.027	2453.98
727.213	2339.29
727.4	2361.82
727.586	2472.41
727.773	2337.24
727.959	2402.78
728.145	2476.51
728.332	2466.27
728.518	2560.47
728.705	2499.03
728.891	2378.2
729.077	2476.51
729.264	2451.93
729.45	2433.5
729.636	2505.18
729.823	2429.4
730.009	2435.55
730.195	2314.72
730.382	2482.65
730.568	2470.36
730.754	2427.35
730.94	2478.55
731.126	2521.56
731.313	2568.66
731.499	2531.8
731.685	2630.1
731.871	2410.97
732.057	2501.08
732.243	2539.99
732.429	2486.75
732.615	2478.55
732.801	2513.37
732.987	2542.04
733.173	2548.19
733.359	2429.4
733.545	2449.88
733.731	2425.31
733.917	2468.31
734.103	2648.54
734.289	2417.12
734.475	2484.7
734.661	2550.23
734.847	2402.78
735.033	2474.46
735.219	2392.54
735.404	2400.73
735.59	2558.42
735.776	2470.36
735.962	2544.09
736.148	2574.81
736.333	2468.31
736.519	2451.93
736.705	2529.75
736.89	2415.07
737.076	2427.35
737.262	2417.12
737.447	2390.49
737.633	2488.79
737.819	2480.6
738.004	2277.85
738.19	2417.12
738.375	2400.73
738.561	2492.89
738.747	2445.79
738.932	2445.79
739.118	2429.4
739.303	2417.12
739.489	2349.53
739.674	2400.73
739.859	2380.25
740.045	2349.53
740.23	2378.2
740.416	2388.44
740.601	2304.48
740.786	2365.92
740.972	2423.26
741.157	2388.44
741.342	2300.38
741.528	2318.81
741.713	2476.51
741.898	2361.82
742.084	2404.83
742.269	2281.95
742.454	2253.28
742.639	2310.62
742.824	2263.52
743.01	2302.43
743.195	2261.47
743.38	2208.22
743.565	2298.33
743.75	2273.76
743.935	2267.61
744.12	2175.45
744.305	2187.74
744.49	2189.79
744.675	2148.83
744.86	2163.17
745.045	2195.93
745.23	2226.65
745.415	2228.7
745.6	2093.54
745.785	2181.6
745.97	2257.37
746.155	2091.49
746.34	2105.82
746.525	2163.17
746.71	2114.02
746.895	2079.2
747.079	2052.58
747.264	2118.11
747.449	2107.87
747.634	1968.61
747.819	2073.06
748.003	2011.62
748.188	2011.62
748.373	1978.85
748.557	1997.28
748.742	1960.42
748.927	1966.56
749.111	2062.82
749.296	1847.78
749.481	1880.55
749.665	1898.98
749.85	1898.98
750.034	1831.4
750.219	1841.64
750.404	1802.72
750.588	1733.09
750.773	1810.92
750.957	1853.92
751.141	1841.64
751.326	1706.47
751.51	1884.64
751.695	1671.65
751.879	1808.87
752.064	1837.54
752.248	1821.16
752.432	1765.86
752.617	1679.85
752.801	1706.47
752.985	1683.94
753.17	1677.8
753.354	1683.94
753.538	1630.7
753.722	1642.98
753.907	1524.2
754.091	1651.17
754.275	1495.53
754.459	1665.51
754.643	1552.87
754.828	1688.04
755.012	1528.3
755.196	1630.7
755.38	1575.4
755.564	1589.74
755.748	1487.34
755.932	1507.82
756.116	1475.05
756.3	1448.43
756.484	1503.72
756.668	1495.53
756.852	1442.28
757.036	1448.43
757.22	1419.75
757.404	1466.86
757.588	1501.67
757.772	1300.97
757.956	1429.99
758.14	1438.19
758.323	1255.92
758.507	1298.92
758.691	1401.32
758.875	1419.75
759.059	1352.17
759.242	1282.54
759.426	1288.68
759.61	1341.93
759.794	1296.88
759.977	1276.4
760.161	1296.88
760.345	1303.02
760.528	1409.51
760.712	1376.75
760.895	1266.16
761.079	1231.34
761.263	1311.21
761.446	1284.59
761.63	1208.81
761.813	1133.04
761.997	1243.63
762.18	1200.62
762.364	1217.01
762.547	1188.33
762.731	1186.29
762.914	1268.2
763.098	1180.14
763.281	1153.52
763.464	1071.6
763.648	1212.91
763.831	1208.81
764.015	1122.8
764.198	1227.25
764.381	1165.81
764.564	1112.56
764.748	1151.47
764.931	1083.89
765.114	1178.09
765.297	1085.94
765.481	1090.03
765.664	1161.71
765.847	999.92
766.03	1104.37
766.213	1061.36
766.397	1049.07
766.58	1141.23
766.763	1079.79
766.946	1001.97
767.129	1057.26
767.312	1085.94
767.495	1067.5
767.678	1012.21
767.861	1096.18
768.044	1042.93
768.227	1036.78
768.41	1024.5
768.593	1055.22
768.776	1059.31
768.959	1010.16
769.142	1067.5
769.324	938.48
769.507	1071.6
769.69	979.44
769.873	1028.59
770.056	1040.88
770.239	963.06
770.421	952.82
770.604	920.05
770.787	932.34
770.97	918
771.152	934.39
771.335	899.57
771.518	911.86
771.7	926.19
771.883	926.19
772.066	940.53
772.248	887.28
772.431	920.05
772.613	854.51
772.796	893.43
772.978	948.72
773.161	915.95
773.343	881.14
773.526	862.71
773.708	866.8
773.891	831.99
774.073	903.67
774.256	862.71
774.438	864.75
774.621	764.4
774.803	829.94
774.985	795.12
775.168	862.71
775.35	817.65
775.532	762.36
775.715	791.03
775.897	850.42
776.079	778.74
776.261	821.75
776.444	782.84
776.626	809.46
776.808	782.84
776.99	707.06
777.173	745.97
777.355	774.64
777.537	733.68
777.719	729.59
777.901	756.21
778.083	629.24
778.265	707.06
778.447	690.68
778.629	772.6
778.811	713.21
778.993	684.53
779.175	688.63
779.357	604.66
779.539	633.33
779.721	598.52
779.903	680.44
780.085	604.66
780.267	668.15
780.449	641.53
780.631	666.1
780.812	641.53
780.994	633.33
781.176	684.53
781.358	586.23
781.54	590.33
781.721	578.04
781.903	619
782.085	586.23
782.267	565.75
782.448	655.86
782.63	535.03
782.812	580.09
782.993	582.14
783.175	614.9
783.357	500.22
783.538	571.9
783.72	500.22
783.901	524.79
784.083	586.23
784.264	553.46
784.446	461.3
784.627	492.02
784.809	526.84
784.99	494.07
785.172	539.13
785.353	492.02
785.535	596.47
785.716	432.63
785.897	510.46
786.079	526.84
786.26	539.13
786.441	510.46
786.623	420.35
786.804	432.63
786.985	461.3
787.167	477.69
787.348	420.35
787.529	461.3
787.71	455.16
787.891	496.12
788.073	446.97
788.254	403.96
788.435	455.16
788.616	418.3
788.797	385.53
788.978	432.63
789.159	387.58
789.34	477.69
789.522	432.63
789.703	358.91
789.884	393.72
790.065	350.71
790.246	412.15
790.427	270.84
790.607	367.1
790.788	428.54
790.969	373.24
791.15	393.72
791.331	375.29
791.512	332.28
791.693	444.92
791.874	424.44
792.054	387.58
792.235	442.87
792.416	424.44
792.597	389.63
792.778	449.02
792.958	291.32
793.139	403.96
793.32	385.53
793.5	363
793.681	340.47
793.862	307.71
794.042	276.99
794.223	287.23
794.404	293.37
794.584	320
794.765	313.85
794.945	260.6
795.126	268.8
795.306	324.09
795.487	363
795.667	326.14
795.848	209.4
796.028	360.95
796.209	283.13
796.389	401.91
796.57	287.23
796.75	250.36
796.93	293.37
797.111	289.28
797.291	283.13
797.471	201.21
797.652	375.29
797.832	330.23
798.012	340.47
798.192	258.56
798.373	233.98
798.553	313.85
798.733	213.5
798.913	266.75
799.093	174.59
799.274	244.22
799.454	371.19
799.634	274.94
799.814	258.56
799.994	264.7
800.174	184.83
800.354	336.38
800.534	348.67
800.714	311.8
800.894	299.52
801.074	233.98
801.254	244.22
801.434	291.32
801.614	301.56
801.794	244.22
801.974	545.27
802.154	217.6
802.334	262.65
802.514	252.41
802.693	233.98
802.873	242.17
803.053	295.42
803.233	215.55
803.413	215.55
803.592	225.79
803.772	229.88
803.952	250.36
804.131	193.02
804.311	215.55
804.491	250.36
804.67	197.12
804.85	219.64
805.03	297.47
805.209	233.98
805.389	211.45
805.568	193.02
805.748	166.4
805.928	164.35
806.107	158.21
806.287	186.88
806.466	207.36
806.646	213.5
806.825	242.17
807.004	176.64
807.184	258.56
807.363	229.88
807.543	188.93
807.722	205.31
807.901	147.97
808.081	246.27
808.26	188.93
808.439	174.59
808.619	262.65
808.798	190.97
808.977	178.69
809.156	156.16
809.336	160.25
809.515	168.45
809.694	205.31
809.873	143.87
810.052	227.84
810.231	254.46
810.411	188.93
810.59	264.7
810.769	184.83
810.948	213.5
811.127	176.64
811.306	160.25
811.485	172.54
811.664	131.58
811.843	164.35
812.022	205.31
812.201	139.77
812.38	150.01
812.559	113.15
812.737	158.21
812.916	176.64
813.095	133.63
813.274	193.02
813.453	154.11
813.632	186.88
813.811	174.59
813.989	193.02
814.168	190.97
814.347	111.1
814.526	143.87
814.704	180.73
814.883	150.01
815.062	162.3
815.24	57.86
815.419	180.73
815.598	96.77
815.776	152.06
815.955	127.49
816.133	53.76
816.312	164.35
816.49	143.87
816.669	242.17
816.847	107.01
817.026	154.11
817.204	190.97
817.383	150.01
817.561	176.64
817.74	156.16
817.918	107.01
818.097	76.29
818.275	156.16
818.453	59.9
818.632	94.72
818.81	125.44
818.988	86.53
819.167	152.06
819.345	156.16
819.523	123.39
819.701	121.34
819.879	131.58
820.058	143.87
820.236	156.16
820.414	86.53
820.592	111.1
820.77	94.72
820.948	147.97
821.127	143.87
821.305	117.25
821.483	72.19
821.661	113.15
821.839	147.97
822.017	76.29
822.195	49.66
822.373	104.96
822.551	82.43
822.729	125.44
822.907	84.48
823.085	133.63
823.262	117.25
823.44	78.33
823.618	160.25
823.796	66.05
823.974	90.62
824.152	37.38
824.329	27.14
824.507	168.45
824.685	100.86
824.863	170.49
825.04	84.48
825.218	143.87
825.396	92.67
825.574	133.63
825.751	107.01
825.929	107.01
826.107	43.52
826.284	135.68
826.462	160.25
826.639	152.06
826.817	152.06
826.994	70.14
827.172	92.67
827.349	135.68
827.527	109.05
827.704	98.81
827.882	68.09
828.059	78.33
828.237	182.78
828.414	49.66
828.591	109.05
828.769	127.49
828.946	113.15
829.124	74.24
829.301	94.72
829.478	86.53
829.655	117.25
829.833	90.62
830.01	98.81
830.187	94.72
830.364	12.8
830.542	2.56
830.719	160.25
830.896	92.67
831.073	88.57
831.25	109.05
831.427	84.48
831.604	127.49
831.782	45.57
831.959	59.9
832.136	64
832.313	109.05
832.49	76.29
832.667	80.38
832.844	-13.82
833.021	57.86
833.198	51.71
833.374	74.24
833.551	10.75
833.728	41.47
833.905	147.97
834.082	82.43
834.259	25.09
834.436	152.06
834.612	20.99
834.789	59.9
834.966	61.95
835.143	74.24
835.319	90.62
835.496	84.48
835.673	129.53
835.85	102.91
836.026	59.9
836.203	102.91
836.38	41.47
836.556	68.09
836.733	-9.73
836.909	98.81
837.086	127.49
837.262	23.04
837.439	23.04
837.616	8.7
837.792	20.99
837.968	-9.73
838.145	66.05
838.321	43.52
838.498	74.24
838.674	18.94
838.851	29.18
839.027	8.7
839.203	25.09
839.38	41.47
839.556	16.9
839.732	2.56
839.909	76.29
840.085	53.76
840.261	84.48
840.437	6.66
840.614	-5.63
840.79	121.34
840.966	80.38
841.142	64
841.318	131.58
841.494	20.99
841.671	39.42
841.847	43.52
842.023	-28.16
842.199	33.28
842.375	104.96
842.551	111.1
842.727	53.76
842.903	82.43
843.079	74.24
843.255	35.33
843.431	16.9
843.607	-7.68
843.783	25.09
843.959	104.96
844.134	-15.87
844.31	45.57
844.486	6.66
844.662	-28.16
844.838	64
845.013	51.71
845.189	31.23
845.365	125.44
845.541	80.38
845.716	96.77
845.892	41.47
846.068	82.43
846.244	20.99
846.419	61.95
846.595	59.9
846.77	59.9
846.946	-28.16
847.122	10.75
847.297	55.81
847.473	74.24
847.648	-3.58
847.824	51.71
847.999	18.94
848.175	31.23
848.35	86.53
848.526	86.53
848.701	33.28
848.876	-13.82
849.052	59.9
849.227	16.9
849.403	43.52
849.578	25.09
849.753	82.43
849.929	68.09
850.104	41.47
850.279	18.94
850.454	45.57
850.63	113.15
850.805	57.86
850.98	102.91
851.155	10.75
851.33	25.09
851.505	27.14
851.681	25.09
851.856	-24.06
852.031	37.38
852.206	12.8
852.381	68.09
852.556	29.18
852.731	10.75
852.906	-105.98
853.081	86.53
853.256	45.57
853.431	53.76
853.606	4.61
853.781	25.09
853.956	51.71
854.131	29.18
854.305	49.66
854.48	-3.58
854.655	-28.16
854.83	94.72
855.005	10.75
855.18	23.04
855.354	16.9
855.529	61.95
855.704	8.7
855.879	49.66
856.053	6.66
856.228	-5.63
856.403	35.33
856.577	94.72
856.752	37.38
856.926	-34.3
857.101	29.18
857.276	6.66
857.45	23.04
857.625	4.61
857.799	74.24
857.974	25.09
858.148	14.85
858.323	18.94
858.497	-13.82
858.672	25.09
858.846	70.14
859.02	2.56
859.195	47.62
859.369	-24.06
859.543	-28.16
859.718	45.57
859.892	25.09
860.066	-1.54
860.241	-83.45
860.415	18.94
860.589	-11.78
860.763	14.85
860.938	18.94
861.112	68.09
861.286	-3.58
861.46	82.43
861.634	8.7
861.808	43.52
861.982	33.28
862.157	-24.06
862.331	23.04
862.505	59.9
862.679	-19.97
862.853	14.85
863.027	4.61
863.201	61.95
863.375	20.99
863.549	-19.97
863.722	74.24
863.896	-17.92
864.07	94.72
864.244	12.8
864.418	29.18
864.592	43.52
864.766	43.52
864.939	29.18
865.113	-17.92
865.287	49.66
865.461	-32.26
865.634	-24.06
865.808	-60.93
865.982	80.38
866.156	-24.06
866.329	-46.59
866.503	27.14
866.676	51.71
866.85	33.28
867.024	39.42
867.197	41.47
867.371	4.61
867.544	16.9
867.718	45.57
867.891	25.09
868.065	-36.35
868.238	0.51
868.412	37.38
868.585	-22.02
868.759	45.57
868.932	0.51
869.105	49.66
869.279	20.99
869.452	53.76
869.625	14.85
869.799	29.18
869.972	23.04
870.145	-7.68
870.319	45.57
870.492	53.76
870.665	-32.26
870.838	33.28
871.011	-19.97
871.185	57.86
871.358	-26.11
871.531	49.66
871.704	-11.78
871.877	-48.64
872.05	-38.4
872.223	16.9
872.396	49.66
872.569	27.14
872.742	-1.54
872.915	47.62
873.088	-15.87
873.261	-28.16
873.434	33.28
873.607	8.7
873.78	31.23
873.953	2.56
874.126	-11.78
874.299	-5.63
874.471	-17.92
874.644	53.76
874.817	-30.21
874.99	-32.26
875.163	29.18
875.335	-1.54
875.508	-52.74
875.681	-19.97
875.853	-42.5
876.026	0.51
876.199	37.38
876.371	27.14
876.544	-52.74
876.717	16.9
876.889	43.52
877.062	43.52
877.234	2.56
877.407	-19.97
877.579	2.56
877.752	-48.64
877.924	16.9
878.097	-40.45
878.269	-1.54
878.442	88.57
878.614	-34.3
878.786	45.57
878.959	20.99
879.131	2.56
879.303	-38.4
879.476	-50.69
879.648	-36.35
879.82	4.61
879.993	-17.92
880.165	31.23
880.337	20.99
880.509	86.53
880.681	33.28
880.854	51.71
881.026	33.28
881.198	66.05
881.37	29.18
881.542	8.7
881.714	-5.63
881.886	6.66
882.058	-75.26
882.23	-1.54
882.402	-36.35
882.574	78.33
882.746	-11.78
882.918	-22.02
883.09	35.33
883.262	-34.3
883.434	37.38
883.606	-38.4
883.778	-46.59
883.95	55.81
884.122	-60.93
884.293	25.09
884.465	23.04
884.637	57.86
884.809	-46.59
884.98	37.38
885.152	45.57
885.324	2.56
885.496	8.7
885.667	59.9
885.839	-38.4
886.011	37.38
886.182	12.8
886.354	-3.58
886.525	20.99
886.697	18.94
886.869	-50.69
887.04	-24.06
887.212	23.04
887.383	-38.4
887.555	-52.74
887.726	18.94
887.897	-19.97
888.069	-77.31
888.24	29.18
888.412	2.56
888.583	6.66
888.754	4.61
888.926	43.52
889.097	-40.45
889.268	-5.63
889.44	10.75
889.611	-22.02
889.782	-32.26
889.953	-11.78
890.125	-3.58
890.296	-99.84
890.467	37.38
890.638	-62.98
890.809	-13.82
890.98	-40.45
891.151	23.04
891.323	39.42
891.494	61.95
891.665	-17.92
891.836	37.38
892.007	2.56
892.178	-24.06
892.349	12.8
892.52	-56.83
892.691	4.61
892.862	33.28
893.032	-40.45
893.203	74.24
893.374	-19.97
893.545	8.7
893.716	-54.78
893.887	84.48
894.057	27.14
894.228	10.75
894.399	18.94
894.57	37.38
894.74	-52.74
894.911	61.95
895.082	35.33
895.253	-40.45
895.423	-7.68
895.594	33.28
895.764	-32.26
895.935	23.04
896.106	64
896.276	-24.06
896.447	16.9
896.617	-93.69
896.788	8.7
896.958	-15.87
897.129	43.52
897.299	-44.54
897.47	6.66
897.64	27.14
897.81	-69.12
897.981	-13.82
898.151	-50.69
898.322	90.62
898.492	35.33
898.662	0.51
898.832	-34.3
899.003	-15.87
899.173	90.62
899.343	-17.92
899.513	-30.21
