Data from USB4F104151__42__11-36-58-224.txt Node

Date: Fri Mar 14 11:36:58 EDT 2025
User: louis
Spectrometer: USB4F10415
Trigger mode: 4
Integration Time (sec): 2.000000E-2
Scans to average: 1
Electric dark correction enabled: true
Nonlinearity correction enabled: false
Boxcar width: 0
XAxis mode: Wavelengths
Number of Pixels in Spectrum: 3648
>>>>>Begin Spectral Data<<<<<
178.204	-99.84
178.424	-99.84
178.644	-99.84
178.864	-103.93
179.084	-7.68
179.304	-71.17
179.524	-32.26
179.744	-99.84
179.964	47.62
180.184	47.62
180.404	57.86
180.624	43.52
180.844	-30.21
181.064	-7.68
181.283	-17.92
181.503	59.9
181.723	2.56
181.943	-13.82
182.163	51.71
182.383	16.9
182.602	-7.68
182.822	31.23
183.042	59.9
183.262	-13.82
183.482	10.75
183.701	35.33
183.921	2.56
184.141	-42.5
184.361	33.28
184.58	-1.54
184.8	12.8
185.02	-28.16
185.239	-1.54
185.459	-30.21
185.679	-85.5
185.898	-44.54
186.118	-28.16
186.338	-65.02
186.557	39.42
186.777	-11.78
186.997	18.94
187.216	-67.07
187.436	27.14
187.655	-48.64
187.875	31.23
188.095	8.7
188.314	-62.98
188.534	-15.87
188.753	18.94
188.973	-26.11
189.192	49.66
189.412	43.52
189.631	37.38
189.851	-50.69
190.07	8.7
190.29	-44.54
190.509	-30.21
190.729	-48.64
190.948	16.9
191.168	64
191.387	55.81
191.607	-42.5
191.826	18.94
192.045	23.04
192.265	2.56
192.484	-38.4
192.704	-42.5
192.923	10.75
193.142	82.43
193.362	37.38
193.581	43.52
193.8	6.66
194.02	10.75
194.239	8.7
194.458	-30.21
194.678	14.85
194.897	-52.74
195.116	20.99
195.335	27.14
195.555	41.47
195.774	-44.54
195.993	-30.21
196.212	-34.3
196.432	31.23
196.651	78.33
196.87	-17.92
197.089	25.09
197.308	-15.87
197.528	-26.11
197.747	-40.45
197.966	-56.83
198.185	84.48
198.404	-19.97
198.623	35.33
198.842	-30.21
199.062	12.8
199.281	-42.5
199.5	23.04
199.719	2.56
199.938	92.67
200.157	57.86
200.376	-17.92
200.595	78.33
200.814	61.95
201.033	-54.78
201.252	41.47
201.471	84.48
201.69	-17.92
201.909	2.56
202.128	14.85
202.347	-34.3
202.566	-36.35
202.785	10.75
203.004	-19.97
203.223	39.42
203.442	-17.92
203.661	10.75
203.879	-40.45
204.098	35.33
204.317	39.42
204.536	45.57
204.755	2.56
204.974	-15.87
205.193	-13.82
205.411	37.38
205.63	-40.45
205.849	18.94
206.068	-83.45
206.287	12.8
206.505	51.71
206.724	-15.87
206.943	-38.4
207.162	29.18
207.381	-22.02
207.599	37.38
207.818	41.47
208.037	-30.21
208.255	25.09
208.474	-9.73
208.693	-30.21
208.911	80.38
209.13	-5.63
209.349	-5.63
209.567	-1.54
209.786	41.47
210.005	-32.26
210.223	45.57
210.442	0.51
210.661	-73.21
210.879	-62.98
211.098	0.51
211.316	-17.92
211.535	-13.82
211.753	-28.16
211.972	27.14
212.191	14.85
212.409	25.09
212.628	18.94
212.846	27.14
213.065	-17.92
213.283	57.86
213.502	-71.17
213.72	2.56
213.938	-1.54
214.157	-54.78
214.375	-7.68
214.594	23.04
214.812	-40.45
215.031	-22.02
215.249	39.42
215.467	-13.82
215.686	18.94
215.904	39.42
216.122	-46.59
216.341	51.71
216.559	16.9
216.778	-13.82
216.996	14.85
217.214	2.56
217.432	25.09
217.651	2.56
217.869	-95.74
218.087	-15.87
218.306	-22.02
218.524	29.18
218.742	2.56
218.96	6.66
219.179	4.61
219.397	2.56
219.615	55.81
219.833	29.18
220.051	31.23
220.27	57.86
220.488	59.9
220.706	16.9
220.924	-11.78
221.142	14.85
221.36	-1.54
221.578	-42.5
221.796	-9.73
222.015	-38.4
222.233	-26.11
222.451	14.85
222.669	-32.26
222.887	-22.02
223.105	27.14
223.323	-17.92
223.541	-26.11
223.759	35.33
223.977	76.29
224.195	23.04
224.413	35.33
224.631	-3.58
224.849	-24.06
225.067	-9.73
225.285	-71.17
225.503	29.18
225.721	18.94
225.939	2.56
226.157	-26.11
226.375	47.62
226.592	51.71
226.81	39.42
227.028	74.24
227.246	55.81
227.464	-1.54
227.682	6.66
227.9	-3.58
228.117	4.61
228.335	-24.06
228.553	-48.64
228.771	18.94
228.989	18.94
229.206	-5.63
229.424	-1.54
229.642	-13.82
229.86	8.7
230.077	-1.54
230.295	-13.82
230.513	31.23
230.731	12.8
230.948	53.76
231.166	49.66
231.384	35.33
231.601	59.9
231.819	10.75
232.037	64
232.254	8.7
232.472	39.42
232.689	-1.54
232.907	55.81
233.125	-32.26
233.342	-17.92
233.56	23.04
233.777	6.66
233.995	2.56
234.213	-17.92
234.43	-17.92
234.648	-54.78
234.865	0.51
235.083	-9.73
235.3	53.76
235.518	10.75
235.735	33.28
235.953	57.86
236.17	2.56
236.388	-54.78
236.605	0.51
236.822	98.81
237.04	-19.97
237.257	33.28
237.475	-48.64
237.692	-30.21
237.909	57.86
238.127	-52.74
238.344	16.9
238.562	64
238.779	-17.92
238.996	68.09
239.214	-5.63
239.431	18.94
239.648	-48.64
239.865	23.04
240.083	-28.16
240.3	-13.82
240.517	-34.3
240.735	-22.02
240.952	80.38
241.169	31.23
241.386	43.52
241.603	0.51
241.821	-34.3
242.038	76.29
242.255	-24.06
242.472	18.94
242.689	16.9
242.907	35.33
243.124	-24.06
243.341	-7.68
243.558	-28.16
243.775	-13.82
243.992	23.04
244.209	14.85
244.426	35.33
244.643	51.71
244.86	8.7
245.078	27.14
245.295	-9.73
245.512	-40.45
245.729	-42.5
245.946	31.23
246.163	43.52
246.38	-26.11
246.597	39.42
246.814	39.42
247.031	41.47
247.248	20.99
247.464	-15.87
247.681	37.38
247.898	78.33
248.115	18.94
248.332	16.9
248.549	23.04
248.766	45.57
248.983	-13.82
249.2	-13.82
249.417	18.94
249.633	-28.16
249.85	-30.21
250.067	-38.4
250.284	-40.45
250.501	-9.73
250.717	-9.73
250.934	33.28
251.151	27.14
251.368	4.61
251.585	12.8
251.801	16.9
252.018	31.23
252.235	27.14
252.451	20.99
252.668	-7.68
252.885	74.24
253.102	-22.02
253.318	-1.54
253.535	-1.54
253.752	43.52
253.968	-46.59
254.185	-34.3
254.401	29.18
254.618	-30.21
254.835	27.14
255.051	23.04
255.268	31.23
255.484	14.85
255.701	45.57
255.917	-5.63
256.134	-52.74
256.351	-32.26
256.567	-17.92
256.784	-1.54
257	-67.07
257.217	-38.4
257.433	-5.63
257.65	78.33
257.866	-9.73
258.082	23.04
258.299	80.38
258.515	49.66
258.732	-75.26
258.948	-11.78
259.165	23.04
259.381	10.75
259.597	57.86
259.814	6.66
260.03	-28.16
260.246	23.04
260.463	92.67
260.679	33.28
260.895	-48.64
261.112	-13.82
261.328	10.75
261.544	-30.21
261.761	86.53
261.977	41.47
262.193	-28.16
262.409	-34.3
262.626	27.14
262.842	2.56
263.058	-38.4
263.274	135.68
263.49	-34.3
263.707	-3.58
263.923	57.86
264.139	-26.11
264.355	45.57
264.571	29.18
264.787	-22.02
265.004	-89.6
265.22	-24.06
265.436	-34.3
265.652	-15.87
265.868	61.95
266.084	-89.6
266.3	27.14
266.516	14.85
266.732	-17.92
266.948	6.66
267.164	-9.73
267.38	72.19
267.596	-9.73
267.812	8.7
268.028	-46.59
268.244	-1.54
268.46	-56.83
268.676	-24.06
268.892	27.14
269.108	-24.06
269.324	-19.97
269.54	74.24
269.756	-7.68
269.972	0.51
270.188	-26.11
270.403	70.14
270.619	-22.02
270.835	18.94
271.051	10.75
271.267	10.75
271.483	2.56
271.698	-54.78
271.914	-19.97
272.13	27.14
272.346	10.75
272.562	25.09
272.777	104.96
272.993	-48.64
273.209	-9.73
273.425	59.9
273.64	-9.73
273.856	25.09
274.072	12.8
274.287	-77.31
274.503	27.14
274.719	2.56
274.934	25.09
275.15	-30.21
275.366	-44.54
275.581	-71.17
275.797	14.85
276.012	-46.59
276.228	-9.73
276.444	-7.68
276.659	33.28
276.875	4.61
277.09	-11.78
277.306	25.09
277.521	59.9
277.737	-60.93
277.952	-7.68
278.168	47.62
278.383	88.57
278.599	-5.63
278.814	23.04
279.03	14.85
279.245	-5.63
279.461	-3.58
279.676	-5.63
279.892	-95.74
280.107	27.14
280.322	-26.11
280.538	-28.16
280.753	-26.11
280.969	-15.87
281.184	51.71
281.399	84.48
281.615	-5.63
281.83	33.28
282.045	-24.06
282.26	-36.35
282.476	29.18
282.691	27.14
282.906	16.9
283.122	-50.69
283.337	-7.68
283.552	35.33
283.767	35.33
283.983	31.23
284.198	6.66
284.413	12.8
284.628	16.9
284.843	-7.68
285.058	-38.4
285.274	27.14
285.489	18.94
285.704	0.51
285.919	-71.17
286.134	-17.92
286.349	23.04
286.564	12.8
286.779	16.9
286.995	-56.83
287.21	-50.69
287.425	25.09
287.64	-13.82
287.855	25.09
288.07	-97.79
288.285	98.81
288.5	-11.78
288.715	107.01
288.93	-54.78
289.145	55.81
289.36	18.94
289.575	6.66
289.79	-9.73
290.004	-71.17
290.219	2.56
290.434	-54.78
290.649	-1.54
290.864	4.61
291.079	8.7
291.294	-15.87
291.509	-1.54
291.724	14.85
291.938	72.19
292.153	-54.78
292.368	20.99
292.583	-32.26
292.798	-24.06
293.012	20.99
293.227	-38.4
293.442	39.42
293.657	10.75
293.871	37.38
294.086	20.99
294.301	98.81
294.516	-26.11
294.73	31.23
294.945	-5.63
295.16	55.81
295.374	59.9
295.589	0.51
295.804	-11.78
296.018	6.66
296.233	0.51
296.447	-13.82
296.662	-3.58
296.877	57.86
297.091	-13.82
297.306	10.75
297.52	12.8
297.735	2.56
297.949	10.75
298.164	39.42
298.378	18.94
298.593	2.56
298.807	10.75
299.022	39.42
299.236	-30.21
299.451	-5.63
299.665	-9.73
299.88	-22.02
300.094	-13.82
300.309	45.57
300.523	80.38
300.737	37.38
300.952	0.51
301.166	-38.4
301.381	43.52
301.595	2.56
301.809	23.04
302.024	70.14
302.238	-65.02
302.452	-69.12
302.667	31.23
302.881	72.19
303.095	49.66
303.309	8.7
303.524	-30.21
303.738	-52.74
303.952	45.57
304.166	59.9
304.381	-13.82
304.595	14.85
304.809	-5.63
305.023	20.99
305.237	0.51
305.452	27.14
305.666	39.42
305.88	-19.97
306.094	10.75
306.308	117.25
306.522	45.57
306.736	10.75
306.95	45.57
307.164	-9.73
307.379	-67.07
307.593	33.28
307.807	-50.69
308.021	-11.78
308.235	18.94
308.449	-38.4
308.663	-44.54
308.877	64
309.091	39.42
309.305	45.57
309.519	41.47
309.733	12.8
309.947	-38.4
310.161	14.85
310.374	66.05
310.588	84.48
310.802	-19.97
311.016	18.94
311.23	-48.64
311.444	33.28
311.658	6.66
311.872	-28.16
312.085	8.7
312.299	-1.54
312.513	14.85
312.727	-13.82
312.941	25.09
313.154	8.7
313.368	-67.07
313.582	-19.97
313.796	2.56
314.009	20.99
314.223	37.38
314.437	-26.11
314.651	-48.64
314.864	-24.06
315.078	64
315.292	-38.4
315.505	-3.58
315.719	59.9
315.933	43.52
316.146	-36.35
316.36	14.85
316.573	18.94
316.787	45.57
317.001	-5.63
317.214	-46.59
317.428	27.14
317.641	-54.78
317.855	16.9
318.068	31.23
318.282	37.38
318.495	23.04
318.709	57.86
318.922	-15.87
319.136	2.56
319.349	-1.54
319.563	-38.4
319.776	-5.63
319.99	-40.45
320.203	6.66
320.417	27.14
320.63	49.66
320.843	72.19
321.057	47.62
321.27	-3.58
321.483	37.38
321.697	6.66
321.91	2.56
322.124	39.42
322.337	57.86
322.55	-9.73
322.763	25.09
322.977	18.94
323.19	20.99
323.403	78.33
323.617	51.71
323.83	29.18
324.043	4.61
324.256	66.05
324.469	68.09
324.683	14.85
324.896	-50.69
325.109	10.75
325.322	-19.97
325.535	-13.82
325.748	102.91
325.962	4.61
326.175	-79.36
326.388	55.81
326.601	-79.36
326.814	23.04
327.027	0.51
327.24	6.66
327.453	-22.02
327.666	8.7
327.879	10.75
328.092	14.85
328.305	49.66
328.518	2.56
328.731	35.33
328.944	0.51
329.157	-9.73
329.37	29.18
329.583	8.7
329.796	78.33
330.009	-15.87
330.222	18.94
330.435	37.38
330.648	31.23
330.861	57.86
331.073	-38.4
331.286	31.23
331.499	-5.63
331.712	-54.78
331.925	8.7
332.138	2.56
332.35	59.9
332.563	-83.45
332.776	10.75
332.989	23.04
333.202	57.86
333.414	23.04
333.627	27.14
333.84	-28.16
334.053	20.99
334.265	-79.36
334.478	39.42
334.691	27.14
334.903	10.75
335.116	-30.21
335.329	-34.3
335.541	-34.3
335.754	37.38
335.966	-7.68
336.179	27.14
336.392	25.09
336.604	68.09
336.817	-40.45
337.029	23.04
337.242	0.51
337.454	-17.92
337.667	-5.63
337.88	51.71
338.092	47.62
338.305	33.28
338.517	-38.4
338.729	-19.97
338.942	-24.06
339.154	8.7
339.367	12.8
339.579	16.9
339.792	8.7
340.004	55.81
340.217	51.71
340.429	41.47
340.641	-5.63
340.854	25.09
341.066	20.99
341.278	92.67
341.491	31.23
341.703	-3.58
341.915	23.04
342.128	25.09
342.34	-44.54
342.552	8.7
342.764	2.56
342.977	16.9
343.189	27.14
343.401	2.56
343.613	-50.69
343.826	80.38
344.038	51.71
344.25	-34.3
344.462	53.76
344.674	-48.64
344.886	6.66
345.099	23.04
345.311	0.51
345.523	-40.45
345.735	2.56
345.947	96.77
346.159	27.14
346.371	-7.68
346.583	39.42
346.795	12.8
347.007	31.23
347.219	2.56
347.431	-46.59
347.643	98.81
347.855	20.99
348.067	31.23
348.279	-50.69
348.491	35.33
348.703	-30.21
348.915	51.71
349.127	-13.82
349.339	41.47
349.551	-3.58
349.763	6.66
349.975	6.66
350.187	39.42
350.399	96.77
350.61	0.51
350.822	-5.63
351.034	-17.92
351.246	-5.63
351.458	25.09
351.669	20.99
351.881	-15.87
352.093	16.9
352.305	-17.92
352.517	-7.68
352.728	16.9
352.94	51.71
353.152	-11.78
353.363	14.85
353.575	12.8
353.787	-13.82
353.999	-15.87
354.21	43.52
354.422	-1.54
354.633	33.28
354.845	-7.68
355.057	-7.68
355.268	-44.54
355.48	31.23
355.692	-7.68
355.903	49.66
356.115	16.9
356.326	6.66
356.538	113.15
356.749	86.53
356.961	-5.63
357.172	-3.58
357.384	43.52
357.595	23.04
357.807	35.33
358.018	41.47
358.23	-56.83
358.441	49.66
358.653	6.66
358.864	-7.68
359.075	-17.92
359.287	37.38
359.498	2.56
359.709	2.56
359.921	57.86
360.132	57.86
360.344	10.75
360.555	35.33
360.766	-13.82
360.977	27.14
361.189	57.86
361.4	29.18
361.611	31.23
361.823	-1.54
362.034	-97.79
362.245	4.61
362.456	49.66
362.667	-26.11
362.879	41.47
363.09	47.62
363.301	-19.97
363.512	-1.54
363.723	-1.54
363.935	29.18
364.146	25.09
364.357	23.04
364.568	-32.26
364.779	66.05
364.99	70.14
365.201	-1.54
365.412	10.75
365.623	76.29
365.834	41.47
366.045	10.75
366.256	43.52
366.467	14.85
366.678	12.8
366.889	-28.16
367.1	14.85
367.311	98.81
367.522	0.51
367.733	-7.68
367.944	-5.63
368.155	-13.82
368.366	-5.63
368.577	37.38
368.788	51.71
368.999	-1.54
369.209	43.52
369.42	59.9
369.631	33.28
369.842	-38.4
370.053	90.62
370.264	53.76
370.474	18.94
370.685	66.05
370.896	49.66
371.107	57.86
371.317	43.52
371.528	0.51
371.739	27.14
371.95	6.66
372.16	61.95
372.371	-87.55
372.582	-11.78
372.792	-30.21
373.003	43.52
373.214	49.66
373.424	-30.21
373.635	37.38
373.846	51.71
374.056	20.99
374.267	31.23
374.477	4.61
374.688	27.14
374.898	-52.74
375.109	45.57
375.319	25.09
375.53	43.52
375.74	31.23
375.951	68.09
376.161	37.38
376.372	18.94
376.582	27.14
376.793	-11.78
377.003	76.29
377.214	-28.16
377.424	-26.11
377.635	51.71
377.845	-19.97
378.055	-36.35
378.266	-13.82
378.476	-30.21
378.686	-13.82
378.897	0.51
379.107	10.75
379.317	6.66
379.528	6.66
379.738	-26.11
379.948	2.56
380.158	-1.54
380.369	8.7
380.579	88.57
380.789	-19.97
380.999	25.09
381.21	45.57
381.42	-34.3
381.63	2.56
381.84	88.57
382.05	70.14
382.261	10.75
382.471	119.29
382.681	-30.21
382.891	84.48
383.101	27.14
383.311	31.23
383.521	41.47
383.731	84.48
383.941	10.75
384.151	98.81
384.361	8.7
384.571	39.42
384.781	61.95
384.991	59.9
385.201	33.28
385.411	-13.82
385.621	6.66
385.831	-32.26
386.041	-54.78
386.251	20.99
386.461	47.62
386.671	70.14
386.881	49.66
387.091	14.85
387.301	55.81
387.511	-38.4
387.72	29.18
387.93	61.95
388.14	16.9
388.35	35.33
388.56	27.14
388.769	49.66
388.979	2.56
389.189	0.51
389.399	88.57
389.609	33.28
389.818	59.9
390.028	-26.11
390.238	80.38
390.447	-38.4
390.657	4.61
390.867	35.33
391.076	14.85
391.286	8.7
391.496	57.86
391.705	64
391.915	-13.82
392.125	-11.78
392.334	20.99
392.544	16.9
392.753	35.33
392.963	-40.45
393.172	82.43
393.382	41.47
393.591	51.71
393.801	-3.58
394.01	59.9
394.22	104.96
394.429	10.75
394.639	57.86
394.848	39.42
395.058	31.23
395.267	66.05
395.477	-3.58
395.686	59.9
395.895	55.81
396.105	57.86
396.314	8.7
396.524	68.09
396.733	92.67
396.942	64
397.152	35.33
397.361	45.57
397.57	68.09
397.78	51.71
397.989	45.57
398.198	123.39
398.407	59.9
398.617	16.9
398.826	47.62
399.035	18.94
399.244	-17.92
399.453	37.38
399.663	39.42
399.872	125.44
400.081	4.61
400.29	18.94
400.499	-1.54
400.708	10.75
400.917	47.62
401.127	96.77
401.336	51.71
401.545	119.29
401.754	64
401.963	88.57
402.172	43.52
402.381	43.52
402.59	49.66
402.799	35.33
403.008	35.33
403.217	166.4
403.426	6.66
403.635	113.15
403.844	64
404.053	61.95
404.262	27.14
404.471	84.48
404.68	53.76
404.888	37.38
405.097	80.38
405.306	104.96
405.515	82.43
405.724	100.86
405.933	35.33
406.142	80.38
406.35	115.2
406.559	84.48
406.768	111.1
406.977	104.96
407.185	74.24
407.394	127.49
407.603	41.47
407.812	90.62
408.02	156.16
408.229	117.25
408.438	199.16
408.646	141.82
408.855	176.64
409.064	184.83
409.272	117.25
409.481	145.92
409.69	172.54
409.898	248.32
410.107	215.55
410.315	213.5
410.524	168.45
410.733	188.93
410.941	244.22
411.15	201.21
411.358	242.17
411.567	244.22
411.775	242.17
411.984	236.03
412.192	205.31
412.401	207.36
412.609	270.84
412.818	305.66
413.026	367.1
413.234	256.51
413.443	346.62
413.651	367.1
413.86	303.61
414.068	311.8
414.276	446.97
414.485	412.15
414.693	371.19
414.901	403.96
415.11	412.15
415.318	422.39
415.526	446.97
415.734	465.4
415.943	461.3
416.151	551.42
416.359	582.14
416.567	502.26
416.776	530.94
416.984	641.53
417.192	680.44
417.4	606.71
417.608	657.91
417.817	639.48
418.025	729.59
418.233	788.98
418.441	662.01
418.649	694.77
418.857	764.4
419.065	897.52
419.273	821.75
419.481	866.8
419.689	934.39
419.897	913.91
420.105	1083.89
420.313	969.2
420.521	1044.98
420.729	1081.84
420.937	1118.7
421.145	1087.98
421.353	1100.27
421.561	1214.96
421.769	1280.49
421.977	1233.39
422.185	1327.6
422.393	1391.08
422.601	1466.86
422.809	1509.86
423.017	1423.85
423.224	1593.83
423.432	1626.6
423.64	1575.4
423.848	1919.46
424.056	1749.48
424.263	1817.06
424.471	1868.26
424.679	1923.55
424.887	1991.14
425.094	2075.1
425.302	2140.64
425.51	2183.65
425.718	2128.35
425.925	2159.07
426.133	2300.38
426.341	2292.19
426.548	2611.67
426.756	2484.7
426.964	2496.99
427.171	2709.97
427.379	2718.17
427.586	2781.65
427.794	3019.22
428.001	2947.54
428.209	3162.58
428.417	3037.65
428.624	3303.89
428.832	3322.32
429.039	3369.42
429.247	3348.94
429.454	3670.47
429.662	3850.69
429.869	3635.66
430.076	3973.57
430.284	3783.11
430.491	3979.72
430.699	4227.52
430.906	4245.95
431.114	4248
431.321	4245.95
431.528	4469.18
431.736	4708.79
431.943	4993.46
432.15	4788.66
432.358	4872.63
432.565	5171.63
432.772	5145.01
432.979	5392.81
433.187	5439.92
433.394	5530.03
433.601	5888.42
433.808	5931.43
434.016	5925.29
434.223	6168.99
434.43	6433.18
434.637	6316.45
434.844	6619.55
435.052	7063.96
435.259	6867.35
435.466	6887.83
435.673	6973.85
435.88	7094.68
436.087	7618.96
436.294	7766.41
436.501	7518.61
436.708	7674.25
436.915	7944.58
437.122	8501.63
437.329	8282.5
437.537	8479.1
437.743	8622.46
437.95	8438.14
438.157	9017.72
438.364	9195.89
438.571	9199.99
438.778	9398.64
438.985	10334.56
439.192	9959.78
439.399	10062.18
439.606	9914.73
439.813	10381.67
440.02	11202.9
440.227	11061.59
440.433	10864.99
440.64	11385.17
440.847	10989.91
441.054	11561.3
441.261	12263.75
441.467	11999.56
441.674	12335.43
441.881	12609.86
442.088	12853.56
442.294	12706.11
442.501	12953.91
442.708	12935.48
442.914	13689.14
443.121	14170.41
443.328	13914.41
443.534	14672.16
443.741	14328.1
443.948	14149.93
444.154	15298.84
444.361	15192.34
444.568	15304.98
444.774	15317.27
444.981	15405.33
445.187	15986.96
445.394	16566.53
445.6	16437.51
445.807	18045.16
446.013	17154.3
446.22	17232.12
446.426	18184.43
446.633	18489.57
446.839	18991.33
447.046	18051.31
447.252	19050.72
447.459	19075.29
447.665	19091.68
447.871	19933.39
448.078	21047.49
448.284	19843.28
448.491	20484.3
448.697	21350.59
448.903	21727.41
449.11	21844.15
449.316	21276.86
449.522	21620.92
449.728	22192.3
449.935	22272.17
450.141	22388.91
450.347	23054.5
450.553	22137.01
450.76	22556.84
450.966	23290.01
451.172	22970.53
451.378	23652.5
451.584	23146.65
451.791	23701.65
451.997	23611.54
452.203	23720.09
452.409	23853.2
452.615	23863.44
452.821	22902.95
453.027	22837.41
453.233	23785.62
453.44	23013.54
453.646	23187.61
453.852	23580.82
454.058	23478.43
454.264	23052.45
454.47	23537.82
454.676	22726.82
454.882	23533.72
455.088	21651.64
455.294	21903.54
455.5	22165.68
455.705	22573.22
455.911	21596.34
456.117	20936.9
456.323	20848.83
456.529	19720.4
456.735	20678.85
456.941	20097.23
457.147	19714.26
457.352	19103.96
457.558	18790.63
457.764	18925.79
457.97	18766.05
458.176	18141.42
458.381	18288.87
458.587	17191.16
458.793	17236.22
458.999	16402.69
459.204	17600.76
459.41	16982.27
459.616	15868.17
459.821	16021.77
460.027	15886.61
460.233	15712.53
460.438	14715.17
460.644	14962.97
460.85	14455.08
461.055	14237.99
461.261	14137.64
461.466	12777.79
461.672	12687.68
461.878	13541.68
462.083	12667.2
462.289	12529.98
462.494	12153.16
462.7	11628.88
462.905	11499.86
463.111	11942.22
463.316	12220.74
463.522	11489.62
463.727	11632.97
463.932	11645.26
464.138	11553.1
464.343	11467.09
464.549	11043.16
464.754	11499.86
464.959	11462.99
465.165	11233.62
465.37	10981.72
465.575	10660.19
465.781	11127.13
465.986	11045.21
466.191	10664.29
466.397	10537.31
466.602	9976.17
466.807	10322.27
467.012	10301.79
467.218	10168.68
467.423	10281.32
467.628	10234.21
467.833	10547.55
468.038	10479.97
468.244	9970.02
468.449	10451.3
468.654	10062.18
468.859	10006.89
469.064	10039.65
469.269	9437.55
469.474	9523.57
469.679	9994.6
469.885	9445.74
470.09	9625.97
470.295	9548.14
470.5	9261.43
470.705	9505.13
470.91	9222.52
471.115	9183.6
471.32	9130.36
471.525	9091.45
471.73	8907.13
471.935	8966.52
472.139	8489.34
472.344	8780.15
472.549	8653.18
472.754	8573.31
472.959	8204.67
473.164	8202.63
473.369	8032.65
473.574	8276.35
473.778	8266.11
473.983	8124.8
474.188	8341.89
474.393	7784.84
474.598	7657.87
474.802	7725.45
475.007	7711.11
475.212	7721.35
475.417	7358.86
475.621	7381.39
475.826	7633.29
476.031	7340.43
476.235	7281.04
476.44	7242.13
476.645	7125.4
476.849	7242.13
477.054	7145.87
477.259	7016.85
477.463	7063.96
477.668	6691.23
477.872	6871.45
478.077	6705.56
478.282	6762.9
478.486	6711.71
478.691	6623.64
478.895	6578.59
479.1	6482.33
479.304	6668.7
479.509	6332.83
479.713	6461.85
479.918	6298.02
480.122	6144.42
480.326	6529.44
480.531	6304.16
480.735	6125.99
480.94	6226.34
481.144	6314.4
481.348	6080.93
481.553	6113.7
481.757	5933.48
481.961	5990.82
482.166	6044.07
482.37	5994.92
482.574	5878.18
482.778	5949.86
482.983	6027.68
483.187	5841.32
483.391	6156.71
483.595	6068.64
483.8	5931.43
484.004	6013.35
484.208	5947.81
484.412	5966.24
484.616	5996.96
484.821	6140.32
485.025	5894.57
485.229	6031.78
485.433	5859.75
485.637	6162.85
485.841	6011.3
486.045	5913
486.249	6087.08
486.453	5882.28
486.657	6058.4
486.861	6111.65
487.065	5900.71
487.269	6007.2
487.473	5974.44
487.677	6138.27
487.881	6005.16
488.085	5966.24
488.289	5923.24
488.493	6009.25
488.697	6072.74
488.901	5999.01
489.105	5917.09
489.309	6060.45
489.512	5882.28
489.716	5919.14
489.92	6134.18
490.124	5962.15
490.328	6003.11
490.531	6085.03
490.735	6130.08
490.939	6246.82
491.143	5919.14
491.346	6195.62
491.55	6189.47
491.754	6281.63
491.958	6287.78
492.161	6209.95
492.365	6326.69
492.569	6373.79
492.772	6146.47
492.976	6521.24
493.18	6519.2
493.383	6269.34
493.587	6478.24
493.79	6687.13
493.994	6527.39
494.197	6740.38
494.401	6562.2
494.605	6621.59
494.808	6756.76
495.012	6791.58
495.215	6752.66
495.419	7008.66
495.622	6850.97
495.825	6945.17
496.029	6967.7
496.232	7037.33
496.436	7152.02
496.639	7158.16
496.843	7135.64
497.046	7467.41
497.249	7420.3
497.453	7399.82
497.656	7438.73
497.859	7432.59
498.063	7612.81
498.266	7672.2
498.469	7745.93
498.673	7842.18
498.876	8178.05
499.079	8077.7
499.282	8026.5
499.485	8198.53
499.689	8169.86
499.892	8491.39
500.095	8329.6
500.298	8669.56
500.501	8518.01
500.705	8761.72
500.908	8954.23
501.111	9023.86
501.314	8862.07
501.517	9050.49
501.72	9044.34
501.923	9286
502.126	9365.87
502.329	9462.13
502.532	9611.63
502.735	9531.76
502.938	9810.28
503.141	9800.04
503.344	9933.16
503.547	10006.89
503.75	10137.96
503.953	10252.64
504.156	10428.77
504.359	10580.32
504.562	10506.59
504.765	10660.19
504.968	10721.63
505.17	11086.17
505.373	10817.88
505.576	11190.61
505.779	11508.05
505.982	11477.33
506.185	11409.75
506.387	11555.15
506.59	11606.35
506.793	11936.07
506.996	11772.24
507.198	12077.38
507.401	12050.76
507.604	12300.61
507.807	12441.92
508.009	12650.81
508.212	12839.23
508.415	12708.16
508.617	13062.46
508.82	12890.43
509.022	12865.85
509.225	13214.01
509.428	13443.38
509.63	13494.58
509.833	13693.23
510.035	13822.25
510.238	13734.19
510.44	14020.91
510.643	14176.55
510.845	14278.95
511.048	14129.45
511.25	14371.11
511.453	14618.91
511.655	15048.99
511.858	14776.61
512.06	15014.17
512.262	15059.23
512.465	14883.1
512.667	15507.73
512.87	15270.17
513.072	15436.05
513.274	15735.06
513.477	15948.04
513.679	15900.94
513.881	16400.65
514.084	16259.34
514.286	16490.76
514.488	16457.99
514.69	17158.39
514.893	17105.15
515.095	17119.48
515.297	17291.51
515.499	17223.93
515.701	17516.79
515.904	17580.28
516.106	17930.48
516.308	18006.25
516.51	18381.03
516.712	18151.66
516.914	18206.95
517.116	18620.64
517.318	18651.36
517.52	18725.09
517.722	18882.78
517.925	18970.85
518.127	19302.62
518.329	19431.64
518.531	19577.05
518.733	19620.05
518.935	20127.95
519.136	19830.99
519.338	20113.61
519.54	20400.33
519.742	20535.49
519.944	20521.16
520.146	20963.52
520.348	21180.6
520.55	21000.38
520.752	21074.11
520.954	21164.22
521.155	21313.72
521.357	21397.69
521.559	21678.26
521.761	22071.47
521.963	22059.18
522.164	22061.23
522.366	22284.46
522.568	22415.53
522.77	22425.77
522.971	22943.91
523.173	23091.36
523.375	22816.93
523.576	22835.36
523.778	23003.3
523.98	23644.31
524.181	23664.79
524.383	23394.46
524.584	23744.66
524.786	23607.45
524.988	23789.72
525.189	23922.83
525.391	24150.16
525.592	24258.7
525.794	24508.55
525.995	24471.69
526.197	24690.82
526.398	24471.69
526.6	24752.26
526.801	24838.28
527.003	24815.75
527.204	24680.58
527.406	25057.41
527.607	25041.03
527.808	25436.28
528.01	25112.7
528.211	25073.79
528.412	25766.01
528.614	25626.74
528.815	25755.77
529.016	26009.72
529.218	25684.09
529.419	25600.12
529.62	25467
529.822	25540.73
530.023	25888.88
530.224	25825.4
530.425	25847.93
530.626	25723
530.828	26161.26
531.029	26538.09
531.23	26140.79
531.431	25962.61
531.632	26024.05
531.833	26482.8
532.035	26241.14
532.236	26351.73
532.437	26384.49
532.638	26546.28
532.839	26335.34
533.04	26636.39
533.241	26028.15
533.442	26945.64
533.643	26839.14
533.844	26603.63
534.045	26812.52
534.246	26302.57
534.447	26892.39
534.648	26542.19
534.849	26558.57
535.05	26398.83
535.251	26431.6
535.451	26718.31
535.652	26970.21
535.853	27064.42
536.054	26630.25
536.255	26460.27
536.456	26785.9
536.657	27076.71
536.857	26599.53
537.058	26779.75
537.259	26708.07
537.46	26701.93
537.66	26730.6
537.861	26609.77
538.062	26847.33
538.263	26755.18
538.463	26587.24
538.664	26894.44
538.865	26865.77
539.065	27070.56
539.266	26464.36
539.466	26994.79
539.667	26757.22
539.868	27045.99
540.068	26464.36
540.269	26738.79
540.469	26921.06
540.67	26712.17
540.87	26460.27
541.071	26527.85
541.271	26828.9
541.472	26611.82
541.672	26757.22
541.873	26726.5
542.073	26253.42
542.274	26910.82
542.474	26622.06
542.675	26058.87
542.875	26996.84
543.075	26982.5
543.276	26445.93
543.476	26685.54
543.676	26409.07
543.877	26802.28
544.077	26523.76
544.277	26501.23
544.478	26740.84
544.678	26863.72
544.878	26820.71
545.078	26802.28
545.279	26507.37
545.479	26417.26
545.679	26284.14
545.879	26650.73
546.079	26609.77
546.28	26890.34
546.48	26531.95
546.68	26583.15
546.88	26581.1
547.08	26691.69
547.28	26630.25
547.48	26404.97
547.68	26490.99
547.88	26214.51
548.081	26615.91
548.281	26263.66
548.481	26196.08
548.681	26800.23
548.881	26404.97
549.081	26650.73
549.28	26241.14
549.48	26728.55
549.68	26359.92
549.88	26955.88
550.08	26554.47
550.28	26304.62
550.48	26089.59
550.68	26484.84
550.88	26140.79
551.08	26300.53
551.279	26511.47
551.479	26398.83
551.679	26454.12
551.879	26185.84
552.079	26450.03
552.278	26157.17
552.478	26257.52
552.678	26216.56
552.878	26437.74
553.077	26292.33
553.277	26222.7
553.477	26458.22
553.676	26181.74
553.876	26232.94
554.076	26022
554.275	26044.53
554.475	25991.28
554.674	26171.5
554.874	26232.94
555.074	25999.48
555.273	26065.01
555.473	26167.41
555.672	25991.28
555.872	25716.86
556.071	25907.32
556.271	26148.98
556.47	26056.82
556.67	25741.43
556.869	25690.23
557.068	25843.83
557.268	25538.68
557.467	25825.4
557.667	25800.82
557.866	25671.8
558.065	25659.51
558.265	25464.96
558.464	25661.56
558.663	25987.19
558.863	25446.52
559.062	25733.24
559.261	25559.16
559.461	25526.39
559.66	25442.43
559.859	25251.97
560.058	25305.21
560.258	25262.21
560.457	24930.44
560.656	25206.91
560.855	25464.96
561.054	25020.55
561.253	24883.33
561.453	25272.45
561.652	25108.61
561.851	25127.04
562.05	24995.97
562.249	24664.2
562.448	24895.62
562.647	24993.92
562.846	24723.59
563.045	24844.42
563.244	24541.32
563.443	24774.79
563.642	24320.14
563.841	24631.43
564.04	24225.93
564.239	24778.89
564.438	24526.99
564.637	24539.27
564.836	24354.96
565.035	24369.29
565.234	24344.72
565.432	24080.53
565.631	24129.68
565.83	24158.35
566.029	24010.9
566.228	24207.5
566.427	23980.18
566.625	23853.2
566.824	23398.55
567.023	23875.73
567.222	23492.76
567.42	23949.46
567.619	23875.73
567.818	23443.61
568.016	23339.16
568.215	23736.47
568.414	23369.88
568.612	23679.13
568.811	23185.57
569.01	23306.4
569.208	23165.09
569.407	23406.75
569.605	22898.85
569.804	23537.82
570.002	23040.16
570.201	23128.22
570.4	22954.15
570.598	23017.63
570.797	22554.79
570.995	22804.64
571.193	22534.31
571.392	22771.88
571.59	22519.98
571.789	22552.74
571.987	22384.81
572.186	22577.32
572.384	22282.41
572.582	22759.59
572.781	22552.74
572.979	21801.14
573.177	22339.76
573.376	22120.62
573.574	22063.28
573.772	22055.09
573.971	21731.51
574.169	21723.32
574.367	21629.11
574.565	22173.87
574.763	21833.91
574.962	21483.7
575.16	21586.1
575.358	21592.25
575.556	21354.68
575.754	21887.15
575.952	21639.35
576.151	21692.6
576.349	21270.72
576.547	21274.81
576.745	21115.07
576.943	21158.08
577.141	21268.67
577.339	21416.12
577.537	21018.82
577.735	21051.58
577.933	20725.96
578.131	20762.82
578.329	20746.44
578.527	20644.04
578.725	20811.97
578.923	20992.19
579.121	20871.36
579.319	20627.65
579.516	20768.96
579.714	20480.2
579.912	20490.44
580.11	20443.34
580.308	20650.18
580.506	20213.96
580.704	20070.61
580.901	20398.28
581.099	20424.9
581.297	20318.41
581.495	20084.94
581.692	20322.51
581.89	19794.13
582.088	19927.25
582.285	20041.93
582.483	19986.64
582.681	19861.71
582.878	19876.05
583.076	19581.14
583.274	19878.1
583.471	19589.33
583.669	19560.66
583.866	19486.93
584.064	19400.92
584.262	19290.33
584.459	19351.77
584.657	19024.09
584.854	19347.67
585.052	19007.71
585.249	19372.25
585.447	19421.4
585.644	18960.61
585.841	19198.17
586.039	19380.44
586.236	18852.06
586.434	18952.41
586.631	19083.48
586.828	18516.2
587.026	18792.67
587.223	18749.67
587.42	18637.03
587.618	18710.75
587.815	18460.9
588.012	18512.1
588.21	18559.2
588.407	18624.74
588.604	18276.59
588.801	18237.67
588.999	18290.92
589.196	18325.74
589.393	18249.96
589.59	17924.33
589.787	17965.29
589.984	18217.19
590.182	17830.13
590.379	18122.99
590.576	17772.78
590.773	17791.22
590.97	17522.93
591.167	17942.77
591.364	17443.06
591.561	17488.12
591.758	17137.91
591.955	17522.93
592.152	17662.19
592.349	17279.22
592.546	17387.77
592.743	17465.59
592.94	17133.82
593.137	17064.19
593.334	17377.53
593.531	17049.85
593.727	17260.79
593.924	17234.17
594.121	16754.94
594.318	16859.39
594.515	16756.99
594.712	16820.48
594.908	16611.59
595.105	16867.58
595.302	16642.31
595.499	16871.68
595.696	16736.51
595.892	16462.08
596.089	16621.83
596.286	16521.48
596.482	16390.41
596.679	16468.23
596.876	16466.18
597.072	16044.3
597.269	16054.54
597.466	16064.78
597.662	15995.15
597.859	16220.42
598.055	16070.92
598.252	16140.55
598.448	15941.9
598.645	15886.61
598.841	15753.49
599.038	15855.89
599.234	15925.52
599.431	15726.86
599.627	15782.16
599.824	15767.82
600.02	15513.88
600.217	15698.19
600.413	15391
600.609	15403.28
600.806	15360.28
601.002	15452.44
601.198	15225.11
601.395	15202.58
601.591	15175.96
601.787	15055.13
601.984	15139.1
602.18	15323.41
602.376	14815.52
602.572	14692.64
602.769	15083.8
602.965	14938.4
603.161	14932.25
603.357	15051.03
603.553	14702.88
603.75	14666.02
603.946	14700.83
604.142	14762.27
604.338	14551.33
604.534	14526.75
604.73	14389.54
604.926	14326.05
605.122	14448.93
605.318	14297.38
605.514	14358.82
605.71	14143.78
605.906	14106.92
606.102	14182.7
606.298	14299.43
606.494	14332.2
606.69	14080.3
606.886	14209.32
607.082	14250.28
607.278	14072.11
607.474	13793.58
607.67	14156.07
607.866	13904.17
608.062	14027.05
608.257	13650.22
608.453	13701.42
608.649	13824.3
608.845	13783.34
609.041	13949.23
609.236	13764.91
609.432	13752.62
609.628	13723.95
609.824	13576.5
610.019	13437.23
610.215	13789.49
610.411	13527.35
610.606	13441.33
610.802	13568.3
610.998	13353.27
611.193	13496.63
611.389	13320.5
611.584	13269.3
611.78	13269.3
611.976	13263.16
612.171	13467.95
612.367	13379.89
612.562	13078.84
612.758	12968.25
612.953	13293.88
613.149	13156.66
613.344	13166.9
613.539	13211.96
613.735	13310.26
613.93	13107.51
614.126	12998.97
614.321	13257.01
614.517	12910.91
614.712	12822.84
614.907	12980.54
615.103	12927.29
615.298	13115.7
615.493	12912.95
615.688	12689.73
615.884	13068.6
616.079	12773.69
616.274	12902.72
616.47	12888.38
616.665	12642.62
616.86	12644.67
617.055	12575.04
617.25	12605.76
617.445	12706.11
617.641	12527.94
617.836	12493.12
618.031	12329.28
618.226	12636.48
618.421	12538.18
618.616	12710.21
618.811	12400.96
619.006	12527.94
619.201	12114.25
619.396	12128.58
619.591	12290.37
619.786	12511.55
619.981	11931.98
620.176	12114.25
620.371	11985.23
620.566	12048.71
620.761	11831.63
620.956	11870.54
621.151	11729.23
621.346	11936.07
621.541	11733.32
621.735	11798.86
621.93	11336.02
622.125	11419.99
622.32	11354.45
622.515	11452.75
622.709	11426.13
622.904	11460.95
623.099	11184.47
623.294	11237.72
623.488	11077.97
623.683	11227.48
623.878	10977.62
624.072	11176.28
624.267	10875.23
624.462	10879.32
624.656	10662.24
624.851	10860.89
625.046	10666.33
625.24	10764.64
625.435	10514.78
625.629	10682.72
625.824	10543.46
626.018	10514.78
626.213	10203.49
626.407	10340.71
626.602	10381.67
626.796	10178.92
626.991	10285.41
627.185	10053.99
627.38	10004.84
627.574	9914.73
627.768	9797.99
627.963	9957.74
628.157	9750.89
628.352	9929.06
628.546	9779.56
628.74	9847.15
628.935	9699.69
629.129	9675.12
629.323	9472.37
629.517	9480.56
629.712	9494.9
629.906	9224.56
630.1	9165.17
630.294	9216.37
630.489	9234.8
630.683	9081.21
630.877	9032.05
631.071	9056.63
631.265	9066.87
631.459	9197.94
631.653	8905.08
631.848	8857.98
632.042	8819.07
632.236	8997.24
632.43	8812.92
632.624	8700.28
632.818	8671.61
633.012	8544.64
633.206	8763.77
633.4	8542.59
633.594	8518.01
633.788	8493.44
633.982	8509.82
634.176	8651.13
634.369	8229.25
634.563	8409.47
634.757	8341.89
634.951	8180.1
635.145	8196.48
635.339	8165.76
635.533	8126.85
635.726	7975.3
635.92	7934.34
636.114	8153.48
636.308	7981.45
636.501	7971.21
636.695	7809.42
636.889	7821.7
637.083	7747.98
637.276	7715.21
637.47	7672.2
637.664	7645.58
637.857	7639.44
638.051	7733.64
638.244	7487.89
638.438	7543.18
638.632	7670.15
638.825	7567.76
639.019	7338.38
639.212	7231.89
639.406	7498.13
639.599	7190.93
639.793	7324.05
639.986	7182.74
640.18	7131.54
640.373	7227.79
640.567	7012.76
640.76	7111.06
640.954	6947.22
641.147	6871.45
641.34	6822.3
641.534	6990.23
641.727	6889.88
641.92	6838.68
642.114	6781.34
642.307	6941.08
642.5	6906.26
642.694	6748.57
642.887	6711.71
643.08	6721.95
643.273	6687.13
643.467	6611.36
643.66	6482.33
643.853	6384.03
644.046	6394.27
644.239	6537.63
644.432	6521.24
644.626	6285.73
644.819	6412.7
645.012	6269.34
645.205	6371.74
645.398	6449.57
645.591	6226.34
645.784	6308.26
645.977	6271.39
646.17	6119.84
646.363	6160.8
646.556	5872.04
646.749	5972.39
646.942	6171.04
647.135	5880.23
647.328	5882.28
647.521	6025.64
647.714	5933.48
647.907	5826.98
648.099	5652.91
648.292	5654.95
648.485	5818.79
648.678	5652.91
648.871	5716.39
649.064	5642.67
649.256	5792.17
649.449	5595.56
649.642	5728.68
649.835	5521.84
650.027	5480.88
650.22	5392.81
650.413	5470.64
650.605	5429.68
650.798	5448.11
650.991	5450.16
651.183	5454.25
651.376	5204.4
651.568	5282.22
651.761	5243.31
651.954	5155.25
652.146	5114.29
652.339	5233.07
652.531	5153.2
652.724	5073.33
652.916	5085.62
653.109	5116.34
653.301	4987.32
653.494	4983.22
653.686	4938.16
653.879	4985.27
654.071	5142.96
654.263	4999.6
654.456	4846.01
654.648	5018.04
654.84	4790.71
655.033	4950.45
655.225	4919.73
655.417	4809.14
655.61	4831.67
655.802	4676.02
655.994	4690.36
656.186	4676.02
656.379	4639.16
656.571	4583.87
656.763	4602.3
656.955	4567.48
657.148	4610.49
657.34	4479.42
657.532	4493.76
657.724	4501.95
657.916	4420.03
658.108	4501.95
658.3	4338.11
658.492	4409.79
658.684	4389.31
658.876	4364.73
659.068	4458.94
659.26	4268.48
659.452	4360.64
659.644	4266.43
659.836	4198.85
660.028	4364.73
660.22	4151.74
660.412	4192.7
660.604	4174.27
660.796	4204.99
660.988	4221.38
661.18	4078.02
661.372	4118.98
661.563	4192.7
661.755	4153.79
661.947	4116.93
662.139	4010.43
662.331	3979.72
662.522	4057.54
662.714	3899.84
662.906	4000.19
663.097	4008.39
663.289	3748.29
663.481	3830.21
663.673	3873.22
663.864	3922.37
664.056	3840.45
664.247	3903.94
664.439	3828.17
664.631	3668.42
664.822	3867.08
665.014	3721.67
665.205	3885.51
665.397	3703.24
665.588	3742.15
665.78	3533.26
665.971	3836.36
666.163	3705.29
666.354	3713.48
666.546	3545.55
666.737	3461.58
666.929	3533.26
667.12	3594.7
667.311	3551.69
667.503	3385.8
667.694	3525.07
667.885	3549.64
668.077	3523.02
668.268	3449.29
668.459	3555.79
668.651	3541.45
668.842	3432.91
669.033	3443.15
669.224	3377.61
669.416	3336.65
669.607	3482.06
669.798	3422.67
669.989	3457.48
670.18	3348.94
670.371	3357.13
670.563	3357.13
670.754	3379.66
670.945	3289.55
671.136	3287.5
671.327	3244.49
671.518	3289.55
671.709	3340.75
671.9	3197.39
672.091	3221.97
672.282	3201.49
672.473	3228.11
672.664	3168.72
672.855	3215.82
673.046	3148.24
673.237	3246.54
673.428	3203.54
673.619	3060.18
673.809	3082.7
674	3195.34
674.191	3236.3
674.382	3166.67
674.573	3148.24
674.764	3228.11
674.954	3238.35
675.145	3189.2
675.336	3185.1
675.527	3023.31
675.717	3121.62
675.908	3158.48
676.099	3121.62
676.289	3160.53
676.48	3037.65
676.671	3043.79
676.861	3025.36
677.052	2980.31
677.243	3092.94
677.433	3041.75
677.624	3039.7
677.814	3138
678.005	2898.39
678.195	2963.92
678.386	3088.85
678.576	2925.01
678.767	2798.04
678.957	3072.47
679.148	3033.55
679.338	3041.75
679.529	2859.48
679.719	2951.63
679.909	3156.43
680.1	3033.55
680.29	2980.31
680.481	3008.98
680.671	3060.18
680.861	2904.53
681.052	2929.11
681.242	2965.97
681.432	3033.55
681.622	2968.02
681.813	2994.64
682.003	3047.89
682.193	2847.19
682.383	3115.47
682.573	2879.96
682.764	2920.92
682.954	2994.64
683.144	2914.77
683.334	2953.68
683.524	2920.92
683.714	2916.82
683.904	2961.87
684.094	2947.54
684.284	3021.27
684.474	2898.39
684.664	2939.35
684.854	2886.1
685.044	2826.71
685.234	2875.86
685.424	2890.2
685.614	2740.69
685.804	2795.99
685.994	2812.37
686.184	2865.62
686.374	2922.96
686.564	2716.12
686.753	2824.66
686.943	2787.8
687.133	2787.8
687.323	2847.19
687.513	2748.89
687.702	2789.85
687.892	2656.73
688.082	2619.86
688.272	2853.33
688.461	2601.43
688.651	2646.49
688.841	2638.3
689.03	2560.47
689.22	2675.16
689.41	2523.61
689.599	2515.42
689.789	2652.63
689.979	2595.29
690.168	2525.66
690.358	2511.32
690.547	2558.42
690.737	2447.83
690.926	2591.19
691.116	2482.65
691.305	2464.22
691.495	2427.35
691.684	2439.64
691.874	2351.58
692.063	2431.45
692.252	2314.72
692.442	2370.01
692.631	2312.67
692.82	2347.48
693.01	2396.64
693.199	2300.38
693.388	2341.34
693.578	2208.22
693.767	2240.99
693.956	2404.83
694.146	2165.21
694.335	2236.89
694.524	2087.39
694.713	2206.17
694.902	2257.37
695.092	2193.89
695.281	2171.36
695.47	2130.4
695.659	2095.58
695.848	2224.61
696.037	2101.73
696.226	2064.86
696.415	2083.3
696.604	2128.35
696.793	2091.49
696.982	2116.06
697.171	2103.78
697.36	2150.88
697.549	2019.81
697.738	2120.16
697.927	2161.12
698.116	2107.87
698.305	2111.97
698.494	2157.02
698.683	2167.26
698.872	2109.92
699.061	1901.03
699.25	2062.82
699.438	2144.74
699.627	1980.9
699.816	2009.57
700.005	2040.29
700.193	2087.39
700.382	2064.86
700.571	2017.76
700.76	1960.42
700.948	2097.63
701.137	2060.77
701.326	2017.76
701.514	1993.19
701.703	1962.47
701.892	2007.52
702.08	2017.76
702.269	2118.11
702.457	2056.67
702.646	2105.82
702.834	2009.57
703.023	2013.67
703.212	2071.01
703.4	1982.95
703.589	1987.04
703.777	1997.28
703.965	1964.51
704.154	2093.54
704.342	1989.09
704.531	2007.52
704.719	1876.45
704.907	1980.9
705.096	1958.37
705.284	2064.86
705.472	1913.31
705.661	1982.95
705.849	2091.49
706.037	1927.65
706.226	2017.76
706.414	2150.88
706.602	1952.23
706.79	1993.19
706.979	2013.67
707.167	1991.14
707.355	2052.58
707.543	2025.95
707.731	1984.99
707.919	2058.72
708.107	1980.9
708.296	2075.1
708.484	2058.72
708.672	2013.67
708.86	2107.87
709.048	1980.9
709.236	2001.38
709.424	2030.05
709.612	2013.67
709.8	2007.52
709.988	2007.52
710.176	2099.68
710.364	2030.05
710.551	2138.59
710.739	2036.19
710.927	1966.56
711.115	2052.58
711.303	2157.02
711.491	1993.19
711.679	2071.01
711.866	2101.73
712.054	2150.88
712.242	2058.72
712.43	2034.14
712.617	2130.4
712.805	2058.72
712.993	2109.92
713.181	2046.43
713.368	2099.68
713.556	2107.87
713.744	2083.3
713.931	2304.48
714.119	2101.73
714.306	2005.47
714.494	2161.12
714.682	2130.4
714.869	2093.54
715.057	2169.31
715.244	2107.87
715.432	2204.13
715.619	2085.34
715.807	2083.3
715.994	2218.46
716.182	2068.96
716.369	2169.31
716.556	2134.5
716.744	2140.64
716.931	2075.1
717.119	2320.86
717.306	2173.41
717.493	2243.04
717.681	2173.41
717.868	2300.38
718.055	2197.98
718.242	2189.79
718.43	2191.84
718.617	2253.28
718.804	2220.51
718.991	2337.24
719.179	2236.89
719.366	2347.48
719.553	2185.69
719.74	2343.39
719.927	2189.79
720.114	2372.06
720.301	2279.9
720.488	2208.22
720.676	2376.16
720.863	2175.45
721.05	2337.24
721.237	2306.52
721.424	2232.8
721.611	2253.28
721.798	2388.44
721.985	2236.89
722.172	2355.68
722.358	2273.76
722.545	2333.15
722.732	2255.33
722.919	2298.33
723.106	2314.72
723.293	2245.09
723.48	2443.74
723.667	2275.81
723.853	2316.76
724.04	2327
724.227	2472.41
724.414	2322.91
724.6	2388.44
724.787	2357.72
724.974	2367.96
725.161	2286.05
725.347	2365.92
725.534	2335.2
725.72	2419.16
725.907	2372.06
726.094	2337.24
726.28	2433.5
726.467	2324.96
726.653	2410.97
726.84	2406.88
727.027	2335.2
727.213	2320.86
727.4	2351.58
727.586	2453.98
727.773	2410.97
727.959	2464.22
728.145	2357.72
728.332	2574.81
728.518	2374.11
728.705	2572.76
728.891	2419.16
729.077	2441.69
729.264	2492.89
729.45	2316.76
729.636	2402.78
729.823	2523.61
730.009	2437.59
730.195	2410.97
730.382	2496.99
730.568	2394.59
730.754	2456.03
730.94	2464.22
731.126	2562.52
731.313	2542.04
731.499	2544.09
731.685	2525.66
731.871	2537.95
732.057	2501.08
732.243	2367.96
732.429	2505.18
732.615	2505.18
732.801	2468.31
732.987	2443.74
733.173	2441.69
733.359	2478.55
733.545	2486.75
733.731	2392.54
733.917	2529.75
734.103	2505.18
734.289	2544.09
734.475	2507.23
734.661	2415.07
734.847	2447.83
735.033	2533.85
735.219	2427.35
735.404	2640.34
735.59	2458.07
735.776	2410.97
735.962	2535.9
736.148	2558.42
736.333	2449.88
736.519	2451.93
736.705	2546.14
736.89	2449.88
737.076	2501.08
737.262	2390.49
737.447	2423.26
737.633	2433.5
737.819	2441.69
738.004	2587.1
738.19	2406.88
738.375	2386.4
738.561	2521.56
738.747	2308.57
738.932	2324.96
739.118	2484.7
739.303	2568.66
739.489	2318.81
739.674	2367.96
739.859	2451.93
740.045	2353.63
740.23	2327
740.416	2361.82
740.601	2552.28
740.786	2507.23
740.972	2431.45
741.157	2468.31
741.342	2380.25
741.528	2320.86
741.713	2376.16
741.898	2349.53
742.084	2386.4
742.269	2292.19
742.454	2292.19
742.639	2376.16
742.824	2269.66
743.01	2329.05
743.195	2327
743.38	2382.3
743.565	2247.13
743.75	2286.05
743.935	2222.56
744.12	2312.67
744.305	2267.61
744.49	2230.75
744.675	2212.32
744.86	2212.32
745.045	2222.56
745.23	2179.55
745.415	2265.57
745.6	2247.13
745.785	2202.08
745.97	2245.09
746.155	2204.13
746.34	2167.26
746.525	2136.54
746.71	2228.7
746.895	2120.16
747.079	2011.62
747.264	2021.86
747.449	1987.04
747.634	2071.01
747.819	2089.44
748.003	2046.43
748.188	2005.47
748.373	2066.91
748.557	2083.3
748.742	2038.24
748.927	2023.91
749.111	1960.42
749.296	1929.7
749.481	1939.94
749.665	1853.92
749.85	1882.6
750.034	1946.08
750.219	1855.97
750.404	1913.31
750.588	1921.51
750.773	1868.26
750.957	1841.64
751.141	1853.92
751.326	1841.64
751.51	1843.68
751.695	1786.34
751.879	1778.15
752.064	1829.35
752.248	1825.25
752.432	1772
752.617	1704.42
752.801	1786.34
752.985	1722.85
753.17	1737.19
753.354	1673.7
753.538	1661.41
753.722	1567.21
753.907	1614.31
754.091	1589.74
754.275	1655.27
754.459	1647.08
754.643	1491.43
754.828	1679.85
755.012	1632.74
755.196	1647.08
755.38	1493.48
755.564	1532.39
755.748	1532.39
755.932	1599.98
756.116	1489.39
756.3	1526.25
756.484	1524.2
756.668	1550.82
756.852	1444.33
757.036	1518.06
757.22	1440.23
757.404	1407.47
757.588	1462.76
757.772	1442.28
757.956	1403.37
758.14	1419.75
758.323	1370.6
758.507	1411.56
758.691	1239.53
758.875	1354.22
759.059	1296.88
759.242	1366.51
759.426	1360.36
759.61	1325.55
759.794	1237.49
759.977	1260.01
760.161	1368.56
760.345	1266.16
760.528	1249.77
760.712	1235.44
760.895	1270.25
761.079	1321.45
761.263	1247.72
761.446	1212.91
761.63	1346.03
761.813	1219.05
761.997	1262.06
762.18	1206.77
762.364	1214.96
762.547	1294.83
762.731	1249.77
762.914	1171.95
763.098	1241.58
763.281	1292.78
763.464	1217.01
763.648	1182.19
763.831	1094.13
764.015	1128.94
764.198	1073.65
764.381	1124.85
764.564	1104.37
764.748	1065.46
764.931	1090.03
765.114	1116.65
765.297	1092.08
765.481	1067.5
765.664	1096.18
765.847	1004.02
766.03	1143.28
766.213	1133.04
766.397	1073.65
766.58	1106.42
766.763	1063.41
766.946	1090.03
767.129	1096.18
767.312	963.06
767.495	1083.89
767.678	942.58
767.861	985.58
768.044	1001.97
768.227	1024.5
768.41	1036.78
768.593	967.15
768.776	997.87
768.959	961.01
769.142	961.01
769.324	1024.5
769.507	969.2
769.69	1042.93
769.873	961.01
770.056	989.68
770.239	918
770.421	924.15
770.604	936.43
770.787	932.34
770.97	922.1
771.152	874.99
771.335	897.52
771.518	971.25
771.7	866.8
771.883	877.04
772.066	940.53
772.248	829.94
772.431	932.34
772.613	852.47
772.796	885.23
772.978	911.86
773.161	852.47
773.343	985.58
773.526	760.31
773.708	764.4
773.891	918
774.073	881.14
774.256	780.79
774.438	893.43
774.621	868.85
774.803	807.41
774.985	895.47
775.168	850.42
775.35	786.93
775.532	743.92
775.715	756.21
775.897	770.55
776.079	756.21
776.261	711.16
776.444	846.32
776.626	797.17
776.808	729.59
776.99	827.89
777.173	700.92
777.355	721.4
777.537	752.12
777.719	743.92
777.901	641.53
778.083	731.64
778.265	563.7
778.447	741.88
778.629	608.76
778.811	680.44
778.993	702.97
779.175	698.87
779.357	680.44
779.539	666.1
779.721	657.91
779.903	639.48
780.085	676.34
780.267	655.86
780.449	694.77
780.631	602.61
780.812	639.48
780.994	551.42
781.176	731.64
781.358	553.46
781.54	623.09
781.721	702.97
781.903	512.5
782.085	602.61
782.267	555.51
782.448	453.11
782.63	584.18
782.812	469.5
782.993	547.32
783.175	547.32
783.357	547.32
783.538	557.56
783.72	453.11
783.901	457.21
784.083	553.46
784.264	514.55
784.446	565.75
784.627	436.73
784.809	457.21
784.99	434.68
785.172	428.54
785.353	465.4
785.535	494.07
785.716	442.87
785.897	508.41
786.079	444.92
786.26	518.65
786.441	424.44
786.623	375.29
786.804	360.95
786.985	416.25
787.167	422.39
787.348	387.58
787.529	500.22
787.71	485.88
787.891	393.72
788.073	477.69
788.254	414.2
788.435	416.25
788.616	432.63
788.797	444.92
788.978	416.25
789.159	451.07
789.34	436.73
789.522	379.39
789.703	322.04
789.884	307.71
790.065	426.49
790.246	393.72
790.427	389.63
790.607	418.3
790.788	360.95
790.969	401.91
791.15	418.3
791.331	320
791.512	322.04
791.693	422.39
791.874	367.1
792.054	395.77
792.235	393.72
792.416	301.56
792.597	358.91
792.778	363
792.958	410.11
793.139	352.76
793.32	301.56
793.5	264.7
793.681	434.68
793.862	338.43
794.042	350.71
794.223	389.63
794.404	244.22
794.584	289.28
794.765	375.29
794.945	367.1
795.126	289.28
795.306	317.95
795.487	270.84
795.667	330.23
795.848	260.6
796.028	254.46
796.209	293.37
796.389	283.13
796.57	276.99
796.75	266.75
796.93	281.08
797.111	287.23
797.291	264.7
797.471	258.56
797.652	231.93
797.832	322.04
798.012	297.47
798.192	231.93
798.373	305.66
798.553	256.51
798.733	260.6
798.913	236.03
799.093	293.37
799.274	238.08
799.454	295.42
799.634	268.8
799.814	238.08
799.994	291.32
800.174	223.74
800.354	221.69
800.534	240.12
800.714	260.6
800.894	203.26
801.074	217.6
801.254	260.6
801.434	276.99
801.614	289.28
801.794	260.6
801.974	524.79
802.154	176.64
802.334	293.37
802.514	309.76
802.693	236.03
802.873	186.88
803.053	256.51
803.233	289.28
803.413	215.55
803.592	207.36
803.772	246.27
803.952	174.59
804.131	254.46
804.311	279.04
804.491	246.27
804.67	207.36
804.85	254.46
805.03	213.5
805.209	252.41
805.389	207.36
805.568	248.32
805.748	231.93
805.928	197.12
806.107	231.93
806.287	184.83
806.466	137.73
806.646	205.31
806.825	225.79
807.004	205.31
807.184	207.36
807.363	168.45
807.543	162.3
807.722	233.98
807.901	244.22
808.081	160.25
808.26	125.44
808.439	219.64
808.619	152.06
808.798	162.3
808.977	209.4
809.156	203.26
809.336	180.73
809.515	152.06
809.694	133.63
809.873	156.16
810.052	178.69
810.231	250.36
810.411	215.55
810.59	203.26
810.769	141.82
810.948	236.03
811.127	141.82
811.306	182.78
811.485	205.31
811.664	223.74
811.843	137.73
812.022	137.73
812.201	195.07
812.38	117.25
812.559	166.4
812.737	174.59
812.916	94.72
813.095	166.4
813.274	180.73
813.453	125.44
813.632	82.43
813.811	174.59
813.989	168.45
814.168	195.07
814.347	197.12
814.526	92.67
814.704	211.45
814.883	154.11
815.062	143.87
815.24	107.01
815.419	113.15
815.598	125.44
815.776	174.59
815.955	154.11
816.133	84.48
816.312	168.45
816.49	33.28
816.669	107.01
816.847	92.67
817.026	166.4
817.204	127.49
817.383	117.25
817.561	127.49
817.74	188.93
817.918	193.02
818.097	94.72
818.275	84.48
818.453	59.9
818.632	98.81
818.81	156.16
818.988	113.15
819.167	66.05
819.345	113.15
819.523	84.48
819.701	74.24
819.879	213.5
820.058	59.9
820.236	100.86
820.414	158.21
820.592	145.92
820.77	133.63
820.948	80.38
821.127	152.06
821.305	100.86
821.483	35.33
821.661	100.86
821.839	150.01
822.017	43.52
822.195	127.49
822.373	49.66
822.551	125.44
822.729	176.64
822.907	72.19
823.085	111.1
823.262	68.09
823.44	141.82
823.618	27.14
823.796	135.68
823.974	23.04
824.152	133.63
824.329	104.96
824.507	41.47
824.685	98.81
824.863	102.91
825.04	23.04
825.218	152.06
825.396	59.9
825.574	100.86
825.751	82.43
825.929	88.57
826.107	102.91
826.284	82.43
826.462	64
826.639	96.77
826.817	107.01
826.994	70.14
827.172	113.15
827.349	160.25
827.527	78.33
827.704	78.33
827.882	107.01
828.059	94.72
828.237	55.81
828.414	43.52
828.591	18.94
828.769	135.68
828.946	94.72
829.124	131.58
829.301	109.05
829.478	57.86
829.655	94.72
829.833	39.42
830.01	141.82
830.187	64
830.364	41.47
830.542	104.96
830.719	84.48
830.896	152.06
831.073	82.43
831.25	131.58
831.427	70.14
831.604	100.86
831.782	72.19
831.959	61.95
832.136	64
832.313	90.62
832.49	-9.73
832.667	23.04
832.844	74.24
833.021	49.66
833.198	51.71
833.374	57.86
833.551	45.57
833.728	39.42
833.905	100.86
834.082	96.77
834.259	76.29
834.436	113.15
834.612	66.05
834.789	133.63
834.966	76.29
835.143	39.42
835.319	2.56
835.496	57.86
835.673	72.19
835.85	76.29
836.026	70.14
836.203	92.67
836.38	76.29
836.556	35.33
836.733	57.86
836.909	92.67
837.086	43.52
837.262	-7.68
837.439	57.86
837.616	-1.54
837.792	68.09
837.968	51.71
838.145	-11.78
838.321	35.33
838.498	78.33
838.674	55.81
838.851	59.9
839.027	35.33
839.203	53.76
839.38	37.38
839.556	43.52
839.732	41.47
839.909	92.67
840.085	117.25
840.261	41.47
840.437	84.48
840.614	66.05
840.79	20.99
840.966	92.67
841.142	-13.82
841.318	66.05
841.494	4.61
841.671	166.4
841.847	-5.63
842.023	14.85
842.199	100.86
842.375	84.48
842.551	57.86
842.727	6.66
842.903	51.71
843.079	6.66
843.255	125.44
843.431	51.71
843.607	6.66
843.783	25.09
843.959	68.09
844.134	47.62
844.31	88.57
844.486	35.33
844.662	135.68
844.838	14.85
845.013	27.14
845.189	68.09
845.365	14.85
845.541	-44.54
845.716	78.33
845.892	-9.73
846.068	74.24
846.244	4.61
846.419	10.75
846.595	8.7
846.77	2.56
846.946	111.1
847.122	16.9
847.297	20.99
847.473	2.56
847.648	68.09
847.824	37.38
847.999	23.04
848.175	8.7
848.35	-19.97
848.526	25.09
848.701	20.99
848.876	78.33
849.052	31.23
849.227	6.66
849.403	72.19
849.578	61.95
849.753	41.47
849.929	49.66
850.104	12.8
850.279	53.76
850.454	39.42
850.63	33.28
850.805	-54.78
850.98	27.14
851.155	31.23
851.33	-15.87
851.505	82.43
851.681	127.49
851.856	-1.54
852.031	29.18
852.206	61.95
852.381	14.85
852.556	16.9
852.731	-32.26
852.906	-38.4
853.081	43.52
853.256	20.99
853.431	51.71
853.606	-40.45
853.781	-13.82
853.956	6.66
854.131	47.62
854.305	-38.4
854.48	8.7
854.655	-69.12
854.83	6.66
855.005	117.25
855.18	47.62
855.354	-38.4
855.529	-9.73
855.704	-30.21
855.879	55.81
856.053	6.66
856.228	39.42
856.403	-62.98
856.577	98.81
856.752	10.75
856.926	51.71
857.101	2.56
857.276	27.14
857.45	-5.63
857.625	-9.73
857.799	59.9
857.974	35.33
858.148	-1.54
858.323	-30.21
858.497	14.85
858.672	16.9
858.846	0.51
859.02	4.61
859.195	6.66
859.369	4.61
859.543	18.94
859.718	27.14
859.892	27.14
860.066	0.51
860.241	70.14
860.415	6.66
860.589	-22.02
860.763	51.71
860.938	14.85
861.112	98.81
861.286	-13.82
861.46	-15.87
861.634	70.14
861.808	39.42
861.982	-62.98
862.157	-54.78
862.331	43.52
862.505	-36.35
862.679	-22.02
862.853	37.38
863.027	59.9
863.201	80.38
863.375	-77.31
863.549	82.43
863.722	-5.63
863.896	43.52
864.07	-32.26
864.244	-11.78
864.418	-26.11
864.592	-19.97
864.766	27.14
864.939	31.23
865.113	59.9
865.287	39.42
865.461	49.66
865.634	16.9
865.808	20.99
865.982	8.7
866.156	33.28
866.329	-44.54
866.503	-22.02
866.676	-9.73
866.85	74.24
867.024	-32.26
867.197	74.24
867.371	0.51
867.544	8.7
867.718	31.23
867.891	-48.64
868.065	2.56
868.238	-48.64
868.412	-17.92
868.585	-71.17
868.759	12.8
868.932	18.94
869.105	-30.21
869.279	-58.88
869.452	-42.5
869.625	14.85
869.799	53.76
869.972	-13.82
870.145	16.9
870.319	-3.58
870.492	-15.87
870.665	-28.16
870.838	16.9
871.011	-15.87
871.185	-19.97
871.358	2.56
871.531	-11.78
871.704	-54.78
871.877	-15.87
872.05	51.71
872.223	-15.87
872.396	59.9
872.569	35.33
872.742	-34.3
872.915	25.09
873.088	20.99
873.261	-40.45
873.434	-32.26
873.607	-42.5
873.78	53.76
873.953	61.95
874.126	-54.78
874.299	-7.68
874.471	-3.58
874.644	31.23
874.817	-36.35
874.99	-24.06
875.163	-32.26
875.335	0.51
875.508	27.14
875.681	-19.97
875.853	-42.5
876.026	-26.11
876.199	-15.87
876.371	-28.16
876.544	-26.11
876.717	2.56
876.889	10.75
877.062	41.47
877.234	-22.02
877.407	2.56
877.579	-22.02
877.752	-13.82
877.924	-85.5
878.097	-13.82
878.269	-7.68
878.442	12.8
878.614	6.66
878.786	4.61
878.959	18.94
879.131	61.95
879.303	-34.3
879.476	-40.45
879.648	18.94
879.82	4.61
879.993	-103.93
880.165	-17.92
880.337	-36.35
880.509	-26.11
880.681	-15.87
880.854	-42.5
881.026	-11.78
881.198	51.71
881.37	4.61
881.542	25.09
881.714	-17.92
881.886	-26.11
882.058	23.04
882.23	-50.69
882.402	4.61
882.574	6.66
882.746	64
882.918	-52.74
883.09	4.61
883.262	-24.06
883.434	80.38
883.606	-5.63
883.778	27.14
883.95	16.9
884.122	-28.16
884.293	-22.02
884.465	-62.98
884.637	2.56
884.809	18.94
884.98	16.9
885.152	-1.54
885.324	-40.45
885.496	-71.17
885.667	51.71
885.839	-15.87
886.011	23.04
886.182	-40.45
886.354	10.75
886.525	-19.97
886.697	8.7
886.869	59.9
887.04	-22.02
887.212	59.9
887.383	39.42
887.555	-22.02
887.726	-65.02
887.897	35.33
888.069	-19.97
888.24	-34.3
888.412	-34.3
888.583	-26.11
888.754	-24.06
888.926	-54.78
889.097	12.8
889.268	-58.88
889.44	8.7
889.611	-3.58
889.782	-5.63
889.953	-44.54
890.125	74.24
890.296	-69.12
890.467	14.85
890.638	-13.82
890.809	-19.97
890.98	-30.21
891.151	-9.73
891.323	8.7
891.494	16.9
891.665	14.85
891.836	-9.73
892.007	-26.11
892.178	-5.63
892.349	23.04
892.52	-50.69
892.691	-34.3
892.862	18.94
893.032	-38.4
893.203	35.33
893.374	-19.97
893.545	8.7
893.716	-124.41
893.887	-9.73
894.057	-30.21
894.228	27.14
894.399	12.8
894.57	4.61
894.74	-24.06
894.911	-22.02
895.082	-30.21
895.253	31.23
895.423	-22.02
895.594	39.42
895.764	-17.92
895.935	-7.68
896.106	-17.92
896.276	37.38
896.447	29.18
896.617	20.99
896.788	-15.87
896.958	10.75
897.129	14.85
897.299	-44.54
897.47	-28.16
897.64	-1.54
897.81	-38.4
897.981	-32.26
898.151	-19.97
898.322	25.09
898.492	31.23
898.662	12.8
898.832	18.94
899.003	55.81
899.173	49.66
899.343	-32.26
899.513	-56.83
