Data from USB4F104151__15__11-36-26-867.txt Node

Date: Fri Mar 14 11:36:26 EDT 2025
User: louis
Spectrometer: USB4F10415
Trigger mode: 4
Integration Time (sec): 2.000000E-2
Scans to average: 1
Electric dark correction enabled: true
Nonlinearity correction enabled: false
Boxcar width: 0
XAxis mode: Wavelengths
Number of Pixels in Spectrum: 3648
>>>>>Begin Spectral Data<<<<<
178.204	-57.86
178.424	-57.86
178.644	-57.86
178.864	-55.81
179.084	-94.72
179.304	-23.04
179.524	-88.57
179.744	5.63
179.964	50.69
180.184	-2.56
180.404	38.4
180.624	7.68
180.844	-2.56
181.064	22.02
181.283	9.73
181.503	-59.9
181.723	42.5
181.943	-10.75
182.163	42.5
182.383	-6.66
182.602	24.06
182.822	-6.66
183.042	24.06
183.262	-12.8
183.482	9.73
183.701	1.54
183.921	-29.18
184.141	-39.42
184.361	38.4
184.58	-39.42
184.8	32.26
185.02	-23.04
185.239	58.88
185.459	-25.09
185.679	5.63
185.898	95.74
186.118	19.97
186.338	3.58
186.557	58.88
186.777	-2.56
186.997	-4.61
187.216	-98.81
187.436	54.78
187.655	42.5
187.875	52.74
188.095	-4.61
188.314	36.35
188.534	30.21
188.753	-2.56
188.973	60.93
189.192	58.88
189.412	24.06
189.631	77.31
189.851	1.54
190.07	87.55
190.29	9.73
190.509	85.5
190.729	7.68
190.948	-59.9
191.168	62.98
191.387	24.06
191.607	34.3
191.826	-2.56
192.045	-8.7
192.265	-43.52
192.484	1.54
192.704	-18.94
192.923	58.88
193.142	34.3
193.362	-23.04
193.581	87.55
193.8	-18.94
194.02	58.88
194.239	32.26
194.458	46.59
194.678	15.87
194.897	42.5
195.116	-14.85
195.335	28.16
195.555	69.12
195.774	32.26
195.993	-64
196.212	-29.18
196.432	-6.66
196.651	-25.09
196.87	24.06
197.089	89.6
197.308	17.92
197.528	-4.61
197.747	-35.33
197.966	-23.04
198.185	5.63
198.404	26.11
198.623	-6.66
198.842	-31.23
199.062	46.59
199.281	30.21
199.5	26.11
199.719	1.54
199.938	69.12
200.157	83.45
200.376	9.73
200.595	52.74
200.814	22.02
201.033	9.73
201.252	-31.23
201.471	-33.28
201.69	40.45
201.909	69.12
202.128	26.11
202.347	9.73
202.566	5.63
202.785	-33.28
203.004	56.83
203.223	-37.38
203.442	-47.62
203.661	56.83
203.879	1.54
204.098	24.06
204.317	7.68
204.536	56.83
204.755	7.68
204.974	22.02
205.193	32.26
205.411	-12.8
205.63	5.63
205.849	46.59
206.068	-10.75
206.287	19.97
206.505	5.63
206.724	1.54
206.943	-14.85
207.162	13.82
207.381	-6.66
207.599	48.64
207.818	38.4
208.037	-14.85
208.255	5.63
208.474	40.45
208.693	52.74
208.911	79.36
209.13	-2.56
209.349	-16.9
209.567	-14.85
209.786	48.64
210.005	17.92
210.223	83.45
210.442	-53.76
210.661	-66.05
210.879	-10.75
211.098	1.54
211.316	-10.75
211.535	79.36
211.753	24.06
211.972	-10.75
212.191	40.45
212.409	28.16
212.628	-18.94
212.846	30.21
213.065	17.92
213.283	9.73
213.502	-57.86
213.72	22.02
213.938	-27.14
214.157	83.45
214.375	17.92
214.594	-39.42
214.812	-6.66
215.031	38.4
215.249	48.64
215.467	-29.18
215.686	-8.7
215.904	50.69
216.122	5.63
216.341	-6.66
216.559	5.63
216.778	17.92
216.996	17.92
217.214	-10.75
217.432	58.88
217.651	-0.51
217.869	99.84
218.087	-14.85
218.306	-23.04
218.524	15.87
218.742	-2.56
218.96	89.6
219.179	-43.52
219.397	26.11
219.615	75.26
219.833	62.98
220.051	-59.9
220.27	24.06
220.488	30.21
220.706	-4.61
220.924	-4.61
221.142	-35.33
221.36	-16.9
221.578	-2.56
221.796	24.06
222.015	30.21
222.233	32.26
222.451	105.98
222.669	-6.66
222.887	73.21
223.105	40.45
223.323	46.59
223.541	-8.7
223.759	-10.75
223.977	52.74
224.195	15.87
224.413	-14.85
224.631	22.02
224.849	-8.7
225.067	126.46
225.285	67.07
225.503	9.73
225.721	-59.9
225.939	-18.94
226.157	22.02
226.375	67.07
226.592	7.68
226.81	7.68
227.028	-14.85
227.246	32.26
227.464	-31.23
227.682	24.06
227.9	13.82
228.117	22.02
228.335	1.54
228.553	22.02
228.771	13.82
228.989	1.54
229.206	34.3
229.424	3.58
229.642	-20.99
229.86	-8.7
230.077	-23.04
230.295	87.55
230.513	34.3
230.731	-6.66
230.948	-68.09
231.166	56.83
231.384	42.5
231.601	52.74
231.819	22.02
232.037	32.26
232.254	19.97
232.472	13.82
232.689	75.26
232.907	7.68
233.125	26.11
233.342	-43.52
233.56	-33.28
233.777	13.82
233.995	46.59
234.213	-39.42
234.43	1.54
234.648	-74.24
234.865	-14.85
235.083	11.78
235.3	-47.62
235.518	-25.09
235.735	-2.56
235.953	46.59
236.17	32.26
236.388	-4.61
236.605	22.02
236.822	-6.66
237.04	1.54
237.257	17.92
237.475	58.88
237.692	-23.04
237.909	40.45
238.127	1.54
238.344	-70.14
238.562	48.64
238.779	22.02
238.996	-31.23
239.214	77.31
239.431	83.45
239.648	5.63
239.865	42.5
240.083	62.98
240.3	17.92
240.517	-4.61
240.735	30.21
240.952	11.78
241.169	81.41
241.386	-10.75
241.603	19.97
241.821	1.54
242.038	40.45
242.255	40.45
242.472	-74.24
242.689	26.11
242.907	62.98
243.124	-25.09
243.341	9.73
243.558	-49.66
243.775	-47.62
243.992	-12.8
244.209	13.82
244.426	67.07
244.643	9.73
244.86	-23.04
245.078	36.35
245.295	-23.04
245.512	50.69
245.729	-8.7
245.946	77.31
246.163	-47.62
246.38	-33.28
246.597	-55.81
246.814	-8.7
247.031	11.78
247.248	34.3
247.464	-4.61
247.681	38.4
247.898	42.5
248.115	81.41
248.332	-43.52
248.549	1.54
248.766	81.41
248.983	-35.33
249.2	-35.33
249.417	5.63
249.633	-4.61
249.85	36.35
250.067	22.02
250.284	-35.33
250.501	-68.09
250.717	36.35
250.934	32.26
251.151	36.35
251.368	17.92
251.585	28.16
251.801	26.11
252.018	-18.94
252.235	1.54
252.451	-61.95
252.668	67.07
252.885	40.45
253.102	32.26
253.318	34.3
253.535	-35.33
253.752	22.02
253.968	-2.56
254.185	-14.85
254.401	-45.57
254.618	22.02
254.835	26.11
255.051	11.78
255.268	118.27
255.484	-16.9
255.701	-20.99
255.917	50.69
256.134	7.68
256.351	-25.09
256.567	9.73
256.784	7.68
257	60.93
257.217	24.06
257.433	71.17
257.65	34.3
257.866	79.36
258.082	13.82
258.299	-68.09
258.515	-2.56
258.732	-25.09
258.948	5.63
259.165	-57.86
259.381	-0.51
259.597	-92.67
259.814	-16.9
260.03	-6.66
260.246	9.73
260.463	-6.66
260.679	-20.99
260.895	30.21
261.112	28.16
261.328	-43.52
261.544	-25.09
261.761	9.73
261.977	34.3
262.193	-23.04
262.409	13.82
262.626	40.45
262.842	81.41
263.058	9.73
263.274	-6.66
263.49	-45.57
263.707	36.35
263.923	22.02
264.139	-16.9
264.355	-4.61
264.571	69.12
264.787	-61.95
265.004	-25.09
265.22	-33.28
265.436	26.11
265.652	7.68
265.868	-16.9
266.084	7.68
266.3	3.58
266.516	-25.09
266.732	26.11
266.948	30.21
267.164	22.02
267.38	5.63
267.596	-31.23
267.812	30.21
268.028	15.87
268.244	1.54
268.46	-0.51
268.676	32.26
268.892	-12.8
269.108	-23.04
269.324	-18.94
269.54	11.78
269.756	58.88
269.972	-68.09
270.188	-16.9
270.403	60.93
270.619	40.45
270.835	65.02
271.051	-33.28
271.267	24.06
271.483	-10.75
271.698	-23.04
271.914	38.4
272.13	-23.04
272.346	34.3
272.562	-49.66
272.777	30.21
272.993	-39.42
273.209	1.54
273.425	17.92
273.64	13.82
273.856	40.45
274.072	34.3
274.287	-57.86
274.503	60.93
274.719	-25.09
274.934	24.06
275.15	24.06
275.366	3.58
275.581	-10.75
275.797	50.69
276.012	42.5
276.228	-4.61
276.444	26.11
276.659	-4.61
276.875	-47.62
277.09	26.11
277.306	26.11
277.521	7.68
277.737	26.11
277.952	26.11
278.168	15.87
278.383	75.26
278.599	22.02
278.814	81.41
279.03	58.88
279.245	26.11
279.461	1.54
279.676	58.88
279.892	-29.18
280.107	-27.14
280.322	-29.18
280.538	9.73
280.753	36.35
280.969	24.06
281.184	22.02
281.399	15.87
281.615	50.69
281.83	13.82
282.045	38.4
282.26	42.5
282.476	-33.28
282.691	62.98
282.906	-27.14
283.122	-80.38
283.337	1.54
283.552	87.55
283.767	-12.8
283.983	24.06
284.198	50.69
284.413	11.78
284.628	-8.7
284.843	7.68
285.058	-10.75
285.274	71.17
285.489	-20.99
285.704	81.41
285.919	-51.71
286.134	-29.18
286.349	-6.66
286.564	42.5
286.779	71.17
286.995	36.35
287.21	1.54
287.425	46.59
287.64	-29.18
287.855	38.4
288.07	-49.66
288.285	38.4
288.5	42.5
288.715	-16.9
288.93	-27.14
289.145	-16.9
289.36	58.88
289.575	-23.04
289.79	122.37
290.004	52.74
290.219	-10.75
290.434	22.02
290.649	62.98
290.864	-12.8
291.079	13.82
291.294	-59.9
291.509	13.82
291.724	-4.61
291.938	50.69
292.153	52.74
292.368	-2.56
292.583	5.63
292.798	22.02
293.012	11.78
293.227	30.21
293.442	71.17
293.657	77.31
293.871	81.41
294.086	60.93
294.301	79.36
294.516	-27.14
294.73	26.11
294.945	1.54
295.16	71.17
295.374	67.07
295.589	52.74
295.804	65.02
296.018	-0.51
296.233	30.21
296.447	50.69
296.662	-6.66
296.877	26.11
297.091	-23.04
297.306	54.78
297.52	9.73
297.735	50.69
297.949	34.3
298.164	67.07
298.378	9.73
298.593	5.63
298.807	-45.57
299.022	79.36
299.236	50.69
299.451	69.12
299.665	-16.9
299.88	38.4
300.094	11.78
300.309	32.26
300.523	58.88
300.737	30.21
300.952	-6.66
301.166	3.58
301.381	32.26
301.595	13.82
301.809	42.5
302.024	48.64
302.238	-6.66
302.452	46.59
302.667	-8.7
302.881	81.41
303.095	22.02
303.309	32.26
303.524	-49.66
303.738	-6.66
303.952	81.41
304.166	65.02
304.381	-12.8
304.595	-27.14
304.809	-8.7
305.023	44.54
305.237	-16.9
305.452	-39.42
305.666	30.21
305.88	32.26
306.094	71.17
306.308	1.54
306.522	28.16
306.736	26.11
306.95	1.54
307.164	40.45
307.379	-14.85
307.593	62.98
307.807	22.02
308.021	50.69
308.235	67.07
308.449	-2.56
308.663	1.54
308.877	65.02
309.091	9.73
309.305	-10.75
309.519	-16.9
309.733	-55.81
309.947	-23.04
310.161	56.83
310.374	9.73
310.588	11.78
310.802	22.02
311.016	-23.04
311.23	91.65
311.444	73.21
311.658	-41.47
311.872	62.98
312.085	-25.09
312.299	17.92
312.513	32.26
312.727	-6.66
312.941	24.06
313.154	9.73
313.368	30.21
313.582	36.35
313.796	48.64
314.009	122.37
314.223	-66.05
314.437	17.92
314.651	7.68
314.864	-0.51
315.078	7.68
315.292	54.78
315.505	-64
315.719	-14.85
315.933	-18.94
316.146	26.11
316.36	56.83
316.573	11.78
316.787	-23.04
317.001	-4.61
317.214	15.87
317.428	-2.56
317.641	-10.75
317.855	13.82
318.068	30.21
318.282	46.59
318.495	17.92
318.709	101.89
318.922	7.68
319.136	17.92
319.349	9.73
319.563	22.02
319.776	7.68
319.99	11.78
320.203	9.73
320.417	3.58
320.63	48.64
320.843	5.63
321.057	-14.85
321.27	-8.7
321.483	-45.57
321.697	30.21
321.91	-68.09
322.124	58.88
322.337	9.73
322.55	-2.56
322.763	36.35
322.977	13.82
323.19	-16.9
323.403	42.5
323.617	67.07
323.83	-37.38
324.043	34.3
324.256	32.26
324.469	-37.38
324.683	97.79
324.896	-16.9
325.109	17.92
325.322	-0.51
325.535	26.11
325.748	5.63
325.962	28.16
326.175	-23.04
326.388	36.35
326.601	9.73
326.814	40.45
327.027	-4.61
327.24	-16.9
327.453	56.83
327.666	24.06
327.879	65.02
328.092	-6.66
328.305	73.21
328.518	3.58
328.731	-45.57
328.944	9.73
329.157	9.73
329.37	1.54
329.583	-33.28
329.796	17.92
330.009	-33.28
330.222	17.92
330.435	-2.56
330.648	-37.38
330.861	75.26
331.073	-23.04
331.286	56.83
331.499	24.06
331.712	50.69
331.925	-14.85
332.138	58.88
332.35	79.36
332.563	15.87
332.776	-16.9
332.989	-47.62
333.202	11.78
333.414	30.21
333.627	1.54
333.84	46.59
334.053	-12.8
334.265	58.88
334.478	13.82
334.691	-4.61
334.903	-23.04
335.116	-53.76
335.329	54.78
335.541	-12.8
335.754	-18.94
335.966	22.02
336.179	-39.42
336.392	52.74
336.604	19.97
336.817	79.36
337.029	40.45
337.242	40.45
337.454	62.98
337.667	26.11
337.88	-2.56
338.092	-20.99
338.305	97.79
338.517	1.54
338.729	44.54
338.942	-14.85
339.154	-23.04
339.367	-49.66
339.579	1.54
339.792	17.92
340.004	24.06
340.217	-47.62
340.429	50.69
340.641	38.4
340.854	-6.66
341.066	-18.94
341.278	87.55
341.491	34.3
341.703	-25.09
341.915	-18.94
342.128	9.73
342.34	13.82
342.552	5.63
342.764	9.73
342.977	-27.14
343.189	116.22
343.401	52.74
343.613	-2.56
343.826	38.4
344.038	42.5
344.25	52.74
344.462	5.63
344.674	67.07
344.886	-33.28
345.099	89.6
345.311	67.07
345.523	13.82
345.735	-16.9
345.947	-8.7
346.159	-4.61
346.371	46.59
346.583	34.3
346.795	97.79
347.007	-35.33
347.219	81.41
347.431	91.65
347.643	-8.7
347.855	48.64
348.067	91.65
348.279	-8.7
348.491	22.02
348.703	7.68
348.915	5.63
349.127	38.4
349.339	36.35
349.551	-72.19
349.763	42.5
349.975	-33.28
350.187	65.02
350.399	22.02
350.61	26.11
350.822	22.02
351.034	-23.04
351.246	-27.14
351.458	17.92
351.669	15.87
351.881	-2.56
352.093	77.31
352.305	124.41
352.517	108.03
352.728	42.5
352.94	42.5
353.152	22.02
353.363	32.26
353.575	75.26
353.787	38.4
353.999	42.5
354.21	-6.66
354.422	1.54
354.633	22.02
354.845	65.02
355.057	-2.56
355.268	9.73
355.48	34.3
355.692	73.21
355.903	42.5
356.115	22.02
356.326	26.11
356.538	11.78
356.749	28.16
356.961	54.78
357.172	46.59
357.384	19.97
357.595	89.6
357.807	5.63
358.018	58.88
358.23	-33.28
358.441	42.5
358.653	13.82
358.864	-18.94
359.075	58.88
359.287	40.45
359.498	50.69
359.709	79.36
359.921	52.74
360.132	19.97
360.344	85.5
360.555	9.73
360.766	56.83
360.977	-25.09
361.189	71.17
361.4	34.3
361.611	73.21
361.823	89.6
362.034	36.35
362.245	-31.23
362.456	-0.51
362.667	22.02
362.879	46.59
363.09	71.17
363.301	50.69
363.512	42.5
363.723	-61.95
363.935	13.82
364.146	-2.56
364.357	-14.85
364.568	13.82
364.779	-31.23
364.99	-25.09
365.201	5.63
365.412	40.45
365.623	1.54
365.834	54.78
366.045	19.97
366.256	13.82
366.467	13.82
366.678	26.11
366.889	-14.85
367.1	9.73
367.311	52.74
367.522	36.35
367.733	54.78
367.944	40.45
368.155	-29.18
368.366	-8.7
368.577	50.69
368.788	24.06
368.999	-16.9
369.209	-10.75
369.42	116.22
369.631	95.74
369.842	24.06
370.053	-14.85
370.264	83.45
370.474	-8.7
370.685	56.83
370.896	85.5
371.107	-2.56
371.317	42.5
371.528	22.02
371.739	56.83
371.95	114.17
372.16	-4.61
372.371	-2.56
372.582	34.3
372.792	1.54
373.003	17.92
373.214	22.02
373.424	24.06
373.635	30.21
373.846	48.64
374.056	-16.9
374.267	46.59
374.477	26.11
374.688	-0.51
374.898	-59.9
375.109	-6.66
375.319	75.26
375.53	56.83
375.74	15.87
375.951	52.74
376.161	69.12
376.372	-39.42
376.582	26.11
376.793	-14.85
377.003	13.82
377.214	48.64
377.424	52.74
377.635	11.78
377.845	54.78
378.055	99.84
378.266	75.26
378.476	30.21
378.686	62.98
378.897	58.88
379.107	17.92
379.317	85.5
379.528	-39.42
379.738	-10.75
379.948	7.68
380.158	97.79
380.369	-43.52
380.579	77.31
380.789	46.59
380.999	5.63
381.21	17.92
381.42	56.83
381.63	1.54
381.84	-16.9
382.05	56.83
382.261	-8.7
382.471	-10.75
382.681	7.68
382.891	26.11
383.101	1.54
383.311	-12.8
383.521	60.93
383.731	73.21
383.941	50.69
384.151	30.21
384.361	60.93
384.571	-35.33
384.781	50.69
384.991	151.04
385.201	91.65
385.411	5.63
385.621	91.65
385.831	-27.14
386.041	56.83
386.251	17.92
386.461	-6.66
386.671	-8.7
386.881	140.8
387.091	11.78
387.301	97.79
387.511	-41.47
387.72	46.59
387.93	73.21
388.14	17.92
388.35	-16.9
388.56	30.21
388.769	67.07
388.979	79.36
389.189	9.73
389.399	46.59
389.609	36.35
389.818	77.31
390.028	50.69
390.238	-14.85
390.447	62.98
390.657	5.63
390.867	83.45
391.076	-18.94
391.286	-2.56
391.496	73.21
391.705	87.55
391.915	40.45
392.125	9.73
392.334	26.11
392.544	60.93
392.753	28.16
392.963	-35.33
393.172	73.21
393.382	73.21
393.591	52.74
393.801	130.56
394.01	87.55
394.22	34.3
394.429	108.03
394.639	67.07
394.848	73.21
395.058	-0.51
395.267	50.69
395.477	48.64
395.686	13.82
395.895	38.4
396.105	108.03
396.314	48.64
396.524	44.54
396.733	42.5
396.942	110.08
397.152	30.21
397.361	40.45
397.57	48.64
397.78	17.92
397.989	54.78
398.198	112.13
398.407	124.41
398.617	42.5
398.826	54.78
399.035	28.16
399.244	83.45
399.453	132.61
399.663	83.45
399.872	54.78
400.081	108.03
400.29	15.87
400.499	108.03
400.708	97.79
400.917	46.59
401.127	112.13
401.336	-10.75
401.545	142.85
401.754	30.21
401.963	77.31
402.172	120.32
402.381	60.93
402.59	146.94
402.799	124.41
403.008	56.83
403.217	89.6
403.426	97.79
403.635	73.21
403.844	99.84
404.053	138.75
404.262	71.17
404.471	116.22
404.68	179.71
404.888	136.7
405.097	116.22
405.306	91.65
405.515	157.18
405.724	126.46
405.933	165.37
406.142	126.46
406.35	134.65
406.559	167.42
406.768	187.9
406.977	222.72
407.185	218.62
407.394	173.57
407.603	192
407.812	198.14
408.02	218.62
408.229	265.72
408.438	226.81
408.646	173.57
408.855	214.52
409.064	247.29
409.272	230.91
409.481	261.63
409.69	308.73
409.898	296.44
410.107	280.06
410.315	292.35
410.524	230.91
410.733	304.64
410.941	306.68
411.15	386.55
411.358	325.12
411.567	292.35
411.775	312.83
411.984	468.47
412.192	366.07
412.401	441.85
412.609	337.4
412.818	454.14
413.026	351.74
413.234	491
413.443	562.68
413.651	523.77
413.86	513.53
414.068	603.64
414.276	572.92
414.485	568.82
414.693	622.07
414.901	703.99
415.11	634.36
415.318	648.69
415.526	755.19
415.734	663.03
415.943	714.23
416.151	837.11
416.359	781.81
416.567	783.86
416.776	816.63
416.984	890.35
417.192	898.55
417.4	904.69
417.608	984.56
417.817	972.27
418.025	923.12
418.233	1136.11
418.441	1050.1
418.649	1093.1
418.857	1222.13
419.065	1172.97
419.273	1263.08
419.481	1355.24
419.689	1361.39
419.897	1469.93
420.105	1365.48
420.313	1533.42
420.521	1574.38
420.729	1611.24
420.937	1615.34
421.145	1617.38
421.353	1680.87
421.561	1816.04
421.769	1826.28
421.977	1965.54
422.185	2014.69
422.393	2049.5
422.601	2135.52
422.809	2213.34
423.017	2035.17
423.224	2311.64
423.432	2385.37
423.64	2397.66
423.848	2635.22
424.056	2569.69
424.263	2680.28
424.471	2786.77
424.679	2819.54
424.887	3050.96
425.094	2966.99
425.302	3042.77
425.51	3149.26
425.718	3298.77
425.925	3266
426.133	3438.03
426.341	3610.06
426.548	3747.27
426.756	3896.77
426.964	3909.06
427.171	3986.88
427.379	4081.09
427.586	4177.34
427.794	4244.93
428.001	4486.59
428.209	4777.4
428.417	4742.58
428.624	4914.61
428.832	4894.13
429.039	4949.43
429.247	4957.62
429.454	5563.82
429.662	5715.37
429.869	5406.13
430.076	5709.22
430.284	5744.04
430.491	5791.14
430.699	6321.57
430.906	6098.34
431.114	6276.51
431.321	6561.18
431.528	6694.3
431.736	6993.3
431.943	7390.61
432.15	6999.45
432.358	7409.04
432.565	7646.6
432.772	7593.36
432.979	8078.72
433.187	8228.23
433.394	8160.64
433.601	8977.78
433.808	8760.7
434.016	8568.19
434.223	9002.36
434.43	9756.01
434.637	9575.79
434.844	10040.68
435.052	10225
435.259	10048.87
435.466	10407.27
435.673	10253.67
435.88	10831.19
436.087	11255.12
436.294	11380.05
436.501	11076.95
436.708	11433.3
436.915	11631.95
437.122	12326.21
437.329	12397.89
437.537	12754.24
437.743	12860.73
437.95	12756.29
438.157	13425.97
438.364	13827.37
438.571	13788.46
438.778	13980.97
438.985	15164.7
439.192	14664.99
439.399	14929.18
439.606	14998.81
439.813	15447.32
440.02	16573.7
440.227	16235.78
440.433	15934.73
440.64	16624.9
440.847	16530.69
441.054	16854.27
441.261	17935.6
441.467	17966.32
441.674	18304.23
441.881	18830.56
442.088	18785.51
442.294	18558.18
442.501	19215.58
442.708	19166.43
442.914	20255.95
443.121	21030.08
443.328	20446.41
443.534	22115.5
443.741	21279.93
443.948	21058.75
444.154	22623.4
444.361	22373.55
444.568	22537.38
444.774	22613.16
444.981	23127.2
445.187	23809.17
445.394	24802.44
445.6	24245.39
445.807	26719.34
446.013	25386.11
446.22	26045.55
446.426	26866.79
446.633	27372.64
446.839	28089.43
447.046	26559.59
447.252	28492.88
447.459	28302.42
447.665	28390.48
447.871	29436.99
448.078	30921.77
448.284	29310.02
448.491	30147.64
448.697	31507.49
448.903	31839.26
449.11	32017.43
449.316	31233.06
449.522	31925.27
449.728	32625.68
449.935	33258.5
450.141	32834.57
450.347	33766.4
450.553	32668.69
450.76	33213.45
450.966	34083.83
451.172	33860.6
451.378	34753.52
451.584	33866.75
451.791	34585.58
451.997	34657.26
452.203	35285.99
452.409	35314.66
452.615	34888.68
452.821	33858.56
453.027	33483.78
453.233	35011.56
453.44	33600.51
453.646	34083.83
453.852	34487.28
454.058	35318.76
454.264	33745.92
454.47	34307.06
454.676	33754.11
454.882	34446.32
455.088	31849.5
455.294	32359.44
455.5	32787.47
455.705	33006.6
455.911	31587.36
456.117	31071.27
456.323	30837.8
456.529	29170.75
456.735	30508.08
456.941	29580.35
457.147	29084.74
457.352	28222.55
457.558	28236.88
457.764	28058.71
457.97	27425.89
458.176	27165.79
458.381	26612.84
458.587	25320.57
458.793	25433.21
458.999	24239.25
459.204	25947.25
459.41	25291.9
459.616	23796.88
459.821	23602.33
460.027	23129.25
460.233	22979.75
460.438	21998.77
460.644	21904.56
460.85	21120.19
461.055	20858.05
461.261	20518.09
461.466	19096.8
461.672	18572.52
461.878	20026.57
462.083	18607.33
462.289	18509.03
462.494	17902.83
462.7	17163.51
462.905	16643.33
463.111	17497.33
463.316	17581.3
463.522	16905.47
463.727	17044.73
463.932	17087.74
464.138	16891.13
464.343	16891.13
464.549	16293.13
464.754	16844.03
464.959	16803.07
465.165	16878.85
465.37	15947.02
465.575	15557.91
465.781	16039.18
465.986	16211.21
466.191	15586.58
466.397	15367.45
466.602	14712.1
466.807	15105.31
467.012	15306.01
467.218	14996.76
467.423	14980.38
467.628	15170.84
467.833	15662.35
468.038	15187.22
468.244	14726.43
468.449	15146.26
468.654	14787.87
468.859	14488.87
469.064	14587.17
469.269	14124.33
469.474	14042.41
469.679	14490.91
469.885	13784.37
470.09	14093.61
470.295	14054.7
470.5	13659.44
470.705	13595.95
470.91	13628.72
471.115	13473.07
471.32	13522.23
471.525	13497.65
471.73	13116.73
471.935	13110.58
472.139	12758.33
472.344	12862.78
472.549	12651.84
472.754	12371.27
472.959	11978.06
473.164	11863.37
473.369	11892.04
473.574	12275.01
473.778	12023.11
473.983	11910.47
474.188	11967.82
474.393	11629.9
474.598	11523.41
474.802	11355.47
475.007	11138.39
475.212	11068.76
475.417	11017.56
475.621	10868.06
475.826	11003.22
476.031	10771.8
476.235	10777.95
476.44	10677.6
476.645	10511.71
476.849	10530.14
477.054	10339.68
477.259	10251.62
477.463	10132.84
477.668	9901.42
477.872	10124.65
478.077	9831.79
478.282	9827.69
478.486	9676.14
478.691	9534.83
478.895	9526.64
479.1	9594.22
479.304	9512.3
479.509	9106.81
479.713	9338.23
479.918	9198.96
480.122	9065.85
480.326	9207.16
480.531	9110.9
480.735	8910.2
480.94	9074.04
481.144	9074.04
481.348	8785.27
481.553	8983.93
481.757	8727.93
481.961	8824.19
482.166	8961.4
482.37	8912.25
482.574	8707.45
482.778	8789.37
482.983	8772.99
483.187	8930.68
483.391	8981.88
483.595	8732.03
483.8	8723.83
484.004	8777.08
484.208	8813.95
484.412	8611.2
484.616	8650.11
484.821	8797.56
485.025	8451.46
485.229	8920.44
485.433	8813.95
485.637	8699.26
485.841	8631.68
486.045	8637.82
486.249	8914.3
486.453	8686.97
486.657	8979.83
486.861	8646.01
487.065	8641.92
487.269	8758.65
487.473	8717.69
487.677	8701.31
487.881	8701.31
488.085	8701.31
488.289	8713.6
488.493	8754.55
488.697	8914.3
488.901	8830.33
489.105	8658.3
489.309	8783.23
489.512	8770.94
489.716	8607.1
489.92	8811.9
490.124	8717.69
490.328	8959.35
490.531	8957.3
490.735	9002.36
490.939	9028.98
491.143	8992.12
491.346	8983.93
491.55	9033.08
491.754	9104.76
491.958	9094.52
492.161	9239.92
492.365	9229.68
492.569	9237.88
492.772	9315.7
492.976	9280.88
493.18	9305.46
493.383	9557.36
493.587	9426.29
493.79	9719.15
493.994	9532.78
494.197	9428.34
494.401	9868.65
494.605	9721.2
494.808	9909.61
495.012	9790.83
495.215	9837.93
495.419	9948.52
495.622	10024.3
495.825	10208.61
496.029	10077.54
496.232	10157.41
496.436	10327.39
496.639	10501.47
496.843	10356.07
497.046	10706.27
497.249	10812.76
497.453	10925.4
497.656	11001.18
497.859	10982.74
498.063	10982.74
498.266	11257.17
498.469	11136.34
498.673	11322.71
498.876	11337.04
499.079	11730.25
499.282	11552.08
499.485	11820.36
499.689	11988.3
499.892	12256.58
500.095	12352.84
500.298	12621.12
500.501	12455.23
500.705	12606.78
500.908	12803.39
501.111	12729.66
501.314	13231.41
501.517	12999.99
501.72	13387.06
501.923	13100.34
502.126	13671.73
502.329	13894.96
502.532	14036.27
502.735	13878.57
502.938	14208.3
503.141	14331.17
503.344	14476.58
503.547	14492.96
503.75	14777.63
503.953	15103.26
504.156	14894.36
504.359	15248.66
504.562	15195.42
504.765	15570.19
504.968	15682.83
505.17	16119.05
505.373	16053.52
505.576	16278.79
505.779	16336.13
505.982	16596.23
506.185	16540.93
506.387	16784.64
506.59	17081.6
506.793	17276.15
506.996	17007.87
507.198	17628.4
507.401	17505.52
507.604	17753.33
507.807	18255.08
508.009	18472.17
508.212	18459.88
508.415	18451.69
508.617	18828.51
508.82	18754.79
509.022	18748.64
509.225	19264.73
509.428	19520.73
509.63	19680.47
509.833	19637.46
510.035	20096.21
510.238	19840.21
510.44	20399.3
510.643	20450.5
510.845	20683.97
511.048	20436.17
511.25	20972.74
511.453	21173.44
511.655	21865.65
511.858	21413.05
512.06	21720.24
512.262	21900.47
512.465	21877.94
512.667	22287.53
512.87	22521
513.072	22269.1
513.274	22918.31
513.477	23137.44
513.679	23327.9
513.881	23696.53
514.084	23407.77
514.286	23749.78
514.488	23882.9
514.69	24646.79
514.893	24673.42
515.095	24763.53
515.297	24757.38
515.499	25023.62
515.701	25418.88
515.904	25347.2
516.106	25500.79
516.308	26145.91
516.51	25851
516.712	26176.62
516.914	26516.59
517.116	27024.48
517.318	27018.34
517.52	26975.33
517.722	26999.91
517.925	27317.34
518.127	27745.37
518.329	27788.38
518.531	27679.83
518.733	28181.59
518.935	28339.28
519.136	28507.21
519.338	28914.76
519.54	29039.68
519.742	29215.81
519.944	29076.55
520.146	29570.11
520.348	29801.53
520.55	29576.25
520.752	29961.27
520.954	30708.78
521.155	30585.9
521.357	30694.44
521.559	30958.63
521.761	31390.75
521.963	31210.53
522.164	31515.68
522.366	31466.53
522.568	31812.63
522.77	31931.42
522.971	32461.84
523.173	32422.93
523.375	32437.27
523.576	32009.24
523.778	32338.96
523.98	33082.38
524.181	32928.78
524.383	33059.85
524.584	33569.79
524.786	33424.39
524.988	33522.69
525.189	33922.04
525.391	33815.55
525.592	34644.98
525.794	34171.89
525.995	34175.99
526.197	34325.49
526.398	34221.05
526.6	34505.71
526.801	34604.02
527.003	34896.88
527.204	34898.92
527.406	35331.04
527.607	35079.14
527.808	35560.42
528.01	35075.05
528.211	35146.73
528.412	35884
528.614	35695.58
528.815	36094.94
529.016	35896.28
529.218	35707.87
529.419	36060.12
529.62	36088.79
529.822	36013.02
530.023	36072.41
530.224	35939.29
530.425	36002.78
530.626	36121.56
530.828	36133.85
531.029	36848.59
531.23	36211.67
531.431	36430.8
531.632	36395.99
531.833	36537.3
532.035	36453.33
532.236	36312.02
532.437	36871.12
532.638	36303.83
532.839	36727.76
533.04	36944.84
533.241	36205.53
533.442	37102.54
533.643	36561.87
533.844	36436.95
534.045	36936.65
534.246	36711.38
534.447	36971.47
534.648	36641.74
534.849	37114.83
535.05	36760.53
535.251	36836.3
535.451	36387.8
535.652	36897.74
535.853	36891.6
536.054	37342.15
536.255	36801.49
536.456	36719.57
536.657	37135.31
536.857	37116.87
537.058	36588.5
537.259	36897.74
537.46	36551.63
537.66	36510.67
537.861	36555.73
538.062	36674.51
538.263	37082.06
538.463	36393.94
538.664	36750.29
538.865	36735.95
539.065	36996.04
539.266	36346.84
539.466	36608.98
539.667	36504.53
539.868	36787.15
540.068	36506.58
540.269	36893.65
540.469	36565.97
540.67	36758.48
540.87	36584.4
541.071	36746.19
541.271	36803.53
541.472	36889.55
541.672	36439
541.873	36457.43
542.073	36043.74
542.274	36905.93
542.474	36117.46
542.675	36426.71
542.875	36688.85
543.075	36342.74
543.276	35685.34
543.476	36414.42
543.676	36391.89
543.877	36496.34
544.077	36289.49
544.277	36369.37
544.478	36752.34
544.678	36600.79
544.878	36271.06
545.078	36525.01
545.279	36410.32
545.479	36383.7
545.679	36279.25
545.879	36367.32
546.079	36152.28
546.28	36223.96
546.48	35662.82
546.68	36355.03
546.88	36293.59
547.08	36506.58
547.28	36004.83
547.48	36127.7
547.68	36172.76
547.88	35914.72
548.081	36152.28
548.281	36099.03
548.481	35826.65
548.681	36297.69
548.881	36015.07
549.081	35652.58
549.28	35920.86
549.48	36074.46
549.68	36029.4
549.88	36754.38
550.08	35806.17
550.28	36064.22
550.48	35998.68
550.68	36170.71
550.88	35904.48
551.08	35982.3
551.279	35916.76
551.479	35513.31
551.679	36101.08
551.879	35720.16
552.079	36115.42
552.278	35619.81
552.478	36062.17
552.678	35744.73
552.878	35832.8
553.077	35953.63
553.277	35345.38
553.477	36072.41
553.676	35462.11
553.876	35462.11
554.076	35664.86
554.275	35673.06
554.475	35173.35
554.674	35703.78
554.874	35740.64
555.074	35584.99
555.273	35668.96
555.473	35879.9
555.672	35529.7
555.872	35388.39
556.071	35277.8
556.271	35247.08
556.47	35118.06
556.67	35066.86
556.869	35001.32
557.068	35646.43
557.268	35351.52
557.467	35232.74
557.667	34952.17
557.866	35050.47
558.065	35021.8
558.265	34483.19
558.464	34974.7
558.663	35113.96
558.863	34958.31
559.062	35111.91
559.261	34657.26
559.461	34960.36
559.66	34311.16
559.859	34968.55
560.058	34706.41
560.258	34993.13
560.457	34302.96
560.656	34505.71
560.855	34554.86
561.054	34567.15
561.253	34145.27
561.453	34032.63
561.652	34511.86
561.851	34350.07
562.05	34175.99
562.249	34065.4
562.448	34157.56
562.647	34270.2
562.846	34262.01
563.045	33905.66
563.244	33688.57
563.443	33903.61
563.642	33606.66
563.841	34102.26
564.04	33530.88
564.239	33741.82
564.438	33346.56
564.637	33516.54
564.836	33514.5
565.035	33035.27
565.234	33674.24
565.432	33414.15
565.631	33094.66
565.83	33448.96
566.029	33252.36
566.228	33057.8
566.427	32828.43
566.625	32957.45
566.824	32484.37
567.023	32943.11
567.222	32316.43
567.42	33061.9
567.619	32623.63
567.818	32615.44
568.016	32705.55
568.215	32701.45
568.414	32465.94
568.612	33078.28
568.811	32500.75
569.01	32338.96
569.208	31857.69
569.407	32388.11
569.605	31937.56
569.804	32298
570.002	31908.89
570.201	32244.76
570.4	31790.11
570.598	31933.46
570.797	31507.49
570.995	31669.28
571.193	31300.64
571.392	31874.07
571.59	31755.29
571.789	31659.04
571.987	31425.57
572.186	31505.44
572.384	31405.09
572.582	31507.49
572.781	31114.28
572.979	31099.94
573.177	31001.64
573.376	31169.57
573.574	30606.38
573.772	31212.58
573.971	30641.2
574.169	31218.72
574.367	30460.98
574.565	30850.09
574.763	30563.37
574.962	30704.68
575.16	29946.94
575.358	30491.69
575.556	29953.08
575.754	30426.16
575.952	30039.09
576.151	30338.1
576.349	29957.17
576.547	29951.03
576.745	30381.1
576.943	30084.15
577.141	29924.41
577.339	29918.26
577.537	29697.08
577.735	29543.49
577.933	29391.94
578.131	29529.15
578.329	29434.94
578.527	29277.25
578.725	29228.1
578.923	29467.71
579.121	29078.6
579.319	29293.63
579.516	29051.97
579.714	29019.21
579.912	28953.67
580.11	28906.57
580.308	29002.82
580.506	28388.43
580.704	28228.69
580.901	28662.86
581.099	28669
581.297	28728.39
581.495	28183.63
581.692	28773.45
581.89	28144.72
582.088	28494.93
582.285	28052.56
582.483	28318.8
582.681	28306.51
582.878	27808.86
583.076	27618.39
583.274	28015.7
583.471	27636.83
583.669	27767.9
583.866	27403.36
584.064	27716.7
584.262	27106.4
584.459	27583.58
584.657	27399.26
584.854	27458.65
585.052	27128.93
585.249	27391.07
585.447	26901.61
585.644	26661.99
585.841	27239.52
586.039	27200.61
586.236	26674.28
586.434	27032.68
586.631	26807.4
586.828	26449
587.026	26455.15
587.223	26498.16
587.42	26573.93
587.618	26354.8
587.815	26121.33
588.012	26297.45
588.21	26002.55
588.407	26385.52
588.604	25975.92
588.801	25816.18
588.999	26033.27
589.196	25918.58
589.393	25992.31
589.59	25736.31
589.787	25492.6
589.984	25631.86
590.182	25400.44
590.379	25689.21
590.576	25121.92
590.773	25341.05
590.97	24939.65
591.167	25244.8
591.364	24927.36
591.561	25232.51
591.758	24814.73
591.955	24845.44
592.152	25205.89
592.349	25011.33
592.546	24908.93
592.743	24800.39
592.94	24159.38
593.137	24646.79
593.334	24591.5
593.531	24134.8
593.727	24472.71
593.924	24474.76
594.121	23776.41
594.318	24218.77
594.515	24005.78
594.712	24151.18
594.908	23753.88
595.105	23909.52
595.302	23717.01
595.499	23839.89
595.696	23506.07
595.892	23602.33
596.089	23671.96
596.286	23420.06
596.482	23501.98
596.679	23078.05
596.876	23418.01
597.072	22908.07
597.269	23219.36
597.466	23198.88
597.662	22965.41
597.859	22822.05
598.055	23180.45
598.252	22738.09
598.448	22850.72
598.645	22729.89
598.841	22340.78
599.038	22260.91
599.234	22434.99
599.431	22146.22
599.627	22127.79
599.824	22178.99
600.02	22054.06
600.217	22232.24
600.413	22213.81
600.609	21812.4
600.806	22041.78
601.002	21841.07
601.198	21640.37
601.395	21611.7
601.591	21572.79
601.787	21605.56
601.984	21202.11
602.18	21787.83
602.376	21374.14
602.572	21392.57
602.769	21195.96
602.965	20978.88
603.161	21378.23
603.357	21077.18
603.553	20862.15
603.75	20812.99
603.946	20618.44
604.142	21028.03
604.338	20626.63
604.534	21013.7
604.73	20616.39
604.926	20612.29
605.122	20663.49
605.318	20532.42
605.514	20581.57
605.71	20126.92
605.906	20301
606.102	20372.68
606.298	20329.67
606.494	20059.34
606.69	20135.12
606.886	20206.8
607.082	20059.34
607.278	20116.69
607.474	19862.74
607.67	20045.01
607.866	19825.87
608.062	20098.25
608.257	19672.28
608.453	19789.01
608.649	19682.52
608.845	19635.41
609.041	19522.77
609.236	19623.12
609.432	19541.21
609.628	19645.65
609.824	19666.13
610.019	19215.58
610.215	19369.18
610.411	19299.55
610.606	19438.81
610.802	19295.45
610.998	19137.76
611.193	19301.59
611.389	18980.06
611.584	19369.18
611.78	18842.85
611.976	19148
612.171	19053.79
612.367	18775.27
612.562	18916.58
612.758	18715.87
612.953	18468.07
613.149	18803.94
613.344	18711.78
613.539	18926.82
613.735	18822.37
613.93	18636
614.126	18746.59
614.321	18781.41
614.517	18617.57
614.712	18447.59
614.907	18459.88
615.103	18619.62
615.298	18359.53
615.493	18355.43
615.688	18314.47
615.884	18607.33
616.079	18011.37
616.274	18382.06
616.47	18070.76
616.665	18207.98
616.86	18162.92
617.055	18173.16
617.25	18033.9
617.445	18287.85
617.641	17728.75
617.836	18062.57
618.031	17876.21
618.226	17851.63
618.421	17589.49
618.616	17929.45
618.811	17444.09
619.006	18017.52
619.201	17462.52
619.396	17618.16
619.591	17437.94
619.786	17470.71
619.981	17128.7
620.176	17439.99
620.371	16981.24
620.566	17292.54
620.761	16966.91
620.956	17272.06
621.151	16717.06
621.346	17102.08
621.541	16557.32
621.735	16868.61
621.93	16616.71
622.125	16641.28
622.32	16309.51
622.515	16559.36
622.709	16274.7
622.904	15975.69
623.099	16246.02
623.294	16319.75
623.488	15842.57
623.683	15928.59
623.878	15770.9
624.072	15881.49
624.267	15734.03
624.462	15590.67
624.656	15383.83
624.851	15498.52
625.046	15451.41
625.24	15115.55
625.435	15172.89
625.629	14908.7
625.824	14783.77
626.018	15103.26
626.213	14742.82
626.407	15009.05
626.602	14525.73
626.796	14642.46
626.991	14470.44
627.185	14593.31
627.38	14529.83
627.574	14320.93
627.768	14277.93
627.963	14105.9
628.157	13780.27
628.352	14048.55
628.546	13708.59
628.74	13882.67
628.935	13647.15
629.129	13673.78
629.323	13456.69
629.517	13581.62
629.712	13278.52
629.906	13378.87
630.1	12963.13
630.294	13286.71
630.489	13178.17
630.683	13360.44
630.877	12877.12
631.071	13010.23
631.265	12784.96
631.459	12991.8
631.653	12813.63
631.848	12623.17
632.042	12432.71
632.236	12766.53
632.43	12397.89
632.624	12488
632.818	12311.88
633.012	12401.99
633.206	12420.42
633.4	12119.37
633.594	12260.68
633.788	12182.85
633.982	12205.38
634.176	12000.58
634.369	11748.68
634.563	11818.32
634.757	11959.63
634.951	11803.98
635.145	11824.46
635.339	11416.91
635.533	11744.59
635.726	11388.24
635.92	11439.44
636.114	11398.48
636.308	11201.88
636.501	11201.88
636.695	11134.29
636.889	11312.47
637.083	11181.4
637.276	10904.92
637.47	11113.81
637.664	11031.9
637.857	10935.64
638.051	10880.35
638.244	10730.84
638.438	10708.32
638.632	10431.84
638.825	10648.93
639.019	10571.1
639.212	10499.42
639.406	10468.7
639.599	10368.35
639.793	10339.68
639.986	10268
640.18	10159.46
640.373	10161.51
640.567	10061.16
640.76	10003.82
640.954	9940.33
641.147	9831.79
641.34	9950.57
641.534	9913.7
641.727	9655.66
641.92	9839.98
642.114	9928.04
642.307	9684.33
642.5	9547.12
642.694	9586.03
642.887	9313.65
643.08	9618.8
643.273	9354.61
643.467	9434.48
643.66	9330.03
643.853	9241.97
644.046	9166.2
644.239	9082.23
644.432	9119.09
644.626	9127.28
644.819	9033.08
645.012	9098.61
645.205	9127.28
645.398	8719.74
645.591	8709.5
645.784	8899.96
645.977	8756.6
646.17	8693.12
646.363	8543.61
646.556	8605.05
646.749	8600.96
646.942	8691.07
647.135	8490.37
647.328	8566.14
647.521	8488.32
647.714	8336.77
647.907	8217.99
648.099	8316.29
648.292	8179.08
648.485	8121.73
648.678	8158.6
648.871	8344.96
649.064	8027.53
649.256	8269.19
649.449	8093.06
649.642	7970.18
649.835	7800.2
650.027	7853.45
650.22	7734.67
650.413	7701.9
650.605	7746.95
650.798	7812.49
650.991	7632.27
651.183	7642.51
651.376	7452.05
651.568	7460.24
651.761	7486.86
651.954	7439.76
652.146	7519.63
652.339	7345.55
652.531	7273.87
652.724	7253.39
652.916	7302.54
653.109	7216.53
653.301	7263.63
653.494	7169.43
653.686	7120.28
653.879	7052.69
654.071	7046.55
654.263	6878.62
654.456	7044.5
654.648	6940.05
654.84	6862.23
655.033	6870.42
655.225	6825.37
655.417	6739.35
655.61	6708.63
655.802	6808.98
655.994	6823.32
656.186	6831.51
656.379	6749.59
656.571	6473.12
656.763	6526.36
656.955	6630.81
657.148	6571.42
657.34	6473.12
657.532	6383.01
657.724	6350.24
657.916	6376.86
658.108	6413.73
658.3	6235.55
658.492	6233.5
658.684	6204.83
658.876	6376.86
659.068	6219.17
659.26	6186.4
659.452	6133.15
659.644	5997.99
659.836	6098.34
660.028	6139.3
660.22	5952.93
660.412	5848.49
660.604	5930.41
660.796	6038.95
660.988	5891.49
661.18	5891.49
661.372	5942.69
661.563	5916.07
661.755	5727.66
661.947	5635.5
662.139	5795.24
662.331	5619.11
662.522	5731.75
662.714	5682.6
662.906	5594.54
663.097	5557.68
663.289	5629.35
663.481	5301.68
663.673	5504.43
663.864	5440.94
664.056	5359.02
664.247	5318.06
664.439	5234.1
664.631	5375.41
664.822	5215.66
665.014	5322.16
665.205	5320.11
665.397	5195.18
665.588	5373.36
665.78	5213.62
665.971	5037.49
666.163	5057.97
666.354	5094.83
666.546	5209.52
666.737	4931
666.929	5146.03
667.12	5217.71
667.311	5010.87
667.503	4851.13
667.694	4959.67
667.885	4824.5
668.077	4758.97
668.268	4900.28
668.459	4976.05
668.651	4892.09
668.842	4853.17
669.033	4871.61
669.224	4658.62
669.416	4797.88
669.607	4621.75
669.798	4832.69
669.989	4804.02
670.18	4689.34
670.371	4693.43
670.563	4769.21
670.754	4535.74
670.945	4572.6
671.136	4531.64
671.327	4627.9
671.518	4617.66
671.709	4543.93
671.9	4562.36
672.091	4332.99
672.282	4494.78
672.473	4390.33
672.664	4556.22
672.855	4435.39
673.046	4332.99
673.237	4425.15
673.428	4378.05
673.619	4457.92
673.809	4267.45
674	4361.66
674.191	4177.34
674.382	4122.05
674.573	4269.5
674.764	4173.25
674.954	4238.78
675.145	4228.54
675.336	4255.17
675.527	4294.08
675.717	4277.69
675.908	4267.45
676.099	4060.61
676.289	4195.78
676.48	4185.54
676.671	4152.77
676.861	4154.82
677.052	4111.81
677.243	4058.56
677.433	3925.44
677.624	4013.51
677.814	4044.23
678.005	4015.55
678.195	4093.38
678.386	3970.5
678.576	3890.63
678.767	4007.36
678.957	4050.37
679.148	3806.66
679.338	3956.16
679.529	4054.47
679.719	3954.12
679.909	3986.88
680.1	3970.5
680.29	3847.62
680.481	3890.63
680.671	3990.98
680.861	3857.86
681.052	3888.58
681.242	3933.64
681.432	3872.2
681.622	3853.77
681.813	3954.12
682.003	3685.83
682.193	3794.37
682.383	3802.57
682.573	3855.81
682.764	3894.72
682.954	3943.88
683.144	3755.46
683.334	3718.6
683.524	3788.23
683.714	3810.76
683.904	3661.26
684.094	3634.63
684.284	3671.5
684.474	3792.33
684.664	3624.39
684.854	3636.68
685.044	3603.91
685.234	3603.91
685.424	3587.53
685.614	3614.15
685.804	3575.24
685.994	3634.63
686.184	3821
686.374	3556.81
686.564	3603.91
686.753	3610.06
686.943	3540.43
687.133	3474.89
687.323	3499.47
687.513	3505.61
687.702	3474.89
687.892	3397.07
688.082	3470.8
688.272	3454.41
688.461	3343.82
688.651	3392.97
688.841	3368.4
689.03	3364.3
689.22	3300.81
689.41	3245.52
689.599	3243.47
689.789	3405.26
689.979	3100.11
690.168	3266
690.358	3257.81
690.547	3083.73
690.737	3200.46
690.926	3200.46
691.116	2969.04
691.305	3081.68
691.495	3046.87
691.684	3057.11
691.874	2966.99
692.063	3044.82
692.252	3042.77
692.442	3098.06
692.631	2977.23
692.82	2966.99
693.01	2991.57
693.199	2919.89
693.388	2926.04
693.578	2856.4
693.767	2926.04
693.956	2958.8
694.146	2858.45
694.335	2901.46
694.524	2776.53
694.713	2936.28
694.902	2745.81
695.092	2932.18
695.281	2727.38
695.47	2745.81
695.659	2737.62
695.848	2680.28
696.037	2719.19
696.226	2659.8
696.415	2610.65
696.604	2594.26
696.793	2684.38
696.982	2655.7
697.171	2510.3
697.36	2645.46
697.549	2506.2
697.738	2700.76
697.927	2541.02
698.116	2651.61
698.305	2532.83
698.494	2518.49
698.683	2584.02
698.872	2629.08
699.061	2442.71
699.25	2457.05
699.438	2637.27
699.627	2530.78
699.816	2504.15
700.005	2405.85
700.193	2444.76
700.382	2528.73
700.571	2336.22
700.76	2506.2
700.948	2442.71
701.137	2491.87
701.326	2407.9
701.514	2391.52
701.703	2309.6
701.892	2354.65
702.08	2452.95
702.269	2514.39
702.457	2450.91
702.646	2346.46
702.834	2481.63
703.023	2305.5
703.212	2397.66
703.4	2475.48
703.589	2280.93
703.777	2430.43
703.965	2330.08
704.154	2323.93
704.342	2252.25
704.531	2352.6
704.719	2430.43
704.907	2211.29
705.096	2358.75
705.284	2309.6
705.472	2274.78
705.661	2377.18
705.849	2315.74
706.037	2340.32
706.226	2420.19
706.414	2352.6
706.602	2373.08
706.79	2332.12
706.979	2196.96
707.167	2323.93
707.355	2321.88
707.543	2330.08
707.731	2266.59
707.919	2389.47
708.107	2377.18
708.296	2342.36
708.484	2250.21
708.672	2268.64
708.86	2272.73
709.048	2199.01
709.236	2233.82
709.424	2336.22
709.612	2311.64
709.8	2194.91
709.988	2176.48
710.176	2348.51
710.364	2315.74
710.551	2340.32
710.739	2336.22
710.927	2242.01
711.115	2313.69
711.303	2325.98
711.491	2330.08
711.679	2219.49
711.866	2209.25
712.054	2186.72
712.242	2301.4
712.43	2336.22
712.617	2293.21
712.805	2303.45
712.993	2368.99
713.181	2289.12
713.368	2332.12
713.556	2311.64
713.744	2242.01
713.931	2325.98
714.119	2266.59
714.306	2336.22
714.494	2377.18
714.682	2211.29
714.869	2231.77
715.057	2246.11
715.244	2221.53
715.432	2325.98
715.619	2340.32
715.807	2321.88
715.994	2297.31
716.182	2397.66
716.369	2401.76
716.556	2317.79
716.744	2229.73
716.931	2389.47
717.119	2385.37
717.306	2242.01
717.493	2389.47
717.681	2334.17
717.868	2282.97
718.055	2426.33
718.242	2358.75
718.43	2364.89
718.617	2455
718.804	2432.47
718.991	2473.43
719.179	2391.52
719.366	2344.41
719.553	2344.41
719.74	2299.36
719.927	2526.68
720.114	2393.56
720.301	2387.42
720.488	2309.6
720.676	2442.71
720.863	2364.89
721.05	2500.06
721.237	2422.24
721.424	2465.24
721.611	2422.24
721.798	2401.76
721.985	2332.12
722.172	2389.47
722.358	2467.29
722.545	2405.85
722.732	2397.66
722.919	2516.44
723.106	2508.25
723.293	2377.18
723.48	2565.59
723.667	2455
723.853	2405.85
724.04	2524.63
724.227	2502.11
724.414	2426.33
724.6	2430.43
724.787	2524.63
724.974	2450.91
725.161	2465.24
725.347	2430.43
725.534	2463.19
725.72	2512.35
725.907	2426.33
726.094	2405.85
726.28	2510.3
726.467	2444.76
726.653	2414.04
726.84	2547.16
727.027	2477.53
727.213	2475.48
727.4	2450.91
727.586	2459.1
727.773	2469.34
727.959	2465.24
728.145	2565.59
728.332	2432.47
728.518	2512.35
728.705	2534.87
728.891	2409.95
729.077	2495.96
729.264	2526.68
729.45	2477.53
729.636	2530.78
729.823	2471.39
730.009	2452.95
730.195	2475.48
730.382	2606.55
730.568	2455
730.754	2690.52
730.94	2575.83
731.126	2573.78
731.313	2534.87
731.499	2545.11
731.685	2528.73
731.871	2500.06
732.057	2479.58
732.243	2590.17
732.429	2516.44
732.615	2584.02
732.801	2471.39
732.987	2424.28
733.173	2489.82
733.359	2553.31
733.545	2500.06
733.731	2491.87
733.917	2637.27
734.103	2551.26
734.289	2549.21
734.475	2629.08
734.661	2586.07
734.847	2571.74
735.033	2530.78
735.219	2545.11
735.404	2479.58
735.59	2483.67
735.776	2698.71
735.962	2586.07
736.148	2401.76
736.333	2510.3
736.519	2500.06
736.705	2440.67
736.89	2444.76
737.076	2538.97
737.262	2469.34
737.447	2528.73
737.633	2518.49
737.819	2633.18
738.004	2463.19
738.19	2524.63
738.375	2526.68
738.561	2522.59
738.747	2538.97
738.932	2479.58
739.118	2561.5
739.303	2575.83
739.489	2508.25
739.674	2522.59
739.859	2414.04
740.045	2440.67
740.23	2508.25
740.416	2450.91
740.601	2510.3
740.786	2264.54
740.972	2391.52
741.157	2387.42
741.342	2436.57
741.528	2391.52
741.713	2473.43
741.898	2360.8
742.084	2463.19
742.269	2332.12
742.454	2391.52
742.639	2532.83
742.824	2338.27
743.01	2348.51
743.195	2467.29
743.38	2297.31
743.565	2356.7
743.75	2338.27
743.935	2385.37
744.12	2252.25
744.305	2256.35
744.49	2168.29
744.675	2205.15
744.86	2282.97
745.045	2299.36
745.23	2237.92
745.415	2332.12
745.6	2285.02
745.785	2104.8
745.97	2272.73
746.155	1998.31
746.34	2119.14
746.525	2149.86
746.71	2213.34
746.895	1953.25
747.079	2147.81
747.264	2172.38
747.449	2049.5
747.634	2199.01
747.819	2151.9
748.003	1920.48
748.188	2057.7
748.373	1922.53
748.557	1967.59
748.742	2035.17
748.927	1992.16
749.111	2061.79
749.296	1986.02
749.481	2008.55
749.665	2014.69
749.85	1914.34
750.034	1943.01
750.219	1973.73
750.404	1953.25
750.588	1943.01
750.773	1859.04
750.957	1897.96
751.141	1891.81
751.326	1824.23
751.51	1875.43
751.695	1818.08
751.879	1887.72
752.064	1836.52
752.248	1725.93
752.432	1857
752.617	1820.13
752.801	1754.6
752.985	1730.02
753.17	1656.29
753.354	1793.51
753.538	1703.4
753.722	1699.3
753.907	1703.4
754.091	1744.36
754.275	1574.38
754.459	1531.37
754.643	1603.05
754.828	1607.14
755.012	1680.87
755.196	1666.53
755.38	1564.14
755.564	1533.42
755.748	1637.86
755.932	1607.14
756.116	1510.89
756.3	1551.85
756.484	1572.33
756.668	1428.97
756.852	1461.74
757.036	1535.46
757.22	1545.7
757.404	1457.64
757.588	1496.55
757.772	1557.99
757.956	1459.69
758.14	1508.84
758.323	1365.48
758.507	1396.2
758.691	1328.62
758.875	1410.54
759.059	1455.59
759.242	1359.34
759.426	1394.15
759.61	1310.19
759.794	1332.72
759.977	1340.91
760.161	1351.15
760.345	1285.61
760.528	1281.52
760.712	1277.42
760.895	1160.69
761.079	1328.62
761.263	1312.24
761.446	1277.42
761.63	1205.74
761.813	1283.56
761.997	1287.66
762.18	1197.55
762.364	1197.55
762.547	1252.84
762.731	1263.08
762.914	1263.08
763.098	1175.02
763.281	1129.97
763.464	1209.84
763.648	1197.55
763.831	1189.36
764.015	1140.21
764.198	1191.41
764.381	1205.74
764.564	1238.51
764.748	1132.01
764.931	1172.97
765.114	1172.97
765.297	1164.78
765.481	1138.16
765.664	1205.74
765.847	1089.01
766.03	1080.82
766.213	1048.05
766.397	1170.93
766.58	1127.92
766.763	1039.86
766.946	1048.05
767.129	1099.25
767.312	1070.58
767.495	1099.25
767.678	1086.96
767.861	1037.81
768.044	1177.07
768.227	992.75
768.41	1021.42
768.593	1064.43
768.776	1134.06
768.959	1031.66
769.142	1146.35
769.324	1002.99
769.507	1048.05
769.69	1041.9
769.873	1013.23
770.056	1037.81
770.239	1050.1
770.421	1013.23
770.604	939.51
770.787	966.13
770.97	904.69
771.152	890.35
771.335	830.96
771.518	882.16
771.7	1052.14
771.883	964.08
772.066	962.03
772.248	951.79
772.431	945.65
772.613	822.77
772.796	923.12
772.978	984.56
773.161	966.13
773.343	896.5
773.526	912.88
773.708	892.4
773.891	802.29
774.073	896.5
774.256	855.54
774.438	861.68
774.621	886.26
774.803	857.59
774.985	804.34
775.168	847.35
775.35	802.29
775.532	826.87
775.715	808.44
775.897	792.05
776.079	693.75
776.261	771.57
776.444	775.67
776.626	787.96
776.808	755.19
776.99	787.96
777.173	734.71
777.355	796.15
777.537	710.13
777.719	749.04
777.901	757.24
778.083	720.37
778.265	751.09
778.447	693.75
778.629	624.12
778.811	720.37
778.993	761.33
779.175	679.41
779.357	716.28
779.539	693.75
779.721	640.5
779.903	710.13
780.085	687.61
780.267	665.08
780.449	701.94
780.631	620.02
780.812	689.65
780.994	685.56
781.176	595.45
781.358	710.13
781.54	579.06
781.721	675.32
781.903	589.3
782.085	693.75
782.267	726.52
782.448	597.49
782.63	517.62
782.812	638.45
782.993	566.78
783.175	507.38
783.357	591.35
783.538	583.16
783.72	515.58
783.901	521.72
784.083	534.01
784.264	579.06
784.446	556.54
784.627	505.34
784.809	503.29
784.99	558.58
785.172	450.04
785.353	503.29
785.535	548.34
785.716	495.1
785.897	439.8
786.079	497.14
786.26	517.62
786.441	564.73
786.623	536.06
786.804	554.49
786.985	484.86
787.167	452.09
787.348	447.99
787.529	470.52
787.71	507.38
787.891	491
788.073	503.29
788.254	433.66
788.435	382.46
788.616	394.75
788.797	415.23
788.978	480.76
789.159	370.17
789.34	464.38
789.522	388.6
789.703	445.95
789.884	388.6
790.065	450.04
790.246	386.55
790.427	433.66
790.607	429.56
790.788	437.75
790.969	321.02
791.15	343.55
791.331	351.74
791.512	419.32
791.693	378.36
791.874	404.99
792.054	441.85
792.235	386.55
792.416	294.4
792.597	368.12
792.778	374.27
792.958	400.89
793.139	304.64
793.32	374.27
793.5	329.21
793.681	431.61
793.862	364.03
794.042	284.16
794.223	280.06
794.404	296.44
794.584	302.59
794.765	325.12
794.945	278.01
795.126	333.31
795.306	296.44
795.487	341.5
795.667	302.59
795.848	306.68
796.028	370.17
796.209	370.17
796.389	327.16
796.57	312.83
796.75	343.55
796.93	316.92
797.111	298.49
797.291	247.29
797.471	280.06
797.652	243.2
797.832	292.35
798.012	286.2
798.192	296.44
798.373	304.64
798.553	327.16
798.733	235
798.913	267.77
799.093	292.35
799.274	247.29
799.454	296.44
799.634	278.01
799.814	300.54
799.994	181.76
800.174	261.63
800.354	308.73
800.534	249.34
800.714	249.34
800.894	230.91
801.074	239.1
801.254	249.34
801.434	267.77
801.614	263.68
801.794	312.83
801.974	550.39
802.154	208.38
802.334	333.31
802.514	243.2
802.693	312.83
802.873	204.28
803.053	263.68
803.233	255.48
803.413	243.2
803.592	159.23
803.772	202.24
803.952	296.44
804.131	218.62
804.311	220.67
804.491	206.33
804.67	245.24
804.85	243.2
805.03	157.18
805.209	224.76
805.389	226.81
805.568	298.49
805.748	208.38
805.928	202.24
806.107	263.68
806.287	269.82
806.466	181.76
806.646	216.57
806.825	241.15
807.004	255.48
807.184	198.14
807.363	179.71
807.543	257.53
807.722	179.71
807.901	273.92
808.081	243.2
808.26	212.48
808.439	210.43
808.619	220.67
808.798	179.71
808.977	271.87
809.156	226.81
809.336	177.66
809.515	163.33
809.694	83.45
809.873	173.57
810.052	192
810.231	216.57
810.411	210.43
810.59	220.67
810.769	200.19
810.948	169.47
811.127	185.85
811.306	167.42
811.485	185.85
811.664	169.47
811.843	177.66
812.022	241.15
812.201	136.7
812.38	185.85
812.559	132.61
812.737	157.18
812.916	163.33
813.095	216.57
813.274	181.76
813.453	173.57
813.632	132.61
813.811	175.61
813.989	212.48
814.168	120.32
814.347	116.22
814.526	157.18
814.704	239.1
814.883	155.13
815.062	138.75
815.24	148.99
815.419	181.76
815.598	144.89
815.776	179.71
815.955	179.71
816.133	38.4
816.312	183.81
816.49	89.6
816.669	177.66
816.847	138.75
817.026	194.05
817.204	130.56
817.383	239.1
817.561	93.69
817.74	196.09
817.918	130.56
818.097	71.17
818.275	157.18
818.453	159.23
818.632	163.33
818.81	210.43
818.988	87.55
819.167	140.8
819.345	114.17
819.523	99.84
819.701	155.13
819.879	140.8
820.058	124.41
820.236	140.8
820.414	5.63
820.592	136.7
820.77	83.45
820.948	153.09
821.127	7.68
821.305	210.43
821.483	112.13
821.661	89.6
821.839	81.41
822.017	67.07
822.195	85.5
822.373	124.41
822.551	116.22
822.729	116.22
822.907	9.73
823.085	134.65
823.262	91.65
823.44	165.37
823.618	148.99
823.796	151.04
823.974	148.99
824.152	128.51
824.329	75.26
824.507	75.26
824.685	140.8
824.863	85.5
825.04	108.03
825.218	99.84
825.396	116.22
825.574	99.84
825.751	83.45
825.929	114.17
826.107	79.36
826.284	71.17
826.462	58.88
826.639	120.32
826.817	95.74
826.994	79.36
827.172	73.21
827.349	120.32
827.527	73.21
827.704	83.45
827.882	142.85
828.059	118.27
828.237	110.08
828.414	161.28
828.591	-6.66
828.769	50.69
828.946	-4.61
829.124	120.32
829.301	151.04
829.478	3.58
829.655	75.26
829.833	108.03
830.01	101.89
830.187	56.83
830.364	67.07
830.542	101.89
830.719	140.8
830.896	-2.56
831.073	65.02
831.25	136.7
831.427	65.02
831.604	58.88
831.782	56.83
831.959	103.93
832.136	58.88
832.313	103.93
832.49	91.65
832.667	132.61
832.844	67.07
833.021	85.5
833.198	77.31
833.374	165.37
833.551	97.79
833.728	69.12
833.905	138.75
834.082	40.45
834.259	62.98
834.436	17.92
834.612	-4.61
834.789	50.69
834.966	75.26
835.143	134.65
835.319	-6.66
835.496	48.64
835.673	91.65
835.85	62.98
836.026	71.17
836.203	110.08
836.38	50.69
836.556	46.59
836.733	87.55
836.909	48.64
837.086	75.26
837.262	28.16
837.439	108.03
837.616	56.83
837.792	22.02
837.968	79.36
838.145	34.3
838.321	101.89
838.498	34.3
838.674	46.59
838.851	1.54
839.027	105.98
839.203	-6.66
839.38	89.6
839.556	83.45
839.732	54.78
839.909	38.4
840.085	22.02
840.261	105.98
840.437	46.59
840.614	42.5
840.79	58.88
840.966	30.21
841.142	99.84
841.318	26.11
841.494	50.69
841.671	97.79
841.847	36.35
842.023	73.21
842.199	22.02
842.375	36.35
842.551	40.45
842.727	28.16
842.903	60.93
843.079	58.88
843.255	110.08
843.431	42.5
843.607	52.74
843.783	-0.51
843.959	-23.04
844.134	56.83
844.31	83.45
844.486	62.98
844.662	75.26
844.838	-39.42
845.013	1.54
845.189	13.82
845.365	44.54
845.541	73.21
845.716	28.16
845.892	-18.94
846.068	75.26
846.244	17.92
846.419	108.03
846.595	9.73
846.77	38.4
846.946	50.69
847.122	-41.47
847.297	34.3
847.473	97.79
847.648	26.11
847.824	38.4
847.999	83.45
848.175	-55.81
848.35	91.65
848.526	32.26
848.701	87.55
848.876	42.5
849.052	40.45
849.227	-25.09
849.403	-43.52
849.578	30.21
849.753	77.31
849.929	32.26
850.104	50.69
850.279	69.12
850.454	52.74
850.63	69.12
850.805	-55.81
850.98	3.58
851.155	-2.56
851.33	62.98
851.505	46.59
851.681	71.17
851.856	-37.38
852.031	11.78
852.206	24.06
852.381	42.5
852.556	46.59
852.731	-2.56
852.906	40.45
853.081	1.54
853.256	-2.56
853.431	46.59
853.606	-20.99
853.781	36.35
853.956	73.21
854.131	11.78
854.305	-39.42
854.48	38.4
854.655	56.83
854.83	-43.52
855.005	-0.51
855.18	34.3
855.354	-0.51
855.529	42.5
855.704	-25.09
855.879	22.02
856.053	24.06
856.228	75.26
856.403	-27.14
856.577	50.69
856.752	-8.7
856.926	24.06
857.101	-25.09
857.276	22.02
857.45	91.65
857.625	40.45
857.799	-18.94
857.974	73.21
858.148	-51.71
858.323	28.16
858.497	56.83
858.672	-8.7
858.846	32.26
859.02	56.83
859.195	73.21
859.369	36.35
859.543	15.87
859.718	1.54
859.892	-23.04
860.066	-43.52
860.241	-6.66
860.415	-43.52
860.589	17.92
860.763	67.07
860.938	-76.29
861.112	-14.85
861.286	67.07
861.46	69.12
861.634	34.3
861.808	13.82
861.982	-12.8
862.157	65.02
862.331	81.41
862.505	34.3
862.679	-31.23
862.853	-43.52
863.027	9.73
863.201	58.88
863.375	-23.04
863.549	60.93
863.722	9.73
863.896	-43.52
864.07	81.41
864.244	-14.85
864.418	44.54
864.592	5.63
864.766	48.64
864.939	-74.24
865.113	-2.56
865.287	26.11
865.461	-59.9
865.634	30.21
865.808	-20.99
865.982	9.73
866.156	7.68
866.329	46.59
866.503	50.69
866.676	5.63
866.85	91.65
867.024	-27.14
867.197	3.58
867.371	-23.04
867.544	-41.47
867.718	54.78
867.891	-0.51
868.065	75.26
868.238	32.26
868.412	22.02
868.585	-14.85
868.759	11.78
868.932	-0.51
869.105	-68.09
869.279	11.78
869.452	32.26
869.625	-2.56
869.799	58.88
869.972	19.97
870.145	3.58
870.319	56.83
870.492	15.87
870.665	32.26
870.838	26.11
871.011	60.93
871.185	-0.51
871.358	9.73
871.531	-59.9
871.704	40.45
871.877	-10.75
872.05	-47.62
872.223	-6.66
872.396	-37.38
872.569	-2.56
872.742	-20.99
872.915	-14.85
873.088	1.54
873.261	-8.7
873.434	-12.8
873.607	-4.61
873.78	5.63
873.953	-37.38
874.126	5.63
874.299	9.73
874.471	-8.7
874.644	17.92
874.817	3.58
874.99	17.92
875.163	9.73
875.335	67.07
875.508	24.06
875.681	1.54
875.853	-43.52
876.026	67.07
876.199	-8.7
876.371	19.97
876.544	5.63
876.717	24.06
876.889	-113.15
877.062	22.02
877.234	-6.66
877.407	-23.04
877.579	-25.09
877.752	32.26
877.924	36.35
878.097	3.58
878.269	26.11
878.442	-78.33
878.614	-74.24
878.786	38.4
878.959	9.73
879.131	-57.86
879.303	-74.24
879.476	40.45
879.648	34.3
879.82	15.87
879.993	36.35
880.165	-20.99
880.337	7.68
880.509	36.35
880.681	-2.56
880.854	-12.8
881.026	13.82
881.198	42.5
881.37	13.82
881.542	36.35
881.714	-6.66
881.886	9.73
882.058	24.06
882.23	-18.94
882.402	-47.62
882.574	30.21
882.746	7.68
882.918	62.98
883.09	30.21
883.262	-12.8
883.434	19.97
883.606	-18.94
883.778	-14.85
883.95	81.41
884.122	9.73
884.293	22.02
884.465	-6.66
884.637	13.82
884.809	-86.53
884.98	-23.04
885.152	19.97
885.324	48.64
885.496	-39.42
885.667	-41.47
885.839	-37.38
886.011	-33.28
886.182	30.21
886.354	32.26
886.525	-6.66
886.697	9.73
886.869	-23.04
887.04	-49.66
887.212	-45.57
887.383	3.58
887.555	-31.23
887.726	71.17
887.897	-31.23
888.069	-33.28
888.24	24.06
888.412	9.73
888.583	-25.09
888.754	-43.52
888.926	-70.14
889.097	13.82
889.268	-49.66
889.44	-27.14
889.611	-29.18
889.782	-41.47
889.953	-8.7
890.125	22.02
890.296	-43.52
890.467	34.3
890.638	19.97
890.809	-43.52
890.98	-4.61
891.151	-27.14
891.323	-16.9
891.494	-43.52
891.665	-10.75
891.836	17.92
892.007	7.68
892.178	-6.66
892.349	-4.61
892.52	-6.66
892.691	5.63
892.862	-16.9
893.032	9.73
893.203	-33.28
893.374	-43.52
893.545	-2.56
893.716	-61.95
893.887	38.4
894.057	17.92
894.228	-39.42
894.399	-96.77
894.57	60.93
894.74	-35.33
894.911	-10.75
895.082	-37.38
895.253	3.58
895.423	32.26
895.594	62.98
895.764	-6.66
895.935	-25.09
896.106	26.11
896.276	-74.24
896.447	7.68
896.617	22.02
896.788	-23.04
896.958	26.11
897.129	-0.51
897.299	42.5
897.47	-6.66
897.64	-27.14
897.81	-33.28
897.981	38.4
898.151	-2.56
898.322	44.54
898.492	-14.85
898.662	38.4
898.832	-4.61
899.003	50.69
899.173	-0.51
899.343	-6.66
899.513	48.64
