Data from USB4F104151__52__11-37-15-628.txt Node

Date: Fri Mar 14 11:37:15 EDT 2025
User: louis
Spectrometer: USB4F10415
Trigger mode: 4
Integration Time (sec): 2.000000E-2
Scans to average: 1
Electric dark correction enabled: true
Nonlinearity correction enabled: false
Boxcar width: 0
XAxis mode: Wavelengths
Number of Pixels in Spectrum: 3648
>>>>>Begin Spectral Data<<<<<
178.204	-108.54
178.424	-108.54
178.644	-108.54
178.864	-69.63
179.084	0
179.304	34.82
179.524	-10.24
179.744	-67.58
179.964	12.29
180.184	-51.2
180.404	-14.34
180.624	34.82
180.844	-22.53
181.064	30.72
181.283	65.54
181.503	-22.53
181.723	10.24
181.943	4.1
182.163	55.3
182.383	51.2
182.602	102.4
182.822	22.53
183.042	100.35
183.262	45.06
183.482	38.91
183.701	71.68
183.921	61.44
184.141	-53.25
184.361	59.39
184.58	-12.29
184.8	73.73
185.02	36.86
185.239	71.68
185.459	-94.21
185.679	28.67
185.898	26.62
186.118	14.34
186.338	77.82
186.557	20.48
186.777	-18.43
186.997	-34.82
187.216	-14.34
187.436	53.25
187.655	2.05
187.875	30.72
188.095	-10.24
188.314	88.06
188.534	0
188.753	69.63
188.973	92.16
189.192	40.96
189.412	4.1
189.631	30.72
189.851	-32.77
190.07	6.14
190.29	-14.34
190.509	10.24
190.729	67.58
190.948	61.44
191.168	116.73
191.387	6.14
191.607	22.53
191.826	26.62
192.045	10.24
192.265	22.53
192.484	22.53
192.704	55.3
192.923	22.53
193.142	143.36
193.362	88.06
193.581	45.06
193.8	36.86
194.02	16.38
194.239	-22.53
194.458	69.63
194.678	6.14
194.897	100.35
195.116	6.14
195.335	40.96
195.555	65.54
195.774	-26.62
195.993	-2.05
196.212	32.77
196.432	-12.29
196.651	-20.48
196.87	55.3
197.089	55.3
197.308	4.1
197.528	96.25
197.747	26.62
197.966	24.58
198.185	59.39
198.404	104.45
198.623	24.58
198.842	18.43
199.062	67.58
199.281	59.39
199.5	90.11
199.719	116.73
199.938	-26.62
200.157	45.06
200.376	-8.19
200.595	43.01
200.814	61.44
201.033	-36.86
201.252	2.05
201.471	-18.43
201.69	88.06
201.909	-18.43
202.128	-26.62
202.347	51.2
202.566	2.05
202.785	61.44
203.004	59.39
203.223	65.54
203.442	-20.48
203.661	-2.05
203.879	22.53
204.098	14.34
204.317	40.96
204.536	40.96
204.755	61.44
204.974	34.82
205.193	75.77
205.411	124.93
205.63	20.48
205.849	47.1
206.068	55.3
206.287	28.67
206.505	36.86
206.724	-24.58
206.943	71.68
207.162	-26.62
207.381	126.97
207.599	0
207.818	4.1
208.037	51.2
208.255	55.3
208.474	0
208.693	32.77
208.911	47.1
209.13	4.1
209.349	59.39
209.567	61.44
209.786	79.87
210.005	-61.44
210.223	92.16
210.442	43.01
210.661	22.53
210.879	-4.1
211.098	-20.48
211.316	10.24
211.535	16.38
211.753	88.06
211.972	59.39
212.191	-28.67
212.409	12.29
212.628	110.59
212.846	75.77
213.065	34.82
213.283	67.58
213.502	81.92
213.72	51.2
213.938	47.1
214.157	-2.05
214.375	-6.14
214.594	2.05
214.812	45.06
215.031	51.2
215.249	2.05
215.467	38.91
215.686	32.77
215.904	63.49
216.122	-43.01
216.341	38.91
216.559	6.14
216.778	-14.34
216.996	47.1
217.214	-16.38
217.432	32.77
217.651	63.49
217.869	-10.24
218.087	43.01
218.306	14.34
218.524	98.3
218.742	28.67
218.96	49.15
219.179	59.39
219.397	-16.38
219.615	63.49
219.833	38.91
220.051	75.77
220.27	83.97
220.488	112.64
220.706	22.53
220.924	30.72
221.142	67.58
221.36	6.14
221.578	34.82
221.796	75.77
222.015	40.96
222.233	-73.73
222.451	30.72
222.669	69.63
222.887	10.24
223.105	4.1
223.323	100.35
223.541	59.39
223.759	12.29
223.977	4.1
224.195	92.16
224.413	53.25
224.631	116.73
224.849	57.34
225.067	61.44
225.285	51.2
225.503	10.24
225.721	10.24
225.939	-4.1
226.157	6.14
226.375	129.02
226.592	10.24
226.81	-6.14
227.028	53.25
227.246	83.97
227.464	6.14
227.682	47.1
227.9	30.72
228.117	59.39
228.335	120.83
228.553	79.87
228.771	-8.19
228.989	86.01
229.206	69.63
229.424	20.48
229.642	-18.43
229.86	26.62
230.077	26.62
230.295	59.39
230.513	47.1
230.731	88.06
230.948	8.19
231.166	20.48
231.384	77.82
231.601	-59.39
231.819	47.1
232.037	28.67
232.254	-4.1
232.472	34.82
232.689	67.58
232.907	20.48
233.125	4.1
233.342	71.68
233.56	65.54
233.777	-4.1
233.995	-2.05
234.213	104.45
234.43	4.1
234.648	14.34
234.865	16.38
235.083	10.24
235.3	55.3
235.518	53.25
235.735	-10.24
235.953	98.3
236.17	4.1
236.388	38.91
236.605	28.67
236.822	83.97
237.04	-6.14
237.257	114.69
237.475	102.4
237.692	92.16
237.909	-30.72
238.127	98.3
238.344	10.24
238.562	71.68
238.779	28.67
238.996	38.91
239.214	2.05
239.431	61.44
239.648	92.16
239.865	-47.1
240.083	61.44
240.3	55.3
240.517	-10.24
240.735	65.54
240.952	38.91
241.169	71.68
241.386	73.73
241.603	51.2
241.821	20.48
242.038	-10.24
242.255	55.3
242.472	81.92
242.689	18.43
242.907	32.77
243.124	86.01
243.341	43.01
243.558	20.48
243.775	12.29
243.992	10.24
244.209	6.14
244.426	4.1
244.643	40.96
244.86	86.01
245.078	-18.43
245.295	26.62
245.512	83.97
245.729	4.1
245.946	8.19
246.163	38.91
246.38	-2.05
246.597	6.14
246.814	-61.44
247.031	26.62
247.248	63.49
247.464	-22.53
247.681	71.68
247.898	30.72
248.115	63.49
248.332	-18.43
248.549	104.45
248.766	143.36
248.983	83.97
249.2	98.3
249.417	10.24
249.633	36.86
249.85	45.06
250.067	75.77
250.284	-22.53
250.501	45.06
250.717	86.01
250.934	30.72
251.151	26.62
251.368	26.62
251.585	38.91
251.801	18.43
252.018	-14.34
252.235	75.77
252.451	92.16
252.668	2.05
252.885	61.44
253.102	49.15
253.318	108.54
253.535	43.01
253.752	-12.29
253.968	51.2
254.185	43.01
254.401	4.1
254.618	55.3
254.835	83.97
255.051	71.68
255.268	77.82
255.484	0
255.701	59.39
255.917	112.64
256.134	26.62
256.351	79.87
256.567	36.86
256.784	120.83
257	104.45
257.217	94.21
257.433	12.29
257.65	47.1
257.866	28.67
258.082	-34.82
258.299	12.29
258.515	6.14
258.732	28.67
258.948	135.17
259.165	6.14
259.381	57.34
259.597	63.49
259.814	26.62
260.03	-53.25
260.246	0
260.463	51.2
260.679	110.59
260.895	47.1
261.112	16.38
261.328	10.24
261.544	67.58
261.761	67.58
261.977	-2.05
262.193	24.58
262.409	-14.34
262.626	10.24
262.842	-45.06
263.058	36.86
263.274	6.14
263.49	-14.34
263.707	55.3
263.923	88.06
264.139	16.38
264.355	38.91
264.571	145.41
264.787	22.53
265.004	94.21
265.22	65.54
265.436	63.49
265.652	-12.29
265.868	86.01
266.084	-38.91
266.3	59.39
266.516	-30.72
266.732	45.06
266.948	30.72
267.164	88.06
267.38	88.06
267.596	-34.82
267.812	49.15
268.028	32.77
268.244	28.67
268.46	26.62
268.676	59.39
268.892	-16.38
269.108	43.01
269.324	-12.29
269.54	-59.39
269.756	51.2
269.972	59.39
270.188	10.24
270.403	18.43
270.619	-26.62
270.835	71.68
271.051	38.91
271.267	-67.58
271.483	-26.62
271.698	12.29
271.914	81.92
272.13	71.68
272.346	90.11
272.562	-47.1
272.777	90.11
272.993	53.25
273.209	4.1
273.425	100.35
273.64	10.24
273.856	51.2
274.072	-16.38
274.287	61.44
274.503	106.49
274.719	-18.43
274.934	81.92
275.15	-18.43
275.366	10.24
275.581	2.05
275.797	59.39
276.012	40.96
276.228	-6.14
276.444	24.58
276.659	36.86
276.875	34.82
277.09	18.43
277.306	43.01
277.521	55.3
277.737	63.49
277.952	59.39
278.168	79.87
278.383	14.34
278.599	-22.53
278.814	43.01
279.03	55.3
279.245	92.16
279.461	43.01
279.676	26.62
279.892	32.77
280.107	34.82
280.322	-16.38
280.538	-14.34
280.753	-43.01
280.969	55.3
281.184	81.92
281.399	77.82
281.615	57.34
281.83	75.77
282.045	-8.19
282.26	51.2
282.476	83.97
282.691	18.43
282.906	49.15
283.122	-10.24
283.337	-12.29
283.552	63.49
283.767	14.34
283.983	2.05
284.198	55.3
284.413	79.87
284.628	-16.38
284.843	2.05
285.058	18.43
285.274	104.45
285.489	18.43
285.704	57.34
285.919	55.3
286.134	43.01
286.349	-4.1
286.564	-14.34
286.779	28.67
286.995	55.3
287.21	-22.53
287.425	-2.05
287.64	32.77
287.855	-26.62
288.07	-6.14
288.285	40.96
288.5	-2.05
288.715	47.1
288.93	-24.58
289.145	55.3
289.36	4.1
289.575	100.35
289.79	55.3
290.004	22.53
290.219	100.35
290.434	126.97
290.649	92.16
290.864	30.72
291.079	-8.19
291.294	30.72
291.509	6.14
291.724	18.43
291.938	63.49
292.153	14.34
292.368	118.78
292.583	43.01
292.798	77.82
293.012	67.58
293.227	73.73
293.442	34.82
293.657	40.96
293.871	69.63
294.086	79.87
294.301	26.62
294.516	71.68
294.73	47.1
294.945	26.62
295.16	96.25
295.374	71.68
295.589	69.63
295.804	-59.39
296.018	-22.53
296.233	83.97
296.447	57.34
296.662	10.24
296.877	100.35
297.091	8.19
297.306	53.25
297.52	-43.01
297.735	114.69
297.949	6.14
298.164	61.44
298.378	22.53
298.593	81.92
298.807	79.87
299.022	94.21
299.236	18.43
299.451	-26.62
299.665	59.39
299.88	73.73
300.094	88.06
300.309	43.01
300.523	38.91
300.737	28.67
300.952	14.34
301.166	59.39
301.381	-4.1
301.595	18.43
301.809	100.35
302.024	71.68
302.238	-4.1
302.452	131.07
302.667	98.3
302.881	51.2
303.095	88.06
303.309	34.82
303.524	81.92
303.738	32.77
303.952	55.3
304.166	102.4
304.381	83.97
304.595	104.45
304.809	14.34
305.023	30.72
305.237	30.72
305.452	-38.91
305.666	22.53
305.88	40.96
306.094	81.92
306.308	100.35
306.522	-16.38
306.736	38.91
306.95	67.58
307.164	81.92
307.379	-61.44
307.593	98.3
307.807	57.34
308.021	61.44
308.235	92.16
308.449	94.21
308.663	30.72
308.877	69.63
309.091	36.86
309.305	36.86
309.519	40.96
309.733	55.3
309.947	55.3
310.161	38.91
310.374	38.91
310.588	10.24
310.802	79.87
311.016	16.38
311.23	6.14
311.444	98.3
311.658	-10.24
311.872	100.35
312.085	36.86
312.299	102.4
312.513	67.58
312.727	55.3
312.941	53.25
313.154	16.38
313.368	88.06
313.582	34.82
313.796	-6.14
314.009	69.63
314.223	55.3
314.437	32.77
314.651	43.01
314.864	43.01
315.078	73.73
315.292	83.97
315.505	61.44
315.719	18.43
315.933	69.63
316.146	-4.1
316.36	-28.67
316.573	77.82
316.787	28.67
317.001	67.58
317.214	10.24
317.428	43.01
317.641	65.54
317.855	57.34
318.068	36.86
318.282	10.24
318.495	65.54
318.709	110.59
318.922	67.58
319.136	57.34
319.349	129.02
319.563	-24.58
319.776	14.34
319.99	10.24
320.203	57.34
320.417	49.15
320.63	61.44
320.843	106.49
321.057	-28.67
321.27	65.54
321.483	34.82
321.697	83.97
321.91	92.16
322.124	-20.48
322.337	57.34
322.55	-36.86
322.763	22.53
322.977	57.34
323.19	57.34
323.403	55.3
323.617	36.86
323.83	22.53
324.043	-34.82
324.256	147.45
324.469	-22.53
324.683	49.15
324.896	40.96
325.109	59.39
325.322	0
325.535	20.48
325.748	43.01
325.962	14.34
326.175	86.01
326.388	69.63
326.601	92.16
326.814	8.19
327.027	-18.43
327.24	26.62
327.453	63.49
327.666	-8.19
327.879	26.62
328.092	38.91
328.305	81.92
328.518	34.82
328.731	75.77
328.944	83.97
329.157	38.91
329.37	53.25
329.583	100.35
329.796	71.68
330.009	38.91
330.222	77.82
330.435	67.58
330.648	96.25
330.861	43.01
331.073	81.92
331.286	47.1
331.499	65.54
331.712	-8.19
331.925	63.49
332.138	71.68
332.35	96.25
332.563	83.97
332.776	69.63
332.989	2.05
333.202	20.48
333.414	49.15
333.627	4.1
333.84	57.34
334.053	32.77
334.265	36.86
334.478	20.48
334.691	22.53
334.903	-38.91
335.116	49.15
335.329	45.06
335.541	120.83
335.754	71.68
335.966	120.83
336.179	49.15
336.392	47.1
336.604	94.21
336.817	0
337.029	88.06
337.242	108.54
337.454	96.25
337.667	22.53
337.88	57.34
338.092	28.67
338.305	67.58
338.517	55.3
338.729	77.82
338.942	6.14
339.154	28.67
339.367	28.67
339.579	30.72
339.792	53.25
340.004	63.49
340.217	53.25
340.429	38.91
340.641	6.14
340.854	55.3
341.066	38.91
341.278	92.16
341.491	69.63
341.703	57.34
341.915	22.53
342.128	65.54
342.34	81.92
342.552	4.1
342.764	45.06
342.977	38.91
343.189	112.64
343.401	20.48
343.613	45.06
343.826	88.06
344.038	45.06
344.25	71.68
344.462	61.44
344.674	96.25
344.886	51.2
345.099	55.3
345.311	55.3
345.523	45.06
345.735	96.25
345.947	45.06
346.159	0
346.371	38.91
346.583	43.01
346.795	12.29
347.007	71.68
347.219	59.39
347.431	40.96
347.643	40.96
347.855	94.21
348.067	51.2
348.279	28.67
348.491	32.77
348.703	-36.86
348.915	34.82
349.127	22.53
349.339	108.54
349.551	-51.2
349.763	47.1
349.975	26.62
350.187	124.93
350.399	104.45
350.61	32.77
350.822	61.44
351.034	-2.05
351.246	30.72
351.458	55.3
351.669	100.35
351.881	77.82
352.093	49.15
352.305	-10.24
352.517	45.06
352.728	53.25
352.94	26.62
353.152	24.58
353.363	51.2
353.575	153.6
353.787	71.68
353.999	-18.43
354.21	118.78
354.422	-30.72
354.633	-8.19
354.845	75.77
355.057	8.19
355.268	-12.29
355.48	118.78
355.692	26.62
355.903	51.2
356.115	67.58
356.326	88.06
356.538	129.02
356.749	73.73
356.961	79.87
357.172	112.64
357.384	34.82
357.595	55.3
357.807	69.63
358.018	102.4
358.23	69.63
358.441	71.68
358.653	75.77
358.864	43.01
359.075	57.34
359.287	81.92
359.498	43.01
359.709	75.77
359.921	86.01
360.132	77.82
360.344	32.77
360.555	45.06
360.766	22.53
360.977	36.86
361.189	30.72
361.4	18.43
361.611	-18.43
361.823	104.45
362.034	18.43
362.245	-12.29
362.456	83.97
362.667	83.97
362.879	18.43
363.09	28.67
363.301	120.83
363.512	71.68
363.723	36.86
363.935	69.63
364.146	96.25
364.357	67.58
364.568	38.91
364.779	59.39
364.99	36.86
365.201	22.53
365.412	65.54
365.623	-14.34
365.834	61.44
366.045	51.2
366.256	77.82
366.467	20.48
366.678	47.1
366.889	110.59
367.1	2.05
367.311	71.68
367.522	-28.67
367.733	14.34
367.944	26.62
368.155	43.01
368.366	34.82
368.577	96.25
368.788	10.24
368.999	34.82
369.209	24.58
369.42	129.02
369.631	116.73
369.842	57.34
370.053	69.63
370.264	30.72
370.474	45.06
370.685	53.25
370.896	-45.06
371.107	73.73
371.317	-2.05
371.528	53.25
371.739	75.77
371.95	40.96
372.16	55.3
372.371	2.05
372.582	47.1
372.792	49.15
373.003	67.58
373.214	67.58
373.424	40.96
373.635	22.53
373.846	116.73
374.056	40.96
374.267	61.44
374.477	94.21
374.688	63.49
374.898	38.91
375.109	73.73
375.319	38.91
375.53	133.12
375.74	43.01
375.951	67.58
376.161	100.35
376.372	38.91
376.582	2.05
376.793	38.91
377.003	118.78
377.214	79.87
377.424	18.43
377.635	53.25
377.845	47.1
378.055	108.54
378.266	71.68
378.476	63.49
378.686	65.54
378.897	14.34
379.107	153.6
379.317	43.01
379.528	45.06
379.738	63.49
379.948	38.91
380.158	53.25
380.369	10.24
380.579	45.06
380.789	79.87
380.999	59.39
381.21	133.12
381.42	98.3
381.63	47.1
381.84	139.26
382.05	57.34
382.261	126.97
382.471	36.86
382.681	96.25
382.891	71.68
383.101	24.58
383.311	38.91
383.521	65.54
383.731	43.01
383.941	18.43
384.151	30.72
384.361	67.58
384.571	61.44
384.781	53.25
384.991	98.3
385.201	-28.67
385.411	124.93
385.621	98.3
385.831	22.53
386.041	81.92
386.251	45.06
386.461	83.97
386.671	30.72
386.881	59.39
387.091	30.72
387.301	102.4
387.511	38.91
387.72	43.01
387.93	92.16
388.14	6.14
388.35	4.1
388.56	149.5
388.769	71.68
388.979	10.24
389.189	-10.24
389.399	104.45
389.609	65.54
389.818	100.35
390.028	28.67
390.238	86.01
390.447	61.44
390.657	53.25
390.867	67.58
391.076	59.39
391.286	-18.43
391.496	43.01
391.705	38.91
391.915	83.97
392.125	34.82
392.334	69.63
392.544	59.39
392.753	65.54
392.963	24.58
393.172	67.58
393.382	77.82
393.591	167.93
393.801	-43.01
394.01	98.3
394.22	61.44
394.429	71.68
394.639	59.39
394.848	96.25
395.058	65.54
395.267	102.4
395.477	73.73
395.686	65.54
395.895	141.31
396.105	137.21
396.314	104.45
396.524	131.07
396.733	59.39
396.942	100.35
397.152	86.01
397.361	61.44
397.57	190.46
397.78	98.3
397.989	67.58
398.198	241.66
398.407	36.86
398.617	143.36
398.826	147.45
399.035	124.93
399.244	26.62
399.453	94.21
399.663	88.06
399.872	202.75
400.081	169.98
400.29	71.68
400.499	141.31
400.708	86.01
400.917	38.91
401.127	129.02
401.336	57.34
401.545	161.79
401.754	122.88
401.963	161.79
402.172	106.49
402.381	79.87
402.59	83.97
402.799	143.36
403.008	94.21
403.217	194.56
403.426	96.25
403.635	126.97
403.844	88.06
404.053	110.59
404.262	133.12
404.471	129.02
404.68	102.4
404.888	221.18
405.097	116.73
405.306	110.59
405.515	157.69
405.724	200.7
405.933	161.79
406.142	155.65
406.35	210.94
406.559	163.84
406.768	215.04
406.977	202.75
407.185	169.98
407.394	169.98
407.603	231.42
407.812	266.24
408.02	235.52
408.229	206.84
408.438	184.32
408.646	268.28
408.855	284.67
409.064	219.13
409.272	335.87
409.481	231.42
409.69	184.32
409.898	262.14
410.107	206.84
410.315	348.15
410.524	215.04
410.733	301.05
410.941	217.08
411.15	329.72
411.358	329.72
411.567	335.87
411.775	389.11
411.984	385.02
412.192	321.53
412.401	438.27
412.609	358.39
412.818	438.27
413.026	448.51
413.234	479.22
413.443	380.92
413.651	448.51
413.86	477.18
414.068	516.09
414.276	542.71
414.485	442.36
414.693	477.18
414.901	505.85
415.11	616.44
415.318	628.73
415.526	616.44
415.734	696.31
415.943	657.4
416.151	636.92
416.359	624.63
416.567	716.79
416.776	770.04
416.984	757.75
417.192	849.91
417.4	804.85
417.608	780.28
417.817	876.53
418.025	839.67
418.233	1019.89
418.441	866.29
418.649	983.03
418.857	1079.28
419.065	1069.04
419.273	1066.99
419.481	1079.28
419.689	1132.53
419.897	1306.6
420.105	1284.08
420.313	1269.74
420.521	1413.1
420.729	1302.51
420.937	1406.95
421.145	1527.78
421.353	1533.93
421.561	1683.43
421.769	1533.93
421.977	1826.79
422.185	1650.66
422.393	1716.2
422.601	1826.79
422.809	1814.5
423.017	1939.43
423.224	1972.19
423.432	2009.06
423.64	2113.5
423.848	2199.52
424.056	2205.66
424.263	2465.75
424.471	2422.75
424.679	2291.68
424.887	2549.72
425.094	2578.39
425.302	2607.06
425.51	2717.65
425.718	2832.34
425.925	2838.48
426.133	3000.27
426.341	3182.54
426.548	3291.09
426.756	3168.21
426.964	3207.12
427.171	3542.99
427.379	3563.47
427.586	3663.82
427.794	3684.3
428.001	3960.77
428.209	4001.73
428.417	3985.35
428.624	4265.92
428.832	4353.98
429.039	4241.34
429.247	4237.25
429.454	4782.01
429.662	4923.32
429.869	4763.58
430.076	4960.18
430.284	4861.88
430.491	5089.2
430.699	5250.99
430.906	5367.73
431.114	5502.89
431.321	5566.38
431.528	5715.88
431.736	6074.28
431.943	6152.1
432.15	6285.22
432.358	6266.78
432.565	6690.71
432.772	6682.52
432.979	6905.75
433.187	6981.53
433.394	6981.53
433.601	7702.41
433.808	7503.76
434.016	7749.51
434.223	7761.8
434.43	8378.24
434.637	8085.38
434.844	8879.99
435.052	8648.57
435.259	8820.6
435.466	8916.86
435.673	8542.08
435.88	9514.86
436.087	9807.72
436.294	9854.83
436.501	9656.17
436.708	9936.74
436.915	10225.51
437.122	10573.66
437.329	10317.67
437.537	10948.44
437.743	10968.92
437.95	11161.43
438.157	11585.36
438.364	11964.23
438.571	11851.6
438.778	12072.78
438.985	13186.87
439.192	12640.06
439.399	13059.9
439.606	12699.45
439.813	13522.74
440.02	14051.11
440.227	13958.95
440.433	13924.14
440.64	14405.41
440.847	14264.1
441.054	14415.65
441.261	15546.13
441.467	15535.89
441.674	15640.34
441.881	16189.19
442.088	15996.68
442.294	16037.64
442.501	16439.05
442.708	16914.17
442.914	17565.43
443.121	18013.93
443.328	17950.45
443.534	18986.72
443.741	18601.7
443.948	18501.35
444.154	19871.44
444.361	19377.88
444.568	19392.22
444.774	19646.16
444.981	19670.74
445.187	20321.99
445.394	21089.98
445.6	21006.02
445.807	22838.95
446.013	21909.17
446.22	22640.29
446.426	23211.68
446.633	23522.97
446.839	24075.92
447.046	23248.54
447.252	24426.12
447.459	24469.13
447.665	24442.51
447.871	25568.89
448.078	26396.27
448.284	25247.36
448.491	26189.42
448.697	26820.2
448.903	27295.33
449.11	27649.63
449.316	26809.96
449.522	27547.23
449.728	28515.92
449.935	28730.95
450.141	28128.85
450.347	29333.06
450.553	28315.22
450.76	28696.14
450.966	29679.16
451.172	29001.29
451.378	30099
451.584	29582.91
451.791	29814.33
451.997	29746.75
452.203	30565.93
452.409	30565.93
452.615	30647.85
452.821	29259.33
453.027	28878.41
453.233	30420.53
453.44	29255.23
453.646	29601.34
453.852	29793.85
454.058	30041.65
454.264	29199.94
454.47	30068.28
454.676	29017.67
454.882	30344.75
455.088	27500.12
455.294	27756.12
455.5	28134.99
455.705	28493.39
455.911	27444.83
456.117	26599.02
456.323	26455.66
456.529	25570.94
456.735	26189.42
456.941	25484.92
457.147	25099.9
457.352	24290.96
457.558	23801.49
457.764	24106.64
457.97	23733.91
458.176	23096.99
458.381	23129.76
458.587	22193.84
458.793	21984.94
458.999	20715.2
459.204	22529.7
459.41	21853.87
459.616	19922.64
459.821	20418.25
460.027	20321.99
460.233	19795.67
460.438	18781.92
460.644	19205.85
460.85	18235.11
461.055	17837.81
461.261	17784.56
461.466	16623.36
461.672	16238.34
461.878	17012.48
462.083	16240.39
462.289	16035.6
462.494	15560.47
462.7	15089.43
462.905	14487.33
463.111	14845.73
463.316	14858.01
463.522	14827.29
463.727	14595.87
463.932	14892.83
464.138	14649.12
464.343	14585.63
464.549	14276.39
464.754	14614.31
464.959	14530.34
465.165	14511.91
465.37	13788.97
465.575	13434.67
465.781	13940.52
465.986	14104.36
466.191	13573.94
466.397	13358.9
466.602	12656.45
466.807	13053.75
467.012	13217.59
467.218	13240.12
467.423	13000.51
467.628	12949.31
467.833	13793.07
468.038	13084.47
468.244	12715.84
468.449	13401.91
468.654	12848.96
468.859	12609.34
469.064	12443.46
469.269	12185.41
469.474	12269.38
469.679	12719.93
469.885	12209.99
470.09	12322.63
470.295	12150.6
470.5	11808.59
470.705	12048.2
470.91	11544.4
471.115	11536.21
471.32	11806.54
471.525	11573.07
471.73	11341.65
471.935	11253.59
472.139	11022.17
472.344	11186.01
472.549	11108.18
472.754	10874.71
472.959	10739.55
473.164	10735.45
473.369	10452.83
473.574	10762.08
473.778	10735.45
473.983	10377.06
474.188	10276.71
474.393	9803.63
474.598	9899.88
474.802	9899.88
475.007	9813.87
475.212	9961.32
475.417	9359.22
475.621	9551.73
475.826	9658.22
476.031	9346.93
476.235	9228.15
476.44	9371.51
476.645	9176.95
476.849	9142.13
477.054	8972.15
477.259	8832.89
477.463	8920.95
477.668	8578.94
477.872	8849.27
478.077	8734.59
478.282	8214.4
478.486	8372.1
478.691	8451.97
478.895	8175.49
479.1	8222.59
479.304	8288.13
479.509	8114.05
479.713	8099.72
479.918	7972.74
480.122	8058.76
480.326	8124.29
480.531	8056.71
480.735	7925.64
480.94	8025.99
481.144	8007.56
481.348	7565.2
481.553	7817.1
481.757	7538.57
481.961	7837.58
482.166	7784.33
482.37	7683.98
482.574	7718.79
482.778	7688.07
482.983	7722.89
483.187	7554.96
483.391	7741.32
483.595	7532.43
483.8	7505.81
484.004	7794.57
484.208	7872.39
484.412	7585.68
484.616	7706.51
484.821	7745.42
485.025	7440.27
485.229	7579.53
485.433	7755.66
485.637	7761.8
485.841	7415.69
486.045	7526.29
486.249	7616.4
486.453	7694.22
486.657	7569.29
486.861	7571.34
487.065	7481.23
487.269	7554.96
487.473	7614.35
487.677	7761.8
487.881	7593.87
488.085	7739.27
488.289	7718.79
488.493	7554.96
488.697	7600.01
488.901	7919.5
489.105	7450.51
489.309	7710.6
489.512	7692.17
489.716	7683.98
489.92	7722.89
490.124	7804.81
490.328	7829.38
490.531	7647.12
490.735	7835.53
490.939	8040.33
491.143	7874.44
491.346	7747.47
491.55	8015.75
491.754	7886.73
491.958	8048.52
492.161	8042.37
492.365	8034.18
492.569	8030.09
492.772	7962.5
492.976	8132.48
493.18	8105.86
493.383	8206.21
493.587	8208.26
493.79	8320.9
493.994	8152.96
494.197	8361.86
494.401	8437.63
494.605	8476.54
494.808	8605.56
495.012	8556.41
495.215	8568.7
495.419	8822.65
495.622	8576.89
495.825	8621.95
496.029	8900.47
496.232	8904.57
496.436	8937.34
496.639	9236.34
496.843	9123.7
497.046	9308.02
497.249	9355.12
497.453	9551.73
497.656	9688.94
497.859	9637.74
498.063	9594.73
498.266	9992.04
498.469	9797.48
498.673	9822.06
498.876	10094.44
499.079	10182.5
499.282	10086.25
499.485	10334.05
499.689	10248.04
499.892	10622.81
500.095	10473.31
500.298	10835.8
500.501	10682.2
500.705	11016.02
500.908	11333.46
501.111	11312.98
501.314	11333.46
501.517	11462.48
501.72	11749.2
501.923	11536.21
502.126	11804.49
502.329	12005.19
502.532	11956.04
502.735	12162.89
502.938	12457.79
503.141	12693.31
503.344	12867.39
503.547	12762.94
503.75	12906.3
503.953	12889.92
504.156	13008.7
504.359	13373.24
504.562	13358.9
504.765	13520.69
504.968	13618.99
505.17	13700.91
505.373	14049.07
505.576	14350.12
505.779	14364.45
505.982	14499.62
506.185	14710.56
506.387	14796.57
506.59	14976.8
506.793	14974.75
506.996	15001.37
507.198	15685.39
507.401	15222.55
507.604	15529.75
507.807	15806.22
508.009	15787.79
508.212	15904.53
508.415	16348.93
508.617	16553.73
508.82	16445.19
509.022	16353.03
509.225	16897.79
509.428	16981.76
509.63	17237.75
509.833	17209.08
510.035	17628.92
510.238	17499.89
510.44	17710.83
510.643	17811.18
510.845	18286.31
511.048	18132.72
511.25	18583.27
511.453	18384.62
511.655	19060.45
511.858	18693.86
512.06	19130.08
512.262	19248.86
512.465	19457.75
512.667	19662.55
512.87	19773.14
513.072	19875.54
513.274	20268.75
513.477	20281.03
513.679	20664
513.881	20709.06
514.084	20770.5
514.286	20553.41
514.488	21161.66
514.69	21761.72
514.893	21618.36
515.095	21354.17
515.297	21776.05
515.499	21864.11
515.701	22195.89
515.904	22367.91
516.106	22517.42
516.308	22595.24
516.51	22957.73
516.712	22826.66
516.914	23258.78
517.116	23572.12
517.318	23686.81
517.52	23834.26
517.722	23850.64
517.925	23821.97
518.127	24620.68
518.329	24376.97
518.531	24481.42
518.733	25337.47
518.935	25192.06
519.136	25276.03
519.338	25591.42
519.54	25566.84
519.742	26297.97
519.944	25476.73
520.146	26209.9
520.348	26445.42
520.55	26476.14
520.752	26594.92
520.954	27041.38
521.155	26750.57
521.357	27131.49
521.559	27256.42
521.761	27774.55
521.963	27799.13
522.164	27821.66
522.366	28038.74
522.568	28325.46
522.77	28458.57
522.971	28849.74
523.173	28368.46
523.375	28884.55
523.576	29042.24
523.778	28862.02
523.98	29345.34
524.181	29490.75
524.383	29390.4
524.584	29498.94
524.786	29754.94
524.988	29816.38
525.189	30113.33
525.391	29914.68
525.592	30408.24
525.794	30572.08
525.995	30416.43
526.197	30608.94
526.398	30828.07
526.6	31139.36
526.801	31254.05
527.003	30989.86
527.204	31151.65
527.406	31112.74
527.607	31583.77
527.808	31407.65
528.01	31165.99
528.211	31305.25
528.412	31843.87
528.614	31893.02
528.815	31974.94
529.016	31931.93
529.218	31604.25
529.419	32194.07
529.62	32046.62
529.822	31942.17
530.023	32118.29
530.224	32237.08
530.425	32243.22
530.626	32011.8
530.828	31972.89
531.029	32755.21
531.23	32275.99
531.431	32218.64
531.632	32427.54
531.833	32290.32
532.035	33158.66
532.236	32564.75
532.437	32779.79
532.638	32474.64
532.839	32888.33
533.04	32992.78
533.241	32708.11
533.442	33283.59
533.643	33000.97
533.844	32871.95
534.045	33052.17
534.246	32550.42
534.447	33160.71
534.648	32804.36
534.849	33021.45
535.05	32642.57
535.251	32906.76
535.451	32620.05
535.652	33041.93
535.853	32888.33
536.054	33009.16
536.255	33330.69
536.456	32736.78
536.657	33494.53
536.857	32898.57
537.058	32357.91
537.259	33117.7
537.46	32806.41
537.66	32695.82
537.861	32845.32
538.062	32450.06
538.263	32931.34
538.463	32769.55
538.664	32882.19
538.865	32931.34
539.065	33189.38
539.266	32839.18
539.466	33424.9
539.667	32538.13
539.868	33136.13
540.068	32808.46
540.269	32624.14
540.469	32646.67
540.67	32550.42
540.87	32865.8
541.071	32697.87
541.271	33017.35
541.472	32667.15
541.672	32693.77
541.873	32818.7
542.073	32554.51
542.274	32955.91
542.474	32562.7
542.675	32335.38
542.875	32775.69
543.075	32798.22
543.276	32646.67
543.476	32771.6
543.676	32601.61
543.877	32325.14
544.077	32562.7
544.277	32525.84
544.478	32642.57
544.678	32792.08
544.878	32693.77
545.078	32794.12
545.279	32732.68
545.479	32747.02
545.679	32663.05
545.879	32736.78
546.079	32474.64
546.28	32595.47
546.48	32552.46
546.68	32517.65
546.88	32808.46
547.08	32704.01
547.28	32312.85
547.48	32421.39
547.68	32542.22
547.88	32362
548.081	32538.13
548.281	32308.76
548.481	32558.61
548.681	32556.56
548.881	32603.66
549.081	32425.49
549.28	32396.82
549.48	32607.76
549.68	32413.2
549.88	33154.57
550.08	32210.45
550.28	32470.54
550.48	32183.83
550.68	32626.19
550.88	32493.07
551.08	32497.17
551.279	32161.3
551.479	32007.7
551.679	32503.31
551.879	32468.5
552.079	32564.75
552.278	32253.46
552.478	31897.11
552.678	32085.53
552.878	32149.01
553.077	32243.22
553.277	31884.83
553.477	32359.95
553.676	32273.94
553.876	32077.33
554.076	32292.37
554.275	31913.5
554.475	31626.78
554.674	31991.32
554.874	32196.12
555.074	31899.16
555.273	31909.4
555.473	32077.33
555.672	31467.04
555.872	31995.42
556.071	32103.96
556.271	31872.54
556.47	31473.18
556.67	31573.53
556.869	31534.62
557.068	31944.22
557.268	31673.88
557.467	31817.24
557.667	31438.37
557.866	31512.1
558.065	31536.67
558.265	31647.26
558.464	31297.06
558.663	31745.56
558.863	31356.45
559.062	31575.58
559.261	31086.12
559.461	31534.62
559.66	30998.06
559.859	31309.35
560.058	31182.37
560.258	30924.33
560.457	30848.55
560.656	31084.07
560.855	30877.22
561.054	31315.49
561.253	30547.5
561.453	30848.55
561.652	30793.26
561.851	30889.51
562.05	30737.96
562.249	30316.08
562.448	30772.78
562.647	30969.38
562.846	30666.28
563.045	30588.46
563.244	30242.35
563.443	30899.75
563.642	29926.97
563.841	30481.97
564.04	30225.97
564.239	30477.87
564.438	30158.39
564.637	30639.66
564.836	30070.33
565.035	30021.17
565.234	30142
565.432	29767.23
565.631	29861.43
565.83	29677.12
566.029	29679.16
566.228	29554.24
566.427	29922.87
566.625	29644.35
566.824	29300.29
567.023	29802.04
567.222	29056.58
567.42	29734.46
567.619	29468.22
567.818	29521.47
568.016	29001.29
568.215	29273.67
568.414	29197.89
568.612	29132.36
568.811	28739.15
569.01	29142.6
569.208	28534.35
569.407	29214.27
569.605	28980.81
569.804	28841.54
570.002	28497.49
570.201	28972.61
570.4	28362.32
570.598	28472.91
570.797	28390.99
570.995	28446.29
571.193	28190.29
571.392	28638.79
571.59	28075.6
571.789	28208.72
571.987	28034.64
572.186	28155.47
572.384	27860.57
572.582	28145.23
572.781	27973.21
572.979	27547.23
573.177	27479.64
573.376	28042.84
573.574	27387.49
573.772	27909.72
573.971	27532.89
574.169	27541.08
574.367	27389.53
574.565	27362.91
574.763	27420.25
574.962	27348.57
575.16	26746.47
575.358	27289.18
575.556	27018.85
575.754	27229.79
575.952	27033.19
576.151	26824.29
576.349	26617.45
576.547	26707.56
576.745	26775.14
576.943	26787.43
577.141	27033.19
577.339	26879.59
577.537	26707.56
577.735	26637.93
577.933	26289.77
578.131	26562.15
578.329	26330.73
578.527	26316.4
578.725	26109.55
578.923	26353.26
579.121	25982.58
579.319	25642.62
579.516	25945.72
579.714	25753.21
579.912	25937.52
580.11	25634.42
580.308	25728.63
580.506	25597.56
580.704	25214.59
580.901	25884.28
581.099	25710.2
581.297	25185.92
581.495	25423.48
581.692	25181.82
581.89	25161.34
582.088	25370.24
582.285	25142.91
582.483	25200.26
582.681	25310.85
582.878	24602.25
583.076	24553.1
583.274	25134.72
583.471	24417.93
583.669	24628.87
583.866	24385.16
584.064	24483.47
584.262	24086.16
584.459	24444.56
584.657	24252.05
584.854	24585.86
585.052	24077.97
585.249	24176.27
585.447	24399.5
585.644	23834.26
585.841	24032.91
586.039	24170.13
586.236	23801.49
586.434	23887.51
586.631	23502.49
586.828	23846.55
587.026	23666.33
587.223	23525.02
587.42	23467.67
587.618	23688.85
587.815	23338.65
588.012	23262.88
588.21	23164.57
588.407	23441.05
588.604	23137.95
588.801	23127.71
588.999	23221.92
589.196	22671.01
589.393	22943.39
589.59	22867.62
589.787	22611.62
589.984	23221.92
590.182	22576.81
590.379	22689.45
590.576	22451.88
590.773	22378.15
590.97	22380.2
591.167	22484.65
591.364	21964.46
591.561	22156.97
591.758	21919.41
591.955	22054.58
592.152	22116.01
592.349	21978.8
592.546	21833.39
592.743	21864.11
592.94	21751.48
593.137	21765.81
593.334	21761.72
593.531	21354.17
593.727	21499.58
593.924	21593.78
594.121	21294.78
594.318	21618.36
594.515	21141.18
594.712	21823.15
594.908	21270.2
595.105	21632.69
595.302	21380.79
595.499	21143.23
595.696	20924.1
595.892	20965.06
596.089	21061.31
596.286	20698.82
596.482	20674.24
596.679	20643.53
596.876	20647.62
597.072	20287.18
597.269	20739.78
597.466	20342.47
597.662	20483.78
597.859	20399.82
598.055	20244.17
598.252	20287.18
598.448	20174.54
598.645	20315.85
598.841	19871.44
599.038	20147.92
599.234	20037.33
599.431	19539.67
599.627	19578.58
599.824	19799.76
600.02	19279.58
600.217	19746.51
600.413	19881.68
600.609	19582.68
600.806	19207.9
601.002	19465.94
601.198	19252.95
601.395	19146.46
601.591	19199.71
601.787	19289.82
601.984	19033.82
602.18	19246.81
602.376	19050.21
602.572	18808.54
602.769	19046.11
602.965	18749.15
603.161	18790.11
603.357	18546.4
603.553	18548.45
603.75	18693.86
603.946	18570.98
604.142	18603.75
604.338	18173.67
604.534	18454.25
604.73	18312.94
604.926	18013.93
605.122	18478.82
605.318	18097.9
605.514	18036.46
605.71	17981.17
605.906	17696.5
606.102	18003.69
606.298	17958.64
606.494	17952.49
606.69	17757.94
606.886	18003.69
607.082	17575.67
607.278	17755.89
607.474	17413.88
607.67	17733.36
607.866	17739.51
608.062	17839.86
608.257	17501.94
608.453	17612.53
608.649	17288.95
608.845	17415.93
609.041	17362.68
609.236	17440.5
609.432	17143.55
609.628	17391.35
609.824	17446.65
610.019	17121.02
610.215	17155.83
610.411	17270.52
610.606	17032.96
610.802	17090.3
610.998	17008.38
611.193	16989.95
611.389	17301.24
611.584	16811.78
611.78	16819.97
611.976	16916.22
612.171	16662.27
612.367	16543.49
612.562	16881.41
612.758	16613.12
612.953	16449.28
613.149	16748.29
613.344	16498.44
613.539	16582.4
613.735	16606.98
613.93	16658.18
614.126	16510.72
614.321	16635.65
614.517	16758.53
614.712	16570.12
614.907	16310.02
615.103	16508.68
615.298	16375.56
615.493	16606.98
615.688	16176.91
615.884	16484.1
616.079	16230.15
616.274	16361.22
616.47	16226.06
616.665	16178.95
616.86	15906.57
617.055	15869.71
617.25	15779.6
617.445	16197.38
617.641	15765.26
617.836	16029.45
618.031	15748.88
618.226	15789.84
618.421	15736.59
618.616	15925.01
618.811	15578.9
619.006	15871.76
619.201	15542.03
619.396	15736.59
619.591	15327
619.786	15335.19
619.981	15167.26
620.176	15542.03
620.371	15187.74
620.566	15277.85
620.761	15224.6
620.956	15204.12
621.151	14765.85
621.346	15251.22
621.541	14884.64
621.735	15191.83
621.93	14776.09
622.125	14638.88
622.32	14563.11
622.515	14860.06
622.709	14313.25
622.904	14505.76
623.099	14253.86
623.294	14446.37
623.488	14178.09
623.683	14243.62
623.878	14047.02
624.072	14114.6
624.267	13741.87
624.462	13780.78
624.656	13705.01
624.851	13946.67
625.046	13477.68
625.24	13510.45
625.435	13537.07
625.629	13502.26
625.824	13348.66
626.018	13317.94
626.213	12912.44
626.407	13244.21
626.602	12879.68
626.796	12891.96
626.991	12918.59
627.185	12797.76
627.38	12838.72
627.574	12740.41
627.768	12572.48
627.963	12732.22
628.157	12306.24
628.352	12572.48
628.546	12332.87
628.74	12506.95
628.935	12144.45
629.129	12162.89
629.323	11974.47
629.517	11888.46
629.712	11970.38
629.906	11951.95
630.1	11728.72
630.294	11904.84
630.489	11640.65
630.683	11704.14
630.877	11566.93
631.071	11648.85
631.265	11609.93
631.459	11491.15
631.653	11231.06
631.848	11343.7
632.042	11237.2
632.236	11306.84
632.43	11050.84
632.624	11290.45
632.818	11122.52
633.012	10637.15
633.206	11059.03
633.4	10737.5
633.594	10784.6
633.788	10762.08
633.982	10749.79
634.176	10741.6
634.369	10342.24
634.563	10592.09
634.757	10454.88
634.951	10393.44
635.145	10319.71
635.339	10508.13
635.533	10458.98
635.726	10205.03
635.92	10188.64
636.114	10170.21
636.308	10073.96
636.501	9908.07
636.695	9987.94
636.889	10112.87
637.083	9807.72
637.276	9647.98
637.47	9762.67
637.664	9566.06
637.857	9578.35
638.051	9527.15
638.244	9607.02
638.438	9592.69
638.632	9551.73
638.825	9529.2
639.019	9355.12
639.212	9211.76
639.406	9344.88
639.599	9127.8
639.793	9228.15
639.986	8904.57
640.18	9326.45
640.373	9019.25
640.567	8980.34
640.76	8951.67
640.954	8828.79
641.147	8583.04
641.34	8558.46
641.534	8814.46
641.727	8746.87
641.92	8820.6
642.114	8732.54
642.307	8660.86
642.5	8718.2
642.694	8390.53
642.887	8378.24
643.08	8609.66
643.273	8353.66
643.467	8351.62
643.66	8269.7
643.853	8187.78
644.046	8036.23
644.239	8296.32
644.432	8083.33
644.626	8126.34
644.819	8085.38
645.012	8066.95
645.205	8093.57
645.398	8001.41
645.591	7804.81
645.784	7864.2
645.977	7706.51
646.17	7755.66
646.363	7540.62
646.556	7507.85
646.749	7530.38
646.942	7724.94
647.135	7387.02
647.328	7616.4
647.521	7395.22
647.714	7321.49
647.907	7350.16
648.099	7296.91
648.292	7427.98
648.485	7272.34
648.678	7204.75
648.871	7151.51
649.064	7262.1
649.256	7069.59
649.449	7163.79
649.642	7014.29
649.835	6993.81
650.027	6944.66
650.22	6971.29
650.413	6930.33
650.605	6870.94
650.798	6717.34
650.991	6659.99
651.183	6721.43
651.376	6758.3
651.568	6852.5
651.761	6737.82
651.954	6563.74
652.146	6483.87
652.339	6573.98
652.531	6518.68
652.724	6356.89
652.916	6440.86
653.109	6311.84
653.301	6313.89
653.494	6346.66
653.686	6338.46
653.879	6272.93
654.071	6240.16
654.263	6113.19
654.456	6168.48
654.648	6178.72
654.84	6227.87
655.033	5998.5
655.225	6100.9
655.417	6055.84
655.61	6043.56
655.802	5959.59
655.994	5971.88
656.186	6047.65
656.379	5941.16
656.571	5801.9
656.763	5863.33
656.955	5799.85
657.148	5830.57
657.34	5830.57
657.532	5683.11
657.724	5717.93
657.916	5679.02
658.108	5722.02
658.3	5564.33
658.492	5547.95
658.684	5506.99
658.876	5423.02
659.068	5504.94
659.26	5683.11
659.452	5400.49
659.644	5324.72
659.836	5263.28
660.028	5367.73
660.22	5402.54
660.412	5343.15
660.604	5347.25
660.796	5238.7
660.988	5347.25
661.18	5267.38
661.372	5138.35
661.563	5167.03
661.755	5072.82
661.947	5271.47
662.139	4902.84
662.331	5068.72
662.522	4970.42
662.714	4992.95
662.906	4876.21
663.097	5007.28
663.289	4943.8
663.481	4933.56
663.673	4812.73
663.864	4827.06
664.056	4786.1
664.247	4739
664.439	4804.53
664.631	4808.63
664.822	4767.67
665.014	4718.52
665.205	4708.28
665.397	4693.94
665.588	4689.85
665.78	4636.6
665.971	4593.59
666.163	4659.13
666.354	4552.63
666.546	4497.34
666.737	4454.33
666.929	4466.62
667.12	4462.52
667.311	4374.46
667.503	4364.22
667.694	4399.04
667.885	4499.39
668.077	4396.99
668.268	4372.41
668.459	4337.6
668.651	4302.78
668.842	4110.27
669.033	4327.36
669.224	4163.52
669.416	4237.25
669.607	4417.47
669.798	4202.43
669.989	4079.55
670.18	4229.06
670.371	4110.27
670.563	4026.31
670.754	3991.49
670.945	4085.7
671.136	4218.82
671.327	4059.07
671.518	4044.74
671.709	3936.2
671.9	3956.68
672.091	4079.55
672.282	3981.25
672.473	3911.62
672.664	4003.78
672.855	4038.59
673.046	3887.04
673.237	4020.16
673.428	3833.8
673.619	3946.44
673.809	3782.6
674	3848.13
674.191	3983.3
674.382	3753.93
674.573	3936.2
674.764	3856.33
674.954	4005.83
675.145	3672.01
675.336	3850.18
675.527	3796.93
675.717	3672.01
675.908	3758.02
676.099	3717.06
676.289	3692.49
676.48	3661.77
676.671	3659.72
676.861	3905.48
677.052	3653.58
677.243	3588.04
677.433	3700.68
677.624	3585.99
677.814	3624.9
678.005	3583.95
678.195	3592.14
678.386	3581.9
678.576	3559.37
678.767	3745.73
678.957	3545.03
679.148	3588.04
679.338	3493.83
679.529	3618.76
679.719	3497.93
679.909	3708.87
680.1	3469.26
680.29	3471.31
680.481	3377.1
680.671	3651.53
680.861	3557.32
681.052	3502.03
681.242	3442.64
681.432	3459.02
681.622	3407.82
681.813	3461.07
682.003	3471.31
682.193	3485.64
682.383	3577.8
682.573	3393.48
682.764	3481.55
682.954	3551.18
683.144	3411.92
683.334	3364.81
683.524	3256.27
683.714	3416.01
683.904	3383.24
684.094	3430.35
684.284	3377.1
684.474	3446.73
684.664	3375.05
684.854	3344.33
685.044	3381.2
685.234	3286.99
685.424	3223.5
685.614	3291.09
685.804	3252.17
685.994	3166.16
686.184	3182.54
686.374	3188.69
686.564	3172.3
686.753	3299.28
686.943	3246.03
687.133	3047.38
687.323	3110.86
687.513	3071.95
687.702	3035.09
687.892	3063.76
688.082	3112.91
688.272	3092.43
688.461	3067.86
688.651	2959.31
688.841	3006.42
689.03	3033.04
689.22	2965.46
689.41	3020.75
689.599	2942.93
689.789	3016.66
689.979	2951.12
690.168	2967.51
690.358	2901.97
690.547	3045.33
690.737	2879.44
690.926	2781.14
691.116	2805.72
691.305	2856.92
691.495	2742.23
691.684	2656.22
691.874	2875.35
692.063	2764.76
692.252	2725.85
692.442	2768.85
692.631	2662.36
692.82	2650.07
693.01	2693.08
693.199	2656.22
693.388	2848.72
693.578	2621.4
693.767	2574.3
693.956	2598.87
694.146	2621.4
694.335	2592.73
694.524	2635.74
694.713	2480.09
694.902	2596.82
695.092	2621.4
695.281	2471.9
695.47	2574.3
695.659	2424.8
695.848	2488.28
696.037	2420.7
696.226	2453.47
696.415	2451.42
696.604	2502.62
696.793	2410.46
696.982	2471.9
697.171	2389.98
697.36	2418.65
697.549	2279.39
697.738	2351.07
697.927	2449.37
698.116	2381.79
698.305	2422.75
698.494	2359.26
698.683	2349.02
698.872	2363.36
699.061	2230.24
699.25	2445.27
699.438	2193.37
699.627	2289.63
699.816	2371.55
700.005	2428.89
700.193	2265.05
700.382	2316.25
700.571	2281.44
700.76	2152.42
700.948	2322.4
701.137	2336.73
701.326	2265.05
701.514	2297.82
701.703	2291.68
701.892	2201.57
702.08	2142.18
702.269	2310.11
702.457	2242.53
702.646	2332.64
702.834	2172.89
703.023	2168.8
703.212	2211.81
703.4	2101.22
703.589	2263.01
703.777	2185.18
703.965	2203.61
704.154	2263.01
704.342	2191.33
704.531	2209.76
704.719	2064.35
704.907	2193.37
705.096	2039.78
705.284	2142.18
705.472	2193.37
705.661	2140.13
705.849	2189.28
706.037	2148.32
706.226	2234.33
706.414	2111.46
706.602	2199.52
706.79	2103.26
706.979	2113.5
707.167	2101.22
707.355	2174.94
707.543	1990.63
707.731	2166.75
707.919	2127.84
708.107	2224.09
708.296	1959.91
708.484	2060.26
708.672	2232.29
708.86	2172.89
709.048	2090.98
709.236	2099.17
709.424	2207.71
709.612	2271.2
709.8	2088.93
709.988	2121.7
710.176	2146.27
710.364	2070.5
710.551	2236.38
710.739	2138.08
710.927	2140.13
711.115	2144.22
711.303	2164.7
711.491	2140.13
711.679	2220
711.866	2150.37
712.054	2234.33
712.242	2252.77
712.43	2176.99
712.617	2111.46
712.805	2099.17
712.993	2238.43
713.181	2093.02
713.368	2078.69
713.556	2168.8
713.744	2113.5
713.931	2330.59
714.119	2250.72
714.306	2127.84
714.494	2172.89
714.682	2226.14
714.869	2203.61
715.057	2189.28
715.244	2152.42
715.432	2281.44
715.619	2205.66
715.807	2273.25
715.994	2152.42
716.182	2191.33
716.369	2265.05
716.556	2254.81
716.744	2211.81
716.931	2244.57
717.119	2217.95
717.306	2176.99
717.493	2346.97
717.681	2181.09
717.868	2217.95
718.055	2133.98
718.242	2224.09
718.43	2187.23
718.617	2244.57
718.804	2152.42
718.991	2242.53
719.179	2318.3
719.366	2267.1
719.553	2267.1
719.74	2320.35
719.927	2090.98
720.114	2265.05
720.301	2201.57
720.488	2279.39
720.676	2295.77
720.863	2310.11
721.05	2316.25
721.237	2320.35
721.424	2260.96
721.611	2387.93
721.798	2283.49
721.985	2248.67
722.172	2338.78
722.358	2381.79
722.545	2191.33
722.732	2228.19
722.919	2299.87
723.106	2189.28
723.293	2338.78
723.48	2252.77
723.667	2209.76
723.853	2242.53
724.04	2385.88
724.227	2404.32
724.414	2195.42
724.6	2351.07
724.787	2344.92
724.974	2308.06
725.161	2303.96
725.347	2303.96
725.534	2324.44
725.72	2324.44
725.907	2187.23
726.094	2285.53
726.28	2240.48
726.467	2273.25
726.653	2238.43
726.84	2363.36
727.027	2422.75
727.213	2324.44
727.4	2344.92
727.586	2295.77
727.773	2394.08
727.959	2439.13
728.145	2455.51
728.332	2349.02
728.518	2340.83
728.705	2299.87
728.891	2346.97
729.077	2385.88
729.264	2232.29
729.45	2422.75
729.636	2385.88
729.823	2414.56
730.009	2308.06
730.195	2424.8
730.382	2377.69
730.568	2228.19
730.754	2308.06
730.94	2267.1
731.126	2377.69
731.313	2484.19
731.499	2316.25
731.685	2463.71
731.871	2367.45
732.057	2287.58
732.243	2422.75
732.429	2389.98
732.615	2291.68
732.801	2342.88
732.987	2222.05
733.173	2295.77
733.359	2357.21
733.545	2422.75
733.731	2365.4
733.917	2367.45
734.103	2342.88
734.289	2398.17
734.475	2430.94
734.661	2287.58
734.847	2449.37
735.033	2346.97
735.219	2256.86
735.404	2455.51
735.59	2357.21
735.776	2283.49
735.962	2306.01
736.148	2275.29
736.333	2240.48
736.519	2303.96
736.705	2281.44
736.89	2357.21
737.076	2336.73
737.262	2299.87
737.447	2254.81
737.633	2322.4
737.819	2250.72
738.004	2238.43
738.19	2127.84
738.375	2312.16
738.561	2338.78
738.747	2242.53
738.932	2244.57
739.118	2232.29
739.303	2297.82
739.489	2271.2
739.674	2289.63
739.859	2303.96
740.045	2199.52
740.23	2220
740.416	2197.47
740.601	2224.09
740.786	2226.14
740.972	2211.81
741.157	2123.74
741.342	2275.29
741.528	2176.99
741.713	2123.74
741.898	2199.52
742.084	2136.03
742.269	2095.07
742.454	2160.61
742.639	2103.26
742.824	2054.11
743.01	2146.27
743.195	2199.52
743.38	2191.33
743.565	2242.53
743.75	2013.15
743.935	2019.3
744.12	2045.92
744.305	2023.39
744.49	2002.91
744.675	1935.33
744.86	2052.06
745.045	2045.92
745.23	1927.14
745.415	2090.98
745.6	2090.98
745.785	1980.39
745.97	2074.59
746.155	1998.82
746.34	2019.3
746.525	1994.72
746.71	1910.75
746.895	1849.32
747.079	1961.95
747.264	1900.51
747.449	1976.29
747.634	1945.57
747.819	1855.46
748.003	1800.16
748.188	1974.24
748.373	1927.14
748.557	1931.23
748.742	1902.56
748.927	1865.7
749.111	1871.84
749.296	1839.08
749.481	1851.36
749.665	1748.97
749.85	1738.73
750.034	1744.87
750.219	1822.69
750.404	1667.05
750.588	1773.54
750.773	1619.94
750.957	1791.97
751.141	1783.78
751.326	1810.4
751.51	1673.19
751.695	1650.66
751.879	1662.95
752.064	1615.85
752.248	1558.5
752.432	1710.05
752.617	1660.9
752.801	1574.89
752.985	1613.8
753.17	1609.7
753.354	1667.05
753.538	1562.6
753.722	1609.7
753.907	1497.07
754.091	1529.83
754.275	1552.36
754.459	1603.56
754.643	1546.22
754.828	1554.41
755.012	1519.59
755.196	1492.97
755.38	1495.02
755.564	1425.39
755.748	1435.63
755.932	1427.43
756.116	1501.16
756.3	1501.16
756.484	1404.91
756.668	1386.47
756.852	1366
757.036	1366
757.22	1337.32
757.404	1394.67
757.588	1302.51
757.772	1292.27
757.956	1308.65
758.14	1329.13
758.323	1249.26
758.507	1265.64
758.691	1243.12
758.875	1288.17
759.059	1277.93
759.242	1314.8
759.426	1212.4
759.61	1314.8
759.794	1187.82
759.977	1253.36
760.161	1265.64
760.345	1245.16
760.528	1259.5
760.712	1218.54
760.895	1247.21
761.079	1185.77
761.263	1146.86
761.446	1136.62
761.63	1173.49
761.813	1202.16
761.997	1066.99
762.18	1120.24
762.364	1177.58
762.547	1103.86
762.731	1234.93
762.914	1054.7
763.098	1093.62
763.281	1087.47
763.464	1122.29
763.648	1116.14
763.831	1128.43
764.015	1150.96
764.198	1081.33
764.381	1005.55
764.564	1073.14
764.748	1050.61
764.931	1042.42
765.114	1085.42
765.297	1118.19
765.481	1083.38
765.664	1130.48
765.847	1046.51
766.03	1099.76
766.213	1066.99
766.397	1044.46
766.58	931.83
766.763	980.98
766.946	1011.7
767.129	1021.94
767.312	997.36
767.495	1077.23
767.678	911.35
767.861	1124.33
768.044	948.21
768.227	989.17
768.41	989.17
768.593	964.59
768.776	925.68
768.959	983.03
769.142	1009.65
769.324	983.03
769.507	913.39
769.69	987.12
769.873	954.35
770.056	950.26
770.239	935.92
770.421	944.11
770.604	911.35
770.787	974.83
770.97	890.87
771.152	890.87
771.335	843.76
771.518	884.72
771.7	911.35
771.883	886.77
772.066	950.26
772.248	802.8
772.431	937.97
772.613	847.86
772.796	870.39
772.978	933.87
773.161	833.52
773.343	788.47
773.526	860.15
773.708	798.71
773.891	894.96
774.073	767.99
774.256	727.03
774.438	884.72
774.621	767.99
774.803	911.35
774.985	708.6
775.168	845.81
775.35	786.42
775.532	759.8
775.715	659.45
775.897	772.08
776.079	722.93
776.261	800.76
776.444	724.98
776.626	817.14
776.808	735.22
776.99	800.76
777.173	679.93
777.355	722.93
777.537	780.28
777.719	702.45
777.901	681.97
778.083	712.69
778.265	647.16
778.447	729.08
778.629	645.11
778.811	724.98
778.993	651.25
779.175	675.83
779.357	700.41
779.539	645.11
779.721	706.55
779.903	675.83
780.085	645.11
780.267	651.25
780.449	638.97
780.631	649.21
780.812	571.38
780.994	598.01
781.176	643.06
781.358	583.67
781.54	653.3
781.721	595.96
781.903	542.71
782.085	530.42
782.267	610.29
782.448	540.66
782.63	520.18
782.812	628.73
782.993	555
783.175	444.41
783.357	565.24
783.538	530.42
783.72	497.66
783.901	514.04
784.083	557.05
784.264	487.42
784.446	491.51
784.627	423.93
784.809	557.05
784.99	526.33
785.172	577.53
785.353	511.99
785.535	534.52
785.716	471.03
785.897	520.18
786.079	493.56
786.26	405.5
786.441	444.41
786.623	491.51
786.804	464.89
786.985	507.9
787.167	538.62
787.348	413.69
787.529	436.22
787.71	493.56
787.891	407.55
788.073	446.46
788.254	452.6
788.435	374.78
788.616	409.59
788.797	432.12
788.978	411.64
789.159	372.73
789.34	382.97
789.522	409.59
789.703	393.21
789.884	389.11
790.065	382.97
790.246	454.65
790.427	325.63
790.607	430.07
790.788	456.7
790.969	444.41
791.15	354.3
791.331	348.15
791.512	413.69
791.693	382.97
791.874	403.45
792.054	399.35
792.235	362.49
792.416	350.2
792.597	348.15
792.778	354.3
792.958	315.39
793.139	358.39
793.32	372.73
793.5	370.68
793.681	372.73
793.862	370.68
794.042	382.97
794.223	337.91
794.404	337.91
794.584	321.53
794.765	319.48
794.945	335.87
795.126	276.48
795.306	348.15
795.487	380.92
795.667	313.34
795.848	323.58
796.028	272.38
796.209	342.01
796.389	346.11
796.57	333.82
796.75	210.94
796.93	335.87
797.111	272.38
797.291	305.15
797.471	288.76
797.652	237.56
797.832	241.66
798.012	325.63
798.192	247.8
798.373	258.04
798.553	305.15
798.733	282.62
798.913	260.09
799.093	264.19
799.274	194.56
799.454	249.85
799.634	307.2
799.814	348.15
799.994	309.24
800.174	294.91
800.354	276.48
800.534	274.43
800.714	210.94
800.894	251.9
801.074	276.48
801.254	260.09
801.434	253.95
801.614	266.24
801.794	266.24
801.974	624.63
802.154	188.41
802.334	315.39
802.514	225.28
802.693	251.9
802.873	233.47
803.053	303.1
803.233	258.04
803.413	262.14
803.592	212.99
803.772	229.37
803.952	241.66
804.131	264.19
804.311	260.09
804.491	264.19
804.67	176.13
804.85	294.91
805.03	280.57
805.209	235.52
805.389	323.58
805.568	204.8
805.748	264.19
805.928	174.08
806.107	180.22
806.287	268.28
806.466	247.8
806.646	204.8
806.825	184.32
807.004	206.84
807.184	272.38
807.363	182.27
807.543	190.46
807.722	239.61
807.901	204.8
808.081	178.17
808.26	256
808.439	188.41
808.619	184.32
808.798	153.6
808.977	161.79
809.156	196.61
809.336	235.52
809.515	110.59
809.694	172.03
809.873	178.17
810.052	202.75
810.231	208.89
810.411	172.03
810.59	176.13
810.769	133.12
810.948	167.93
811.127	188.41
811.306	116.73
811.485	235.52
811.664	223.23
811.843	147.45
812.022	178.17
812.201	178.17
812.38	229.37
812.559	120.83
812.737	227.32
812.916	165.89
813.095	178.17
813.274	182.27
813.453	159.74
813.632	210.94
813.811	180.22
813.989	180.22
814.168	215.04
814.347	178.17
814.526	264.19
814.704	256
814.883	169.98
815.062	147.45
815.24	235.52
815.419	141.31
815.598	151.55
815.776	235.52
815.955	231.42
816.133	79.87
816.312	225.28
816.49	176.13
816.669	161.79
816.847	174.08
817.026	204.8
817.204	169.98
817.383	143.36
817.561	147.45
817.74	245.76
817.918	110.59
818.097	163.84
818.275	129.02
818.453	79.87
818.632	135.17
818.81	145.41
818.988	151.55
819.167	147.45
819.345	71.68
819.523	174.08
819.701	159.74
819.879	202.75
820.058	147.45
820.236	157.69
820.414	149.5
820.592	102.4
820.77	157.69
820.948	114.69
821.127	49.15
821.305	92.16
821.483	151.55
821.661	212.99
821.839	88.06
822.017	129.02
822.195	126.97
822.373	126.97
822.551	153.6
822.729	122.88
822.907	190.46
823.085	167.93
823.262	55.3
823.44	182.27
823.618	129.02
823.796	81.92
823.974	147.45
824.152	102.4
824.329	98.3
824.507	172.03
824.685	94.21
824.863	77.82
825.04	75.77
825.218	106.49
825.396	145.41
825.574	86.01
825.751	104.45
825.929	167.93
826.107	102.4
826.284	153.6
826.462	118.78
826.639	153.6
826.817	102.4
826.994	108.54
827.172	118.78
827.349	159.74
827.527	112.64
827.704	182.27
827.882	163.84
828.059	133.12
828.237	147.45
828.414	124.93
828.591	75.77
828.769	131.07
828.946	116.73
829.124	124.93
829.301	135.17
829.478	96.25
829.655	126.97
829.833	94.21
830.01	36.86
830.187	45.06
830.364	45.06
830.542	106.49
830.719	124.93
830.896	63.49
831.073	116.73
831.25	47.1
831.427	129.02
831.604	69.63
831.782	83.97
831.959	145.41
832.136	77.82
832.313	94.21
832.49	106.49
832.667	137.21
832.844	98.3
833.021	90.11
833.198	131.07
833.374	43.01
833.551	73.73
833.728	165.89
833.905	110.59
834.082	53.25
834.259	94.21
834.436	139.26
834.612	34.82
834.789	120.83
834.966	86.01
835.143	126.97
835.319	59.39
835.496	86.01
835.673	104.45
835.85	131.07
836.026	149.5
836.203	133.12
836.38	86.01
836.556	126.97
836.733	22.53
836.909	131.07
837.086	73.73
837.262	14.34
837.439	83.97
837.616	104.45
837.792	94.21
837.968	120.83
838.145	88.06
838.321	96.25
838.498	116.73
838.674	57.34
838.851	59.39
839.027	14.34
839.203	51.2
839.38	67.58
839.556	63.49
839.732	28.67
839.909	106.49
840.085	79.87
840.261	81.92
840.437	22.53
840.614	106.49
840.79	92.16
840.966	137.21
841.142	34.82
841.318	110.59
841.494	71.68
841.671	73.73
841.847	40.96
842.023	53.25
842.199	94.21
842.375	75.77
842.551	79.87
842.727	55.3
842.903	92.16
843.079	122.88
843.255	137.21
843.431	126.97
843.607	106.49
843.783	2.05
843.959	47.1
844.134	55.3
844.31	75.77
844.486	51.2
844.662	122.88
844.838	34.82
845.013	40.96
845.189	75.77
845.365	90.11
845.541	59.39
845.716	61.44
845.892	28.67
846.068	104.45
846.244	34.82
846.419	38.91
846.595	102.4
846.77	43.01
846.946	120.83
847.122	90.11
847.297	96.25
847.473	135.17
847.648	79.87
847.824	88.06
847.999	108.54
848.175	36.86
848.35	108.54
848.526	75.77
848.701	18.43
848.876	73.73
849.052	100.35
849.227	75.77
849.403	131.07
849.578	28.67
849.753	49.15
849.929	34.82
850.104	88.06
850.279	79.87
850.454	129.02
850.63	81.92
850.805	49.15
850.98	40.96
851.155	67.58
851.33	36.86
851.505	71.68
851.681	47.1
851.856	-14.34
852.031	63.49
852.206	51.2
852.381	81.92
852.556	92.16
852.731	38.91
852.906	49.15
853.081	53.25
853.256	92.16
853.431	81.92
853.606	112.64
853.781	49.15
853.956	12.29
854.131	4.1
854.305	51.2
854.48	49.15
854.655	28.67
854.83	47.1
855.005	-2.05
855.18	100.35
855.354	79.87
855.529	26.62
855.704	34.82
855.879	6.14
856.053	36.86
856.228	38.91
856.403	88.06
856.577	79.87
856.752	-2.05
856.926	79.87
857.101	-26.62
857.276	-16.38
857.45	-10.24
857.625	98.3
857.799	26.62
857.974	67.58
858.148	79.87
858.323	12.29
858.497	75.77
858.672	38.91
858.846	28.67
859.02	49.15
859.195	28.67
859.369	6.14
859.543	20.48
859.718	59.39
859.892	63.49
860.066	92.16
860.241	40.96
860.415	10.24
860.589	30.72
860.763	30.72
860.938	6.14
861.112	65.54
861.286	83.97
861.46	47.1
861.634	61.44
861.808	-38.91
861.982	-40.96
862.157	-28.67
862.331	30.72
862.505	73.73
862.679	-4.1
862.853	4.1
863.027	22.53
863.201	57.34
863.375	28.67
863.549	96.25
863.722	83.97
863.896	133.12
864.07	69.63
864.244	51.2
864.418	57.34
864.592	30.72
864.766	73.73
864.939	6.14
865.113	73.73
865.287	75.77
865.461	40.96
865.634	30.72
865.808	2.05
865.982	0
866.156	22.53
866.329	-14.34
866.503	104.45
866.676	104.45
866.85	43.01
867.024	-40.96
867.197	22.53
867.371	55.3
867.544	63.49
867.718	2.05
867.891	133.12
868.065	26.62
868.238	57.34
868.412	65.54
868.585	67.58
868.759	-28.67
868.932	8.19
869.105	69.63
869.279	30.72
869.452	38.91
869.625	4.1
869.799	77.82
869.972	88.06
870.145	30.72
870.319	43.01
870.492	94.21
870.665	79.87
870.838	-6.14
871.011	6.14
871.185	63.49
871.358	36.86
871.531	83.97
871.704	-69.63
871.877	30.72
872.05	-2.05
872.223	92.16
872.396	28.67
872.569	40.96
872.742	16.38
872.915	45.06
873.088	30.72
873.261	-16.38
873.434	77.82
873.607	49.15
873.78	12.29
873.953	30.72
874.126	75.77
874.299	47.1
874.471	30.72
874.644	69.63
874.817	47.1
874.99	36.86
875.163	55.3
875.335	71.68
875.508	71.68
875.681	79.87
875.853	6.14
876.026	6.14
876.199	-6.14
876.371	59.39
876.544	36.86
876.717	22.53
876.889	-10.24
877.062	59.39
877.234	63.49
877.407	-2.05
877.579	4.1
877.752	-10.24
877.924	104.45
878.097	63.49
878.269	24.58
878.442	10.24
878.614	118.78
878.786	40.96
878.959	-28.67
879.131	-30.72
879.303	20.48
879.476	61.44
879.648	-20.48
879.82	43.01
879.993	53.25
880.165	-6.14
880.337	-10.24
880.509	2.05
880.681	22.53
880.854	53.25
881.026	-20.48
881.198	32.77
881.37	98.3
881.542	20.48
881.714	-32.77
881.886	22.53
882.058	22.53
882.23	32.77
882.402	38.91
882.574	71.68
882.746	67.58
882.918	116.73
883.09	-18.43
883.262	45.06
883.434	-14.34
883.606	22.53
883.778	-30.72
883.95	65.54
884.122	-12.29
884.293	18.43
884.465	79.87
884.637	55.3
884.809	14.34
884.98	55.3
885.152	2.05
885.324	129.02
885.496	53.25
885.667	28.67
885.839	-49.15
886.011	14.34
886.182	6.14
886.354	-12.29
886.525	22.53
886.697	55.3
886.869	-16.38
887.04	-10.24
887.212	-10.24
887.383	69.63
887.555	-2.05
887.726	2.05
887.897	43.01
888.069	36.86
888.24	22.53
888.412	0
888.583	-4.1
888.754	-6.14
888.926	-20.48
889.097	2.05
889.268	55.3
889.44	77.82
889.611	-12.29
889.782	-43.01
889.953	-28.67
890.125	-63.49
890.296	0
890.467	2.05
890.638	14.34
890.809	4.1
890.98	-10.24
891.151	71.68
891.323	73.73
891.494	-8.19
891.665	98.3
891.836	81.92
892.007	30.72
892.178	12.29
892.349	-61.44
892.52	14.34
892.691	45.06
892.862	-4.1
893.032	-36.86
893.203	26.62
893.374	-10.24
893.545	-8.19
893.716	22.53
893.887	-10.24
894.057	36.86
894.228	143.36
894.399	16.38
894.57	98.3
894.74	-26.62
894.911	43.01
895.082	-2.05
895.253	4.1
895.423	16.38
895.594	2.05
895.764	73.73
895.935	-8.19
896.106	4.1
896.276	14.34
896.447	20.48
896.617	59.39
896.788	18.43
896.958	79.87
897.129	-2.05
897.299	32.77
897.47	86.01
897.64	53.25
897.81	-6.14
897.981	28.67
898.151	40.96
898.322	-18.43
898.492	51.2
898.662	20.48
898.832	-20.48
899.003	-8.19
899.173	26.62
899.343	59.39
899.513	71.68
