Data from USB4F104151__1__11-36-14-513.txt Node

Date: Fri Mar 14 11:36:14 EDT 2025
User: louis
Spectrometer: USB4F10415
Trigger mode: 4
Integration Time (sec): 2.000000E-2
Scans to average: 1
Electric dark correction enabled: true
Nonlinearity correction enabled: false
Boxcar width: 0
XAxis mode: Wavelengths
Number of Pixels in Spectrum: 3648
>>>>>Begin Spectral Data<<<<<
178.204	-59.73
178.424	-59.73
178.644	-59.73
178.864	-14.68
179.084	-57.68
179.304	-12.63
179.524	16.04
179.744	13.99
179.964	22.19
180.184	-43.35
180.404	5.8
180.624	13.99
180.844	52.91
181.064	-12.63
181.283	-35.16
181.503	5.8
181.723	-26.96
181.943	-24.92
182.163	54.95
182.383	24.23
182.602	85.67
182.822	26.28
183.042	-37.2
183.262	-33.11
183.482	-47.44
183.701	83.63
183.921	20.14
184.141	3.75
184.361	-4.44
184.58	-2.39
184.8	-35.16
185.02	9.9
185.239	48.81
185.459	-6.49
185.679	28.33
185.898	26.28
186.118	54.95
186.338	81.58
186.557	106.15
186.777	13.99
186.997	13.99
187.216	24.23
187.436	13.99
187.655	13.99
187.875	40.62
188.095	9.9
188.314	46.76
188.534	-6.49
188.753	-8.53
188.973	79.53
189.192	-14.68
189.412	87.72
189.631	85.67
189.851	36.52
190.07	87.72
190.29	18.09
190.509	-8.53
190.729	30.38
190.948	128.68
191.168	75.43
191.387	11.95
191.607	-61.78
191.826	9.9
192.045	87.72
192.265	57
192.484	52.91
192.704	65.19
192.923	18.09
193.142	18.09
193.362	65.19
193.581	16.04
193.8	18.09
194.02	-8.53
194.239	-14.68
194.458	42.67
194.678	-6.49
194.897	5.8
195.116	22.19
195.335	26.28
195.555	50.86
195.774	28.33
195.993	-45.4
196.212	26.28
196.432	-123.22
196.651	18.09
196.87	-31.06
197.089	100.01
197.308	59.05
197.528	91.82
197.747	7.85
197.966	20.14
198.185	24.23
198.404	-0.34
198.623	95.91
198.842	48.81
199.062	59.05
199.281	50.86
199.5	-22.87
199.719	83.63
199.938	13.99
200.157	11.95
200.376	28.33
200.595	26.28
200.814	11.95
201.033	26.28
201.252	36.52
201.471	52.91
201.69	57
201.909	75.43
202.128	-6.49
202.347	22.19
202.566	-18.77
202.785	-10.58
203.004	16.04
203.223	159.4
203.442	-14.68
203.661	30.38
203.879	95.91
204.098	44.71
204.317	-47.44
204.536	46.76
204.755	97.96
204.974	34.47
205.193	85.67
205.411	73.39
205.63	85.67
205.849	38.57
206.068	-2.39
206.287	-20.82
206.505	83.63
206.724	-45.4
206.943	-24.92
207.162	44.71
207.381	77.48
207.599	50.86
207.818	-18.77
208.037	57
208.255	9.9
208.474	38.57
208.693	83.63
208.911	93.87
209.13	73.39
209.349	28.33
209.567	38.57
209.786	1.71
210.005	48.81
210.223	5.8
210.442	71.34
210.661	30.38
210.879	7.85
211.098	5.8
211.316	73.39
211.535	42.67
211.753	-6.49
211.972	85.67
212.191	67.24
212.409	54.95
212.628	-31.06
212.846	34.47
213.065	61.1
213.283	79.53
213.502	-2.39
213.72	1.71
213.938	-18.77
214.157	18.09
214.375	-20.82
214.594	20.14
214.812	34.47
215.031	75.43
215.249	18.09
215.467	75.43
215.686	-14.68
215.904	63.15
216.122	-14.68
216.341	87.72
216.559	-63.83
216.778	57
216.996	30.38
217.214	32.43
217.432	52.91
217.651	22.19
217.869	57
218.087	1.71
218.306	-33.11
218.524	9.9
218.742	42.67
218.96	52.91
219.179	-22.87
219.397	26.28
219.615	67.24
219.833	28.33
220.051	-37.2
220.27	59.05
220.488	7.85
220.706	-10.58
220.924	-22.87
221.142	34.47
221.36	-16.73
221.578	22.19
221.796	-4.44
222.015	46.76
222.233	-12.63
222.451	50.86
222.669	36.52
222.887	48.81
223.105	50.86
223.323	-18.77
223.541	-16.73
223.759	-6.49
223.977	50.86
224.195	97.96
224.413	38.57
224.631	100.01
224.849	-26.96
225.067	36.52
225.285	18.09
225.503	26.28
225.721	44.71
225.939	28.33
226.157	75.43
226.375	59.05
226.592	24.23
226.81	13.99
227.028	36.52
227.246	32.43
227.464	-10.58
227.682	11.95
227.9	57
228.117	18.09
228.335	67.24
228.553	-10.58
228.771	18.09
228.989	100.01
229.206	5.8
229.424	28.33
229.642	-0.34
229.86	-10.58
230.077	20.14
230.295	5.8
230.513	85.67
230.731	77.48
230.948	73.39
231.166	3.75
231.384	40.62
231.601	50.86
231.819	81.58
232.037	18.09
232.254	18.09
232.472	46.76
232.689	32.43
232.907	71.34
233.125	20.14
233.342	24.23
233.56	48.81
233.777	54.95
233.995	30.38
234.213	83.63
234.43	-6.49
234.648	63.15
234.865	40.62
235.083	5.8
235.3	13.99
235.518	118.44
235.735	5.8
235.953	59.05
236.17	77.48
236.388	85.67
236.605	18.09
236.822	61.1
237.04	61.1
237.257	67.24
237.475	1.71
237.692	57
237.909	26.28
238.127	65.19
238.344	42.67
238.562	71.34
238.779	7.85
238.996	26.28
239.214	-51.54
239.431	-18.77
239.648	61.1
239.865	24.23
240.083	40.62
240.3	-43.35
240.517	22.19
240.735	18.09
240.952	46.76
241.169	93.87
241.386	30.38
241.603	5.8
241.821	54.95
242.038	93.87
242.255	67.24
242.472	16.04
242.689	83.63
242.907	108.2
243.124	20.14
243.341	-2.39
243.558	16.04
243.775	22.19
243.992	-10.58
244.209	42.67
244.426	28.33
244.643	79.53
244.86	40.62
245.078	7.85
245.295	48.81
245.512	30.38
245.729	9.9
245.946	42.67
246.163	106.15
246.38	36.52
246.597	1.71
246.814	30.38
247.031	34.47
247.248	38.57
247.464	-49.49
247.681	34.47
247.898	-31.06
248.115	46.76
248.332	22.19
248.549	-12.63
248.766	26.28
248.983	155.3
249.2	63.15
249.417	89.77
249.633	65.19
249.85	7.85
250.067	22.19
250.284	81.58
250.501	-22.87
250.717	89.77
250.934	-10.58
251.151	13.99
251.368	79.53
251.585	34.47
251.801	79.53
252.018	50.86
252.235	75.43
252.451	38.57
252.668	61.1
252.885	32.43
253.102	40.62
253.318	75.43
253.535	40.62
253.752	-55.64
253.968	-8.53
254.185	71.34
254.401	34.47
254.618	73.39
254.835	63.15
255.051	13.99
255.268	7.85
255.484	36.52
255.701	18.09
255.917	52.91
256.134	100.01
256.351	57
256.567	-31.06
256.784	9.9
257	20.14
257.217	24.23
257.433	5.8
257.65	67.24
257.866	100.01
258.082	5.8
258.299	-8.53
258.515	-24.92
258.732	1.71
258.948	52.91
259.165	93.87
259.381	30.38
259.597	9.9
259.814	59.05
260.03	59.05
260.246	-8.53
260.463	44.71
260.679	-22.87
260.895	48.81
261.112	42.67
261.328	22.19
261.544	89.77
261.761	46.76
261.977	-18.77
262.193	-8.53
262.409	-26.96
262.626	3.75
262.842	42.67
263.058	-33.11
263.274	42.67
263.49	26.28
263.707	7.85
263.923	75.43
264.139	-90.45
264.355	-29.01
264.571	38.57
264.787	-51.54
265.004	9.9
265.22	59.05
265.436	7.85
265.652	-26.96
265.868	79.53
266.084	1.71
266.3	9.9
266.516	3.75
266.732	83.63
266.948	9.9
267.164	40.62
267.38	28.33
267.596	83.63
267.812	40.62
268.028	44.71
268.244	44.71
268.46	-10.58
268.676	-22.87
268.892	65.19
269.108	-33.11
269.324	18.09
269.54	-10.58
269.756	40.62
269.972	-6.49
270.188	13.99
270.403	48.81
270.619	46.76
270.835	28.33
271.051	69.29
271.267	50.86
271.483	-0.34
271.698	-39.25
271.914	30.38
272.13	59.05
272.346	75.43
272.562	46.76
272.777	59.05
272.993	26.28
273.209	63.15
273.425	-8.53
273.64	-20.82
273.856	13.99
274.072	13.99
274.287	-14.68
274.503	63.15
274.719	5.8
274.934	48.81
275.15	1.71
275.366	-45.4
275.581	-2.39
275.797	18.09
276.012	40.62
276.228	26.28
276.444	-26.96
276.659	52.91
276.875	-4.44
277.09	-43.35
277.306	73.39
277.521	83.63
277.737	3.75
277.952	-14.68
278.168	5.8
278.383	77.48
278.599	-31.06
278.814	7.85
279.03	52.91
279.245	81.58
279.461	-53.59
279.676	1.71
279.892	57
280.107	24.23
280.322	13.99
280.538	75.43
280.753	-8.53
280.969	46.76
281.184	71.34
281.399	65.19
281.615	1.71
281.83	26.28
282.045	50.86
282.26	34.47
282.476	22.19
282.691	69.29
282.906	81.58
283.122	81.58
283.337	-0.34
283.552	151.21
283.767	67.24
283.983	81.58
284.198	20.14
284.413	24.23
284.628	-6.49
284.843	-14.68
285.058	-47.44
285.274	-6.49
285.489	9.9
285.704	77.48
285.919	42.67
286.134	-16.73
286.349	26.28
286.564	71.34
286.779	116.39
286.995	-6.49
287.21	22.19
287.425	30.38
287.64	18.09
287.855	48.81
288.07	-20.82
288.285	48.81
288.5	34.47
288.715	73.39
288.93	26.28
289.145	54.95
289.36	24.23
289.575	-26.96
289.79	52.91
290.004	11.95
290.219	40.62
290.434	1.71
290.649	30.38
290.864	93.87
291.079	95.91
291.294	44.71
291.509	69.29
291.724	30.38
291.938	30.38
292.153	42.67
292.368	30.38
292.583	91.82
292.798	73.39
293.012	122.54
293.227	71.34
293.442	50.86
293.657	44.71
293.871	73.39
294.086	71.34
294.301	1.71
294.516	40.62
294.73	11.95
294.945	-16.73
295.16	-4.44
295.374	18.09
295.589	9.9
295.804	57
296.018	48.81
296.233	85.67
296.447	28.33
296.662	61.1
296.877	87.72
297.091	18.09
297.306	-16.73
297.52	-49.49
297.735	42.67
297.949	24.23
298.164	57
298.378	-67.92
298.593	-14.68
298.807	16.04
299.022	57
299.236	50.86
299.451	32.43
299.665	-33.11
299.88	-10.58
300.094	18.09
300.309	36.52
300.523	1.71
300.737	61.1
300.952	22.19
301.166	73.39
301.381	9.9
301.595	85.67
301.809	-39.25
302.024	91.82
302.238	54.95
302.452	124.58
302.667	-39.25
302.881	102.06
303.095	100.01
303.309	-6.49
303.524	1.71
303.738	-41.3
303.952	46.76
304.166	75.43
304.381	18.09
304.595	71.34
304.809	65.19
305.023	5.8
305.237	1.71
305.452	85.67
305.666	57
305.88	83.63
306.094	46.76
306.308	13.99
306.522	18.09
306.736	106.15
306.95	44.71
307.164	28.33
307.379	30.38
307.593	36.52
307.807	57
308.021	40.62
308.235	-20.82
308.449	48.81
308.663	9.9
308.877	85.67
309.091	40.62
309.305	65.19
309.519	9.9
309.733	87.72
309.947	-2.39
310.161	108.2
310.374	-0.34
310.588	18.09
310.802	-80.21
311.016	11.95
311.23	42.67
311.444	18.09
311.658	42.67
311.872	85.67
312.085	30.38
312.299	65.19
312.513	73.39
312.727	57
312.941	-18.77
313.154	46.76
313.368	44.71
313.582	11.95
313.796	-10.58
314.009	44.71
314.223	-2.39
314.437	59.05
314.651	93.87
314.864	22.19
315.078	54.95
315.292	-41.3
315.505	71.34
315.719	50.86
315.933	-12.63
316.146	-53.59
316.36	11.95
316.573	48.81
316.787	128.68
317.001	36.52
317.214	24.23
317.428	124.58
317.641	-0.34
317.855	38.57
318.068	-22.87
318.282	42.67
318.495	91.82
318.709	42.67
318.922	50.86
319.136	71.34
319.349	-31.06
319.563	-14.68
319.776	102.06
319.99	26.28
320.203	89.77
320.417	18.09
320.63	-2.39
320.843	1.71
321.057	63.15
321.27	24.23
321.483	-8.53
321.697	-74.07
321.91	77.48
322.124	65.19
322.337	26.28
322.55	24.23
322.763	75.43
322.977	73.39
323.19	81.58
323.403	44.71
323.617	9.9
323.83	67.24
324.043	-6.49
324.256	1.71
324.469	18.09
324.683	61.1
324.896	40.62
325.109	50.86
325.322	75.43
325.535	85.67
325.748	73.39
325.962	18.09
326.175	26.28
326.388	95.91
326.601	-65.88
326.814	44.71
327.027	-4.44
327.24	124.58
327.453	-18.77
327.666	3.75
327.879	-2.39
328.092	59.05
328.305	18.09
328.518	-8.53
328.731	44.71
328.944	-14.68
329.157	-31.06
329.37	-43.35
329.583	136.87
329.796	61.1
330.009	61.1
330.222	81.58
330.435	73.39
330.648	63.15
330.861	54.95
331.073	36.52
331.286	83.63
331.499	100.01
331.712	-2.39
331.925	54.95
332.138	75.43
332.35	81.58
332.563	42.67
332.776	52.91
332.989	73.39
333.202	71.34
333.414	28.33
333.627	-22.87
333.84	73.39
334.053	108.2
334.265	50.86
334.478	91.82
334.691	59.05
334.903	36.52
335.116	-16.73
335.329	48.81
335.541	59.05
335.754	61.1
335.966	59.05
336.179	46.76
336.392	5.8
336.604	32.43
336.817	108.2
337.029	54.95
337.242	-0.34
337.454	46.76
337.667	57
337.88	126.63
338.092	85.67
338.305	69.29
338.517	18.09
338.729	79.53
338.942	48.81
339.154	-10.58
339.367	44.71
339.579	71.34
339.792	50.86
340.004	118.44
340.217	128.68
340.429	63.15
340.641	-14.68
340.854	81.58
341.066	73.39
341.278	52.91
341.491	18.09
341.703	13.99
341.915	63.15
342.128	67.24
342.34	5.8
342.552	46.76
342.764	-6.49
342.977	-10.58
343.189	93.87
343.401	97.96
343.613	83.63
343.826	65.19
344.038	155.3
344.25	30.38
344.462	34.47
344.674	63.15
344.886	-0.34
345.099	73.39
345.311	28.33
345.523	30.38
345.735	38.57
345.947	18.09
346.159	81.58
346.371	93.87
346.583	93.87
346.795	40.62
347.007	-2.39
347.219	79.53
347.431	7.85
347.643	87.72
347.855	3.75
348.067	-18.77
348.279	-2.39
348.491	-0.34
348.703	34.47
348.915	71.34
349.127	42.67
349.339	91.82
349.551	-55.64
349.763	73.39
349.975	11.95
350.187	124.58
350.399	9.9
350.61	18.09
350.822	59.05
351.034	79.53
351.246	5.8
351.458	63.15
351.669	22.19
351.881	-20.82
352.093	22.19
352.305	79.53
352.517	114.34
352.728	50.86
352.94	13.99
353.152	26.28
353.363	69.29
353.575	18.09
353.787	83.63
353.999	42.67
354.21	71.34
354.422	85.67
354.633	-6.49
354.845	-37.2
355.057	44.71
355.268	79.53
355.48	-0.34
355.692	-8.53
355.903	48.81
356.115	-6.49
356.326	-35.16
356.538	102.06
356.749	59.05
356.961	100.01
357.172	114.34
357.384	54.95
357.595	79.53
357.807	9.9
358.018	18.09
358.23	46.76
358.441	75.43
358.653	120.49
358.864	24.23
359.075	-26.96
359.287	91.82
359.498	83.63
359.709	46.76
359.921	79.53
360.132	-53.59
360.344	3.75
360.555	3.75
360.766	67.24
360.977	34.47
361.189	67.24
361.4	30.38
361.611	40.62
361.823	28.33
362.034	-0.34
362.245	-37.2
362.456	46.76
362.667	95.91
362.879	167.59
363.09	22.19
363.301	46.76
363.512	7.85
363.723	32.43
363.935	-0.34
364.146	48.81
364.357	48.81
364.568	44.71
364.779	30.38
364.99	18.09
365.201	-2.39
365.412	30.38
365.623	-6.49
365.834	57
366.045	46.76
366.256	73.39
366.467	30.38
366.678	34.47
366.889	-18.77
367.1	63.15
367.311	57
367.522	30.38
367.733	79.53
367.944	40.62
368.155	34.47
368.366	44.71
368.577	32.43
368.788	50.86
368.999	-8.53
369.209	26.28
369.42	18.09
369.631	79.53
369.842	100.01
370.053	34.47
370.264	63.15
370.474	59.05
370.685	46.76
370.896	26.28
371.107	71.34
371.317	116.39
371.528	26.28
371.739	54.95
371.95	67.24
372.16	100.01
372.371	32.43
372.582	-0.34
372.792	114.34
373.003	22.19
373.214	-6.49
373.424	75.43
373.635	73.39
373.846	18.09
374.056	-2.39
374.267	48.81
374.477	7.85
374.688	100.01
374.898	-8.53
375.109	40.62
375.319	42.67
375.53	112.3
375.74	36.52
375.951	59.05
376.161	16.04
376.372	28.33
376.582	44.71
376.793	46.76
377.003	13.99
377.214	38.57
377.424	71.34
377.635	-4.44
377.845	50.86
378.055	32.43
378.266	-6.49
378.476	42.67
378.686	13.99
378.897	18.09
379.107	36.52
379.317	42.67
379.528	24.23
379.738	73.39
379.948	-14.68
380.158	65.19
380.369	1.71
380.579	91.82
380.789	28.33
380.999	1.71
381.21	42.67
381.42	93.87
381.63	87.72
381.84	32.43
382.05	83.63
382.261	73.39
382.471	100.01
382.681	44.71
382.891	67.24
383.101	87.72
383.311	28.33
383.521	-22.87
383.731	40.62
383.941	57
384.151	73.39
384.361	50.86
384.571	87.72
384.781	52.91
384.991	73.39
385.201	143.02
385.411	1.71
385.621	118.44
385.831	106.15
386.041	20.14
386.251	26.28
386.461	18.09
386.671	-0.34
386.881	108.2
387.091	89.77
387.301	91.82
387.511	69.29
387.72	1.71
387.93	26.28
388.14	108.2
388.35	36.52
388.56	79.53
388.769	7.85
388.979	30.38
389.189	-2.39
389.399	54.95
389.609	5.8
389.818	106.15
390.028	57
390.238	57
390.447	7.85
390.657	69.29
390.867	59.05
391.076	34.47
391.286	-24.92
391.496	-6.49
391.705	59.05
391.915	85.67
392.125	104.11
392.334	91.82
392.544	34.47
392.753	57
392.963	16.04
393.172	91.82
393.382	67.24
393.591	59.05
393.801	32.43
394.01	118.44
394.22	42.67
394.429	-8.53
394.639	46.76
394.848	1.71
395.058	42.67
395.267	75.43
395.477	63.15
395.686	57
395.895	140.97
396.105	136.87
396.314	26.28
396.524	87.72
396.733	114.34
396.942	116.39
397.152	122.54
397.361	91.82
397.57	83.63
397.78	112.3
397.989	147.11
398.198	59.05
398.407	108.2
398.617	32.43
398.826	18.09
399.035	-55.64
399.244	130.73
399.453	71.34
399.663	32.43
399.872	91.82
400.081	38.57
400.29	93.87
400.499	77.48
400.708	63.15
400.917	13.99
401.127	50.86
401.336	28.33
401.545	134.82
401.754	102.06
401.963	91.82
402.172	24.23
402.381	108.2
402.59	65.19
402.799	79.53
403.008	75.43
403.217	102.06
403.426	83.63
403.635	102.06
403.844	63.15
404.053	145.06
404.262	132.78
404.471	210.6
404.68	147.11
404.888	87.72
405.097	85.67
405.306	128.68
405.515	104.11
405.724	77.48
405.933	128.68
406.142	91.82
406.35	134.82
406.559	124.58
406.768	153.26
406.977	130.73
407.185	157.35
407.394	128.68
407.603	210.6
407.812	173.74
408.02	87.72
408.229	181.93
408.438	194.22
408.646	196.26
408.855	243.37
409.064	261.8
409.272	161.45
409.481	257.7
409.69	198.31
409.898	179.88
410.107	202.41
410.315	265.89
410.524	214.7
410.733	226.98
410.941	278.18
411.15	239.27
411.358	353.96
411.567	292.52
411.775	319.14
411.984	321.19
412.192	353.96
412.401	386.72
412.609	378.53
412.818	349.86
413.026	376.48
413.234	366.25
413.443	380.58
413.651	491.17
413.86	396.96
414.068	419.49
414.276	466.6
414.485	478.88
414.693	460.45
414.901	499.36
415.11	525.99
415.318	525.99
415.526	609.95
415.734	630.43
415.943	558.75
416.151	665.25
416.359	669.34
416.567	671.39
416.776	646.82
416.984	640.67
417.192	743.07
417.4	718.5
417.608	702.11
417.817	767.65
418.025	808.61
418.233	927.39
418.441	833.18
418.649	837.28
418.857	970.4
419.065	984.73
419.273	878.24
419.481	988.83
419.689	1123.99
419.897	1048.22
420.105	1048.22
420.313	1085.08
420.521	1146.52
420.729	1189.53
420.937	1287.83
421.145	1396.37
421.353	1353.37
421.561	1361.56
421.769	1410.71
421.977	1439.38
422.185	1402.52
422.393	1662.61
422.601	1767.06
422.809	1570.45
423.017	1681.04
423.224	1726.1
423.432	1869.45
423.64	1918.61
423.848	1998.48
424.056	1894.03
424.263	2180.75
424.471	2186.89
424.679	2160.27
424.887	2303.62
425.094	2352.77
425.302	2334.34
425.51	2393.73
425.718	2549.38
425.925	2469.51
426.133	2662.02
426.341	2803.33
426.548	2897.53
426.756	2844.29
426.964	2825.86
427.171	2991.74
427.379	3167.87
427.586	3176.06
427.794	3270.26
428.001	3526.26
428.209	3657.33
428.417	3571.32
428.624	3833.46
428.832	3851.89
429.039	3909.23
429.247	3929.71
429.454	4134.51
429.662	4437.61
429.869	4210.28
430.076	4474.47
430.284	4476.52
430.491	4472.42
430.699	4720.23
430.906	4683.36
431.114	4847.2
431.321	4931.17
431.528	5197.4
431.736	5430.87
431.943	5690.96
432.15	5492.31
432.358	5584.47
432.565	5840.47
432.772	5836.37
432.979	6170.19
433.187	6229.58
433.394	6350.41
433.601	6864.45
433.808	6776.39
434.016	6827.59
434.223	6897.22
434.43	7372.35
434.637	7323.19
434.844	7599.67
435.052	7751.22
435.259	7833.14
435.466	7935.54
435.673	7716.4
435.88	8379.95
436.087	8914.47
436.294	8975.91
436.501	8476.2
436.708	8820.26
436.915	8902.18
437.122	9668.12
437.329	9528.86
437.537	9913.88
437.743	9780.76
437.95	9709.08
438.157	10599.94
438.364	10632.71
438.571	10636.81
438.778	10806.79
438.985	11957.75
439.192	11204.1
439.399	11648.5
439.606	11349.5
439.813	11722.23
440.02	12793.32
440.227	12527.08
440.433	12332.53
440.64	12840.42
440.847	12762.6
441.054	13293.02
441.261	13813.21
441.467	13907.41
441.674	14007.76
441.881	14493.13
442.088	14366.16
442.294	14425.55
442.501	14882.25
442.708	14853.58
442.914	15607.23
443.121	16209.33
443.328	15930.81
443.534	16805.29
443.741	16367.02
443.948	16115.12
444.154	17382.82
444.361	17376.67
444.568	17794.46
444.774	17370.53
444.981	17751.45
445.187	18193.81
445.394	18939.27
445.6	18619.79
445.807	20340.08
446.013	19522.94
446.22	19697.02
446.426	20845.93
446.633	20784.49
446.839	21751.13
447.046	20807.02
447.252	21865.82
447.459	21792.09
447.665	21718.37
447.871	22607.19
448.078	23688.51
448.284	22564.18
448.491	23002.44
448.697	23985.47
448.903	24350.01
449.11	24651.06
449.316	24112.44
449.522	24403.25
449.728	25079.08
449.935	25419.05
450.141	25314.6
450.347	26058.01
450.553	25101.61
450.76	25513.25
450.966	26258.71
451.172	26006.81
451.378	26629.4
451.584	26025.25
451.791	26850.58
451.997	26883.34
452.203	27159.82
452.409	27247.88
452.615	27008.27
452.821	25855.26
453.027	25838.88
453.233	26944.78
453.44	25707.81
453.646	26260.76
453.852	26320.15
454.058	26991.89
454.264	25816.35
454.47	26508.57
454.676	25543.97
454.882	26543.38
455.088	24417.59
455.294	24919.34
455.5	25029.93
455.705	25523.49
455.911	24374.58
456.117	24012.09
456.323	23430.47
456.529	22318.42
456.735	23582.02
456.941	22738.26
457.147	22361.43
457.352	21523.81
457.558	21284.2
457.764	21427.56
457.97	21146.98
458.176	20655.47
458.381	20657.52
458.587	19436.93
458.793	19621.25
458.999	18894.22
459.204	19875.2
459.41	19424.64
459.616	18036.12
459.821	17968.54
460.027	18036.12
460.233	17679.77
460.438	16706.99
460.644	16836.01
460.85	16039.35
461.055	15932.86
461.261	16074.17
461.466	14476.75
461.672	14136.79
461.878	15271.36
462.083	14302.67
462.289	13819.35
462.494	14013.91
462.7	13207.01
462.905	12875.24
463.111	13319.65
463.316	13374.94
463.522	13301.22
463.727	12975.59
463.932	13346.27
464.138	13006.31
464.343	12840.42
464.549	12414.45
464.754	13077.99
464.959	13108.71
465.165	12821.99
465.37	12187.12
465.575	11924.98
465.781	12619.24
465.986	12580.33
466.191	12090.87
466.397	11804.15
466.602	11204.1
466.807	11865.59
467.012	11738.62
467.218	11648.5
467.423	11683.32
467.628	11648.5
467.833	12228.08
468.038	11343.36
468.244	11181.57
468.449	11718.14
468.654	11232.77
468.859	11255.29
469.064	10978.82
469.269	10534.41
469.474	10894.85
469.679	11179.52
469.885	10673.67
470.09	10991.11
470.295	10761.73
470.5	10552.84
470.705	10706.44
470.91	10380.81
471.115	10364.43
471.32	10395.15
471.525	10313.23
471.73	10176.02
471.935	10155.54
472.139	9483.8
472.344	9760.28
472.549	9719.32
472.754	9670.17
472.959	9479.71
473.164	9391.64
473.369	9143.84
473.574	9539.1
473.778	9188.89
473.983	9244.19
474.188	9268.77
474.393	8754.73
474.598	8707.62
474.802	8916.51
475.007	8773.16
475.212	8853.03
475.417	8488.49
475.621	8357.42
475.826	8394.28
476.031	8162.86
476.235	8236.59
476.44	8283.69
476.645	8093.23
476.849	8031.79
477.054	7941.68
477.259	8029.74
477.463	8080.94
477.668	7720.5
477.872	7732.79
478.077	7458.36
478.282	7478.84
478.486	7552.57
478.691	7394.87
478.895	7452.22
479.1	7179.84
479.304	7185.98
479.509	7079.49
479.713	7239.23
479.918	7128.64
480.122	6962.75
480.326	6983.23
480.531	7110.21
480.735	6966.85
480.94	6854.21
481.144	7067.2
481.348	6760
481.553	6702.66
481.757	6702.66
481.961	6925.89
482.166	7003.71
482.37	6784.58
482.574	6698.56
482.778	6903.36
482.983	7009.86
483.187	6862.4
483.391	6823.49
483.595	6628.93
483.8	6643.27
484.004	6612.55
484.208	6731.33
484.412	6803.01
484.616	6657.61
484.821	6768.2
485.025	6594.12
485.229	6708.8
485.433	6733.38
485.637	6745.67
485.841	6917.7
486.045	6659.65
486.249	6719.04
486.453	6694.47
486.657	6653.51
486.861	6649.41
487.065	6678.08
487.269	6772.29
487.473	6680.13
487.677	6653.51
487.881	6837.83
488.085	6739.52
488.289	6733.38
488.493	6862.4
488.697	6796.87
488.901	7011.9
489.105	6794.82
489.309	6803.01
489.512	6774.34
489.716	6749.76
489.92	6760
490.124	6577.73
490.328	7001.66
490.531	6813.25
490.735	6958.66
490.939	6876.74
491.143	6866.5
491.346	6991.42
491.55	6962.75
491.754	6954.56
491.958	7181.89
492.161	7087.68
492.365	6915.65
492.569	7038.53
492.772	7050.82
492.976	7046.72
493.18	7071.29
493.383	7181.89
493.587	7274.04
493.79	7288.38
493.994	7220.8
494.197	7380.54
494.401	7343.67
494.605	7611.96
494.808	7587.38
495.012	7538.23
495.215	7415.35
495.419	7824.95
495.622	7679.54
495.825	7775.8
496.029	7728.69
496.232	8009.26
496.436	7943.73
496.639	8134.19
496.843	8080.94
497.046	8250.92
497.249	8185.39
497.453	8353.32
497.656	8365.61
497.859	8420.91
498.063	8455.72
498.266	8726.05
498.469	8986.15
498.673	8760.87
498.876	8758.82
499.079	9182.75
499.282	8963.62
499.485	9448.99
499.689	9119.26
499.892	9258.53
500.095	9365.02
500.298	9641.5
500.501	9489.95
500.705	9727.51
500.908	9946.64
501.111	9946.64
501.314	10083.86
501.517	10044.95
501.72	10399.24
501.923	10407.44
502.126	10563.08
502.329	10434.06
502.532	10612.23
502.735	10632.71
502.938	10808.84
503.141	11167.23
503.344	11202.05
503.547	11308.54
503.75	11380.22
503.953	11673.08
504.156	11634.17
504.359	11591.16
504.562	11937.27
504.765	12092.91
504.968	11967.99
505.17	12322.29
505.373	12029.43
505.576	12477.93
505.779	12703.21
505.982	12735.98
506.185	13094.37
506.387	12965.35
506.59	13114.85
506.793	13262.3
506.996	13374.94
507.198	13817.3
507.401	13647.32
507.604	13714.91
507.807	13825.5
508.009	14181.84
508.212	14024.15
508.415	14341.58
508.617	14556.62
508.82	14630.35
509.022	14573
509.225	14652.88
509.428	14978.5
509.63	15142.34
509.833	15062.47
510.035	15379.9
510.238	15248.83
510.44	15773.11
510.643	15640
510.845	16078.26
511.048	15984.05
511.25	16537.01
511.453	16188.85
511.655	16643.5
511.858	16489.9
512.06	17010.09
512.262	16864.68
512.465	16844.2
512.667	17270.18
512.87	17593.76
513.072	17413.54
513.274	17694.11
513.477	17837.47
513.679	18107.8
513.881	18177.43
514.084	18265.49
514.286	18482.58
514.488	18576.78
514.69	18875.79
514.893	19139.97
515.095	19025.29
515.297	19348.87
515.499	19078.54
515.701	19379.59
515.904	19369.35
516.106	19899.77
516.308	19944.83
516.51	20379
516.712	20249.97
516.914	20768.11
517.116	20837.74
517.318	21069.16
517.52	20919.66
517.722	20852.08
517.925	21228.9
518.127	21558.63
518.329	21615.97
518.531	21370.21
518.733	21923.16
518.935	22248.79
519.136	22152.54
519.338	22242.65
519.54	22678.86
519.742	22811.98
519.944	22865.23
520.146	23137.61
520.348	23160.14
520.55	23242.06
520.752	23641.41
520.954	23919.93
521.155	23881.02
521.357	23950.65
521.559	24114.49
521.761	24558.9
521.963	24425.78
522.164	24468.79
522.366	24747.31
522.568	24663.35
522.77	24915.25
522.971	25285.93
523.173	25433.38
523.375	25447.72
523.576	25652.52
523.778	25718.05
523.98	25920.8
524.181	25804.06
524.383	26103.07
524.584	26098.97
524.786	26361.11
524.988	26459.41
525.189	26512.66
525.391	26875.15
525.592	26764.56
525.794	26952.98
525.995	26729.75
526.197	26961.17
526.398	27254.03
526.6	27116.81
526.801	27243.79
527.003	27714.82
527.204	27507.97
527.406	27653.38
527.607	27843.84
527.808	27962.62
528.01	27391.24
528.211	27614.47
528.412	28167.42
528.614	28187.9
528.815	28062.97
529.016	28501.24
529.218	28265.72
529.419	28613.88
529.62	28316.92
529.822	28343.55
530.023	28036.35
530.224	28767.48
530.425	28564.73
530.626	28407.03
530.828	28534.01
531.029	28726.52
531.23	28732.66
531.431	28517.62
531.632	28708.08
531.833	28964.08
532.035	29052.14
532.236	28916.98
532.437	29279.47
532.638	28939.51
532.839	29293.8
533.04	29115.63
533.241	29007.09
533.442	29764.84
533.643	28994.8
533.844	29070.58
534.045	28873.97
534.246	28544.25
534.447	29142.25
534.648	29048.05
534.849	29287.66
535.05	29093.1
535.251	29299.95
535.451	29355.24
535.652	28966.13
535.853	28882.16
536.054	28847.35
536.255	29396.2
536.456	29050.1
536.657	29170.93
536.857	29297.9
537.058	29351.15
537.259	29590.76
537.46	29492.46
537.66	29158.64
537.861	29150.45
538.062	29400.3
538.263	29580.52
538.463	28878.07
538.664	29168.88
538.865	29330.67
539.065	29388.01
539.266	29052.14
539.466	29828.32
539.667	28759.28
539.868	29674.73
540.068	29367.53
540.269	28990.7
540.469	29091.05
540.67	28998.9
540.87	29349.1
541.071	28767.48
541.271	29252.84
541.472	29390.06
541.672	29234.41
541.873	28726.52
542.073	28706.04
542.274	29451.5
542.474	28931.31
542.675	29048.05
542.875	29445.35
543.075	28998.9
543.276	29037.81
543.476	29484.26
543.676	28880.11
543.877	28855.54
544.077	29086.96
544.277	28863.73
544.478	28976.37
544.678	29263.08
544.878	29078.77
545.078	28978.42
545.279	28638.45
545.479	28503.29
545.679	28986.61
545.879	29093.1
546.079	29052.14
546.28	29066.48
546.48	28574.97
546.68	29170.93
546.88	28853.49
547.08	29146.35
547.28	28957.94
547.48	28624.12
547.68	28712.18
547.88	28683.51
548.081	28931.31
548.281	28996.85
548.481	28607.73
548.681	29144.3
548.881	28667.13
549.081	28970.22
549.28	28706.04
549.48	29027.57
549.68	28644.6
549.88	28935.41
550.08	28534.01
550.28	28951.79
550.48	28882.16
550.68	29082.86
550.88	28466.42
551.08	28531.96
551.279	28929.27
551.479	28587.25
551.679	28644.6
551.879	28996.85
552.079	28550.39
552.278	28450.04
552.478	28634.36
552.678	28613.88
552.878	28695.8
553.077	28550.39
553.277	28540.15
553.477	28654.84
553.676	28421.37
553.876	28450.04
554.076	28329.21
554.275	28560.63
554.475	27907.33
554.674	28306.68
554.874	28503.29
555.074	28593.4
555.273	28486.9
555.473	28441.85
555.672	28359.93
555.872	28095.74
556.071	28429.56
556.271	28337.4
556.47	28112.13
556.67	27950.34
556.869	28030.21
557.068	28175.61
557.268	27768.07
557.467	28022.02
557.667	28228.86
557.866	28001.54
558.065	27899.14
558.265	27870.47
558.464	27899.14
558.663	28220.67
558.863	27434.25
559.062	27993.34
559.261	27903.23
559.461	27989.25
559.66	27344.14
559.859	27737.35
560.058	27206.92
560.258	27571.46
560.457	27094.29
560.656	27618.57
560.855	27387.14
561.054	27589.89
561.253	27411.72
561.453	27411.72
561.652	27618.57
561.851	27477.26
562.05	27286.79
562.249	27145.48
562.448	27168.01
562.647	26991.89
562.846	27045.13
563.045	26977.55
563.244	26858.77
563.443	27317.51
563.642	26739.99
563.841	26869.01
564.04	26653.97
564.239	27114.76
564.438	26531.09
564.637	26727.7
564.836	26869.01
565.035	26559.77
565.234	26680.6
565.432	26529.05
565.631	26330.39
565.83	26576.15
566.029	26082.59
566.228	26467.61
566.427	26070.3
566.625	26076.44
566.824	25716
567.023	26113.31
567.222	25701.67
567.42	26314.01
567.619	26416.41
567.818	25972
568.016	25935.13
568.215	26078.49
568.414	25537.83
568.612	25935.13
568.811	25586.98
569.01	25744.67
569.208	25376.04
569.407	25685.28
569.605	25193.77
569.804	25728.29
570.002	25044.27
570.201	25330.98
570.4	25050.41
570.598	24868.14
570.797	24986.93
570.995	25398.57
571.193	24837.42
571.392	25371.94
571.59	24790.32
571.789	24935.73
571.987	24677.68
572.186	24814.9
572.384	24882.48
572.582	24689.97
572.781	24593.72
572.979	24327.48
573.177	24532.28
573.376	24259.9
573.574	24249.66
573.772	24235.32
573.971	24231.22
574.169	24270.14
574.367	23973.18
574.565	24204.6
574.763	24083.77
574.962	23926.08
575.16	23567.68
575.358	23835.97
575.556	23766.34
575.754	24286.52
575.952	23633.22
576.151	23702.85
576.349	23559.49
576.547	23622.98
576.745	23735.62
576.943	23633.22
577.141	23385.41
577.339	23328.07
577.537	23414.09
577.735	23160.14
577.933	23008.59
578.131	23301.45
578.329	23344.45
578.527	22908.24
578.725	23014.73
578.923	23102.79
579.121	22568.27
579.319	22771.02
579.516	22766.93
579.714	22525.27
579.912	22666.58
580.11	22449.49
580.308	22670.67
580.506	22713.68
580.704	22144.34
580.901	22549.84
581.099	22465.88
581.297	22197.59
581.495	22240.6
581.692	22402.39
581.89	21880.16
582.088	22418.77
582.285	22101.34
582.483	22166.87
582.681	21955.93
582.878	21779.81
583.076	21878.11
583.274	21806.43
583.471	21558.63
583.669	21747.04
583.866	21507.43
584.064	21783.9
584.262	21532
584.459	21509.47
584.657	21247.33
584.854	21720.42
585.052	20927.85
585.249	21124.46
585.447	21179.75
585.644	21079.4
585.841	21089.64
586.039	21071.21
586.236	20860.27
586.434	20880.75
586.631	20639.09
586.828	20909.42
587.026	20890.99
587.223	20872.56
587.42	20254.07
587.618	20653.42
587.815	20319.6
588.012	20528.5
588.21	20071.8
588.407	20401.52
588.604	20141.43
588.801	19879.29
588.999	20092.28
589.196	20139.38
589.393	19903.87
589.59	20133.24
589.787	19957.11
589.984	20112.76
590.182	19821.95
590.379	19934.59
590.576	19787.13
590.773	19819.9
590.97	19602.82
591.167	19623.3
591.364	19543.42
591.561	19475.84
591.758	19402.11
591.955	19385.73
592.152	19332.48
592.349	19377.54
592.546	19189.13
592.743	19463.55
592.94	19058.06
593.137	19250.56
593.334	19365.25
593.531	18722.19
593.727	18802.06
593.924	18859.4
594.121	18849.16
594.318	19015.05
594.515	18730.38
594.712	18650.51
594.908	18599.31
595.105	18535.82
595.302	18236.82
595.499	18410.9
595.696	18130.33
595.892	18222.48
596.089	18269.59
596.286	18163.09
596.482	18234.77
596.679	17978.78
596.876	18105.75
597.072	18013.59
597.269	17999.26
597.466	17642.91
597.662	17952.15
597.859	17798.56
598.055	18210.2
598.252	17708.44
598.448	17730.97
598.645	17741.21
598.841	17380.77
599.038	17573.28
599.234	17544.61
599.431	17460.64
599.627	17151.4
599.824	17243.56
600.02	17368.48
600.217	17491.36
600.413	17038.76
600.609	17120.68
600.806	16917.93
601.002	16887.21
601.198	17049
601.395	16784.81
601.591	16934.31
601.787	17018.28
601.984	16876.97
602.18	16915.88
602.376	16768.43
602.572	16709.04
602.769	16653.74
602.965	16342.45
603.161	16489.9
603.357	16639.4
603.553	16565.68
603.75	16442.8
603.946	16278.96
604.142	16334.26
604.338	15934.9
604.534	16104.88
604.73	15926.71
604.926	16113.08
605.122	16037.3
605.318	15939
605.514	15936.95
605.71	15779.26
605.906	15719.87
606.102	15949.24
606.298	15685.05
606.494	15621.56
606.69	15871.42
606.886	15635.9
607.082	15328.7
607.278	15558.08
607.474	15574.46
607.67	15599.04
607.866	15297.99
608.062	15572.41
608.257	15304.13
608.453	15316.42
608.649	15406.53
608.845	15171.01
609.041	15136.2
609.236	15263.17
609.432	14994.89
609.628	14898.63
609.824	15130.05
610.019	15046.09
610.215	14953.93
610.411	14941.64
610.606	14710.22
610.802	14861.77
610.998	15060.42
611.193	14941.64
611.389	14751.18
611.584	14683.59
611.78	14747.08
611.976	14826.95
612.171	14767.56
612.367	14548.43
612.562	14872.01
612.758	14607.82
612.953	14794.18
613.149	14620.11
613.344	14532.04
613.539	14689.74
613.735	14480.85
613.93	14689.74
614.126	14403.02
614.321	14642.64
614.517	14271.95
614.712	14415.31
614.907	14534.09
615.103	14325.2
615.298	14564.81
615.493	14441.93
615.688	13968.85
615.884	14450.13
616.079	14194.13
616.274	14269.9
616.47	14030.29
616.665	14130.64
616.86	14030.29
617.055	14034.39
617.25	13860.31
617.445	14015.96
617.641	13542.88
617.836	13891.03
618.031	13766.1
618.226	14009.81
618.421	13934.04
618.616	13917.65
618.811	13641.18
619.006	13813.21
619.201	13454.81
619.396	13673.95
619.591	13135.33
619.786	13497.82
619.981	13284.83
620.176	13420
620.371	13151.71
620.566	13317.6
620.761	13331.94
620.956	13190.63
621.151	13147.62
621.346	13145.57
621.541	12789.22
621.735	13077.99
621.93	12670.44
622.125	12905.96
622.32	12670.44
622.515	12625.39
622.709	12572.14
622.904	12713.45
623.099	12353.01
623.294	12629.48
623.488	12381.68
623.683	12420.59
623.878	12086.77
624.072	12361.2
624.267	12195.31
624.462	12170.74
624.656	11863.54
624.851	11916.79
625.046	11918.84
625.24	11724.28
625.435	11572.73
625.629	11640.31
625.824	11531.77
626.018	11576.83
626.213	11365.89
626.407	11372.03
626.602	11300.35
626.796	11408.89
626.991	11206.14
627.185	11247.1
627.38	10966.53
627.574	11138.56
627.768	10989.06
627.963	10964.48
628.157	10833.41
628.352	10995.2
628.546	10788.36
628.74	10827.27
628.935	10608.14
629.129	10552.84
629.323	10454.54
629.517	10581.51
629.712	10472.97
629.906	10343.95
630.1	10397.2
630.294	10354.19
630.489	10307.09
630.683	10323.47
630.877	10051.09
631.071	9930.26
631.265	9834
631.459	9979.41
631.653	9891.35
631.848	9793.05
632.042	9680.41
632.236	9713.17
632.43	9889.3
632.624	9739.8
632.818	9506.33
633.012	9416.22
633.206	9498.14
633.4	9379.36
633.594	9328.16
633.788	9342.49
633.982	9373.21
634.176	9352.73
634.369	9201.18
634.563	9332.25
634.757	9221.66
634.951	9125.41
635.145	8930.85
635.339	9008.67
635.533	8984.1
635.726	9025.06
635.92	8791.59
636.114	8885.8
636.308	8666.66
636.501	8713.77
636.695	8562.22
636.889	8543.78
637.083	8554.02
637.276	8672.81
637.47	8625.7
637.664	8324.65
637.857	8582.7
638.051	8394.28
638.244	8371.75
638.438	8293.93
638.632	8300.08
638.825	8259.12
639.019	8097.33
639.212	8111.66
639.406	8050.22
639.599	8126
639.793	8097.33
639.986	7956.02
640.18	7945.78
640.373	7814.71
640.567	7697.97
640.76	7767.6
640.954	7650.87
641.147	7648.82
641.34	7665.21
641.534	7771.7
641.727	7417.4
641.92	7659.06
642.114	7548.47
642.307	7550.52
642.5	7378.49
642.694	7437.88
642.887	7276.09
643.08	7493.18
643.273	7448.12
643.467	7220.8
643.66	7251.52
643.853	7169.6
644.046	7069.25
644.239	6981.18
644.432	7122.49
644.626	6983.23
644.819	6862.4
645.012	6975.04
645.205	6856.26
645.398	7050.82
645.591	6856.26
645.784	6858.31
645.977	6813.25
646.17	6743.62
646.363	6626.89
646.556	6667.84
646.749	6567.49
646.942	6751.81
647.135	6635.08
647.328	6573.64
647.521	6327.88
647.714	6393.42
647.907	6610.5
648.099	6432.33
648.292	6354.51
648.485	6481.48
648.678	6264.4
648.871	6315.59
649.064	6151.76
649.256	6307.4
649.449	6288.97
649.642	6174.28
649.835	6131.28
650.027	6110.8
650.22	5979.73
650.413	6112.85
650.605	6082.13
650.798	6057.55
650.991	5955.15
651.183	6051.41
651.376	5705.3
651.568	5908.05
651.761	5776.98
651.954	5922.38
652.146	5746.26
652.339	5643.86
652.531	5711.44
652.724	5629.52
652.916	5545.56
653.109	5475.93
653.301	5502.55
653.494	5715.54
653.686	5367.38
653.879	5645.91
654.071	5447.26
654.263	5572.18
654.456	5607
654.648	5387.86
654.84	5322.33
655.033	5359.19
655.225	5221.98
655.417	5348.95
655.61	5316.19
655.802	5334.62
655.994	5242.46
656.186	5277.27
656.379	5185.12
656.571	5172.83
656.763	5027.42
656.955	4949.6
657.148	4898.4
657.34	4945.5
657.532	4867.68
657.724	5004.89
657.916	4933.22
658.108	4927.07
658.3	4855.39
658.492	5090.91
658.684	4810.34
658.876	4943.46
659.068	4761.19
659.26	4839.01
659.452	4900.45
659.644	4759.14
659.836	4636.26
660.028	4763.23
660.22	4740.71
660.412	4607.59
660.604	4603.49
660.796	4705.89
660.988	4695.65
661.18	4478.57
661.372	4425.32
661.563	4628.07
661.755	4558.44
661.947	4574.82
662.139	4423.27
662.331	4308.58
662.522	4501.09
662.714	4261.48
662.906	4331.11
663.097	4314.73
663.289	4335.21
663.481	4324.97
663.673	4195.95
663.864	4163.18
664.056	4228.71
664.247	4124.27
664.439	4154.99
664.631	4269.67
664.822	4032.11
665.014	4068.97
665.205	4220.52
665.397	4206.19
665.588	4060.78
665.78	4073.07
665.971	4068.97
666.163	4124.27
666.354	4017.77
666.546	4034.16
666.737	3989.1
666.929	3939.95
667.12	3872.37
667.311	3948.14
667.503	3718.77
667.694	3753.59
667.885	3874.42
668.077	3956.33
668.268	3843.7
668.459	3876.46
668.651	3808.88
668.842	3690.1
669.033	3739.25
669.224	3821.17
669.416	3843.7
669.607	3726.96
669.798	3604.08
669.989	3790.45
670.18	3720.82
670.371	3696.24
670.563	3653.23
670.754	3688.05
670.945	3532.4
671.136	3466.87
671.327	3645.04
671.518	3722.87
671.709	3620.47
671.9	3538.55
672.091	3602.04
672.282	3597.94
672.473	3638.9
672.664	3524.21
672.855	3556.98
673.046	3452.53
673.237	3483.25
673.428	3567.22
673.619	3434.1
673.809	3434.1
674	3458.68
674.191	3483.25
674.382	3481.21
674.573	3452.53
674.764	3425.91
674.954	3454.58
675.145	3370.62
675.336	3491.45
675.527	3262.07
675.717	3337.85
675.908	3292.79
676.099	3225.21
676.289	3186.3
676.48	3348.09
676.671	3214.97
676.861	3262.07
677.052	3202.68
677.243	3171.96
677.433	3233.4
677.624	3223.16
677.814	3313.27
678.005	3319.42
678.195	3321.46
678.386	3276.41
678.576	3212.92
678.767	3245.69
678.957	3241.59
679.148	3139.19
679.338	3180.15
679.529	3176.06
679.719	3114.62
679.909	3090.04
680.1	3106.43
680.29	3264.12
680.481	3176.06
680.671	3229.31
680.861	3161.72
681.052	3249.79
681.242	2965.12
681.432	3104.38
681.622	3159.67
681.813	3120.76
682.003	3157.63
682.193	3073.66
682.383	3225.21
682.573	3108.48
682.764	3108.48
682.954	3083.9
683.144	3065.47
683.334	2981.5
683.524	3104.38
683.714	2999.93
683.904	3110.52
684.094	3122.81
684.284	2907.77
684.474	2981.5
684.664	3020.41
684.854	3075.71
685.044	3024.51
685.234	2954.88
685.424	3085.95
685.614	3040.89
685.804	2989.69
685.994	2934.4
686.184	2940.54
686.374	2879.1
686.564	2913.92
686.753	2879.1
686.943	2723.46
687.133	2979.45
687.323	2805.38
687.513	2819.71
687.702	2752.13
687.892	2770.56
688.082	2854.53
688.272	2825.86
688.461	2702.98
688.651	2782.85
688.841	2784.9
689.03	2760.32
689.22	2756.22
689.41	2760.32
689.599	2600.58
689.789	2797.18
689.979	2672.26
690.168	2647.68
690.358	2547.33
690.547	2659.97
690.737	2678.4
690.926	2639.49
691.116	2342.53
691.305	2582.15
691.495	2557.57
691.684	2547.33
691.874	2598.53
692.063	2565.76
692.252	2498.18
692.442	2453.13
692.631	2473.6
692.82	2494.08
693.01	2385.54
693.199	2420.36
693.388	2399.88
693.578	2432.65
693.767	2326.15
693.956	2348.68
694.146	2397.83
694.335	2342.53
694.524	2430.6
694.713	2381.45
694.902	2303.62
695.092	2336.39
695.281	2291.34
695.47	2143.88
695.659	2240.14
695.848	2188.94
696.037	2324.1
696.226	2219.66
696.415	2250.38
696.604	2281.1
696.793	2109.07
696.982	2238.09
697.171	2182.79
697.36	2104.97
697.549	2143.88
697.738	2147.98
697.927	2145.93
698.116	2154.12
698.305	2166.41
698.494	2182.79
698.683	2162.31
698.872	2115.21
699.061	2086.54
699.25	2207.37
699.438	2168.46
699.627	2045.58
699.816	2129.55
700.005	2135.69
700.193	2012.81
700.382	2147.98
700.571	2053.77
700.76	2152.07
700.948	2121.35
701.137	2010.76
701.326	2045.58
701.514	1994.38
701.703	2066.06
701.892	2033.29
702.08	2088.59
702.269	1984.14
702.457	2053.77
702.646	2070.16
702.834	1988.24
703.023	1980.04
703.212	2074.25
703.4	2137.74
703.589	1965.71
703.777	1967.76
703.965	1971.85
704.154	2057.87
704.342	2012.81
704.531	2082.44
704.719	1967.76
704.907	1914.51
705.096	1965.71
705.284	2002.57
705.472	2031.24
705.661	1984.14
705.849	1988.24
706.037	2064.01
706.226	2002.57
706.414	1939.09
706.602	2037.39
706.79	2037.39
706.979	2033.29
707.167	2127.5
707.355	2086.54
707.543	2031.24
707.731	2053.77
707.919	1988.24
708.107	1963.66
708.296	1971.85
708.484	1939.09
708.672	2002.57
708.86	2033.29
709.048	2033.29
709.236	2070.16
709.424	2115.21
709.612	1973.9
709.8	1965.71
709.988	1990.28
710.176	2051.72
710.364	2094.73
710.551	2055.82
710.739	2010.76
710.927	2096.78
711.115	1957.52
711.303	2043.53
711.491	2031.24
711.679	1984.14
711.866	2047.63
712.054	2068.11
712.242	1965.71
712.43	2057.87
712.617	2098.83
712.805	1926.8
712.993	2084.49
713.181	2027.15
713.368	2047.63
713.556	2031.24
713.744	2057.87
713.931	2055.82
714.119	1947.28
714.306	2025.1
714.494	2168.46
714.682	2098.83
714.869	2027.15
715.057	2115.21
715.244	2006.67
715.432	2150.03
715.619	2107.02
715.807	2088.59
715.994	2088.59
716.182	2158.22
716.369	2180.75
716.556	2039.44
716.744	2012.81
716.931	1992.33
717.119	2131.59
717.306	2160.27
717.493	2154.12
717.681	2115.21
717.868	2123.4
718.055	2025.1
718.242	2197.13
718.43	2010.76
718.617	2072.2
718.804	2147.98
718.991	2123.4
719.179	2242.18
719.366	2090.63
719.553	2147.98
719.74	2143.88
719.927	2227.85
720.114	2143.88
720.301	2131.59
720.488	2277
720.676	2236.04
720.863	2094.73
721.05	2223.75
721.237	2139.79
721.424	2221.7
721.611	2178.7
721.798	2094.73
721.985	2133.64
722.172	2260.62
722.358	2193.03
722.545	2270.86
722.732	2285.19
722.919	2211.46
723.106	2076.3
723.293	2164.36
723.48	2162.31
723.667	2197.13
723.853	2170.51
724.04	2315.91
724.227	2272.9
724.414	2236.04
724.6	2156.17
724.787	2356.87
724.974	2231.94
725.161	2129.55
725.347	2160.27
725.534	2178.7
725.72	2238.09
725.907	2264.71
726.094	2279.05
726.28	2270.86
726.467	2338.44
726.653	2356.87
726.84	2367.11
727.027	2231.94
727.213	2240.14
727.4	2188.94
727.586	2334.34
727.773	2250.38
727.959	2299.53
728.145	2317.96
728.332	2305.67
728.518	2205.32
728.705	2393.73
728.891	2266.76
729.077	2293.38
729.264	2344.58
729.45	2360.97
729.636	2383.49
729.823	2287.24
730.009	2291.34
730.195	2307.72
730.382	2389.64
730.568	2252.42
730.754	2293.38
730.94	2328.2
731.126	2287.24
731.313	2346.63
731.499	2408.07
731.685	2287.24
731.871	2186.89
732.057	2309.77
732.243	2150.03
732.429	2406.02
732.615	2279.05
732.801	2418.31
732.987	2299.53
733.173	2272.9
733.359	2412.17
733.545	2344.58
733.731	2336.39
733.917	2307.72
734.103	2424.45
734.289	2315.91
734.475	2360.97
734.661	2268.81
734.847	2342.53
735.033	2277
735.219	2334.34
735.404	2373.25
735.59	2375.3
735.776	2274.95
735.962	2406.02
736.148	2455.17
736.333	2385.54
736.519	2416.26
736.705	2399.88
736.89	2283.14
737.076	2367.11
737.262	2330.25
737.447	2289.29
737.633	2389.64
737.819	2320.01
738.004	2377.35
738.19	2254.47
738.375	2270.86
738.561	2358.92
738.747	2233.99
738.932	2266.76
739.118	2283.14
739.303	2268.81
739.489	2356.87
739.674	2217.61
739.859	2143.88
740.045	2334.34
740.23	2254.47
740.416	2260.62
740.601	2233.99
740.786	2322.06
740.972	2213.51
741.157	2201.23
741.342	2244.23
741.528	2268.81
741.713	2274.95
741.898	2236.04
742.084	2262.66
742.269	2250.38
742.454	2227.85
742.639	2279.05
742.824	2233.99
743.01	2195.08
743.195	2150.03
743.38	2152.07
743.565	2270.86
743.75	2217.61
743.935	2111.11
744.12	2197.13
744.305	2281.1
744.49	2078.35
744.675	2123.4
744.86	2141.83
745.045	2074.25
745.23	2141.83
745.415	2023.05
745.6	2033.29
745.785	2170.51
745.97	2113.16
746.155	2104.97
746.34	2078.35
746.525	2008.72
746.71	2102.92
746.895	2021
747.079	2025.1
747.264	1916.56
747.449	2004.62
747.634	2049.68
747.819	2029.2
748.003	1986.19
748.188	1881.74
748.373	1916.56
748.557	1951.37
748.742	1881.74
748.927	1799.82
749.111	1902.22
749.296	1861.26
749.481	1851.02
749.665	1900.17
749.85	1853.07
750.034	1820.3
750.219	1713.81
750.404	1885.84
750.588	1828.49
750.773	1846.93
750.957	1656.47
751.141	1760.91
751.326	1748.62
751.51	1644.18
751.695	1627.79
751.879	1658.51
752.064	1769.1
752.248	1744.53
752.432	1664.66
752.617	1693.33
752.801	1707.66
752.985	1547.92
753.17	1623.7
753.354	1685.14
753.538	1537.68
753.722	1584.79
753.907	1484.44
754.091	1498.77
754.275	1500.82
754.459	1576.59
754.643	1515.16
754.828	1525.4
755.012	1439.38
755.196	1568.4
755.38	1504.92
755.564	1523.35
755.748	1509.01
755.932	1529.49
756.116	1545.88
756.3	1388.18
756.484	1414.81
756.668	1480.34
756.852	1416.85
757.036	1435.28
757.22	1394.33
757.404	1324.69
757.588	1418.9
757.772	1353.37
757.956	1293.97
758.14	1341.08
758.323	1398.42
758.507	1246.87
758.691	1255.06
758.875	1400.47
759.059	1293.97
759.242	1302.17
759.426	1271.45
759.61	1228.44
759.794	1320.6
759.977	1263.26
760.161	1226.39
760.345	1226.39
760.528	1246.87
760.712	1187.48
760.895	1214.1
761.079	1271.45
761.263	1201.82
761.446	1156.76
761.63	1160.86
761.813	1228.44
761.997	1167
762.18	1259.16
762.364	1103.51
762.547	1152.67
762.731	1179.29
762.914	1107.61
763.098	1142.43
763.281	1078.94
763.464	1105.56
763.648	1099.42
763.831	1148.57
764.015	1244.82
764.198	1123.99
764.381	980.64
764.564	1105.56
764.748	1099.42
764.931	1025.69
765.114	1015.45
765.297	1107.61
765.481	1062.55
765.664	1064.6
765.847	1025.69
766.03	1117.85
766.213	1037.98
766.397	960.16
766.58	1035.93
766.763	1054.36
766.946	1015.45
767.129	1007.26
767.312	1070.75
767.495	941.72
767.678	1037.98
767.861	1060.51
768.044	982.68
768.227	945.82
768.41	1023.64
768.593	939.68
768.776	1007.26
768.959	974.49
769.142	943.77
769.324	968.35
769.507	941.72
769.69	902.81
769.873	1046.17
770.056	1009.31
770.239	960.16
770.421	1052.31
770.604	976.54
770.787	915.1
770.97	960.16
771.152	917.15
771.335	878.24
771.518	857.76
771.7	925.34
771.883	915.1
772.066	874.14
772.248	853.66
772.431	1001.12
772.613	876.19
772.796	784.03
772.978	808.61
773.161	820.89
773.343	781.98
773.526	868
773.708	859.81
773.891	779.93
774.073	851.61
774.256	812.7
774.438	827.04
774.621	779.93
774.803	822.94
774.985	689.82
775.168	800.41
775.35	861.85
775.532	743.07
775.715	741.02
775.897	700.06
776.079	771.74
776.261	804.51
776.444	788.13
776.626	698.02
776.808	665.25
776.99	734.88
777.173	730.78
777.355	698.02
777.537	726.69
777.719	706.21
777.901	665.25
778.083	626.34
778.265	691.87
778.447	679.58
778.629	700.06
778.811	677.54
778.993	681.63
779.175	650.91
779.357	712.35
779.539	677.54
779.721	704.16
779.903	675.49
780.085	630.43
780.267	609.95
780.449	587.43
780.631	587.43
780.812	626.34
780.994	595.62
781.176	536.23
781.358	554.66
781.54	605.86
781.721	532.13
781.903	614.05
782.085	614.05
782.267	558.75
782.448	587.43
782.63	585.38
782.812	599.71
782.993	480.93
783.175	505.51
783.357	554.66
783.538	573.09
783.72	544.42
783.901	523.94
784.083	530.08
784.264	505.51
784.446	523.94
784.627	482.98
784.809	507.55
784.99	437.92
785.172	476.84
785.353	460.45
785.535	464.55
785.716	515.75
785.897	521.89
786.079	525.99
786.26	521.89
786.441	507.55
786.623	439.97
786.804	515.75
786.985	462.5
787.167	433.83
787.348	378.53
787.529	433.83
787.71	472.74
787.891	460.45
788.073	419.49
788.254	374.44
788.435	351.91
788.616	427.68
788.797	460.45
788.978	341.67
789.159	439.97
789.34	458.4
789.522	513.7
789.703	419.49
789.884	368.29
790.065	286.37
790.246	380.58
790.427	362.15
790.607	358.05
790.788	353.96
790.969	386.72
791.15	390.82
791.331	366.25
791.512	347.81
791.693	294.57
791.874	349.86
792.054	360.1
792.235	444.07
792.416	384.68
792.597	362.15
792.778	308.9
792.958	337.57
793.139	372.39
793.32	308.9
793.5	329.38
793.681	429.73
793.862	296.61
794.042	333.48
794.223	290.47
794.404	245.41
794.584	272.04
794.765	267.94
794.945	401.06
795.126	317.09
795.306	329.38
795.487	347.81
795.667	222.89
795.848	290.47
796.028	229.03
796.209	308.9
796.389	333.48
796.57	292.52
796.75	356.01
796.93	247.46
797.111	302.76
797.291	261.8
797.471	272.04
797.652	296.61
797.832	278.18
798.012	325.29
798.192	284.33
798.373	237.22
798.553	335.53
798.733	282.28
798.913	317.09
799.093	292.52
799.274	331.43
799.454	292.52
799.634	282.28
799.814	343.72
799.994	257.7
800.174	313
800.354	267.94
800.534	245.41
800.714	263.85
800.894	263.85
801.074	241.32
801.254	263.85
801.434	272.04
801.614	247.46
801.794	179.88
801.974	564.9
802.154	192.17
802.334	247.46
802.514	255.65
802.693	149.16
802.873	220.84
803.053	308.9
803.233	200.36
803.413	233.13
803.592	251.56
803.772	226.98
803.952	272.04
804.131	263.85
804.311	247.46
804.491	171.69
804.67	259.75
804.85	261.8
805.03	226.98
805.209	257.7
805.389	243.37
805.568	239.27
805.748	198.31
805.928	237.22
806.107	269.99
806.287	239.27
806.466	218.79
806.646	204.46
806.825	173.74
807.004	220.84
807.184	149.16
807.363	239.27
807.543	183.98
807.722	222.89
807.901	198.31
808.081	282.28
808.26	186.02
808.439	259.75
808.619	183.98
808.798	196.26
808.977	243.37
809.156	214.7
809.336	147.11
809.515	186.02
809.694	132.78
809.873	155.3
810.052	263.85
810.231	210.6
810.411	183.98
810.59	214.7
810.769	159.4
810.948	237.22
811.127	208.55
811.306	179.88
811.485	140.97
811.664	235.18
811.843	237.22
812.022	138.92
812.201	151.21
812.38	196.26
812.559	179.88
812.737	214.7
812.916	222.89
813.095	181.93
813.274	190.12
813.453	167.59
813.632	155.3
813.811	196.26
813.989	106.15
814.168	192.17
814.347	159.4
814.526	136.87
814.704	231.08
814.883	206.5
815.062	175.78
815.24	175.78
815.419	75.43
815.598	181.93
815.776	143.02
815.955	75.43
816.133	163.5
816.312	126.63
816.49	153.26
816.669	210.6
816.847	106.15
817.026	149.16
817.204	169.64
817.383	171.69
817.561	85.67
817.74	179.88
817.918	132.78
818.097	181.93
818.275	153.26
818.453	91.82
818.632	77.48
818.81	67.24
818.988	253.61
819.167	145.06
819.345	114.34
819.523	108.2
819.701	63.15
819.879	183.98
820.058	132.78
820.236	159.4
820.414	145.06
820.592	177.83
820.77	104.11
820.948	120.49
821.127	110.25
821.305	128.68
821.483	116.39
821.661	149.16
821.839	75.43
822.017	147.11
822.195	91.82
822.373	175.78
822.551	110.25
822.729	100.01
822.907	171.69
823.085	114.34
823.262	67.24
823.44	128.68
823.618	106.15
823.796	173.74
823.974	134.82
824.152	120.49
824.329	42.67
824.507	145.06
824.685	163.5
824.863	95.91
825.04	48.81
825.218	153.26
825.396	22.19
825.574	54.95
825.751	91.82
825.929	65.19
826.107	116.39
826.284	126.63
826.462	100.01
826.639	30.38
826.817	73.39
826.994	124.58
827.172	91.82
827.349	71.34
827.527	161.45
827.704	167.59
827.882	153.26
828.059	106.15
828.237	52.91
828.414	136.87
828.591	83.63
828.769	124.58
828.946	83.63
829.124	163.5
829.301	155.3
829.478	149.16
829.655	100.01
829.833	122.54
830.01	75.43
830.187	124.58
830.364	143.02
830.542	69.29
830.719	83.63
830.896	81.58
831.073	85.67
831.25	67.24
831.427	100.01
831.604	59.05
831.782	48.81
831.959	89.77
832.136	116.39
832.313	83.63
832.49	30.38
832.667	87.72
832.844	136.87
833.021	132.78
833.198	89.77
833.374	50.86
833.551	138.92
833.728	145.06
833.905	91.82
834.082	46.76
834.259	161.45
834.436	81.58
834.612	69.29
834.789	85.67
834.966	67.24
835.143	59.05
835.319	18.09
835.496	128.68
835.673	77.48
835.85	87.72
836.026	67.24
836.203	188.07
836.38	77.48
836.556	48.81
836.733	42.67
836.909	26.28
837.086	124.58
837.262	83.63
837.439	95.91
837.616	102.06
837.792	46.76
837.968	95.91
838.145	46.76
838.321	52.91
838.498	87.72
838.674	145.06
838.851	108.2
839.027	73.39
839.203	97.96
839.38	75.43
839.556	67.24
839.732	42.67
839.909	65.19
840.085	97.96
840.261	145.06
840.437	65.19
840.614	77.48
840.79	100.01
840.966	163.5
841.142	114.34
841.318	128.68
841.494	34.47
841.671	108.2
841.847	48.81
842.023	69.29
842.199	77.48
842.375	69.29
842.551	61.1
842.727	67.24
842.903	112.3
843.079	30.38
843.255	102.06
843.431	112.3
843.607	44.71
843.783	71.34
843.959	75.43
844.134	106.15
844.31	97.96
844.486	-47.44
844.662	48.81
844.838	-0.34
845.013	134.82
845.189	36.52
845.365	104.11
845.541	79.53
845.716	97.96
845.892	30.38
846.068	95.91
846.244	28.33
846.419	63.15
846.595	71.34
846.77	69.29
846.946	81.58
847.122	54.95
847.297	26.28
847.473	48.81
847.648	54.95
847.824	59.05
847.999	9.9
848.175	5.8
848.35	67.24
848.526	77.48
848.701	46.76
848.876	93.87
849.052	87.72
849.227	95.91
849.403	40.62
849.578	42.67
849.753	54.95
849.929	106.15
850.104	32.43
850.279	61.1
850.454	46.76
850.63	108.2
850.805	140.97
850.98	81.58
851.155	54.95
851.33	85.67
851.505	-12.63
851.681	102.06
851.856	48.81
852.031	18.09
852.206	79.53
852.381	26.28
852.556	81.58
852.731	50.86
852.906	114.34
853.081	48.81
853.256	140.97
853.431	63.15
853.606	9.9
853.781	-8.53
853.956	50.86
854.131	-47.44
854.305	1.71
854.48	48.81
854.655	-80.21
854.83	20.14
855.005	28.33
855.18	-8.53
855.354	32.43
855.529	50.86
855.704	42.67
855.879	54.95
856.053	-6.49
856.228	46.76
856.403	-18.77
856.577	18.09
856.752	71.34
856.926	75.43
857.101	138.92
857.276	30.38
857.45	26.28
857.625	30.38
857.799	97.96
857.974	32.43
858.148	73.39
858.323	30.38
858.497	36.52
858.672	32.43
858.846	69.29
859.02	63.15
859.195	22.19
859.369	75.43
859.543	97.96
859.718	136.87
859.892	36.52
860.066	59.05
860.241	-16.73
860.415	-4.44
860.589	-0.34
860.763	26.28
860.938	34.47
861.112	77.48
861.286	57
861.46	44.71
861.634	5.8
861.808	91.82
861.982	26.28
862.157	63.15
862.331	22.19
862.505	-22.87
862.679	81.58
862.853	81.58
863.027	-0.34
863.201	75.43
863.375	67.24
863.549	59.05
863.722	38.57
863.896	79.53
864.07	-49.49
864.244	28.33
864.418	18.09
864.592	-22.87
864.766	50.86
864.939	69.29
865.113	52.91
865.287	65.19
865.461	59.05
865.634	22.19
865.808	93.87
865.982	36.52
866.156	81.58
866.329	48.81
866.503	75.43
866.676	83.63
866.85	-8.53
867.024	57
867.197	1.71
867.371	26.28
867.544	-4.44
867.718	34.47
867.891	-10.58
868.065	57
868.238	18.09
868.412	65.19
868.585	-6.49
868.759	9.9
868.932	-2.39
869.105	40.62
869.279	-10.58
869.452	-31.06
869.625	67.24
869.799	52.91
869.972	71.34
870.145	9.9
870.319	69.29
870.492	57
870.665	-41.3
870.838	57
871.011	59.05
871.185	3.75
871.358	-12.63
871.531	93.87
871.704	79.53
871.877	28.33
872.05	46.76
872.223	1.71
872.396	38.57
872.569	-39.25
872.742	-24.92
872.915	7.85
873.088	-0.34
873.261	13.99
873.434	22.19
873.607	46.76
873.78	26.28
873.953	22.19
874.126	26.28
874.299	18.09
874.471	75.43
874.644	122.54
874.817	5.8
874.99	63.15
875.163	26.28
875.335	40.62
875.508	-51.54
875.681	32.43
875.853	5.8
876.026	1.71
876.199	91.82
876.371	-16.73
876.544	42.67
876.717	1.71
876.889	-22.87
877.062	87.72
877.234	-35.16
877.407	-12.63
877.579	38.57
877.752	48.81
877.924	83.63
878.097	26.28
878.269	-14.68
878.442	46.76
878.614	-22.87
878.786	46.76
878.959	-31.06
879.131	28.33
879.303	46.76
879.476	9.9
879.648	-10.58
879.82	87.72
879.993	1.71
880.165	9.9
880.337	16.04
880.509	-65.88
880.681	46.76
880.854	-0.34
881.026	77.48
881.198	104.11
881.37	59.05
881.542	-18.77
881.714	30.38
881.886	20.14
882.058	18.09
882.23	22.19
882.402	5.8
882.574	91.82
882.746	30.38
882.918	16.04
883.09	11.95
883.262	71.34
883.434	73.39
883.606	20.14
883.778	26.28
883.95	-20.82
884.122	-18.77
884.293	-12.63
884.465	46.76
884.637	-41.3
884.809	-16.73
884.98	24.23
885.152	3.75
885.324	-14.68
885.496	-22.87
885.667	5.8
885.839	-4.44
886.011	89.77
886.182	5.8
886.354	11.95
886.525	-20.82
886.697	18.09
886.869	18.09
887.04	13.99
887.212	13.99
887.383	63.15
887.555	75.43
887.726	26.28
887.897	-16.73
888.069	57
888.24	-12.63
888.412	9.9
888.583	-0.34
888.754	-6.49
888.926	-76.12
889.097	18.09
889.268	18.09
889.44	54.95
889.611	-12.63
889.782	-0.34
889.953	18.09
890.125	100.01
890.296	-0.34
890.467	-20.82
890.638	9.9
890.809	3.75
890.98	7.85
891.151	44.71
891.323	48.81
891.494	20.14
891.665	11.95
891.836	81.58
892.007	38.57
892.178	9.9
892.349	-39.25
892.52	-14.68
892.691	9.9
892.862	-31.06
893.032	24.23
893.203	7.85
893.374	40.62
893.545	116.39
893.716	-22.87
893.887	100.01
894.057	-63.83
894.228	-43.35
894.399	-92.5
894.57	71.34
894.74	-10.58
894.911	75.43
895.082	1.71
895.253	22.19
895.423	-59.73
895.594	61.1
895.764	-2.39
895.935	3.75
896.106	-35.16
896.276	-8.53
896.447	9.9
896.617	-0.34
896.788	13.99
896.958	-14.68
897.129	-102.74
897.299	-29.01
897.47	34.47
897.64	42.67
897.81	-14.68
897.981	-16.73
898.151	71.34
898.322	-2.39
898.492	-6.49
898.662	18.09
898.832	-12.63
899.003	16.04
899.173	-53.59
899.343	9.9
899.513	-6.49
