Data from USB4F104151__100__11-38-02-436.txt Node

Date: Fri Mar 14 11:38:02 EDT 2025
User: louis
Spectrometer: USB4F10415
Trigger mode: 4
Integration Time (sec): 2.000000E-2
Scans to average: 1
Electric dark correction enabled: true
Nonlinearity correction enabled: false
Boxcar width: 0
XAxis mode: Wavelengths
Number of Pixels in Spectrum: 3648
>>>>>Begin Spectral Data<<<<<
178.204	-30.04
178.424	-30.04
178.644	-30.04
178.864	-48.47
179.084	-34.13
179.304	27.31
179.524	-36.18
179.744	-36.18
179.964	-25.94
180.184	51.88
180.404	-11.61
180.624	58.03
180.844	-34.13
181.064	-79.19
181.283	55.98
181.503	12.97
181.723	17.07
181.943	-9.56
182.163	47.79
182.383	23.21
182.602	-5.46
182.822	-21.85
183.042	-27.99
183.262	4.78
183.482	27.31
183.701	37.55
183.921	21.16
184.141	25.26
184.361	49.83
184.58	-13.65
184.8	-15.7
185.02	23.21
185.239	-19.8
185.459	-30.04
185.679	45.74
185.898	33.45
186.118	66.22
186.338	19.11
186.557	-5.46
186.777	45.74
186.997	39.59
187.216	-30.04
187.436	2.73
187.655	107.18
187.875	19.11
188.095	45.74
188.314	29.35
188.534	-3.41
188.753	35.5
188.973	53.93
189.192	31.4
189.412	29.35
189.631	6.83
189.851	62.12
190.07	58.03
190.29	51.88
190.509	10.92
190.729	43.69
190.948	-1.37
191.168	90.79
191.387	8.87
191.607	17.07
191.826	55.98
192.045	-11.61
192.265	31.4
192.484	-21.85
192.704	66.22
192.923	23.21
193.142	35.5
193.362	-3.41
193.581	17.07
193.8	-66.9
194.02	25.26
194.239	66.22
194.458	-15.7
194.678	-32.08
194.897	35.5
195.116	-9.56
195.335	6.83
195.555	41.64
195.774	66.22
195.993	37.55
196.212	6.83
196.432	-3.41
196.651	-25.94
196.87	-36.18
197.089	-36.18
197.308	-3.41
197.528	6.83
197.747	49.83
197.966	8.87
198.185	25.26
198.404	29.35
198.623	8.87
198.842	70.31
199.062	39.59
199.281	66.22
199.5	86.7
199.719	72.36
199.938	39.59
200.157	137.9
200.376	27.31
200.595	10.92
200.814	31.4
201.033	21.16
201.252	58.03
201.471	29.35
201.69	-11.61
201.909	64.17
202.128	33.45
202.347	35.5
202.566	-17.75
202.785	0.68
203.004	27.31
203.223	94.89
203.442	60.07
203.661	82.6
203.879	64.17
204.098	66.22
204.317	31.4
204.536	78.51
204.755	2.73
204.974	53.93
205.193	43.69
205.411	6.83
205.63	53.93
205.849	8.87
206.068	51.88
206.287	94.89
206.505	92.84
206.724	23.21
206.943	45.74
207.162	-30.04
207.381	39.59
207.599	43.69
207.818	15.02
208.037	-32.08
208.255	88.75
208.474	37.55
208.693	78.51
208.911	25.26
209.13	17.07
209.349	-21.85
209.567	12.97
209.786	58.03
210.005	60.07
210.223	82.6
210.442	8.87
210.661	70.31
210.879	6.83
211.098	103.08
211.316	12.97
211.535	49.83
211.753	-25.94
211.972	-11.61
212.191	10.92
212.409	29.35
212.628	-40.28
212.846	-21.85
213.065	31.4
213.283	33.45
213.502	10.92
213.72	-13.65
213.938	-21.85
214.157	-13.65
214.375	53.93
214.594	64.17
214.812	90.79
215.031	-23.89
215.249	-7.51
215.467	-3.41
215.686	74.41
215.904	49.83
216.122	45.74
216.341	17.07
216.559	19.11
216.778	105.13
216.996	55.98
217.214	15.02
217.432	-44.37
217.651	19.11
217.869	-21.85
218.087	47.79
218.306	29.35
218.524	49.83
218.742	-9.56
218.96	-32.08
219.179	29.35
219.397	-9.56
219.615	62.12
219.833	98.99
220.051	-5.46
220.27	17.07
220.488	72.36
220.706	43.69
220.924	66.22
221.142	84.65
221.36	29.35
221.578	43.69
221.796	8.87
222.015	41.64
222.233	8.87
222.451	41.64
222.669	-15.7
222.887	-46.42
223.105	-13.65
223.323	45.74
223.541	-58.71
223.759	17.07
223.977	39.59
224.195	8.87
224.413	39.59
224.631	-3.41
224.849	2.73
225.067	-3.41
225.285	17.07
225.503	37.55
225.721	-25.94
225.939	0.68
226.157	-32.08
226.375	60.07
226.592	4.78
226.81	51.88
227.028	82.6
227.246	-3.41
227.464	21.16
227.682	70.31
227.9	-11.61
228.117	39.59
228.335	10.92
228.553	-9.56
228.771	49.83
228.989	6.83
229.206	21.16
229.424	31.4
229.642	-60.76
229.86	49.83
230.077	94.89
230.295	12.97
230.513	29.35
230.731	2.73
230.948	25.26
231.166	-9.56
231.384	12.97
231.601	-15.7
231.819	12.97
232.037	135.85
232.254	-3.41
232.472	-3.41
232.689	12.97
232.907	29.35
233.125	2.73
233.342	47.79
233.56	27.31
233.777	-11.61
233.995	6.83
234.213	62.12
234.43	27.31
234.648	47.79
234.865	29.35
235.083	29.35
235.3	41.64
235.518	12.97
235.735	4.78
235.953	-3.41
236.17	55.98
236.388	-3.41
236.605	-23.89
236.822	12.97
237.04	51.88
237.257	43.69
237.475	-27.99
237.692	51.88
237.909	31.4
238.127	-36.18
238.344	12.97
238.562	21.16
238.779	60.07
238.996	-60.76
239.214	-60.76
239.431	12.97
239.648	-13.65
239.865	43.69
240.083	12.97
240.3	103.08
240.517	12.97
240.735	33.45
240.952	-7.51
241.169	64.17
241.386	51.88
241.603	-13.65
241.821	0.68
242.038	31.4
242.255	45.74
242.472	35.5
242.689	-48.47
242.907	-25.94
243.124	-1.37
243.341	41.64
243.558	-7.51
243.775	66.22
243.992	68.27
244.209	4.78
244.426	21.16
244.643	21.16
244.86	-15.7
245.078	37.55
245.295	49.83
245.512	78.51
245.729	82.6
245.946	23.21
246.163	-30.04
246.38	-27.99
246.597	10.92
246.814	10.92
247.031	-15.7
247.248	-21.85
247.464	49.83
247.681	-11.61
247.898	47.79
248.115	37.55
248.332	17.07
248.549	51.88
248.766	12.97
248.983	76.46
249.2	68.27
249.417	15.02
249.633	15.02
249.85	51.88
250.067	51.88
250.284	-13.65
250.501	12.97
250.717	72.36
250.934	-5.46
251.151	-32.08
251.368	111.27
251.585	78.51
251.801	-60.76
252.018	53.93
252.235	27.31
252.451	0.68
252.668	33.45
252.885	94.89
253.102	0.68
253.318	6.83
253.535	-23.89
253.752	-40.28
253.968	45.74
254.185	53.93
254.401	12.97
254.618	12.97
254.835	-7.51
255.051	-23.89
255.268	-3.41
255.484	0.68
255.701	-13.65
255.917	58.03
256.134	78.51
256.351	8.87
256.567	-46.42
256.784	66.22
257	23.21
257.217	-19.8
257.433	17.07
257.65	-19.8
257.866	141.99
258.082	29.35
258.299	29.35
258.515	35.5
258.732	-5.46
258.948	-5.46
259.165	21.16
259.381	27.31
259.597	-38.23
259.814	45.74
260.03	10.92
260.246	15.02
260.463	8.87
260.679	62.12
260.895	-3.41
261.112	111.27
261.328	51.88
261.544	10.92
261.761	29.35
261.977	62.12
262.193	-11.61
262.409	-13.65
262.626	94.89
262.842	8.87
263.058	-40.28
263.274	76.46
263.49	15.02
263.707	-3.41
263.923	23.21
264.139	-42.32
264.355	51.88
264.571	35.5
264.787	-52.56
265.004	72.36
265.22	21.16
265.436	19.11
265.652	29.35
265.868	8.87
266.084	8.87
266.3	-40.28
266.516	25.26
266.732	-32.08
266.948	-9.56
267.164	25.26
267.38	31.4
267.596	41.64
267.812	70.31
268.028	55.98
268.244	6.83
268.46	47.79
268.676	-19.8
268.892	58.03
269.108	-17.75
269.324	45.74
269.54	88.75
269.756	72.36
269.972	-30.04
270.188	25.26
270.403	33.45
270.619	23.21
270.835	12.97
271.051	80.55
271.267	29.35
271.483	25.26
271.698	27.31
271.914	78.51
272.13	72.36
272.346	-58.71
272.562	0.68
272.777	80.55
272.993	41.64
273.209	-23.89
273.425	70.31
273.64	8.87
273.856	10.92
274.072	-11.61
274.287	10.92
274.503	-27.99
274.719	37.55
274.934	21.16
275.15	35.5
275.366	82.6
275.581	-46.42
275.797	39.59
276.012	82.6
276.228	21.16
276.444	-23.89
276.659	66.22
276.875	8.87
277.09	117.42
277.306	29.35
277.521	68.27
277.737	70.31
277.952	86.7
278.168	-27.99
278.383	-40.28
278.599	-17.75
278.814	62.12
279.03	-25.94
279.245	45.74
279.461	17.07
279.676	70.31
279.892	86.7
280.107	23.21
280.322	35.5
280.538	25.26
280.753	19.11
280.969	-5.46
281.184	15.02
281.399	84.65
281.615	-13.65
281.83	82.6
282.045	-9.56
282.26	-7.51
282.476	70.31
282.691	64.17
282.906	-30.04
283.122	33.45
283.337	8.87
283.552	4.78
283.767	0.68
283.983	45.74
284.198	-27.99
284.413	31.4
284.628	-40.28
284.843	19.11
285.058	82.6
285.274	27.31
285.489	-19.8
285.704	53.93
285.919	-23.89
286.134	78.51
286.349	2.73
286.564	19.11
286.779	68.27
286.995	92.84
287.21	49.83
287.425	-25.94
287.64	6.83
287.855	86.7
288.07	29.35
288.285	8.87
288.5	66.22
288.715	92.84
288.93	4.78
289.145	0.68
289.36	-23.89
289.575	23.21
289.79	94.89
290.004	88.75
290.219	41.64
290.434	-36.18
290.649	21.16
290.864	62.12
291.079	-19.8
291.294	12.97
291.509	2.73
291.724	111.27
291.938	2.73
292.153	53.93
292.368	4.78
292.583	43.69
292.798	12.97
293.012	70.31
293.227	41.64
293.442	12.97
293.657	17.07
293.871	80.55
294.086	12.97
294.301	-54.61
294.516	25.26
294.73	-3.41
294.945	82.6
295.16	-25.94
295.374	53.93
295.589	41.64
295.804	-11.61
296.018	33.45
296.233	-15.7
296.447	62.12
296.662	-21.85
296.877	127.66
297.091	-13.65
297.306	-25.94
297.52	0.68
297.735	53.93
297.949	8.87
298.164	76.46
298.378	4.78
298.593	17.07
298.807	49.83
299.022	39.59
299.236	17.07
299.451	8.87
299.665	-11.61
299.88	62.12
300.094	88.75
300.309	-15.7
300.523	41.64
300.737	-5.46
300.952	45.74
301.166	2.73
301.381	39.59
301.595	37.55
301.809	-21.85
302.024	76.46
302.238	8.87
302.452	84.65
302.667	64.17
302.881	70.31
303.095	25.26
303.309	41.64
303.524	-11.61
303.738	-27.99
303.952	-32.08
304.166	51.88
304.381	-77.14
304.595	70.31
304.809	10.92
305.023	86.7
305.237	58.03
305.452	0.68
305.666	109.22
305.88	-58.71
306.094	-1.37
306.308	10.92
306.522	47.79
306.736	62.12
306.95	49.83
307.164	19.11
307.379	23.21
307.593	29.35
307.807	21.16
308.021	96.94
308.235	60.07
308.449	-66.9
308.663	35.5
308.877	121.51
309.091	-71
309.305	-38.23
309.519	-68.95
309.733	58.03
309.947	27.31
310.161	84.65
310.374	62.12
310.588	45.74
310.802	31.4
311.016	58.03
311.23	35.5
311.444	35.5
311.658	23.21
311.872	27.31
312.085	53.93
312.299	60.07
312.513	35.5
312.727	68.27
312.941	43.69
313.154	37.55
313.368	51.88
313.582	72.36
313.796	74.41
314.009	70.31
314.223	70.31
314.437	-7.51
314.651	111.27
314.864	60.07
315.078	12.97
315.292	45.74
315.505	27.31
315.719	105.13
315.933	70.31
316.146	33.45
316.36	74.41
316.573	74.41
316.787	29.35
317.001	45.74
317.214	51.88
317.428	43.69
317.641	-7.51
317.855	2.73
318.068	49.83
318.282	45.74
318.495	98.99
318.709	76.46
318.922	4.78
319.136	98.99
319.349	33.45
319.563	127.66
319.776	-27.99
319.99	-1.37
320.203	72.36
320.417	-27.99
320.63	62.12
320.843	70.31
321.057	-3.41
321.27	10.92
321.483	94.89
321.697	37.55
321.91	92.84
322.124	6.83
322.337	6.83
322.55	41.64
322.763	-21.85
322.977	12.97
323.19	-38.23
323.403	-36.18
323.617	-5.46
323.83	60.07
324.043	53.93
324.256	60.07
324.469	74.41
324.683	29.35
324.896	31.4
325.109	17.07
325.322	-7.51
325.535	117.42
325.748	17.07
325.962	-34.13
326.175	51.88
326.388	41.64
326.601	33.45
326.814	31.4
327.027	21.16
327.24	115.37
327.453	49.83
327.666	25.26
327.879	68.27
328.092	58.03
328.305	47.79
328.518	39.59
328.731	-15.7
328.944	43.69
329.157	29.35
329.37	113.32
329.583	78.51
329.796	76.46
330.009	39.59
330.222	64.17
330.435	60.07
330.648	49.83
330.861	115.37
331.073	64.17
331.286	68.27
331.499	8.87
331.712	-1.37
331.925	64.17
332.138	15.02
332.35	4.78
332.563	41.64
332.776	62.12
332.989	-9.56
333.202	-19.8
333.414	-73.04
333.627	51.88
333.84	37.55
334.053	98.99
334.265	144.04
334.478	33.45
334.691	53.93
334.903	55.98
335.116	66.22
335.329	0.68
335.541	49.83
335.754	53.93
335.966	-19.8
336.179	60.07
336.392	43.69
336.604	-7.51
336.817	62.12
337.029	17.07
337.242	86.7
337.454	58.03
337.667	45.74
337.88	70.31
338.092	90.79
338.305	58.03
338.517	12.97
338.729	21.16
338.942	4.78
339.154	74.41
339.367	53.93
339.579	35.5
339.792	-36.18
340.004	33.45
340.217	-3.41
340.429	158.38
340.641	45.74
340.854	-9.56
341.066	-3.41
341.278	55.98
341.491	8.87
341.703	70.31
341.915	23.21
342.128	10.92
342.34	58.03
342.552	8.87
342.764	76.46
342.977	17.07
343.189	101.03
343.401	-46.42
343.613	53.93
343.826	41.64
344.038	-9.56
344.25	31.4
344.462	25.26
344.674	-5.46
344.886	35.5
345.099	-11.61
345.311	58.03
345.523	10.92
345.735	4.78
345.947	98.99
346.159	60.07
346.371	0.68
346.583	-52.56
346.795	98.99
347.007	-23.89
347.219	66.22
347.431	12.97
347.643	-1.37
347.855	37.55
348.067	37.55
348.279	-3.41
348.491	49.83
348.703	10.92
348.915	-30.04
349.127	62.12
349.339	-27.99
349.551	55.98
349.763	55.98
349.975	23.21
350.187	12.97
350.399	119.46
350.61	49.83
350.822	-11.61
351.034	62.12
351.246	15.02
351.458	-19.8
351.669	64.17
351.881	31.4
352.093	53.93
352.305	-11.61
352.517	31.4
352.728	62.12
352.94	4.78
353.152	121.51
353.363	109.22
353.575	72.36
353.787	53.93
353.999	-11.61
354.21	-3.41
354.422	-21.85
354.633	12.97
354.845	58.03
355.057	21.16
355.268	10.92
355.48	17.07
355.692	-11.61
355.903	70.31
356.115	37.55
356.326	78.51
356.538	76.46
356.749	31.4
356.961	168.62
357.172	23.21
357.384	41.64
357.595	125.61
357.807	51.88
358.018	35.5
358.23	76.46
358.441	62.12
358.653	76.46
358.864	-21.85
359.075	35.5
359.287	105.13
359.498	66.22
359.709	90.79
359.921	148.14
360.132	4.78
360.344	78.51
360.555	101.03
360.766	55.98
360.977	58.03
361.189	72.36
361.4	8.87
361.611	70.31
361.823	51.88
362.034	53.93
362.245	23.21
362.456	49.83
362.667	33.45
362.879	41.64
363.09	82.6
363.301	86.7
363.512	0.68
363.723	17.07
363.935	23.21
364.146	-21.85
364.357	41.64
364.568	8.87
364.779	17.07
364.99	37.55
365.201	-11.61
365.412	47.79
365.623	15.02
365.834	66.22
366.045	19.11
366.256	19.11
366.467	45.74
366.678	-40.28
366.889	-46.42
367.1	62.12
367.311	19.11
367.522	31.4
367.733	-1.37
367.944	45.74
368.155	19.11
368.366	27.31
368.577	29.35
368.788	82.6
368.999	35.5
369.209	43.69
369.42	86.7
369.631	96.94
369.842	35.5
370.053	35.5
370.264	23.21
370.474	-42.32
370.685	86.7
370.896	37.55
371.107	33.45
371.317	33.45
371.528	111.27
371.739	98.99
371.95	105.13
372.16	113.32
372.371	-17.75
372.582	121.51
372.792	62.12
373.003	62.12
373.214	-13.65
373.424	31.4
373.635	-1.37
373.846	109.22
374.056	68.27
374.267	98.99
374.477	12.97
374.688	-64.85
374.898	-5.46
375.109	27.31
375.319	49.83
375.53	135.85
375.74	25.26
375.951	43.69
376.161	86.7
376.372	103.08
376.582	113.32
376.793	-27.99
377.003	70.31
377.214	68.27
377.424	-5.46
377.635	98.99
377.845	2.73
378.055	47.79
378.266	19.11
378.476	25.26
378.686	35.5
378.897	15.02
379.107	53.93
379.317	39.59
379.528	8.87
379.738	84.65
379.948	45.74
380.158	82.6
380.369	29.35
380.579	119.46
380.789	45.74
380.999	53.93
381.21	35.5
381.42	60.07
381.63	27.31
381.84	31.4
382.05	0.68
382.261	58.03
382.471	68.27
382.681	45.74
382.891	103.08
383.101	90.79
383.311	8.87
383.521	41.64
383.731	27.31
383.941	55.98
384.151	70.31
384.361	4.78
384.571	51.88
384.781	78.51
384.991	35.5
385.201	78.51
385.411	62.12
385.621	60.07
385.831	4.78
386.041	37.55
386.251	-5.46
386.461	10.92
386.671	82.6
386.881	180.9
387.091	31.4
387.301	-11.61
387.511	82.6
387.72	74.41
387.93	68.27
388.14	29.35
388.35	64.17
388.56	74.41
388.769	156.33
388.979	55.98
389.189	-5.46
389.399	58.03
389.609	76.46
389.818	45.74
390.028	92.84
390.238	53.93
390.447	76.46
390.657	123.56
390.867	103.08
391.076	76.46
391.286	35.5
391.496	98.99
391.705	70.31
391.915	90.79
392.125	45.74
392.334	29.35
392.544	37.55
392.753	64.17
392.963	-3.41
393.172	70.31
393.382	41.64
393.591	103.08
393.801	107.18
394.01	82.6
394.22	70.31
394.429	45.74
394.639	62.12
394.848	29.35
395.058	72.36
395.267	82.6
395.477	21.16
395.686	60.07
395.895	98.99
396.105	94.89
396.314	31.4
396.524	10.92
396.733	74.41
396.942	60.07
397.152	98.99
397.361	150.18
397.57	127.66
397.78	66.22
397.989	154.28
398.198	166.57
398.407	78.51
398.617	119.46
398.826	60.07
399.035	117.42
399.244	103.08
399.453	96.94
399.663	164.52
399.872	121.51
400.081	94.89
400.29	115.37
400.499	107.18
400.708	45.74
400.917	101.03
401.127	127.66
401.336	74.41
401.545	168.62
401.754	135.85
401.963	166.57
402.172	129.7
402.381	37.55
402.59	109.22
402.799	133.8
403.008	129.7
403.217	115.37
403.426	72.36
403.635	78.51
403.844	127.66
404.053	107.18
404.262	127.66
404.471	53.93
404.68	207.53
404.888	127.66
405.097	92.84
405.306	160.42
405.515	137.9
405.724	201.38
405.933	176.81
406.142	127.66
406.35	119.46
406.559	119.46
406.768	156.33
406.977	168.62
407.185	180.9
407.394	170.66
407.603	172.71
407.812	135.85
408.02	189.1
408.229	240.29
408.438	203.43
408.646	168.62
408.855	174.76
409.064	285.35
409.272	254.63
409.481	232.1
409.69	217.77
409.898	305.83
410.107	332.45
410.315	287.4
410.524	244.39
410.733	285.35
410.941	320.17
411.15	328.36
411.358	275.11
411.567	391.84
411.775	395.94
411.984	412.32
412.192	379.56
412.401	426.66
412.609	383.65
412.818	406.18
413.026	463.52
413.234	387.75
413.443	461.48
413.651	520.87
413.86	563.87
414.068	563.87
414.276	563.87
414.485	547.49
414.693	594.59
414.901	639.65
415.11	649.89
415.318	637.6
415.526	653.98
415.734	742.05
415.943	731.81
416.151	821.92
416.359	828.06
416.567	740
416.776	838.3
416.984	893.6
417.192	873.12
417.4	934.56
417.608	905.88
417.817	950.94
418.025	955.04
418.233	1086.11
418.441	1088.15
418.649	1102.49
418.857	1151.64
419.065	1225.37
419.273	1192.6
419.481	1256.09
419.689	1282.71
419.897	1352.34
420.105	1350.29
420.313	1436.31
420.521	1514.13
420.729	1585.81
420.937	1555.09
421.145	1501.84
421.353	1684.11
421.561	1794.7
421.769	1897.1
421.977	1970.83
422.185	1761.94
422.393	1970.83
422.601	2198.15
422.809	2163.34
423.017	2159.24
423.224	2282.12
423.432	2208.39
423.64	2253.45
423.848	2531.97
424.056	2488.96
424.263	2644.61
424.471	2628.23
424.679	2615.94
424.887	2790.02
425.094	2876.03
425.302	2873.98
425.51	2968.19
425.718	3146.36
425.925	3113.6
426.133	3256.95
426.341	3486.33
426.548	3623.54
426.756	3648.11
426.964	3676.79
427.171	3762.8
427.379	3834.48
427.586	3959.41
427.794	4160.11
428.001	4242.03
428.209	4530.79
428.417	4446.82
428.624	4887.14
428.832	4756.07
429.039	4805.22
429.247	4717.15
429.454	5165.66
429.662	5495.38
429.869	5126.75
430.076	5442.14
430.284	5409.37
430.491	5591.64
430.699	5921.36
430.906	5935.7
431.114	5974.61
431.321	6277.71
431.528	6369.87
431.736	6752.84
431.943	7082.56
432.15	6926.91
432.358	6951.49
432.565	7291.45
432.772	7270.97
432.979	7617.08
433.187	7879.22
433.394	7893.55
433.601	8280.62
433.808	8481.32
434.016	8145.45
434.223	8610.34
434.43	9208.35
434.637	9013.79
434.844	9710.1
435.052	9749.01
435.259	9738.77
435.466	9738.77
435.673	9646.62
435.88	10363.4
436.087	10859.01
436.294	10824.2
436.501	10740.23
436.708	10881.54
436.915	11276.8
437.122	11723.26
437.329	11647.48
437.537	12235.25
437.743	12253.68
437.95	12136.95
438.157	12964.32
438.364	13349.34
438.571	13244.9
438.778	13355.49
438.985	14559.69
439.192	14045.65
439.399	14428.62
439.606	14150.1
439.813	14713.29
440.02	15724.99
440.227	15303.11
440.433	15512
440.64	15894.97
440.847	15774.14
441.054	16159.16
441.261	17285.54
441.467	17334.69
441.674	17543.58
441.881	18143.64
442.088	17858.97
442.294	17754.52
442.501	18092.44
442.708	18411.92
442.914	19497.35
443.121	20316.53
443.328	19509.63
443.534	21387.62
443.741	20744.56
443.948	20189.56
444.154	21862.75
444.361	21920.09
444.568	21866.85
444.774	21715.3
444.981	22049.11
445.187	22829.39
445.394	23773.5
445.6	23292.23
445.807	25542.95
446.013	24561.97
446.22	25176.36
446.426	26165.53
446.633	26343.7
446.839	27283.72
447.046	26038.56
447.252	27308.3
447.459	27412.74
447.665	27455.75
447.871	28909.81
448.078	30054.62
448.284	28598.52
448.491	29151.47
448.697	30329.05
448.903	31441.1
449.11	30927.06
449.316	30712.02
449.522	31160.53
449.728	31967.43
449.935	32047.3
450.141	32106.69
450.347	33517.74
450.553	32069.83
450.76	32532.67
450.966	33480.88
451.172	33532.07
451.378	33939.62
451.584	33388.72
451.791	33771.69
451.997	33919.14
452.203	34572.44
452.409	34865.3
452.615	34644.12
452.821	33534.12
453.027	32731.32
453.233	34828.44
453.44	33360.05
453.646	33714.34
453.852	33876.13
454.058	34812.06
454.264	33376.43
454.47	34177.19
454.676	33368.24
454.882	34619.55
455.088	31318.22
455.294	31901.89
455.5	32483.51
455.705	32549.05
455.911	31168.72
456.117	30791.89
456.323	30314.72
456.529	28788.98
456.735	30025.95
456.941	29239.53
457.147	28393.72
457.352	27889.92
457.558	27578.63
457.764	27910.4
457.97	27158.8
458.176	26540.31
458.381	26730.77
458.587	24903.98
458.793	25377.06
458.999	24088.89
459.204	25721.12
459.41	24901.93
459.616	23294.28
459.821	23337.29
460.027	23066.95
460.233	22765.9
460.438	21703.01
460.644	22024.54
460.85	21086.57
461.055	20709.74
461.261	20676.98
461.466	19259.78
461.672	18461.07
461.878	19784.06
462.083	18473.36
462.289	18313.62
462.494	17967.51
462.7	17220
462.905	16714.16
463.111	17346.98
463.316	17146.28
463.522	17056.17
463.727	17002.92
463.932	16761.26
464.138	16646.57
464.343	16939.43
464.549	16353.71
464.754	16673.2
464.959	16806.31
465.165	16578.99
465.37	15929.78
465.575	15475.13
465.781	16083.38
465.986	16136.63
466.191	15862.2
466.397	15471.04
466.602	14535.12
466.807	15352.26
467.012	14938.57
467.218	15012.29
467.423	14791.11
467.628	15057.35
467.833	15481.28
468.038	15086.02
468.244	14541.26
468.449	15282.63
468.654	14629.32
468.859	14748.11
469.064	14496.21
469.269	13920.73
469.474	14225.87
469.679	14467.53
469.885	13838.81
470.09	14092.76
470.295	13773.27
470.5	13677.02
470.705	13849.05
470.91	13531.61
471.115	13357.53
471.32	13537.76
471.525	13429.21
471.73	13203.94
471.935	12947.94
472.139	12812.78
472.344	12714.47
472.549	12726.76
472.754	12446.19
472.959	12354.03
473.164	12141.04
473.369	11966.96
473.574	12243.44
473.778	12268.02
473.983	12284.4
474.188	12124.66
474.393	11330.05
474.598	11833.85
474.802	11418.11
475.007	11596.28
475.212	11340.29
475.417	10856.96
475.621	11211.26
475.826	11028.99
476.031	10736.13
476.235	10711.56
476.44	10824.2
476.645	10660.36
476.849	10500.62
477.054	10334.73
477.259	10598.92
477.463	10304.01
477.668	9984.53
477.872	10109.46
478.077	9923.09
478.282	9474.59
478.486	9761.3
478.691	9654.81
478.895	9736.73
479.1	9576.98
479.304	9595.42
479.509	9447.96
479.713	9310.75
479.918	9255.45
480.122	9138.72
480.326	9413.15
480.531	9323.04
480.735	9130.53
480.94	9099.81
481.144	9245.21
481.348	8849.96
481.553	8938.02
481.757	8669.73
481.961	9191.97
482.166	9208.35
482.37	9112.1
482.574	8878.63
482.778	8817.19
482.983	9052.7
483.187	8954.4
483.391	8835.62
483.595	8976.93
483.8	8647.21
484.004	8899.11
484.208	9069.09
484.412	8694.31
484.616	8849.96
484.821	8935.97
485.025	8866.34
485.229	8759.84
485.433	8774.18
485.637	8655.4
485.841	8890.91
486.045	8974.88
486.249	8714.79
486.453	8784.42
486.657	8944.16
486.861	8671.78
487.065	8616.49
487.269	8800.8
487.473	8733.22
487.677	9013.79
487.881	8854.05
488.085	8821.28
488.289	8956.45
488.493	8849.96
488.697	9046.56
488.901	9024.03
489.105	8944.16
489.309	8749.61
489.512	8802.85
489.716	8958.5
489.92	8882.72
490.124	8895.01
490.328	9245.21
490.531	8870.44
490.735	9196.06
490.939	9163.29
491.143	9110.05
491.346	9202.21
491.55	9204.25
491.754	9163.29
491.958	9509.4
492.161	9345.56
492.365	9431.58
492.569	9368.09
492.772	9327.13
492.976	9507.35
493.18	9523.74
493.383	9597.46
493.587	9687.57
493.79	9886.23
493.994	9677.33
494.197	9888.28
494.401	10023.44
494.605	9746.97
494.808	10166.8
495.012	10258.96
495.215	10095.12
495.419	10269.2
495.622	10056.21
495.825	10293.77
496.029	10320.4
496.232	10641.93
496.436	10519.05
496.639	10967.56
496.843	10955.27
497.046	10764.81
497.249	11051.52
497.453	11031.04
497.656	11299.33
497.859	11321.85
498.063	11420.16
498.266	11522.55
498.469	11725.3
498.673	11682.3
498.876	12050.93
499.079	12171.76
499.282	12052.98
499.485	12151.28
499.689	12313.07
499.892	12663.27
500.095	12757.48
500.298	12851.69
500.501	12767.72
500.705	13294.05
500.908	13228.51
501.111	13388.25
501.314	13363.68
501.517	13728.22
501.72	13740.5
501.923	13687.26
502.126	14051.8
502.329	14494.16
502.532	14373.33
502.735	14631.37
502.938	14909.9
503.141	14795.21
503.344	15155.65
503.547	15008.2
503.75	15415.74
503.953	15602.11
504.156	15894.97
504.359	15999.41
504.562	15794.62
504.765	16488.88
504.968	16331.19
505.17	16605.61
505.373	16409.01
505.576	17187.24
505.779	17031.59
505.982	17191.33
506.185	17541.53
506.387	17494.43
506.59	17629.6
506.793	18141.59
506.996	17893.79
507.198	18362.77
507.401	18334.1
507.604	18528.66
507.807	19181.96
508.009	19407.23
508.212	19251.59
508.415	19609.98
508.617	19696
508.82	19853.69
509.022	19583.36
509.225	20429.17
509.428	20156.79
509.63	20652.4
509.833	20578.67
510.035	20953.45
510.238	21094.76
510.44	21461.35
510.643	21760.35
510.845	22092.12
511.048	21879.13
511.25	22270.29
511.453	21899.61
511.655	23212.36
511.858	22929.74
512.06	22808.91
512.262	23241.03
512.465	23189.83
512.667	23644.48
512.87	24215.87
513.072	23988.54
513.274	24494.39
513.477	24961.33
513.679	24924.46
513.881	25125.16
514.084	25198.89
514.286	25012.53
514.488	25401.64
514.69	26245.4
514.893	26183.96
515.095	26515.73
515.297	26716.44
515.499	26618.13
515.701	27109.65
515.904	27642.12
516.106	27212.04
516.308	27586.82
516.51	28049.66
516.712	27982.08
516.914	28340.47
517.116	28745.97
517.318	28612.85
517.52	29022.45
517.722	29014.26
517.925	29292.78
518.127	29573.35
518.329	29915.36
518.531	30021.86
518.733	30240.99
518.935	30806.23
519.136	30517.47
519.338	31404.24
519.54	31131.86
519.742	31174.86
519.944	31514.83
520.146	32112.83
520.348	31949
520.55	32178.37
520.752	32391.36
520.954	32630.97
521.155	32542.91
521.357	33192.11
521.559	33405.1
521.761	33728.68
521.963	33568.94
522.164	33956
522.366	34005.16
522.568	34554.01
522.77	34521.24
522.971	34816.15
523.173	34652.31
523.375	35158.16
523.576	35180.69
523.778	35006.61
523.98	35629.19
524.181	36116.61
524.383	35670.15
524.584	36186.24
524.786	35909.77
524.988	36159.62
525.189	36550.78
525.391	36575.36
525.592	36814.97
525.794	37173.36
525.995	37146.74
526.197	36999.29
526.398	37390.45
526.6	37935.21
526.801	37574.77
527.003	37673.07
527.204	37806.19
527.406	38199.4
527.607	38090.85
527.808	38236.26
528.01	37912.68
528.211	37855.34
528.412	39080.02
528.614	38422.62
528.815	38686.81
529.016	38862.94
529.218	38318.18
529.419	38840.41
529.62	38785.11
529.822	39123.03
530.023	38797.4
530.224	38955.1
530.425	39004.25
530.626	38697.05
530.828	38733.92
531.029	39864.39
531.23	39207
531.431	39180.37
531.632	39762
531.833	39854.15
532.035	39422.03
532.236	39393.36
532.437	39690.32
532.638	39352.4
532.839	39663.69
533.04	39870.54
533.241	39051.35
533.442	40355.91
533.643	39917.64
533.844	39970.89
534.045	39999.56
534.246	39442.51
534.447	39587.92
534.648	39563.34
534.849	39684.17
535.05	39524.43
535.251	40194.12
535.451	39520.34
535.652	39886.92
535.853	39747.66
536.054	39964.74
536.255	39704.65
536.456	39528.53
536.657	40343.62
536.857	39653.45
537.058	39766.09
537.259	39917.64
537.46	40007.75
537.66	39434.32
537.861	39962.7
538.062	39778.38
538.263	39788.62
538.463	39848.01
538.664	39848.01
538.865	39665.74
539.065	39970.89
539.266	39520.34
539.466	39876.68
539.667	38869.08
539.868	40384.58
540.068	39794.76
540.269	39620.69
540.469	39815.24
540.67	39319.63
540.87	39788.62
541.071	39647.31
541.271	40149.06
541.472	40179.78
541.672	39827.53
541.873	40099.91
542.073	39184.47
542.274	39753.8
542.474	39247.96
542.675	39635.02
542.875	39893.07
543.075	39508.05
543.276	39080.02
543.476	40196.17
543.676	39641.17
543.877	39639.12
544.077	39555.15
544.277	39759.95
544.478	39297.11
544.678	39632.97
544.878	39557.2
545.078	39858.25
545.279	39295.06
545.479	39241.81
545.679	39581.77
545.879	39102.55
546.079	39350.35
546.28	39370.83
546.48	39260.24
546.68	39544.91
546.88	39831.63
547.08	39323.73
547.28	39850.06
547.48	38889.56
547.68	39514.19
547.88	39225.43
548.081	39581.77
548.281	38899.8
548.481	38901.85
548.681	39630.93
548.881	39401.55
549.081	39319.63
549.28	39045.21
549.48	39514.19
549.68	39010.39
549.88	39516.24
550.08	39172.18
550.28	39282.77
550.48	39174.23
550.68	39393.36
550.88	38850.65
551.08	39057.49
551.279	39385.17
551.479	38742.11
551.679	39127.13
551.879	38758.49
552.079	39274.58
552.278	38809.69
552.478	39057.49
552.678	39088.21
552.878	39184.47
553.077	39053.4
553.277	38881.37
553.477	39327.83
553.676	38652
553.876	38746.2
554.076	38576.22
554.275	38631.52
554.475	38299.75
554.674	38543.45
554.874	38662.24
555.074	38338.66
555.273	38832.22
555.473	38795.35
555.672	38647.9
555.872	38256.74
556.071	38359.14
556.271	38869.08
556.47	38621.28
556.67	38064.23
556.869	38176.87
557.068	38432.86
557.268	38060.13
557.467	37988.46
557.667	38133.86
557.866	38170.72
558.065	38269.03
558.265	38015.08
558.464	38193.25
558.663	38201.44
558.863	37601.39
559.062	38465.63
559.261	37666.92
559.461	38107.24
559.66	37361.78
559.859	37902.44
560.058	37613.68
560.258	38008.93
560.457	37314.67
560.656	38053.99
560.855	37724.27
561.054	37822.57
561.253	37490.8
561.453	37572.72
561.652	37714.03
561.851	37556.33
562.05	37509.23
562.249	37316.72
562.448	37447.79
562.647	37390.45
562.846	37400.69
563.045	37654.64
563.244	36864.12
563.443	37460.08
563.642	36780.15
563.841	37124.21
564.04	36769.91
564.239	36995.19
564.438	36896.89
564.637	36878.46
564.836	36778.11
565.035	36386.94
565.234	36685.95
565.432	36388.99
565.631	36112.52
565.83	36470.91
566.029	36440.19
566.228	36321.41
566.427	36317.31
566.625	36190.34
566.824	36012.17
567.023	36411.52
567.222	35623.05
567.42	36116.61
567.619	35840.14
567.818	35739.79
568.016	35930.25
568.215	36239.49
568.414	35575.95
568.612	35842.18
568.811	35278.99
569.01	35801.22
569.208	35025.04
569.407	35569.8
569.605	34986.13
569.804	35485.84
570.002	34904.21
570.201	35516.56
570.4	34838.68
570.598	34932.89
570.797	35045.52
570.995	34816.15
571.193	34271.39
571.392	35012.76
571.59	34441.37
571.789	34615.45
571.987	34629.79
572.186	34551.96
572.384	34443.42
572.582	34730.14
572.781	34531.48
572.979	33921.19
573.177	34353.31
573.376	34240.67
573.574	34001.06
573.772	34228.38
573.971	33593.51
574.169	33552.55
574.367	33618.09
574.565	33953.96
574.763	33585.32
574.962	33509.55
575.16	33452.2
575.358	33353.9
575.556	33106.1
575.754	33413.29
575.952	33333.42
576.151	33155.25
576.349	32981.17
576.547	32811.19
576.745	32866.49
576.943	33145.01
577.141	32618.68
577.339	33267.89
577.537	32368.83
577.735	32307.39
577.933	32383.16
578.131	32528.57
578.329	32217.28
578.527	32266.43
578.725	31983.81
578.923	32258.24
579.121	31920.32
579.319	32178.37
579.516	32139.46
579.714	31873.22
579.912	31774.92
580.11	31637.7
580.308	31701.19
580.506	31500.49
580.704	31336.65
580.901	31070.42
581.099	31819.97
581.297	31545.55
581.495	31187.15
581.692	31457.48
581.89	30793.94
582.088	31115.47
582.285	30636.25
582.483	31217.87
582.681	31008.98
582.878	30861.52
583.076	30642.39
583.274	30759.13
583.471	30447.83
583.669	30820.56
583.866	30240.99
584.064	30769.37
584.262	30085.34
584.459	30460.12
584.657	29993.19
584.854	29989.09
585.052	29595.88
585.249	29890.79
585.447	29913.31
585.644	29350.12
585.841	29825.25
586.039	29714.66
586.236	29419.75
586.434	29296.88
586.631	29241.58
586.828	29331.69
587.026	29237.48
587.223	29223.15
587.42	29108.46
587.618	29276.4
587.815	28756.21
588.012	28709.11
588.21	28549.37
588.407	28731.64
588.604	28504.31
588.801	28573.94
588.999	28229.88
589.196	28082.43
589.393	28539.13
589.59	28356.86
589.787	28207.36
589.984	28119.29
590.182	27543.81
590.379	28035.33
590.576	27904.26
590.773	27885.83
590.97	27846.91
591.167	27588.87
591.364	27744.52
591.561	27816.19
591.758	27371.78
591.955	27216.14
592.152	27177.23
592.349	27042.06
592.546	27212.04
592.743	27089.17
592.94	26665.24
593.137	27033.87
593.334	27183.37
593.531	26231.07
593.727	26980.62
593.924	26507.54
594.121	26503.45
594.318	26661.14
594.515	26347.8
594.712	26282.27
594.908	26188.06
595.105	26118.43
595.302	26114.33
595.499	26214.68
595.696	25919.78
595.892	25755.94
596.089	26085.66
596.286	25991.45
596.482	25583.91
596.679	25571.62
596.876	25368.87
597.072	25362.73
597.269	25286.95
597.466	25129.26
597.662	24924.46
597.859	25653.54
598.055	24934.7
598.252	25047.34
598.448	24846.64
598.645	24807.73
598.841	24570.16
599.038	24777.01
599.234	24842.54
599.431	24254.78
599.627	24502.58
599.824	24406.33
600.02	24416.57
600.217	24101.18
600.413	24242.49
600.609	24183.1
600.806	24201.53
601.002	23894.33
601.198	24082.75
601.395	23724.35
601.591	24174.91
601.787	23746.88
601.984	23636.29
602.18	23638.34
602.376	23279.94
602.572	23376.2
602.769	23527.75
602.965	23218.5
603.161	23325
603.357	23175.5
603.553	23161.16
603.75	23048.52
603.946	23013.71
604.142	23183.69
604.338	22735.18
604.534	22939.98
604.73	22575.44
604.926	22514
605.122	22638.93
605.318	22559.06
605.514	22505.81
605.71	22233.43
605.906	22567.25
606.102	22204.76
606.298	22634.83
606.494	22155.61
606.69	22329.69
606.886	22309.21
607.082	21924.19
607.278	22215
607.474	21786.97
607.67	22088.03
607.866	21748.06
608.062	21879.13
608.257	21631.33
608.453	21684.58
608.649	21735.78
608.845	21391.72
609.041	21649.76
609.236	21672.29
609.432	21496.16
609.628	21490.02
609.824	21330.28
610.019	21264.74
610.215	21021.03
610.411	21479.78
610.606	21043.56
610.802	21367.14
610.998	21229.93
611.193	21209.45
611.389	20867.44
611.584	21014.89
611.78	20679.02
611.976	21004.65
612.171	20945.26
612.367	20953.45
612.562	20685.17
612.758	20652.4
612.953	20562.29
613.149	20683.12
613.344	20738.41
613.539	20670.83
613.735	20728.17
613.93	20324.72
614.126	20578.67
614.321	20803.95
614.517	20439.41
614.712	20306.29
614.907	19999.1
615.103	20334.96
615.298	20423.03
615.493	20582.77
615.688	19880.32
615.884	20623.73
616.079	20031.87
616.274	20246.9
616.47	19978.62
616.665	20013.43
616.86	19872.12
617.055	19673.47
617.25	20027.77
617.445	20005.24
617.641	19530.11
617.836	19626.37
618.031	19464.58
618.226	19890.56
618.421	19671.42
618.616	19677.57
618.811	19321.22
619.006	19407.23
619.201	18930.06
619.396	19444.1
619.591	18997.64
619.786	19321.22
619.981	18821.52
620.176	19161.48
620.371	18526.61
620.566	18837.9
620.761	18624.91
620.956	18909.58
621.151	18446.74
621.346	18465.17
621.541	18063.77
621.735	18448.79
621.93	18035.1
622.125	18305.43
622.32	17852.83
622.515	18176.41
622.709	17787.29
622.904	17803.67
623.099	17893.79
623.294	17807.77
623.488	17492.38
623.683	17476
623.878	17133.99
624.072	17232.29
624.267	17177
624.462	16988.58
624.656	16777.64
624.851	17058.21
625.046	16910.76
625.24	16798.12
625.435	16617.9
625.629	16529.84
625.824	16409.01
626.018	16343.47
626.213	16179.64
626.407	16251.31
626.602	16210.36
626.796	16286.13
626.991	15841.72
627.185	15940.02
627.38	15798.71
627.574	15528.38
627.768	15577.53
627.963	15575.48
628.157	15479.23
628.352	15438.27
628.546	15163.84
628.74	15323.58
628.935	15110.6
629.129	15190.47
629.323	14772.68
629.517	15075.78
629.712	14715.34
629.906	14705.1
630.1	14485.97
630.294	14418.38
630.489	14746.06
630.683	14643.66
630.877	14303.7
631.071	14125.52
631.265	14242.26
631.459	14197.2
631.653	14156.24
631.848	13978.07
632.042	13892.05
632.236	14078.42
632.43	13810.14
632.624	13881.81
632.818	13529.56
633.012	13613.53
633.206	13396.45
633.4	13390.3
633.594	13267.42
633.788	13165.03
633.982	13310.43
634.176	13183.46
634.369	13050.34
634.563	13009.38
634.757	12831.21
634.951	13169.12
635.145	12849.64
635.339	12900.84
635.533	12501.48
635.726	12642.79
635.92	12470.76
636.114	12509.68
636.308	12265.97
636.501	12333.55
636.695	12280.3
636.889	12067.31
637.083	12116.47
637.276	12095.99
637.47	11909.62
637.664	11983.35
637.857	12110.32
638.051	11774.45
638.244	11784.69
638.438	11682.3
638.632	11606.52
638.825	11420.16
639.019	11375.1
639.212	11389.44
639.406	11504.12
639.599	11307.52
639.793	11512.31
639.986	11119.1
640.18	11403.77
640.373	11295.23
640.567	11043.33
640.76	11002.37
640.954	11082.24
641.147	10785.29
641.34	10895.88
641.534	10842.63
641.727	10807.81
641.92	10813.96
642.114	10619.4
642.307	10682.89
642.5	10603.02
642.694	10514.95
642.887	10330.64
643.08	10418.7
643.273	10392.08
643.467	10134.03
643.66	10207.76
643.853	10119.7
644.046	9927.19
644.239	10021.39
644.432	10093.07
644.626	9767.45
644.819	9837.08
645.012	9978.39
645.205	9728.53
645.398	9589.27
645.591	9589.27
645.784	9548.31
645.977	9456.15
646.17	9454.11
646.363	9468.44
646.556	9345.56
646.749	9525.79
646.942	9345.56
647.135	9232.93
647.328	9306.65
647.521	9007.65
647.714	9093.66
647.907	8991.27
648.099	8929.83
648.292	9187.87
648.485	8958.5
648.678	8745.51
648.871	8946.21
649.064	8899.11
649.256	8720.93
649.449	8544.81
649.642	8522.28
649.835	8671.78
650.027	8538.66
650.22	8581.67
650.413	8327.72
650.605	8311.34
650.798	8340.01
650.991	8423.98
651.183	8094.26
651.376	7987.76
651.568	7979.57
651.761	8032.82
651.954	8165.93
652.146	8100.4
652.339	8077.87
652.531	7911.99
652.724	7967.28
652.916	7746.1
653.109	7963.19
653.301	7629.37
653.494	7610.93
653.686	7799.35
653.879	7860.79
654.071	7703.09
654.263	7526.97
654.456	7578.17
654.648	7627.32
654.84	7549.5
655.033	7510.58
655.225	7404.09
655.417	7295.55
655.61	7582.26
655.802	7475.77
655.994	7189.05
656.186	7174.72
656.379	7217.72
656.571	7262.78
656.763	7164.48
656.955	7123.52
657.148	6967.87
657.34	7023.17
657.532	6920.77
657.724	6894.15
657.916	6855.23
658.108	6804.03
658.3	6779.46
658.492	6726.21
658.684	6664.77
658.876	6746.69
659.068	6683.2
659.26	6638.15
659.452	6711.88
659.644	6531.65
659.836	6410.82
660.028	6595.14
660.22	6306.38
660.412	6349.39
660.604	6224.46
660.796	6214.22
660.988	6263.37
661.18	6103.63
661.372	6292.04
661.563	6242.89
661.755	6048.33
661.947	6066.77
662.139	6083.15
662.331	6058.57
662.522	5845.59
662.714	6064.72
662.906	5798.48
663.097	5902.93
663.289	5898.83
663.481	5923.41
663.673	5823.06
663.864	5784.15
664.056	5788.24
664.247	5724.76
664.439	5483.09
664.631	5708.37
664.822	5546.58
665.014	5581.4
665.205	5530.2
665.397	5489.24
665.588	5638.74
665.78	5411.42
665.971	5372.5
666.163	5657.17
666.354	5343.83
666.546	5450.33
666.737	5292.63
666.929	5415.51
667.12	5288.54
667.311	5300.83
667.503	5223
667.694	5212.76
667.885	5145.18
668.077	5227.1
668.268	5229.15
668.459	5192.28
668.651	5141.08
668.842	5118.56
669.033	5016.16
669.224	4995.68
669.416	4948.58
669.607	5003.87
669.798	4911.71
669.989	4874.85
670.18	5040.73
670.371	4837.98
670.563	4819.55
670.754	4727.39
670.945	4803.17
671.136	4702.82
671.327	4782.69
671.518	4747.87
671.709	4786.79
671.9	4715.11
672.091	4692.58
672.282	4524.65
672.473	4659.81
672.664	4665.96
672.855	4694.63
673.046	4696.67
673.237	4600.42
673.428	4534.89
673.619	4547.17
673.809	4557.41
674	4504.17
674.191	4682.34
674.382	4461.16
674.573	4424.3
674.764	4301.42
674.954	4518.5
675.145	4416.1
675.336	4407.91
675.527	4393.58
675.717	4371.05
675.908	4299.37
676.099	4342.38
676.289	4379.24
676.48	4256.36
676.671	4252.27
676.861	4250.22
677.052	4213.35
677.243	4244.07
677.433	4358.76
677.624	4313.7
677.814	4078.19
678.005	4026.99
678.195	4149.87
678.386	4131.44
678.576	4045.42
678.767	4143.72
678.957	4211.31
679.148	4115.05
679.338	4113
679.529	4172.39
679.719	4082.28
679.909	4121.2
680.1	4037.23
680.29	4094.57
680.481	4051.56
680.671	4110.96
680.861	4026.99
681.052	3977.84
681.242	4049.52
681.432	3924.59
681.622	3981.93
681.813	3908.21
682.003	3949.17
682.193	3988.08
682.383	3811.95
682.573	3992.17
682.764	4022.89
682.954	3994.22
683.144	3934.83
683.334	3912.3
683.524	3975.79
683.714	3814
683.904	3877.49
684.094	3910.25
684.284	3836.53
684.474	3930.73
684.664	3721.84
684.854	3805.81
685.044	3818.1
685.234	3668.59
685.424	3740.27
685.614	3764.85
685.804	3738.23
685.994	3744.37
686.184	3762.8
686.374	3734.13
686.564	3742.32
686.753	3648.11
686.943	3652.21
687.133	3641.97
687.323	3590.77
687.513	3641.97
687.702	3603.06
687.892	3601.01
688.082	3576.44
688.272	3615.35
688.461	3531.38
688.651	3578.48
688.841	3500.66
689.03	3607.16
689.22	3578.48
689.41	3668.59
689.599	3463.8
689.789	3515
689.979	3332.73
690.168	3392.12
690.358	3293.82
690.547	3369.59
690.737	3312.25
690.926	3326.58
691.116	3304.06
691.305	3385.97
691.495	3287.67
691.684	3232.38
691.874	3240.57
692.063	3211.9
692.252	3316.34
692.442	3195.51
692.631	3154.55
692.82	3207.8
693.01	3142.27
693.199	3160.7
693.388	3095.16
693.578	3140.22
693.767	3252.86
693.956	3162.75
694.146	3058.3
694.335	3009.15
694.524	3009.15
694.713	3082.88
694.902	3013.24
695.092	3043.96
695.281	3013.24
695.47	2941.57
695.659	2935.42
695.848	2957.95
696.037	2972.29
696.226	2871.93
696.415	2855.55
696.604	2988.67
696.793	2972.29
696.982	2876.03
697.171	2818.69
697.36	2820.74
697.549	2828.93
697.738	2824.83
697.927	2800.26
698.116	2884.22
698.305	2691.71
698.494	2747.01
698.683	2765.44
698.872	2720.39
699.061	2732.67
699.25	2736.77
699.438	2828.93
699.627	2787.97
699.816	2658.95
700.005	2691.71
700.193	2677.38
700.382	2712.19
700.571	2568.84
700.76	2697.86
700.948	2497.16
701.137	2570.88
701.326	2693.76
701.514	2667.14
701.703	2538.12
701.892	2595.46
702.08	2611.84
702.269	2552.45
702.457	2544.26
702.646	2595.46
702.834	2538.12
703.023	2577.03
703.212	2589.32
703.4	2425.48
703.589	2480.77
703.777	2626.18
703.965	2429.57
704.154	2478.72
704.342	2470.53
704.531	2517.64
704.719	2499.2
704.907	2480.77
705.096	2540.16
705.284	2429.57
705.472	2458.25
705.661	2435.72
705.849	2452.1
706.037	2466.44
706.226	2493.06
706.414	2368.13
706.602	2480.77
706.79	2388.61
706.979	2486.92
707.167	2435.72
707.355	2464.39
707.543	2398.85
707.731	2450.05
707.919	2411.14
708.107	2265.74
708.296	2364.04
708.484	2394.76
708.672	2359.94
708.86	2331.27
709.048	2417.29
709.236	2306.7
709.424	2353.8
709.612	2337.41
709.8	2456.2
709.988	2337.41
710.176	2337.41
710.364	2390.66
710.551	2323.08
710.739	2331.27
710.927	2323.08
711.115	2284.17
711.303	2368.13
711.491	2376.33
711.679	2341.51
711.866	2349.7
712.054	2392.71
712.242	2290.31
712.43	2368.13
712.617	2458.25
712.805	2402.95
712.993	2370.18
713.181	2284.17
713.368	2355.85
713.556	2335.37
713.744	2257.54
713.931	2306.7
714.119	2386.57
714.306	2298.5
714.494	2370.18
714.682	2314.89
714.869	2308.74
715.057	2290.31
715.244	2316.94
715.432	2378.37
715.619	2370.18
715.807	2273.93
715.994	2239.11
716.182	2370.18
716.369	2335.37
716.556	2282.12
716.744	2339.46
716.931	2294.41
717.119	2380.42
717.306	2249.35
717.493	2409.09
717.681	2386.57
717.868	2298.5
718.055	2298.5
718.242	2202.25
718.43	2378.37
718.617	2273.93
718.804	2259.59
718.991	2427.53
719.179	2278.02
719.366	2323.08
719.553	2278.02
719.74	2343.56
719.927	2318.98
720.114	2347.65
720.301	2476.68
720.488	2347.65
720.676	2265.74
720.863	2286.22
721.05	2409.09
721.237	2275.98
721.424	2310.79
721.611	2316.94
721.798	2341.51
721.985	2347.65
722.172	2269.83
722.358	2327.18
722.545	2431.62
722.732	2269.83
722.919	2464.39
723.106	2294.41
723.293	2396.81
723.48	2421.38
723.667	2282.12
723.853	2183.82
724.04	2255.5
724.227	2314.89
724.414	2159.24
724.6	2212.49
724.787	2323.08
724.974	2421.38
725.161	2384.52
725.347	2321.03
725.534	2456.2
725.72	2278.02
725.907	2321.03
726.094	2278.02
726.28	2376.33
726.467	2376.33
726.653	2089.61
726.84	2341.51
727.027	2409.09
727.213	2361.99
727.4	2294.41
727.586	2384.52
727.773	2405
727.959	2300.55
728.145	2396.81
728.332	2237.06
728.518	2361.99
728.705	2378.37
728.891	2284.17
729.077	2384.52
729.264	2337.41
729.45	2372.23
729.636	2331.27
729.823	2296.46
730.009	2400.9
730.195	2394.76
730.382	2415.24
730.568	2208.39
730.754	2427.53
730.94	2321.03
731.126	2306.7
731.313	2239.11
731.499	2271.88
731.685	2359.94
731.871	2388.61
732.057	2396.81
732.243	2253.45
732.429	2312.84
732.615	2261.64
732.801	2361.99
732.987	2278.02
733.173	2218.63
733.359	2251.4
733.545	2167.43
733.731	2263.69
733.917	2214.54
734.103	2318.98
734.289	2189.96
734.475	2380.42
734.661	2372.23
734.847	2175.63
735.033	2257.54
735.219	2251.4
735.404	2257.54
735.59	2384.52
735.776	2142.86
735.962	2290.31
736.148	2405
736.333	2335.37
736.519	2183.82
736.705	2310.79
736.89	2157.19
737.076	2325.13
737.262	2226.82
737.447	2220.68
737.633	2278.02
737.819	2310.79
738.004	2314.89
738.19	2142.86
738.375	2273.93
738.561	2318.98
738.747	2126.47
738.932	2257.54
739.118	2331.27
739.303	2198.15
739.489	2159.24
739.674	2165.39
739.859	2179.72
740.045	2200.2
740.23	2273.93
740.416	2189.96
740.601	2218.63
740.786	2226.82
740.972	2187.91
741.157	2065.04
741.342	2108.04
741.528	2136.71
741.713	2214.54
741.898	2089.61
742.084	2169.48
742.269	2093.71
742.454	2056.84
742.639	2034.32
742.824	2116.23
743.01	2044.56
743.195	2101.9
743.38	2032.27
743.565	2030.22
743.75	2087.56
743.935	2030.22
744.12	2060.94
744.305	2003.6
744.49	1968.78
744.675	1989.26
744.86	2062.99
745.045	2022.03
745.23	2065.04
745.415	2140.81
745.6	2054.8
745.785	1995.4
745.97	2022.03
746.155	1923.73
746.34	1942.16
746.525	1876.62
746.71	1804.94
746.895	1888.91
747.079	1856.14
747.264	1827.47
747.449	1827.47
747.634	1917.58
747.819	1876.62
748.003	1833.61
748.188	1817.23
748.373	1839.76
748.557	1847.95
748.742	1747.6
748.927	1727.12
749.111	1761.94
749.296	1733.26
749.481	1763.98
749.665	1589.91
749.85	1708.69
750.034	1774.22
750.219	1684.11
750.404	1737.36
750.588	1831.57
750.773	1671.83
750.957	1581.71
751.141	1544.85
751.326	1655.44
751.51	1606.29
751.695	1618.58
751.879	1550.99
752.064	1743.5
752.248	1512.08
752.432	1657.49
752.617	1548.95
752.801	1544.85
752.985	1575.57
753.17	1544.85
753.354	1550.99
753.538	1489.56
753.722	1505.94
753.907	1540.76
754.091	1522.32
754.275	1594
754.459	1507.99
754.643	1452.69
754.828	1356.44
755.012	1467.03
755.196	1366.68
755.38	1415.83
755.564	1301.14
755.748	1407.64
755.932	1331.86
756.116	1385.11
756.3	1295
756.484	1266.33
756.668	1381.01
756.852	1356.44
757.036	1323.67
757.22	1366.68
757.404	1299.09
757.588	1233.56
757.772	1309.33
757.956	1284.76
758.14	1274.52
758.323	1258.14
758.507	1346.2
758.691	1295
758.875	1168.02
759.059	1174.17
759.242	1241.75
759.426	1206.94
759.61	1239.7
759.794	1163.93
759.977	1280.66
760.161	1174.17
760.345	1264.28
760.528	1196.7
760.712	1104.54
760.895	1143.45
761.079	1127.07
761.263	1155.74
761.446	1200.79
761.63	1190.55
761.813	1200.79
761.997	1159.83
762.18	1034.91
762.364	1049.24
762.547	967.32
762.731	1118.87
762.914	1202.84
763.098	1043.1
763.281	1036.95
763.464	1131.16
763.648	1084.06
763.831	1036.95
764.015	1084.06
764.198	1030.81
764.381	1069.72
764.564	1114.78
764.748	1045.15
764.931	1041.05
765.114	961.18
765.297	1047.19
765.481	993.95
765.664	1073.82
765.847	1020.57
766.03	1053.34
766.213	1028.76
766.397	1000.09
766.58	989.85
766.763	1026.71
766.946	854.69
767.129	981.66
767.312	944.8
767.495	961.18
767.678	912.03
767.861	938.65
768.044	1067.67
768.227	965.28
768.41	946.84
768.593	967.32
768.776	869.02
768.959	961.18
769.142	879.26
769.324	852.64
769.507	813.73
769.69	944.8
769.873	854.69
770.056	979.61
770.239	934.56
770.421	899.74
770.604	875.17
770.787	909.98
770.97	846.49
771.152	866.97
771.335	848.54
771.518	797.34
771.7	840.35
771.883	924.32
772.066	864.93
772.248	778.91
772.431	887.45
772.613	871.07
772.796	840.35
772.978	905.88
773.161	828.06
773.343	873.12
773.526	893.6
773.708	737.95
773.891	813.73
774.073	826.01
774.256	762.53
774.438	807.58
774.621	729.76
774.803	848.54
774.985	750.24
775.168	789.15
775.35	797.34
775.532	819.87
775.715	764.57
775.897	686.75
776.079	752.29
776.261	682.66
776.444	672.42
776.626	658.08
776.808	729.76
776.99	699.04
777.173	727.71
777.355	709.28
777.537	653.98
777.719	645.79
777.901	582.31
778.083	633.5
778.265	674.46
778.447	674.46
778.629	686.75
778.811	664.22
778.993	647.84
779.175	723.62
779.357	617.12
779.539	645.79
779.721	541.35
779.903	623.27
780.085	594.59
780.267	639.65
780.449	576.16
780.631	637.6
780.812	615.07
780.994	600.74
781.176	488.1
781.358	563.87
781.54	615.07
781.721	617.12
781.903	502.43
782.085	580.26
782.267	600.74
782.448	504.48
782.63	567.97
782.812	543.39
782.993	580.26
783.175	488.1
783.357	524.96
783.538	457.38
783.72	555.68
783.901	447.14
784.083	551.59
784.264	531.11
784.446	504.48
784.627	477.86
784.809	432.8
784.99	496.29
785.172	524.96
785.353	451.24
785.535	524.96
785.716	512.67
785.897	467.62
786.079	404.13
786.26	373.41
786.441	422.56
786.623	375.46
786.804	385.7
786.985	397.99
787.167	459.43
787.348	406.18
787.529	408.23
787.71	498.34
787.891	381.6
788.073	422.56
788.254	387.75
788.435	422.56
788.616	434.85
788.797	397.99
788.978	350.89
789.159	397.99
789.34	492.2
789.522	318.12
789.703	332.45
789.884	373.41
790.065	430.76
790.246	395.94
790.427	467.62
790.607	438.95
790.788	438.95
790.969	242.34
791.15	393.89
791.331	381.6
791.512	375.46
791.693	311.97
791.874	344.74
792.054	299.69
792.235	387.75
792.416	285.35
792.597	340.65
792.778	334.5
792.958	377.51
793.139	324.26
793.32	371.36
793.5	262.82
793.681	363.17
793.862	281.25
794.042	268.97
794.223	283.3
794.404	359.08
794.584	336.55
794.765	357.03
794.945	279.21
795.126	262.82
795.306	293.54
795.487	322.21
795.667	246.44
795.848	348.84
796.028	248.49
796.209	357.03
796.389	354.98
796.57	281.25
796.75	385.7
796.93	328.36
797.111	336.55
797.291	281.25
797.471	393.89
797.652	279.21
797.832	303.78
798.012	244.39
798.192	209.58
798.373	223.91
798.553	193.19
798.733	297.64
798.913	303.78
799.093	295.59
799.274	328.36
799.454	195.24
799.634	307.88
799.814	283.3
799.994	289.45
800.174	283.3
800.354	221.86
800.534	213.67
800.714	238.25
800.894	338.6
801.074	264.87
801.254	217.77
801.434	223.91
801.614	221.86
801.794	287.4
801.974	621.22
802.154	185
802.334	266.92
802.514	268.97
802.693	232.1
802.873	230.06
803.053	273.06
803.233	213.67
803.413	273.06
803.592	307.88
803.772	338.6
803.952	164.52
804.131	289.45
804.311	223.91
804.491	201.38
804.67	242.34
804.85	287.4
805.03	238.25
805.209	281.25
805.389	162.47
805.568	285.35
805.748	193.19
805.928	268.97
806.107	180.9
806.287	182.95
806.466	250.53
806.646	166.57
806.825	182.95
807.004	244.39
807.184	137.9
807.363	225.96
807.543	178.86
807.722	223.91
807.901	217.77
808.081	168.62
808.26	197.29
808.439	193.19
808.619	197.29
808.798	193.19
808.977	189.1
809.156	223.91
809.336	178.86
809.515	170.66
809.694	191.14
809.873	185
810.052	135.85
810.231	170.66
810.411	230.06
810.59	148.14
810.769	168.62
810.948	219.82
811.127	119.46
811.306	164.52
811.485	213.67
811.664	174.76
811.843	193.19
812.022	133.8
812.201	162.47
812.38	170.66
812.559	141.99
812.737	174.76
812.916	209.58
813.095	115.37
813.274	86.7
813.453	156.33
813.632	195.24
813.811	156.33
813.989	111.27
814.168	90.79
814.347	123.56
814.526	125.61
814.704	199.34
814.883	178.86
815.062	162.47
815.24	230.06
815.419	127.66
815.598	150.18
815.776	152.23
815.955	129.7
816.133	107.18
816.312	185
816.49	148.14
816.669	215.72
816.847	113.32
817.026	86.7
817.204	103.08
817.383	103.08
817.561	185
817.74	154.28
817.918	197.29
818.097	82.6
818.275	146.09
818.453	119.46
818.632	125.61
818.81	123.56
818.988	45.74
819.167	127.66
819.345	84.65
819.523	103.08
819.701	135.85
819.879	101.03
820.058	182.95
820.236	150.18
820.414	64.17
820.592	141.99
820.77	135.85
820.948	125.61
821.127	29.35
821.305	33.45
821.483	139.94
821.661	131.75
821.839	150.18
822.017	115.37
822.195	135.85
822.373	139.94
822.551	131.75
822.729	70.31
822.907	107.18
823.085	141.99
823.262	39.59
823.44	152.23
823.618	45.74
823.796	107.18
823.974	123.56
824.152	25.26
824.329	115.37
824.507	152.23
824.685	76.46
824.863	135.85
825.04	135.85
825.218	115.37
825.396	107.18
825.574	53.93
825.751	60.07
825.929	84.65
826.107	139.94
826.284	92.84
826.462	70.31
826.639	111.27
826.817	115.37
826.994	80.55
827.172	33.45
827.349	39.59
827.527	84.65
827.704	101.03
827.882	41.64
828.059	74.41
828.237	29.35
828.414	80.55
828.591	98.99
828.769	101.03
828.946	94.89
829.124	78.51
829.301	86.7
829.478	84.65
829.655	33.45
829.833	90.79
830.01	37.55
830.187	111.27
830.364	96.94
830.542	62.12
830.719	185
830.896	113.32
831.073	78.51
831.25	185
831.427	135.85
831.604	58.03
831.782	51.88
831.959	49.83
832.136	8.87
832.313	121.51
832.49	88.75
832.667	27.31
832.844	49.83
833.021	70.31
833.198	62.12
833.374	62.12
833.551	96.94
833.728	68.27
833.905	10.92
834.082	111.27
834.259	109.22
834.436	135.85
834.612	23.21
834.789	86.7
834.966	21.16
835.143	-19.8
835.319	64.17
835.496	111.27
835.673	103.08
835.85	146.09
836.026	135.85
836.203	78.51
836.38	10.92
836.556	-36.18
836.733	96.94
836.909	84.65
837.086	94.89
837.262	17.07
837.439	62.12
837.616	74.41
837.792	-11.61
837.968	70.31
838.145	17.07
838.321	35.5
838.498	92.84
838.674	115.37
838.851	70.31
839.027	123.56
839.203	29.35
839.38	107.18
839.556	86.7
839.732	148.14
839.909	-7.51
840.085	60.07
840.261	0.68
840.437	49.83
840.614	49.83
840.79	43.69
840.966	58.03
841.142	41.64
841.318	76.46
841.494	72.36
841.671	92.84
841.847	64.17
842.023	29.35
842.199	86.7
842.375	-21.85
842.551	-7.51
842.727	35.5
842.903	17.07
843.079	60.07
843.255	25.26
843.431	103.08
843.607	98.99
843.783	25.26
843.959	17.07
844.134	45.74
844.31	-17.75
844.486	45.74
844.662	6.83
844.838	94.89
845.013	68.27
845.189	45.74
845.365	15.02
845.541	88.75
845.716	58.03
845.892	68.27
846.068	17.07
846.244	37.55
846.419	31.4
846.595	88.75
846.77	90.79
846.946	62.12
847.122	-11.61
847.297	33.45
847.473	15.02
847.648	37.55
847.824	29.35
847.999	55.98
848.175	4.78
848.35	47.79
848.526	74.41
848.701	-3.41
848.876	82.6
849.052	127.66
849.227	-19.8
849.403	-19.8
849.578	4.78
849.753	21.16
849.929	62.12
850.104	35.5
850.279	-13.65
850.454	53.93
850.63	47.79
850.805	10.92
850.98	31.4
851.155	21.16
851.33	74.41
851.505	43.69
851.681	72.36
851.856	15.02
852.031	55.98
852.206	103.08
852.381	12.97
852.556	41.64
852.731	103.08
852.906	66.22
853.081	-11.61
853.256	27.31
853.431	45.74
853.606	58.03
853.781	-11.61
853.956	-23.89
854.131	29.35
854.305	-3.41
854.48	8.87
854.655	60.07
854.83	6.83
855.005	-1.37
855.18	-13.65
855.354	-11.61
855.529	103.08
855.704	37.55
855.879	41.64
856.053	53.93
856.228	27.31
856.403	62.12
856.577	31.4
856.752	-25.94
856.926	53.93
857.101	53.93
857.276	17.07
857.45	103.08
857.625	-52.56
857.799	2.73
857.974	45.74
858.148	43.69
858.323	4.78
858.497	31.4
858.672	33.45
858.846	37.55
859.02	0.68
859.195	19.11
859.369	60.07
859.543	62.12
859.718	-44.37
859.892	43.69
860.066	94.89
860.241	41.64
860.415	-3.41
860.589	-15.7
860.763	58.03
860.938	31.4
861.112	2.73
861.286	-5.46
861.46	12.97
861.634	23.21
861.808	37.55
861.982	37.55
862.157	105.13
862.331	49.83
862.505	-23.89
862.679	-11.61
862.853	21.16
863.027	43.69
863.201	37.55
863.375	-42.32
863.549	31.4
863.722	25.26
863.896	55.98
864.07	51.88
864.244	8.87
864.418	64.17
864.592	49.83
864.766	-23.89
864.939	51.88
865.113	-36.18
865.287	55.98
865.461	23.21
865.634	70.31
865.808	25.26
865.982	25.26
866.156	-36.18
866.329	33.45
866.503	6.83
866.676	23.21
866.85	33.45
867.024	-3.41
867.197	21.16
867.371	76.46
867.544	6.83
867.718	21.16
867.891	43.69
868.065	-3.41
868.238	43.69
868.412	-9.56
868.585	-30.04
868.759	17.07
868.932	-30.04
869.105	33.45
869.279	-21.85
869.452	23.21
869.625	15.02
869.799	17.07
869.972	-7.51
870.145	45.74
870.319	12.97
870.492	8.87
870.665	37.55
870.838	12.97
871.011	-52.56
871.185	-36.18
871.358	2.73
871.531	51.88
871.704	51.88
871.877	53.93
872.05	66.22
872.223	4.78
872.396	10.92
872.569	0.68
872.742	-42.32
872.915	-15.7
873.088	37.55
873.261	33.45
873.434	12.97
873.607	39.59
873.78	43.69
873.953	-15.7
874.126	-1.37
874.299	45.74
874.471	-42.32
874.644	90.79
874.817	-11.61
874.99	-52.56
875.163	-15.7
875.335	53.93
875.508	6.83
875.681	2.73
875.853	2.73
876.026	53.93
876.199	90.79
876.371	39.59
876.544	21.16
876.717	55.98
876.889	10.92
877.062	58.03
877.234	-13.65
877.407	70.31
877.579	-9.56
877.752	2.73
877.924	49.83
878.097	29.35
878.269	-11.61
878.442	17.07
878.614	-38.23
878.786	-1.37
878.959	64.17
879.131	0.68
879.303	-36.18
879.476	-15.7
879.648	29.35
879.82	43.69
879.993	-52.56
880.165	2.73
880.337	39.59
880.509	121.51
880.681	-58.71
880.854	35.5
881.026	-7.51
881.198	66.22
881.37	8.87
881.542	53.93
881.714	-21.85
881.886	-21.85
882.058	60.07
882.23	27.31
882.402	-40.28
882.574	29.35
882.746	-1.37
882.918	4.78
883.09	19.11
883.262	-40.28
883.434	-54.61
883.606	-56.66
883.778	92.84
883.95	8.87
884.122	-15.7
884.293	39.59
884.465	2.73
884.637	-25.94
884.809	-7.51
884.98	-13.65
885.152	4.78
885.324	-58.71
885.496	12.97
885.667	0.68
885.839	-46.42
886.011	15.02
886.182	21.16
886.354	43.69
886.525	-64.85
886.697	64.17
886.869	23.21
887.04	12.97
887.212	-27.99
887.383	4.78
887.555	-36.18
887.726	4.78
887.897	-30.04
888.069	49.83
888.24	-7.51
888.412	27.31
888.583	53.93
888.754	-21.85
888.926	-36.18
889.097	-40.28
889.268	-30.04
889.44	-15.7
889.611	-23.89
889.782	-46.42
889.953	-19.8
890.125	105.13
890.296	8.87
890.467	-15.7
890.638	-25.94
890.809	21.16
890.98	-27.99
891.151	0.68
891.323	-15.7
891.494	-77.14
891.665	2.73
891.836	-30.04
892.007	17.07
892.178	74.41
892.349	-19.8
892.52	-21.85
892.691	15.02
892.862	-34.13
893.032	-42.32
893.203	-54.61
893.374	-64.85
893.545	-13.65
893.716	31.4
893.887	-17.75
894.057	58.03
894.228	-38.23
894.399	4.78
894.57	76.46
894.74	-34.13
894.911	58.03
895.082	-60.76
895.253	29.35
895.423	-64.85
895.594	43.69
895.764	-11.61
895.935	-23.89
896.106	-27.99
896.276	37.55
896.447	29.35
896.617	4.78
896.788	-17.75
896.958	12.97
897.129	23.21
897.299	41.64
897.47	-27.99
897.64	51.88
897.81	47.79
897.981	15.02
898.151	37.55
898.322	-48.47
898.492	55.98
898.662	4.78
898.832	62.12
899.003	4.78
899.173	68.27
899.343	4.78
899.513	-40.28
