Data from USB4F104151__92__11-37-56-057.txt Node

Date: Fri Mar 14 11:37:56 EDT 2025
User: louis
Spectrometer: USB4F10415
Trigger mode: 4
Integration Time (sec): 2.000000E-2
Scans to average: 1
Electric dark correction enabled: true
Nonlinearity correction enabled: false
Boxcar width: 0
XAxis mode: Wavelengths
Number of Pixels in Spectrum: 3648
>>>>>Begin Spectral Data<<<<<
178.204	-98.47
178.424	-98.47
178.644	-98.47
178.864	-88.23
179.084	-14.51
179.304	-32.94
179.524	14.17
179.744	18.26
179.964	-37.03
180.184	-49.32
180.404	28.5
180.624	-10.41
180.844	28.5
181.064	-22.7
181.283	-20.65
181.503	18.26
181.723	65.36
181.943	-90.28
182.163	159.57
182.383	20.31
182.602	-0.17
182.822	26.45
183.042	-51.37
183.262	10.07
183.482	57.17
183.701	44.88
183.921	8.02
184.141	-61.61
184.361	24.4
184.58	-30.89
184.8	5.97
185.02	28.5
185.239	-10.41
185.459	34.64
185.679	5.97
185.898	-47.27
186.118	48.98
186.338	59.22
186.557	8.02
186.777	34.64
186.997	77.65
187.216	26.45
187.436	38.74
187.655	110.42
187.875	22.36
188.095	40.79
188.314	12.12
188.534	36.69
188.753	-22.7
188.973	77.65
189.192	24.4
189.412	8.02
189.631	-26.79
189.851	44.88
190.07	106.32
190.29	-39.08
190.509	22.36
190.729	8.02
190.948	-22.7
191.168	36.69
191.387	46.93
191.607	42.84
191.826	-8.36
192.045	-32.94
192.265	-14.51
192.484	28.5
192.704	32.6
192.923	32.6
193.142	96.08
193.362	-26.79
193.581	10.07
193.8	20.31
194.02	3.93
194.239	40.79
194.458	-22.7
194.678	42.84
194.897	1.88
195.116	-22.7
195.335	16.21
195.555	30.55
195.774	77.65
195.993	40.79
196.212	81.75
196.432	-47.27
196.651	10.07
196.87	8.02
197.089	36.69
197.308	69.46
197.528	65.36
197.747	18.26
197.966	26.45
198.185	67.41
198.404	-39.08
198.623	1.88
198.842	42.84
199.062	75.6
199.281	20.31
199.5	-6.31
199.719	16.21
199.938	18.26
200.157	-39.08
200.376	96.08
200.595	26.45
200.814	100.18
201.033	69.46
201.252	22.36
201.471	48.98
201.69	42.84
201.909	26.45
202.128	-57.51
202.347	-22.7
202.566	30.55
202.785	18.26
203.004	38.74
203.223	24.4
203.442	-16.55
203.661	-47.27
203.879	3.93
204.098	8.02
204.317	-12.46
204.536	59.22
204.755	10.07
204.974	40.79
205.193	42.84
205.411	42.84
205.63	63.32
205.849	-22.7
206.068	67.41
206.287	94.04
206.505	30.55
206.724	-37.03
206.943	22.36
207.162	24.4
207.381	12.12
207.599	1.88
207.818	75.6
208.037	-18.6
208.255	69.46
208.474	28.5
208.693	14.17
208.911	5.97
209.13	63.32
209.349	-16.55
209.567	30.55
209.786	12.12
210.005	42.84
210.223	65.36
210.442	28.5
210.661	57.17
210.879	-34.99
211.098	-0.17
211.316	34.64
211.535	-20.65
211.753	24.4
211.972	40.79
212.191	-49.32
212.409	5.97
212.628	55.12
212.846	-12.46
213.065	32.6
213.283	85.84
213.502	-47.27
213.72	108.37
213.938	16.21
214.157	38.74
214.375	36.69
214.594	26.45
214.812	51.03
215.031	28.5
215.249	16.21
215.467	-45.23
215.686	44.88
215.904	42.84
216.122	55.12
216.341	53.08
216.559	120.66
216.778	-41.13
216.996	-24.75
217.214	-14.51
217.432	1.88
217.651	46.93
217.869	85.84
218.087	30.55
218.306	61.27
218.524	63.32
218.742	22.36
218.96	12.12
219.179	3.93
219.397	83.8
219.615	36.69
219.833	63.32
220.051	36.69
220.27	63.32
220.488	65.36
220.706	61.27
220.924	10.07
221.142	-45.23
221.36	77.65
221.578	51.03
221.796	34.64
222.015	75.6
222.233	42.84
222.451	8.02
222.669	16.21
222.887	67.41
223.105	30.55
223.323	32.6
223.541	-14.51
223.759	59.22
223.977	51.03
224.195	55.12
224.413	-2.22
224.631	94.04
224.849	24.4
225.067	51.03
225.285	98.13
225.503	-14.51
225.721	-39.08
225.939	-0.17
226.157	83.8
226.375	24.4
226.592	-0.17
226.81	28.5
227.028	16.21
227.246	57.17
227.464	38.74
227.682	73.56
227.9	53.08
228.117	8.02
228.335	53.08
228.553	44.88
228.771	12.12
228.989	77.65
229.206	-10.41
229.424	18.26
229.642	32.6
229.86	42.84
230.077	108.37
230.295	116.56
230.513	55.12
230.731	46.93
230.948	57.17
231.166	63.32
231.384	-20.65
231.601	10.07
231.819	75.6
232.037	-2.22
232.254	-14.51
232.472	-45.23
232.689	10.07
232.907	75.6
233.125	-14.51
233.342	36.69
233.56	3.93
233.777	18.26
233.995	3.93
234.213	104.28
234.43	46.93
234.648	1.88
234.865	73.56
235.083	79.7
235.3	40.79
235.518	73.56
235.735	20.31
235.953	77.65
236.17	91.99
236.388	34.64
236.605	-8.36
236.822	30.55
237.04	-12.46
237.257	-18.6
237.475	42.84
237.692	42.84
237.909	16.21
238.127	65.36
238.344	120.66
238.562	30.55
238.779	3.93
238.996	69.46
239.214	12.12
239.431	65.36
239.648	18.26
239.865	38.74
240.083	40.79
240.3	-49.32
240.517	1.88
240.735	-2.22
240.952	73.56
241.169	94.04
241.386	-34.99
241.603	-18.6
241.821	-28.84
242.038	24.4
242.255	28.5
242.472	14.17
242.689	26.45
242.907	36.69
243.124	59.22
243.341	106.32
243.558	22.36
243.775	3.93
243.992	59.22
244.209	-16.55
244.426	83.8
244.643	22.36
244.86	55.12
245.078	34.64
245.295	77.65
245.512	-8.36
245.729	26.45
245.946	34.64
246.163	51.03
246.38	53.08
246.597	38.74
246.814	44.88
247.031	63.32
247.248	34.64
247.464	94.04
247.681	-6.31
247.898	51.03
248.115	110.42
248.332	-30.89
248.549	36.69
248.766	10.07
248.983	91.99
249.2	10.07
249.417	63.32
249.633	-39.08
249.85	-2.22
250.067	5.97
250.284	55.12
250.501	14.17
250.717	116.56
250.934	16.21
251.151	73.56
251.368	12.12
251.585	83.8
251.801	8.02
252.018	42.84
252.235	59.22
252.451	-16.55
252.668	67.41
252.885	-16.55
253.102	61.27
253.318	-12.46
253.535	83.8
253.752	22.36
253.968	61.27
254.185	40.79
254.401	46.93
254.618	-4.27
254.835	75.6
255.051	5.97
255.268	-14.51
255.484	40.79
255.701	38.74
255.917	5.97
256.134	18.26
256.351	55.12
256.567	22.36
256.784	44.88
257	18.26
257.217	-51.37
257.433	38.74
257.65	67.41
257.866	40.79
258.082	8.02
258.299	87.89
258.515	-6.31
258.732	5.97
258.948	63.32
259.165	-14.51
259.381	110.42
259.597	20.31
259.814	57.17
260.03	26.45
260.246	20.31
260.463	-39.08
260.679	85.84
260.895	57.17
261.112	42.84
261.328	57.17
261.544	34.64
261.761	65.36
261.977	55.12
262.193	-34.99
262.409	10.07
262.626	46.93
262.842	46.93
263.058	10.07
263.274	-16.55
263.49	57.17
263.707	5.97
263.923	114.52
264.139	-12.46
264.355	42.84
264.571	75.6
264.787	-2.22
265.004	46.93
265.22	20.31
265.436	30.55
265.652	65.36
265.868	10.07
266.084	-32.94
266.3	51.03
266.516	-16.55
266.732	34.64
266.948	18.26
267.164	36.69
267.38	22.36
267.596	59.22
267.812	14.17
268.028	91.99
268.244	-20.65
268.46	22.36
268.676	53.08
268.892	-12.46
269.108	16.21
269.324	48.98
269.54	106.32
269.756	89.94
269.972	65.36
270.188	22.36
270.403	40.79
270.619	59.22
270.835	71.51
271.051	63.32
271.267	26.45
271.483	16.21
271.698	34.64
271.914	32.6
272.13	18.26
272.346	-12.46
272.562	42.84
272.777	85.84
272.993	32.6
273.209	53.08
273.425	48.98
273.64	16.21
273.856	-14.51
274.072	34.64
274.287	48.98
274.503	32.6
274.719	34.64
274.934	63.32
275.15	26.45
275.366	48.98
275.581	-2.22
275.797	28.5
276.012	42.84
276.228	30.55
276.444	48.98
276.659	3.93
276.875	24.4
277.09	42.84
277.306	48.98
277.521	22.36
277.737	28.5
277.952	44.88
278.168	83.8
278.383	106.32
278.599	53.08
278.814	22.36
279.03	-37.03
279.245	57.17
279.461	42.84
279.676	22.36
279.892	14.17
280.107	24.4
280.322	1.88
280.538	83.8
280.753	18.26
280.969	-39.08
281.184	3.93
281.399	30.55
281.615	55.12
281.83	30.55
282.045	20.31
282.26	65.36
282.476	24.4
282.691	53.08
282.906	36.69
283.122	69.46
283.337	28.5
283.552	40.79
283.767	-2.22
283.983	53.08
284.198	-28.84
284.413	34.64
284.628	24.4
284.843	81.75
285.058	5.97
285.274	32.6
285.489	-22.7
285.704	85.84
285.919	46.93
286.134	20.31
286.349	38.74
286.564	-8.36
286.779	55.12
286.995	67.41
287.21	26.45
287.425	53.08
287.64	61.27
287.855	100.18
288.07	20.31
288.285	91.99
288.5	28.5
288.715	14.17
288.93	1.88
289.145	48.98
289.36	10.07
289.575	14.17
289.79	48.98
290.004	22.36
290.219	44.88
290.434	75.6
290.649	-12.46
290.864	85.84
291.079	-14.51
291.294	55.12
291.509	24.4
291.724	-4.27
291.938	51.03
292.153	91.99
292.368	67.41
292.583	14.17
292.798	-8.36
293.012	77.65
293.227	34.64
293.442	12.12
293.657	59.22
293.871	59.22
294.086	-12.46
294.301	28.5
294.516	14.17
294.73	30.55
294.945	18.26
295.16	71.51
295.374	46.93
295.589	104.28
295.804	59.22
296.018	24.4
296.233	26.45
296.447	71.51
296.662	44.88
296.877	36.69
297.091	22.36
297.306	-2.22
297.52	16.21
297.735	14.17
297.949	28.5
298.164	106.32
298.378	-8.36
298.593	3.93
298.807	102.23
299.022	28.5
299.236	26.45
299.451	75.6
299.665	34.64
299.88	22.36
300.094	16.21
300.309	18.26
300.523	59.22
300.737	26.45
300.952	5.97
301.166	104.28
301.381	57.17
301.595	-24.75
301.809	1.88
302.024	55.12
302.238	57.17
302.452	46.93
302.667	-16.55
302.881	67.41
303.095	73.56
303.309	38.74
303.524	67.41
303.738	-16.55
303.952	16.21
304.166	59.22
304.381	12.12
304.595	55.12
304.809	32.6
305.023	18.26
305.237	55.12
305.452	-4.27
305.666	24.4
305.88	53.08
306.094	34.64
306.308	120.66
306.522	38.74
306.736	73.56
306.95	73.56
307.164	42.84
307.379	24.4
307.593	59.22
307.807	12.12
308.021	48.98
308.235	83.8
308.449	-18.6
308.663	67.41
308.877	87.89
309.091	-39.08
309.305	48.98
309.519	10.07
309.733	55.12
309.947	36.69
310.161	18.26
310.374	36.69
310.588	79.7
310.802	55.12
311.016	120.66
311.23	24.4
311.444	-0.17
311.658	-51.37
311.872	65.36
312.085	8.02
312.299	71.51
312.513	85.84
312.727	53.08
312.941	32.6
313.154	51.03
313.368	-16.55
313.582	75.6
313.796	40.79
314.009	-24.75
314.223	53.08
314.437	30.55
314.651	38.74
314.864	79.7
315.078	38.74
315.292	-6.31
315.505	42.84
315.719	-16.55
315.933	38.74
316.146	40.79
316.36	44.88
316.573	48.98
316.787	100.18
317.001	26.45
317.214	26.45
317.428	32.6
317.641	10.07
317.855	79.7
318.068	34.64
318.282	22.36
318.495	53.08
318.709	8.02
318.922	69.46
319.136	14.17
319.349	20.31
319.563	-0.17
319.776	102.23
319.99	63.32
320.203	91.99
320.417	-14.51
320.63	-0.17
320.843	91.99
321.057	32.6
321.27	79.7
321.483	38.74
321.697	26.45
321.91	63.32
322.124	30.55
322.337	-45.23
322.55	94.04
322.763	8.02
322.977	24.4
323.19	57.17
323.403	22.36
323.617	40.79
323.83	12.12
324.043	30.55
324.256	94.04
324.469	63.32
324.683	10.07
324.896	14.17
325.109	-24.75
325.322	-22.7
325.535	32.6
325.748	79.7
325.962	20.31
326.175	61.27
326.388	102.23
326.601	24.4
326.814	53.08
327.027	130.9
327.24	28.5
327.453	18.26
327.666	20.31
327.879	59.22
328.092	57.17
328.305	8.02
328.518	110.42
328.731	61.27
328.944	34.64
329.157	83.8
329.37	36.69
329.583	59.22
329.796	91.99
330.009	-39.08
330.222	128.85
330.435	61.27
330.648	57.17
330.861	91.99
331.073	30.55
331.286	28.5
331.499	24.4
331.712	24.4
331.925	63.32
332.138	8.02
332.35	75.6
332.563	12.12
332.776	75.6
332.989	73.56
333.202	71.51
333.414	79.7
333.627	96.08
333.84	63.32
334.053	12.12
334.265	14.17
334.478	-18.6
334.691	153.43
334.903	87.89
335.116	79.7
335.329	77.65
335.541	38.74
335.754	57.17
335.966	12.12
336.179	32.6
336.392	91.99
336.604	32.6
336.817	69.46
337.029	57.17
337.242	24.4
337.454	24.4
337.667	36.69
337.88	116.56
338.092	151.38
338.305	71.51
338.517	46.93
338.729	57.17
338.942	104.28
339.154	-2.22
339.367	10.07
339.579	59.22
339.792	22.36
340.004	71.51
340.217	63.32
340.429	16.21
340.641	-12.46
340.854	83.8
341.066	14.17
341.278	85.84
341.491	87.89
341.703	38.74
341.915	14.17
342.128	65.36
342.34	26.45
342.552	36.69
342.764	30.55
342.977	26.45
343.189	14.17
343.401	59.22
343.613	34.64
343.826	57.17
344.038	85.84
344.25	16.21
344.462	42.84
344.674	22.36
344.886	51.03
345.099	24.4
345.311	38.74
345.523	-2.22
345.735	-12.46
345.947	8.02
346.159	34.64
346.371	28.5
346.583	34.64
346.795	75.6
347.007	-32.94
347.219	94.04
347.431	-2.22
347.643	106.32
347.855	63.32
348.067	83.8
348.279	30.55
348.491	34.64
348.703	10.07
348.915	24.4
349.127	71.51
349.339	32.6
349.551	26.45
349.763	114.52
349.975	42.84
350.187	26.45
350.399	26.45
350.61	81.75
350.822	91.99
351.034	-22.7
351.246	108.37
351.458	1.88
351.669	87.89
351.881	30.55
352.093	-6.31
352.305	100.18
352.517	16.21
352.728	102.23
352.94	42.84
353.152	48.98
353.363	-2.22
353.575	34.64
353.787	57.17
353.999	26.45
354.21	61.27
354.422	-8.36
354.633	24.4
354.845	139.09
355.057	34.64
355.268	24.4
355.48	28.5
355.692	32.6
355.903	57.17
356.115	8.02
356.326	53.08
356.538	65.36
356.749	48.98
356.961	42.84
357.172	69.46
357.384	63.32
357.595	112.47
357.807	5.97
358.018	44.88
358.23	-37.03
358.441	65.36
358.653	51.03
358.864	44.88
359.075	40.79
359.287	102.23
359.498	130.9
359.709	-12.46
359.921	104.28
360.132	38.74
360.344	3.93
360.555	63.32
360.766	63.32
360.977	38.74
361.189	44.88
361.4	34.64
361.611	46.93
361.823	108.37
362.034	155.47
362.245	-0.17
362.456	40.79
362.667	-30.89
362.879	34.64
363.09	63.32
363.301	75.6
363.512	169.81
363.723	18.26
363.935	114.52
364.146	32.6
364.357	61.27
364.568	26.45
364.779	-30.89
364.99	79.7
365.201	57.17
365.412	132.95
365.623	67.41
365.834	46.93
366.045	5.97
366.256	40.79
366.467	12.12
366.678	32.6
366.889	-32.94
367.1	42.84
367.311	83.8
367.522	143.19
367.733	69.46
367.944	34.64
368.155	83.8
368.366	81.75
368.577	28.5
368.788	98.13
368.999	-43.18
369.209	16.21
369.42	5.97
369.631	124.76
369.842	20.31
370.053	32.6
370.264	-16.55
370.474	63.32
370.685	51.03
370.896	81.75
371.107	81.75
371.317	36.69
371.528	57.17
371.739	59.22
371.95	1.88
372.16	48.98
372.371	5.97
372.582	73.56
372.792	96.08
373.003	73.56
373.214	83.8
373.424	118.61
373.635	63.32
373.846	42.84
374.056	40.79
374.267	38.74
374.477	73.56
374.688	51.03
374.898	14.17
375.109	87.89
375.319	26.45
375.53	67.41
375.74	18.26
375.951	-51.37
376.161	40.79
376.372	98.13
376.582	44.88
376.793	51.03
377.003	34.64
377.214	71.51
377.424	18.26
377.635	102.23
377.845	32.6
378.055	75.6
378.266	-18.6
378.476	106.32
378.686	69.46
378.897	18.26
379.107	91.99
379.317	139.09
379.528	91.99
379.738	87.89
379.948	126.8
380.158	79.7
380.369	104.28
380.579	79.7
380.789	87.89
380.999	91.99
381.21	61.27
381.42	91.99
381.63	81.75
381.84	67.41
382.05	61.27
382.261	83.8
382.471	104.28
382.681	83.8
382.891	22.36
383.101	75.6
383.311	8.02
383.521	110.42
383.731	75.6
383.941	98.13
384.151	46.93
384.361	48.98
384.571	73.56
384.781	85.84
384.991	75.6
385.201	102.23
385.411	55.12
385.621	42.84
385.831	26.45
386.041	22.36
386.251	55.12
386.461	48.98
386.671	65.36
386.881	112.47
387.091	36.69
387.301	69.46
387.511	122.71
387.72	100.18
387.93	63.32
388.14	53.08
388.35	83.8
388.56	26.45
388.769	108.37
388.979	163.67
389.189	5.97
389.399	53.08
389.609	73.56
389.818	73.56
390.028	116.56
390.238	114.52
390.447	114.52
390.657	91.99
390.867	73.56
391.076	87.89
391.286	87.89
391.496	102.23
391.705	51.03
391.915	114.52
392.125	30.55
392.334	89.94
392.544	100.18
392.753	67.41
392.963	65.36
393.172	124.76
393.382	69.46
393.591	67.41
393.801	79.7
394.01	145.24
394.22	116.56
394.429	55.12
394.639	94.04
394.848	73.56
395.058	65.36
395.267	61.27
395.477	104.28
395.686	106.32
395.895	128.85
396.105	122.71
396.314	100.18
396.524	22.36
396.733	120.66
396.942	75.6
397.152	81.75
397.361	137.04
397.57	126.8
397.78	77.65
397.989	141.14
398.198	161.62
398.407	94.04
398.617	120.66
398.826	139.09
399.035	32.6
399.244	120.66
399.453	114.52
399.663	89.94
399.872	137.04
400.081	79.7
400.29	116.56
400.499	110.42
400.708	210.77
400.917	51.03
401.127	149.33
401.336	124.76
401.545	104.28
401.754	214.87
401.963	190.29
402.172	106.32
402.381	128.85
402.59	132.95
402.799	155.47
403.008	143.19
403.217	182.1
403.426	118.61
403.635	104.28
403.844	212.82
404.053	223.06
404.262	151.38
404.471	186.19
404.68	178
404.888	247.63
405.097	137.04
405.306	204.63
405.515	241.49
405.724	186.19
405.933	208.72
406.142	155.47
406.35	196.43
406.559	239.44
406.768	208.72
406.977	241.49
407.185	241.49
407.394	243.54
407.603	257.87
407.812	245.59
408.02	255.83
408.229	241.49
408.438	319.31
408.646	311.12
408.855	249.68
409.064	382.8
409.272	335.7
409.481	358.22
409.69	337.74
409.898	304.98
410.107	411.47
410.315	347.98
410.524	395.09
410.733	409.42
410.941	403.28
411.15	474.96
411.358	421.71
411.567	440.14
411.775	460.62
411.984	479.05
412.192	538.45
412.401	477.01
412.609	497.49
412.818	624.46
413.026	653.13
413.234	608.08
413.443	624.46
413.651	583.5
413.86	640.84
414.068	718.67
414.276	669.52
414.485	745.29
414.693	741.19
414.901	819.02
415.11	745.29
415.318	829.26
415.526	880.46
415.734	896.84
415.943	909.13
416.151	984.9
416.359	984.9
416.567	982.85
416.776	1081.16
416.984	1146.69
417.192	1115.97
417.4	1161.03
417.608	1152.84
417.817	1236.8
418.025	1263.43
418.233	1382.21
418.441	1296.19
418.649	1339.2
418.857	1523.52
419.065	1509.18
419.273	1441.6
419.481	1593.15
419.689	1636.16
419.897	1771.32
420.105	1720.12
420.313	1718.08
420.521	1926.97
420.729	1849.15
420.937	2033.46
421.145	2053.94
421.353	2133.81
421.561	2289.46
421.769	2330.42
421.977	2492.21
422.185	2340.66
422.393	2563.89
422.601	2658.09
422.809	2778.92
423.017	2819.88
423.224	2758.44
423.432	2828.07
423.64	3055.4
423.848	3079.97
424.056	3086.12
424.263	3399.46
424.471	3387.17
424.679	3462.94
424.887	3667.74
425.094	3747.61
425.302	3755.8
425.51	3860.25
425.718	3962.65
425.925	3970.84
426.133	4099.86
426.341	4425.49
426.548	4501.26
426.756	4540.18
426.964	4529.94
427.171	4853.52
427.379	5091.08
427.586	5117.7
427.794	5138.18
428.001	5373.7
428.209	5699.33
428.417	5576.45
428.624	6000.38
428.832	6067.96
429.039	6004.47
429.247	6072.06
429.454	6538.99
429.662	7059.18
429.869	6647.54
430.076	6940.4
430.284	6815.47
430.491	7284.45
430.699	7589.6
430.906	7644.9
431.114	7644.9
431.321	7915.23
431.528	8054.49
431.736	8619.73
431.943	9098.95
432.15	8693.46
432.358	8812.24
432.565	9338.57
432.772	9395.91
432.979	9709.25
433.187	9889.47
433.394	9952.96
433.601	10563.25
433.808	10688.18
434.016	10591.92
434.223	11058.86
434.43	11736.74
434.637	11337.38
434.844	12082.84
435.052	12422.81
435.259	12189.34
435.466	12439.19
435.673	12484.25
435.88	13264.52
436.087	13684.36
436.294	13932.16
436.501	13368.97
436.708	13864.58
436.915	14351.99
437.122	14923.38
437.329	14835.31
437.537	15375.98
437.743	15648.36
437.95	15431.27
438.157	16277.08
438.364	17172.05
438.571	16741.97
438.778	17004.11
438.985	18552.38
439.192	17948.23
439.399	18425.4
439.606	17759.81
439.813	19158.58
440.02	20282.91
440.227	19607.08
440.433	19514.92
440.64	20055.59
440.847	20039.2
441.054	20657.69
441.261	21937.67
441.467	21546.51
441.674	22320.64
441.881	22705.66
442.088	22504.96
442.294	22830.58
442.501	23539.18
442.708	23893.48
442.914	24651.23
443.121	25456.08
443.328	25079.25
443.534	26621.38
443.741	25996.74
443.948	25718.22
444.154	27938.22
444.361	27358.64
444.568	27710.89
444.774	27676.08
444.981	28140.97
445.187	28841.37
445.394	29781.39
445.6	29975.95
445.807	32626.02
446.013	31276.41
446.22	31878.51
446.426	32912.74
446.633	33377.62
446.839	34065.74
447.046	32959.84
447.252	34841.92
447.459	34741.57
447.665	34737.48
447.871	36154.67
448.078	37743.89
448.284	35790.13
448.491	36992.29
448.697	38601.99
448.903	39202.05
449.11	39234.81
449.316	38782.21
449.522	39273.73
449.728	40197.36
449.935	40510.7
450.141	40191.22
450.347	41270.5
450.553	39898.36
450.76	40299.76
450.966	42355.92
451.172	41565.4
451.378	42755.27
451.584	41669.85
451.791	42790.09
451.997	42611.92
452.203	43089.09
452.409	43424.96
452.615	42855.62
452.821	41651.42
453.027	41528.54
453.233	43506.88
453.44	41671.9
453.646	42171.6
453.852	42140.88
454.058	43293.89
454.264	41356.51
454.47	42861.77
454.676	41286.88
454.882	42847.43
455.088	39542.01
455.294	39800.05
455.5	40217.84
455.705	40715.5
455.911	39021.83
456.117	38493.45
456.323	38126.86
456.529	35798.32
456.735	37518.62
456.941	36435.24
457.147	36220.2
457.352	35110.21
457.558	34723.14
457.764	34659.65
457.97	33926.48
458.176	33355.1
458.381	33176.92
458.587	31606.13
458.793	31839.6
458.999	29900.17
459.204	32281.96
459.41	31413.62
459.616	29373.85
459.821	29386.13
460.027	29179.29
460.233	28347.81
460.438	26959.29
460.644	27436.47
460.85	26205.64
461.055	25746.89
461.261	25716.17
461.466	23913.96
461.672	23221.75
461.878	24843.74
462.083	23371.25
462.289	23000.57
462.494	22758.91
462.7	21642.76
462.905	20778.52
463.111	21523.98
463.316	21790.22
463.522	21372.43
463.727	21186.07
463.932	21325.33
464.138	21093.91
464.343	21087.76
464.549	20579.87
464.754	21202.45
464.959	20745.75
465.165	20989.46
465.37	19756.58
465.575	19576.36
465.781	20510.24
465.986	20080.16
466.191	19469.87
466.397	19308.08
466.602	18462.27
466.807	18863.67
467.012	18904.63
467.218	18855.48
467.423	18685.5
467.628	18669.11
467.833	19473.96
468.038	18937.4
468.244	18150.98
468.449	18935.35
468.654	18280
468.859	18294.33
469.064	18284.09
469.269	17239.63
469.474	17829.45
469.679	18146.88
469.885	17081.94
470.09	17428.04
470.295	17454.67
470.5	16965.2
470.705	17079.89
470.91	16914
471.115	16584.28
471.32	17018.45
471.525	16610.9
471.73	16232.03
471.935	16295.52
472.139	15593.06
472.344	16109.15
472.549	15869.54
472.754	15765.09
472.959	15564.39
473.164	15173.23
473.369	14853.75
473.574	15384.17
473.778	15277.68
473.983	15296.11
474.188	15158.89
474.393	14440.06
474.598	14530.17
474.802	14202.49
475.007	14134.91
475.212	14110.33
475.417	13340.3
475.621	13725.32
475.826	13715.08
476.031	13526.66
476.235	13321.87
476.44	13483.66
476.645	13033.1
476.849	13272.71
477.054	13049.49
477.259	12816.02
477.463	12736.15
477.668	12553.88
477.872	12572.31
478.077	12451.48
478.282	12080.8
478.486	12050.08
478.691	12025.5
478.895	11939.49
479.1	11699.87
479.304	11888.29
479.509	11808.42
479.713	11876
479.918	11284.14
480.122	11333.29
480.326	11474.6
480.531	11667.11
480.735	11398.82
480.94	11259.56
481.144	11435.69
481.348	11005.61
481.553	11126.44
481.757	10847.92
481.961	11202.22
482.166	11361.96
482.37	11220.65
482.574	10897.07
482.778	10915.5
482.983	11407.02
483.187	10899.12
483.391	10983.09
483.595	11103.92
483.8	10903.21
484.004	11024.05
484.208	10972.85
484.412	11062.96
484.616	11009.71
484.821	11036.33
485.025	10741.43
485.229	10890.93
485.433	10995.37
485.637	11101.87
485.841	10809.01
486.045	10856.11
486.249	10884.78
486.453	11075.24
486.657	10972.85
486.861	10970.8
487.065	10809.01
487.269	10917.55
487.473	10708.66
487.677	10999.47
487.881	11003.57
488.085	10897.07
488.289	10659.51
488.493	10976.94
488.697	11009.71
488.901	10985.13
489.105	11038.38
489.309	11247.27
489.512	11265.71
489.716	11108.01
489.92	10981.04
490.124	11171.5
490.328	11417.26
490.531	11294.38
490.735	11384.49
490.939	11200.17
491.143	11212.46
491.346	11167.4
491.55	11628.2
491.754	11441.83
491.958	11798.18
492.161	11591.33
492.365	11513.51
492.569	11355.82
492.772	11529.89
492.976	11746.98
493.18	11650.72
493.383	12060.32
493.587	11949.73
493.79	11919.01
493.994	12088.99
494.197	12115.61
494.401	12213.91
494.605	12261.02
494.808	12400.28
495.012	12392.09
495.215	12369.56
495.419	12660.37
495.622	12500.63
495.825	12899.98
496.029	12785.3
496.232	13211.28
496.436	13037.2
496.639	13407.88
496.843	13330.06
497.046	13272.71
497.249	13772.42
497.453	13467.27
497.656	13794.95
497.859	13868.67
498.063	13969.02
498.266	14614.13
498.469	14319.23
498.673	14360.19
498.876	14718.58
499.079	14888.56
499.282	14958.19
499.485	15232.62
499.689	15130.22
499.892	15183.47
500.095	15502.95
500.298	15820.39
500.501	15711.85
500.705	16223.84
500.908	16379.48
501.111	16537.18
501.314	16744.02
501.517	17022.55
501.72	16954.96
501.923	17202.77
502.126	17055.31
502.329	17811.01
502.532	17514.06
502.735	18091.59
502.938	18200.13
503.141	18093.63
503.344	18413.12
503.547	18595.39
503.75	18724.41
503.953	19062.32
504.156	19373.61
504.359	19242.54
504.562	19580.46
504.765	19617.32
504.968	19899.94
505.17	20262.43
505.373	20549.15
505.576	20751.9
505.779	20917.78
505.982	21132.82
506.185	21470.73
506.387	21376.53
506.59	21771.79
506.793	22224.39
506.996	22253.06
507.198	22814.2
507.401	22279.68
507.604	22658.56
507.807	23318
508.009	23530.99
508.212	23784.94
508.415	23657.96
508.617	24407.52
508.82	24368.61
509.022	24298.98
509.225	24718.81
509.428	25157.08
509.63	25214.42
509.833	25187.8
510.035	25828.81
510.238	25890.25
510.44	26201.54
510.643	26764.73
510.845	26586.56
511.048	26719.68
511.25	27157.94
511.453	27231.67
511.655	27850.16
511.858	27798.96
512.06	27903.4
512.262	28149.16
512.465	28415.4
512.667	28628.38
512.87	29201.82
513.072	28906.91
513.274	29304.21
513.477	29994.38
513.679	30313.86
513.881	30334.34
514.084	30625.15
514.286	30619.01
514.488	31044.99
514.69	31802.74
514.893	31526.26
515.095	31495.54
515.297	32206.19
515.499	32353.64
515.701	32996.7
515.904	32804.19
516.106	33170.78
516.308	33471.83
516.51	33992.01
516.712	33699.16
516.914	34172.24
517.116	34688.32
517.318	34504.01
517.52	35134.78
517.722	34846.02
517.925	35593.53
518.127	35767.6
518.329	36085.04
518.531	36279.6
518.733	36769.06
518.935	36885.79
519.136	37301.53
519.338	37553.43
519.54	37248.28
519.742	37741.85
519.944	37731.61
520.146	38436.11
520.348	38622.47
520.55	38278.41
520.752	38964.48
520.954	39654.65
521.155	39337.21
521.357	39933.17
521.559	40015.09
521.761	40549.61
521.963	40193.26
522.164	40633.58
522.366	40377.58
522.568	41129.19
522.77	41260.26
522.971	41964.76
523.173	41553.12
523.375	42157.27
523.576	41807.06
523.778	42208.47
523.98	42665.16
524.181	42915.01
524.383	42464.46
524.584	43199.68
524.786	43228.35
524.988	43390.14
525.189	43920.57
525.391	44143.8
525.592	44246.19
525.794	44231.86
525.995	44395.7
526.197	44174.52
526.398	44502.19
526.6	44907.69
526.801	45014.18
527.003	44928.17
527.204	45042.85
527.406	45419.68
527.607	45282.47
527.808	45862.04
528.01	44643.5
528.211	45456.54
528.412	46173.33
528.614	45714.59
528.815	45700.25
529.016	46150.81
529.218	45913.24
529.419	45853.85
529.62	46328.98
529.822	45982.87
530.023	46406.8
530.224	46187.67
530.425	46199.96
530.626	46541.97
530.828	46152.85
531.029	47078.53
531.23	46464.14
531.431	46660.75
531.632	46550.16
531.833	47080.58
532.035	46662.8
532.236	46615.69
532.437	47166.6
532.638	46625.93
532.839	47316.1
533.04	47066.25
533.241	46861.45
533.442	47416.45
533.643	47099.01
533.844	47162.5
534.045	47475.84
534.246	46775.44
534.447	46818.44
534.648	46697.61
534.849	47377.54
535.05	46460.05
535.251	47148.17
535.451	47217.8
535.652	47228.04
535.853	47187.08
536.054	47082.63
536.255	47455.36
536.456	46515.34
536.657	47985.79
536.857	47139.97
537.058	47193.22
537.259	47537.28
537.46	47568
537.66	46992.52
537.861	47242.37
538.062	47158.41
538.263	47586.43
538.463	47250.56
538.664	47221.89
538.865	46902.41
539.065	47451.27
539.266	46845.07
539.466	47359.11
539.667	46474.38
539.868	47576.19
540.068	46849.16
540.269	47072.39
540.469	47377.54
540.67	46953.61
540.87	46730.38
541.071	46845.07
541.271	47123.59
541.472	46804.11
541.672	46984.33
541.873	46851.21
542.073	46482.58
542.274	47269
542.474	46861.45
542.675	46371.99
542.875	47090.82
543.075	46761.1
543.276	46443.66
543.476	46697.61
543.676	46355.6
543.877	46937.23
544.077	47262.85
544.277	46480.53
544.478	46920.84
544.678	47000.71
544.878	46498.96
545.078	46746.76
545.279	46773.39
545.479	46314.64
545.679	46773.39
545.879	46445.71
546.079	46394.51
546.28	46310.55
546.48	46199.96
546.68	46468.24
546.88	46961.8
547.08	46406.8
547.28	46599.31
547.48	45718.68
547.68	46564.49
547.88	46150.81
548.081	46560.4
548.281	46097.56
548.481	46177.43
548.681	47086.73
548.881	46599.31
549.081	46253.2
549.28	46036.12
549.48	46529.68
549.68	46408.85
549.88	46670.99
550.08	45859.99
550.28	46111.89
550.48	46386.32
550.68	46505.1
550.88	45829.27
551.08	46029.97
551.279	45968.54
551.479	45907.1
551.679	46218.39
551.879	45585.57
552.079	46517.39
552.278	45960.34
552.478	45796.51
552.678	46001.3
552.878	45790.36
553.077	46017.69
553.277	45624.48
553.477	46451.86
553.676	45534.37
553.876	45628.57
554.076	45792.41
554.275	45702.3
554.475	45460.64
554.674	46017.69
554.874	45368.48
555.074	45298.85
555.273	45776.03
555.473	45468.83
555.672	45636.76
555.872	45622.43
556.071	45370.53
556.271	45255.84
556.47	45427.87
556.67	44719.27
556.869	45053.09
557.068	45380.77
557.268	44866.73
557.467	45323.43
557.667	45012.13
557.866	45202.6
558.065	44813.48
558.265	44922.02
558.464	44485.81
558.663	45452.45
558.863	44553.39
559.062	45419.68
559.261	44749.99
559.461	45153.44
559.66	44278.96
559.859	44616.88
560.058	44283.06
560.258	44745.9
560.457	44063.92
560.656	44840.11
560.855	44229.81
561.054	44848.3
561.253	44115.12
561.453	44104.88
561.652	44506.29
561.851	44606.64
562.05	44305.59
562.249	44004.53
562.448	44192.95
562.647	44141.75
562.846	43691.19
563.045	43975.86
563.244	43396.29
563.443	44125.36
563.642	43386.05
563.841	43726.01
564.04	43363.52
564.239	44029.11
564.438	43015.36
564.637	43584.7
564.836	43603.13
565.035	43003.08
565.234	43228.35
565.432	43171.01
565.631	42800.33
565.83	43715.77
566.029	43312.32
566.228	42974.41
566.427	42863.82
566.625	42675.4
566.824	42876.1
567.023	42863.82
567.222	42159.31
567.42	42624.2
567.619	42480.85
567.818	42708.17
568.016	42372.3
568.215	42720.46
568.414	42288.34
568.612	42450.13
568.811	42212.56
569.01	42446.03
569.208	41393.37
569.407	42179.79
569.605	41262.3
569.804	42374.35
570.002	41710.81
570.201	41936.09
570.4	41143.52
570.598	41358.56
570.797	41798.87
570.995	41645.27
571.193	40887.53
571.392	41680.09
571.59	40758.5
571.789	41065.7
571.987	40955.11
572.186	40889.57
572.384	41022.69
572.582	41120.99
572.781	40787.17
572.979	40400.11
573.177	40355.05
573.376	40463.6
573.574	40404.2
573.772	40537.32
573.971	40172.78
574.169	40254.7
574.367	39939.32
574.565	40393.96
574.763	40013.04
574.962	39941.36
575.16	39611.64
575.358	39759.09
575.556	39417.08
575.754	40078.58
575.952	39152.9
576.151	39650.55
576.349	39146.75
576.547	39238.91
576.745	39005.44
576.943	39695.61
577.141	39367.93
577.339	39341.31
577.537	38958.34
577.735	38960.39
577.933	38368.52
578.131	39075.07
578.329	38444.3
578.527	38196.49
578.725	38374.67
578.923	38821.12
579.121	37969.17
579.319	38395.15
579.516	38479.11
579.714	38190.35
579.912	38075.66
580.11	37872.92
580.308	38049.04
580.506	37829.91
580.704	37334.3
580.901	37838.1
581.099	37487.9
581.297	37125.41
581.495	37326.11
581.692	37336.35
581.89	37025.06
582.088	37391.64
582.285	36740.39
582.483	37219.61
582.681	36674.85
582.878	36752.68
583.076	36148.53
583.274	36787.49
583.471	36111.66
583.669	36783.4
583.866	35951.92
584.064	36508.97
584.262	35964.21
584.459	36226.35
584.657	35765.56
584.854	36568.36
585.052	35032.38
585.249	35669.3
585.447	36144.43
585.644	35587.38
585.841	35292.47
586.039	35812.66
586.236	35304.76
586.434	35114.3
586.631	34958.66
586.828	35001.66
587.026	35038.53
587.223	34946.37
587.42	34471.24
587.618	34985.28
587.815	34663.75
588.012	34614.6
588.21	34448.71
588.407	34700.61
588.604	34245.96
588.801	34075.98
588.999	33959.25
589.196	33789.27
589.393	33881.42
589.59	33650
589.787	33791.31
589.984	33551.7
590.182	33604.95
590.379	33357.14
590.576	33209.69
590.773	33559.89
590.97	33123.68
591.167	33062.24
591.364	32920.93
591.561	33039.71
591.758	32591.2
591.955	32867.68
592.152	33418.58
592.349	32798.05
592.546	33103.2
592.743	32800.1
592.94	32054.64
593.137	32003.44
593.334	32556.39
593.531	31962.48
593.727	32232.81
593.924	31950.19
594.121	31821.17
594.318	31860.08
594.515	31423.86
594.712	31849.84
594.908	31096.19
595.105	31583.6
595.302	31073.66
595.499	30977.4
595.696	30903.68
595.892	31020.41
596.089	31055.23
596.286	31073.66
596.482	30735.74
596.679	30909.82
596.876	30809.47
597.072	30637.44
597.269	30426.5
597.466	30111.11
597.662	30199.18
597.859	30227.85
598.055	30229.9
598.252	30141.83
598.448	29900.17
598.645	29863.31
598.841	29554.07
599.038	29992.33
599.234	29689.23
599.431	29347.22
599.627	29293.97
599.824	29586.83
600.02	29103.51
600.217	29115.8
600.413	29044.12
600.609	29037.98
600.806	28683.68
601.002	29005.21
601.198	28736.93
601.395	28859.8
601.591	28562.85
601.787	28655.01
601.984	28050.86
602.18	28741.02
602.376	28276.13
602.572	28269.99
602.769	28134.82
602.965	28067.24
603.161	27983.27
603.357	27786.67
603.553	27708.85
603.75	27547.06
603.946	27209.14
604.142	27733.42
604.338	27051.45
604.534	27444.66
604.73	27542.96
604.926	27250.1
605.122	27033.02
605.318	27205.05
605.514	26867.13
605.71	26738.11
605.906	26869.18
606.102	26721.73
606.298	26793.4
606.494	26498.5
606.69	26504.64
606.886	26813.88
607.082	26400.19
607.278	26363.33
607.474	26246.6
607.67	26469.83
607.866	26211.78
608.062	26332.61
608.257	26041.8
608.453	26045.9
608.649	26000.84
608.845	25988.55
609.041	25945.55
609.236	26033.61
609.432	25472.46
609.628	25853.39
609.824	25773.52
610.019	25550.29
610.215	25494.99
610.411	25617.87
610.606	25572.82
610.802	25441.75
610.998	25728.46
611.193	25560.53
611.389	25492.94
611.584	25284.05
611.78	25097.69
611.976	25021.91
612.171	24870.36
612.367	25275.86
612.562	25112.02
612.758	24636.89
612.953	24686.04
613.149	25204.18
613.344	24608.22
613.539	24786.4
613.735	24790.49
613.93	24505.82
614.126	24292.83
614.321	24974.81
614.517	24210.92
614.712	24532.45
614.907	24143.33
615.103	24526.3
615.298	24247.78
615.493	24552.93
615.688	23823.85
615.884	24479.2
616.079	23922.15
616.274	24172
616.47	23967.21
616.665	23911.91
616.86	24182.24
617.055	24014.31
617.25	24065.51
617.445	24102.37
617.641	23311.86
617.836	23719.4
618.031	23203.32
618.226	23850.47
618.421	23143.92
618.616	23596.53
618.811	23322.1
619.006	23596.53
619.201	23043.57
619.396	23578.09
619.591	22896.12
619.786	23166.45
619.981	22474.24
620.176	22738.43
620.371	22754.81
620.566	22711.8
620.761	22490.62
620.956	22519.29
621.151	21956.1
621.346	22183.43
621.541	21792.26
621.735	21995.01
621.93	21724.68
622.125	21909
622.32	21726.73
622.515	21620.24
622.709	21444.11
622.904	21294.61
623.099	21538.32
623.294	21210.64
623.488	21016.08
623.683	21171.73
623.878	21009.94
624.072	20467.23
624.267	20780.57
624.462	20555.29
624.656	20500
624.851	20721.18
625.046	20231.71
625.24	20182.56
625.435	20211.23
625.629	19559.98
625.824	19871.27
626.018	19768.87
626.213	19406.38
626.407	19500.59
626.602	19174.96
626.796	19426.86
626.991	19230.26
627.185	19297.84
627.38	18794.04
627.574	18984.5
627.768	18646.58
627.963	18890.29
628.157	18239.04
628.352	18630.2
628.546	18337.34
628.74	18316.86
628.935	18302.53
629.129	18073.15
629.323	18007.62
629.517	18081.35
629.712	18058.82
629.906	17819.21
630.1	17389.13
630.294	17462.86
630.489	17464.91
630.683	17362.51
630.877	17147.47
631.071	17010.26
631.265	17008.21
631.459	16830.04
631.653	17098.32
631.848	16948.82
632.042	16694.87
632.236	16875.09
632.43	16502.36
632.624	16670.29
632.818	16146.01
633.012	16313.95
633.206	16232.03
633.4	15959.65
633.594	15836.77
633.788	16049.76
633.982	15896.16
634.176	15840.87
634.369	15648.36
634.563	15863.4
634.757	15476.33
634.951	15490.66
635.145	15556.2
635.339	15505
635.533	15498.86
635.726	15162.99
635.92	15101.55
636.114	14911.09
636.308	14550.65
636.501	15015.54
636.695	14958.19
636.889	14792.31
637.083	14481.02
637.276	14669.43
637.47	14478.97
637.664	14364.28
637.857	14642.81
638.051	14622.33
638.244	14177.92
638.438	14331.51
638.632	14102.14
638.825	13883.01
639.019	13749.89
639.212	13829.76
639.406	13608.58
639.599	13667.97
639.793	13735.56
639.986	13424.26
640.18	13391.5
640.373	13452.94
640.567	13098.64
640.76	13264.52
640.954	13018.77
641.147	12977.81
641.34	12975.76
641.534	13022.86
641.727	13258.38
641.92	13016.72
642.114	12740.24
642.307	12689.04
642.5	12719.76
642.694	12338.84
642.887	12381.85
643.08	12656.28
643.273	12471.96
643.467	12410.52
643.66	12181.15
643.853	12297.88
644.046	12162.72
644.239	12349.08
644.432	11865.76
644.626	12019.36
644.819	11949.73
645.012	11970.21
645.205	11876
645.398	11646.63
645.591	11744.93
645.784	11720.35
645.977	11540.13
646.17	11564.71
646.363	11421.35
646.556	11200.17
646.749	11327.14
646.942	11308.71
647.135	11253.42
647.328	11005.61
647.521	11212.46
647.714	11019.95
647.907	10946.22
648.099	10671.79
648.292	10714.8
648.485	10804.91
648.678	10464.95
648.871	10882.74
649.064	10622.64
649.256	10700.47
649.449	10407.61
649.642	10555.06
649.835	10395.32
650.027	10071.74
650.22	9979.58
650.413	10133.18
650.605	10196.67
650.798	10196.67
650.991	10022.59
651.183	10102.46
651.376	9735.87
651.568	9977.53
651.761	9776.83
651.954	9768.64
652.146	9723.58
652.339	9801.41
652.531	9647.81
652.724	9651.91
652.916	9344.71
653.109	9402.05
653.301	9338.57
653.494	9445.06
653.686	9199.3
653.879	9250.5
654.071	9240.26
654.263	9098.95
654.456	9158.35
654.648	9236.17
654.84	8974.03
655.033	8931.02
655.225	8988.36
655.417	8906.45
655.61	8795.86
655.802	8861.39
655.994	8804.05
656.186	8691.41
656.379	8701.65
656.571	8443.6
656.763	8636.11
656.955	8382.17
657.148	8394.45
657.34	8490.71
657.532	8320.73
657.724	8107.74
657.916	8406.74
658.108	8300.25
658.3	8165.08
658.492	8271.58
658.684	8232.66
658.876	8029.91
659.068	7853.79
659.26	8009.44
659.452	7997.15
659.644	7839.45
659.836	7773.92
660.028	7732.96
660.22	7646.94
660.412	7747.3
660.604	7622.37
660.796	7663.33
660.988	7546.59
661.18	7560.93
661.372	7472.87
661.563	7464.68
661.755	7190.25
661.947	7366.37
662.139	7360.23
662.331	7403.24
662.522	7225.06
662.714	7378.66
662.906	7108.33
663.097	7177.96
663.289	6995.69
663.481	6893.29
663.673	7098.09
663.864	6909.68
664.056	6985.45
664.247	6924.01
664.439	6846.19
664.631	6962.92
664.822	6794.99
665.014	6627.06
665.205	6737.65
665.397	6567.67
665.588	6606.58
665.78	6770.41
665.971	6592.24
666.163	6698.74
666.354	6532.85
666.546	6463.22
666.737	6524.66
666.929	6285.05
667.12	6446.83
667.311	6350.58
667.503	6246.13
667.694	6332.15
667.885	6297.33
668.077	6108.92
668.268	6131.45
668.459	6295.29
668.651	6033.15
668.842	6121.21
669.033	6074.1
669.224	5943.03
669.416	6004.47
669.607	5959.42
669.798	5990.14
669.989	5947.13
670.18	5930.75
670.371	5897.98
670.563	5793.53
670.754	5840.64
670.945	5791.48
671.136	5609.22
671.327	5846.78
671.518	5816.06
671.709	5734.14
671.9	5838.59
672.091	5752.57
672.282	5463.81
672.473	5500.67
672.664	5641.98
672.855	5467.91
673.046	5357.32
673.237	5607.17
673.428	5584.64
673.619	5406.47
673.809	5404.42
674	5347.08
674.191	5289.73
674.382	5349.12
674.573	5349.12
674.764	5232.39
674.954	5334.79
675.145	5226.25
675.336	5297.92
675.527	5213.96
675.717	5179.14
675.908	5064.46
676.099	5146.37
676.289	5187.33
676.48	5035.78
676.671	5123.85
676.861	5052.17
677.052	5123.85
677.243	4986.63
677.433	5039.88
677.624	4933.39
677.814	4871.95
678.005	4908.81
678.195	5013.26
678.386	4970.25
678.576	4917
678.767	4882.19
678.957	4863.76
679.148	4943.63
679.338	4931.34
679.529	4792.08
679.719	4859.66
679.909	4859.66
680.1	4802.32
680.29	4794.12
680.481	4820.75
680.671	4726.54
680.861	4949.77
681.052	4626.19
681.242	4706.06
681.432	4814.6
681.622	4691.73
681.813	4630.29
682.003	4742.92
682.193	4564.75
682.383	4577.04
682.573	4634.38
682.764	4587.28
682.954	4534.03
683.144	4646.67
683.334	4669.2
683.524	4441.87
683.714	4468.5
683.904	4515.6
684.094	4579.09
684.284	4466.45
684.474	4505.36
684.664	4450.07
684.854	4454.16
685.044	4343.57
685.234	4263.7
685.424	4255.51
685.614	4353.81
685.804	4351.76
685.994	4310.8
686.184	4409.11
686.374	4220.69
686.564	4187.93
686.753	4269.84
686.943	4265.75
687.133	4247.32
687.323	4179.73
687.513	4126.49
687.702	4216.6
687.892	4171.54
688.082	4200.21
688.272	4128.53
688.461	4050.71
688.651	4134.68
688.841	4042.52
689.03	4177.69
689.22	3923.74
689.41	4073.24
689.599	4030.23
689.789	4040.47
689.979	3911.45
690.168	3911.45
690.358	3843.87
690.547	3927.83
690.737	3921.69
690.926	3815.2
691.116	3915.55
691.305	3735.32
691.495	3563.29
691.684	3755.8
691.874	3729.18
692.063	3704.6
692.252	3686.17
692.442	3800.86
692.631	3657.5
692.82	3587.87
693.01	3571.49
693.199	3514.14
693.388	3618.59
693.578	3606.3
693.767	3557.15
693.956	3526.43
694.146	3487.52
694.335	3530.53
694.524	3444.51
694.713	3501.86
694.902	3456.8
695.092	3399.46
695.281	3286.82
695.47	3442.46
695.659	3385.12
695.848	3342.11
696.037	3417.89
696.226	3374.88
696.415	3270.44
696.604	3413.79
696.793	3305.25
696.982	3186.47
697.171	3301.15
697.36	3348.26
697.549	3133.22
697.738	3196.71
697.927	3188.52
698.116	3178.28
698.305	3086.12
698.494	3094.31
698.683	3082.02
698.872	3131.17
699.061	3098.41
699.25	3221.28
699.438	3188.52
699.627	3079.97
699.816	3057.45
700.005	3002.15
700.193	3002.15
700.382	2965.29
700.571	2942.76
700.76	2944.81
700.948	2979.62
701.137	2961.19
701.326	3020.58
701.514	2893.61
701.703	3051.3
701.892	2909.99
702.08	2983.72
702.269	2932.52
702.457	2901.8
702.646	2875.18
702.834	2838.31
703.023	2848.55
703.212	2869.03
703.4	2909.99
703.589	2893.61
703.777	2899.75
703.965	2699.05
704.154	2737.96
704.342	2721.58
704.531	2783.02
704.719	2735.92
704.907	2922.28
705.096	2694.96
705.284	2852.65
705.472	2815.79
705.661	2830.12
705.849	2725.68
706.037	2914.09
706.226	2664.24
706.414	2701.1
706.602	2799.4
706.79	2678.57
706.979	2725.68
707.167	2760.49
707.355	2627.37
707.543	2670.38
707.731	2666.28
707.919	2606.89
708.107	2580.27
708.296	2715.44
708.484	2672.43
708.672	2713.39
708.86	2697
709.048	2529.07
709.236	2615.09
709.424	2631.47
709.612	2637.61
709.8	2631.47
709.988	2703.15
710.176	2537.26
710.364	2643.76
710.551	2639.66
710.739	2668.33
710.927	2512.69
711.115	2643.76
711.303	2613.04
711.491	2539.31
711.679	2602.8
711.866	2682.67
712.054	2514.73
712.242	2434.86
712.43	2514.73
712.617	2604.85
712.805	2494.26
712.993	2567.98
713.181	2475.82
713.368	2602.8
713.556	2651.95
713.744	2588.46
713.931	2627.37
714.119	2580.27
714.306	2553.65
714.494	2492.21
714.682	2428.72
714.869	2459.44
715.057	2572.08
715.244	2457.39
715.432	2494.26
715.619	2457.39
715.807	2606.89
715.994	2516.78
716.182	2471.73
716.369	2524.97
716.556	2463.54
716.744	2471.73
716.931	2549.55
717.119	2494.26
717.306	2533.17
717.493	2490.16
717.681	2600.75
717.868	2586.41
718.055	2504.5
718.242	2465.58
718.43	2527.02
718.617	2430.77
718.804	2551.6
718.991	2447.15
719.179	2496.3
719.366	2354.99
719.553	2473.78
719.74	2459.44
719.927	2504.5
720.114	2545.45
720.301	2410.29
720.488	2404.14
720.676	2418.48
720.863	2529.07
721.05	2557.74
721.237	2432.82
721.424	2422.58
721.611	2563.89
721.798	2510.64
721.985	2367.28
722.172	2504.5
722.358	2580.27
722.545	2574.13
722.732	2481.97
722.919	2477.87
723.106	2428.72
723.293	2426.67
723.48	2281.27
723.667	2377.52
723.853	2475.82
724.04	2432.82
724.227	2543.41
724.414	2502.45
724.6	2449.2
724.787	2508.59
724.974	2451.25
725.161	2473.78
725.347	2402.1
725.534	2432.82
725.72	2473.78
725.907	2402.1
726.094	2473.78
726.28	2451.25
726.467	2426.67
726.653	2393.9
726.84	2340.66
727.027	2524.97
727.213	2363.19
727.4	2424.62
727.586	2551.6
727.773	2467.63
727.959	2479.92
728.145	2410.29
728.332	2332.47
728.518	2422.58
728.705	2471.73
728.891	2291.51
729.077	2398
729.264	2467.63
729.45	2412.34
729.636	2475.82
729.823	2502.45
730.009	2524.97
730.195	2443.06
730.382	2287.41
730.568	2461.49
730.754	2449.2
730.94	2346.8
731.126	2428.72
731.313	2430.77
731.499	2443.06
731.685	2451.25
731.871	2389.81
732.057	2426.67
732.243	2529.07
732.429	2281.27
732.615	2320.18
732.801	2398
732.987	2348.85
733.173	2287.41
733.359	2484.02
733.545	2391.86
733.731	2481.97
733.917	2492.21
734.103	2471.73
734.289	2447.15
734.475	2408.24
734.661	2398
734.847	2524.97
735.033	2469.68
735.219	2383.66
735.404	2277.17
735.59	2301.75
735.776	2326.32
735.962	2393.9
736.148	2377.52
736.333	2359.09
736.519	2320.18
736.705	2352.95
736.89	2307.89
737.076	2330.42
737.262	2295.6
737.447	2172.72
737.633	2197.3
737.819	2268.98
738.004	2424.62
738.19	2189.11
738.375	2361.14
738.561	2346.8
738.747	2316.08
738.932	2328.37
739.118	2271.03
739.303	2213.68
739.489	2268.98
739.674	2311.99
739.859	2258.74
740.045	2275.12
740.23	2162.48
740.416	2209.59
740.601	2293.55
740.786	2166.58
740.972	2234.16
741.157	2129.72
741.342	2115.38
741.528	2139.96
741.713	2115.38
741.898	2291.51
742.084	2099
742.269	2146.1
742.454	2223.92
742.639	2189.11
742.824	2131.76
743.01	2139.96
743.195	2109.24
743.38	2107.19
743.565	2197.3
743.75	2070.33
743.935	2033.46
744.12	2103.09
744.305	2021.17
744.49	1992.5
744.675	2053.94
744.86	2027.32
745.045	2031.41
745.23	1996.6
745.415	2053.94
745.6	2012.98
745.785	1974.07
745.97	1996.6
746.155	1910.58
746.34	1906.49
746.525	2000.69
746.71	1914.68
746.895	1920.82
747.079	1847.1
747.264	1877.82
747.449	1836.86
747.634	1904.44
747.819	1826.62
748.003	1840.95
748.188	1908.54
748.373	1820.47
748.557	1816.38
748.742	1840.95
748.927	1797.95
749.111	1836.86
749.296	1865.53
749.481	1707.84
749.665	1730.36
749.85	1675.07
750.034	1875.77
750.219	1767.23
750.404	1726.27
750.588	1820.47
750.773	1546.05
750.957	1691.45
751.141	1746.75
751.326	1730.36
751.51	1544
751.695	1611.58
751.879	1623.87
752.064	1705.79
752.248	1648.44
752.432	1627.96
752.617	1595.2
752.801	1673.02
752.985	1599.29
753.17	1537.85
753.354	1668.92
753.538	1513.28
753.722	1496.89
753.907	1605.44
754.091	1500.99
754.275	1513.28
754.459	1445.7
754.643	1466.17
754.828	1474.37
755.012	1582.91
755.196	1460.03
755.38	1455.94
755.564	1410.88
755.748	1451.84
755.932	1412.93
756.116	1402.69
756.3	1388.35
756.484	1343.3
756.668	1367.87
756.852	1296.19
757.036	1302.34
757.22	1374.02
757.404	1269.57
757.588	1335.1
757.772	1376.06
757.956	1277.76
758.14	1224.51
758.323	1271.62
758.507	1365.82
758.691	1318.72
758.875	1234.75
759.059	1343.3
759.242	1255.23
759.426	1187.65
759.61	1263.43
759.794	1257.28
759.977	1277.76
760.161	1267.52
760.345	1171.27
760.528	1271.62
760.712	1306.43
760.895	1259.33
761.079	1236.8
761.263	1212.23
761.446	1083.2
761.63	1115.97
761.813	1099.59
761.997	1140.55
762.18	1048.39
762.364	1128.26
762.547	1087.3
762.731	1099.59
762.914	1095.49
763.098	1115.97
763.281	1183.56
763.464	1144.64
763.648	1029.96
763.831	1097.54
764.015	1095.49
764.198	1052.49
764.381	1165.12
764.564	1130.31
764.748	1156.93
764.931	1101.64
765.114	1064.77
765.297	1161.03
765.481	1058.63
765.664	1032.01
765.847	1040.2
766.03	1091.4
766.213	1077.06
766.397	1019.72
766.58	1032.01
766.763	954.18
766.946	964.42
767.129	1029.96
767.312	1007.43
767.495	950.09
767.678	1001.29
767.861	939.85
768.044	1003.33
768.227	1046.34
768.41	939.85
768.593	999.24
768.776	943.94
768.959	1027.91
769.142	933.7
769.324	1003.33
769.507	927.56
769.69	919.37
769.873	1001.29
770.056	933.7
770.239	966.47
770.421	857.93
770.604	952.13
770.787	941.89
770.97	857.93
771.152	917.32
771.335	868.17
771.518	773.96
771.7	937.8
771.883	960.33
772.066	814.92
772.248	874.31
772.431	907.08
772.613	890.7
772.796	882.5
772.978	917.32
773.161	835.4
773.343	816.97
773.526	866.12
773.708	739.15
773.891	704.33
774.073	855.88
774.256	767.82
774.438	812.87
774.621	761.67
774.803	855.88
774.985	784.2
775.168	806.73
775.35	733
775.532	724.81
775.715	747.34
775.897	763.72
776.079	872.26
776.261	784.2
776.444	821.06
776.626	776.01
776.808	653.13
776.99	710.47
777.173	780.11
777.355	778.06
777.537	755.53
777.719	696.14
777.901	700.23
778.083	673.61
778.265	704.33
778.447	753.48
778.629	747.34
778.811	673.61
778.993	653.13
779.175	638.8
779.357	659.28
779.539	585.55
779.721	704.33
779.903	708.43
780.085	665.42
780.267	673.61
780.449	612.17
780.631	589.64
780.812	587.6
780.994	538.45
781.176	579.4
781.358	616.27
781.54	567.12
781.721	495.44
781.903	595.79
782.085	509.77
782.267	620.36
782.448	591.69
782.63	599.88
782.812	579.4
782.993	665.42
783.175	583.5
783.357	575.31
783.538	550.73
783.72	522.06
783.901	548.68
784.083	513.87
784.264	540.49
784.446	468.81
784.627	489.29
784.809	462.67
784.99	517.97
785.172	489.29
785.353	442.19
785.535	530.25
785.716	554.83
785.897	493.39
786.079	427.85
786.26	474.96
786.441	491.34
786.623	464.72
786.804	464.72
786.985	509.77
787.167	356.18
787.348	448.33
787.529	554.83
787.71	472.91
787.891	468.81
788.073	452.43
788.254	456.53
788.435	489.29
788.616	411.47
788.797	384.85
788.978	378.7
789.159	415.57
789.34	405.33
789.522	374.61
789.703	415.57
789.884	362.32
790.065	403.28
790.246	436.05
790.427	440.14
790.607	341.84
790.788	386.9
790.969	440.14
791.15	352.08
791.331	419.66
791.512	354.13
791.693	315.22
791.874	280.4
792.054	419.66
792.235	366.42
792.416	372.56
792.597	358.22
792.778	423.76
792.958	352.08
793.139	376.66
793.32	360.27
793.5	294.74
793.681	382.8
793.862	276.31
794.042	354.13
794.223	261.97
794.404	272.21
794.584	360.27
794.765	231.25
794.945	311.12
795.126	333.65
795.306	311.12
795.487	337.74
795.667	309.07
795.848	255.83
796.028	317.26
796.209	341.84
796.389	339.79
796.57	395.09
796.75	255.83
796.93	255.83
797.111	296.78
797.291	325.46
797.471	249.68
797.652	311.12
797.832	233.3
798.012	390.99
798.192	325.46
798.373	247.63
798.553	194.39
798.733	300.88
798.913	257.87
799.093	288.59
799.274	264.02
799.454	268.11
799.634	270.16
799.814	321.36
799.994	261.97
800.174	288.59
800.354	309.07
800.534	280.4
800.714	233.3
800.894	296.78
801.074	239.44
801.254	288.59
801.434	259.92
801.614	229.2
801.794	225.11
801.974	577.36
802.154	272.21
802.334	335.7
802.514	202.58
802.693	304.98
802.873	194.39
803.053	255.83
803.233	276.31
803.413	280.4
803.592	251.73
803.772	233.3
803.952	255.83
804.131	218.96
804.311	245.59
804.491	245.59
804.67	200.53
804.85	218.96
805.03	247.63
805.209	264.02
805.389	274.26
805.568	225.11
805.748	210.77
805.928	237.39
806.107	239.44
806.287	198.48
806.466	276.31
806.646	79.7
806.825	196.43
807.004	212.82
807.184	171.86
807.363	239.44
807.543	212.82
807.722	206.67
807.901	245.59
808.081	259.92
808.26	182.1
808.439	182.1
808.619	239.44
808.798	221.01
808.977	186.19
809.156	241.49
809.336	173.91
809.515	208.72
809.694	180.05
809.873	214.87
810.052	255.83
810.231	257.87
810.411	182.1
810.59	235.35
810.769	155.47
810.948	182.1
811.127	143.19
811.306	175.95
811.485	235.35
811.664	210.77
811.843	130.9
812.022	196.43
812.201	143.19
812.38	198.48
812.559	141.14
812.737	137.04
812.916	116.56
813.095	223.06
813.274	186.19
813.453	206.67
813.632	155.47
813.811	186.19
813.989	143.19
814.168	180.05
814.347	165.71
814.526	180.05
814.704	225.11
814.883	188.24
815.062	171.86
815.24	149.33
815.419	145.24
815.598	173.91
815.776	165.71
815.955	153.43
816.133	132.95
816.312	116.56
816.49	104.28
816.669	141.14
816.847	145.24
817.026	98.13
817.204	157.52
817.383	151.38
817.561	186.19
817.74	163.67
817.918	141.14
818.097	102.23
818.275	161.62
818.453	188.24
818.632	89.94
818.81	171.86
818.988	91.99
819.167	190.29
819.345	149.33
819.523	122.71
819.701	65.36
819.879	67.41
820.058	169.81
820.236	130.9
820.414	77.65
820.592	153.43
820.77	116.56
820.948	206.67
821.127	96.08
821.305	161.62
821.483	130.9
821.661	79.7
821.839	130.9
822.017	112.47
822.195	85.84
822.373	139.09
822.551	73.56
822.729	130.9
822.907	135
823.085	61.27
823.262	116.56
823.44	118.61
823.618	155.47
823.796	137.04
823.974	116.56
824.152	130.9
824.329	104.28
824.507	173.91
824.685	132.95
824.863	155.47
825.04	118.61
825.218	79.7
825.396	118.61
825.574	116.56
825.751	89.94
825.929	137.04
826.107	87.89
826.284	130.9
826.462	53.08
826.639	128.85
826.817	71.51
826.994	143.19
827.172	73.56
827.349	71.51
827.527	89.94
827.704	169.81
827.882	55.12
828.059	100.18
828.237	83.8
828.414	63.32
828.591	57.17
828.769	81.75
828.946	57.17
829.124	77.65
829.301	79.7
829.478	116.56
829.655	145.24
829.833	73.56
830.01	63.32
830.187	91.99
830.364	112.47
830.542	83.8
830.719	55.12
830.896	163.67
831.073	116.56
831.25	79.7
831.427	120.66
831.604	55.12
831.782	135
831.959	77.65
832.136	128.85
832.313	87.89
832.49	55.12
832.667	22.36
832.844	169.81
833.021	143.19
833.198	69.46
833.374	94.04
833.551	130.9
833.728	108.37
833.905	73.56
834.082	-26.79
834.259	120.66
834.436	141.14
834.612	40.79
834.789	139.09
834.966	51.03
835.143	110.42
835.319	104.28
835.496	153.43
835.673	83.8
835.85	91.99
836.026	71.51
836.203	69.46
836.38	10.07
836.556	67.41
836.733	36.69
836.909	42.84
837.086	-30.89
837.262	69.46
837.439	85.84
837.616	34.64
837.792	128.85
837.968	104.28
838.145	38.74
838.321	110.42
838.498	46.93
838.674	55.12
838.851	132.95
839.027	106.32
839.203	1.88
839.38	61.27
839.556	16.21
839.732	75.6
839.909	89.94
840.085	96.08
840.261	65.36
840.437	34.64
840.614	51.03
840.79	53.08
840.966	122.71
841.142	18.26
841.318	143.19
841.494	73.56
841.671	145.24
841.847	40.79
842.023	114.52
842.199	24.4
842.375	81.75
842.551	67.41
842.727	48.98
842.903	87.89
843.079	30.55
843.255	59.22
843.431	130.9
843.607	83.8
843.783	18.26
843.959	40.79
844.134	51.03
844.31	48.98
844.486	48.98
844.662	108.37
844.838	-18.6
845.013	16.21
845.189	100.18
845.365	65.36
845.541	14.17
845.716	-4.27
845.892	63.32
846.068	40.79
846.244	51.03
846.419	108.37
846.595	12.12
846.77	69.46
846.946	-24.75
847.122	18.26
847.297	59.22
847.473	46.93
847.648	36.69
847.824	112.47
847.999	44.88
848.175	130.9
848.35	55.12
848.526	59.22
848.701	75.6
848.876	73.56
849.052	57.17
849.227	108.37
849.403	1.88
849.578	51.03
849.753	69.46
849.929	-10.41
850.104	61.27
850.279	53.08
850.454	75.6
850.63	81.75
850.805	63.32
850.98	98.13
851.155	20.31
851.33	106.32
851.505	65.36
851.681	63.32
851.856	12.12
852.031	40.79
852.206	77.65
852.381	-8.36
852.556	-6.31
852.731	75.6
852.906	-65.71
853.081	83.8
853.256	63.32
853.431	36.69
853.606	-28.84
853.781	169.81
853.956	46.93
854.131	89.94
854.305	5.97
854.48	51.03
854.655	8.02
854.83	55.12
855.005	59.22
855.18	94.04
855.354	-4.27
855.529	14.17
855.704	8.02
855.879	85.84
856.053	120.66
856.228	3.93
856.403	34.64
856.577	8.02
856.752	-16.55
856.926	22.36
857.101	40.79
857.276	3.93
857.45	77.65
857.625	81.75
857.799	-10.41
857.974	-12.46
858.148	24.4
858.323	34.64
858.497	53.08
858.672	42.84
858.846	48.98
859.02	51.03
859.195	8.02
859.369	-0.17
859.543	1.88
859.718	128.85
859.892	26.45
860.066	46.93
860.241	112.47
860.415	48.98
860.589	-14.51
860.763	71.51
860.938	46.93
861.112	96.08
861.286	20.31
861.46	46.93
861.634	18.26
861.808	24.4
861.982	-20.65
862.157	38.74
862.331	-6.31
862.505	57.17
862.679	32.6
862.853	40.79
863.027	67.41
863.201	36.69
863.375	-10.41
863.549	8.02
863.722	59.22
863.896	18.26
864.07	-2.22
864.244	22.36
864.418	79.7
864.592	-26.79
864.766	16.21
864.939	98.13
865.113	-20.65
865.287	61.27
865.461	-34.99
865.634	91.99
865.808	38.74
865.982	87.89
866.156	-34.99
866.329	34.64
866.503	51.03
866.676	24.4
866.85	57.17
867.024	-12.46
867.197	44.88
867.371	65.36
867.544	3.93
867.718	57.17
867.891	20.31
868.065	10.07
868.238	3.93
868.412	3.93
868.585	20.31
868.759	1.88
868.932	5.97
869.105	-0.17
869.279	-18.6
869.452	46.93
869.625	-0.17
869.799	-0.17
869.972	-41.13
870.145	-8.36
870.319	-22.7
870.492	-18.6
870.665	48.98
870.838	-30.89
871.011	-39.08
871.185	12.12
871.358	-32.94
871.531	22.36
871.704	-28.84
871.877	10.07
872.05	42.84
872.223	40.79
872.396	-26.79
872.569	12.12
872.742	75.6
872.915	75.6
873.088	-10.41
873.261	32.6
873.434	83.8
873.607	89.94
873.78	-39.08
873.953	30.55
874.126	24.4
874.299	40.79
874.471	63.32
874.644	24.4
874.817	65.36
874.99	32.6
875.163	22.36
875.335	18.26
875.508	26.45
875.681	44.88
875.853	-16.55
876.026	-43.18
876.199	8.02
876.371	34.64
876.544	-2.22
876.717	46.93
876.889	-39.08
877.062	57.17
877.234	28.5
877.407	-47.27
877.579	85.84
877.752	10.07
877.924	5.97
878.097	77.65
878.269	-30.89
878.442	-26.79
878.614	65.36
878.786	1.88
878.959	-24.75
879.131	67.41
879.303	-65.71
879.476	-37.03
879.648	94.04
879.82	30.55
879.993	3.93
880.165	71.51
880.337	26.45
880.509	26.45
880.681	-24.75
880.854	5.97
881.026	-20.65
881.198	10.07
881.37	-6.31
881.542	34.64
881.714	-41.13
881.886	28.5
882.058	8.02
882.23	5.97
882.402	-4.27
882.574	34.64
882.746	5.97
882.918	61.27
883.09	-24.75
883.262	71.51
883.434	12.12
883.606	-63.66
883.778	5.97
883.95	53.08
884.122	1.88
884.293	22.36
884.465	53.08
884.637	48.98
884.809	-0.17
884.98	28.5
885.152	-2.22
885.324	65.36
885.496	24.4
885.667	48.98
885.839	-22.7
886.011	-14.51
886.182	8.02
886.354	34.64
886.525	36.69
886.697	69.46
886.869	-8.36
887.04	38.74
887.212	-67.75
887.383	75.6
887.555	40.79
887.726	48.98
887.897	-30.89
888.069	26.45
888.24	71.51
888.412	-0.17
888.583	-10.41
888.754	40.79
888.926	8.02
889.097	-10.41
889.268	32.6
889.44	16.21
889.611	3.93
889.782	40.79
889.953	14.17
890.125	-6.31
890.296	-6.31
890.467	8.02
890.638	-24.75
890.809	-2.22
890.98	18.26
891.151	42.84
891.323	57.17
891.494	-20.65
891.665	-0.17
891.836	61.27
892.007	-10.41
892.178	18.26
892.349	-47.27
892.52	-10.41
892.691	-2.22
892.862	22.36
893.032	-37.03
893.203	-57.51
893.374	-12.46
893.545	48.98
893.716	-16.55
893.887	36.69
894.057	-18.6
894.228	73.56
894.399	-16.55
894.57	53.08
894.74	34.64
894.911	-8.36
895.082	-6.31
895.253	-51.37
895.423	-0.17
895.594	51.03
895.764	30.55
895.935	-14.51
896.106	-16.55
896.276	-18.6
896.447	-26.79
896.617	51.03
896.788	-2.22
896.958	22.36
897.129	-24.75
897.299	-41.13
897.47	51.03
897.64	38.74
897.81	-63.66
897.981	26.45
898.151	-32.94
898.322	28.5
898.492	83.8
898.662	8.02
898.832	-16.55
899.003	10.07
899.173	30.55
899.343	-22.7
899.513	-4.27
