Data from USB4F104151__31__11-36-47-085.txt Node

Date: Fri Mar 14 11:36:47 EDT 2025
User: louis
Spectrometer: USB4F10415
Trigger mode: 4
Integration Time (sec): 2.000000E-2
Scans to average: 1
Electric dark correction enabled: true
Nonlinearity correction enabled: false
Boxcar width: 0
XAxis mode: Wavelengths
Number of Pixels in Spectrum: 3648
>>>>>Begin Spectral Data<<<<<
178.204	-100.69
178.424	-100.69
178.644	-100.69
178.864	-92.5
179.084	-102.74
179.304	-29.01
179.524	-12.63
179.744	32.43
179.964	36.52
180.184	18.09
180.404	42.67
180.624	-35.16
180.844	-18.77
181.064	-37.2
181.283	24.23
181.503	18.09
181.723	-39.25
181.943	-2.39
182.163	-37.2
182.383	-43.35
182.602	57
182.822	93.87
183.042	-37.2
183.262	5.8
183.482	30.38
183.701	-24.92
183.921	22.19
184.141	-14.68
184.361	30.38
184.58	18.09
184.8	54.95
185.02	5.8
185.239	65.19
185.459	-2.39
185.679	54.95
185.898	36.52
186.118	-35.16
186.338	22.19
186.557	28.33
186.777	-26.96
186.997	26.28
187.216	-6.49
187.436	26.28
187.655	79.53
187.875	5.8
188.095	28.33
188.314	-59.73
188.534	22.19
188.753	42.67
188.973	79.53
189.192	87.72
189.412	38.57
189.631	11.95
189.851	77.48
190.07	30.38
190.29	130.73
190.509	28.33
190.729	-4.44
190.948	65.19
191.168	153.26
191.387	36.52
191.607	38.57
191.826	42.67
192.045	-43.35
192.265	24.23
192.484	-14.68
192.704	24.23
192.923	13.99
193.142	63.15
193.362	44.71
193.581	36.52
193.8	22.19
194.02	79.53
194.239	87.72
194.458	57
194.678	61.1
194.897	54.95
195.116	73.39
195.335	38.57
195.555	32.43
195.774	36.52
195.993	-4.44
196.212	-59.73
196.432	9.9
196.651	28.33
196.87	-26.96
197.089	102.06
197.308	67.24
197.528	3.75
197.747	-39.25
197.966	93.87
198.185	38.57
198.404	16.04
198.623	38.57
198.842	79.53
199.062	95.91
199.281	112.3
199.5	11.95
199.719	36.52
199.938	-53.59
200.157	75.43
200.376	73.39
200.595	-22.87
200.814	-10.58
201.033	34.47
201.252	44.71
201.471	-22.87
201.69	83.63
201.909	116.39
202.128	42.67
202.347	32.43
202.566	63.15
202.785	38.57
203.004	-26.96
203.223	134.82
203.442	32.43
203.661	20.14
203.879	57
204.098	20.14
204.317	48.81
204.536	28.33
204.755	124.58
204.974	61.1
205.193	-10.58
205.411	-16.73
205.63	44.71
205.849	97.96
206.068	110.25
206.287	18.09
206.505	5.8
206.724	1.71
206.943	-16.73
207.162	1.71
207.381	20.14
207.599	42.67
207.818	28.33
208.037	7.85
208.255	-10.58
208.474	30.38
208.693	38.57
208.911	42.67
209.13	18.09
209.349	7.85
209.567	20.14
209.786	42.67
210.005	59.05
210.223	26.28
210.442	38.57
210.661	-55.64
210.879	75.43
211.098	120.49
211.316	18.09
211.535	20.14
211.753	30.38
211.972	89.77
212.191	-12.63
212.409	22.19
212.628	42.67
212.846	24.23
213.065	116.39
213.283	28.33
213.502	59.05
213.72	89.77
213.938	48.81
214.157	67.24
214.375	50.86
214.594	48.81
214.812	34.47
215.031	-80.21
215.249	-10.58
215.467	63.15
215.686	32.43
215.904	95.91
216.122	85.67
216.341	1.71
216.559	24.23
216.778	24.23
216.996	3.75
217.214	85.67
217.432	67.24
217.651	3.75
217.869	-12.63
218.087	26.28
218.306	-10.58
218.524	34.47
218.742	118.44
218.96	83.63
219.179	85.67
219.397	-14.68
219.615	18.09
219.833	20.14
220.051	30.38
220.27	69.29
220.488	61.1
220.706	106.15
220.924	77.48
221.142	36.52
221.36	-4.44
221.578	42.67
221.796	26.28
222.015	-51.54
222.233	79.53
222.451	100.01
222.669	26.28
222.887	-16.73
223.105	9.9
223.323	22.19
223.541	-8.53
223.759	81.58
223.977	-12.63
224.195	143.02
224.413	71.34
224.631	97.96
224.849	134.82
225.067	-0.34
225.285	-35.16
225.503	95.91
225.721	34.47
225.939	61.1
226.157	77.48
226.375	50.86
226.592	-41.3
226.81	81.58
227.028	22.19
227.246	83.63
227.464	59.05
227.682	63.15
227.9	38.57
228.117	65.19
228.335	46.76
228.553	85.67
228.771	120.49
228.989	77.48
229.206	73.39
229.424	16.04
229.642	28.33
229.86	-39.25
230.077	44.71
230.295	22.19
230.513	34.47
230.731	40.62
230.948	124.58
231.166	59.05
231.384	22.19
231.601	48.81
231.819	50.86
232.037	-2.39
232.254	52.91
232.472	-12.63
232.689	59.05
232.907	28.33
233.125	-26.96
233.342	42.67
233.56	36.52
233.777	50.86
233.995	-2.39
234.213	44.71
234.43	-8.53
234.648	7.85
234.865	-6.49
235.083	83.63
235.3	44.71
235.518	24.23
235.735	42.67
235.953	44.71
236.17	71.34
236.388	36.52
236.605	87.72
236.822	46.76
237.04	30.38
237.257	73.39
237.475	13.99
237.692	126.63
237.909	50.86
238.127	112.3
238.344	-37.2
238.562	69.29
238.779	46.76
238.996	9.9
239.214	116.39
239.431	102.06
239.648	24.23
239.865	5.8
240.083	108.2
240.3	-49.49
240.517	-26.96
240.735	73.39
240.952	28.33
241.169	1.71
241.386	-37.2
241.603	38.57
241.821	-80.21
242.038	28.33
242.255	11.95
242.472	65.19
242.689	-59.73
242.907	79.53
243.124	-43.35
243.341	5.8
243.558	20.14
243.775	-4.44
243.992	59.05
244.209	46.76
244.426	130.73
244.643	108.2
244.86	42.67
245.078	24.23
245.295	87.72
245.512	36.52
245.729	50.86
245.946	36.52
246.163	57
246.38	-2.39
246.597	42.67
246.814	42.67
247.031	22.19
247.248	24.23
247.464	75.43
247.681	3.75
247.898	40.62
248.115	93.87
248.332	11.95
248.549	65.19
248.766	18.09
248.983	69.29
249.2	67.24
249.417	46.76
249.633	28.33
249.85	71.34
250.067	38.57
250.284	28.33
250.501	7.85
250.717	-22.87
250.934	50.86
251.151	28.33
251.368	36.52
251.585	73.39
251.801	44.71
252.018	52.91
252.235	95.91
252.451	65.19
252.668	5.8
252.885	106.15
253.102	75.43
253.318	75.43
253.535	34.47
253.752	26.28
253.968	7.85
254.185	50.86
254.401	3.75
254.618	50.86
254.835	42.67
255.051	-29.01
255.268	59.05
255.484	161.45
255.701	44.71
255.917	104.11
256.134	59.05
256.351	7.85
256.567	5.8
256.784	44.71
257	22.19
257.217	-14.68
257.433	89.77
257.65	32.43
257.866	63.15
258.082	18.09
258.299	50.86
258.515	50.86
258.732	-2.39
258.948	50.86
259.165	67.24
259.381	42.67
259.597	75.43
259.814	20.14
260.03	28.33
260.246	1.71
260.463	42.67
260.679	13.99
260.895	36.52
261.112	46.76
261.328	38.57
261.544	87.72
261.761	11.95
261.977	52.91
262.193	34.47
262.409	34.47
262.626	-55.64
262.842	28.33
263.058	-6.49
263.274	32.43
263.49	77.48
263.707	147.11
263.923	16.04
264.139	-22.87
264.355	54.95
264.571	67.24
264.787	79.53
265.004	-18.77
265.22	63.15
265.436	67.24
265.652	108.2
265.868	32.43
266.084	100.01
266.3	-2.39
266.516	69.29
266.732	59.05
266.948	67.24
267.164	71.34
267.38	40.62
267.596	30.38
267.812	69.29
268.028	77.48
268.244	38.57
268.46	100.01
268.676	-10.58
268.892	28.33
269.108	-20.82
269.324	75.43
269.54	38.57
269.756	-35.16
269.972	-20.82
270.188	65.19
270.403	54.95
270.619	67.24
270.835	59.05
271.051	40.62
271.267	40.62
271.483	5.8
271.698	83.63
271.914	-14.68
272.13	52.91
272.346	-4.44
272.562	46.76
272.777	13.99
272.993	67.24
273.209	28.33
273.425	95.91
273.64	77.48
273.856	38.57
274.072	22.19
274.287	38.57
274.503	5.8
274.719	106.15
274.934	79.53
275.15	42.67
275.366	61.1
275.581	79.53
275.797	52.91
276.012	91.82
276.228	-24.92
276.444	73.39
276.659	59.05
276.875	44.71
277.09	-2.39
277.306	138.92
277.521	42.67
277.737	30.38
277.952	20.14
278.168	59.05
278.383	34.47
278.599	-0.34
278.814	7.85
279.03	59.05
279.245	134.82
279.461	30.38
279.676	38.57
279.892	48.81
280.107	-18.77
280.322	61.1
280.538	-16.73
280.753	32.43
280.969	54.95
281.184	11.95
281.399	11.95
281.615	34.47
281.83	20.14
282.045	-88.4
282.26	40.62
282.476	93.87
282.691	-35.16
282.906	-0.34
283.122	1.71
283.337	13.99
283.552	48.81
283.767	9.9
283.983	71.34
284.198	89.77
284.413	63.15
284.628	1.71
284.843	38.57
285.058	9.9
285.274	63.15
285.489	83.63
285.704	-18.77
285.919	54.95
286.134	26.28
286.349	20.14
286.564	40.62
286.779	20.14
286.995	50.86
287.21	63.15
287.425	83.63
287.64	30.38
287.855	42.67
288.07	40.62
288.285	36.52
288.5	71.34
288.715	34.47
288.93	16.04
289.145	-6.49
289.36	102.06
289.575	22.19
289.79	106.15
290.004	18.09
290.219	44.71
290.434	97.96
290.649	30.38
290.864	83.63
291.079	36.52
291.294	100.01
291.509	57
291.724	54.95
291.938	-47.44
292.153	-6.49
292.368	57
292.583	75.43
292.798	69.29
293.012	59.05
293.227	46.76
293.442	65.19
293.657	91.82
293.871	118.44
294.086	30.38
294.301	59.05
294.516	85.67
294.73	69.29
294.945	50.86
295.16	104.11
295.374	-0.34
295.589	73.39
295.804	69.29
296.018	36.52
296.233	69.29
296.447	40.62
296.662	89.77
296.877	44.71
297.091	57
297.306	61.1
297.52	-6.49
297.735	87.72
297.949	48.81
298.164	54.95
298.378	-2.39
298.593	75.43
298.807	5.8
299.022	-6.49
299.236	69.29
299.451	40.62
299.665	-10.58
299.88	108.2
300.094	44.71
300.309	-47.44
300.523	44.71
300.737	50.86
300.952	48.81
301.166	22.19
301.381	7.85
301.595	-31.06
301.809	34.47
302.024	77.48
302.238	46.76
302.452	91.82
302.667	36.52
302.881	38.57
303.095	63.15
303.309	54.95
303.524	36.52
303.738	42.67
303.952	-0.34
304.166	54.95
304.381	24.23
304.595	46.76
304.809	13.99
305.023	13.99
305.237	71.34
305.452	-20.82
305.666	42.67
305.88	50.86
306.094	48.81
306.308	36.52
306.522	54.95
306.736	22.19
306.95	57
307.164	71.34
307.379	52.91
307.593	44.71
307.807	9.9
308.021	132.78
308.235	69.29
308.449	-14.68
308.663	48.81
308.877	42.67
309.091	79.53
309.305	63.15
309.519	9.9
309.733	67.24
309.947	59.05
310.161	102.06
310.374	36.52
310.588	145.06
310.802	59.05
311.016	5.8
311.23	73.39
311.444	57
311.658	26.28
311.872	40.62
312.085	20.14
312.299	20.14
312.513	42.67
312.727	77.48
312.941	28.33
313.154	85.67
313.368	22.19
313.582	36.52
313.796	110.25
314.009	85.67
314.223	87.72
314.437	5.8
314.651	30.38
314.864	44.71
315.078	63.15
315.292	32.43
315.505	24.23
315.719	54.95
315.933	-55.64
316.146	59.05
316.36	75.43
316.573	104.11
316.787	18.09
317.001	42.67
317.214	-6.49
317.428	28.33
317.641	28.33
317.855	46.76
318.068	54.95
318.282	79.53
318.495	9.9
318.709	83.63
318.922	42.67
319.136	11.95
319.349	106.15
319.563	20.14
319.776	91.82
319.99	20.14
320.203	63.15
320.417	-16.73
320.63	34.47
320.843	104.11
321.057	28.33
321.27	83.63
321.483	1.71
321.697	16.04
321.91	34.47
322.124	126.63
322.337	63.15
322.55	36.52
322.763	3.75
322.977	71.34
323.19	75.43
323.403	50.86
323.617	52.91
323.83	22.19
324.043	63.15
324.256	48.81
324.469	102.06
324.683	69.29
324.896	42.67
325.109	-16.73
325.322	20.14
325.535	108.2
325.748	48.81
325.962	11.95
326.175	-10.58
326.388	40.62
326.601	83.63
326.814	44.71
327.027	26.28
327.24	-4.44
327.453	-29.01
327.666	85.67
327.879	91.82
328.092	93.87
328.305	-16.73
328.518	11.95
328.731	102.06
328.944	42.67
329.157	24.23
329.37	112.3
329.583	57
329.796	104.11
330.009	102.06
330.222	54.95
330.435	52.91
330.648	83.63
330.861	100.01
331.073	59.05
331.286	42.67
331.499	28.33
331.712	-18.77
331.925	57
332.138	16.04
332.35	93.87
332.563	42.67
332.776	48.81
332.989	48.81
333.202	1.71
333.414	59.05
333.627	52.91
333.84	16.04
334.053	118.44
334.265	44.71
334.478	44.71
334.691	106.15
334.903	24.23
335.116	69.29
335.329	28.33
335.541	3.75
335.754	95.91
335.966	71.34
336.179	-2.39
336.392	97.96
336.604	-12.63
336.817	89.77
337.029	-29.01
337.242	71.34
337.454	36.52
337.667	50.86
337.88	32.43
338.092	69.29
338.305	50.86
338.517	1.71
338.729	50.86
338.942	112.3
339.154	22.19
339.367	69.29
339.579	50.86
339.792	28.33
340.004	22.19
340.217	36.52
340.429	34.47
340.641	22.19
340.854	34.47
341.066	54.95
341.278	32.43
341.491	81.58
341.703	18.09
341.915	50.86
342.128	81.58
342.34	71.34
342.552	38.57
342.764	38.57
342.977	50.86
343.189	65.19
343.401	42.67
343.613	40.62
343.826	69.29
344.038	38.57
344.25	97.96
344.462	71.34
344.674	93.87
344.886	79.53
345.099	5.8
345.311	42.67
345.523	36.52
345.735	75.43
345.947	28.33
346.159	69.29
346.371	42.67
346.583	65.19
346.795	79.53
347.007	9.9
347.219	22.19
347.431	48.81
347.643	52.91
347.855	13.99
348.067	95.91
348.279	7.85
348.491	79.53
348.703	46.76
348.915	63.15
349.127	63.15
349.339	75.43
349.551	63.15
349.763	75.43
349.975	100.01
350.187	-4.44
350.399	54.95
350.61	5.8
350.822	65.19
351.034	52.91
351.246	93.87
351.458	85.67
351.669	120.49
351.881	5.8
352.093	36.52
352.305	48.81
352.517	50.86
352.728	134.82
352.94	1.71
353.152	59.05
353.363	-12.63
353.575	95.91
353.787	110.25
353.999	-6.49
354.21	97.96
354.422	132.78
354.633	-12.63
354.845	18.09
355.057	44.71
355.268	-47.44
355.48	67.24
355.692	-35.16
355.903	71.34
356.115	112.3
356.326	26.28
356.538	85.67
356.749	5.8
356.961	85.67
357.172	22.19
357.384	59.05
357.595	61.1
357.807	118.44
358.018	-61.78
358.23	50.86
358.441	116.39
358.653	128.68
358.864	104.11
359.075	38.57
359.287	42.67
359.498	83.63
359.709	61.1
359.921	108.2
360.132	91.82
360.344	108.2
360.555	36.52
360.766	42.67
360.977	71.34
361.189	75.43
361.4	3.75
361.611	77.48
361.823	26.28
362.034	100.01
362.245	77.48
362.456	77.48
362.667	26.28
362.879	24.23
363.09	-2.39
363.301	65.19
363.512	36.52
363.723	57
363.935	11.95
364.146	59.05
364.357	54.95
364.568	71.34
364.779	77.48
364.99	134.82
365.201	42.67
365.412	44.71
365.623	63.15
365.834	71.34
366.045	34.47
366.256	44.71
366.467	57
366.678	93.87
366.889	9.9
367.1	-4.44
367.311	40.62
367.522	52.91
367.733	13.99
367.944	75.43
368.155	79.53
368.366	59.05
368.577	91.82
368.788	126.63
368.999	54.95
369.209	40.62
369.42	143.02
369.631	104.11
369.842	69.29
370.053	52.91
370.264	-14.68
370.474	36.52
370.685	-26.96
370.896	34.47
371.107	48.81
371.317	108.2
371.528	46.76
371.739	77.48
371.95	77.48
372.16	110.25
372.371	46.76
372.582	63.15
372.792	104.11
373.003	16.04
373.214	110.25
373.424	30.38
373.635	67.24
373.846	126.63
374.056	18.09
374.267	106.15
374.477	79.53
374.688	83.63
374.898	81.58
375.109	67.24
375.319	63.15
375.53	91.82
375.74	46.76
375.951	122.54
376.161	61.1
376.372	71.34
376.582	34.47
376.793	143.02
377.003	50.86
377.214	-20.82
377.424	16.04
377.635	59.05
377.845	40.62
378.055	28.33
378.266	5.8
378.476	116.39
378.686	100.01
378.897	114.34
379.107	83.63
379.317	116.39
379.528	-2.39
379.738	132.78
379.948	73.39
380.158	61.1
380.369	91.82
380.579	81.58
380.789	59.05
380.999	5.8
381.21	63.15
381.42	81.58
381.63	110.25
381.84	38.57
382.05	34.47
382.261	81.58
382.471	24.23
382.681	-10.58
382.891	32.43
383.101	118.44
383.311	40.62
383.521	89.77
383.731	38.57
383.941	28.33
384.151	75.43
384.361	63.15
384.571	48.81
384.781	108.2
384.991	91.82
385.201	143.02
385.411	36.52
385.621	-10.58
385.831	71.34
386.041	32.43
386.251	5.8
386.461	114.34
386.671	42.67
386.881	91.82
387.091	95.91
387.301	175.78
387.511	11.95
387.72	54.95
387.93	124.58
388.14	63.15
388.35	97.96
388.56	122.54
388.769	71.34
388.979	52.91
389.189	38.57
389.399	106.15
389.609	112.3
389.818	124.58
390.028	50.86
390.238	30.38
390.447	145.06
390.657	50.86
390.867	48.81
391.076	97.96
391.286	130.73
391.496	126.63
391.705	63.15
391.915	145.06
392.125	69.29
392.334	83.63
392.544	9.9
392.753	83.63
392.963	83.63
393.172	-2.39
393.382	52.91
393.591	120.49
393.801	67.24
394.01	155.3
394.22	77.48
394.429	190.12
394.639	87.72
394.848	112.3
395.058	65.19
395.267	126.63
395.477	71.34
395.686	169.64
395.895	163.5
396.105	104.11
396.314	114.34
396.524	52.91
396.733	54.95
396.942	116.39
397.152	126.63
397.361	194.22
397.57	100.01
397.78	112.3
397.989	102.06
398.198	163.5
398.407	112.3
398.617	145.06
398.826	61.1
399.035	124.58
399.244	192.17
399.453	124.58
399.663	167.59
399.872	179.88
400.081	93.87
400.29	126.63
400.499	116.39
400.708	79.53
400.917	20.14
401.127	93.87
401.336	147.11
401.545	132.78
401.754	190.12
401.963	91.82
402.172	175.78
402.381	85.67
402.59	124.58
402.799	202.41
403.008	126.63
403.217	155.3
403.426	89.77
403.635	149.16
403.844	171.69
404.053	87.72
404.262	169.64
404.471	194.22
404.68	212.65
404.888	235.18
405.097	173.74
405.306	224.94
405.515	210.6
405.724	194.22
405.933	157.35
406.142	233.13
406.35	198.31
406.559	177.83
406.768	208.55
406.977	167.59
407.185	159.4
407.394	239.27
407.603	198.31
407.812	286.37
408.02	235.18
408.229	216.74
408.438	210.6
408.646	298.66
408.855	257.7
409.064	386.72
409.272	249.51
409.481	356.01
409.69	339.62
409.898	286.37
410.107	298.66
410.315	327.33
410.524	364.2
410.733	370.34
410.941	388.77
411.15	394.92
411.358	394.92
411.567	386.72
411.775	439.97
411.984	376.48
412.192	482.98
412.401	515.75
412.609	493.22
412.818	620.19
413.026	528.03
413.234	550.56
413.443	618.15
413.651	591.52
413.86	599.71
414.068	646.82
414.276	573.09
414.485	642.72
414.693	693.92
414.901	657.06
415.11	788.13
415.318	722.59
415.526	814.75
415.734	722.59
415.943	896.67
416.151	824.99
416.359	796.32
416.567	949.92
416.776	962.2
416.984	1066.65
417.192	1105.56
417.4	1035.93
417.608	1050.27
417.817	1185.43
418.025	1136.28
418.233	1246.87
418.441	1377.94
418.649	1293.97
418.857	1314.45
419.065	1373.85
419.273	1365.65
419.481	1390.23
419.689	1564.31
419.897	1703.57
420.105	1554.07
420.313	1650.32
420.521	1703.57
420.729	1695.38
420.937	1693.33
421.145	1805.97
421.353	1922.7
421.561	2152.07
421.769	2037.39
421.977	2045.58
422.185	2205.32
422.393	2305.67
422.601	2397.83
422.809	2428.55
423.017	2389.64
423.224	2408.07
423.432	2678.4
423.64	2567.81
423.848	2881.15
424.056	2762.37
424.263	3055.23
424.471	3036.8
424.679	3061.37
424.887	3182.2
425.094	3223.16
425.302	3370.62
425.51	3501.69
425.718	3554.93
425.925	3628.66
426.133	3679.86
426.341	3952.24
426.548	4161.13
426.756	4152.94
426.964	4163.18
427.171	4345.45
427.379	4507.24
427.586	4597.35
427.794	4836.96
428.001	4986.46
428.209	5215.84
428.417	5133.92
428.624	5412.44
428.832	5320.28
429.039	5473.88
429.247	5563.99
429.454	6057.55
429.662	6229.58
429.869	6000.21
430.076	6311.5
430.284	6268.49
430.491	6534.73
430.699	6815.3
430.906	6688.32
431.114	7095.87
431.321	7202.36
431.528	7290.43
431.736	7931.44
431.943	8322.6
432.15	7906.87
432.358	7996.98
432.565	8345.13
432.772	8336.94
432.979	8912.42
433.187	8939.04
433.394	8949.28
433.601	9530.91
433.808	9547.29
434.016	9707.03
434.223	9881.11
434.43	10413.58
434.637	10511.88
434.844	11208.19
435.052	11109.89
435.259	11109.89
435.466	11357.69
435.673	11087.36
435.88	12039.67
436.087	12355.05
436.294	12477.93
436.501	12332.53
436.708	12645.87
436.915	12840.42
437.122	13600.22
437.329	13311.46
437.537	13968.85
437.743	14005.72
437.95	14132.69
438.157	14790.09
438.364	15115.72
438.571	15007.17
438.778	15361.47
438.985	16754.09
439.192	16225.72
439.399	16543.15
439.606	16010.68
439.813	17163.68
440.02	18259.35
440.227	17943.96
440.433	17862.04
440.64	18386.32
440.847	18165.14
441.054	18544.02
441.261	19864.96
441.467	19510.66
441.674	20020.6
441.881	20942.19
442.088	20419.96
442.294	20497.78
442.501	21189.99
442.708	21370.21
442.914	22486.36
443.121	23453
443.328	22758.74
443.534	24362.29
443.741	23682.37
443.948	23262.54
444.154	24980.78
444.361	24655.15
444.568	25118
444.774	25154.86
444.981	25560.36
445.187	26375.45
445.394	27583.75
445.6	26678.55
445.807	29678.82
446.013	28144.89
446.22	28339.45
446.426	29877.47
446.633	29996.26
446.839	31110.35
447.046	29873.38
447.252	31700.17
447.459	31407.31
447.665	31362.25
447.871	33017.01
448.078	34270.37
448.284	32470.2
448.491	33660.07
448.697	35120.27
448.903	35445.9
449.11	35628.17
449.316	34974.87
449.522	35794.06
449.728	36676.73
449.935	37160.05
450.141	37358.7
450.347	37272.69
450.553	36291.71
450.76	37209.2
450.966	38550.62
451.172	37518.45
451.378	38544.48
451.584	37917.8
451.791	38902.87
451.997	38370.4
452.203	39842.89
452.409	39871.56
452.615	39427.15
452.821	38147.17
453.027	37358.7
453.233	39185.49
453.44	37911.66
453.646	38261.86
453.852	38526.05
454.058	38843.48
454.264	37819.5
454.47	38673.5
454.676	37850.22
454.882	38923.35
455.088	35640.46
455.294	36433.02
455.5	36861.05
455.705	37108.85
455.911	35765.38
456.117	34692.25
456.323	34722.97
456.529	33049.78
456.735	34022.56
456.941	33291.44
457.147	32767.16
457.352	31935.68
457.558	31360.2
457.764	31407.31
457.97	30938.32
458.176	30321.88
458.381	30235.87
458.587	28790
458.793	28837.11
458.999	27192.59
459.204	29168.88
459.41	28431.61
459.616	26455.32
459.821	26762.51
460.027	26537.24
460.233	25865.5
460.438	24909.1
460.644	25191.72
460.85	24022.33
461.055	23317.83
461.261	23133.51
461.466	21669.22
461.672	21017.96
461.878	22834.51
462.083	20995.43
462.289	20774.25
462.494	20682.1
462.7	19606.91
462.905	18875.79
463.111	19527.04
463.316	19668.35
463.522	19103.11
463.727	19500.42
463.932	19258.76
464.138	19158.41
464.343	19252.61
464.549	18599.31
464.754	19135.88
464.959	19213.7
465.165	18818.44
465.37	18312.6
465.575	17634.72
465.781	18451.86
465.986	18572.69
466.191	17884.57
466.397	17563.04
466.602	16539.05
466.807	17225.12
467.012	17393.06
467.218	17229.22
467.423	16876.97
467.628	17223.08
467.833	17903
468.038	16872.87
468.244	16620.97
468.449	17399.2
468.654	16741.8
468.859	16641.45
469.064	16416.18
469.269	15672.76
469.474	16029.11
469.679	16235.95
469.885	15711.67
470.09	15990.2
470.295	15947.19
470.5	15625.66
470.705	15691.2
470.91	15502.78
471.115	15275.46
471.32	15396.29
471.525	15406.53
471.73	14724.55
471.935	14915.02
472.139	14468.56
472.344	14525.9
472.549	14568.91
472.754	14237.14
472.959	14151.12
473.164	13530.59
473.369	13612.51
473.574	14020.05
473.778	13708.76
473.983	13661.66
474.188	13589.98
474.393	13137.38
474.598	13381.09
474.802	13034.98
475.007	13084.13
475.212	13063.65
475.417	12416.49
475.621	12604.91
475.826	12385.77
476.031	12316.14
476.235	12054
476.44	12264.94
476.645	11980.28
476.849	12111.35
477.054	11703.8
477.259	11722.23
477.463	11660.79
477.668	11599.35
477.872	11861.49
478.077	11173.38
478.282	11146.75
478.486	11095.55
478.691	10911.24
478.895	10919.43
479.1	10939.91
479.304	10708.49
479.509	10530.31
479.713	10759.69
479.918	10597.9
480.122	10307.09
480.326	10722.82
480.531	10567.18
480.735	10202.64
480.94	10266.13
481.144	10642.95
481.348	10200.59
481.553	10069.52
481.757	9905.68
481.961	10061.33
482.166	10343.95
482.37	10032.66
482.574	10184.21
482.778	10104.34
482.983	10198.54
483.187	10169.87
483.391	10126.86
483.595	9844.24
483.8	9911.83
484.004	9926.16
484.208	10192.4
484.412	10075.66
484.616	10040.85
484.821	10319.37
485.025	9879.06
485.229	10006.03
485.433	10157.58
485.637	10055.19
485.841	9932.31
486.045	10040.85
486.249	10108.43
486.453	10006.03
486.657	9938.45
486.861	10237.45
487.065	9913.88
487.269	10044.95
487.473	9877.01
487.677	10077.71
487.881	10182.16
488.085	10137.1
488.289	10055.19
488.493	10003.99
488.697	10198.54
488.901	10130.96
489.105	10163.73
489.309	10290.7
489.512	10065.43
489.716	10282.51
489.92	10186.26
490.124	10169.87
490.328	10513.93
490.531	10327.57
490.735	10491.4
490.939	10446.35
491.143	10319.37
491.346	10202.64
491.55	10640.9
491.754	10454.54
491.958	10534.41
492.161	10499.59
492.365	10710.54
492.569	10612.23
492.772	10610.18
492.976	10651.14
493.18	10761.73
493.383	10884.61
493.587	10974.72
493.79	10972.68
493.994	10806.79
494.197	10991.11
494.401	11113.99
494.605	11369.98
494.808	11585.02
495.012	11228.67
495.215	11664.89
495.419	11562.49
495.622	11505.15
495.825	11537.91
496.029	11767.29
496.232	12008.95
496.436	12037.62
496.639	12344.81
496.843	12307.95
497.046	12258.8
497.249	12563.95
497.453	12391.92
497.656	12795.37
497.859	12707.3
498.063	12858.85
498.266	13338.08
498.469	13102.56
498.673	13237.73
498.876	13401.57
499.079	13639.13
499.282	13606.36
499.485	13829.59
499.689	13929.94
499.892	14063.06
500.095	14085.59
500.298	14790.09
500.501	14288.34
500.705	14781.9
500.908	15105.48
501.111	15105.48
501.314	15146.44
501.517	15345.09
501.72	15410.62
501.923	15445.44
502.126	16197.04
502.329	16074.17
502.532	16299.44
502.735	16266.67
502.938	16401.84
503.141	16874.92
503.344	16907.69
503.547	17042.85
503.75	17294.75
503.953	17515.94
504.156	17618.33
504.359	17989.02
504.562	17974.68
504.765	18218.39
504.968	18570.64
505.17	18789.77
505.373	18539.92
505.576	18978.19
505.779	19441.03
505.982	19604.86
506.185	19912.06
506.387	19867
506.59	20002.17
506.793	20227.45
506.996	20393.33
507.198	20979.05
507.401	20608.37
507.604	21171.56
507.807	21478.75
508.009	21654.88
508.212	21628.26
508.415	21986.65
508.617	22306.13
508.82	22437.2
509.022	22281.56
509.225	22852.94
509.428	23072.07
509.63	23274.82
509.833	23319.88
510.035	23901.5
510.238	23661.89
510.44	24046.91
510.643	24288.57
510.845	24614.2
511.048	24517.94
511.25	25181.48
511.453	25064.75
511.655	25945.37
511.858	25447.72
512.06	25691.43
512.262	26316.06
512.465	26338.58
512.667	26801.43
512.87	26881.3
513.072	27108.62
513.274	27548.93
513.477	27639.04
513.679	28269.82
513.881	28060.93
514.084	28595.45
514.286	28148.99
514.488	28611.83
514.69	29127.92
514.893	29123.82
515.095	29525.22
515.297	29670.63
515.499	29695.21
515.701	30004.45
515.904	30391.51
516.106	30780.63
516.308	30797.01
516.51	31616.2
516.712	31337.68
516.914	31841.48
517.116	32189.63
517.318	32220.35
517.52	32058.56
517.722	32857.27
517.925	32834.74
518.127	33647.79
518.329	33639.59
518.531	33176.75
518.733	34102.43
518.935	34587.8
519.136	34120.87
519.338	34739.35
519.54	34716.82
519.742	35359.89
519.944	35359.89
520.146	36107.4
520.348	35804.3
520.55	36111.49
520.752	35749
520.954	36805.75
521.155	36742.27
521.357	37395.57
521.559	37524.59
521.761	37983.34
521.963	37807.21
522.164	38286.43
522.366	37944.42
522.568	38767.71
522.77	39019.61
522.971	39013.46
523.173	39308.37
523.375	39537.74
523.576	39273.56
523.778	39484.5
523.98	39986.25
524.181	40166.47
524.383	39949.39
524.584	40430.66
524.786	40465.47
524.988	40496.19
525.189	40870.97
525.391	41106.49
525.592	41081.91
525.794	41270.32
525.995	41837.61
526.197	41286.71
526.398	41567.28
526.6	42003.5
526.801	41831.47
527.003	42228.77
527.204	42288.17
527.406	42783.77
527.607	42355.75
527.808	43013.15
528.01	42386.47
528.211	42867.74
528.412	43439.12
528.614	42769.44
528.815	43346.97
529.016	43813.9
529.218	42937.37
529.419	43494.42
529.62	43551.76
529.822	43668.5
530.023	43471.89
530.224	43650.06
530.425	43627.54
530.626	43566.1
530.828	43285.53
531.029	44205.06
531.23	43785.23
531.431	43725.84
531.632	43910.16
531.833	44227.59
532.035	43854.86
532.236	44092.43
532.437	44387.33
532.638	44203.02
532.839	44243.98
533.04	44803.07
533.241	43934.73
533.442	44948.48
533.643	44545.03
533.844	44033.03
534.045	44674.05
534.246	43971.6
534.447	44661.76
534.648	44289.03
534.849	44231.69
535.05	44170.25
535.251	44209.16
535.451	44753.92
535.652	44835.84
535.853	44268.55
536.054	44229.64
536.255	44481.54
536.456	44370.95
536.657	45292.54
536.857	44309.51
537.058	44223.5
537.259	44542.98
537.46	44567.55
537.66	44329.99
537.861	44461.06
538.062	44526.6
538.263	44461.06
538.463	43975.69
538.664	44532.74
538.865	44473.35
539.065	44770.3
539.266	44436.48
539.466	44532.74
539.667	44289.03
539.868	44473.35
540.068	44358.66
540.269	44407.81
540.469	44719.1
540.67	44033.03
540.87	44373
541.071	44514.31
541.271	44403.72
541.472	44272.65
541.672	44051.47
541.873	44229.64
542.073	43705.36
542.274	44483.59
542.474	44280.84
542.675	44237.83
542.875	44319.75
543.075	44041.23
543.276	43531.28
543.476	44620.8
543.676	44104.71
543.877	44530.69
544.077	44078.09
544.277	43949.07
544.478	44014.6
544.678	44088.33
544.878	43791.37
545.078	44475.4
545.279	43774.99
545.479	44100.62
545.679	44336.13
545.879	44030.99
546.079	43965.45
546.28	44315.65
546.48	43645.97
546.68	43992.08
546.88	44059.66
547.08	44043.27
547.28	44043.27
547.48	43824.14
547.68	43932.68
547.88	43715.6
548.081	44229.64
548.281	43578.39
548.481	43179.03
548.681	43631.63
548.881	44033.03
549.081	43367.44
549.28	43781.13
549.48	44172.3
549.68	43531.28
549.88	44585.99
550.08	43555.86
550.28	43832.33
550.48	43799.57
550.68	43654.16
550.88	43373.59
551.08	43867.15
551.279	43795.47
551.479	43174.94
551.679	43619.35
551.879	43410.45
552.079	43545.62
552.278	43267.09
552.478	43615.25
552.678	43539.47
552.878	43592.72
553.077	43355.16
553.277	43459.6
553.477	43682.83
553.676	43394.07
553.876	43510.8
554.076	43203.61
554.275	43072.54
554.475	42834.97
554.674	43715.6
554.874	43150.36
555.074	43105.3
555.273	43428.88
555.473	42869.79
555.672	42767.39
555.872	43097.11
556.071	43031.58
556.271	43271.19
556.47	42667.04
556.67	42433.57
556.869	42535.97
557.068	42824.73
557.268	42531.87
557.467	42458.15
557.667	42759.2
557.866	42640.42
558.065	42458.15
558.265	42187.81
558.464	42685.47
558.663	42624.03
558.863	42290.21
559.062	42628.13
559.261	42138.66
559.461	42421.28
559.66	42187.81
559.859	41821.23
560.058	41843.76
560.258	42243.11
560.457	41622.58
560.656	41966.63
560.855	41909.29
561.054	42007.59
561.253	41481.27
561.453	42177.58
561.652	41679.92
561.851	41890.86
562.05	41882.67
562.249	41608.24
562.448	41673.77
562.647	41813.04
562.846	41675.82
563.045	41751.6
563.244	40678.46
563.443	41659.44
563.642	40840.25
563.841	41299
564.04	40703.04
564.239	41475.12
564.438	40404.03
564.637	41188.41
564.836	40952.89
565.035	40586.3
565.234	40852.54
565.432	40375.36
565.631	40145.99
565.83	40680.51
566.029	40436.8
566.228	40121.41
566.427	40186.95
566.625	40227.91
566.824	39799.88
567.023	40500.29
567.222	39378
567.42	40557.63
567.619	39824.46
567.818	39947.34
568.016	39730.25
568.215	40197.19
568.414	39887.95
568.612	39883.85
568.811	39783.5
569.01	39638.09
569.208	39087.19
569.407	39275.6
569.605	39085.14
569.804	39629.9
570.002	38687.84
570.201	39144.53
570.4	39050.33
570.598	38700.12
570.797	38943.83
570.995	39259.22
571.193	38530.14
571.392	38902.87
571.59	38667.36
571.789	38599.77
571.987	38476.9
572.186	38206.56
572.384	38239.33
572.582	38042.73
572.781	38382.69
572.979	38044.77
573.177	37848.17
573.376	38347.87
573.574	37723.24
573.772	37973.1
573.971	37604.46
574.169	37588.08
574.367	37381.23
574.565	37424.24
574.763	37430.38
574.962	37178.48
575.16	36891.77
575.358	37526.64
575.556	36889.72
575.754	37368.94
575.952	36732.03
576.151	36985.97
576.349	36787.32
576.547	36934.78
576.745	36473.98
576.943	36447.36
577.141	36359.3
577.339	36693.11
577.537	36256.9
577.735	36162.69
577.933	36187.27
578.131	36199.55
578.329	35693.71
578.527	35921.03
578.725	35660.94
578.923	35800.2
579.121	35744.91
579.319	35714.19
579.516	35718.28
579.714	35781.77
579.912	35634.31
580.11	34905.24
580.308	35298.45
580.506	35294.35
580.704	34634.91
580.901	34972.82
581.099	34813.08
581.297	34659.48
581.495	34403.49
581.692	34598.04
581.89	34540.7
582.088	34708.63
582.285	34290.85
582.483	34450.59
582.681	34350.24
582.878	34167.97
583.076	34108.58
583.274	34088.1
583.471	33563.82
583.669	34127.01
583.866	33541.29
584.064	34047.14
584.262	33367.21
584.459	33805.48
584.657	33207.47
584.854	33627.31
585.052	32842.93
585.249	33199.28
585.447	33232.05
585.644	32933.04
585.841	32867.51
586.039	33164.46
586.236	32683.19
586.434	32701.62
586.631	32107.71
586.828	32492.73
587.026	32492.73
587.223	32621.75
587.42	32183.49
587.618	32462.01
587.815	31624.39
588.012	31878.34
588.21	31876.29
588.407	32318.65
588.604	31749.32
588.801	31472.84
588.999	31665.35
589.196	31290.57
589.393	31878.34
589.59	31403.21
589.787	31220.94
589.984	31022.29
590.182	30747.86
590.379	31419.6
590.576	30711
590.773	31018.19
590.97	30811.35
591.167	30502.11
591.364	30618.84
591.561	30512.35
591.758	30182.62
591.955	30289.12
592.152	30407.9
592.349	30356.7
592.546	30188.77
592.743	30225.63
592.94	29398.25
593.137	30037.22
593.334	30121.18
593.531	29361.39
593.727	29891.81
593.924	29785.32
594.121	29459.69
594.318	29623.53
594.515	29080.81
594.712	29244.65
594.908	28937.46
595.105	29197.55
595.302	28650.74
595.499	28966.13
595.696	28790
595.892	28529.91
596.089	28497.14
596.286	28849.39
596.482	28409.08
596.679	28128.51
596.876	28411.13
597.072	28011.78
597.269	27831.55
597.466	28009.73
597.662	28122.37
597.859	27995.39
598.055	28198.14
598.252	28003.58
598.448	27847.94
598.645	27467.02
598.841	26950.93
599.038	27499.78
599.234	27716.87
599.431	27419.91
599.627	27063.57
599.824	27217.16
600.02	26793.23
600.217	27139.34
600.413	27108.62
600.609	26893.58
600.806	26672.4
601.002	26580.25
601.198	26707.22
601.395	26301.72
601.591	26055.97
601.787	26410.26
601.984	26264.86
602.18	26694.93
602.376	26066.2
602.572	26080.54
602.769	26088.73
602.965	25756.96
603.161	25752.87
603.357	25492.77
603.553	25615.65
603.75	25986.33
603.946	25660.71
604.142	25400.62
604.338	25390.38
604.534	25494.82
604.73	25095.47
604.926	25216.3
605.122	25148.71
605.318	24939.82
605.514	25056.56
605.71	24868.14
605.906	25031.98
606.102	24669.49
606.298	24683.83
606.494	24849.71
606.69	24829.23
606.886	24677.68
607.082	24374.58
607.278	24667.44
607.474	24098.11
607.67	24474.93
607.866	23854.4
608.062	24399.16
608.257	23813.44
608.453	24096.06
608.649	23870.78
608.845	23778.62
609.041	23993.66
609.236	23860.54
609.432	23715.14
609.628	24014.14
609.824	23741.76
610.019	23528.77
610.215	23530.82
610.411	23967.04
610.606	23481.67
610.802	23467.33
610.998	23596.35
611.193	23477.57
611.389	23377.22
611.584	22924.62
611.78	23463.24
611.976	23086.41
612.171	23416.13
612.367	22957.39
612.562	23029.07
612.758	22682.96
612.953	22977.87
613.149	23092.55
613.344	22740.3
613.539	23043.4
613.735	22791.5
613.93	22945.1
614.126	22510.93
614.321	22859.09
614.517	22861.13
614.712	22666.58
614.907	22148.44
615.103	22691.15
615.298	22259.03
615.493	22748.5
615.688	22250.84
615.884	22685.01
616.079	22281.56
616.274	22422.87
616.47	22238.55
616.665	22297.94
616.86	22185.3
617.055	22003.03
617.25	22226.26
617.445	22211.93
617.641	21593.44
617.836	22195.54
618.031	21738.85
618.226	21648.74
618.421	21534.05
618.616	21935.45
618.811	21515.62
619.006	21796.19
619.201	21261.67
619.396	21286.25
619.591	21114.22
619.786	21099.88
619.981	20794.73
620.176	20907.37
620.371	20950.38
620.566	20733.29
620.761	20895.08
620.956	20870.51
621.151	20196.73
621.346	20452.72
621.541	20278.65
621.735	20303.22
621.93	19991.93
622.125	20118.9
622.32	19910.01
622.515	19879.29
622.709	19549.57
622.904	19918.2
623.099	19701.12
623.294	19690.88
623.488	19518.85
623.683	19350.92
623.878	18961.8
624.072	19334.53
624.267	19019.14
624.462	18767.24
624.656	18904.46
624.851	18683.28
625.046	18976.14
625.24	18599.31
625.435	18570.64
625.629	18206.1
625.824	18214.29
626.018	17919.39
626.213	17816.99
626.407	18097.56
626.602	17669.53
626.796	17790.36
626.991	17743.26
627.185	17571.23
627.38	17450.4
627.574	17431.97
627.768	17350.05
627.963	17268.13
628.157	16909.74
628.352	17237.41
628.546	16883.11
628.74	16856.49
628.935	16782.76
629.129	16797.1
629.323	16428.46
629.517	16580.01
629.712	16233.91
629.906	16344.5
630.1	16201.14
630.294	15934.9
630.489	15891.9
630.683	16088.5
630.877	15619.52
631.071	15789.5
631.265	15846.84
631.459	15562.17
631.653	15486.4
631.848	15273.41
632.042	15179.2
632.236	15289.79
632.43	15046.09
632.624	15259.07
632.818	15201.73
633.012	15029.7
633.206	14876.1
633.4	15001.03
633.594	14769.61
633.788	14800.33
633.982	14738.89
634.176	14650.83
634.369	14573
634.563	14560.72
634.757	14466.51
634.951	14409.17
635.145	14341.58
635.339	14265.81
635.533	14169.55
635.726	14237.14
635.92	13735.39
636.114	13931.99
636.308	13915.61
636.501	13870.55
636.695	13700.57
636.889	13407.71
637.083	13417.95
637.276	13428.19
637.47	13295.07
637.664	13198.82
637.857	13319.65
638.051	13116.9
638.244	12832.23
638.438	12989.92
638.632	12846.57
638.825	12996.07
639.019	12572.14
639.212	12492.27
639.406	12559.85
639.599	12727.78
639.793	12588.52
639.986	12389.87
640.18	12518.89
640.373	12365.29
640.567	12307.95
640.76	11976.18
640.954	12047.86
641.147	11970.04
641.34	11900.41
641.534	12039.67
641.727	11986.42
641.92	11970.04
642.114	11695.61
642.307	11671.03
642.5	11589.11
642.694	11306.49
642.887	11453.95
643.08	11447.8
643.273	11482.62
643.467	11212.29
643.66	11148.8
643.853	11089.41
644.046	10913.28
644.239	11195.9
644.432	10866.18
644.626	11017.73
644.819	10939.91
645.012	11083.27
645.205	10706.44
645.398	11001.35
645.591	10780.17
645.784	10634.76
645.977	10368.52
646.17	10620.42
646.363	10526.22
646.556	10229.26
646.749	10290.7
646.942	10270.22
647.135	10491.4
647.328	10214.93
647.521	10083.86
647.714	10147.34
647.907	10077.71
648.099	10044.95
648.292	10090
648.485	9811.48
648.678	9647.64
648.871	9719.32
649.064	9713.17
649.256	9614.87
649.449	9543.19
649.642	9553.43
649.835	9457.18
650.027	9535
650.22	9352.73
650.413	9426.46
650.605	9276.96
650.798	9166.37
650.991	9002.53
651.183	9188.89
651.376	9100.83
651.568	9147.94
651.761	9037.34
651.954	8947.23
652.146	8926.75
652.339	8857.12
652.531	8896.03
652.724	8914.47
652.916	8504.87
653.109	8541.74
653.301	8662.57
653.494	8660.52
653.686	8613.42
653.879	8547.88
654.071	8633.89
654.263	8365.61
654.456	8343.08
654.648	8361.52
654.84	8121.9
655.033	8060.46
655.225	8166.96
655.417	8218.16
655.61	8220.21
655.802	8259.12
655.994	7951.92
656.186	8039.98
656.379	8060.46
656.571	8173.1
656.763	7798.32
656.955	7810.61
657.148	7851.57
657.34	7814.71
657.532	7493.18
657.724	7433.79
657.916	7818.8
658.108	7407.16
658.3	7392.83
658.492	7530.04
658.684	7478.84
658.876	7331.39
659.068	7290.43
659.26	7335.48
659.452	7308.86
659.644	7255.61
659.836	7304.76
660.028	7249.47
660.22	7034.43
660.412	7102.01
660.604	6997.57
660.796	7046.72
660.988	6999.62
661.18	6792.77
661.372	6995.52
661.563	6782.53
661.755	6731.33
661.947	6813.25
662.139	6852.16
662.331	6696.52
662.522	6528.58
662.714	6782.53
662.906	6704.71
663.097	6630.98
663.289	6581.83
663.481	6458.95
663.673	6391.37
663.864	6262.35
664.056	6354.51
664.247	6344.27
664.439	6319.69
664.631	6284.87
664.822	6362.7
665.014	6248.01
665.205	6205
665.397	6215.24
665.588	6096.46
665.78	5840.47
665.971	5975.63
666.163	6024.78
666.354	6028.88
666.546	5918.29
666.737	5885.52
666.929	6039.12
667.12	5989.97
667.311	5832.27
667.503	5803.6
667.694	5830.23
667.885	5760.59
668.077	5742.16
668.268	5717.59
668.459	5697.11
668.651	5551.7
668.842	5563.99
669.033	5531.22
669.224	5609.05
669.416	5518.93
669.607	5312.09
669.798	5473.88
669.989	5672.53
670.18	5430.87
670.371	5326.43
670.563	5473.88
670.754	5299.8
670.945	5328.47
671.136	5351
671.327	5379.67
671.518	5383.77
671.709	5254.75
671.9	5281.37
672.091	5207.64
672.282	5183.07
672.473	5215.84
672.664	5080.67
672.855	5092.96
673.046	5217.88
673.237	5207.64
673.428	4988.51
673.619	5119.58
673.809	5097.05
674	4927.07
674.191	5006.94
674.382	4863.58
674.573	5023.33
674.764	4886.11
674.954	4949.6
675.145	4820.58
675.336	5015.13
675.527	4922.98
675.717	4953.7
675.908	4707.94
676.099	4734.56
676.289	4824.67
676.48	4591.2
676.671	4703.84
676.861	4726.37
677.052	4669.03
677.243	4623.97
677.433	4683.36
677.624	4757.09
677.814	4623.97
678.005	4576.87
678.195	4486.76
678.386	4576.87
678.576	4734.56
678.767	4570.72
678.957	4583.01
679.148	4685.41
679.338	4466.28
679.529	4494.95
679.719	4632.16
679.909	4515.43
680.1	4521.57
680.29	4486.76
680.481	4400.74
680.671	4417.13
680.861	4312.68
681.052	4435.56
681.242	4433.51
681.432	4335.21
681.622	4286.06
681.813	4267.63
682.003	4204.14
682.193	4408.94
682.383	4429.42
682.573	4302.44
682.764	4410.98
682.954	4337.26
683.144	4234.86
683.334	4367.98
683.524	4218.47
683.714	4007.53
683.904	4134.51
684.094	4404.84
684.284	4331.11
684.474	4271.72
684.664	4204.14
684.854	4216.43
685.044	4130.41
685.234	4058.73
685.424	4253.29
685.614	4150.89
685.804	4062.83
685.994	4111.98
686.184	4165.23
686.374	4142.7
686.564	4050.54
686.753	4073.07
686.943	3964.53
687.133	4077.16
687.323	3944.05
687.513	4173.42
687.702	3985.01
687.892	3954.29
688.082	3796.59
688.272	3903.09
688.461	3946.09
688.651	3907.18
688.841	3851.89
689.03	3765.87
689.22	3753.59
689.41	3921.52
689.599	3608.18
689.789	3772.02
689.979	3765.87
690.168	3554.93
690.358	3673.71
690.547	3606.13
690.737	3683.95
690.926	3643
691.116	3573.36
691.305	3587.7
691.495	3643
691.684	3528.31
691.874	3427.96
692.063	3485.3
692.252	3540.6
692.442	3470.97
692.631	3409.53
692.82	3563.12
693.01	3419.77
693.199	3479.16
693.388	3362.42
693.578	3358.33
693.767	3421.81
693.956	3251.83
694.146	3327.61
694.335	3303.03
694.524	3231.35
694.713	3346.04
694.902	3249.79
695.092	3208.83
695.281	3233.4
695.47	3333.75
695.659	3227.26
695.848	3065.47
696.037	3210.87
696.226	3081.85
696.415	3298.94
696.604	3122.81
696.793	3047.04
696.982	3096.19
697.171	3022.46
697.36	3051.13
697.549	3165.82
697.738	3034.75
697.927	3081.85
698.116	3159.67
698.305	2975.36
698.494	3073.66
698.683	3034.75
698.872	2975.36
699.061	2938.49
699.25	2958.97
699.438	2963.07
699.627	2987.65
699.816	2930.3
700.005	2965.12
700.193	2801.28
700.382	2961.02
700.571	2895.49
700.76	2844.29
700.948	2811.52
701.137	2764.42
701.326	2813.57
701.514	2813.57
701.703	2770.56
701.892	2834.05
702.08	2954.88
702.269	2852.48
702.457	2821.76
702.646	2768.51
702.834	2711.17
703.023	2774.66
703.212	2778.75
703.4	2924.16
703.589	2752.13
703.777	2807.42
703.965	2811.52
704.154	2670.21
704.342	2727.55
704.531	2758.27
704.719	2737.79
704.907	2688.64
705.096	2627.2
705.284	2668.16
705.472	2705.03
705.661	2733.7
705.849	2788.99
706.037	2643.59
706.226	2676.35
706.414	2696.83
706.602	2692.74
706.79	2711.17
706.979	2559.62
707.167	2713.22
707.355	2698.88
707.543	2619.01
707.731	2629.25
707.919	2686.59
708.107	2612.87
708.296	2543.24
708.484	2578.05
708.672	2600.58
708.86	2690.69
709.048	2528.9
709.236	2535.04
709.424	2635.39
709.612	2631.3
709.8	2522.76
709.988	2647.68
710.176	2678.4
710.364	2621.06
710.551	2594.44
710.739	2561.67
710.927	2446.98
711.115	2672.26
711.303	2602.63
711.491	2526.85
711.679	2559.62
711.866	2606.72
712.054	2670.21
712.242	2590.34
712.43	2625.15
712.617	2518.66
712.805	2510.47
712.993	2524.8
713.181	2528.9
713.368	2641.54
713.556	2606.72
713.744	2623.11
713.931	2690.69
714.119	2559.62
714.306	2518.66
714.494	2610.82
714.682	2518.66
714.869	2600.58
715.057	2567.81
715.244	2559.62
715.432	2602.63
715.619	2580.1
715.807	2494.08
715.994	2692.74
716.182	2715.27
716.369	2586.24
716.556	2590.34
716.744	2539.14
716.931	2537.09
717.119	2580.1
717.306	2508.42
717.493	2528.9
717.681	2545.28
717.868	2551.43
718.055	2537.09
718.242	2645.63
718.43	2547.33
718.617	2598.53
718.804	2399.88
718.991	2553.48
719.179	2533
719.366	2403.97
719.553	2522.76
719.74	2559.62
719.927	2516.61
720.114	2580.1
720.301	2412.17
720.488	2557.57
720.676	2592.39
720.863	2508.42
721.05	2592.39
721.237	2432.65
721.424	2444.93
721.611	2537.09
721.798	2430.6
721.985	2457.22
722.172	2438.79
722.358	2524.8
722.545	2537.09
722.732	2494.08
722.919	2553.48
723.106	2465.41
723.293	2473.6
723.48	2576
723.667	2567.81
723.853	2516.61
724.04	2588.29
724.227	2514.56
724.414	2487.94
724.6	2418.31
724.787	2520.71
724.974	2530.95
725.161	2571.91
725.347	2356.87
725.534	2582.15
725.72	2479.75
725.907	2580.1
726.094	2631.3
726.28	2434.69
726.467	2533
726.653	2516.61
726.84	2528.9
727.027	2479.75
727.213	2432.65
727.4	2537.09
727.586	2528.9
727.773	2453.13
727.959	2479.75
728.145	2465.41
728.332	2606.72
728.518	2576
728.705	2494.08
728.891	2635.39
729.077	2387.59
729.264	2533
729.45	2387.59
729.636	2592.39
729.823	2403.97
730.009	2530.95
730.195	2514.56
730.382	2530.95
730.568	2528.9
730.754	2496.13
730.94	2406.02
731.126	2555.52
731.313	2434.69
731.499	2467.46
731.685	2465.41
731.871	2594.44
732.057	2533
732.243	2676.35
732.429	2565.76
732.615	2496.13
732.801	2444.93
732.987	2526.85
733.173	2496.13
733.359	2455.17
733.545	2463.37
733.731	2401.93
733.917	2553.48
734.103	2481.8
734.289	2557.57
734.475	2455.17
734.661	2475.65
734.847	2543.24
735.033	2483.84
735.219	2485.89
735.404	2387.59
735.59	2408.07
735.776	2403.97
735.962	2477.7
736.148	2440.84
736.333	2397.83
736.519	2346.63
736.705	2377.35
736.89	2387.59
737.076	2485.89
737.262	2287.24
737.447	2334.34
737.633	2272.9
737.819	2455.17
738.004	2408.07
738.19	2317.96
738.375	2461.32
738.561	2467.46
738.747	2412.17
738.932	2369.16
739.118	2426.5
739.303	2254.47
739.489	2324.1
739.674	2250.38
739.859	2358.92
740.045	2414.21
740.23	2330.25
740.416	2258.57
740.601	2266.76
740.786	2315.91
740.972	2238.09
741.157	2307.72
741.342	2254.47
741.528	2315.91
741.713	2307.72
741.898	2240.14
742.084	2188.94
742.269	2264.71
742.454	2250.38
742.639	2258.57
742.824	2213.51
743.01	2270.86
743.195	2082.44
743.38	2172.55
743.565	2147.98
743.75	2168.46
743.935	2172.55
744.12	2178.7
744.305	2143.88
744.49	2131.59
744.675	2180.75
744.86	2244.23
745.045	2078.35
745.23	2100.87
745.415	2031.24
745.6	2166.41
745.785	2002.57
745.97	2082.44
746.155	2043.53
746.34	2107.02
746.525	2012.81
746.71	2152.07
746.895	2035.34
747.079	1973.9
747.264	1982.09
747.449	1971.85
747.634	1904.27
747.819	1963.66
748.003	1922.7
748.188	1932.94
748.373	1902.22
748.557	1980.04
748.742	1851.02
748.927	1873.55
749.111	1959.56
749.296	1799.82
749.481	1947.28
749.665	1754.77
749.85	1879.69
750.034	1724.05
750.219	1758.86
750.404	1873.55
750.588	1769.1
750.773	1730.19
750.957	1738.38
751.141	1674.9
751.326	1656.47
751.51	1676.95
751.695	1678.99
751.879	1592.98
752.064	1748.62
752.248	1627.79
752.432	1656.47
752.617	1660.56
752.801	1756.82
752.985	1648.27
753.17	1607.31
753.354	1609.36
753.538	1609.36
753.722	1560.21
753.907	1486.48
754.091	1570.45
754.275	1578.64
754.459	1461.91
754.643	1433.24
754.828	1506.96
755.012	1511.06
755.196	1509.01
755.38	1543.83
755.564	1429.14
755.748	1418.9
755.932	1429.14
756.116	1365.65
756.3	1427.09
756.484	1463.96
756.668	1488.53
756.852	1287.83
757.036	1369.75
757.22	1406.61
757.404	1488.53
757.588	1375.89
757.772	1308.31
757.956	1435.28
758.14	1330.84
758.323	1253.02
758.507	1308.31
758.691	1265.3
758.875	1365.65
759.059	1283.74
759.242	1367.7
759.426	1283.74
759.61	1240.73
759.794	1281.69
759.977	1291.93
760.161	1271.45
760.345	1244.82
760.528	1308.31
760.712	1259.16
760.895	1175.19
761.079	1193.62
761.263	1234.58
761.446	1291.93
761.63	1142.43
761.813	1185.43
761.997	1242.78
762.18	1167
762.364	1169.05
762.547	1201.82
762.731	1162.9
762.914	1117.85
763.098	1248.92
763.281	1177.24
763.464	1123.99
763.648	1062.55
763.831	1033.88
764.015	1128.09
764.198	1109.66
764.381	1140.38
764.564	1099.42
764.748	1167
764.931	1068.7
765.114	1130.14
765.297	1107.61
765.481	1121.95
765.664	1085.08
765.847	1080.99
766.03	980.64
766.213	1066.65
766.397	986.78
766.58	1023.64
766.763	1019.55
766.946	1019.55
767.129	1015.45
767.312	1052.31
767.495	984.73
767.678	1062.55
767.861	1060.51
768.044	999.07
768.227	919.2
768.41	939.68
768.593	1078.94
768.776	1083.03
768.959	978.59
769.142	1037.98
769.324	988.83
769.507	954.01
769.69	839.33
769.873	956.06
770.056	994.97
770.239	1060.51
770.421	931.48
770.604	937.63
770.787	1031.83
770.97	972.44
771.152	892.57
771.335	868
771.518	913.05
771.7	945.82
771.883	1005.21
772.066	906.91
772.248	970.4
772.431	923.29
772.613	855.71
772.796	820.89
772.978	847.52
773.161	925.34
773.343	853.66
773.526	824.99
773.708	876.19
773.891	853.66
774.073	906.91
774.256	847.52
774.438	726.69
774.621	853.66
774.803	757.41
774.985	751.26
775.168	747.17
775.35	738.98
775.532	818.85
775.715	726.69
775.897	724.64
776.079	759.46
776.261	759.46
776.444	781.98
776.626	747.17
776.808	765.6
776.99	769.69
777.173	775.84
777.355	798.37
777.537	759.46
777.719	700.06
777.901	757.41
778.083	681.63
778.265	736.93
778.447	763.55
778.629	620.19
778.811	730.78
778.993	704.16
779.175	652.96
779.357	669.34
779.539	593.57
779.721	538.27
779.903	632.48
780.085	655.01
780.267	669.34
780.449	646.82
780.631	693.92
780.812	669.34
780.994	659.1
781.176	577.19
781.358	657.06
781.54	595.62
781.721	650.91
781.903	636.58
782.085	648.86
782.267	513.7
782.448	556.71
782.63	517.79
782.812	517.79
782.993	603.81
783.175	599.71
783.357	513.7
783.538	593.57
783.72	587.43
783.901	495.27
784.083	636.58
784.264	523.94
784.446	542.37
784.627	497.32
784.809	560.8
784.99	566.95
785.172	493.22
785.353	487.08
785.535	540.32
785.716	421.54
785.897	437.92
786.079	521.89
786.26	550.56
786.441	448.16
786.623	458.4
786.804	493.22
786.985	474.79
787.167	476.84
787.348	489.12
787.529	456.36
787.71	487.08
787.891	419.49
788.073	401.06
788.254	474.79
788.435	478.88
788.616	405.16
788.797	509.6
788.978	513.7
789.159	439.97
789.34	435.88
789.522	439.97
789.703	419.49
789.884	390.82
790.065	401.06
790.246	470.69
790.427	495.27
790.607	487.08
790.788	437.92
790.969	360.1
791.15	456.36
791.331	366.25
791.512	333.48
791.693	382.63
791.874	378.53
792.054	423.59
792.235	345.77
792.416	392.87
792.597	351.91
792.778	415.4
792.958	372.39
793.139	396.96
793.32	333.48
793.5	313
793.681	380.58
793.862	403.11
794.042	347.81
794.223	349.86
794.404	341.67
794.584	300.71
794.765	413.35
794.945	319.14
795.126	323.24
795.306	382.63
795.487	353.96
795.667	317.09
795.848	390.82
796.028	358.05
796.209	300.71
796.389	349.86
796.57	292.52
796.75	372.39
796.93	325.29
797.111	245.41
797.291	310.95
797.471	300.71
797.652	300.71
797.832	333.48
798.012	323.24
798.192	368.29
798.373	253.61
798.553	335.53
798.733	323.24
798.913	276.13
799.093	286.37
799.274	249.51
799.454	317.09
799.634	237.22
799.814	196.26
799.994	333.48
800.174	298.66
800.354	335.53
800.534	261.8
800.714	302.76
800.894	335.53
801.074	288.42
801.254	198.31
801.434	239.27
801.614	294.57
801.794	290.47
801.974	560.8
802.154	251.56
802.334	300.71
802.514	200.36
802.693	239.27
802.873	179.88
803.053	331.43
803.233	216.74
803.413	216.74
803.592	280.23
803.772	196.26
803.952	216.74
804.131	186.02
804.311	218.79
804.491	265.89
804.67	243.37
804.85	243.37
805.03	302.76
805.209	282.28
805.389	233.13
805.568	224.94
805.748	233.13
805.928	249.51
806.107	241.32
806.287	245.41
806.466	276.13
806.646	257.7
806.825	235.18
807.004	231.08
807.184	210.6
807.363	216.74
807.543	192.17
807.722	173.74
807.901	272.04
808.081	222.89
808.26	181.93
808.439	267.94
808.619	247.46
808.798	261.8
808.977	155.3
809.156	210.6
809.336	206.5
809.515	216.74
809.694	153.26
809.873	198.31
810.052	161.45
810.231	116.39
810.411	130.73
810.59	134.82
810.769	224.94
810.948	194.22
811.127	177.83
811.306	235.18
811.485	167.59
811.664	269.99
811.843	194.22
812.022	196.26
812.201	229.03
812.38	161.45
812.559	208.55
812.737	175.78
812.916	247.46
813.095	116.39
813.274	202.41
813.453	145.06
813.632	163.5
813.811	188.07
813.989	220.84
814.168	108.2
814.347	239.27
814.526	177.83
814.704	169.64
814.883	151.21
815.062	120.49
815.24	165.54
815.419	218.79
815.598	257.7
815.776	167.59
815.955	147.11
816.133	212.65
816.312	192.17
816.49	165.54
816.669	116.39
816.847	145.06
817.026	140.97
817.204	183.98
817.383	165.54
817.561	59.05
817.74	120.49
817.918	212.65
818.097	190.12
818.275	183.98
818.453	149.16
818.632	188.07
818.81	151.21
818.988	97.96
819.167	167.59
819.345	167.59
819.523	175.78
819.701	175.78
819.879	157.35
820.058	120.49
820.236	140.97
820.414	91.82
820.592	102.06
820.77	210.6
820.948	165.54
821.127	97.96
821.305	118.44
821.483	100.01
821.661	54.95
821.839	108.2
822.017	91.82
822.195	108.2
822.373	95.91
822.551	128.68
822.729	167.59
822.907	124.58
823.085	167.59
823.262	102.06
823.44	179.88
823.618	151.21
823.796	151.21
823.974	136.87
824.152	116.39
824.329	102.06
824.507	132.78
824.685	136.87
824.863	122.54
825.04	177.83
825.218	186.02
825.396	147.11
825.574	124.58
825.751	188.07
825.929	177.83
826.107	120.49
826.284	118.44
826.462	163.5
826.639	100.01
826.817	186.02
826.994	91.82
827.172	130.73
827.349	183.98
827.527	145.06
827.704	89.77
827.882	161.45
828.059	140.97
828.237	165.54
828.414	194.22
828.591	134.82
828.769	48.81
828.946	134.82
829.124	161.45
829.301	59.05
829.478	85.67
829.655	67.24
829.833	28.33
830.01	124.58
830.187	83.63
830.364	114.34
830.542	110.25
830.719	183.98
830.896	108.2
831.073	120.49
831.25	38.57
831.427	138.92
831.604	32.43
831.782	91.82
831.959	100.01
832.136	77.48
832.313	87.72
832.49	52.91
832.667	138.92
832.844	136.87
833.021	97.96
833.198	165.54
833.374	73.39
833.551	143.02
833.728	104.11
833.905	110.25
834.082	77.48
834.259	161.45
834.436	26.28
834.612	140.97
834.789	151.21
834.966	93.87
835.143	112.3
835.319	34.47
835.496	54.95
835.673	50.86
835.85	183.98
836.026	112.3
836.203	138.92
836.38	100.01
836.556	48.81
836.733	85.67
836.909	106.15
837.086	91.82
837.262	104.11
837.439	202.41
837.616	100.01
837.792	67.24
837.968	93.87
838.145	54.95
838.321	112.3
838.498	52.91
838.674	100.01
838.851	95.91
839.027	38.57
839.203	85.67
839.38	138.92
839.556	59.05
839.732	75.43
839.909	61.1
840.085	61.1
840.261	20.14
840.437	155.3
840.614	63.15
840.79	122.54
840.966	104.11
841.142	87.72
841.318	3.75
841.494	69.29
841.671	106.15
841.847	155.3
842.023	30.38
842.199	69.29
842.375	22.19
842.551	44.71
842.727	57
842.903	81.58
843.079	106.15
843.255	79.53
843.431	75.43
843.607	87.72
843.783	52.91
843.959	159.4
844.134	87.72
844.31	89.77
844.486	59.05
844.662	44.71
844.838	153.26
845.013	122.54
845.189	104.11
845.365	71.34
845.541	5.8
845.716	67.24
845.892	69.29
846.068	124.58
846.244	71.34
846.419	44.71
846.595	69.29
846.77	22.19
846.946	36.52
847.122	106.15
847.297	38.57
847.473	63.15
847.648	24.23
847.824	128.68
847.999	34.47
848.175	59.05
848.35	75.43
848.526	116.39
848.701	73.39
848.876	52.91
849.052	71.34
849.227	59.05
849.403	54.95
849.578	50.86
849.753	38.57
849.929	89.77
850.104	116.39
850.279	-12.63
850.454	18.09
850.63	77.48
850.805	20.14
850.98	-20.82
851.155	28.33
851.33	69.29
851.505	9.9
851.681	114.34
851.856	63.15
852.031	34.47
852.206	79.53
852.381	38.57
852.556	32.43
852.731	143.02
852.906	34.47
853.081	136.87
853.256	93.87
853.431	128.68
853.606	5.8
853.781	13.99
853.956	-14.68
854.131	13.99
854.305	79.53
854.48	79.53
854.655	-8.53
854.83	61.1
855.005	30.38
855.18	54.95
855.354	3.75
855.529	91.82
855.704	-20.82
855.879	-16.73
856.053	102.06
856.228	32.43
856.403	36.52
856.577	20.14
856.752	61.1
856.926	83.63
857.101	54.95
857.276	73.39
857.45	87.72
857.625	-4.44
857.799	149.16
857.974	5.8
858.148	42.67
858.323	100.01
858.497	48.81
858.672	95.91
858.846	67.24
859.02	87.72
859.195	42.67
859.369	77.48
859.543	54.95
859.718	75.43
859.892	69.29
860.066	116.39
860.241	138.92
860.415	1.71
860.589	22.19
860.763	59.05
860.938	13.99
861.112	114.34
861.286	50.86
861.46	5.8
861.634	9.9
861.808	83.63
861.982	85.67
862.157	104.11
862.331	85.67
862.505	26.28
862.679	34.47
862.853	7.85
863.027	11.95
863.201	28.33
863.375	-18.77
863.549	7.85
863.722	54.95
863.896	75.43
864.07	40.62
864.244	-4.44
864.418	46.76
864.592	75.43
864.766	42.67
864.939	112.3
865.113	36.52
865.287	54.95
865.461	-41.3
865.634	30.38
865.808	52.91
865.982	11.95
866.156	7.85
866.329	75.43
866.503	-18.77
866.676	112.3
866.85	71.34
867.024	28.33
867.197	83.63
867.371	38.57
867.544	69.29
867.718	73.39
867.891	69.29
868.065	3.75
868.238	13.99
868.412	87.72
868.585	5.8
868.759	5.8
868.932	54.95
869.105	16.04
869.279	54.95
869.452	36.52
869.625	100.01
869.799	-2.39
869.972	9.9
870.145	9.9
870.319	67.24
870.492	-37.2
870.665	63.15
870.838	63.15
871.011	-6.49
871.185	73.39
871.358	52.91
871.531	13.99
871.704	36.52
871.877	30.38
872.05	87.72
872.223	20.14
872.396	93.87
872.569	65.19
872.742	11.95
872.915	124.58
873.088	50.86
873.261	57
873.434	38.57
873.607	-4.44
873.78	24.23
873.953	50.86
874.126	42.67
874.299	-10.58
874.471	-18.77
874.644	34.47
874.817	-12.63
874.99	104.11
875.163	34.47
875.335	42.67
875.508	-53.59
875.681	-0.34
875.853	26.28
876.026	7.85
876.199	65.19
876.371	3.75
876.544	32.43
876.717	5.8
876.889	11.95
877.062	9.9
877.234	-20.82
877.407	-0.34
877.579	69.29
877.752	42.67
877.924	-0.34
878.097	34.47
878.269	54.95
878.442	26.28
878.614	22.19
878.786	54.95
878.959	-8.53
879.131	9.9
879.303	5.8
879.476	7.85
879.648	11.95
879.82	85.67
879.993	-61.78
880.165	52.91
880.337	20.14
880.509	61.1
880.681	16.04
880.854	57
881.026	22.19
881.198	100.01
881.37	-39.25
881.542	63.15
881.714	9.9
881.886	22.19
882.058	-20.82
882.23	30.38
882.402	5.8
882.574	22.19
882.746	30.38
882.918	161.45
883.09	-33.11
883.262	1.71
883.434	22.19
883.606	57
883.778	28.33
883.95	38.57
884.122	97.96
884.293	36.52
884.465	50.86
884.637	42.67
884.809	83.63
884.98	48.81
885.152	59.05
885.324	5.8
885.496	40.62
885.667	120.49
885.839	-57.68
886.011	22.19
886.182	69.29
886.354	34.47
886.525	69.29
886.697	59.05
886.869	26.28
887.04	7.85
887.212	87.72
887.383	32.43
887.555	-2.39
887.726	-2.39
887.897	77.48
888.069	-12.63
888.24	18.09
888.412	48.81
888.583	7.85
888.754	-2.39
888.926	11.95
889.097	24.23
889.268	-45.4
889.44	36.52
889.611	9.9
889.782	77.48
889.953	-14.68
890.125	112.3
890.296	-41.3
890.467	28.33
890.638	-37.2
890.809	54.95
890.98	-29.01
891.151	18.09
891.323	46.76
891.494	63.15
891.665	52.91
891.836	22.19
892.007	24.23
892.178	-6.49
892.349	77.48
892.52	34.47
892.691	38.57
892.862	75.43
893.032	-51.54
893.203	42.67
893.374	95.91
893.545	65.19
893.716	-0.34
893.887	3.75
894.057	46.76
894.228	28.33
894.399	9.9
894.57	36.52
894.74	50.86
894.911	9.9
895.082	52.91
895.253	26.28
895.423	7.85
895.594	32.43
895.764	3.75
895.935	-2.39
896.106	-18.77
896.276	-39.25
896.447	-20.82
896.617	-24.92
896.788	13.99
896.958	93.87
897.129	16.04
897.299	-26.96
897.47	24.23
897.64	-12.63
897.81	16.04
897.981	13.99
898.151	-18.77
898.322	38.57
898.492	-29.01
898.662	67.24
898.832	36.52
899.003	5.8
899.173	28.33
899.343	11.95
899.513	54.95
