Data from USB4F104151__54__11-37-16-561.txt Node

Date: Fri Mar 14 11:37:16 EDT 2025
User: louis
Spectrometer: USB4F10415
Trigger mode: 4
Integration Time (sec): 2.000000E-2
Scans to average: 1
Electric dark correction enabled: true
Nonlinearity correction enabled: false
Boxcar width: 0
XAxis mode: Wavelengths
Number of Pixels in Spectrum: 3648
>>>>>Begin Spectral Data<<<<<
178.204	-129.88
178.424	-129.88
178.644	-129.88
178.864	-97.11
179.084	-23.38
179.304	-25.43
179.524	23.72
179.744	-37.72
179.964	19.63
180.184	23.72
180.404	17.58
180.624	-13.14
180.844	1.19
181.064	-11.09
181.283	5.29
181.503	-19.29
181.723	15.53
181.943	36.01
182.163	58.54
182.383	-31.57
182.602	81.07
182.822	44.2
183.042	-9.05
183.262	33.96
183.482	62.63
183.701	21.67
183.921	9.39
184.141	-21.33
184.361	29.87
184.58	48.3
184.8	19.63
185.02	42.15
185.239	1.19
185.459	-13.14
185.679	17.58
185.898	-19.29
186.118	21.67
186.338	25.77
186.557	50.35
186.777	5.29
186.997	-35.67
187.216	-60.24
187.436	17.58
187.655	33.96
187.875	97.45
188.095	-0.85
188.314	21.67
188.534	-2.9
188.753	-15.19
188.973	17.58
189.192	36.01
189.412	23.72
189.631	40.11
189.851	-15.19
190.07	-37.72
190.29	13.48
190.509	25.77
190.729	17.58
190.948	83.11
191.168	36.01
191.387	11.43
191.607	-7
191.826	1.19
192.045	9.39
192.265	89.26
192.484	13.48
192.704	13.48
192.923	-31.57
193.142	91.31
193.362	27.82
193.581	25.77
193.8	25.77
194.02	-4.95
194.239	40.11
194.458	87.21
194.678	-19.29
194.897	23.72
195.116	23.72
195.335	33.96
195.555	50.35
195.774	48.3
195.993	76.97
196.212	38.06
196.432	-68.44
196.651	11.43
196.87	5.29
197.089	68.78
197.308	25.77
197.528	-45.91
197.747	29.87
197.966	-17.24
198.185	91.31
198.404	27.82
198.623	25.77
198.842	27.82
199.062	19.63
199.281	79.02
199.5	-0.85
199.719	7.34
199.938	-52.05
200.157	115.88
200.376	42.15
200.595	15.53
200.814	70.83
201.033	-17.24
201.252	56.49
201.471	40.11
201.69	85.16
201.909	17.58
202.128	52.39
202.347	25.77
202.566	50.35
202.785	48.3
203.004	-17.24
203.223	66.73
203.442	-0.85
203.661	83.11
203.879	25.77
204.098	83.11
204.317	-0.85
204.536	36.01
204.755	-33.62
204.974	-7
205.193	23.72
205.411	81.07
205.63	29.87
205.849	36.01
206.068	7.34
206.287	1.19
206.505	1.19
206.724	-15.19
206.943	-29.52
207.162	81.07
207.381	7.34
207.599	-2.9
207.818	-23.38
208.037	-17.24
208.255	-33.62
208.474	36.01
208.693	-86.87
208.911	-11.09
209.13	1.19
209.349	31.91
209.567	-45.91
209.786	87.21
210.005	-27.48
210.223	-52.05
210.442	42.15
210.661	27.82
210.879	9.39
211.098	-21.33
211.316	-45.91
211.535	-7
211.753	83.11
211.972	40.11
212.191	33.96
212.409	40.11
212.628	-7
212.846	13.48
213.065	-7
213.283	115.88
213.502	60.59
213.72	1.19
213.938	3.24
214.157	13.48
214.375	9.39
214.594	36.01
214.812	83.11
215.031	40.11
215.249	66.73
215.467	3.24
215.686	-4.95
215.904	36.01
216.122	48.3
216.341	7.34
216.559	-0.85
216.778	-45.91
216.996	107.69
217.214	-7
217.432	-35.67
217.651	52.39
217.869	23.72
218.087	7.34
218.306	62.63
218.524	-11.09
218.742	33.96
218.96	19.63
219.179	9.39
219.397	17.58
219.615	70.83
219.833	25.77
220.051	-7
220.27	89.26
220.488	25.77
220.706	25.77
220.924	-31.57
221.142	19.63
221.36	40.11
221.578	9.39
221.796	31.91
222.015	29.87
222.233	50.35
222.451	83.11
222.669	-56.15
222.887	-54.1
223.105	17.58
223.323	23.72
223.541	58.54
223.759	38.06
223.977	70.83
224.195	74.92
224.413	48.3
224.631	72.87
224.849	58.54
225.067	89.26
225.285	74.92
225.503	29.87
225.721	-15.19
225.939	64.68
226.157	-15.19
226.375	46.25
226.592	-17.24
226.81	-17.24
227.028	-33.62
227.246	62.63
227.464	-11.09
227.682	70.83
227.9	56.49
228.117	-7
228.335	-25.43
228.553	48.3
228.771	21.67
228.989	38.06
229.206	-2.9
229.424	-23.38
229.642	46.25
229.86	-15.19
230.077	-13.14
230.295	56.49
230.513	56.49
230.731	-11.09
230.948	27.82
231.166	-9.05
231.384	-9.05
231.601	25.77
231.819	-7
232.037	17.58
232.254	21.67
232.472	21.67
232.689	58.54
232.907	3.24
233.125	-25.43
233.342	-17.24
233.56	40.11
233.777	17.58
233.995	19.63
234.213	31.91
234.43	70.83
234.648	-11.09
234.865	-13.14
235.083	70.83
235.3	-0.85
235.518	42.15
235.735	5.29
235.953	58.54
236.17	23.72
236.388	15.53
236.605	-4.95
236.822	66.73
237.04	25.77
237.257	58.54
237.475	36.01
237.692	74.92
237.909	13.48
238.127	-35.67
238.344	-17.24
238.562	36.01
238.779	-29.52
238.996	91.31
239.214	-50
239.431	115.88
239.648	56.49
239.865	46.25
240.083	79.02
240.3	9.39
240.517	-66.39
240.735	87.21
240.952	3.24
241.169	46.25
241.386	21.67
241.603	48.3
241.821	7.34
242.038	46.25
242.255	66.73
242.472	64.68
242.689	-11.09
242.907	15.53
243.124	23.72
243.341	-37.72
243.558	-37.72
243.775	40.11
243.992	-2.9
244.209	19.63
244.426	23.72
244.643	-25.43
244.86	-41.81
245.078	-7
245.295	40.11
245.512	29.87
245.729	-41.81
245.946	1.19
246.163	17.58
246.38	89.26
246.597	79.02
246.814	-9.05
247.031	11.43
247.248	-31.57
247.464	15.53
247.681	29.87
247.898	7.34
248.115	60.59
248.332	25.77
248.549	21.67
248.766	40.11
248.983	74.92
249.2	58.54
249.417	46.25
249.633	-19.29
249.85	19.63
250.067	5.29
250.284	5.29
250.501	11.43
250.717	46.25
250.934	-45.91
251.151	9.39
251.368	95.4
251.585	21.67
251.801	9.39
252.018	13.48
252.235	44.2
252.451	-11.09
252.668	15.53
252.885	13.48
253.102	54.44
253.318	52.39
253.535	48.3
253.752	23.72
253.968	122.02
254.185	5.29
254.401	31.91
254.618	48.3
254.835	15.53
255.051	1.19
255.268	25.77
255.484	15.53
255.701	31.91
255.917	17.58
256.134	44.2
256.351	-0.85
256.567	9.39
256.784	50.35
257	-17.24
257.217	68.78
257.433	50.35
257.65	29.87
257.866	85.16
258.082	38.06
258.299	62.63
258.515	105.64
258.732	-29.52
258.948	31.91
259.165	50.35
259.381	-11.09
259.597	-21.33
259.814	33.96
260.03	74.92
260.246	46.25
260.463	17.58
260.679	79.02
260.895	33.96
261.112	17.58
261.328	46.25
261.544	3.24
261.761	50.35
261.977	7.34
262.193	31.91
262.409	29.87
262.626	105.64
262.842	36.01
263.058	-66.39
263.274	50.35
263.49	29.87
263.707	54.44
263.923	58.54
264.139	-4.95
264.355	72.87
264.571	83.11
264.787	-35.67
265.004	27.82
265.22	-13.14
265.436	29.87
265.652	81.07
265.868	46.25
266.084	-2.9
266.3	64.68
266.516	1.19
266.732	38.06
266.948	46.25
267.164	103.59
267.38	21.67
267.596	36.01
267.812	76.97
268.028	74.92
268.244	15.53
268.46	9.39
268.676	-33.62
268.892	46.25
269.108	17.58
269.324	17.58
269.54	99.5
269.756	31.91
269.972	-17.24
270.188	-33.62
270.403	-15.19
270.619	13.48
270.835	11.43
271.051	-25.43
271.267	11.43
271.483	54.44
271.698	17.58
271.914	31.91
272.13	40.11
272.346	46.25
272.562	60.59
272.777	-11.09
272.993	21.67
273.209	-88.92
273.425	5.29
273.64	38.06
273.856	38.06
274.072	-7
274.287	15.53
274.503	60.59
274.719	44.2
274.934	36.01
275.15	-41.81
275.366	36.01
275.581	-11.09
275.797	46.25
276.012	25.77
276.228	27.82
276.444	64.68
276.659	136.36
276.875	29.87
277.09	38.06
277.306	60.59
277.521	3.24
277.737	11.43
277.952	25.77
278.168	-64.34
278.383	50.35
278.599	48.3
278.814	-39.76
279.03	-7
279.245	38.06
279.461	64.68
279.676	27.82
279.892	1.19
280.107	70.83
280.322	-7
280.538	85.16
280.753	-23.38
280.969	25.77
281.184	13.48
281.399	5.29
281.615	36.01
281.83	50.35
282.045	48.3
282.26	81.07
282.476	38.06
282.691	33.96
282.906	60.59
283.122	40.11
283.337	50.35
283.552	46.25
283.767	33.96
283.983	13.48
284.198	33.96
284.413	54.44
284.628	-23.38
284.843	-0.85
285.058	38.06
285.274	15.53
285.489	29.87
285.704	44.2
285.919	21.67
286.134	-21.33
286.349	42.15
286.564	23.72
286.779	68.78
286.995	40.11
287.21	-21.33
287.425	-11.09
287.64	54.44
287.855	11.43
288.07	91.31
288.285	132.26
288.5	31.91
288.715	56.49
288.93	85.16
289.145	21.67
289.36	93.35
289.575	64.68
289.79	93.35
290.004	-72.53
290.219	56.49
290.434	46.25
290.649	31.91
290.864	-21.33
291.079	15.53
291.294	50.35
291.509	-0.85
291.724	29.87
291.938	9.39
292.153	25.77
292.368	-19.29
292.583	50.35
292.798	-64.34
293.012	27.82
293.227	-9.05
293.442	95.4
293.657	11.43
293.871	62.63
294.086	103.59
294.301	27.82
294.516	54.44
294.73	54.44
294.945	54.44
295.16	66.73
295.374	50.35
295.589	89.26
295.804	58.54
296.018	15.53
296.233	44.2
296.447	11.43
296.662	9.39
296.877	85.16
297.091	-50
297.306	62.63
297.52	101.55
297.735	42.15
297.949	-19.29
298.164	7.34
298.378	-41.81
298.593	79.02
298.807	-37.72
299.022	62.63
299.236	13.48
299.451	44.2
299.665	-4.95
299.88	33.96
300.094	33.96
300.309	46.25
300.523	9.39
300.737	-29.52
300.952	83.11
301.166	91.31
301.381	9.39
301.595	-19.29
301.809	-29.52
302.024	29.87
302.238	-21.33
302.452	25.77
302.667	44.2
302.881	56.49
303.095	38.06
303.309	-74.58
303.524	-23.38
303.738	-45.91
303.952	-27.48
304.166	66.73
304.381	74.92
304.595	13.48
304.809	60.59
305.023	31.91
305.237	-9.05
305.452	-11.09
305.666	-27.48
305.88	-15.19
306.094	9.39
306.308	9.39
306.522	-2.9
306.736	13.48
306.95	58.54
307.164	-15.19
307.379	62.63
307.593	50.35
307.807	70.83
308.021	-15.19
308.235	62.63
308.449	44.2
308.663	-72.53
308.877	91.31
309.091	54.44
309.305	15.53
309.519	-21.33
309.733	-13.14
309.947	62.63
310.161	42.15
310.374	13.48
310.588	56.49
310.802	52.39
311.016	-21.33
311.23	-11.09
311.444	66.73
311.658	-11.09
311.872	111.78
312.085	101.55
312.299	44.2
312.513	81.07
312.727	40.11
312.941	33.96
313.154	95.4
313.368	64.68
313.582	21.67
313.796	36.01
314.009	60.59
314.223	154.79
314.437	46.25
314.651	1.19
314.864	-15.19
315.078	-23.38
315.292	11.43
315.505	17.58
315.719	42.15
315.933	7.34
316.146	38.06
316.36	40.11
316.573	72.87
316.787	46.25
317.001	91.31
317.214	-58.2
317.428	70.83
317.641	33.96
317.855	5.29
318.068	50.35
318.282	17.58
318.495	74.92
318.709	33.96
318.922	72.87
319.136	52.39
319.349	-29.52
319.563	46.25
319.776	68.78
319.99	-7
320.203	-23.38
320.417	7.34
320.63	17.58
320.843	103.59
321.057	74.92
321.27	62.63
321.483	46.25
321.697	-0.85
321.91	7.34
322.124	-11.09
322.337	-7
322.55	99.5
322.763	130.22
322.977	25.77
323.19	33.96
323.403	83.11
323.617	25.77
323.83	25.77
324.043	70.83
324.256	23.72
324.469	68.78
324.683	62.63
324.896	-37.72
325.109	72.87
325.322	7.34
325.535	62.63
325.748	60.59
325.962	48.3
326.175	15.53
326.388	68.78
326.601	50.35
326.814	81.07
327.027	15.53
327.24	-7
327.453	40.11
327.666	87.21
327.879	-47.96
328.092	33.96
328.305	66.73
328.518	-23.38
328.731	52.39
328.944	66.73
329.157	62.63
329.37	46.25
329.583	64.68
329.796	29.87
330.009	40.11
330.222	9.39
330.435	3.24
330.648	5.29
330.861	52.39
331.073	40.11
331.286	-31.57
331.499	107.69
331.712	11.43
331.925	23.72
332.138	25.77
332.35	29.87
332.563	-11.09
332.776	62.63
332.989	9.39
333.202	23.72
333.414	25.77
333.627	-35.67
333.84	25.77
334.053	7.34
334.265	64.68
334.478	-58.2
334.691	-9.05
334.903	81.07
335.116	-7
335.329	19.63
335.541	31.91
335.754	70.83
335.966	9.39
336.179	42.15
336.392	50.35
336.604	27.82
336.817	21.67
337.029	70.83
337.242	122.02
337.454	46.25
337.667	25.77
337.88	50.35
338.092	91.31
338.305	58.54
338.517	5.29
338.729	99.5
338.942	132.26
339.154	-7
339.367	-0.85
339.579	27.82
339.792	40.11
340.004	52.39
340.217	52.39
340.429	46.25
340.641	-39.76
340.854	-33.62
341.066	-9.05
341.278	5.29
341.491	40.11
341.703	50.35
341.915	87.21
342.128	-9.05
342.34	60.59
342.552	40.11
342.764	-2.9
342.977	27.82
343.189	56.49
343.401	-0.85
343.613	-64.34
343.826	-39.76
344.038	42.15
344.25	62.63
344.462	42.15
344.674	72.87
344.886	7.34
345.099	58.54
345.311	66.73
345.523	-39.76
345.735	23.72
345.947	-2.9
346.159	5.29
346.371	48.3
346.583	54.44
346.795	38.06
347.007	40.11
347.219	64.68
347.431	25.77
347.643	-9.05
347.855	25.77
348.067	76.97
348.279	48.3
348.491	27.82
348.703	105.64
348.915	21.67
349.127	70.83
349.339	15.53
349.551	50.35
349.763	60.59
349.975	31.91
350.187	-13.14
350.399	70.83
350.61	-31.57
350.822	33.96
351.034	15.53
351.246	76.97
351.458	33.96
351.669	70.83
351.881	23.72
352.093	66.73
352.305	7.34
352.517	25.77
352.728	-7
352.94	42.15
353.152	66.73
353.363	58.54
353.575	1.19
353.787	83.11
353.999	70.83
354.21	124.07
354.422	33.96
354.633	25.77
354.845	64.68
355.057	29.87
355.268	44.2
355.48	62.63
355.692	9.39
355.903	46.25
356.115	70.83
356.326	85.16
356.538	58.54
356.749	58.54
356.961	19.63
357.172	29.87
357.384	42.15
357.595	130.22
357.807	40.11
358.018	79.02
358.23	-13.14
358.441	99.5
358.653	79.02
358.864	50.35
359.075	50.35
359.287	58.54
359.498	56.49
359.709	17.58
359.921	68.78
360.132	64.68
360.344	119.98
360.555	-33.62
360.766	46.25
360.977	27.82
361.189	99.5
361.4	31.91
361.611	19.63
361.823	31.91
362.034	56.49
362.245	15.53
362.456	9.39
362.667	33.96
362.879	56.49
363.09	74.92
363.301	70.83
363.512	38.06
363.723	52.39
363.935	62.63
364.146	126.12
364.357	7.34
364.568	99.5
364.779	9.39
364.99	95.4
365.201	42.15
365.412	7.34
365.623	46.25
365.834	74.92
366.045	-31.57
366.256	7.34
366.467	40.11
366.678	68.78
366.889	64.68
367.1	66.73
367.311	31.91
367.522	25.77
367.733	68.78
367.944	15.53
368.155	42.15
368.366	50.35
368.577	38.06
368.788	25.77
368.999	-21.33
369.209	36.01
369.42	11.43
369.631	128.17
369.842	74.92
370.053	38.06
370.264	95.4
370.474	119.98
370.685	52.39
370.896	17.58
371.107	-23.38
371.317	54.44
371.528	-21.33
371.739	89.26
371.95	81.07
372.16	15.53
372.371	40.11
372.582	87.21
372.792	72.87
373.003	122.02
373.214	50.35
373.424	101.55
373.635	-9.05
373.846	46.25
374.056	99.5
374.267	66.73
374.477	62.63
374.688	44.2
374.898	40.11
375.109	40.11
375.319	52.39
375.53	107.69
375.74	42.15
375.951	3.24
376.161	-58.2
376.372	74.92
376.582	1.19
376.793	81.07
377.003	-31.57
377.214	-11.09
377.424	23.72
377.635	48.3
377.845	29.87
378.055	70.83
378.266	-15.19
378.476	50.35
378.686	25.77
378.897	42.15
379.107	79.02
379.317	48.3
379.528	23.72
379.738	115.88
379.948	21.67
380.158	56.49
380.369	56.49
380.579	74.92
380.789	62.63
380.999	99.5
381.21	38.06
381.42	62.63
381.63	64.68
381.84	60.59
382.05	33.96
382.261	62.63
382.471	40.11
382.681	132.26
382.891	38.06
383.101	50.35
383.311	-47.96
383.521	13.48
383.731	-2.9
383.941	31.91
384.151	54.44
384.361	38.06
384.571	56.49
384.781	72.87
384.991	54.44
385.201	54.44
385.411	66.73
385.621	13.48
385.831	111.78
386.041	13.48
386.251	-7
386.461	91.31
386.671	29.87
386.881	11.43
387.091	42.15
387.301	52.39
387.511	21.67
387.72	54.44
387.93	109.74
388.14	42.15
388.35	44.2
388.56	70.83
388.769	66.73
388.979	23.72
389.189	-60.24
389.399	42.15
389.609	50.35
389.818	52.39
390.028	91.31
390.238	52.39
390.447	44.2
390.657	40.11
390.867	58.54
391.076	62.63
391.286	107.69
391.496	97.45
391.705	68.78
391.915	79.02
392.125	38.06
392.334	27.82
392.544	40.11
392.753	38.06
392.963	83.11
393.172	23.72
393.382	42.15
393.591	52.39
393.801	76.97
394.01	68.78
394.22	-13.14
394.429	74.92
394.639	95.4
394.848	42.15
395.058	29.87
395.267	97.45
395.477	105.64
395.686	91.31
395.895	101.55
396.105	136.36
396.314	146.6
396.524	85.16
396.733	42.15
396.942	50.35
397.152	132.26
397.361	54.44
397.57	70.83
397.78	54.44
397.989	54.44
398.198	81.07
398.407	119.98
398.617	99.5
398.826	38.06
399.035	83.11
399.244	81.07
399.453	52.39
399.663	52.39
399.872	72.87
400.081	93.35
400.29	64.68
400.499	81.07
400.708	220.33
400.917	152.74
401.127	33.96
401.336	107.69
401.545	130.22
401.754	95.4
401.963	146.6
402.172	66.73
402.381	126.12
402.59	66.73
402.799	124.07
403.008	113.83
403.217	128.17
403.426	134.31
403.635	117.93
403.844	58.54
404.053	181.42
404.262	113.83
404.471	132.26
404.68	48.3
404.888	91.31
405.097	66.73
405.306	115.88
405.515	181.42
405.724	122.02
405.933	95.4
406.142	230.57
406.35	154.79
406.559	136.36
406.768	175.27
406.977	169.13
407.185	154.79
407.394	169.13
407.603	126.12
407.812	177.32
408.02	158.89
408.229	156.84
408.438	179.37
408.646	205.99
408.855	205.99
409.064	230.57
409.272	201.9
409.481	181.42
409.69	230.57
409.898	185.51
410.107	251.05
410.315	253.09
410.524	287.91
410.733	255.14
410.941	382.12
411.15	326.82
411.358	312.49
411.567	351.4
411.775	337.06
411.984	330.92
412.192	390.31
412.401	386.21
412.609	369.83
412.818	435.36
413.026	398.5
413.234	468.13
413.443	396.45
413.651	480.42
413.86	486.56
414.068	480.42
414.276	521.38
414.485	582.82
414.693	564.39
414.901	611.49
415.11	623.78
415.318	539.81
415.526	664.74
415.734	650.4
415.943	623.78
416.151	623.78
416.359	591.01
416.567	730.27
416.776	711.84
416.984	806.05
417.192	795.81
417.4	892.06
417.608	732.32
417.817	832.67
418.025	957.6
418.233	920.73
418.441	877.73
418.649	1047.71
418.857	1078.43
419.065	1115.29
419.273	1033.37
419.481	1139.87
419.689	1111.19
419.897	1293.46
420.105	1189.02
420.313	1223.83
420.521	1406.1
420.729	1264.79
420.937	1416.34
421.145	1500.31
421.353	1406.1
421.561	1578.13
421.769	1574.03
421.977	1647.76
422.185	1680.53
422.393	1801.36
422.601	1815.69
422.809	1905.81
423.017	1848.46
423.224	2022.54
423.432	2079.88
423.64	2014.35
423.848	2167.95
424.056	2200.71
424.263	2325.64
424.471	2348.17
424.679	2466.95
424.887	2575.49
425.094	2595.97
425.302	2690.18
425.51	2663.55
425.718	2864.25
425.925	2761.86
426.133	2987.13
426.341	2987.13
426.548	3216.51
426.756	3249.27
426.964	3202.17
427.171	3456.12
427.379	3462.26
427.586	3660.91
427.794	3634.29
428.001	3867.76
428.209	4039.79
428.417	3951.73
428.624	4260.97
428.832	4209.77
429.039	4205.67
429.247	4375.66
429.454	4633.7
429.662	4906.08
429.869	4645.99
430.076	5033.05
430.284	4879.46
430.491	5045.34
430.699	5407.83
430.906	5411.93
431.114	5473.37
431.321	5583.96
431.528	5823.57
431.736	6190.16
431.943	6399.05
432.15	6134.86
432.358	6161.48
432.565	6593.61
432.772	6548.55
432.979	6964.29
433.187	6968.38
433.394	7113.79
433.601	7609.4
433.808	7625.78
434.016	7429.18
434.223	7922.74
434.43	8188.97
434.637	8315.95
434.844	8647.72
435.052	8737.83
435.259	8815.65
435.466	8776.74
435.673	8817.7
435.88	9313.31
436.087	9982.99
436.294	9903.12
436.501	9538.59
436.708	9837.59
436.915	10007.57
437.122	10564.62
437.329	10646.54
437.537	10841.09
437.743	11297.79
437.95	10793.99
438.157	11457.53
438.364	12071.92
438.571	11869.17
438.778	11953.14
438.985	13163.49
439.192	12504.04
439.399	12846.05
439.606	13022.18
439.813	13482.97
440.02	14259.15
440.227	14042.07
440.433	13863.9
440.64	14261.2
440.847	14318.54
441.054	14640.08
441.261	15498.17
441.467	15272.9
441.674	15594.43
441.881	15995.83
442.088	16305.07
442.294	15819.71
442.501	16655.28
442.708	16802.73
442.914	17533.86
443.121	18185.11
443.328	17578.91
443.534	18926.47
443.741	18592.65
443.948	18111.38
444.154	19573.63
444.361	19383.17
444.568	19516.29
444.774	19557.25
444.981	19886.97
445.187	20325.24
445.394	21283.69
445.6	20865.9
445.807	22911.82
446.013	21873.5
446.22	22621.01
446.426	23163.72
446.633	23321.41
446.839	24482.61
447.046	23311.17
447.252	24593.2
447.459	24277.82
447.665	24361.78
447.871	25467.69
448.078	26630.93
448.284	25426.73
448.491	25996.06
448.697	26968.85
448.903	27546.37
449.11	27470.6
449.316	27085.58
449.522	27710.21
449.728	28361.47
449.935	28199.68
450.141	28474.1
450.347	29070.06
450.553	28158.72
450.76	28740.34
450.966	29532.9
451.172	29518.57
451.378	30053.09
451.584	29590.25
451.791	30249.69
451.997	30081.76
452.203	30554.84
452.409	30403.29
452.615	30370.52
452.821	29422.31
453.027	28951.28
453.233	30520.02
453.44	29383.4
453.646	29901.54
453.852	29575.91
454.058	30294.75
454.264	29299.44
454.47	29551.34
454.676	29119.21
454.882	30427.87
455.088	27306.76
455.294	28105.47
455.5	28373.75
455.705	28654.33
455.911	27720.45
456.117	26762
456.323	26589.97
456.529	25168.68
456.735	26047.26
456.941	25357.1
457.147	25043.76
457.352	24257.34
457.558	24243
457.764	24259.38
457.97	23728.96
458.176	23300.94
458.381	23042.89
458.587	21973.85
458.793	22076.25
458.999	21152.62
459.204	21896.03
459.41	21799.77
459.616	20241.27
459.821	20491.12
460.027	20372.34
460.233	19641.21
460.438	18875.27
460.644	19102.6
460.85	18267.03
461.055	17877.91
461.261	18070.42
461.466	16677.8
461.672	16131
461.878	17173.41
462.083	15909.82
462.289	15905.72
462.494	15479.74
462.7	14986.18
462.905	14498.77
463.111	14937.03
463.316	15123.4
463.522	14742.47
463.727	14826.44
463.932	14762.95
464.138	14638.03
464.343	14562.25
464.549	14187.47
464.754	14709.71
464.959	14572.49
465.165	14627.79
465.37	13781.98
465.575	13444.06
465.781	14095.32
465.986	14160.85
466.191	13550.56
466.397	13241.31
466.602	12694.5
466.807	13046.76
467.012	13417.44
467.218	13280.22
467.423	13114.34
467.628	12987.36
467.833	13741.02
468.038	13319.14
468.244	12690.41
468.449	13198.31
468.654	12657.64
468.859	12712.94
469.064	12411.89
469.269	12223.47
469.474	11985.91
469.679	12592.11
469.885	11932.66
470.09	12133.36
470.295	12211.18
470.5	11795.45
470.705	11942.9
470.91	11809.78
471.115	11578.36
471.32	11719.67
471.525	11672.57
471.73	11408.38
471.935	11385.85
472.139	10918.92
472.344	11203.58
472.549	11047.94
472.754	10974.21
472.959	10734.6
473.164	10419.21
473.369	10107.92
473.574	10740.74
473.778	10599.43
473.983	10478.6
474.188	10304.53
474.393	9892.88
474.598	10198.03
474.802	9968.66
475.007	10054.67
475.212	9952.27
475.417	9481.24
475.621	9489.43
475.826	9548.82
476.031	9454.62
476.235	9143.33
476.44	9473.05
476.645	9135.14
476.849	9278.49
477.054	9096.22
477.259	8905.76
477.463	8741.93
477.668	8641.57
477.872	8655.91
478.077	8549.42
478.282	8274.99
478.486	8309.8
478.691	8354.86
478.895	8469.55
479.1	8299.56
479.304	8297.52
479.509	8158.25
479.713	8248.36
479.918	8105.01
480.122	7869.49
480.326	7894.07
480.531	7857.2
480.735	7756.85
480.94	7803.96
481.144	8027.18
481.348	7627.83
481.553	7787.57
481.757	7742.52
481.961	7777.33
482.166	7754.8
482.37	7685.17
482.574	7470.14
482.778	7615.54
482.983	7693.37
483.187	7697.46
483.391	7754.8
483.595	7722.04
483.8	7400.51
484.004	7709.75
484.208	7611.45
484.412	7562.3
484.616	7633.97
484.821	7554.1
485.025	7437.37
485.229	7607.35
485.433	7615.54
485.637	7502.9
485.841	7767.09
486.045	7676.98
486.249	7568.44
486.453	7605.3
486.657	7343.16
486.861	7617.59
487.065	7412.79
487.269	7541.82
487.473	7562.3
487.677	7662.65
487.881	7453.75
488.085	7539.77
488.289	7611.45
488.493	7554.1
488.697	7814.2
488.901	7664.69
489.105	7763
489.309	7730.23
489.512	7808.05
489.716	7709.75
489.92	7445.56
490.124	7615.54
490.328	7781.43
490.531	7693.37
490.735	7812.15
490.939	7763
491.143	7750.71
491.346	7881.78
491.55	7828.53
491.754	7906.35
491.958	7955.51
492.161	7947.31
492.365	7971.89
492.569	8031.28
492.772	7992.37
492.976	8117.29
493.18	7992.37
493.383	8242.22
493.587	8391.72
493.79	8315.95
493.994	8178.73
494.197	8272.94
494.401	8375.34
494.605	8481.83
494.808	8741.93
495.012	8496.17
495.215	8588.33
495.419	8635.43
495.622	8797.22
495.825	8799.27
496.029	8743.97
496.232	9032.74
496.436	8950.82
496.639	9094.18
496.843	9329.69
497.046	9282.59
497.249	9462.81
497.453	9401.37
497.656	9544.73
497.859	9520.15
498.063	9671.7
498.266	9722.9
498.469	9849.88
498.673	9790.49
498.876	10271.76
499.079	9987.09
499.282	10054.67
499.485	10644.49
499.689	10595.34
499.892	10581
500.095	10644.49
500.298	11029.51
500.501	10914.82
500.705	10877.96
500.908	11076.61
501.111	11142.14
501.314	11428.86
501.517	11308.03
501.72	11498.49
501.923	11582.46
502.126	11930.61
502.329	12139.51
502.532	12159.99
502.735	12135.41
502.938	12446.7
503.141	12379.12
503.344	12811.24
503.547	12684.27
503.75	12633.07
503.953	13376.48
504.156	13112.29
504.359	13378.53
504.562	13331.42
504.765	13769.69
504.968	13822.94
505.17	13947.86
505.373	13892.57
505.576	13833.18
505.779	14498.77
505.982	14339.02
506.185	14779.34
506.387	14736.33
506.59	14787.53
506.793	15143.88
506.996	15203.27
507.198	15688.64
507.401	15399.87
507.604	15410.11
507.807	15713.21
508.009	16071.61
508.212	15963.06
508.415	16450.48
508.617	16204.72
508.82	16380.85
509.022	16577.45
509.225	16692.14
509.428	16872.36
509.63	17023.91
509.833	17111.97
510.035	17425.31
510.238	17400.74
510.44	17619.87
510.643	18066.33
510.845	18084.76
511.048	17951.64
511.25	18256.79
511.453	18475.92
511.655	19159.94
511.858	18764.68
512.06	19039.11
512.262	19299.2
512.465	19323.78
512.667	19526.53
512.87	19757.95
513.072	19487.62
513.274	20048.76
513.477	20343.67
513.679	20554.61
513.881	20648.82
514.084	20890.48
514.286	20704.11
514.488	20839.28
514.69	21699.42
514.893	21394.28
515.095	21599.07
515.297	21861.21
515.499	22033.24
515.701	22186.84
515.904	22201.18
516.106	22299.48
516.308	22471.51
516.51	22911.82
516.712	23231.3
516.914	23438.15
517.116	23337.8
517.318	23604.03
517.52	23628.61
517.722	23632.71
517.925	24361.78
518.127	24660.79
518.329	24427.32
518.531	24494.9
518.733	25060.14
518.935	25125.68
519.136	24953.65
519.338	25514.79
519.54	25461.54
519.742	25973.53
519.944	26028.83
520.146	26137.37
520.348	26460.95
520.55	26379.03
520.752	26581.78
520.954	27140.88
521.155	26897.17
521.357	27462.41
521.559	27357.96
521.761	27972.35
521.963	27437.83
522.164	28021.5
522.366	27990.78
522.568	28193.53
522.77	28306.17
522.971	28764.92
523.173	28418.81
523.375	28838.64
523.576	29033.2
523.778	29020.91
523.98	29631.21
524.181	29266.67
524.383	29586.15
524.584	29723.37
524.786	29919.97
524.988	29741.8
525.189	30059.23
525.391	29999.84
525.592	30446.3
525.794	30675.67
525.995	30391
526.197	30440.15
526.398	30532.31
526.6	30925.52
526.801	31328.97
527.003	30915.28
527.204	30966.48
527.406	31226.57
527.607	31402.7
527.808	31455.95
528.01	30755.54
528.211	31085.26
528.412	31859.4
528.614	31871.68
528.815	32156.35
529.016	32312
529.218	31603.4
529.419	31955.65
529.62	31775.43
529.822	32096.96
530.023	32142.02
530.224	32185.02
530.425	32287.42
530.626	31959.75
530.828	32068.29
531.029	32596.67
531.23	32496.31
531.431	32428.73
531.632	32459.45
531.833	32524.99
532.035	32705.21
532.236	32715.45
532.437	33157.81
532.638	32529.08
532.839	32647.86
533.04	32854.71
533.241	32391.87
533.442	32973.49
533.643	32834.23
533.844	32838.33
534.045	33047.22
534.246	32590.52
534.447	32889.52
534.648	32594.62
534.849	32901.81
535.05	32778.93
535.251	33147.57
535.451	32602.81
535.652	32797.37
535.853	32811.7
536.054	32789.17
536.255	32860.85
536.456	32817.85
536.657	33018.55
536.857	33278.64
537.058	32807.61
537.259	33237.68
537.46	32721.59
537.66	32815.8
537.861	33151.66
538.062	32475.84
538.263	33260.21
538.463	32774.84
538.664	33043.12
538.865	33061.55
539.065	33196.72
539.266	32582.33
539.466	32957.11
539.667	32402.11
539.868	32989.88
540.068	32666.3
540.269	32826.04
540.469	32703.16
540.67	32983.73
540.87	33141.42
541.071	32727.74
541.271	32854.71
541.472	32965.3
541.672	32852.66
541.873	32553.66
542.073	32314.05
542.274	32912.05
542.474	32611
542.675	32547.51
542.875	33028.79
543.075	32725.69
543.276	32355
543.476	32936.63
543.676	32795.32
543.877	32791.22
544.077	32713.4
544.277	32576.19
544.478	32594.62
544.678	32770.74
544.878	32584.38
545.078	32899.76
545.279	32611
545.479	32502.46
545.679	32545.47
545.879	32709.3
546.079	32641.72
546.28	32647.86
546.48	32641.72
546.68	32463.55
546.88	32699.06
547.08	32567.99
547.28	31972.03
547.48	32389.82
547.68	32180.93
547.88	32260.8
548.081	32492.22
548.281	32146.11
548.481	32346.81
548.681	32344.77
548.881	32486.07
549.081	32453.31
549.28	32338.62
549.48	32541.37
549.68	32215.74
549.88	32893.62
550.08	32070.34
550.28	32654.01
550.48	32168.64
550.68	32850.61
550.88	32209.6
551.08	32414.4
551.279	32148.16
551.479	32303.81
551.679	32326.33
551.879	32256.7
552.079	32400.06
552.278	32250.56
552.478	32133.82
552.678	32428.73
552.878	32375.48
553.077	31969.99
553.277	31822.53
553.477	32393.92
553.676	32115.39
553.876	31691.46
554.076	31943.36
554.275	32103.1
554.475	31697.61
554.674	32201.41
554.874	31984.32
555.074	32047.81
555.273	31656.65
555.473	32193.22
555.672	31673.03
555.872	31664.84
556.071	31636.17
556.271	31775.43
556.47	31679.18
556.67	31804.1
556.869	31621.83
557.068	31431.37
557.268	31263.44
557.467	31832.77
557.667	31541.96
557.866	31435.47
558.065	31341.26
558.265	31285.97
558.464	30773.97
558.663	31703.75
558.863	30962.39
559.062	31664.84
559.261	31224.53
559.461	31537.87
559.66	31339.21
559.859	31179.47
560.058	30911.19
560.258	30882.52
560.457	30958.29
560.656	31562.44
560.855	30935.76
561.054	31120.08
561.253	30755.54
561.453	31144.66
561.652	30790.36
561.851	30935.76
562.05	30702.29
562.249	30802.64
562.448	30839.51
562.647	30579.42
562.846	30579.42
563.045	30358.24
563.244	30128.86
563.443	30714.58
563.642	29932.26
563.841	30223.07
564.04	30391
564.239	30288.6
564.438	30118.62
564.637	30454.49
564.836	30225.12
565.035	29692.65
565.234	29999.84
565.432	29729.51
565.631	29739.75
565.83	29975.27
566.029	29807.33
566.228	29807.33
566.427	29756.13
566.625	29508.33
566.824	29301.48
567.023	29493.99
567.222	28900.08
567.42	29862.63
567.619	29287.15
567.818	29244.14
568.016	29297.39
568.215	29610.73
568.414	29281
568.612	29229.8
568.811	29055.73
569.01	29076.21
569.208	28394.23
569.407	29381.35
569.605	28701.43
569.804	28678.9
570.002	28637.94
570.201	28875.51
570.4	28558.07
570.598	28236.54
570.797	28379.9
570.995	28527.35
571.193	28046.08
571.392	28771.06
571.59	28029.69
571.789	27904.77
571.987	28070.65
572.186	27896.58
572.384	28119.81
572.582	28232.44
572.781	28259.07
572.979	27665.16
573.177	27886.34
573.376	27822.85
573.574	27906.82
573.772	27708.16
573.971	27570.95
574.169	27489.03
574.367	26983.18
574.565	27370.25
574.763	27015.95
574.962	27251.47
575.16	26958.61
575.358	27161.36
575.556	26839.83
575.754	27370.25
575.952	26831.63
576.151	27163.4
576.349	26495.77
576.547	26632.98
576.745	26772.24
576.943	26862.35
577.141	26401.56
577.339	26409.75
577.537	26546.97
577.735	26299.16
577.933	26196.76
578.131	26698.52
578.329	26264.35
578.527	25940.77
578.725	26299.16
578.923	26288.92
579.121	25918.24
579.319	25965.34
579.516	25983.77
579.714	25604.9
579.912	25727.78
580.11	25719.59
580.308	25940.77
580.506	25492.26
580.704	25434.92
580.901	25535.27
581.099	25848.61
581.297	25531.17
581.495	25144.11
581.692	25647.91
581.89	25078.57
582.088	25140.01
582.285	24476.47
582.483	25248.55
582.681	24879.92
582.878	24920.88
583.076	24777.52
583.274	25092.91
583.471	24261.43
583.669	24566.58
583.866	24288.06
584.064	24738.61
584.262	24199.99
584.459	24562.48
584.657	24386.36
584.854	24226.62
585.052	23526.21
585.249	24187.71
585.447	24226.62
585.644	23952.19
585.841	24156.99
586.039	24269.62
586.236	23833.41
586.434	23896.89
586.631	23681.86
586.828	23905.09
587.026	23673.67
587.223	23778.11
587.42	23491.4
587.618	23475.01
587.815	23089.99
588.012	23515.97
588.21	23374.66
588.407	23810.88
588.604	22938.44
588.801	22872.91
588.999	22971.21
589.196	22870.86
589.393	22836.05
589.59	22766.42
589.787	22838.09
589.984	22604.63
590.182	22328.15
590.379	22686.54
590.576	22330.2
590.773	22563.67
590.97	22244.18
591.167	22448.98
591.364	21797.73
591.561	22213.46
591.758	22053.72
591.955	22307.67
592.152	21963.61
592.349	21853.02
592.546	22023
592.743	21779.29
592.94	21461.86
593.137	21934.94
593.334	21799.77
593.531	21502.82
593.727	21676.9
593.924	21533.54
594.121	21212.01
594.318	21341.03
594.515	21267.3
594.712	21308.26
594.908	21095.27
595.105	21412.71
595.302	21005.16
595.499	21158.76
595.696	20831.08
595.892	20513.65
596.089	20841.32
596.286	20716.4
596.482	20886.38
596.679	20708.21
596.876	20745.07
597.072	20757.36
597.269	20577.14
597.466	20435.83
597.662	20104.06
597.859	20484.98
598.055	20337.52
598.252	20347.76
598.448	20355.96
598.645	20069.24
598.841	20018.04
599.038	19913.59
599.234	19821.44
599.431	19909.5
599.627	19659.65
599.824	19882.88
600.02	19555.2
600.217	19420.03
600.413	19540.86
600.609	19450.75
600.806	19098.5
601.002	19549.06
601.198	19362.69
601.395	19231.62
601.591	19284.87
601.787	19377.03
601.984	19137.41
602.18	19329.92
602.376	18924.43
602.572	19139.46
602.769	19065.74
602.965	18850.7
603.161	18770.83
603.357	18768.78
603.553	18510.74
603.75	18785.16
603.946	18301.84
604.142	18602.89
604.338	18396.05
604.534	18518.93
604.73	18224.02
604.926	18328.47
605.122	18428.82
605.318	18439.06
605.514	17804.19
605.71	18168.73
605.906	18029.46
606.102	18084.76
606.298	18396.05
606.494	18027.42
606.69	17992.6
606.886	17986.46
607.082	17781.66
607.278	17734.56
607.474	17785.76
607.67	17589.15
607.866	17406.88
608.062	17951.64
608.257	17611.68
608.453	17611.68
608.649	17472.42
608.845	17265.57
609.041	17415.07
609.236	17329.06
609.432	17212.32
609.628	17212.32
609.824	17275.81
610.019	16999.34
610.215	17079.21
610.411	17259.43
610.606	17095.59
610.802	17087.4
610.998	16954.28
611.193	16980.9
611.389	16755.63
611.584	16835.5
611.78	16784.3
611.976	16937.9
612.171	16743.34
612.367	16769.96
612.562	17066.92
612.758	16749.48
612.953	16657.32
613.149	16974.76
613.344	16511.92
613.539	16706.48
613.735	16729
613.93	16419.76
614.126	16509.87
614.321	16534.45
614.517	16440.24
614.712	16501.68
614.907	16296.88
615.103	16470.96
615.298	16493.49
615.493	16389.04
615.688	16245.68
615.884	16409.52
616.079	16260.02
616.274	16280.5
616.47	16176.05
616.665	16180.15
616.86	16022.45
617.055	16114.61
617.25	16010.17
617.445	16227.25
617.641	15879.1
617.836	16071.61
618.031	15569.85
618.226	16065.46
618.421	15664.06
618.616	15764.41
618.811	15731.64
619.006	15715.26
619.201	15573.95
619.396	15479.74
619.591	15201.22
619.786	15504.32
619.981	15272.9
620.176	15621.05
620.371	15195.07
620.566	15195.07
620.761	15010.76
620.956	15248.32
621.151	14828.49
621.346	14793.67
621.541	14853.06
621.735	14937.03
621.93	14887.88
622.125	14640.08
622.32	14447.57
622.515	14373.84
622.709	14613.45
622.904	14410.7
623.099	14349.26
623.294	14367.7
623.488	14275.54
623.683	14087.12
623.878	13824.98
624.072	14025.68
624.267	13931.48
624.462	13972.44
624.656	13847.51
624.851	13718.49
625.046	13702.11
625.24	13693.91
625.435	13544.41
625.629	13554.65
625.824	13155.3
626.018	13128.67
626.213	12952.55
626.407	13278.18
626.602	12884.97
626.796	12930.02
626.991	12934.12
627.185	12788.71
627.38	12749.8
627.574	12620.78
627.768	12579.82
627.963	12315.63
628.157	12231.66
628.352	12549.1
628.546	12227.57
628.74	12274.67
628.935	12059.63
629.129	12207.09
629.323	11971.57
629.517	11881.46
629.712	12266.48
629.906	12020.72
630.1	11670.52
630.294	11672.57
630.489	11781.11
630.683	11697.14
630.877	11410.43
631.071	11484.16
631.265	11512.83
631.459	11539.45
631.653	11250.69
631.848	11199.49
632.042	11129.86
632.236	11207.68
632.43	11115.52
632.624	11248.64
632.818	10992.64
633.012	10779.65
633.206	10929.16
633.4	10877.96
633.594	10744.84
633.788	10552.33
633.982	10556.43
634.176	10699.78
634.369	10501.13
634.563	10599.43
634.757	10486.79
634.951	10372.11
635.145	10642.44
635.339	10357.77
635.533	10122.26
635.726	10257.42
635.92	10171.41
636.114	10013.71
636.308	9985.04
636.501	10003.47
636.695	9907.22
636.889	9860.12
637.083	9831.44
637.276	9790.49
637.47	9698.33
637.664	9718.81
637.857	9796.63
638.051	9534.49
638.244	9595.93
638.438	9530.39
638.632	9421.85
638.825	9264.16
639.019	9479.19
639.212	9167.9
639.406	9253.92
639.599	9208.86
639.793	9034.78
639.986	9061.41
640.18	9090.08
640.373	9059.36
640.567	8776.74
640.76	8832.04
640.954	8786.98
641.147	8803.36
641.34	8698.92
641.534	8639.53
641.727	8770.6
641.92	8666.15
642.114	8573.99
642.307	8485.93
642.5	8600.62
642.694	8463.4
642.887	8266.8
643.08	8567.85
643.273	8342.57
643.467	8252.46
643.66	8295.47
643.853	8344.62
644.046	8201.26
644.239	8195.12
644.432	8125.49
644.626	8012.85
644.819	8051.76
645.012	7951.41
645.205	7834.68
645.398	7863.35
645.591	7949.36
645.784	7881.78
645.977	7683.13
646.17	7830.58
646.363	7631.93
646.556	7717.94
646.749	7570.49
646.942	7564.34
647.135	7623.73
647.328	7431.23
647.521	7529.53
647.714	7169.09
647.907	7398.46
648.099	7386.17
648.292	7347.26
648.485	7242.81
648.678	7519.29
648.871	7226.43
649.064	7189.56
649.256	7246.91
649.449	7017.54
649.642	7064.64
649.835	6964.29
650.027	6868.03
650.22	7021.63
650.413	6888.51
650.605	6902.85
650.798	6917.19
650.991	6767.68
651.183	6743.11
651.376	6736.96
651.568	6767.68
651.761	6730.82
651.954	6644.81
652.146	6566.98
652.339	6661.19
652.531	6407.24
652.724	6571.08
652.916	6487.11
653.109	6437.96
653.301	6278.22
653.494	6366.28
653.686	6161.48
653.879	6444.1
654.071	6265.93
654.263	6116.43
654.456	6210.64
654.648	6284.36
654.84	6046.8
655.033	6079.57
655.225	6077.52
655.417	6104.14
655.61	6169.68
655.802	6065.23
655.994	6102.09
656.186	5942.35
656.379	5958.74
656.571	5839.95
656.763	5780.56
656.955	5823.57
657.148	5839.95
657.34	5684.31
657.532	5661.78
657.724	5665.88
657.916	5733.46
658.108	5629.01
658.3	5461.08
658.492	5665.88
658.684	5368.92
658.876	5485.65
659.068	5403.74
659.26	5434.46
659.452	5420.12
659.644	5383.26
659.836	5354.58
660.028	5217.37
660.22	5383.26
660.412	5239.9
660.604	5194.84
660.796	5301.34
660.988	5241.95
661.18	5166.17
661.372	5121.12
661.563	5129.31
661.755	4990.05
661.947	4881.5
662.139	5237.85
662.331	4947.04
662.522	4899.94
662.714	4967.52
662.906	4940.9
663.097	5012.57
663.289	4928.61
663.481	4746.34
663.673	4832.35
663.864	4887.65
664.056	4695.14
664.247	4633.7
664.439	4738.15
664.631	4664.42
664.822	4883.55
665.014	4617.32
665.205	4721.76
665.397	4523.11
665.588	4719.71
665.78	4551.78
665.971	4619.36
666.163	4564.07
666.354	4404.33
666.546	4486.25
666.737	4418.66
666.929	4619.36
667.12	4449.38
667.311	4443.24
667.503	4394.09
667.694	4326.5
667.885	4383.85
668.077	4351.08
668.268	4310.12
668.459	4406.38
668.651	4383.85
668.842	4340.84
669.033	4217.96
669.224	4144.24
669.416	4246.63
669.607	4179.05
669.798	4160.62
669.989	4187.24
670.18	4164.72
670.371	4185.19
670.563	4144.24
670.754	4191.34
670.945	4047.98
671.136	4035.69
671.327	4045.93
671.518	4052.08
671.709	4060.27
671.9	4025.45
672.091	3957.87
672.282	3871.86
672.473	3933.29
672.664	3959.92
672.855	3902.58
673.046	4000.88
673.237	3828.85
673.428	3927.15
673.619	3834.99
673.809	3912.81
674	3896.43
674.191	3941.49
674.382	3873.9
674.573	3834.99
674.764	4027.5
674.954	3775.6
675.145	3705.97
675.336	3769.46
675.527	3785.84
675.717	3796.08
675.908	3687.54
676.099	3697.78
676.289	3607.67
676.48	3685.49
676.671	3669.11
676.861	3703.92
677.052	3703.92
677.243	3613.81
677.433	3757.17
677.624	3673.2
677.814	3693.68
678.005	3595.38
678.195	3710.07
678.386	3581.04
678.576	3562.61
678.767	3488.89
678.957	3589.24
679.148	3552.37
679.338	3529.84
679.529	3484.79
679.719	3628.15
679.909	3540.08
680.1	3581.04
680.29	3507.32
680.481	3529.84
680.671	3525.75
680.861	3435.64
681.052	3429.49
681.242	3538.04
681.432	3648.63
681.622	3505.27
681.813	3480.69
682.003	3507.32
682.193	3368.06
682.383	3542.13
682.573	3466.36
682.764	3290.23
682.954	3433.59
683.144	3427.45
683.334	3329.14
683.524	3452.02
683.714	3376.25
683.904	3306.62
684.094	3335.29
684.284	3294.33
684.474	3386.49
684.664	3429.49
684.854	3296.38
685.044	3333.24
685.234	3302.52
685.424	3202.17
685.614	3304.57
685.804	3316.86
685.994	3310.71
686.184	3320.95
686.374	3214.46
686.564	3236.99
686.753	3347.58
686.943	3228.79
687.133	3163.26
687.323	3015.8
687.513	3064.96
687.702	2987.13
687.892	3030.14
688.082	2962.56
688.272	3095.68
688.461	3073.15
688.651	3103.87
688.841	3081.34
689.03	3079.29
689.22	2942.08
689.41	2925.69
689.599	2958.46
689.789	3011.71
689.979	2937.98
690.168	2829.44
690.358	2868.35
690.547	3024
690.737	2765.95
690.926	2858.11
691.116	2886.78
691.305	2813.06
691.495	2712.71
691.684	2837.63
691.874	2774.14
692.063	2751.62
692.252	2569.35
692.442	2684.03
692.631	2741.38
692.82	2702.47
693.01	2743.42
693.199	2737.28
693.388	2655.36
693.578	2608.26
693.767	2559.11
693.956	2622.59
694.146	2471.04
694.335	2557.06
694.524	2700.42
694.713	2555.01
694.902	2522.24
695.092	2548.87
695.281	2505.86
695.47	2446.47
695.659	2522.24
695.848	2446.47
696.037	2491.52
696.226	2466.95
696.415	2577.54
696.604	2405.51
696.793	2430.09
696.982	2475.14
697.171	2360.45
697.36	2315.4
697.549	2372.74
697.738	2364.55
697.927	2487.43
698.116	2356.36
698.305	2428.04
698.494	2327.69
698.683	2335.88
698.872	2370.69
699.061	2202.76
699.25	2397.32
699.438	2303.11
699.627	2233.48
699.816	2411.65
700.005	2323.59
700.193	2313.35
700.382	2335.88
700.571	2219.14
700.76	2284.68
700.948	2303.11
701.137	2294.92
701.326	2354.31
701.514	2180.23
701.703	2290.82
701.892	2167.95
702.08	2221.19
702.269	2210.95
702.457	2094.22
702.646	2208.9
702.834	2346.12
703.023	2126.99
703.212	2208.9
703.4	2139.27
703.589	2231.43
703.777	2251.91
703.965	2225.29
704.154	2106.51
704.342	2204.81
704.531	2067.6
704.719	2221.19
704.907	2196.62
705.096	2090.12
705.284	2202.76
705.472	2137.23
705.661	2104.46
705.849	2192.52
706.037	2167.95
706.226	2110.6
706.414	2290.82
706.602	2153.61
706.79	2192.52
706.979	2237.58
707.167	2131.08
707.355	2114.7
707.543	2137.23
707.731	2176.14
707.919	2153.61
708.107	2086.03
708.296	2114.7
708.484	2094.22
708.672	2192.52
708.86	2202.76
709.048	2169.99
709.236	2284.68
709.424	2213
709.612	2184.33
709.8	2092.17
709.988	2153.61
710.176	2174.09
710.364	2124.94
710.551	2131.08
710.739	2145.42
710.927	2139.27
711.115	2116.75
711.303	2069.64
711.491	2190.47
711.679	2071.69
711.866	2192.52
712.054	2153.61
712.242	2202.76
712.43	2172.04
712.617	2262.15
712.805	2198.67
712.993	2272.39
713.181	2153.61
713.368	2172.04
713.556	2282.63
713.744	2090.12
713.931	2221.19
714.119	2235.53
714.306	2301.06
714.494	2137.23
714.682	2198.67
714.869	2129.03
715.057	2210.95
715.244	2182.28
715.432	2278.54
715.619	2188.43
715.807	2133.13
715.994	2223.24
716.182	2114.7
716.369	2174.09
716.556	2145.42
716.744	2296.97
716.931	2182.28
717.119	2303.11
717.306	2276.49
717.493	2102.41
717.681	2270.34
717.868	2202.76
718.055	2196.62
718.242	2188.43
718.43	2278.54
718.617	2348.17
718.804	2299.02
718.991	2229.38
719.179	2258.06
719.366	2249.86
719.553	2301.06
719.74	2303.11
719.927	2262.15
720.114	2219.14
720.301	2309.26
720.488	2237.58
720.676	2202.76
720.863	2208.9
721.05	2372.74
721.237	2202.76
721.424	2350.21
721.611	2358.41
721.798	2315.4
721.985	2221.19
722.172	2278.54
722.358	2118.79
722.545	2380.93
722.732	2282.63
722.919	2202.76
723.106	2286.73
723.293	2309.26
723.48	2266.25
723.667	2264.2
723.853	2237.58
724.04	2323.59
724.227	2288.78
724.414	2260.1
724.6	2262.15
724.787	2362.5
724.974	2233.48
725.161	2296.97
725.347	2251.91
725.534	2301.06
725.72	2325.64
725.907	2241.67
726.094	2268.3
726.28	2249.86
726.467	2339.97
726.653	2356.36
726.84	2360.45
727.027	2356.36
727.213	2239.62
727.4	2270.34
727.586	2372.74
727.773	2317.45
727.959	2309.26
728.145	2262.15
728.332	2376.84
728.518	2260.1
728.705	2307.21
728.891	2389.13
729.077	2442.37
729.264	2335.88
729.45	2335.88
729.636	2290.82
729.823	2294.92
730.009	2350.21
730.195	2342.02
730.382	2352.26
730.568	2272.39
730.754	2440.33
730.94	2317.45
731.126	2233.48
731.313	2329.74
731.499	2446.47
731.685	2307.21
731.871	2323.59
732.057	2438.28
732.243	2481.28
732.429	2344.07
732.615	2393.22
732.801	2288.78
732.987	2483.33
733.173	2335.88
733.359	2315.4
733.545	2389.13
733.731	2311.3
733.917	2311.3
734.103	2446.47
734.289	2483.33
734.475	2276.49
734.661	2335.88
734.847	2327.69
735.033	2325.64
735.219	2356.36
735.404	2329.74
735.59	2296.97
735.776	2292.87
735.962	2241.67
736.148	2382.98
736.333	2401.41
736.519	2339.97
736.705	2266.25
736.89	2184.33
737.076	2245.77
737.262	2366.6
737.447	2358.41
737.633	2348.17
737.819	2425.99
738.004	2253.96
738.19	2397.32
738.375	2284.68
738.561	2352.26
738.747	2333.83
738.932	2225.29
739.118	2286.73
739.303	2333.83
739.489	2210.95
739.674	2323.59
739.859	2180.23
740.045	2376.84
740.23	2186.38
740.416	2350.21
740.601	2331.78
740.786	2258.06
740.972	2194.57
741.157	2317.45
741.342	2227.34
741.528	2153.61
741.713	2167.95
741.898	2274.44
742.084	2165.9
742.269	2172.04
742.454	2217.1
742.639	2182.28
742.824	2094.22
743.01	2249.86
743.195	2112.65
743.38	2094.22
743.565	2116.75
743.75	2129.03
743.935	2073.74
744.12	2147.47
744.305	2088.07
744.49	2067.6
744.675	2049.16
744.86	2014.35
745.045	2020.49
745.23	2124.94
745.415	1995.92
745.6	2169.99
745.785	1967.24
745.97	2112.65
746.155	1977.48
746.34	2073.74
746.525	1922.19
746.71	2032.78
746.895	2036.88
747.079	1995.92
747.264	1914
747.449	1901.71
747.634	1889.42
747.819	1971.34
748.003	1942.67
748.188	1803.41
748.373	1858.7
748.557	1758.35
748.742	1805.46
748.927	1795.22
749.111	1860.75
749.296	1774.74
749.481	1813.65
749.665	1848.46
749.85	1817.74
750.034	1795.22
750.219	1801.36
750.404	1619.09
750.588	1731.73
750.773	1748.11
750.957	1836.17
751.141	1662.1
751.326	1756.3
751.51	1770.64
751.695	1608.85
751.879	1672.34
752.064	1627.28
752.248	1713.3
752.432	1502.36
752.617	1696.91
752.801	1594.51
752.985	1518.74
753.17	1576.08
753.354	1633.43
753.538	1610.9
753.722	1553.55
753.907	1547.41
754.091	1426.58
754.275	1549.46
754.459	1494.16
754.643	1506.45
754.828	1565.84
755.012	1610.9
755.196	1496.21
755.38	1475.73
755.564	1422.48
755.748	1402.01
755.932	1465.49
756.116	1389.72
756.3	1428.63
756.484	1402.01
756.668	1385.62
756.852	1334.42
757.036	1442.96
757.22	1313.94
757.404	1336.47
757.588	1391.77
757.772	1322.13
757.956	1277.08
758.14	1375.38
758.323	1334.42
758.507	1303.7
758.691	1387.67
758.875	1320.09
759.059	1258.65
759.242	1219.74
759.426	1313.94
759.61	1266.84
759.794	1291.41
759.977	1248.41
760.161	1232.02
760.345	1213.59
760.528	1207.45
760.712	1143.96
760.895	1170.58
761.079	1270.94
761.263	1240.22
761.446	1205.4
761.63	1156.25
761.813	1176.73
761.997	1111.19
762.18	1125.53
762.364	1111.19
762.547	1010.84
762.731	1133.72
762.914	1033.37
763.098	1221.78
763.281	1107.1
763.464	1092.76
763.648	1119.39
763.831	1176.73
764.015	1066.14
764.198	1119.39
764.381	1113.24
764.564	1139.87
764.748	1019.04
764.931	1053.85
765.114	1137.82
765.297	1059.99
765.481	1019.04
765.664	955.55
765.847	1043.61
766.03	1004.7
766.213	1031.32
766.397	1070.23
766.58	1025.18
766.763	1000.6
766.946	988.32
767.129	967.84
767.312	1000.6
767.495	1037.47
767.678	916.64
767.861	1002.65
768.044	1025.18
768.227	965.79
768.41	965.79
768.593	976.03
768.776	1014.94
768.959	947.36
769.142	941.21
769.324	857.25
769.507	951.45
769.69	879.77
769.873	1016.99
770.056	939.16
770.239	939.16
770.421	939.16
770.604	973.98
770.787	898.2
770.97	910.49
771.152	951.45
771.335	877.73
771.518	810.14
771.7	871.58
771.883	943.26
772.066	799.9
772.248	861.34
772.431	920.73
772.613	857.25
772.796	822.43
772.978	865.44
773.161	851.1
773.343	887.97
773.526	840.86
773.708	849.05
773.891	801.95
774.073	746.66
774.256	818.33
774.438	922.78
774.621	859.29
774.803	844.96
774.985	775.33
775.168	771.23
775.35	840.86
775.532	773.28
775.715	779.42
775.897	736.42
776.079	660.64
776.261	785.57
776.444	763.04
776.626	775.33
776.808	734.37
776.99	693.41
777.173	797.85
777.355	697.5
777.537	674.98
777.719	744.61
777.901	674.98
778.083	677.02
778.265	591.01
778.447	701.6
778.629	668.83
778.811	677.02
778.993	607.39
779.175	720.03
779.357	601.25
779.539	621.73
779.721	636.06
779.903	650.4
780.085	591.01
780.267	707.74
780.449	556.19
780.631	679.07
780.812	588.96
780.994	584.87
781.176	605.35
781.358	629.92
781.54	601.25
781.721	537.76
781.903	636.06
782.085	599.2
782.267	623.78
782.448	607.39
782.63	476.32
782.812	443.56
782.993	531.62
783.175	548
783.357	535.71
783.538	597.15
783.72	496.8
783.901	504.99
784.083	545.95
784.264	548
784.446	527.52
784.627	498.85
784.809	482.47
784.99	476.32
785.172	490.66
785.353	437.41
785.535	402.6
785.716	498.85
785.897	457.89
786.079	476.32
786.26	421.03
786.441	527.52
786.623	443.56
786.804	459.94
786.985	418.98
787.167	414.88
787.348	472.23
787.529	461.99
787.71	410.79
787.891	421.03
788.073	392.36
788.254	490.66
788.435	443.56
788.616	367.78
788.797	373.92
788.978	341.16
789.159	423.08
789.34	478.37
789.522	394.4
789.703	441.51
789.884	453.8
790.065	435.36
790.246	418.98
790.427	382.12
790.607	314.53
790.788	492.71
790.969	369.83
791.15	427.17
791.331	332.97
791.512	525.47
791.693	351.4
791.874	316.58
792.054	423.08
792.235	369.83
792.416	277.67
792.597	351.4
792.778	369.83
792.958	369.83
793.139	308.39
793.32	382.12
793.5	308.39
793.681	353.45
793.862	410.79
794.042	316.58
794.223	371.88
794.404	367.78
794.584	263.33
794.765	292.01
794.945	343.21
795.126	394.4
795.306	322.73
795.487	304.29
795.667	205.99
795.848	279.72
796.028	314.53
796.209	324.77
796.389	326.82
796.57	302.25
796.75	246.95
796.93	294.05
797.111	294.05
797.291	224.42
797.471	337.06
797.652	279.72
797.832	275.62
798.012	335.01
798.192	246.95
798.373	244.9
798.553	302.25
798.733	234.66
798.913	279.72
799.093	212.14
799.274	259.24
799.454	269.48
799.634	240.81
799.814	292.01
799.994	265.38
800.174	263.33
800.354	267.43
800.534	271.53
800.714	308.39
800.894	214.18
801.074	314.53
801.254	296.1
801.434	265.38
801.614	306.34
801.794	107.69
801.974	613.54
802.154	267.43
802.334	238.76
802.514	220.33
802.693	222.38
802.873	220.33
803.053	242.85
803.233	214.18
803.413	244.9
803.592	300.2
803.772	197.8
803.952	255.14
804.131	232.62
804.311	201.9
804.491	226.47
804.67	232.62
804.85	205.99
805.03	271.53
805.209	261.29
805.389	253.09
805.568	189.61
805.748	259.24
805.928	103.59
806.107	181.42
806.287	257.19
806.466	228.52
806.646	218.28
806.825	162.98
807.004	179.37
807.184	210.09
807.363	255.14
807.543	183.46
807.722	212.14
807.901	273.57
808.081	230.57
808.26	148.65
808.439	238.76
808.619	193.7
808.798	173.22
808.977	197.8
809.156	249
809.336	205.99
809.515	205.99
809.694	205.99
809.873	187.56
810.052	195.75
810.231	236.71
810.411	191.66
810.59	152.74
810.769	148.65
810.948	183.46
811.127	185.51
811.306	165.03
811.485	179.37
811.664	132.26
811.843	152.74
812.022	193.7
812.201	189.61
812.38	109.74
812.559	171.18
812.737	158.89
812.916	148.65
813.095	173.22
813.274	236.71
813.453	173.22
813.632	154.79
813.811	189.61
813.989	185.51
814.168	193.7
814.347	58.54
814.526	191.66
814.704	165.03
814.883	173.22
815.062	165.03
815.24	162.98
815.419	99.5
815.598	197.8
815.776	119.98
815.955	162.98
816.133	136.36
816.312	171.18
816.49	126.12
816.669	171.18
816.847	181.42
817.026	199.85
817.204	107.69
817.383	150.7
817.561	138.41
817.74	101.55
817.918	150.7
818.097	195.75
818.275	175.27
818.453	201.9
818.632	136.36
818.81	74.92
818.988	173.22
819.167	152.74
819.345	91.31
819.523	124.07
819.701	138.41
819.879	76.97
820.058	111.78
820.236	113.83
820.414	177.32
820.592	115.88
820.77	173.22
820.948	119.98
821.127	103.59
821.305	109.74
821.483	122.02
821.661	83.11
821.839	109.74
822.017	134.31
822.195	56.49
822.373	111.78
822.551	109.74
822.729	105.64
822.907	91.31
823.085	171.18
823.262	68.78
823.44	128.17
823.618	62.63
823.796	134.31
823.974	119.98
824.152	132.26
824.329	107.69
824.507	74.92
824.685	144.55
824.863	81.07
825.04	128.17
825.218	148.65
825.396	27.82
825.574	44.2
825.751	160.94
825.929	72.87
826.107	50.35
826.284	70.83
826.462	132.26
826.639	70.83
826.817	66.73
826.994	74.92
827.172	62.63
827.349	128.17
827.527	97.45
827.704	111.78
827.882	113.83
828.059	140.46
828.237	95.4
828.414	66.73
828.591	58.54
828.769	152.74
828.946	38.06
829.124	134.31
829.301	140.46
829.478	109.74
829.655	97.45
829.833	124.07
830.01	40.11
830.187	95.4
830.364	52.39
830.542	93.35
830.719	97.45
830.896	99.5
831.073	136.36
831.25	130.22
831.427	68.78
831.604	140.46
831.782	99.5
831.959	72.87
832.136	44.2
832.313	99.5
832.49	58.54
832.667	113.83
832.844	87.21
833.021	146.6
833.198	117.93
833.374	195.75
833.551	89.26
833.728	87.21
833.905	134.31
834.082	48.3
834.259	128.17
834.436	54.44
834.612	33.96
834.789	87.21
834.966	-9.05
835.143	66.73
835.319	33.96
835.496	156.84
835.673	132.26
835.85	95.4
836.026	89.26
836.203	62.63
836.38	68.78
836.556	7.34
836.733	91.31
836.909	46.25
837.086	27.82
837.262	66.73
837.439	42.15
837.616	58.54
837.792	91.31
837.968	93.35
838.145	60.59
838.321	58.54
838.498	52.39
838.674	72.87
838.851	46.25
839.027	56.49
839.203	68.78
839.38	185.51
839.556	40.11
839.732	25.77
839.909	31.91
840.085	150.7
840.261	36.01
840.437	3.24
840.614	-17.24
840.79	29.87
840.966	-0.85
841.142	81.07
841.318	-7
841.494	42.15
841.671	91.31
841.847	29.87
842.023	17.58
842.199	109.74
842.375	99.5
842.551	66.73
842.727	38.06
842.903	105.64
843.079	31.91
843.255	128.17
843.431	40.11
843.607	128.17
843.783	13.48
843.959	-27.48
844.134	21.67
844.31	126.12
844.486	9.39
844.662	66.73
844.838	52.39
845.013	13.48
845.189	64.68
845.365	52.39
845.541	70.83
845.716	81.07
845.892	-9.05
846.068	62.63
846.244	-50
846.419	64.68
846.595	40.11
846.77	17.58
846.946	17.58
847.122	66.73
847.297	31.91
847.473	21.67
847.648	33.96
847.824	113.83
847.999	-9.05
848.175	54.44
848.35	9.39
848.526	99.5
848.701	25.77
848.876	36.01
849.052	-2.9
849.227	128.17
849.403	97.45
849.578	95.4
849.753	23.72
849.929	113.83
850.104	29.87
850.279	-25.43
850.454	72.87
850.63	83.11
850.805	15.53
850.98	-29.52
851.155	81.07
851.33	-9.05
851.505	58.54
851.681	93.35
851.856	48.3
852.031	33.96
852.206	21.67
852.381	17.58
852.556	36.01
852.731	23.72
852.906	62.63
853.081	15.53
853.256	-31.57
853.431	7.34
853.606	9.39
853.781	91.31
853.956	54.44
854.131	38.06
854.305	111.78
854.48	105.64
854.655	72.87
854.83	40.11
855.005	-23.38
855.18	68.78
855.354	9.39
855.529	87.21
855.704	58.54
855.879	64.68
856.053	25.77
856.228	-21.33
856.403	-4.95
856.577	21.67
856.752	-41.81
856.926	-45.91
857.101	-13.14
857.276	27.82
857.45	91.31
857.625	40.11
857.799	-2.9
857.974	38.06
858.148	38.06
858.323	-4.95
858.497	23.72
858.672	7.34
858.846	-4.95
859.02	95.4
859.195	-13.14
859.369	60.59
859.543	52.39
859.718	130.22
859.892	66.73
860.066	50.35
860.241	40.11
860.415	11.43
860.589	9.39
860.763	7.34
860.938	3.24
861.112	7.34
861.286	56.49
861.46	5.29
861.634	58.54
861.808	11.43
861.982	42.15
862.157	-4.95
862.331	-33.62
862.505	-19.29
862.679	5.29
862.853	48.3
863.027	13.48
863.201	42.15
863.375	70.83
863.549	-4.95
863.722	60.59
863.896	7.34
864.07	9.39
864.244	-70.48
864.418	29.87
864.592	52.39
864.766	36.01
864.939	-9.05
865.113	-11.09
865.287	85.16
865.461	29.87
865.634	103.59
865.808	87.21
865.982	17.58
866.156	-74.58
866.329	-31.57
866.503	-19.29
866.676	76.97
866.85	5.29
867.024	38.06
867.197	-72.53
867.371	-33.62
867.544	-23.38
867.718	9.39
867.891	9.39
868.065	9.39
868.238	-23.38
868.412	81.07
868.585	60.59
868.759	33.96
868.932	1.19
869.105	91.31
869.279	79.02
869.452	-9.05
869.625	33.96
869.799	33.96
869.972	62.63
870.145	3.24
870.319	-2.9
870.492	-25.43
870.665	5.29
870.838	74.92
871.011	70.83
871.185	17.58
871.358	46.25
871.531	46.25
871.704	-33.62
871.877	50.35
872.05	-7
872.223	70.83
872.396	44.2
872.569	70.83
872.742	-50
872.915	-23.38
873.088	17.58
873.261	38.06
873.434	62.63
873.607	-19.29
873.78	31.91
873.953	-17.24
874.126	21.67
874.299	-0.85
874.471	29.87
874.644	1.19
874.817	60.59
874.99	72.87
875.163	-47.96
875.335	38.06
875.508	13.48
875.681	27.82
875.853	-37.72
876.026	42.15
876.199	66.73
876.371	74.92
876.544	-23.38
876.717	9.39
876.889	56.49
877.062	11.43
877.234	-13.14
877.407	-4.95
877.579	25.77
877.752	-2.9
877.924	68.78
878.097	48.3
878.269	7.34
878.442	89.26
878.614	13.48
878.786	17.58
878.959	-9.05
879.131	-11.09
879.303	72.87
879.476	21.67
879.648	25.77
879.82	101.55
879.993	13.48
880.165	9.39
880.337	70.83
880.509	-52.05
880.681	-7
880.854	38.06
881.026	29.87
881.198	-0.85
881.37	-11.09
881.542	9.39
881.714	-47.96
881.886	19.63
882.058	-21.33
882.23	50.35
882.402	-33.62
882.574	19.63
882.746	-29.52
882.918	66.73
883.09	21.67
883.262	50.35
883.434	40.11
883.606	40.11
883.778	72.87
883.95	58.54
884.122	44.2
884.293	-43.86
884.465	-47.96
884.637	-21.33
884.809	5.29
884.98	-7
885.152	-9.05
885.324	46.25
885.496	-7
885.667	1.19
885.839	-33.62
886.011	58.54
886.182	13.48
886.354	40.11
886.525	-15.19
886.697	17.58
886.869	42.15
887.04	23.72
887.212	64.68
887.383	11.43
887.555	17.58
887.726	-25.43
887.897	38.06
888.069	25.77
888.24	25.77
888.412	33.96
888.583	23.72
888.754	27.82
888.926	-35.67
889.097	38.06
889.268	31.91
889.44	-2.9
889.611	-64.34
889.782	-11.09
889.953	-7
890.125	25.77
890.296	17.58
890.467	-52.05
890.638	33.96
890.809	9.39
890.98	1.19
891.151	-60.24
891.323	36.01
891.494	40.11
891.665	42.15
891.836	-17.24
892.007	27.82
892.178	66.73
892.349	-11.09
892.52	-45.91
892.691	44.2
892.862	3.24
893.032	3.24
893.203	7.34
893.374	-23.38
893.545	83.11
893.716	-54.1
893.887	42.15
894.057	1.19
894.228	15.53
894.399	23.72
894.57	33.96
894.74	1.19
894.911	29.87
895.082	91.31
895.253	3.24
895.423	-17.24
895.594	46.25
895.764	27.82
895.935	-21.33
896.106	-17.24
896.276	54.44
896.447	-11.09
896.617	52.39
896.788	7.34
896.958	27.82
897.129	-7
897.299	79.02
897.47	-64.34
897.64	68.78
897.81	13.48
897.981	15.53
898.151	5.29
898.322	-33.62
898.492	17.58
898.662	-21.33
898.832	56.49
899.003	-4.95
899.173	42.15
899.343	9.39
899.513	-15.19
