Data from USB4F104151__70__11-37-32-219.txt Node

Date: Fri Mar 14 11:37:32 EDT 2025
User: louis
Spectrometer: USB4F10415
Trigger mode: 4
Integration Time (sec): 2.000000E-2
Scans to average: 1
Electric dark correction enabled: true
Nonlinearity correction enabled: false
Boxcar width: 0
XAxis mode: Wavelengths
Number of Pixels in Spectrum: 3648
>>>>>Begin Spectral Data<<<<<
178.204	-64.85
178.424	-64.85
178.644	-64.85
178.864	-79.19
179.084	-36.18
179.304	-13.65
179.524	-56.66
179.744	-62.8
179.964	17.07
180.184	21.16
180.404	-19.8
180.624	-11.61
180.844	25.26
181.064	-5.46
181.283	8.87
181.503	41.64
181.723	55.98
181.943	-77.14
182.163	129.7
182.383	19.11
182.602	31.4
182.822	101.03
183.042	64.17
183.262	51.88
183.482	62.12
183.701	31.4
183.921	27.31
184.141	12.97
184.361	84.65
184.58	8.87
184.8	29.35
185.02	39.59
185.239	84.65
185.459	76.46
185.679	88.75
185.898	25.26
186.118	39.59
186.338	35.5
186.557	37.55
186.777	-11.61
186.997	8.87
187.216	-21.85
187.436	35.5
187.655	37.55
187.875	82.6
188.095	15.02
188.314	74.41
188.534	-13.65
188.753	21.16
188.973	53.93
189.192	37.55
189.412	-11.61
189.631	33.45
189.851	17.07
190.07	107.18
190.29	35.5
190.509	-1.37
190.729	0.68
190.948	6.83
191.168	160.42
191.387	25.26
191.607	21.16
191.826	90.79
192.045	66.22
192.265	94.89
192.484	17.07
192.704	113.32
192.923	84.65
193.142	17.07
193.362	29.35
193.581	101.03
193.8	58.03
194.02	-3.41
194.239	31.4
194.458	107.18
194.678	70.31
194.897	37.55
195.116	94.89
195.335	27.31
195.555	12.97
195.774	92.84
195.993	31.4
196.212	94.89
196.432	0.68
196.651	17.07
196.87	49.83
197.089	88.75
197.308	88.75
197.528	21.16
197.747	23.21
197.966	64.17
198.185	31.4
198.404	21.16
198.623	148.14
198.842	113.32
199.062	43.69
199.281	84.65
199.5	-13.65
199.719	17.07
199.938	68.27
200.157	111.27
200.376	150.18
200.595	35.5
200.814	66.22
201.033	49.83
201.252	101.03
201.471	12.97
201.69	19.11
201.909	88.75
202.128	33.45
202.347	62.12
202.566	107.18
202.785	74.41
203.004	21.16
203.223	133.8
203.442	39.59
203.661	70.31
203.879	70.31
204.098	66.22
204.317	17.07
204.536	115.37
204.755	8.87
204.974	86.7
205.193	41.64
205.411	47.79
205.63	19.11
205.849	21.16
206.068	6.83
206.287	62.12
206.505	84.65
206.724	-9.56
206.943	17.07
207.162	19.11
207.381	49.83
207.599	6.83
207.818	96.94
208.037	29.35
208.255	45.74
208.474	4.78
208.693	35.5
208.911	80.55
209.13	41.64
209.349	19.11
209.567	25.26
209.786	35.5
210.005	-19.8
210.223	117.42
210.442	27.31
210.661	78.51
210.879	35.5
211.098	31.4
211.316	74.41
211.535	150.18
211.753	12.97
211.972	70.31
212.191	119.46
212.409	-9.56
212.628	78.51
212.846	39.59
213.065	19.11
213.283	27.31
213.502	23.21
213.72	78.51
213.938	29.35
214.157	49.83
214.375	119.46
214.594	64.17
214.812	78.51
215.031	144.04
215.249	25.26
215.467	21.16
215.686	8.87
215.904	111.27
216.122	4.78
216.341	37.55
216.559	47.79
216.778	94.89
216.996	117.42
217.214	66.22
217.432	-34.13
217.651	-58.71
217.869	29.35
218.087	8.87
218.306	70.31
218.524	-19.8
218.742	-11.61
218.96	60.07
219.179	39.59
219.397	58.03
219.615	21.16
219.833	29.35
220.051	6.83
220.27	21.16
220.488	47.79
220.706	47.79
220.924	45.74
221.142	19.11
221.36	37.55
221.578	80.55
221.796	74.41
222.015	53.93
222.233	6.83
222.451	141.99
222.669	62.12
222.887	90.79
223.105	25.26
223.323	74.41
223.541	-15.7
223.759	25.26
223.977	92.84
224.195	62.12
224.413	60.07
224.631	129.7
224.849	90.79
225.067	41.64
225.285	31.4
225.503	31.4
225.721	27.31
225.939	68.27
226.157	141.99
226.375	49.83
226.592	62.12
226.81	84.65
227.028	27.31
227.246	27.31
227.464	41.64
227.682	23.21
227.9	27.31
228.117	62.12
228.335	58.03
228.553	66.22
228.771	96.94
228.989	72.36
229.206	2.73
229.424	49.83
229.642	-17.75
229.86	92.84
230.077	88.75
230.295	2.73
230.513	135.85
230.731	45.74
230.948	10.92
231.166	64.17
231.384	4.78
231.601	123.56
231.819	43.69
232.037	-42.32
232.254	23.21
232.472	74.41
232.689	29.35
232.907	43.69
233.125	84.65
233.342	-44.37
233.56	2.73
233.777	-1.37
233.995	105.13
234.213	27.31
234.43	49.83
234.648	113.32
234.865	15.02
235.083	43.69
235.3	-11.61
235.518	58.03
235.735	109.22
235.953	12.97
236.17	88.75
236.388	66.22
236.605	111.27
236.822	37.55
237.04	39.59
237.257	41.64
237.475	27.31
237.692	27.31
237.909	29.35
238.127	58.03
238.344	29.35
238.562	62.12
238.779	12.97
238.996	-1.37
239.214	70.31
239.431	37.55
239.648	78.51
239.865	8.87
240.083	78.51
240.3	53.93
240.517	39.59
240.735	43.69
240.952	78.51
241.169	23.21
241.386	78.51
241.603	-40.28
241.821	45.74
242.038	64.17
242.255	84.65
242.472	10.92
242.689	45.74
242.907	101.03
243.124	19.11
243.341	25.26
243.558	29.35
243.775	4.78
243.992	-19.8
244.209	31.4
244.426	19.11
244.643	53.93
244.86	29.35
245.078	33.45
245.295	41.64
245.512	21.16
245.729	31.4
245.946	49.83
246.163	47.79
246.38	51.88
246.597	70.31
246.814	51.88
247.031	39.59
247.248	37.55
247.464	47.79
247.681	-5.46
247.898	55.98
248.115	78.51
248.332	39.59
248.549	111.27
248.766	139.94
248.983	86.7
249.2	125.61
249.417	90.79
249.633	82.6
249.85	-13.65
250.067	68.27
250.284	68.27
250.501	49.83
250.717	41.64
250.934	70.31
251.151	51.88
251.368	0.68
251.585	84.65
251.801	23.21
252.018	-3.41
252.235	60.07
252.451	84.65
252.668	29.35
252.885	37.55
253.102	51.88
253.318	4.78
253.535	6.83
253.752	43.69
253.968	62.12
254.185	66.22
254.401	51.88
254.618	6.83
254.835	10.92
255.051	49.83
255.268	84.65
255.484	17.07
255.701	45.74
255.917	51.88
256.134	21.16
256.351	78.51
256.567	-36.18
256.784	90.79
257	23.21
257.217	60.07
257.433	25.26
257.65	90.79
257.866	105.13
258.082	-60.76
258.299	33.45
258.515	86.7
258.732	60.07
258.948	43.69
259.165	21.16
259.381	53.93
259.597	33.45
259.814	12.97
260.03	2.73
260.246	8.87
260.463	-38.23
260.679	0.68
260.895	88.75
261.112	117.42
261.328	62.12
261.544	84.65
261.761	37.55
261.977	4.78
262.193	43.69
262.409	90.79
262.626	51.88
262.842	-15.7
263.058	58.03
263.274	86.7
263.49	37.55
263.707	35.5
263.923	74.41
264.139	45.74
264.355	37.55
264.571	115.37
264.787	62.12
265.004	64.17
265.22	53.93
265.436	121.51
265.652	37.55
265.868	76.46
266.084	35.5
266.3	33.45
266.516	-15.7
266.732	76.46
266.948	72.36
267.164	37.55
267.38	55.98
267.596	37.55
267.812	141.99
268.028	55.98
268.244	12.97
268.46	60.07
268.676	21.16
268.892	45.74
269.108	-11.61
269.324	64.17
269.54	45.74
269.756	103.08
269.972	-5.46
270.188	74.41
270.403	84.65
270.619	41.64
270.835	-7.51
271.051	-7.51
271.267	60.07
271.483	66.22
271.698	107.18
271.914	47.79
272.13	94.89
272.346	0.68
272.562	-21.85
272.777	74.41
272.993	41.64
273.209	96.94
273.425	53.93
273.64	37.55
273.856	15.02
274.072	68.27
274.287	127.66
274.503	60.07
274.719	86.7
274.934	113.32
275.15	-15.7
275.366	58.03
275.581	125.61
275.797	115.37
276.012	17.07
276.228	4.78
276.444	45.74
276.659	43.69
276.875	96.94
277.09	58.03
277.306	35.5
277.521	41.64
277.737	-30.04
277.952	41.64
278.168	68.27
278.383	86.7
278.599	60.07
278.814	66.22
279.03	23.21
279.245	62.12
279.461	25.26
279.676	58.03
279.892	53.93
280.107	47.79
280.322	53.93
280.538	64.17
280.753	-11.61
280.969	29.35
281.184	60.07
281.399	113.32
281.615	29.35
281.83	98.99
282.045	-13.65
282.26	33.45
282.476	86.7
282.691	43.69
282.906	101.03
283.122	17.07
283.337	70.31
283.552	-54.61
283.767	60.07
283.983	49.83
284.198	0.68
284.413	27.31
284.628	37.55
284.843	107.18
285.058	37.55
285.274	90.79
285.489	29.35
285.704	105.13
285.919	-3.41
286.134	64.17
286.349	127.66
286.564	35.5
286.779	115.37
286.995	21.16
287.21	-9.56
287.425	21.16
287.64	53.93
287.855	47.79
288.07	-30.04
288.285	64.17
288.5	53.93
288.715	33.45
288.93	37.55
289.145	78.51
289.36	31.4
289.575	33.45
289.79	111.27
290.004	12.97
290.219	49.83
290.434	66.22
290.649	105.13
290.864	31.4
291.079	-56.66
291.294	37.55
291.509	29.35
291.724	37.55
291.938	35.5
292.153	70.31
292.368	68.27
292.583	37.55
292.798	90.79
293.012	53.93
293.227	29.35
293.442	47.79
293.657	115.37
293.871	60.07
294.086	90.79
294.301	111.27
294.516	60.07
294.73	29.35
294.945	27.31
295.16	78.51
295.374	98.99
295.589	92.84
295.804	62.12
296.018	35.5
296.233	39.59
296.447	35.5
296.662	-32.08
296.877	74.41
297.091	96.94
297.306	41.64
297.52	55.98
297.735	90.79
297.949	45.74
298.164	41.64
298.378	107.18
298.593	98.99
298.807	31.4
299.022	51.88
299.236	41.64
299.451	10.92
299.665	-1.37
299.88	8.87
300.094	45.74
300.309	49.83
300.523	117.42
300.737	58.03
300.952	2.73
301.166	76.46
301.381	107.18
301.595	101.03
301.809	78.51
302.024	17.07
302.238	58.03
302.452	152.23
302.667	-23.89
302.881	103.08
303.095	43.69
303.309	103.08
303.524	-3.41
303.738	84.65
303.952	90.79
304.166	103.08
304.381	37.55
304.595	105.13
304.809	47.79
305.023	60.07
305.237	45.74
305.452	43.69
305.666	37.55
305.88	47.79
306.094	37.55
306.308	101.03
306.522	41.64
306.736	74.41
306.95	84.65
307.164	-15.7
307.379	15.02
307.593	39.59
307.807	86.7
308.021	121.51
308.235	39.59
308.449	33.45
308.663	62.12
308.877	174.76
309.091	107.18
309.305	113.32
309.519	8.87
309.733	135.85
309.947	80.55
310.161	33.45
310.374	23.21
310.588	86.7
310.802	27.31
311.016	25.26
311.23	-5.46
311.444	19.11
311.658	2.73
311.872	107.18
312.085	53.93
312.299	103.08
312.513	88.75
312.727	115.37
312.941	8.87
313.154	60.07
313.368	64.17
313.582	53.93
313.796	55.98
314.009	41.64
314.223	21.16
314.437	66.22
314.651	53.93
314.864	76.46
315.078	2.73
315.292	33.45
315.505	68.27
315.719	58.03
315.933	53.93
316.146	60.07
316.36	21.16
316.573	70.31
316.787	58.03
317.001	53.93
317.214	53.93
317.428	125.61
317.641	33.45
317.855	27.31
318.068	12.97
318.282	94.89
318.495	47.79
318.709	66.22
318.922	21.16
319.136	90.79
319.349	107.18
319.563	29.35
319.776	53.93
319.99	29.35
320.203	123.56
320.417	-7.51
320.63	74.41
320.843	41.64
321.057	10.92
321.27	82.6
321.483	152.23
321.697	58.03
321.91	98.99
322.124	111.27
322.337	4.78
322.55	66.22
322.763	105.13
322.977	53.93
323.19	70.31
323.403	127.66
323.617	43.69
323.83	86.7
324.043	86.7
324.256	47.79
324.469	-66.9
324.683	80.55
324.896	49.83
325.109	78.51
325.322	33.45
325.535	62.12
325.748	47.79
325.962	-79.19
326.175	113.32
326.388	80.55
326.601	70.31
326.814	117.42
327.027	-23.89
327.24	76.46
327.453	4.78
327.666	115.37
327.879	86.7
328.092	107.18
328.305	58.03
328.518	-3.41
328.731	55.98
328.944	27.31
329.157	12.97
329.37	68.27
329.583	62.12
329.796	31.4
330.009	12.97
330.222	70.31
330.435	76.46
330.648	68.27
330.861	88.75
331.073	25.26
331.286	144.04
331.499	78.51
331.712	21.16
331.925	23.21
332.138	107.18
332.35	70.31
332.563	98.99
332.776	78.51
332.989	49.83
333.202	137.9
333.414	29.35
333.627	72.36
333.84	27.31
334.053	74.41
334.265	35.5
334.478	92.84
334.691	60.07
334.903	82.6
335.116	101.03
335.329	62.12
335.541	33.45
335.754	121.51
335.966	82.6
336.179	33.45
336.392	115.37
336.604	68.27
336.817	62.12
337.029	53.93
337.242	72.36
337.454	55.98
337.667	53.93
337.88	86.7
338.092	62.12
338.305	66.22
338.517	-13.65
338.729	49.83
338.942	60.07
339.154	47.79
339.367	101.03
339.579	90.79
339.792	98.99
340.004	70.31
340.217	29.35
340.429	58.03
340.641	55.98
340.854	84.65
341.066	25.26
341.278	96.94
341.491	78.51
341.703	90.79
341.915	10.92
342.128	39.59
342.34	78.51
342.552	84.65
342.764	90.79
342.977	53.93
343.189	92.84
343.401	62.12
343.613	180.9
343.826	0.68
344.038	74.41
344.25	55.98
344.462	62.12
344.674	68.27
344.886	31.4
345.099	92.84
345.311	68.27
345.523	78.51
345.735	33.45
345.947	78.51
346.159	45.74
346.371	64.17
346.583	45.74
346.795	105.13
347.007	45.74
347.219	53.93
347.431	53.93
347.643	84.65
347.855	4.78
348.067	111.27
348.279	98.99
348.491	86.7
348.703	96.94
348.915	90.79
349.127	129.7
349.339	152.23
349.551	25.26
349.763	90.79
349.975	62.12
350.187	45.74
350.399	49.83
350.61	58.03
350.822	80.55
351.034	129.7
351.246	31.4
351.458	6.83
351.669	101.03
351.881	19.11
352.093	17.07
352.305	88.75
352.517	43.69
352.728	58.03
352.94	96.94
353.152	103.08
353.363	80.55
353.575	21.16
353.787	125.61
353.999	66.22
354.21	74.41
354.422	72.36
354.633	23.21
354.845	35.5
355.057	78.51
355.268	80.55
355.48	94.89
355.692	113.32
355.903	76.46
356.115	-1.37
356.326	25.26
356.538	64.17
356.749	86.7
356.961	96.94
357.172	37.55
357.384	41.64
357.595	66.22
357.807	31.4
358.018	29.35
358.23	43.69
358.441	111.27
358.653	117.42
358.864	86.7
359.075	131.75
359.287	74.41
359.498	86.7
359.709	105.13
359.921	92.84
360.132	41.64
360.344	27.31
360.555	105.13
360.766	58.03
360.977	84.65
361.189	70.31
361.4	49.83
361.611	4.78
361.823	107.18
362.034	84.65
362.245	-34.13
362.456	58.03
362.667	137.9
362.879	37.55
363.09	133.8
363.301	41.64
363.512	80.55
363.723	39.59
363.935	17.07
364.146	191.14
364.357	78.51
364.568	88.75
364.779	115.37
364.99	74.41
365.201	37.55
365.412	125.61
365.623	76.46
365.834	60.07
366.045	-3.41
366.256	84.65
366.467	58.03
366.678	4.78
366.889	84.65
367.1	62.12
367.311	127.66
367.522	109.22
367.733	47.79
367.944	45.74
368.155	144.04
368.366	86.7
368.577	58.03
368.788	19.11
368.999	96.94
369.209	62.12
369.42	53.93
369.631	168.62
369.842	33.45
370.053	76.46
370.264	125.61
370.474	64.17
370.685	29.35
370.896	41.64
371.107	139.94
371.317	45.74
371.528	17.07
371.739	-9.56
371.95	148.14
372.16	74.41
372.371	27.31
372.582	25.26
372.792	45.74
373.003	107.18
373.214	117.42
373.424	123.56
373.635	27.31
373.846	92.84
374.056	92.84
374.267	94.89
374.477	37.55
374.688	76.46
374.898	27.31
375.109	117.42
375.319	86.7
375.53	94.89
375.74	98.99
375.951	88.75
376.161	103.08
376.372	94.89
376.582	74.41
376.793	41.64
377.003	70.31
377.214	25.26
377.424	94.89
377.635	117.42
377.845	96.94
378.055	74.41
378.266	37.55
378.476	49.83
378.686	23.21
378.897	90.79
379.107	74.41
379.317	105.13
379.528	185
379.738	45.74
379.948	84.65
380.158	144.04
380.369	68.27
380.579	98.99
380.789	41.64
380.999	141.99
381.21	55.98
381.42	51.88
381.63	6.83
381.84	123.56
382.05	45.74
382.261	139.94
382.471	35.5
382.681	103.08
382.891	84.65
383.101	76.46
383.311	86.7
383.521	51.88
383.731	98.99
383.941	150.18
384.151	37.55
384.361	76.46
384.571	47.79
384.781	51.88
384.991	103.08
385.201	96.94
385.411	107.18
385.621	88.75
385.831	37.55
386.041	111.27
386.251	82.6
386.461	154.28
386.671	125.61
386.881	86.7
387.091	58.03
387.301	74.41
387.511	92.84
387.72	-15.7
387.93	127.66
388.14	90.79
388.35	74.41
388.56	78.51
388.769	129.7
388.979	160.42
389.189	35.5
389.399	82.6
389.609	103.08
389.818	135.85
390.028	113.32
390.238	92.84
390.447	166.57
390.657	166.57
390.867	107.18
391.076	35.5
391.286	150.18
391.496	125.61
391.705	107.18
391.915	113.32
392.125	123.56
392.334	68.27
392.544	68.27
392.753	94.89
392.963	80.55
393.172	55.98
393.382	70.31
393.591	111.27
393.801	154.28
394.01	113.32
394.22	111.27
394.429	115.37
394.639	60.07
394.848	101.03
395.058	101.03
395.267	129.7
395.477	86.7
395.686	117.42
395.895	109.22
396.105	156.33
396.314	94.89
396.524	111.27
396.733	82.6
396.942	174.76
397.152	148.14
397.361	172.71
397.57	174.76
397.78	148.14
397.989	160.42
398.198	199.34
398.407	180.9
398.617	168.62
398.826	207.53
399.035	158.38
399.244	139.94
399.453	185
399.663	80.55
399.872	125.61
400.081	127.66
400.29	213.67
400.499	135.85
400.708	139.94
400.917	62.12
401.127	178.86
401.336	152.23
401.545	205.48
401.754	127.66
401.963	174.76
402.172	135.85
402.381	121.51
402.59	178.86
402.799	156.33
403.008	160.42
403.217	146.09
403.426	199.34
403.635	111.27
403.844	203.43
404.053	205.48
404.262	119.46
404.471	240.29
404.68	168.62
404.888	260.77
405.097	215.72
405.306	213.67
405.515	217.77
405.724	209.58
405.933	242.34
406.142	199.34
406.35	217.77
406.559	236.2
406.768	293.54
406.977	213.67
407.185	236.2
407.394	283.3
407.603	250.53
407.812	324.26
408.02	297.64
408.229	289.45
408.438	277.16
408.646	287.4
408.855	361.13
409.064	295.59
409.272	236.2
409.481	369.32
409.69	369.32
409.898	344.74
410.107	492.2
410.315	408.23
410.524	441
410.733	469.67
410.941	459.43
411.15	594.59
411.358	434.85
411.567	494.24
411.775	565.92
411.984	582.31
412.192	559.78
412.401	559.78
412.609	623.27
412.818	709.28
413.026	705.18
413.234	692.9
413.443	735.9
413.651	715.42
413.86	610.98
414.068	807.58
414.276	740
414.485	764.57
414.693	846.49
414.901	1016.48
415.11	889.5
415.318	907.93
415.526	991.9
415.734	971.42
415.943	993.95
416.151	1108.63
416.359	1145.5
416.567	1102.49
416.776	1196.7
416.984	1165.98
417.192	1262.23
417.4	1262.23
417.608	1231.51
417.817	1295
418.025	1335.96
418.233	1573.52
418.441	1411.73
418.649	1632.91
418.857	1594
419.065	1657.49
419.273	1598.1
419.481	1794.7
419.689	1874.57
419.897	1958.54
420.105	1987.21
420.313	2011.79
420.521	2130.57
420.729	2054.8
420.937	2286.22
421.145	2282.12
421.353	2519.68
421.561	2521.73
421.769	2499.2
421.977	2669.19
422.185	2560.64
422.393	2765.44
422.601	2888.32
422.809	3035.77
423.017	3009.15
423.224	3019.39
423.432	3256.95
423.64	3142.27
423.848	3537.52
424.056	3486.33
424.263	3711.6
424.471	3713.65
424.679	3848.82
424.887	3957.36
425.094	4045.42
425.302	4158.06
425.51	4217.45
425.718	4477.54
425.925	4358.76
426.133	4784.74
426.341	4741.73
426.548	4956.77
426.756	5079.65
426.964	5089.88
427.171	5382.74
427.379	5562.97
427.586	5534.29
427.794	5735
428.001	6099.53
428.209	6294.09
428.417	6287.95
428.624	6666.82
428.832	6740.55
429.039	6457.93
429.247	6572.61
429.454	7285.31
429.662	7647.8
429.869	7399.99
430.076	7887.41
430.284	7531.06
430.491	7828.02
430.699	8440.36
430.906	8352.3
431.114	8466.99
431.321	8708.65
431.528	9038.37
431.736	9599.51
431.943	9908.76
432.15	9523.74
432.358	9597.46
432.565	10398.22
432.772	10375.69
432.979	10600.97
433.187	10813.96
433.394	10945.03
433.601	11823.61
433.808	11633.15
434.016	11661.82
434.223	12343.79
434.43	12958.18
434.637	12749.29
434.844	13441.5
435.052	13713.88
435.259	13582.81
435.466	13763.03
435.673	13732.31
435.88	14711.24
436.087	15090.12
436.294	15241.67
436.501	14913.99
436.708	15272.39
436.915	15641.02
437.122	16546.22
437.329	16415.15
437.537	16980.39
437.743	17314.21
437.95	17246.63
438.157	17711.52
438.364	18444.69
438.571	18659.73
438.778	18610.57
438.985	20234.61
439.192	19655.04
439.399	20248.95
439.606	19718.53
439.813	20818.28
440.02	22180.18
440.227	21946.72
440.433	21303.65
440.64	22384.98
440.847	21807.45
441.054	22987.08
441.261	23808.32
441.467	23843.13
441.674	24236.34
441.881	25415.97
442.088	25162.03
442.294	24760.62
442.501	25514.28
442.708	26120.48
442.914	27156.75
443.121	28152.06
443.328	27707.65
443.534	29542.63
443.741	28518.65
443.948	28049.66
444.154	30304.48
444.361	30017.76
444.568	30441.69
444.774	30318.81
444.981	30722.26
445.187	31654.09
445.394	32868.53
445.6	32487.61
445.807	35360.91
446.013	34070.69
446.22	34341.02
446.426	35911.81
446.633	36262.02
446.839	37464.17
447.046	35881.1
447.252	37935.21
447.459	37873.77
447.665	37656.68
447.871	38959.19
448.078	40892.47
448.284	39168.08
448.491	40314.95
448.697	41588.78
448.903	42491.94
449.11	42623.01
449.316	42080.3
449.522	42653.73
449.728	43464.72
449.935	43773.97
450.141	44017.67
450.347	45006.84
450.553	43223.06
450.76	44314.63
450.966	45311.99
451.172	45604.85
451.378	46008.3
451.584	45121.53
451.791	46063.6
451.997	45762.54
452.203	47257.56
452.409	46909.41
452.615	46626.79
452.821	44900.35
453.027	44460.04
453.233	47120.35
453.44	45129.72
453.646	45445.11
453.852	45750.26
454.058	46086.12
454.264	44961.79
454.47	46200.81
454.676	44918.78
454.882	46467.05
455.088	42704.93
455.294	43235.35
455.5	43522.07
455.705	43878.41
455.911	42194.98
456.117	41467.95
456.323	40865.85
456.529	38914.14
456.735	40392.77
456.941	39323.73
457.147	38985.82
457.352	37677.16
457.558	37206.13
457.764	37142.64
457.97	36532.35
458.176	35682.44
458.381	35922.05
458.587	34214.05
458.793	33921.19
458.999	32288.96
459.204	34746.52
459.41	33728.68
459.616	31379.66
459.821	31637.7
460.027	31541.45
460.233	30785.75
460.438	29665.51
460.644	29788.39
460.85	27998.46
461.055	27678.98
461.261	27828.48
461.466	25579.81
461.672	25012.52
461.878	26644.76
462.083	25061.68
462.289	24367.41
462.494	24027.45
462.7	22950.22
462.905	22409.56
463.111	23550.28
463.316	23578.95
463.522	22841.68
463.727	22804.81
463.932	22843.73
464.138	22499.67
464.343	22731.09
464.549	21901.66
464.754	22868.3
464.959	22655.31
465.165	22358.36
465.37	21338.47
465.575	20918.64
465.781	21746.01
465.986	21789.02
466.191	21018.99
466.397	20724.08
466.602	19841.4
466.807	20386.16
467.012	20394.36
467.218	20408.69
467.423	20029.82
467.628	20081.02
467.833	21016.94
468.038	20101.5
468.244	19632.51
468.449	20490.61
468.654	19726.72
468.859	19691.9
469.064	19722.62
469.269	18768.27
469.474	18921.87
469.679	19480.96
469.885	18579.86
470.09	19177.86
470.295	18624.91
470.5	18282.9
470.705	18520.46
470.91	18092.44
471.115	17772.96
471.32	18211.22
471.525	18207.12
471.73	17721.76
471.935	17842.59
472.139	16814.51
472.344	17355.17
472.549	17230.24
472.754	16763.31
472.959	16511.41
473.164	16105.91
473.369	16173.49
473.574	16521.65
473.778	16525.74
473.983	15954.36
474.188	16169.4
474.393	15419.84
474.598	15688.12
474.802	15190.47
475.007	15425.98
475.212	15231.43
475.417	14977.48
475.621	14791.11
475.826	14930.37
476.031	14539.21
476.235	14207.44
476.44	14510.54
476.645	14025.17
476.849	14105.04
477.054	13994.45
477.259	13803.99
477.463	13627.87
477.668	13629.91
477.872	13500.89
478.077	13289.95
478.282	12949.99
478.486	12853.73
478.691	12708.33
478.895	12777.96
479.1	12812.78
479.304	12960.23
479.509	12282.35
479.713	12626.41
479.918	12286.45
480.122	12108.27
480.326	12483.05
480.531	12413.42
480.735	12079.6
480.94	12091.89
481.144	12444.14
481.348	11713.02
481.553	12003.83
481.757	11807.22
481.961	12052.98
482.166	12143.09
482.37	11860.47
482.574	11532.79
482.778	11743.74
482.983	11971.06
483.187	11749.88
483.391	11760.12
483.595	11852.28
483.8	11760.12
484.004	11602.43
484.208	11796.98
484.412	11698.68
484.616	11850.23
484.821	11823.61
485.025	11485.69
485.229	11772.41
485.433	11768.31
485.637	11721.21
485.841	11608.57
486.045	11502.08
486.249	11846.13
486.453	11383.29
486.657	11909.62
486.861	11756.02
487.065	11526.65
487.269	11753.98
487.473	11411.96
487.677	11880.95
487.881	11819.51
488.085	11682.3
488.289	11731.45
488.493	11694.58
488.697	11710.97
488.901	11958.77
489.105	11788.79
489.309	11741.69
489.512	11790.84
489.716	11991.54
489.92	11848.18
490.124	11837.94
490.328	11874.81
490.531	12028.4
490.735	12106.23
490.939	12222.96
491.143	11999.73
491.346	11839.99
491.55	12186.1
491.754	12329.45
491.958	12249.58
492.161	12179.95
492.365	12288.5
492.569	12268.02
492.772	12343.79
492.976	12390.89
493.18	12489.2
493.383	12571.11
493.587	12804.58
493.79	12829.16
493.994	12724.71
494.197	12958.18
494.401	13044.2
494.605	13027.81
494.808	13070.82
495.012	13009.38
495.215	13087.2
495.419	13554.14
495.622	13259.23
495.825	13693.4
496.029	13617.63
496.232	13634.01
496.436	13775.32
496.639	14057.94
496.843	13865.43
497.046	14449.1
497.249	14125.52
497.453	14406.09
497.656	14565.84
497.859	14586.32
498.063	14852.55
498.266	15053.25
498.469	15106.5
498.673	15229.38
498.876	15653.31
499.079	15698.36
499.282	15655.36
499.485	16241.07
499.689	15980.98
499.892	16282.03
500.095	16239.03
500.298	17007.02
500.501	16458.16
500.705	17025.45
500.908	17127.85
501.111	17195.43
501.314	17457.57
501.517	17559.97
501.72	17775
501.923	17803.67
502.126	18350.48
502.329	18590.09
502.532	18844.04
502.735	18698.64
502.938	19145.09
503.141	19284.36
503.344	19409.28
503.547	19245.44
503.75	19904.89
503.953	19865.98
504.156	20306.29
504.359	20328.82
504.562	20287.86
504.765	20889.96
504.968	21217.64
505.17	21291.37
505.373	21399.91
505.576	21711.2
505.779	21909.85
505.982	21834.08
506.185	22471
506.387	22280.53
506.59	22669.65
506.793	23275.85
506.996	23175.5
507.198	23671.11
507.401	23411.01
507.604	23865.66
507.807	24162.62
508.009	24379.7
508.212	24496.44
508.415	24742.19
508.617	25057.58
508.82	25596.2
509.022	25215.27
509.225	25844
509.428	25977.12
509.63	26171.68
509.833	26249.5
510.035	26913.04
510.238	26831.12
510.44	26968.34
510.643	27427.08
510.845	27846.91
511.048	27703.56
511.25	27953.41
511.453	28246.27
511.655	29296.88
511.858	28623.09
512.06	28633.33
512.262	29384.94
512.465	29288.68
512.667	29960.42
512.87	29944.03
513.072	30036.19
513.274	30945.49
513.477	30736.6
513.679	30935.25
513.881	31121.62
514.084	31662.28
514.286	31688.9
514.488	31936.71
514.69	33042.61
514.893	32598.2
515.095	32493.75
515.297	33194.16
515.499	33392.81
515.701	33917.09
515.904	34416.8
516.106	34388.13
516.308	34181.28
516.51	35063.96
516.712	35164.31
516.914	35010.71
517.116	35508.36
517.318	35829.9
517.52	35903.62
517.722	36413.57
517.925	36378.75
518.127	37226.61
518.329	37126.26
518.531	37509.23
518.733	37599.34
518.935	38238.31
519.136	38025.32
519.338	38469.73
519.54	38561.89
519.742	39110.74
519.944	39102.55
520.146	39659.6
520.348	39620.69
520.55	40093.77
520.752	39942.22
520.954	40544.32
521.155	40548.42
521.357	41289.78
521.559	41295.92
521.761	41660.46
521.963	41814.06
522.164	41932.84
522.366	41973.8
522.568	42106.92
522.77	42811.42
522.971	42813.47
523.173	43100.18
523.375	43573.27
523.576	42870.81
523.778	43526.16
523.98	43825.17
524.181	44179.46
524.383	44130.31
524.584	45039.61
524.786	44625.92
524.988	44605.44
525.189	44832.77
525.391	44881.92
525.592	45555.7
525.794	45406.2
525.995	45545.46
526.197	45600.75
526.398	45875.18
526.6	46047.21
526.801	46176.23
527.003	46495.72
527.204	46204.91
527.406	47075.29
527.607	47020
527.808	46882.78
528.01	46151.66
528.211	47032.28
528.412	47679.44
528.614	47429.59
528.815	47224.79
529.016	47456.21
529.218	47200.22
529.419	47652.82
529.62	47507.41
529.822	47368.15
530.023	47884.24
530.224	48023.5
530.425	47781.84
530.626	47488.98
530.828	47419.35
531.029	48662.47
531.23	47716.31
531.431	47738.83
531.632	48015.31
531.833	48555.97
532.035	47986.64
532.236	48125.9
532.437	48367.56
532.638	48011.21
532.839	48592.84
533.04	49035.2
533.241	48027.6
533.442	49176.51
533.643	48607.17
533.844	48515.01
534.045	48744.39
534.246	47736.79
534.447	48760.77
534.648	48136.14
534.849	48641.99
535.05	47962.06
535.251	48934.85
535.451	48596.93
535.652	48725.96
535.853	48496.58
536.054	48531.4
536.255	48080.84
536.456	48271.31
536.657	49008.57
536.857	48666.56
537.058	48596.93
537.259	48547.78
537.46	48426.95
537.66	48449.48
537.861	48562.12
538.062	48263.11
538.263	48674.76
538.463	48154.57
538.664	48596.93
538.865	48801.73
539.065	48742.34
539.266	47749.07
539.466	48836.55
539.667	48234.44
539.868	48832.45
540.068	48138.19
540.269	48170.96
540.469	48646.08
540.67	48431.05
540.87	48492.49
541.071	48349.13
541.271	48607.17
541.472	48633.8
541.672	48179.15
541.873	47947.73
542.073	47863.76
542.274	48730.05
542.474	48076.75
542.675	48076.75
542.875	48689.09
543.075	47953.87
543.276	47869.9
543.476	48666.56
543.676	47953.87
543.877	48060.37
544.077	48148.43
544.277	48103.37
544.478	48027.6
544.678	48127.95
544.878	48029.65
545.078	48369.61
545.279	47988.69
545.479	47839.18
545.679	47908.82
545.879	48560.07
546.079	47706.07
546.28	48132.04
546.48	47640.53
546.68	48000.97
546.88	47830.99
547.08	47722.45
547.28	47757.27
547.48	47284.19
547.68	47577.04
547.88	47425.49
548.081	48218.06
548.281	48019.41
548.481	47273.95
548.681	48113.61
548.881	47632.34
549.081	47587.28
549.28	47712.21
549.48	47898.58
549.68	47419.35
549.88	48177.1
550.08	47347.67
550.28	47927.25
550.48	47464.41
550.68	47626.2
550.88	47646.68
551.08	47587.28
551.279	47890.38
551.479	47224.79
551.679	47308.76
551.879	47343.58
552.079	47941.58
552.278	47216.6
552.478	47095.77
552.678	47327.19
552.878	47620.05
553.077	47499.22
553.277	46954.46
553.477	47667.16
553.676	47452.12
553.876	47564.76
554.076	47073.24
554.275	46753.76
554.475	46493.67
554.674	47261.66
554.874	47392.73
555.074	46948.32
555.273	47355.86
555.473	47427.54
555.672	46888.93
555.872	46755.81
556.071	47241.18
556.271	47300.57
556.47	46942.17
556.67	46424.04
556.869	46897.12
557.068	47204.31
557.268	46551.01
557.467	46948.32
557.667	46651.36
557.866	46700.51
558.065	46462.95
558.265	46168.04
558.464	46147.56
558.663	46813.15
558.863	45754.35
559.062	46807.01
559.261	45869.04
559.461	46716.9
559.66	45676.53
559.859	45778.93
560.058	46104.56
560.258	45959.15
560.457	45539.32
560.656	46135.27
560.855	45819.89
561.054	45690.87
561.253	45164.54
561.453	46032.88
561.652	45727.73
561.851	45733.87
562.05	45406.2
562.249	45426.68
562.448	45907.95
562.647	45723.63
562.846	45203.45
563.045	45395.96
563.244	44886.01
563.443	45561.84
563.642	44767.23
563.841	44836.86
564.04	44898.3
564.239	45127.67
564.438	44902.4
564.637	44677.12
564.836	44670.98
565.035	44511.24
565.234	44754.94
565.432	44341.25
565.631	44234.76
565.83	44535.81
566.029	44341.25
566.228	44361.73
566.427	43966.48
566.625	43683.86
566.824	43608.08
567.023	44234.76
567.222	43206.68
567.42	43956.24
567.619	43618.32
567.818	43786.25
568.016	43337.75
568.215	43980.81
568.414	43188.25
568.612	43814.93
568.811	42760.22
569.01	43534.35
569.208	42590.24
569.407	43235.35
569.605	42790.94
569.804	43589.65
570.002	42756.13
570.201	42836
570.4	42418.21
570.598	42582.05
570.797	42358.82
570.995	42696.74
571.193	41990.19
571.392	43161.62
571.59	41859.12
571.789	42049.58
571.987	42186.79
572.186	41941.03
572.384	42223.65
572.582	42043.43
572.781	41879.6
572.979	41166.9
573.177	41644.08
573.376	41672.75
573.574	41359.41
573.772	41504.82
573.971	41211.96
574.169	40837.18
574.367	40724.54
574.565	41078.84
574.763	40634.43
574.962	40962.11
575.16	40269.89
575.358	40716.35
575.556	40374.34
575.754	41297.97
575.952	40368.19
576.151	41021.5
576.349	40353.86
576.547	39962.7
576.745	39893.07
576.943	40149.06
577.141	39673.93
577.339	40206.41
577.537	40077.38
577.735	39774.28
577.933	39381.07
578.131	39667.79
578.329	39145.56
578.527	39139.41
578.725	39100.5
578.923	39817.29
579.121	38832.22
579.319	39041.11
579.516	39555.15
579.714	39075.93
579.912	38721.63
580.11	38643.81
580.308	38662.24
580.506	38381.66
580.704	37986.41
580.901	38097
581.099	38641.76
581.297	38105.19
581.495	38131.81
581.692	38416.48
581.89	37550.19
582.088	37679.21
582.285	37757.03
582.483	37943.4
582.681	37435.5
582.878	37607.53
583.076	37163.12
583.274	37355.63
583.471	36804.73
583.669	36878.46
583.866	36821.11
584.064	37228.66
584.262	36614.27
584.459	36943.99
584.657	36497.53
584.854	36776.06
585.052	36057.22
585.249	36327.55
585.447	36393.09
585.644	35715.21
585.841	36022.4
586.039	36657.28
586.236	35743.88
586.434	35760.26
586.631	35815.56
586.828	35897.48
587.026	35690.63
587.223	35836.04
587.42	35610.76
587.618	35248.27
587.815	34893.97
588.012	35066
588.21	34576.54
588.407	35156.11
588.604	35266.7
588.801	34824.34
588.999	34580.63
589.196	34578.59
589.393	34568.35
589.59	34545.82
589.787	34199.71
589.984	34203.81
590.182	34119.84
590.379	34263.2
590.576	34093.22
590.773	33972.39
590.97	33867.94
591.167	33740.97
591.364	33593.51
591.561	33691.82
591.758	33448.11
591.955	33151.15
592.152	33759.4
592.349	33202.35
592.546	33181.87
592.743	33224.88
592.94	32417.98
593.137	33327.28
593.334	32952.5
593.531	32196.8
593.727	32596.15
593.924	32669.88
594.121	32127.17
594.318	32598.2
594.515	31875.27
594.712	32374.97
594.908	32055.49
595.105	31750.34
595.302	31785.16
595.499	32082.11
595.696	31697.09
595.892	31305.93
596.089	31690.95
596.286	31305.93
596.482	31406.28
596.679	31189.2
596.876	31410.38
597.072	31148.24
597.269	31037.65
597.466	30802.13
597.662	30695.64
597.859	30587.1
598.055	30728.41
598.252	30519.51
598.448	30607.58
598.645	30173.41
598.841	30539.99
599.038	30138.59
599.234	30161.12
599.431	29790.44
599.627	29837.54
599.824	30226.65
600.02	29561.06
600.217	29915.36
600.413	29657.32
600.609	29581.54
600.806	29663.46
601.002	29548.78
601.198	29661.41
601.395	29006.06
601.591	29014.26
601.787	29061.36
601.984	28831.99
602.18	28969.2
602.376	28750.07
602.572	28303.61
602.769	28530.94
602.965	28508.41
603.161	28485.88
603.357	28539.13
603.553	28170.49
603.75	28410.11
603.946	28086.53
604.142	28051.71
604.338	27285.77
604.534	28307.71
604.73	27482.38
604.926	27851.01
605.122	27896.06
605.318	27699.46
605.514	27302.15
605.71	27459.85
605.906	27494.66
606.102	27367.69
606.298	27377.93
606.494	27369.74
606.69	27214.09
606.886	27001.1
607.082	26902.8
607.278	27091.21
607.474	26562.84
607.67	26902.8
607.866	26343.7
608.062	26728.72
608.257	26628.37
608.453	26538.26
608.649	26224.92
608.845	26415.38
609.041	26403.1
609.236	26525.97
609.432	26460.44
609.628	26296.6
609.824	26302.75
610.019	25794.85
610.215	25917.73
610.411	26134.81
610.606	25940.25
610.802	25936.16
610.998	25833.76
611.193	25891.1
611.389	25639.2
611.584	25379.11
611.78	25563.43
611.976	25532.71
612.171	25616.68
612.367	25487.65
612.562	25424.17
612.758	24889.65
612.953	25463.08
613.149	25579.81
613.344	25209.13
613.539	25528.61
613.735	25123.12
613.93	25395.5
614.126	24842.54
614.321	25172.27
614.517	24840.5
614.712	24985.9
614.907	25012.52
615.103	24813.87
615.298	24803.63
615.493	25133.36
615.688	24469.81
615.884	25131.31
616.079	24740.15
616.274	24609.08
616.47	24545.59
616.665	24541.49
616.86	24394.04
617.055	24222.01
617.25	24512.82
617.445	24586.55
617.641	24043.84
617.836	24107.32
618.031	23824.7
618.226	24367.41
618.421	23755.07
618.616	24074.56
618.811	23714.11
619.006	24047.93
619.201	23507.27
619.396	23617.86
619.591	23320.9
619.786	23535.94
619.981	23318.85
620.176	23583.04
620.371	23198.02
620.566	23077.19
620.761	22782.29
620.956	23171.4
621.151	22657.36
621.346	22851.92
621.541	22487.38
621.735	22655.31
621.93	22514
622.125	22493.52
622.32	21938.52
622.515	22114.65
622.709	22057.31
622.904	21739.87
623.099	21664.1
623.294	21686.62
623.488	21530.98
623.683	21715.3
623.878	21236.07
624.072	21377.38
624.267	21152.1
624.462	21242.21
624.656	20631.92
624.851	20926.83
625.046	20582.77
625.24	20396.4
625.435	20201.85
625.629	20267.38
625.824	20334.96
626.018	20257.14
626.213	19820.92
626.407	19925.37
626.602	19501.44
626.796	19935.61
626.991	19698.05
627.185	19681.66
627.38	19235.21
627.574	19313.03
627.768	19282.31
627.963	19009.93
628.157	18684.3
628.352	18831.76
628.546	18608.53
628.74	18860.43
628.935	18477.46
629.129	18420.11
629.323	17985.94
629.517	18145.69
629.712	18094.49
629.906	18114.97
630.1	17625.5
630.294	18153.88
630.489	17953.18
630.683	17748.38
630.877	17387.94
631.071	17342.88
631.265	17408.42
631.459	17553.82
631.653	17392.03
631.848	17060.26
632.042	17076.65
632.236	17076.65
632.43	16929.19
632.624	17000.87
632.818	16843.18
633.012	16724.4
633.206	16511.41
633.4	16447.92
633.594	16075.19
633.788	16341.43
633.982	16271.79
634.176	16017.85
634.369	15876.54
634.563	15747.51
634.757	15987.13
634.951	15774.14
635.145	15606.2
635.339	15704.51
635.533	15567.29
635.726	15503.81
635.92	15268.29
636.114	15456.7
636.308	15305.15
636.501	15272.39
636.695	15018.44
636.889	15210.95
637.083	14778.83
637.276	14836.17
637.47	14784.97
637.664	14823.88
637.857	14909.9
638.051	14504.4
638.244	14584.27
638.438	14361.04
638.632	14371.28
638.825	14186.96
639.019	13988.31
639.212	14103
639.406	14135.76
639.599	13951.45
639.793	14016.98
639.986	13591
640.18	13828.57
640.373	13928.92
640.567	13457.89
640.76	13666.78
640.954	13449.69
641.147	13439.45
641.34	13421.02
641.534	13281.76
641.727	13359.58
641.92	13246.94
642.114	13081.06
642.307	13062.63
642.5	12902.89
642.694	12892.65
642.887	12853.73
643.08	12761.58
643.273	12612.07
643.467	12616.17
643.66	12468.72
643.853	12454.38
644.046	12407.28
644.239	12233.2
644.432	12182
644.626	12110.32
644.819	12231.15
645.012	12227.06
645.205	12012.02
645.398	11856.37
645.591	11762.17
645.784	11862.52
645.977	11633.15
646.17	11903.48
646.363	11598.33
646.556	11430.4
646.749	11485.69
646.942	11633.15
647.135	11463.16
647.328	11358.72
647.521	11317.76
647.714	11207.17
647.907	11094.53
648.099	11076.1
648.292	11151.87
648.485	11102.72
648.678	10744.33
648.871	10906.12
649.064	10920.45
649.256	10955.27
649.449	10770.95
649.642	10594.83
649.835	10574.35
650.027	10729.99
650.22	10471.95
650.413	10541.58
650.605	10611.21
650.798	10347.02
650.991	10449.42
651.183	10232.33
651.376	10048.02
651.568	10252.81
651.761	10127.89
651.954	10056.21
652.146	9986.58
652.339	9972.24
652.531	10013.2
652.724	9867.8
652.916	9632.28
653.109	9757.21
653.301	9490.97
653.494	9628.18
653.686	9347.61
653.879	9683.48
654.071	9753.11
654.263	9290.27
654.456	9355.8
654.648	9318.94
654.84	9284.12
655.033	9175.58
655.225	9204.25
655.417	9159.2
655.61	9110.05
655.802	9165.34
655.994	9013.79
656.186	9081.38
656.379	8729.13
656.571	8946.21
656.763	8743.46
656.955	8860.2
657.148	8737.32
657.34	8774.18
657.532	8583.72
657.724	8606.25
657.916	8540.71
658.108	8587.82
658.3	8403.5
658.492	8366.63
658.684	8309.29
658.876	8450.6
659.068	8290.86
659.26	8239.66
659.452	8073.78
659.644	8268.33
659.836	8059.44
660.028	8178.22
660.22	7868.98
660.412	7948.85
660.604	7907.89
660.796	7928.37
660.988	8073.78
661.18	7983.66
661.372	7621.17
661.563	7768.63
661.755	7807.54
661.947	7627.32
662.139	7561.78
662.331	7612.98
662.522	7500.34
662.714	7529.02
662.906	7248.44
663.097	7432.76
663.289	7227.96
663.481	7299.64
663.673	7393.85
663.864	7238.2
664.056	7217.72
664.247	7254.59
664.439	7047.74
664.631	7275.07
664.822	7242.3
665.014	6978.11
665.205	7156.29
665.397	6814.27
665.588	6978.11
665.78	6906.43
665.971	6783.56
666.163	6943.3
666.354	6709.83
666.546	6775.36
666.737	6763.08
666.929	6679.11
667.12	6734.4
667.311	6705.73
667.503	6453.83
667.694	6681.16
667.885	6373.96
668.077	6701.64
668.268	6482.5
668.459	6433.35
668.651	6488.65
668.842	6396.49
669.033	6136.4
669.224	6267.47
669.416	6324.81
669.607	6171.21
669.798	6222.41
669.989	6335.05
670.18	6029.9
670.371	6163.02
670.563	5962.32
670.754	6113.87
670.945	6091.34
671.136	6058.57
671.327	5990.99
671.518	5990.99
671.709	6009.42
671.9	5843.54
672.091	6087.25
672.282	5892.69
672.473	5841.49
672.664	5845.59
672.855	5788.24
673.046	5861.97
673.237	5904.98
673.428	5767.76
673.619	5757.52
673.809	5665.36
674	5632.6
674.191	5632.6
674.382	5718.61
674.573	5679.7
674.764	5743.19
674.954	5577.3
675.145	5655.12
675.336	5415.51
675.527	5405.27
675.717	5493.33
675.908	5444.18
676.099	5462.62
676.289	5329.5
676.48	5374.55
676.671	5370.46
676.861	5180
677.052	5304.92
677.243	5159.52
677.433	5321.31
677.624	5374.55
677.814	5218.91
678.005	5155.42
678.195	5182.04
678.386	5085.79
678.576	5259.87
678.767	5132.89
678.957	5251.67
679.148	5149.28
679.338	5065.31
679.529	5177.95
679.719	5147.23
679.909	4952.67
680.1	4940.38
680.29	5026.4
680.481	5032.54
680.671	4948.58
680.861	4948.58
681.052	4936.29
681.242	4909.66
681.432	4917.86
681.622	4788.83
681.813	4782.69
682.003	4887.14
682.193	4760.16
682.383	4844.13
682.573	4825.7
682.764	4825.7
682.954	4895.33
683.144	4719.2
683.334	4885.09
683.524	4717.15
683.714	4770.4
683.904	4674.15
684.094	4717.15
684.284	4608.61
684.474	4663.91
684.664	4692.58
684.854	4680.29
685.044	4495.97
685.234	4514.41
685.424	4516.45
685.614	4495.97
685.804	4555.37
685.994	4491.88
686.184	4551.27
686.374	4428.39
686.564	4256.36
686.753	4369
686.943	4420.2
687.133	4369
687.323	4371.05
687.513	4446.82
687.702	4225.64
687.892	4276.84
688.082	4170.35
688.272	4319.85
688.461	4338.28
688.651	4125.29
688.841	4098.67
689.03	4209.26
689.22	4180.59
689.41	3963.5
689.599	4158.06
689.789	4016.75
689.979	4108.91
690.168	4074.09
690.358	4051.56
690.547	3922.54
690.737	3953.26
690.926	4012.65
691.116	3727.99
691.305	3969.65
691.495	3981.93
691.684	3877.49
691.874	3779.18
692.063	3906.16
692.252	3830.38
692.442	3691.12
692.631	3709.55
692.82	3723.89
693.01	3664.5
693.199	3891.82
693.388	3541.62
693.578	3568.24
693.767	3670.64
693.956	3635.83
694.146	3574.39
694.335	3525.24
694.524	3631.73
694.713	3492.47
694.902	3588.72
695.092	3525.24
695.281	3433.08
695.47	3566.2
695.659	3338.87
695.848	3617.4
696.037	3428.98
696.226	3404.41
696.415	3369.59
696.604	3463.8
696.793	3508.85
696.982	3357.3
697.171	3398.26
697.36	3304.06
697.549	3261.05
697.738	3371.64
697.927	3293.82
698.116	3256.95
698.305	3287.67
698.494	3265.14
698.683	3064.44
698.872	3273.34
699.061	3226.23
699.25	3205.75
699.438	3172.99
699.627	3271.29
699.816	3191.42
700.005	3203.71
700.193	3189.37
700.382	3144.31
700.571	3007.1
700.76	3084.92
700.948	3228.28
701.137	3134.07
701.326	3062.4
701.514	3132.03
701.703	3132.03
701.892	3033.72
702.08	3113.6
702.269	3017.34
702.457	2998.91
702.646	2935.42
702.834	3062.4
703.023	2902.65
703.212	3068.54
703.4	3072.64
703.589	3097.21
703.777	3009.15
703.965	3156.6
704.154	3068.54
704.342	2982.53
704.531	2890.37
704.719	2986.62
704.907	2953.85
705.096	2822.78
705.284	2927.23
705.472	2947.71
705.661	2876.03
705.849	2865.79
706.037	2943.61
706.226	2867.84
706.414	2865.79
706.602	2908.8
706.79	3009.15
706.979	2796.16
707.167	2953.85
707.355	2837.12
707.543	2962.05
707.731	2890.37
707.919	2960
708.107	2925.18
708.296	2929.28
708.484	2890.37
708.672	2843.26
708.86	2867.84
709.048	2912.89
709.236	2886.27
709.424	2919.04
709.612	2914.94
709.8	2851.46
709.988	2880.13
710.176	2847.36
710.364	2859.65
710.551	2857.6
710.739	2949.76
710.927	2837.12
711.115	2814.59
711.303	2802.3
711.491	2845.31
711.679	2761.34
711.866	2935.42
712.054	2826.88
712.242	2695.81
712.43	3015.29
712.617	2812.54
712.805	2873.98
712.993	2861.69
713.181	2830.98
713.368	2675.33
713.556	2849.41
713.744	2947.71
713.931	2871.93
714.119	2826.88
714.306	2824.83
714.494	2763.39
714.682	2824.83
714.869	2718.34
715.057	2837.12
715.244	2824.83
715.432	2689.67
715.619	2957.95
715.807	2927.23
715.994	2830.98
716.182	2847.36
716.369	2808.45
716.556	2742.91
716.744	2830.98
716.931	2812.54
717.119	2818.69
717.306	2773.63
717.493	2749.06
717.681	2828.93
717.868	2744.96
718.055	2742.91
718.242	2806.4
718.43	2816.64
718.617	2753.15
718.804	2802.3
718.991	2775.68
719.179	2865.79
719.366	2787.97
719.553	2683.52
719.74	2701.95
719.927	2704
720.114	2761.34
720.301	2878.08
720.488	2736.77
720.676	2765.44
720.863	2759.3
721.05	2882.17
721.237	2783.87
721.424	2863.74
721.611	2718.34
721.798	2665.09
721.985	2765.44
722.172	2775.68
722.358	2722.43
722.545	2673.28
722.732	2706.05
722.919	2968.19
723.106	2683.52
723.293	2738.82
723.48	2636.42
723.667	2765.44
723.853	2691.71
724.04	2738.82
724.227	2753.15
724.414	2773.63
724.6	2757.25
724.787	2765.44
724.974	2726.53
725.161	2720.39
725.347	2622.08
725.534	2667.14
725.72	2777.73
725.907	2847.36
726.094	2695.81
726.28	2642.56
726.467	2767.49
726.653	2660.99
726.84	2753.15
727.027	2792.06
727.213	2617.99
727.4	2851.46
727.586	2677.38
727.773	2685.57
727.959	2568.84
728.145	2583.17
728.332	2695.81
728.518	2742.91
728.705	2742.91
728.891	2769.54
729.077	2716.29
729.264	2753.15
729.45	2810.5
729.636	2796.16
729.823	2601.6
730.009	2595.46
730.195	2720.39
730.382	2728.58
730.568	2740.86
730.754	2722.43
730.94	2673.28
731.126	2720.39
731.313	2695.81
731.499	2706.05
731.685	2617.99
731.871	2648.71
732.057	2628.23
732.243	2581.12
732.429	2669.19
732.615	2652.8
732.801	2683.52
732.987	2650.75
733.173	2626.18
733.359	2613.89
733.545	2740.86
733.731	2640.51
733.917	2747.01
734.103	2572.93
734.289	2550.4
734.475	2609.79
734.661	2749.06
734.847	2656.9
735.033	2669.19
735.219	2534.02
735.404	2613.89
735.59	2642.56
735.776	2554.5
735.962	2515.59
736.148	2550.4
736.333	2617.99
736.519	2513.54
736.705	2654.85
736.89	2617.99
737.076	2462.34
737.262	2523.78
737.447	2409.09
737.633	2501.25
737.819	2531.97
738.004	2486.92
738.19	2638.47
738.375	2497.16
738.561	2597.51
738.747	2445.96
738.932	2486.92
739.118	2601.6
739.303	2513.54
739.489	2519.68
739.674	2517.64
739.859	2577.03
740.045	2400.9
740.23	2491.01
740.416	2302.6
740.601	2347.65
740.786	2327.18
740.972	2351.75
741.157	2445.96
741.342	2241.16
741.528	2411.14
741.713	2413.19
741.898	2368.13
742.084	2316.94
742.269	2409.09
742.454	2321.03
742.639	2384.52
742.824	2302.6
743.01	2312.84
743.195	2439.81
743.38	2265.74
743.565	2261.64
743.75	2296.46
743.935	2210.44
744.12	2345.61
744.305	2237.06
744.49	2179.72
744.675	2245.26
744.86	2206.34
745.045	2310.79
745.23	2151.05
745.415	2249.35
745.6	2218.63
745.785	2177.67
745.97	2118.28
746.155	2171.53
746.34	2220.68
746.525	2022.03
746.71	2175.63
746.895	2105.99
747.079	2091.66
747.264	1985.16
747.449	2103.95
747.634	2163.34
747.819	2097.8
748.003	1929.87
748.188	1938.06
748.373	2075.27
748.557	1995.4
748.742	1915.53
748.927	1991.31
749.111	1974.92
749.296	1989.26
749.481	1954.44
749.665	1946.25
749.85	1837.71
750.034	2110.09
750.219	1958.54
750.404	1847.95
750.588	1886.86
750.773	1772.18
750.957	1843.85
751.141	1800.85
751.326	1919.63
751.51	1761.94
751.695	1796.75
751.879	1847.95
752.064	1798.8
752.248	1774.22
752.432	1806.99
752.617	1761.94
752.801	1675.92
752.985	1643.15
753.17	1739.41
753.354	1626.77
753.538	1729.17
753.722	1618.58
753.907	1651.35
754.091	1639.06
754.275	1632.91
754.459	1675.92
754.643	1571.47
754.828	1602.19
755.012	1487.51
755.196	1573.52
755.38	1577.62
755.564	1528.47
755.748	1583.76
755.932	1534.61
756.116	1522.32
756.3	1589.91
756.484	1434.26
756.668	1512.08
756.852	1493.65
757.036	1485.46
757.22	1417.88
757.404	1397.4
757.588	1444.5
757.772	1458.84
757.956	1419.92
758.14	1421.97
758.323	1372.82
758.507	1454.74
758.691	1376.92
758.875	1362.58
759.059	1407.64
759.242	1454.74
759.426	1317.53
759.61	1430.16
759.794	1344.15
759.977	1307.29
760.161	1303.19
760.345	1325.72
760.528	1350.29
760.712	1299.09
760.895	1276.57
761.079	1258.14
761.263	1284.76
761.446	1342.1
761.63	1319.57
761.813	1215.13
761.997	1233.56
762.18	1163.93
762.364	1141.4
762.547	1225.37
762.731	1243.8
762.914	1249.94
763.098	1112.73
763.281	1192.6
763.464	1204.89
763.648	1159.83
763.831	1143.45
764.015	1200.79
764.198	1143.45
764.381	1120.92
764.564	1057.43
764.748	1198.74
764.931	1135.26
765.114	1170.07
765.297	1131.16
765.481	1198.74
765.664	1141.4
765.847	1106.59
766.03	1176.22
766.213	1094.3
766.397	1100.44
766.58	1079.96
766.763	1118.87
766.946	1120.92
767.129	1112.73
767.312	1155.74
767.495	1108.63
767.678	1141.4
767.861	1125.02
768.044	1057.43
768.227	1024.67
768.41	991.9
768.593	1047.19
768.776	1088.15
768.959	1065.63
769.142	1090.2
769.324	1028.76
769.507	1082.01
769.69	963.23
769.873	996
770.056	1067.67
770.239	1043.1
770.421	1125.02
770.604	1067.67
770.787	975.52
770.97	1034.91
771.152	975.52
771.335	1012.38
771.518	1018.52
771.7	928.41
771.883	977.56
772.066	996
772.248	922.27
772.431	1008.28
772.613	1024.67
772.796	897.69
772.978	950.94
773.161	946.84
773.343	889.5
773.526	918.17
773.708	881.31
773.891	879.26
774.073	950.94
774.256	809.63
774.438	971.42
774.621	899.74
774.803	844.45
774.985	852.64
775.168	875.17
775.35	848.54
775.532	875.17
775.715	811.68
775.897	742.05
776.079	826.01
776.261	840.35
776.444	897.69
776.626	842.4
776.808	758.43
776.99	811.68
777.173	789.15
777.355	778.91
777.537	840.35
777.719	791.2
777.901	707.23
778.083	828.06
778.265	725.66
778.447	723.62
778.629	713.38
778.811	729.76
778.993	740
779.175	746.14
779.357	731.81
779.539	666.27
779.721	731.81
779.903	756.38
780.085	721.57
780.267	762.53
780.449	721.57
780.631	762.53
780.812	715.42
780.994	647.84
781.176	668.32
781.358	637.6
781.54	619.17
781.721	600.74
781.903	721.57
782.085	582.31
782.267	633.5
782.448	625.31
782.63	674.46
782.812	639.65
782.993	613.03
783.175	682.66
783.357	645.79
783.538	656.03
783.72	662.18
783.901	615.07
784.083	582.31
784.264	572.07
784.446	512.67
784.627	596.64
784.809	559.78
784.99	473.76
785.172	608.93
785.353	541.35
785.535	576.16
785.716	516.77
785.897	541.35
786.079	531.11
786.26	567.97
786.441	479.91
786.623	463.52
786.804	508.58
786.985	438.95
787.167	469.67
787.348	520.87
787.529	547.49
787.71	514.72
787.891	404.13
788.073	527.01
788.254	451.24
788.435	570.02
788.616	508.58
788.797	471.72
788.978	535.2
789.159	506.53
789.34	434.85
789.522	430.76
789.703	481.96
789.884	451.24
790.065	494.24
790.246	488.1
790.427	445.09
790.607	426.66
790.788	479.91
790.969	410.28
791.15	445.09
791.331	430.76
791.512	459.43
791.693	461.48
791.874	393.89
792.054	447.14
792.235	385.7
792.416	465.57
792.597	379.56
792.778	400.04
792.958	410.28
793.139	412.32
793.32	400.04
793.5	406.18
793.681	420.52
793.862	357.03
794.042	400.04
794.223	346.79
794.404	359.08
794.584	320.17
794.765	426.66
794.945	395.94
795.126	299.69
795.306	340.65
795.487	346.79
795.667	314.02
795.848	357.03
796.028	303.78
796.209	361.13
796.389	348.84
796.57	314.02
796.75	332.45
796.93	416.42
797.111	225.96
797.291	314.02
797.471	338.6
797.652	350.89
797.832	324.26
798.012	357.03
798.192	332.45
798.373	322.21
798.553	324.26
798.733	365.22
798.913	242.34
799.093	354.98
799.274	328.36
799.454	340.65
799.634	328.36
799.814	334.5
799.994	338.6
800.174	240.29
800.354	410.28
800.534	264.87
800.714	268.97
800.894	287.4
801.074	273.06
801.254	258.73
801.434	301.73
801.614	264.87
801.794	268.97
801.974	606.88
802.154	242.34
802.334	350.89
802.514	271.01
802.693	271.01
802.873	232.1
803.053	305.83
803.233	299.69
803.413	279.21
803.592	217.77
803.772	277.16
803.952	174.76
804.131	258.73
804.311	240.29
804.491	332.45
804.67	246.44
804.85	262.82
805.03	287.4
805.209	256.68
805.389	228.01
805.568	230.06
805.748	242.34
805.928	291.49
806.107	152.23
806.287	258.73
806.466	223.91
806.646	228.01
806.825	258.73
807.004	268.97
807.184	297.64
807.363	268.97
807.543	232.1
807.722	191.14
807.901	266.92
808.081	299.69
808.26	258.73
808.439	199.34
808.619	234.15
808.798	232.1
808.977	207.53
809.156	254.63
809.336	131.75
809.515	211.62
809.694	207.53
809.873	221.86
810.052	246.44
810.231	234.15
810.411	182.95
810.59	266.92
810.769	152.23
810.948	150.18
811.127	238.25
811.306	246.44
811.485	201.38
811.664	168.62
811.843	170.66
812.022	299.69
812.201	176.81
812.38	225.96
812.559	254.63
812.737	211.62
812.916	217.77
813.095	242.34
813.274	187.05
813.453	119.46
813.632	191.14
813.811	217.77
813.989	156.33
814.168	223.91
814.347	213.67
814.526	131.75
814.704	201.38
814.883	211.62
815.062	131.75
815.24	238.25
815.419	115.37
815.598	230.06
815.776	109.22
815.955	174.76
816.133	103.08
816.312	176.81
816.49	127.66
816.669	193.19
816.847	164.52
817.026	152.23
817.204	123.56
817.383	148.14
817.561	185
817.74	240.29
817.918	135.85
818.097	178.86
818.275	209.58
818.453	209.58
818.632	211.62
818.81	242.34
818.988	213.67
819.167	90.79
819.345	144.04
819.523	156.33
819.701	207.53
819.879	182.95
820.058	90.79
820.236	189.1
820.414	215.72
820.592	139.94
820.77	141.99
820.948	205.48
821.127	94.89
821.305	121.51
821.483	213.67
821.661	197.29
821.839	172.71
822.017	103.08
822.195	103.08
822.373	117.42
822.551	156.33
822.729	182.95
822.907	127.66
823.085	152.23
823.262	176.81
823.44	172.71
823.618	111.27
823.796	115.37
823.974	164.52
824.152	135.85
824.329	139.94
824.507	123.56
824.685	119.46
824.863	86.7
825.04	131.75
825.218	19.11
825.396	111.27
825.574	135.85
825.751	119.46
825.929	98.99
826.107	68.27
826.284	98.99
826.462	144.04
826.639	139.94
826.817	74.41
826.994	152.23
827.172	133.8
827.349	191.14
827.527	113.32
827.704	185
827.882	182.95
828.059	127.66
828.237	141.99
828.414	49.83
828.591	78.51
828.769	135.85
828.946	68.27
829.124	123.56
829.301	86.7
829.478	172.71
829.655	127.66
829.833	117.42
830.01	23.21
830.187	185
830.364	70.31
830.542	111.27
830.719	72.36
830.896	80.55
831.073	55.98
831.25	111.27
831.427	137.9
831.604	80.55
831.782	82.6
831.959	98.99
832.136	121.51
832.313	152.23
832.49	53.93
832.667	90.79
832.844	121.51
833.021	158.38
833.198	123.56
833.374	119.46
833.551	152.23
833.728	158.38
833.905	74.41
834.082	170.66
834.259	129.7
834.436	82.6
834.612	156.33
834.789	53.93
834.966	150.18
835.143	139.94
835.319	131.75
835.496	60.07
835.673	78.51
835.85	49.83
836.026	86.7
836.203	119.46
836.38	141.99
836.556	37.55
836.733	119.46
836.909	117.42
837.086	103.08
837.262	27.31
837.439	47.79
837.616	78.51
837.792	82.6
837.968	41.64
838.145	90.79
838.321	51.88
838.498	101.03
838.674	109.22
838.851	68.27
839.027	70.31
839.203	92.84
839.38	78.51
839.556	25.26
839.732	158.38
839.909	125.61
840.085	160.42
840.261	117.42
840.437	117.42
840.614	90.79
840.79	129.7
840.966	88.75
841.142	107.18
841.318	113.32
841.494	92.84
841.671	39.59
841.847	70.31
842.023	78.51
842.199	90.79
842.375	72.36
842.551	144.04
842.727	53.93
842.903	94.89
843.079	88.75
843.255	41.64
843.431	62.12
843.607	86.7
843.783	25.26
843.959	115.37
844.134	98.99
844.31	68.27
844.486	98.99
844.662	107.18
844.838	103.08
845.013	74.41
845.189	70.31
845.365	43.69
845.541	19.11
845.716	156.33
845.892	90.79
846.068	45.74
846.244	58.03
846.419	103.08
846.595	103.08
846.77	-15.7
846.946	74.41
847.122	43.69
847.297	109.22
847.473	127.66
847.648	90.79
847.824	70.31
847.999	12.97
848.175	98.99
848.35	25.26
848.526	92.84
848.701	137.9
848.876	33.45
849.052	78.51
849.227	78.51
849.403	2.73
849.578	53.93
849.753	66.22
849.929	70.31
850.104	66.22
850.279	43.69
850.454	31.4
850.63	70.31
850.805	68.27
850.98	86.7
851.155	35.5
851.33	74.41
851.505	29.35
851.681	72.36
851.856	-7.51
852.031	76.46
852.206	0.68
852.381	103.08
852.556	8.87
852.731	113.32
852.906	68.27
853.081	111.27
853.256	-7.51
853.431	111.27
853.606	31.4
853.781	43.69
853.956	47.79
854.131	82.6
854.305	62.12
854.48	51.88
854.655	60.07
854.83	74.41
855.005	70.31
855.18	33.45
855.354	51.88
855.529	78.51
855.704	64.17
855.879	82.6
856.053	64.17
856.228	31.4
856.403	-36.18
856.577	66.22
856.752	4.78
856.926	25.26
857.101	115.37
857.276	37.55
857.45	62.12
857.625	66.22
857.799	88.75
857.974	31.4
858.148	74.41
858.323	74.41
858.497	53.93
858.672	37.55
858.846	49.83
859.02	70.31
859.195	41.64
859.369	92.84
859.543	51.88
859.718	88.75
859.892	47.79
860.066	72.36
860.241	31.4
860.415	6.83
860.589	-3.41
860.763	92.84
860.938	17.07
861.112	64.17
861.286	121.51
861.46	62.12
861.634	21.16
861.808	10.92
861.982	-17.75
862.157	60.07
862.331	27.31
862.505	6.83
862.679	49.83
862.853	8.87
863.027	45.74
863.201	98.99
863.375	23.21
863.549	82.6
863.722	94.89
863.896	60.07
864.07	51.88
864.244	0.68
864.418	62.12
864.592	70.31
864.766	39.59
864.939	45.74
865.113	41.64
865.287	90.79
865.461	-15.7
865.634	47.79
865.808	39.59
865.982	27.31
866.156	12.97
866.329	82.6
866.503	53.93
866.676	12.97
866.85	8.87
867.024	17.07
867.197	62.12
867.371	25.26
867.544	94.89
867.718	-21.85
867.891	49.83
868.065	51.88
868.238	-62.8
868.412	78.51
868.585	12.97
868.759	-19.8
868.932	51.88
869.105	68.27
869.279	53.93
869.452	43.69
869.625	35.5
869.799	90.79
869.972	103.08
870.145	-7.51
870.319	82.6
870.492	58.03
870.665	41.64
870.838	72.36
871.011	45.74
871.185	6.83
871.358	60.07
871.531	31.4
871.704	-11.61
871.877	-3.41
872.05	64.17
872.223	66.22
872.396	23.21
872.569	31.4
872.742	-3.41
872.915	35.5
873.088	39.59
873.261	58.03
873.434	62.12
873.607	66.22
873.78	19.11
873.953	72.36
874.126	27.31
874.299	21.16
874.471	-19.8
874.644	4.78
874.817	23.21
874.99	66.22
875.163	78.51
875.335	31.4
875.508	-30.04
875.681	21.16
875.853	-27.99
876.026	12.97
876.199	78.51
876.371	70.31
876.544	12.97
876.717	37.55
876.889	29.35
877.062	29.35
877.234	21.16
877.407	41.64
877.579	45.74
877.752	-3.41
877.924	45.74
878.097	60.07
878.269	107.18
878.442	6.83
878.614	53.93
878.786	31.4
878.959	10.92
879.131	21.16
879.303	25.26
879.476	68.27
879.648	-5.46
879.82	35.5
879.993	29.35
880.165	39.59
880.337	-15.7
880.509	49.83
880.681	35.5
880.854	53.93
881.026	35.5
881.198	39.59
881.37	4.78
881.542	70.31
881.714	-27.99
881.886	4.78
882.058	27.31
882.23	-5.46
882.402	62.12
882.574	-11.61
882.746	29.35
882.918	58.03
883.09	41.64
883.262	15.02
883.434	8.87
883.606	70.31
883.778	-19.8
883.95	10.92
884.122	-1.37
884.293	62.12
884.465	39.59
884.637	31.4
884.809	37.55
884.98	60.07
885.152	39.59
885.324	43.69
885.496	6.83
885.667	-13.65
885.839	37.55
886.011	35.5
886.182	60.07
886.354	15.02
886.525	-3.41
886.697	60.07
886.869	10.92
887.04	-30.04
887.212	27.31
887.383	21.16
887.555	41.64
887.726	84.65
887.897	6.83
888.069	92.84
888.24	37.55
888.412	25.26
888.583	37.55
888.754	-3.41
888.926	-1.37
889.097	12.97
889.268	4.78
889.44	51.88
889.611	58.03
889.782	45.74
889.953	-34.13
890.125	78.51
890.296	12.97
890.467	12.97
890.638	12.97
890.809	37.55
890.98	43.69
891.151	103.08
891.323	25.26
891.494	-34.13
891.665	41.64
891.836	55.98
892.007	53.93
892.178	0.68
892.349	-7.51
892.52	78.51
892.691	12.97
892.862	35.5
893.032	-11.61
893.203	76.46
893.374	-52.56
893.545	107.18
893.716	-44.37
893.887	70.31
894.057	4.78
894.228	82.6
894.399	33.45
894.57	-23.89
894.74	53.93
894.911	19.11
895.082	-3.41
895.253	-7.51
895.423	86.7
895.594	41.64
895.764	21.16
895.935	4.78
896.106	58.03
896.276	-7.51
896.447	68.27
896.617	58.03
896.788	31.4
896.958	62.12
897.129	39.59
897.299	70.31
897.47	62.12
897.64	72.36
897.81	6.83
897.981	-38.23
898.151	17.07
898.322	111.27
898.492	92.84
898.662	27.31
898.832	94.89
899.003	41.64
899.173	23.21
899.343	-46.42
899.513	37.55
