Data from USB4F104151__88__11-37-52-237.txt Node

Date: Fri Mar 14 11:37:52 EDT 2025
User: louis
Spectrometer: USB4F10415
Trigger mode: 4
Integration Time (sec): 2.000000E-2
Scans to average: 1
Electric dark correction enabled: true
Nonlinearity correction enabled: false
Boxcar width: 0
XAxis mode: Wavelengths
Number of Pixels in Spectrum: 3648
>>>>>Begin Spectral Data<<<<<
178.204	-43.86
178.424	-43.86
178.644	-43.86
178.864	-27.48
179.084	-54.1
179.304	31.91
179.524	9.39
179.744	-115.54
179.964	44.2
180.184	38.06
180.404	-58.2
180.624	19.63
180.844	-2.9
181.064	13.48
181.283	-2.9
181.503	-7
181.723	29.87
181.943	7.34
182.163	79.02
182.383	-4.95
182.602	-13.14
182.822	46.25
183.042	-0.85
183.262	-9.05
183.482	101.55
183.701	17.58
183.921	36.01
184.141	56.49
184.361	142.5
184.58	7.34
184.8	52.39
185.02	-21.33
185.239	27.82
185.459	36.01
185.679	54.44
185.898	-11.09
186.118	109.74
186.338	19.63
186.557	-9.05
186.777	52.39
186.997	21.67
187.216	52.39
187.436	60.59
187.655	64.68
187.875	138.41
188.095	31.91
188.314	23.72
188.534	52.39
188.753	21.67
188.973	-56.15
189.192	76.97
189.412	25.77
189.631	36.01
189.851	33.96
190.07	66.73
190.29	9.39
190.509	52.39
190.729	40.11
190.948	46.25
191.168	85.16
191.387	44.2
191.607	-23.38
191.826	-0.85
192.045	-21.33
192.265	44.2
192.484	-11.09
192.704	46.25
192.923	-45.91
193.142	58.54
193.362	40.11
193.581	1.19
193.8	48.3
194.02	64.68
194.239	66.73
194.458	25.77
194.678	-33.62
194.897	21.67
195.116	3.24
195.335	21.67
195.555	66.73
195.774	74.92
195.993	3.24
196.212	48.3
196.432	-11.09
196.651	1.19
196.87	25.77
197.089	25.77
197.308	79.02
197.528	68.78
197.747	48.3
197.966	11.43
198.185	52.39
198.404	60.59
198.623	5.29
198.842	-7
199.062	-2.9
199.281	62.63
199.5	-50
199.719	52.39
199.938	68.78
200.157	36.01
200.376	50.35
200.595	9.39
200.814	19.63
201.033	29.87
201.252	48.3
201.471	-2.9
201.69	29.87
201.909	74.92
202.128	27.82
202.347	15.53
202.566	64.68
202.785	3.24
203.004	-17.24
203.223	56.49
203.442	97.45
203.661	3.24
203.879	52.39
204.098	27.82
204.317	-23.38
204.536	50.35
204.755	25.77
204.974	109.74
205.193	31.91
205.411	91.31
205.63	9.39
205.849	97.45
206.068	48.3
206.287	68.78
206.505	36.01
206.724	54.44
206.943	58.54
207.162	7.34
207.381	85.16
207.599	33.96
207.818	23.72
208.037	48.3
208.255	42.15
208.474	54.44
208.693	3.24
208.911	-0.85
209.13	27.82
209.349	79.02
209.567	21.67
209.786	68.78
210.005	3.24
210.223	50.35
210.442	13.48
210.661	56.49
210.879	-21.33
211.098	23.72
211.316	3.24
211.535	46.25
211.753	15.53
211.972	11.43
212.191	62.63
212.409	48.3
212.628	58.54
212.846	64.68
213.065	48.3
213.283	130.22
213.502	40.11
213.72	-35.67
213.938	17.58
214.157	66.73
214.375	-13.14
214.594	79.02
214.812	46.25
215.031	38.06
215.249	74.92
215.467	52.39
215.686	25.77
215.904	3.24
216.122	19.63
216.341	38.06
216.559	44.2
216.778	17.58
216.996	-13.14
217.214	25.77
217.432	3.24
217.651	17.58
217.869	-21.33
218.087	27.82
218.306	60.59
218.524	48.3
218.742	33.96
218.96	15.53
219.179	40.11
219.397	101.55
219.615	48.3
219.833	19.63
220.051	58.54
220.27	42.15
220.488	81.07
220.706	-9.05
220.924	62.63
221.142	9.39
221.36	81.07
221.578	66.73
221.796	126.12
222.015	1.19
222.233	17.58
222.451	68.78
222.669	-33.62
222.887	54.44
223.105	33.96
223.323	60.59
223.541	76.97
223.759	132.26
223.977	19.63
224.195	64.68
224.413	23.72
224.631	93.35
224.849	21.67
225.067	46.25
225.285	-21.33
225.503	79.02
225.721	-15.19
225.939	-35.67
226.157	-13.14
226.375	124.07
226.592	-39.76
226.81	-4.95
227.028	52.39
227.246	68.78
227.464	-52.05
227.682	44.2
227.9	70.83
228.117	70.83
228.335	107.69
228.553	74.92
228.771	54.44
228.989	89.26
229.206	68.78
229.424	56.49
229.642	44.2
229.86	42.15
230.077	40.11
230.295	7.34
230.513	68.78
230.731	93.35
230.948	48.3
231.166	66.73
231.384	3.24
231.601	54.44
231.819	38.06
232.037	7.34
232.254	-37.72
232.472	56.49
232.689	56.49
232.907	33.96
233.125	5.29
233.342	103.59
233.56	17.58
233.777	13.48
233.995	31.91
234.213	58.54
234.43	25.77
234.648	27.82
234.865	76.97
235.083	-9.05
235.3	33.96
235.518	36.01
235.735	79.02
235.953	128.17
236.17	-9.05
236.388	23.72
236.605	-2.9
236.822	21.67
237.04	66.73
237.257	25.77
237.475	31.91
237.692	-25.43
237.909	74.92
238.127	36.01
238.344	13.48
238.562	36.01
238.779	13.48
238.996	36.01
239.214	11.43
239.431	85.16
239.648	25.77
239.865	27.82
240.083	-9.05
240.3	-13.14
240.517	5.29
240.735	119.98
240.952	74.92
241.169	-2.9
241.386	36.01
241.603	60.59
241.821	-93.01
242.038	48.3
242.255	25.77
242.472	56.49
242.689	81.07
242.907	25.77
243.124	-23.38
243.341	54.44
243.558	31.91
243.775	31.91
243.992	21.67
244.209	107.69
244.426	76.97
244.643	31.91
244.86	-25.43
245.078	87.21
245.295	52.39
245.512	74.92
245.729	21.67
245.946	42.15
246.163	44.2
246.38	36.01
246.597	126.12
246.814	31.91
247.031	21.67
247.248	56.49
247.464	-23.38
247.681	40.11
247.898	21.67
248.115	29.87
248.332	3.24
248.549	-0.85
248.766	99.5
248.983	124.07
249.2	83.11
249.417	29.87
249.633	-11.09
249.85	83.11
250.067	-35.67
250.284	79.02
250.501	-0.85
250.717	-35.67
250.934	-56.15
251.151	33.96
251.368	52.39
251.585	42.15
251.801	-0.85
252.018	40.11
252.235	38.06
252.451	42.15
252.668	124.07
252.885	79.02
253.102	79.02
253.318	42.15
253.535	25.77
253.752	50.35
253.968	9.39
254.185	-19.29
254.401	52.39
254.618	19.63
254.835	21.67
255.051	101.55
255.268	19.63
255.484	76.97
255.701	21.67
255.917	83.11
256.134	-33.62
256.351	95.4
256.567	44.2
256.784	25.77
257	56.49
257.217	-4.95
257.433	31.91
257.65	36.01
257.866	76.97
258.082	5.29
258.299	25.77
258.515	107.69
258.732	11.43
258.948	-0.85
259.165	81.07
259.381	64.68
259.597	85.16
259.814	29.87
260.03	19.63
260.246	44.2
260.463	52.39
260.679	142.5
260.895	70.83
261.112	48.3
261.328	68.78
261.544	-15.19
261.761	89.26
261.977	60.59
262.193	13.48
262.409	25.77
262.626	68.78
262.842	42.15
263.058	11.43
263.274	103.59
263.49	29.87
263.707	44.2
263.923	42.15
264.139	-27.48
264.355	19.63
264.571	66.73
264.787	48.3
265.004	5.29
265.22	-13.14
265.436	40.11
265.652	11.43
265.868	-2.9
266.084	52.39
266.3	56.49
266.516	87.21
266.732	74.92
266.948	62.63
267.164	29.87
267.38	-47.96
267.596	97.45
267.812	99.5
268.028	54.44
268.244	91.31
268.46	36.01
268.676	68.78
268.892	99.5
269.108	27.82
269.324	36.01
269.54	58.54
269.756	25.77
269.972	-39.76
270.188	68.78
270.403	46.25
270.619	36.01
270.835	81.07
271.051	44.2
271.267	76.97
271.483	13.48
271.698	44.2
271.914	40.11
272.13	97.45
272.346	46.25
272.562	50.35
272.777	50.35
272.993	27.82
273.209	21.67
273.425	58.54
273.64	29.87
273.856	64.68
274.072	3.24
274.287	70.83
274.503	68.78
274.719	-21.33
274.934	48.3
275.15	74.92
275.366	3.24
275.581	7.34
275.797	58.54
276.012	81.07
276.228	83.11
276.444	101.55
276.659	72.87
276.875	-7
277.09	91.31
277.306	-11.09
277.521	3.24
277.737	64.68
277.952	33.96
278.168	46.25
278.383	46.25
278.599	-27.48
278.814	101.55
279.03	79.02
279.245	56.49
279.461	40.11
279.676	56.49
279.892	-15.19
280.107	19.63
280.322	-19.29
280.538	42.15
280.753	48.3
280.969	31.91
281.184	-60.24
281.399	25.77
281.615	42.15
281.83	3.24
282.045	1.19
282.26	46.25
282.476	36.01
282.691	27.82
282.906	97.45
283.122	83.11
283.337	48.3
283.552	-13.14
283.767	17.58
283.983	-0.85
284.198	23.72
284.413	44.2
284.628	3.24
284.843	66.73
285.058	50.35
285.274	31.91
285.489	46.25
285.704	85.16
285.919	97.45
286.134	44.2
286.349	126.12
286.564	27.82
286.779	-4.95
286.995	-13.14
287.21	21.67
287.425	27.82
287.64	42.15
287.855	27.82
288.07	-0.85
288.285	38.06
288.5	81.07
288.715	46.25
288.93	42.15
289.145	13.48
289.36	119.98
289.575	17.58
289.79	60.59
290.004	54.44
290.219	52.39
290.434	-35.67
290.649	107.69
290.864	122.02
291.079	15.53
291.294	126.12
291.509	9.39
291.724	54.44
291.938	-2.9
292.153	-7
292.368	85.16
292.583	40.11
292.798	74.92
293.012	62.63
293.227	17.58
293.442	91.31
293.657	3.24
293.871	48.3
294.086	38.06
294.301	64.68
294.516	23.72
294.73	48.3
294.945	60.59
295.16	109.74
295.374	-21.33
295.589	83.11
295.804	15.53
296.018	95.4
296.233	105.64
296.447	33.96
296.662	-31.57
296.877	15.53
297.091	72.87
297.306	56.49
297.52	-39.76
297.735	144.55
297.949	36.01
298.164	117.93
298.378	27.82
298.593	50.35
298.807	19.63
299.022	3.24
299.236	130.22
299.451	52.39
299.665	25.77
299.88	58.54
300.094	44.2
300.309	13.48
300.523	79.02
300.737	72.87
300.952	3.24
301.166	68.78
301.381	74.92
301.595	15.53
301.809	40.11
302.024	11.43
302.238	21.67
302.452	103.59
302.667	36.01
302.881	7.34
303.095	-11.09
303.309	-13.14
303.524	81.07
303.738	21.67
303.952	-2.9
304.166	42.15
304.381	58.54
304.595	103.59
304.809	76.97
305.023	27.82
305.237	42.15
305.452	13.48
305.666	19.63
305.88	33.96
306.094	64.68
306.308	56.49
306.522	68.78
306.736	95.4
306.95	48.3
307.164	56.49
307.379	50.35
307.593	15.53
307.807	27.82
308.021	15.53
308.235	25.77
308.449	64.68
308.663	70.83
308.877	119.98
309.091	93.35
309.305	-17.24
309.519	-54.1
309.733	23.72
309.947	33.96
310.161	66.73
310.374	25.77
310.588	72.87
310.802	-21.33
311.016	36.01
311.23	-0.85
311.444	66.73
311.658	-31.57
311.872	68.78
312.085	42.15
312.299	36.01
312.513	25.77
312.727	54.44
312.941	33.96
313.154	83.11
313.368	44.2
313.582	99.5
313.796	60.59
314.009	111.78
314.223	52.39
314.437	95.4
314.651	11.43
314.864	9.39
315.078	140.46
315.292	52.39
315.505	15.53
315.719	64.68
315.933	64.68
316.146	109.74
316.36	25.77
316.573	79.02
316.787	113.83
317.001	101.55
317.214	27.82
317.428	46.25
317.641	1.19
317.855	1.19
318.068	54.44
318.282	31.91
318.495	29.87
318.709	40.11
318.922	44.2
319.136	70.83
319.349	72.87
319.563	107.69
319.776	76.97
319.99	38.06
320.203	52.39
320.417	103.59
320.63	60.59
320.843	56.49
321.057	44.2
321.27	54.44
321.483	56.49
321.697	85.16
321.91	27.82
322.124	3.24
322.337	74.92
322.55	36.01
322.763	-2.9
322.977	42.15
323.19	79.02
323.403	105.64
323.617	38.06
323.83	-25.43
324.043	50.35
324.256	48.3
324.469	58.54
324.683	122.02
324.896	85.16
325.109	46.25
325.322	-25.43
325.535	91.31
325.748	15.53
325.962	36.01
326.175	42.15
326.388	124.07
326.601	81.07
326.814	25.77
327.027	93.35
327.24	103.59
327.453	-4.95
327.666	29.87
327.879	76.97
328.092	72.87
328.305	13.48
328.518	60.59
328.731	70.83
328.944	68.78
329.157	17.58
329.37	31.91
329.583	56.49
329.796	93.35
330.009	68.78
330.222	87.21
330.435	134.31
330.648	130.22
330.861	58.54
331.073	44.2
331.286	36.01
331.499	60.59
331.712	19.63
331.925	-15.19
332.138	79.02
332.35	76.97
332.563	42.15
332.776	54.44
332.989	7.34
333.202	76.97
333.414	66.73
333.627	31.91
333.84	27.82
334.053	97.45
334.265	70.83
334.478	109.74
334.691	27.82
334.903	38.06
335.116	7.34
335.329	64.68
335.541	58.54
335.754	9.39
335.966	13.48
336.179	42.15
336.392	70.83
336.604	27.82
336.817	85.16
337.029	97.45
337.242	31.91
337.454	17.58
337.667	142.5
337.88	58.54
338.092	52.39
338.305	74.92
338.517	72.87
338.729	70.83
338.942	48.3
339.154	-0.85
339.367	5.29
339.579	87.21
339.792	91.31
340.004	52.39
340.217	31.91
340.429	58.54
340.641	-15.19
340.854	58.54
341.066	44.2
341.278	89.26
341.491	74.92
341.703	42.15
341.915	15.53
342.128	13.48
342.34	60.59
342.552	68.78
342.764	23.72
342.977	83.11
343.189	52.39
343.401	101.55
343.613	36.01
343.826	-2.9
344.038	29.87
344.25	74.92
344.462	31.91
344.674	138.41
344.886	3.24
345.099	42.15
345.311	40.11
345.523	23.72
345.735	15.53
345.947	130.22
346.159	-4.95
346.371	44.2
346.583	7.34
346.795	109.74
347.007	113.83
347.219	27.82
347.431	62.63
347.643	81.07
347.855	17.58
348.067	52.39
348.279	-23.38
348.491	87.21
348.703	19.63
348.915	-2.9
349.127	15.53
349.339	93.35
349.551	23.72
349.763	68.78
349.975	29.87
350.187	99.5
350.399	9.39
350.61	48.3
350.822	5.29
351.034	58.54
351.246	58.54
351.458	13.48
351.669	58.54
351.881	150.7
352.093	46.25
352.305	50.35
352.517	-9.05
352.728	97.45
352.94	79.02
353.152	70.83
353.363	-21.33
353.575	62.63
353.787	81.07
353.999	89.26
354.21	99.5
354.422	62.63
354.633	48.3
354.845	105.64
355.057	74.92
355.268	97.45
355.48	42.15
355.692	87.21
355.903	7.34
356.115	33.96
356.326	23.72
356.538	109.74
356.749	76.97
356.961	62.63
357.172	11.43
357.384	17.58
357.595	89.26
357.807	62.63
358.018	48.3
358.23	9.39
358.441	23.72
358.653	97.45
358.864	44.2
359.075	68.78
359.287	50.35
359.498	85.16
359.709	83.11
359.921	48.3
360.132	36.01
360.344	95.4
360.555	38.06
360.766	48.3
360.977	93.35
361.189	117.93
361.4	40.11
361.611	48.3
361.823	68.78
362.034	38.06
362.245	21.67
362.456	74.92
362.667	66.73
362.879	48.3
363.09	-7
363.301	44.2
363.512	52.39
363.723	150.7
363.935	66.73
364.146	91.31
364.357	25.77
364.568	99.5
364.779	7.34
364.99	15.53
365.201	93.35
365.412	60.59
365.623	38.06
365.834	54.44
366.045	48.3
366.256	79.02
366.467	15.53
366.678	42.15
366.889	58.54
367.1	31.91
367.311	79.02
367.522	48.3
367.733	56.49
367.944	85.16
368.155	85.16
368.366	175.27
368.577	97.45
368.788	113.83
368.999	31.91
369.209	52.39
369.42	177.32
369.631	40.11
369.842	11.43
370.053	72.87
370.264	76.97
370.474	58.54
370.685	105.64
370.896	85.16
371.107	64.68
371.317	36.01
371.528	15.53
371.739	31.91
371.95	29.87
372.16	52.39
372.371	60.59
372.582	60.59
372.792	87.21
373.003	40.11
373.214	68.78
373.424	117.93
373.635	52.39
373.846	66.73
374.056	17.58
374.267	74.92
374.477	31.91
374.688	7.34
374.898	-27.48
375.109	25.77
375.319	93.35
375.53	99.5
375.74	115.88
375.951	87.21
376.161	62.63
376.372	17.58
376.582	126.12
376.793	15.53
377.003	-17.24
377.214	68.78
377.424	48.3
377.635	-2.9
377.845	113.83
378.055	142.5
378.266	7.34
378.476	107.69
378.686	60.59
378.897	56.49
379.107	9.39
379.317	89.26
379.528	46.25
379.738	93.35
379.948	48.3
380.158	93.35
380.369	58.54
380.579	101.55
380.789	146.6
380.999	81.07
381.21	48.3
381.42	119.98
381.63	85.16
381.84	79.02
382.05	56.49
382.261	60.59
382.471	89.26
382.681	52.39
382.891	130.22
383.101	68.78
383.311	23.72
383.521	109.74
383.731	60.59
383.941	83.11
384.151	70.83
384.361	44.2
384.571	70.83
384.781	74.92
384.991	62.63
385.201	76.97
385.411	66.73
385.621	111.78
385.831	31.91
386.041	66.73
386.251	13.48
386.461	64.68
386.671	-23.38
386.881	101.55
387.091	44.2
387.301	109.74
387.511	58.54
387.72	48.3
387.93	1.19
388.14	33.96
388.35	56.49
388.56	101.55
388.769	27.82
388.979	56.49
389.189	-4.95
389.399	50.35
389.609	15.53
389.818	81.07
390.028	62.63
390.238	29.87
390.447	117.93
390.657	107.69
390.867	5.29
391.076	89.26
391.286	52.39
391.496	58.54
391.705	97.45
391.915	101.55
392.125	134.31
392.334	31.91
392.544	48.3
392.753	87.21
392.963	66.73
393.172	89.26
393.382	109.74
393.591	140.46
393.801	93.35
394.01	142.5
394.22	109.74
394.429	60.59
394.639	68.78
394.848	83.11
395.058	107.69
395.267	124.07
395.477	134.31
395.686	130.22
395.895	152.74
396.105	109.74
396.314	105.64
396.524	79.02
396.733	81.07
396.942	117.93
397.152	158.89
397.361	64.68
397.57	68.78
397.78	89.26
397.989	189.61
398.198	173.22
398.407	167.08
398.617	101.55
398.826	85.16
399.035	115.88
399.244	99.5
399.453	142.5
399.663	117.93
399.872	126.12
400.081	126.12
400.29	91.31
400.499	101.55
400.708	89.26
400.917	146.6
401.127	74.92
401.336	107.69
401.545	154.79
401.754	76.97
401.963	107.69
402.172	122.02
402.381	97.45
402.59	175.27
402.799	132.26
403.008	101.55
403.217	132.26
403.426	136.36
403.635	189.61
403.844	119.98
404.053	140.46
404.262	91.31
404.471	246.95
404.68	214.18
404.888	160.94
405.097	181.42
405.306	189.61
405.515	191.66
405.724	167.08
405.933	150.7
406.142	138.41
406.35	165.03
406.559	195.75
406.768	257.19
406.977	218.28
407.185	183.46
407.394	263.33
407.603	185.51
407.812	218.28
408.02	226.47
408.229	222.38
408.438	271.53
408.646	208.04
408.855	269.48
409.064	322.73
409.272	292.01
409.481	349.35
409.69	251.05
409.898	312.49
410.107	330.92
410.315	431.27
410.524	318.63
410.733	373.92
410.941	322.73
411.15	388.26
411.358	418.98
411.567	363.69
411.775	373.92
411.984	380.07
412.192	445.6
412.401	484.52
412.609	560.29
412.818	603.3
413.026	625.83
413.234	459.94
413.443	625.83
413.651	537.76
413.86	502.95
414.068	646.3
414.276	693.41
414.485	617.63
414.693	683.17
414.901	652.45
415.11	724.13
415.318	744.61
415.526	722.08
415.734	763.04
415.943	830.62
416.151	953.5
416.359	847.01
416.567	863.39
416.776	902.3
416.984	935.07
417.192	1025.18
417.4	945.31
417.608	961.69
417.817	1143.96
418.025	1115.29
418.233	1189.02
418.441	1150.11
418.649	1195.16
418.857	1332.37
419.065	1315.99
419.273	1420.44
419.481	1350.81
419.689	1473.68
419.897	1533.08
420.105	1588.37
420.313	1582.23
420.521	1606.8
420.729	1686.67
420.937	1748.11
421.145	1750.16
421.353	1903.76
421.561	1979.53
421.769	1969.29
421.977	2172.04
422.185	2030.73
422.393	2229.38
422.601	2315.4
422.809	2288.78
423.017	2364.55
423.224	2450.57
423.432	2462.85
423.64	2407.56
423.848	2821.25
424.056	2731.14
424.263	2956.41
424.471	2866.3
424.679	3017.85
424.887	3122.3
425.094	3339.38
425.302	3253.37
425.51	3318.9
425.718	3458.17
425.925	3501.17
426.133	3662.96
426.341	3791.98
426.548	4013.17
426.756	3966.06
426.964	3966.06
427.171	4254.83
427.379	4379.75
427.586	4467.81
427.794	4559.97
428.001	4813.92
428.209	5168.22
428.417	4904.03
428.624	5545.05
428.832	5375.06
429.039	5303.39
429.247	5303.39
429.454	5860.43
429.662	6016.08
429.869	5712.98
430.076	6081.61
430.284	6028.37
430.491	6298.7
430.699	6659.14
430.906	6489.16
431.114	6691.91
431.321	7023.68
431.528	7081.02
431.736	7523.38
431.943	7918.64
432.15	7545.91
432.358	7685.17
432.565	8205.36
432.772	8133.68
432.979	8621.1
433.187	8680.49
433.394	8727.59
433.601	9364.51
433.808	9174.05
434.016	9270.3
434.223	9505.82
434.43	10390.54
434.637	10112.02
434.844	10837
435.052	11181.06
435.259	10798.09
435.466	10804.23
435.673	10910.72
435.88	11441.15
436.087	12123.12
436.294	12131.31
436.501	11846.65
436.708	12147.7
436.915	12385.26
437.122	12991.46
437.329	13077.48
437.537	13474.78
437.743	13878.23
437.95	13671.39
438.157	14173.14
438.364	14861.26
438.571	14736.33
438.778	14791.62
438.985	16167.86
439.192	15571.9
439.399	16165.81
439.606	15678.4
439.813	16794.54
440.02	17720.22
440.227	17552.29
440.433	17048.49
440.64	17832.86
440.847	17533.86
441.054	18230.16
441.261	19573.63
441.467	18938.76
441.674	19469.19
441.881	20271.99
442.088	20093.82
442.294	19977.08
442.501	20495.22
442.708	20974.44
442.914	21850.97
443.121	22623.06
443.328	22037.34
443.534	23497.54
443.741	23298.89
443.948	22567.76
444.154	24267.58
444.361	24232.76
444.568	24496.95
444.774	24476.47
444.981	24417.08
445.187	25176.87
445.394	26827.54
445.6	26133.28
445.807	28521.21
446.013	27732.74
446.22	27986.69
446.426	29043.44
446.633	29151.98
446.839	30380.76
447.046	29088.49
447.252	30909.14
447.459	30667.48
447.665	30464.73
447.871	32066.24
448.078	33456.81
448.284	31963.84
448.491	32756.41
448.697	34345.63
448.903	34923.16
449.11	35191.44
449.316	34120.35
449.522	34800.28
449.728	35799.69
449.935	35924.61
450.141	36008.58
450.347	37057.14
450.553	35938.95
450.76	36698.75
450.966	37802.6
451.172	37167.73
451.378	37876.33
451.584	37282.42
451.791	38648.41
451.997	38220.39
452.203	38830.68
452.409	38644.32
452.615	38750.81
452.821	37565.04
453.027	36897.4
453.233	38769.24
453.44	37290.61
453.646	37769.83
453.852	38195.81
454.058	38609.5
454.264	37104.24
454.47	38015.59
454.676	37247.6
454.882	38656.6
455.088	35164.82
455.294	36043.4
455.5	36502.14
455.705	36846.2
455.911	35345.04
456.117	34030.24
456.323	34273.95
456.529	32428.73
456.735	34013.86
456.941	32891.57
457.147	32367.29
457.352	31232.72
457.558	31019.73
457.764	31222.48
457.97	30624.47
458.176	30071.52
458.381	29965.03
458.587	28494.58
458.793	28273.4
458.999	27245.32
459.204	28709.62
459.41	27949.82
459.616	26268.44
459.821	26067.74
460.027	26147.61
460.233	25396.01
460.438	24476.47
460.644	24613.68
460.85	23569.22
461.055	23270.22
461.261	23235.4
461.466	21293.93
461.672	20820.84
461.878	22256.47
462.083	20716.4
462.289	20681.58
462.494	20319.09
462.7	19442.56
462.905	18574.22
463.111	19393.41
463.316	19614.59
463.522	19340.16
463.727	19065.74
463.932	19221.38
464.138	18899.85
464.343	18631.57
464.549	18348.95
464.754	18889.61
464.959	19108.74
465.165	18895.75
465.37	18101.14
465.575	17413.02
465.781	18017.18
465.986	18420.63
466.191	17619.87
466.397	17181.6
466.602	16413.62
466.807	16878.51
467.012	17015.72
467.218	16884.65
467.423	16692.14
467.628	17105.83
467.833	17615.77
468.038	16933.8
468.244	16587.69
468.449	17228.71
468.654	16667.56
468.859	16526.25
469.064	16509.87
469.269	15694.78
469.474	15899.58
469.679	16243.63
469.885	15774.65
470.09	15997.88
470.295	15850.42
470.5	15098.82
470.705	15688.64
470.91	15334.34
471.115	15217.6
471.32	15504.32
471.525	15184.83
471.73	14652.36
471.935	14666.7
472.139	14269.39
472.344	14545.87
472.549	14498.77
472.754	14322.64
472.959	13822.94
473.164	13708.25
473.369	13239.26
473.574	14029.78
473.778	13884.37
473.983	13542.36
474.188	13691.87
474.393	12899.3
474.598	13077.48
474.802	12796.9
475.007	12770.28
475.212	12887.01
475.417	12432.36
475.621	12563.43
475.826	12569.58
476.031	12346.35
476.235	12065.78
476.44	12305.39
476.645	12078.07
476.849	12051.44
477.054	11756.54
477.259	11592.7
477.463	11488.25
477.668	11252.73
477.872	11588.6
478.077	11344.89
478.282	10918.92
478.486	11002.88
478.691	10884.1
478.895	10947.59
479.1	10765.32
479.304	10814.47
479.509	10537.99
479.713	10607.62
479.918	10353.68
480.122	10206.22
480.326	10537.99
480.531	10585.1
480.735	10390.54
480.94	10277.9
481.144	10568.71
481.348	10155.02
481.553	10107.92
481.757	10136.59
481.961	10202.13
482.166	10343.44
482.37	10161.17
482.574	10165.26
482.778	10148.88
482.983	10103.82
483.187	10093.58
483.391	10234.89
483.595	9819.16
483.8	9966.61
484.004	10220.56
484.208	10427.4
484.412	10144.78
484.616	10175.5
484.821	10103.82
485.025	9931.8
485.229	10175.5
485.433	10083.34
485.637	10046.48
485.841	9960.47
486.045	9853.97
486.249	10052.63
486.453	10030.1
486.657	10159.12
486.861	10112.02
487.065	9985.04
487.269	10187.79
487.473	9804.82
487.677	10171.41
487.881	10220.56
488.085	10093.58
488.289	10093.58
488.493	10140.69
488.697	10232.85
488.901	10140.69
489.105	10185.74
489.309	10161.17
489.512	10282
489.716	10200.08
489.92	10210.32
490.124	10214.41
490.328	10458.12
490.531	10310.67
490.735	10411.02
490.939	10218.51
491.143	10392.59
491.346	10445.84
491.55	10667.02
491.754	10501.13
491.958	10648.58
492.161	10607.62
492.365	10800.13
492.569	10740.74
492.772	10724.36
492.976	10736.65
493.18	10920.96
493.383	10959.88
493.587	11090.95
493.79	11095.04
493.994	11140.1
494.197	11142.14
494.401	11152.38
494.605	11353.09
494.808	11588.6
495.012	11475.96
495.215	11486.2
495.419	11848.69
495.622	11840.5
495.825	12049.39
496.029	11891.7
496.232	12205.04
496.436	12182.51
496.639	12350.45
496.843	12436.46
497.046	12688.36
497.249	12729.32
497.453	12782.57
497.656	12970.98
497.859	12989.41
498.063	13024.23
498.266	13208.55
498.469	13470.69
498.673	13575.13
498.876	13536.22
499.079	13859.8
499.282	13698.01
499.485	14140.37
499.689	14203.86
499.892	14359.5
500.095	14402.51
500.298	14607.31
500.501	14877.64
500.705	15156.16
500.908	15576
501.111	15397.82
501.314	15377.34
501.517	15598.52
501.72	15897.53
501.923	15616.96
502.126	16317.36
502.329	16464.82
502.532	16368.56
502.735	16841.64
502.938	16937.9
503.141	17005.48
503.344	17585.05
503.547	17296.29
503.75	17666.97
503.953	17910.68
504.156	17988.5
504.359	18314.13
504.562	18561.94
504.765	18899.85
504.968	19043.21
505.17	19008.39
505.373	19155.85
505.576	19665.79
505.779	19837.82
505.982	19682.17
506.185	20171.64
506.387	20401.01
506.59	20753.26
506.793	21109.61
506.996	20913
507.198	21463.91
507.401	21328.74
507.604	21656.42
507.807	21973.85
508.009	22319.96
508.212	22279
508.415	22743.89
508.617	22747.98
508.82	23173.96
509.022	22936.4
509.225	23440.2
509.428	23776.06
509.63	23843.65
509.833	23939.9
510.035	24800.05
510.238	24591.16
510.44	25185.07
510.643	25279.27
510.845	25719.59
511.048	25197.35
511.25	25795.36
511.453	25840.42
511.655	26999.57
511.858	26553.11
512.06	26641.17
512.262	27091.73
512.465	27339.53
512.667	27622.15
512.87	27845.38
513.072	28109.57
513.274	28500.73
513.477	28773.11
513.679	29000.43
513.881	29479.66
514.084	29506.28
514.286	29623.01
514.488	29872.87
514.69	30259.93
514.893	30556.89
515.095	30647
515.297	31365.84
515.499	31003.35
515.701	31617.74
515.904	32008.9
516.106	32092.86
516.308	32570.04
516.51	32928.44
516.712	32942.77
516.914	33102.51
517.116	33223.34
517.318	33694.38
517.52	33919.65
517.722	34106.02
517.925	34359.97
518.127	34634.39
518.329	34816.66
518.531	35144.34
518.733	35760.78
518.935	35566.22
519.136	35875.46
519.338	36338.3
519.54	36698.75
519.742	36555.39
519.944	36745.85
520.146	37284.47
520.348	37507.69
520.55	37782.12
520.752	38058.6
520.954	38601.31
521.155	38453.86
521.357	38998.62
521.559	39197.27
521.761	39287.38
521.963	39195.22
522.164	39653.97
522.366	39985.74
522.568	40348.23
522.77	40139.33
522.971	41028.15
523.173	40327.75
523.375	41087.54
523.576	40981.05
523.778	41394.74
523.98	41949.74
524.181	41970.22
524.383	41769.52
524.584	42238.5
524.786	42269.22
524.988	42353.19
525.189	42705.44
525.391	42877.47
525.592	43252.25
525.794	43231.77
525.995	43254.29
526.197	43526.67
526.398	43008.54
526.6	44093.96
526.801	44134.92
527.003	44139.02
527.204	44175.88
527.406	44773.89
527.607	44397.06
527.808	44847.61
528.01	43981.32
528.211	44751.36
528.412	45746.67
528.614	45130.23
528.815	44997.12
529.016	45552.12
529.218	45171.19
529.419	45332.98
529.62	45642.23
529.822	45234.68
530.023	45283.83
530.224	45855.21
530.425	45494.77
530.626	45158.91
530.828	45484.53
531.029	46273
531.23	45916.65
531.431	46125.55
531.632	45976.05
531.833	46000.62
532.035	45887.98
532.236	46232.04
532.437	46414.31
532.638	45613.55
532.839	46191.08
533.04	46551.52
533.241	45683.19
533.442	46604.77
533.643	46463.46
533.844	46666.21
534.045	46422.5
534.246	45969.9
534.447	46592.48
534.648	46084.59
534.849	46359.02
535.05	46017
535.251	46207.47
535.451	46227.95
535.652	46250.47
535.853	46260.71
536.054	46467.56
536.255	46719.46
536.456	46258.66
536.657	47131.1
536.857	46322.15
537.058	45769.2
537.259	46531.04
537.46	46297.58
537.66	46594.53
537.861	46658.02
538.062	46402.02
538.263	46629.35
538.463	46277.1
538.664	46326.25
538.865	46260.71
539.065	46647.78
539.266	45814.26
539.466	47352.28
539.667	45871.6
539.868	46821.86
540.068	46047.72
540.269	46262.76
540.469	46518.76
540.67	46455.27
540.87	46498.28
541.071	46193.13
541.271	46598.63
541.472	46277.1
541.672	46068.2
541.873	45978.09
542.073	45879.79
542.274	46744.03
542.474	46121.45
542.675	45988.33
542.875	46086.64
543.075	45877.74
543.276	45724.14
543.476	46182.89
543.676	45887.98
543.877	46227.95
544.077	46295.53
544.277	45933.04
544.478	45994.48
544.678	46236.14
544.878	46240.23
545.078	45982.19
545.279	46111.21
545.479	46053.87
545.679	46035.44
545.879	45912.56
546.079	46150.12
546.28	45783.54
546.48	45416.95
546.68	45822.45
546.88	46199.27
547.08	45824.5
547.28	45240.82
547.48	45734.38
547.68	45498.87
547.88	45478.39
548.081	46260.71
548.281	46066.16
548.481	45697.52
548.681	46012.91
548.881	45435.38
549.081	45220.34
549.28	45439.48
549.48	45801.97
549.68	45369.85
549.88	46531.04
550.08	45857.26
550.28	45674.99
550.48	45509.11
550.68	45904.37
550.88	45484.53
551.08	45406.71
551.279	45545.97
551.479	45328.89
551.679	45335.03
551.879	45453.81
552.079	46019.05
552.278	45517.3
552.478	45341.17
552.678	45375.99
552.878	45277.69
553.077	45330.93
553.277	45312.5
553.477	45734.38
553.676	45042.17
553.876	45171.19
554.076	45203.96
554.275	45079.03
554.475	45019.64
554.674	45801.97
554.874	45079.03
555.074	44724.74
555.273	45036.03
555.473	45187.58
555.672	44745.22
555.872	44618.24
556.071	44663.3
556.271	45122.04
556.47	44880.38
556.67	45003.26
556.869	44497.41
557.068	44943.87
557.268	44644.87
557.467	44669.44
557.667	44360.2
557.866	44823.04
558.065	44485.12
558.265	44311.05
558.464	44386.82
558.663	44671.49
558.863	43735.57
559.062	44659.2
559.261	44186.12
559.461	45142.52
559.66	44173.83
559.859	44096.01
560.058	43868.69
560.258	44102.15
560.457	43446.8
560.656	43926.03
560.855	43858.45
561.054	43997.71
561.253	43401.75
561.453	44122.63
561.652	43774.48
561.851	43751.95
562.05	43549.2
562.249	43379.22
562.448	43901.45
562.647	43323.93
562.846	43348.5
563.045	43569.68
563.244	43162.14
563.443	43555.35
563.642	43256.34
563.841	43102.74
564.04	42873.37
564.239	43688.46
564.438	42906.14
564.637	43147.8
564.836	43131.42
565.035	42906.14
565.234	43131.42
565.432	42345
565.631	42715.68
565.83	42897.95
566.029	42529.31
566.228	42465.83
566.427	42807.84
566.625	42383.91
566.824	41746.99
567.023	42281.51
567.222	41820.72
567.42	42551.84
567.619	42218.02
567.818	42578.46
568.016	42058.28
568.215	41820.72
568.414	41935.4
568.612	41953.83
568.811	41802.28
569.01	41833
569.208	41089.59
569.407	41251.38
569.605	40929.85
569.804	41632.3
570.002	40979
570.201	41507.38
570.4	41151.03
570.598	40770.11
570.797	40587.84
570.995	40981.05
571.193	40757.82
571.392	41173.56
571.59	40333.89
571.789	40503.87
571.987	40749.63
572.186	40444.48
572.384	40180.29
572.582	40335.94
572.781	40680
572.979	39866.95
573.177	40073.8
573.376	40575.55
573.574	39643.73
573.772	40038.98
573.971	39443.02
574.169	39559.76
574.367	39506.51
574.565	39977.54
574.763	39502.42
574.962	39156.31
575.16	39082.58
575.358	38888.03
575.556	38812.25
575.754	39639.63
575.952	38638.17
576.151	39293.52
576.349	38416.99
576.547	38586.97
576.745	38675.04
576.943	38859.35
577.141	38500.96
577.339	38494.82
577.537	38421.09
577.735	38072.93
577.933	37724.78
578.131	38144.61
578.329	38212.2
578.527	37689.96
578.725	37980.78
578.923	37786.22
579.121	37509.74
579.319	37841.51
579.516	37827.18
579.714	37595.76
579.912	37530.22
580.11	36985.46
580.308	37444.21
580.506	36940.41
580.704	36389.5
580.901	36553.34
581.099	37192.31
581.297	36590.2
581.495	36465.28
581.692	36868.73
581.89	36133.51
582.088	36829.82
582.285	36156.03
582.483	36358.78
582.681	36123.27
582.878	35656.33
583.076	36125.32
583.274	36278.91
583.471	35685
583.669	35945.09
583.866	35623.56
584.064	35709.58
584.262	35410.57
584.459	35676.81
584.657	35138.19
584.854	35838.6
585.052	34990.74
585.249	35256.98
585.447	35459.73
585.644	34734.74
585.841	34738.84
586.039	34919.06
586.236	34501.28
586.434	34355.87
586.631	34396.83
586.828	34689.69
587.026	34341.53
587.223	34445.98
587.42	34300.58
587.618	33987.24
587.815	33798.82
588.012	33606.31
588.21	33829.54
588.407	34079.39
588.604	33368.75
588.801	33563.31
588.999	33497.77
589.196	33436.33
589.393	33243.82
589.59	33206.96
589.787	33282.73
589.984	33022.64
590.182	32395.96
590.379	33061.55
590.576	32344.77
590.773	32764.6
590.97	32660.15
591.167	32680.63
591.364	32264.89
591.561	32342.72
591.758	32092.86
591.955	31965.89
592.152	32133.82
592.349	31705.8
592.546	31947.46
592.743	32123.58
592.94	30923.47
593.137	31773.38
593.334	31531.72
593.531	30923.47
593.727	31150.8
593.924	31816.39
594.121	30946
594.318	31226.57
594.515	30825.17
594.712	31410.89
594.908	30956.24
595.105	31027.92
595.302	30339.8
595.499	30802.64
595.696	30407.39
595.892	30061.28
596.089	30421.72
596.286	30440.15
596.482	29856.48
596.679	29973.22
596.876	30149.34
597.072	29614.82
597.269	29663.97
597.466	29692.65
597.662	29760.23
597.859	29600.49
598.055	29625.06
598.252	29543.14
598.448	29311.72
598.645	29203.18
598.841	29051.63
599.038	28934.9
599.234	29229.8
599.431	29051.63
599.627	28592.89
599.824	28566.26
600.02	28338.94
600.217	28568.31
600.413	28570.36
600.609	28535.54
600.806	28230.4
601.002	28324.6
601.198	28168.96
601.395	27968.26
601.591	28082.94
601.787	28054.27
601.984	27620.1
602.18	28074.75
602.376	27892.48
602.572	27706.12
602.769	27591.43
602.965	27388.68
603.161	27353.87
603.357	27366.15
603.553	27261.71
603.75	27228.94
603.946	26888.98
604.142	26911.5
604.338	26516.25
604.534	26934.03
604.73	26876.69
604.926	26282.78
605.122	26493.72
605.318	26469.14
605.514	26395.42
605.71	26182.43
605.906	26186.52
606.102	26422.04
606.298	26198.81
606.494	25783.07
606.69	26028.83
606.886	26227.48
607.082	25635.62
607.278	25805.6
607.474	25373.48
607.67	26026.78
607.866	25338.66
608.062	25652
608.257	25525.03
608.453	25643.81
608.649	25297.7
608.845	25262.89
609.041	24994.61
609.236	25269.03
609.432	25387.82
609.628	25490.21
609.824	25125.68
610.019	24687.41
610.215	24863.54
610.411	25125.68
610.606	24474.42
610.802	25180.97
610.998	24750.9
611.193	24521.52
611.389	24607.54
611.584	24718.13
611.78	24578.87
611.976	24611.64
612.171	24425.27
612.367	24404.79
612.562	24046.4
612.758	23929.66
612.953	23948.09
613.149	24283.96
613.344	23702.34
613.539	24318.78
613.735	24095.55
613.93	24218.43
614.126	23839.55
614.321	24109.88
614.517	23919.42
614.712	24195.9
614.907	23876.41
615.103	23868.22
615.298	23362.37
615.493	23948.09
615.688	23518.02
615.884	24015.68
616.079	23339.85
616.274	23491.4
616.47	23345.99
616.665	23509.83
616.86	23372.61
617.055	23632.71
617.25	23372.61
617.445	23567.17
617.641	22618.96
617.836	23255.88
618.031	22604.63
618.226	23046.99
618.421	22932.3
618.616	22926.16
618.811	22424.4
619.006	22836.05
619.201	22465.36
619.396	22819.66
619.591	22057.82
619.786	22823.76
619.981	21853.02
620.176	22430.55
620.371	22104.92
620.566	21846.88
620.761	21621.6
620.956	21918.56
621.151	21281.64
621.346	21654.37
621.541	21224.29
621.735	21740.38
621.93	21312.36
622.125	21166.95
622.32	21029.74
622.515	21207.91
622.709	20861.8
622.904	20853.61
623.099	20607.86
623.294	20792.17
623.488	20511.6
623.683	20478.83
623.878	19946.36
624.072	20044.66
624.267	20110.2
624.462	20052.86
624.656	19604.35
624.851	19741.57
625.046	19520.38
625.24	19741.57
625.435	19395.46
625.629	19444.61
625.824	19118.98
626.018	19086.22
626.213	18942.86
626.407	18803.6
626.602	18457.49
626.796	19004.3
626.991	18705.29
627.185	18451.35
627.38	18400.15
627.574	18410.39
627.768	18207.64
627.963	17935.26
628.157	17814.43
628.352	17884.06
628.546	17826.71
628.74	17867.67
628.935	17501.09
629.129	17836.95
629.323	17267.62
629.517	17468.32
629.712	17183.65
629.906	17408.93
630.1	17003.43
630.294	17335.2
630.489	16825.26
630.683	16870.31
630.877	16536.49
631.071	16614.32
631.265	16927.66
631.459	16526.25
631.653	16485.3
631.848	16282.55
632.042	16100.28
632.236	16065.46
632.43	16055.22
632.624	16239.54
632.818	15696.83
633.012	15625.15
633.206	15877.05
633.4	15702.97
633.594	15541.18
633.788	15449.02
633.982	15438.78
634.176	15449.02
634.369	15213.51
634.563	15197.12
634.757	15201.22
634.951	15213.51
635.145	15023.05
635.339	15121.35
635.533	14932.93
635.726	14916.55
635.92	14611.4
636.114	14695.37
636.308	14502.86
636.501	14418.89
636.695	14470.09
636.889	14222.29
637.083	14203.86
637.276	14166.99
637.47	13988.82
637.664	13954.01
637.857	14035.92
638.051	13867.99
638.244	13759.45
638.438	13829.08
638.632	13730.78
638.825	13583.32
639.019	13378.53
639.212	13302.75
639.406	13229.02
639.599	13183.97
639.793	13212.64
639.986	13083.62
640.18	12977.12
640.373	13020.13
640.567	12704.74
640.76	12987.36
640.954	12614.63
641.147	12651.5
641.34	12678.12
641.534	12471.28
641.727	12671.98
641.92	12590.06
642.114	12479.47
642.307	12209.14
642.5	12372.97
642.694	12090.35
642.887	11924.47
643.08	11926.52
643.273	12051.44
643.467	11762.68
643.66	11607.03
643.853	11883.51
644.046	11637.75
644.239	11631.61
644.432	11701.24
644.626	11580.41
644.819	11482.11
645.012	11607.03
645.205	11414.52
645.398	11238.4
645.591	11115.52
645.784	11148.29
645.977	11095.04
646.17	11088.9
646.363	10982.4
646.556	10740.74
646.749	10939.4
646.942	10890.24
647.135	10537.99
647.328	10718.22
647.521	10785.8
647.714	10472.46
647.907	10515.47
648.099	10505.23
648.292	10431.5
648.485	10445.84
648.678	10251.28
648.871	10185.74
649.064	9882.64
649.256	10294.29
649.449	10085.39
649.642	10077.2
649.835	9858.07
650.027	9903.12
650.22	9800.73
650.413	9903.12
650.605	9839.64
650.798	9587.74
650.991	9579.54
651.183	9712.66
651.376	9505.82
651.568	9501.72
651.761	9434.14
651.954	9280.54
652.146	9141.28
652.339	9376.8
652.531	9174.05
652.724	9235.49
652.916	9065.5
653.109	9069.6
653.301	9151.52
653.494	8891.43
653.686	8979.49
653.879	8918.05
654.071	8600.62
654.263	8709.16
654.456	8647.72
654.648	8711.21
654.84	8475.69
655.033	8639.53
655.225	8608.81
655.417	8432.68
655.61	8322.09
655.802	8365.1
655.994	8254.51
656.186	8399.91
656.379	8111.15
656.571	8094.77
656.763	8180.78
656.955	8064.05
657.148	8041.52
657.34	7900.21
657.532	7885.87
657.724	7797.81
657.916	7922.74
658.108	8014.9
658.3	7636.02
658.492	7777.33
658.684	7656.5
658.876	7492.66
659.068	7724.08
659.26	7611.45
659.452	7595.06
659.644	7513.14
659.836	7298.11
660.028	7582.77
660.22	7220.28
660.412	7373.88
660.604	7291.96
660.796	7339.07
660.988	7320.63
661.18	7230.52
661.372	7076.93
661.563	7205.95
661.755	6902.85
661.947	7048.26
662.139	6865.99
662.331	6915.14
662.522	6861.89
662.714	6841.41
662.906	6693.96
663.097	6710.34
663.289	6605.89
663.481	6622.28
663.673	6605.89
663.864	6503.5
664.056	6456.39
664.247	6585.41
664.439	6292.55
664.631	6380.62
664.822	6349.9
665.014	6394.95
665.205	6313.03
665.397	6153.29
665.588	6327.37
665.78	6220.88
665.971	6190.16
666.163	6239.31
666.354	6077.52
666.546	6089.81
666.737	6007.89
666.929	6044.75
667.12	5977.17
667.311	6003.79
667.503	5958.74
667.694	5913.68
667.885	5833.81
668.077	5876.82
668.268	5747.79
668.459	5901.39
668.651	5725.27
668.842	5837.91
669.033	5635.16
669.224	5729.36
669.416	5620.82
669.607	5581.91
669.798	5473.37
669.989	5635.16
670.18	5565.53
670.371	5643.35
670.563	5422.17
670.754	5454.94
670.945	5399.64
671.136	5456.98
671.327	5454.94
671.518	5389.4
671.709	5407.83
671.9	5315.67
672.091	5092.44
672.282	5233.75
672.473	5049.44
672.664	5059.68
672.855	5031.01
673.046	5241.95
673.237	5160.03
673.428	5168.22
673.619	5114.97
673.809	5106.78
674	5106.78
674.191	5051.49
674.382	5082.21
674.573	4910.18
674.764	4899.94
674.954	5065.82
675.145	4813.92
675.336	4959.33
675.527	4930.66
675.717	4897.89
675.908	4783.2
676.099	4992.09
676.289	4801.63
676.48	4914.27
676.671	4756.58
676.861	4830.3
677.052	4844.64
677.243	4744.29
677.433	4686.95
677.624	4867.17
677.814	4549.73
678.005	4652.13
678.195	4533.35
678.386	4721.76
678.576	4551.78
678.767	4600.93
678.957	4539.49
679.148	4639.84
679.338	4557.93
679.529	4598.88
679.719	4668.52
679.909	4762.72
680.1	4521.06
680.29	4443.24
680.481	4424.81
680.671	4510.82
680.861	4572.26
681.052	4490.34
681.242	4508.77
681.432	4449.38
681.622	4525.16
681.813	4439.14
682.003	4533.35
682.193	4351.08
682.383	4476.01
682.573	4308.07
682.764	4367.46
682.954	4451.43
683.144	4312.17
683.334	4367.46
683.524	4301.93
683.714	4449.38
683.904	4217.96
684.094	4248.68
684.284	4379.75
684.474	4365.42
684.664	4236.39
684.854	4189.29
685.044	4338.79
685.234	4283.5
685.424	4203.63
685.614	4246.63
685.804	4328.55
685.994	4320.36
686.184	4195.43
686.374	4277.35
686.564	4056.17
686.753	4090.99
686.943	4220.01
687.133	4101.23
687.323	4074.6
687.513	4093.04
687.702	4013.17
687.892	4033.65
688.082	4021.36
688.272	3968.11
688.461	3994.73
688.651	3968.11
688.841	4099.18
689.03	4072.56
689.22	3945.58
689.41	3892.34
689.599	3957.87
689.789	3828.85
689.979	3892.34
690.168	3816.56
690.358	3804.27
690.547	3839.09
690.737	3607.67
690.926	3839.09
691.116	3714.16
691.305	3765.36
691.495	3753.07
691.684	3632.24
691.874	3765.36
692.063	3925.1
692.252	3822.7
692.442	3697.78
692.631	3445.88
692.82	3740.79
693.01	3611.76
693.199	3576.95
693.388	3433.59
693.578	3492.98
693.767	3564.66
693.956	3478.65
694.146	3515.51
694.335	3423.35
694.524	3583.09
694.713	3388.53
694.902	3484.79
695.092	3474.55
695.281	3341.43
695.47	3368.06
695.659	3318.9
695.848	3337.34
696.037	3415.16
696.226	3325.05
696.415	3392.63
696.604	3337.34
696.793	3261.56
696.982	3275.9
697.171	3263.61
697.36	3263.61
697.549	3273.85
697.738	3165.31
697.927	3202.17
698.116	3249.27
698.305	3202.17
698.494	3173.5
698.683	3087.48
698.872	3101.82
699.061	3163.26
699.25	3067
699.438	3073.15
699.627	3083.39
699.816	2987.13
700.005	3142.78
700.193	3005.56
700.382	2956.41
700.571	2983.04
700.76	2942.08
700.948	2960.51
701.137	2985.09
701.326	2905.21
701.514	2919.55
701.703	2989.18
701.892	2903.17
702.08	2892.93
702.269	2983.04
702.457	2901.12
702.646	2901.12
702.834	2864.25
703.023	3032.19
703.212	2870.4
703.4	2921.6
703.589	2952.32
703.777	2899.07
703.965	2870.4
704.154	2917.5
704.342	2862.21
704.531	2835.58
704.719	2724.99
704.907	2811.01
705.096	2700.42
705.284	2753.66
705.472	2753.66
705.661	2800.77
705.849	2778.24
706.037	2638.98
706.226	2690.18
706.414	2706.56
706.602	2706.56
706.79	2745.47
706.979	2600.07
707.167	2745.47
707.355	2722.95
707.543	2768
707.731	2593.92
707.919	2778.24
708.107	2669.7
708.296	2708.61
708.484	2647.17
708.672	2673.79
708.86	2643.07
709.048	2692.23
709.236	2577.54
709.424	2628.74
709.612	2628.74
709.8	2649.22
709.988	2753.66
710.176	2538.63
710.364	2569.35
710.551	2604.16
710.739	2591.88
710.927	2499.72
711.115	2532.48
711.303	2655.36
711.491	2485.38
711.679	2575.49
711.866	2604.16
712.054	2518.15
712.242	2569.35
712.43	2557.06
712.617	2583.68
712.805	2591.88
712.993	2606.21
713.181	2452.61
713.368	2641.03
713.556	2505.86
713.744	2477.19
713.931	2518.15
714.119	2534.53
714.306	2638.98
714.494	2645.12
714.682	2522.24
714.869	2499.72
715.057	2514.05
715.244	2557.06
715.432	2669.7
715.619	2735.23
715.807	2464.9
715.994	2598.02
716.182	2493.57
716.369	2548.87
716.556	2514.05
716.744	2600.07
716.931	2524.29
717.119	2489.48
717.306	2610.31
717.493	2485.38
717.681	2544.77
717.868	2432.13
718.055	2462.85
718.242	2415.75
718.43	2442.37
718.617	2485.38
718.804	2501.76
718.991	2401.41
719.179	2436.23
719.366	2487.43
719.553	2495.62
719.74	2567.3
719.927	2446.47
720.114	2450.57
720.301	2501.76
720.488	2389.13
720.676	2499.72
720.863	2540.68
721.05	2530.44
721.237	2454.66
721.424	2423.94
721.611	2552.96
721.798	2440.33
721.985	2423.94
722.172	2485.38
722.358	2374.79
722.545	2493.57
722.732	2442.37
722.919	2495.62
723.106	2399.37
723.293	2436.23
723.48	2329.74
723.667	2428.04
723.853	2444.42
724.04	2366.6
724.227	2401.41
724.414	2430.09
724.6	2487.43
724.787	2417.8
724.974	2421.89
725.161	2417.8
725.347	2454.66
725.534	2446.47
725.72	2403.46
725.907	2473.09
726.094	2409.61
726.28	2366.6
726.467	2321.54
726.653	2456.71
726.84	2401.41
727.027	2462.85
727.213	2360.45
727.4	2448.52
727.586	2342.02
727.773	2325.64
727.959	2364.55
728.145	2444.42
728.332	2405.51
728.518	2370.69
728.705	2415.75
728.891	2329.74
729.077	2319.5
729.264	2380.93
729.45	2350.21
729.636	2464.9
729.823	2399.37
730.009	2317.45
730.195	2395.27
730.382	2452.61
730.568	2296.97
730.754	2366.6
730.94	2329.74
731.126	2385.03
731.313	2419.85
731.499	2331.78
731.685	2321.54
731.871	2309.26
732.057	2466.95
732.243	2342.02
732.429	2382.98
732.615	2421.89
732.801	2452.61
732.987	2401.41
733.173	2337.93
733.359	2294.92
733.545	2354.31
733.731	2233.48
733.917	2311.3
734.103	2358.41
734.289	2360.45
734.475	2387.08
734.661	2458.76
734.847	2313.35
735.033	2233.48
735.219	2329.74
735.404	2391.17
735.59	2409.61
735.776	2286.73
735.962	2315.4
736.148	2231.43
736.333	2225.29
736.519	2350.21
736.705	2352.26
736.89	2294.92
737.076	2251.91
737.262	2200.71
737.447	2264.2
737.633	2253.96
737.819	2182.28
738.004	2313.35
738.19	2190.47
738.375	2266.25
738.561	2217.1
738.747	2145.42
738.932	2231.43
739.118	2331.78
739.303	2200.71
739.489	2284.68
739.674	2258.06
739.859	2174.09
740.045	2030.73
740.23	2342.02
740.416	2090.12
740.601	2247.82
740.786	2155.66
740.972	2106.51
741.157	2102.41
741.342	2155.66
741.528	2067.6
741.713	2167.95
741.898	2190.47
742.084	2114.7
742.269	2135.18
742.454	2163.85
742.639	2153.61
742.824	1977.48
743.01	2081.93
743.195	2083.98
743.38	1987.72
743.565	1959.05
743.75	2108.55
743.935	2030.73
744.12	2059.4
744.305	1936.53
744.49	1991.82
744.675	1993.87
744.86	1981.58
745.045	1985.68
745.23	1950.86
745.415	2004.11
745.6	2012.3
745.785	1967.24
745.97	1889.42
746.155	2028.68
746.34	1879.18
746.525	1815.69
746.71	1969.29
746.895	1793.17
747.079	1895.57
747.264	1823.89
747.449	1827.98
747.634	1870.99
747.819	1887.37
748.003	1819.79
748.188	1854.61
748.373	1821.84
748.557	1903.76
748.742	1756.3
748.927	1723.54
749.111	1877.13
749.296	1733.78
749.481	1764.5
749.665	1799.31
749.85	1635.47
750.034	1733.78
750.219	1707.15
750.404	1748.11
750.588	1692.82
750.773	1701.01
750.957	1698.96
751.141	1653.91
751.326	1666.19
751.51	1631.38
751.695	1539.22
751.879	1526.93
752.064	1567.89
752.248	1619.09
752.432	1547.41
752.617	1533.08
752.801	1571.99
752.985	1420.44
753.17	1535.12
753.354	1535.12
753.538	1551.51
753.722	1477.78
753.907	1485.97
754.091	1504.4
754.275	1504.4
754.459	1453.2
754.643	1481.88
754.828	1445.01
755.012	1467.54
755.196	1389.72
755.38	1416.34
755.564	1498.26
755.748	1379.48
755.932	1322.13
756.116	1467.54
756.3	1393.81
756.484	1375.38
756.668	1342.61
756.852	1379.48
757.036	1324.18
757.22	1395.86
757.404	1354.9
757.588	1254.55
757.772	1264.79
757.956	1328.28
758.14	1361.05
758.323	1162.39
758.507	1215.64
758.691	1244.31
758.875	1260.7
759.059	1277.08
759.242	1139.87
759.426	1270.94
759.61	1184.92
759.794	1121.43
759.977	1170.58
760.161	1213.59
760.345	1148.06
760.528	1172.63
760.712	1119.39
760.895	1203.35
761.079	1123.48
761.263	1129.63
761.446	1068.19
761.63	1172.63
761.813	1131.67
761.997	1131.67
762.18	1074.33
762.364	1096.86
762.547	1035.42
762.731	1072.28
762.914	1164.44
763.098	1033.37
763.281	1100.95
763.464	1053.85
763.648	1082.52
763.831	1088.67
764.015	1035.42
764.198	1062.04
764.381	1113.24
764.564	994.46
764.748	1076.38
764.931	1070.23
765.114	988.32
765.297	1035.42
765.481	1027.23
765.664	959.64
765.847	1006.75
766.03	973.98
766.213	1062.04
766.397	976.03
766.58	971.93
766.763	1072.28
766.946	1039.51
767.129	961.69
767.312	916.64
767.495	986.27
767.678	1082.52
767.861	949.4
768.044	904.35
768.227	945.31
768.41	971.93
768.593	1119.39
768.776	910.49
768.959	988.32
769.142	988.32
769.324	1023.13
769.507	949.4
769.69	859.29
769.873	910.49
770.056	957.6
770.239	859.29
770.421	957.6
770.604	844.96
770.787	941.21
770.97	920.73
771.152	836.77
771.335	842.91
771.518	799.9
771.7	797.85
771.883	847.01
772.066	812.19
772.248	814.24
772.431	924.83
772.613	851.1
772.796	773.28
772.978	777.37
773.161	863.39
773.343	930.97
773.526	840.86
773.708	785.57
773.891	775.33
774.073	806.05
774.256	760.99
774.438	849.05
774.621	672.93
774.803	820.38
774.985	726.18
775.168	816.29
775.35	769.18
775.532	732.32
775.715	838.81
775.897	707.74
776.079	746.66
776.261	808.09
776.444	804
776.626	779.42
776.808	760.99
776.99	740.51
777.173	724.13
777.355	687.26
777.537	703.65
777.719	668.83
777.901	683.17
778.083	691.36
778.265	679.07
778.447	677.02
778.629	650.4
778.811	640.16
778.993	683.17
779.175	595.11
779.357	619.68
779.539	656.54
779.721	650.4
779.903	642.21
780.085	607.39
780.267	668.83
780.449	574.63
780.631	656.54
780.812	652.45
780.994	652.45
781.176	621.73
781.358	601.25
781.54	504.99
781.721	597.15
781.903	591.01
782.085	500.9
782.267	562.34
782.448	617.63
782.63	486.56
782.812	545.95
782.993	552.1
783.175	576.67
783.357	588.96
783.538	615.59
783.72	453.8
783.901	519.33
784.083	515.23
784.264	478.37
784.446	568.48
784.627	552.1
784.809	500.9
784.99	529.57
785.172	519.33
785.353	521.38
785.535	525.47
785.716	472.23
785.897	496.8
786.079	488.61
786.26	496.8
786.441	486.56
786.623	480.42
786.804	418.98
786.985	480.42
787.167	406.69
787.348	451.75
787.529	466.08
787.71	556.19
787.891	375.97
788.073	371.88
788.254	404.64
788.435	435.36
788.616	318.63
788.797	386.21
788.978	468.13
789.159	382.12
789.34	406.69
789.522	457.89
789.703	347.3
789.884	443.56
790.065	423.08
790.246	386.21
790.427	412.84
790.607	330.92
790.788	322.73
790.969	332.97
791.15	402.6
791.331	289.96
791.512	425.12
791.693	306.34
791.874	418.98
792.054	380.07
792.235	375.97
792.416	294.05
792.597	326.82
792.778	367.78
792.958	363.69
793.139	410.79
793.32	390.31
793.5	353.45
793.681	378.02
793.862	337.06
794.042	267.43
794.223	326.82
794.404	388.26
794.584	263.33
794.765	298.15
794.945	308.39
795.126	300.2
795.306	281.77
795.487	332.97
795.667	328.87
795.848	380.07
796.028	267.43
796.209	371.88
796.389	304.29
796.57	335.01
796.75	261.29
796.93	277.67
797.111	251.05
797.291	271.53
797.471	267.43
797.652	353.45
797.832	283.81
798.012	304.29
798.192	271.53
798.373	281.77
798.553	310.44
798.733	304.29
798.913	240.81
799.093	273.57
799.274	296.1
799.454	234.66
799.634	302.25
799.814	238.76
799.994	296.1
800.174	298.15
800.354	236.71
800.534	304.29
800.714	240.81
800.894	255.14
801.074	249
801.254	287.91
801.434	298.15
801.614	201.9
801.794	230.57
801.974	613.54
802.154	318.63
802.334	388.26
802.514	296.1
802.693	300.2
802.873	281.77
803.053	259.24
803.233	240.81
803.413	126.12
803.592	265.38
803.772	238.76
803.952	189.61
804.131	167.08
804.311	255.14
804.491	330.92
804.67	210.09
804.85	210.09
805.03	228.52
805.209	271.53
805.389	205.99
805.568	214.18
805.748	208.04
805.928	226.47
806.107	249
806.287	224.42
806.466	251.05
806.646	195.75
806.825	195.75
807.004	175.27
807.184	199.85
807.363	191.66
807.543	175.27
807.722	183.46
807.901	242.85
808.081	275.62
808.26	191.66
808.439	249
808.619	197.8
808.798	199.85
808.977	167.08
809.156	187.56
809.336	203.94
809.515	124.07
809.694	165.03
809.873	105.64
810.052	187.56
810.231	224.42
810.411	109.74
810.59	187.56
810.769	216.23
810.948	185.51
811.127	85.16
811.306	218.28
811.485	238.76
811.664	230.57
811.843	134.31
812.022	244.9
812.201	214.18
812.38	152.74
812.559	201.9
812.737	189.61
812.916	179.37
813.095	156.84
813.274	171.18
813.453	177.32
813.632	113.83
813.811	132.26
813.989	179.37
814.168	128.17
814.347	142.5
814.526	173.22
814.704	162.98
814.883	142.5
815.062	142.5
815.24	126.12
815.419	111.78
815.598	177.32
815.776	146.6
815.955	156.84
816.133	109.74
816.312	175.27
816.49	169.13
816.669	152.74
816.847	124.07
817.026	179.37
817.204	113.83
817.383	183.46
817.561	146.6
817.74	124.07
817.918	154.79
818.097	167.08
818.275	173.22
818.453	195.75
818.632	146.6
818.81	156.84
818.988	81.07
819.167	134.31
819.345	162.98
819.523	205.99
819.701	113.83
819.879	132.26
820.058	144.55
820.236	140.46
820.414	183.46
820.592	177.32
820.77	115.88
820.948	179.37
821.127	140.46
821.305	113.83
821.483	99.5
821.661	142.5
821.839	165.03
822.017	142.5
822.195	138.41
822.373	154.79
822.551	122.02
822.729	173.22
822.907	140.46
823.085	136.36
823.262	126.12
823.44	103.59
823.618	165.03
823.796	148.65
823.974	156.84
824.152	99.5
824.329	85.16
824.507	160.94
824.685	158.89
824.863	148.65
825.04	115.88
825.218	72.87
825.396	83.11
825.574	111.78
825.751	136.36
825.929	142.5
826.107	150.7
826.284	109.74
826.462	87.21
826.639	64.68
826.817	85.16
826.994	140.46
827.172	119.98
827.349	134.31
827.527	107.69
827.704	89.26
827.882	134.31
828.059	109.74
828.237	122.02
828.414	124.07
828.591	93.35
828.769	134.31
828.946	103.59
829.124	89.26
829.301	27.82
829.478	89.26
829.655	134.31
829.833	115.88
830.01	56.49
830.187	177.32
830.364	128.17
830.542	91.31
830.719	105.64
830.896	148.65
831.073	158.89
831.25	148.65
831.427	52.39
831.604	99.5
831.782	91.31
831.959	66.73
832.136	81.07
832.313	111.78
832.49	83.11
832.667	130.22
832.844	36.01
833.021	81.07
833.198	81.07
833.374	113.83
833.551	44.2
833.728	136.36
833.905	111.78
834.082	33.96
834.259	89.26
834.436	146.6
834.612	68.78
834.789	144.55
834.966	109.74
835.143	52.39
835.319	27.82
835.496	56.49
835.673	60.59
835.85	44.2
836.026	140.46
836.203	117.93
836.38	165.03
836.556	132.26
836.733	76.97
836.909	169.13
837.086	89.26
837.262	-17.24
837.439	62.63
837.616	101.55
837.792	85.16
837.968	91.31
838.145	105.64
838.321	76.97
838.498	76.97
838.674	72.87
838.851	105.64
839.027	50.35
839.203	17.58
839.38	105.64
839.556	50.35
839.732	124.07
839.909	95.4
840.085	38.06
840.261	70.83
840.437	89.26
840.614	87.21
840.79	52.39
840.966	85.16
841.142	85.16
841.318	-29.52
841.494	76.97
841.671	-13.14
841.847	107.69
842.023	-35.67
842.199	58.54
842.375	124.07
842.551	79.02
842.727	68.78
842.903	91.31
843.079	99.5
843.255	105.64
843.431	46.25
843.607	105.64
843.783	38.06
843.959	134.31
844.134	27.82
844.31	76.97
844.486	17.58
844.662	60.59
844.838	76.97
845.013	93.35
845.189	89.26
845.365	42.15
845.541	25.77
845.716	93.35
845.892	31.91
846.068	44.2
846.244	50.35
846.419	25.77
846.595	-64.34
846.77	54.44
846.946	97.45
847.122	-7
847.297	44.2
847.473	101.55
847.648	38.06
847.824	111.78
847.999	68.78
848.175	25.77
848.35	111.78
848.526	83.11
848.701	44.2
848.876	74.92
849.052	122.02
849.227	93.35
849.403	19.63
849.578	-2.9
849.753	36.01
849.929	58.54
850.104	23.72
850.279	-0.85
850.454	19.63
850.63	95.4
850.805	52.39
850.98	72.87
851.155	31.91
851.33	36.01
851.505	27.82
851.681	9.39
851.856	68.78
852.031	105.64
852.206	1.19
852.381	23.72
852.556	48.3
852.731	56.49
852.906	52.39
853.081	33.96
853.256	7.34
853.431	52.39
853.606	85.16
853.781	81.07
853.956	72.87
854.131	19.63
854.305	-7
854.48	48.3
854.655	40.11
854.83	107.69
855.005	9.39
855.18	42.15
855.354	58.54
855.529	27.82
855.704	27.82
855.879	117.93
856.053	-4.95
856.228	70.83
856.403	-9.05
856.577	119.98
856.752	85.16
856.926	31.91
857.101	36.01
857.276	70.83
857.45	124.07
857.625	109.74
857.799	107.69
857.974	5.29
858.148	-4.95
858.323	13.48
858.497	-19.29
858.672	97.45
858.846	81.07
859.02	124.07
859.195	-56.15
859.369	-21.33
859.543	89.26
859.718	119.98
859.892	3.24
860.066	-17.24
860.241	23.72
860.415	3.24
860.589	62.63
860.763	138.41
860.938	3.24
861.112	9.39
861.286	7.34
861.46	42.15
861.634	40.11
861.808	42.15
861.982	25.77
862.157	58.54
862.331	66.73
862.505	27.82
862.679	33.96
862.853	66.73
863.027	-9.05
863.201	7.34
863.375	36.01
863.549	-23.38
863.722	48.3
863.896	111.78
864.07	-31.57
864.244	72.87
864.418	19.63
864.592	52.39
864.766	36.01
864.939	52.39
865.113	-41.81
865.287	42.15
865.461	23.72
865.634	68.78
865.808	-11.09
865.982	7.34
866.156	23.72
866.329	-0.85
866.503	33.96
866.676	93.35
866.85	62.63
867.024	29.87
867.197	44.2
867.371	60.59
867.544	44.2
867.718	33.96
867.891	68.78
868.065	-7
868.238	15.53
868.412	-11.09
868.585	60.59
868.759	-4.95
868.932	15.53
869.105	36.01
869.279	38.06
869.452	5.29
869.625	117.93
869.799	-13.14
869.972	25.77
870.145	-11.09
870.319	42.15
870.492	-15.19
870.665	7.34
870.838	-25.43
871.011	-19.29
871.185	46.25
871.358	5.29
871.531	111.78
871.704	111.78
871.877	79.02
872.05	52.39
872.223	46.25
872.396	9.39
872.569	31.91
872.742	52.39
872.915	19.63
873.088	48.3
873.261	46.25
873.434	-31.57
873.607	70.83
873.78	42.15
873.953	27.82
874.126	113.83
874.299	109.74
874.471	-4.95
874.644	-29.52
874.817	46.25
874.99	7.34
875.163	3.24
875.335	13.48
875.508	60.59
875.681	29.87
875.853	-31.57
876.026	62.63
876.199	36.01
876.371	58.54
876.544	23.72
876.717	38.06
876.889	25.77
877.062	17.58
877.234	-50
877.407	1.19
877.579	44.2
877.752	38.06
877.924	-15.19
878.097	17.58
878.269	-15.19
878.442	-0.85
878.614	81.07
878.786	5.29
878.959	68.78
879.131	-0.85
879.303	46.25
879.476	62.63
879.648	11.43
879.82	31.91
879.993	46.25
880.165	-4.95
880.337	25.77
880.509	31.91
880.681	-0.85
880.854	97.45
881.026	-13.14
881.198	3.24
881.37	-29.52
881.542	48.3
881.714	52.39
881.886	33.96
882.058	85.16
882.23	25.77
882.402	68.78
882.574	-23.38
882.746	52.39
882.918	60.59
883.09	154.79
883.262	9.39
883.434	-15.19
883.606	36.01
883.778	87.21
883.95	27.82
884.122	25.77
884.293	27.82
884.465	97.45
884.637	17.58
884.809	40.11
884.98	27.82
885.152	17.58
885.324	48.3
885.496	5.29
885.667	-0.85
885.839	27.82
886.011	23.72
886.182	52.39
886.354	81.07
886.525	48.3
886.697	42.15
886.869	19.63
887.04	66.73
887.212	-31.57
887.383	50.35
887.555	72.87
887.726	-52.05
887.897	40.11
888.069	25.77
888.24	-39.76
888.412	62.63
888.583	58.54
888.754	3.24
888.926	13.48
889.097	25.77
889.268	46.25
889.44	50.35
889.611	36.01
889.782	52.39
889.953	19.63
890.125	5.29
890.296	36.01
890.467	21.67
890.638	-17.24
890.809	54.44
890.98	-13.14
891.151	38.06
891.323	-11.09
891.494	-9.05
891.665	-37.72
891.836	-21.33
892.007	11.43
892.178	-41.81
892.349	-17.24
892.52	-0.85
892.691	74.92
892.862	-50
893.032	-29.52
893.203	48.3
893.374	25.77
893.545	56.49
893.716	52.39
893.887	103.59
894.057	101.55
894.228	-66.39
894.399	-50
894.57	42.15
894.74	42.15
894.911	7.34
895.082	7.34
895.253	93.35
895.423	15.53
895.594	3.24
895.764	36.01
895.935	85.16
896.106	5.29
896.276	56.49
896.447	-29.52
896.617	25.77
896.788	17.58
896.958	-29.52
897.129	7.34
897.299	-11.09
897.47	27.82
897.64	-33.62
897.81	74.92
897.981	36.01
898.151	19.63
898.322	23.72
898.492	-4.95
898.662	23.72
898.832	17.58
899.003	64.68
899.173	70.83
899.343	-7
899.513	19.63
