Data from USB4F104151__48__13-11-15-880.txt Node

Date: Fri Mar 14 13:11:15 EDT 2025
User: louis
Spectrometer: USB4F10415
Trigger mode: 4
Integration Time (sec): 2.000000E-2
Scans to average: 1
Electric dark correction enabled: true
Nonlinearity correction enabled: false
Boxcar width: 0
XAxis mode: Wavelengths
Number of Pixels in Spectrum: 3648
>>>>>Begin Spectral Data<<<<<
178.204	-37.03
178.424	-37.03
178.644	-37.03
178.864	-75.95
179.084	-100.52
179.304	-6.31
179.524	48.98
179.744	-41.13
179.964	-22.7
180.184	59.22
180.404	22.36
180.624	-41.13
180.844	-24.75
181.064	-16.55
181.283	-6.31
181.503	1.88
181.723	26.45
181.943	-86.19
182.163	67.41
182.383	-16.55
182.602	22.36
182.822	38.74
183.042	-6.31
183.262	-10.41
183.482	-14.51
183.701	38.74
183.921	-30.89
184.141	-8.36
184.361	46.93
184.58	-6.31
184.8	46.93
185.02	-2.22
185.239	14.17
185.459	14.17
185.679	-0.17
185.898	-63.66
186.118	46.93
186.338	-2.22
186.557	16.21
186.777	53.08
186.997	14.17
187.216	42.84
187.436	89.94
187.655	30.55
187.875	51.03
188.095	46.93
188.314	-8.36
188.534	42.84
188.753	-0.17
188.973	18.26
189.192	-8.36
189.412	22.36
189.631	77.65
189.851	10.07
190.07	59.22
190.29	-16.55
190.509	46.93
190.729	-18.6
190.948	71.51
191.168	81.75
191.387	20.31
191.607	-45.23
191.826	40.79
192.045	-6.31
192.265	34.64
192.484	-0.17
192.704	-8.36
192.923	-4.27
193.142	67.41
193.362	18.26
193.581	24.4
193.8	53.08
194.02	81.75
194.239	30.55
194.458	57.17
194.678	28.5
194.897	87.89
195.116	24.4
195.335	38.74
195.555	79.7
195.774	5.97
195.993	79.7
196.212	-26.79
196.432	57.17
196.651	14.17
196.87	-8.36
197.089	85.84
197.308	46.93
197.528	24.4
197.747	-63.66
197.966	75.6
198.185	81.75
198.404	-45.23
198.623	120.66
198.842	-41.13
199.062	55.12
199.281	36.69
199.5	-12.46
199.719	73.56
199.938	-14.51
200.157	24.4
200.376	71.51
200.595	-2.22
200.814	-34.99
201.033	26.45
201.252	79.7
201.471	5.97
201.69	63.32
201.909	24.4
202.128	10.07
202.347	46.93
202.566	38.74
202.785	-10.41
203.004	-6.31
203.223	53.08
203.442	57.17
203.661	-22.7
203.879	8.02
204.098	1.88
204.317	1.88
204.536	120.66
204.755	20.31
204.974	-8.36
205.193	5.97
205.411	48.98
205.63	-2.22
205.849	59.22
206.068	-8.36
206.287	55.12
206.505	-4.27
206.724	-53.42
206.943	30.55
207.162	81.75
207.381	34.64
207.599	75.6
207.818	-14.51
208.037	16.21
208.255	-20.65
208.474	-6.31
208.693	51.03
208.911	3.93
209.13	77.65
209.349	-26.79
209.567	24.4
209.786	91.99
210.005	73.56
210.223	34.64
210.442	-39.08
210.661	79.7
210.879	36.69
211.098	-0.17
211.316	20.31
211.535	-0.17
211.753	71.51
211.972	65.36
212.191	32.6
212.409	-28.84
212.628	-10.41
212.846	-43.18
213.065	34.64
213.283	8.02
213.502	46.93
213.72	14.17
213.938	36.69
214.157	5.97
214.375	63.32
214.594	-51.37
214.812	8.02
215.031	34.64
215.249	12.12
215.467	51.03
215.686	67.41
215.904	30.55
216.122	-26.79
216.341	85.84
216.559	40.79
216.778	32.6
216.996	26.45
217.214	1.88
217.432	20.31
217.651	14.17
217.869	14.17
218.087	22.36
218.306	57.17
218.524	38.74
218.742	38.74
218.96	16.21
219.179	14.17
219.397	87.89
219.615	14.17
219.833	1.88
220.051	-20.65
220.27	98.13
220.488	-51.37
220.706	40.79
220.924	89.94
221.142	-8.36
221.36	-4.27
221.578	-10.41
221.796	-0.17
222.015	46.93
222.233	46.93
222.451	8.02
222.669	34.64
222.887	71.51
223.105	-16.55
223.323	16.21
223.541	-14.51
223.759	18.26
223.977	69.46
224.195	-37.03
224.413	18.26
224.631	114.52
224.849	16.21
225.067	89.94
225.285	-8.36
225.503	24.4
225.721	-10.41
225.939	26.45
226.157	1.88
226.375	42.84
226.592	-63.66
226.81	-20.65
227.028	55.12
227.246	32.6
227.464	-18.6
227.682	42.84
227.9	36.69
228.117	108.37
228.335	48.98
228.553	22.36
228.771	-10.41
228.989	16.21
229.206	89.94
229.424	63.32
229.642	-10.41
229.86	-18.6
230.077	16.21
230.295	67.41
230.513	63.32
230.731	16.21
230.948	20.31
231.166	91.99
231.384	40.79
231.601	34.64
231.819	79.7
232.037	-22.7
232.254	18.26
232.472	-22.7
232.689	5.97
232.907	-24.75
233.125	-14.51
233.342	22.36
233.56	10.07
233.777	-18.6
233.995	75.6
234.213	81.75
234.43	81.75
234.648	-24.75
234.865	24.4
235.083	38.74
235.3	20.31
235.518	-16.55
235.735	32.6
235.953	-0.17
236.17	30.55
236.388	-16.55
236.605	55.12
236.822	18.26
237.04	55.12
237.257	81.75
237.475	-0.17
237.692	79.7
237.909	67.41
238.127	100.18
238.344	85.84
238.562	79.7
238.779	3.93
238.996	18.26
239.214	40.79
239.431	57.17
239.648	10.07
239.865	44.88
240.083	110.42
240.3	-14.51
240.517	-10.41
240.735	14.17
240.952	42.84
241.169	73.56
241.386	-24.75
241.603	5.97
241.821	-28.84
242.038	44.88
242.255	83.8
242.472	-4.27
242.689	59.22
242.907	32.6
243.124	51.03
243.341	40.79
243.558	10.07
243.775	18.26
243.992	24.4
244.209	42.84
244.426	87.89
244.643	71.51
244.86	-59.56
245.078	-16.55
245.295	83.8
245.512	71.51
245.729	-6.31
245.946	26.45
246.163	38.74
246.38	14.17
246.597	73.56
246.814	18.26
247.031	-10.41
247.248	51.03
247.464	63.32
247.681	22.36
247.898	20.31
248.115	10.07
248.332	38.74
248.549	63.32
248.766	8.02
248.983	91.99
249.2	55.12
249.417	22.36
249.633	10.07
249.85	-8.36
250.067	-8.36
250.284	8.02
250.501	-28.84
250.717	69.46
250.934	-32.94
251.151	79.7
251.368	-8.36
251.585	87.89
251.801	14.17
252.018	-0.17
252.235	24.4
252.451	16.21
252.668	10.07
252.885	87.89
253.102	67.41
253.318	48.98
253.535	-55.47
253.752	77.65
253.968	-18.6
254.185	-20.65
254.401	5.97
254.618	-14.51
254.835	-18.6
255.051	75.6
255.268	87.89
255.484	83.8
255.701	38.74
255.917	5.97
256.134	51.03
256.351	12.12
256.567	-30.89
256.784	-12.46
257	12.12
257.217	42.84
257.433	55.12
257.65	22.36
257.866	51.03
258.082	48.98
258.299	5.97
258.515	28.5
258.732	71.51
258.948	57.17
259.165	65.36
259.381	63.32
259.597	-26.79
259.814	30.55
260.03	-43.18
260.246	57.17
260.463	36.69
260.679	94.04
260.895	12.12
261.112	24.4
261.328	26.45
261.544	3.93
261.761	26.45
261.977	34.64
262.193	42.84
262.409	42.84
262.626	-2.22
262.842	-10.41
263.058	1.88
263.274	67.41
263.49	22.36
263.707	77.65
263.923	-10.41
264.139	18.26
264.355	-0.17
264.571	20.31
264.787	26.45
265.004	32.6
265.22	3.93
265.436	22.36
265.652	48.98
265.868	38.74
266.084	-43.18
266.3	14.17
266.516	51.03
266.732	69.46
266.948	-6.31
267.164	26.45
267.38	59.22
267.596	-47.27
267.812	51.03
268.028	-18.6
268.244	38.74
268.46	61.27
268.676	-51.37
268.892	100.18
269.108	-59.56
269.324	-22.7
269.54	-12.46
269.756	32.6
269.972	-12.46
270.188	91.99
270.403	1.88
270.619	38.74
270.835	8.02
271.051	65.36
271.267	24.4
271.483	71.51
271.698	85.84
271.914	-0.17
272.13	-34.99
272.346	30.55
272.562	22.36
272.777	79.7
272.993	83.8
273.209	96.08
273.425	96.08
273.64	40.79
273.856	22.36
274.072	10.07
274.287	-41.13
274.503	-8.36
274.719	-34.99
274.934	18.26
275.15	61.27
275.366	-14.51
275.581	-84.14
275.797	94.04
276.012	26.45
276.228	79.7
276.444	46.93
276.659	38.74
276.875	42.84
277.09	63.32
277.306	16.21
277.521	30.55
277.737	67.41
277.952	5.97
278.168	-26.79
278.383	30.55
278.599	3.93
278.814	87.89
279.03	-10.41
279.245	10.07
279.461	69.46
279.676	75.6
279.892	-67.75
280.107	-28.84
280.322	98.13
280.538	16.21
280.753	-20.65
280.969	26.45
281.184	5.97
281.399	48.98
281.615	14.17
281.83	71.51
282.045	5.97
282.26	-0.17
282.476	18.26
282.691	83.8
282.906	34.64
283.122	48.98
283.337	75.6
283.552	14.17
283.767	102.23
283.983	87.89
284.198	28.5
284.413	53.08
284.628	26.45
284.843	40.79
285.058	63.32
285.274	75.6
285.489	40.79
285.704	120.66
285.919	-43.18
286.134	-8.36
286.349	36.69
286.564	53.08
286.779	63.32
286.995	20.31
287.21	42.84
287.425	112.47
287.64	-18.6
287.855	30.55
288.07	-47.27
288.285	59.22
288.5	73.56
288.715	38.74
288.93	-20.65
289.145	59.22
289.36	69.46
289.575	18.26
289.79	55.12
290.004	51.03
290.219	-22.7
290.434	-14.51
290.649	112.47
290.864	20.31
291.079	8.02
291.294	38.74
291.509	63.32
291.724	3.93
291.938	30.55
292.153	20.31
292.368	-6.31
292.583	98.13
292.798	87.89
293.012	-0.17
293.227	-2.22
293.442	65.36
293.657	16.21
293.871	139.09
294.086	77.65
294.301	-6.31
294.516	22.36
294.73	-12.46
294.945	26.45
295.16	65.36
295.374	30.55
295.589	79.7
295.804	5.97
296.018	-0.17
296.233	48.98
296.447	34.64
296.662	38.74
296.877	149.33
297.091	32.6
297.306	104.28
297.52	5.97
297.735	53.08
297.949	42.84
298.164	38.74
298.378	-14.51
298.593	8.02
298.807	53.08
299.022	71.51
299.236	-43.18
299.451	-12.46
299.665	30.55
299.88	-37.03
300.094	28.5
300.309	32.6
300.523	38.74
300.737	-10.41
300.952	44.88
301.166	26.45
301.381	51.03
301.595	98.13
301.809	32.6
302.024	34.64
302.238	55.12
302.452	22.36
302.667	-8.36
302.881	75.6
303.095	57.17
303.309	112.47
303.524	5.97
303.738	18.26
303.952	-18.6
304.166	42.84
304.381	24.4
304.595	67.41
304.809	75.6
305.023	128.85
305.237	67.41
305.452	81.75
305.666	34.64
305.88	55.12
306.094	-2.22
306.308	46.93
306.522	40.79
306.736	16.21
306.95	67.41
307.164	63.32
307.379	14.17
307.593	30.55
307.807	38.74
308.021	63.32
308.235	32.6
308.449	-0.17
308.663	34.64
308.877	81.75
309.091	22.36
309.305	57.17
309.519	-2.22
309.733	40.79
309.947	-16.55
310.161	59.22
310.374	-18.6
310.588	48.98
310.802	-16.55
311.016	38.74
311.23	44.88
311.444	16.21
311.658	55.12
311.872	79.7
312.085	87.89
312.299	130.9
312.513	51.03
312.727	-41.13
312.941	-18.6
313.154	75.6
313.368	24.4
313.582	53.08
313.796	38.74
314.009	100.18
314.223	48.98
314.437	-4.27
314.651	51.03
314.864	30.55
315.078	42.84
315.292	1.88
315.505	3.93
315.719	26.45
315.933	53.08
316.146	-8.36
316.36	28.5
316.573	73.56
316.787	18.26
317.001	77.65
317.214	40.79
317.428	79.7
317.641	8.02
317.855	59.22
318.068	14.17
318.282	30.55
318.495	51.03
318.709	87.89
318.922	-0.17
319.136	77.65
319.349	16.21
319.563	67.41
319.776	46.93
319.99	-22.7
320.203	34.64
320.417	-71.85
320.63	40.79
320.843	59.22
321.057	1.88
321.27	63.32
321.483	53.08
321.697	42.84
321.91	87.89
322.124	65.36
322.337	65.36
322.55	-10.41
322.763	-10.41
322.977	16.21
323.19	-55.47
323.403	1.88
323.617	36.69
323.83	57.17
324.043	-41.13
324.256	38.74
324.469	48.98
324.683	38.74
324.896	16.21
325.109	-6.31
325.322	-6.31
325.535	-10.41
325.748	36.69
325.962	34.64
326.175	40.79
326.388	96.08
326.601	42.84
326.814	77.65
327.027	132.95
327.24	73.56
327.453	28.5
327.666	51.03
327.879	73.56
328.092	71.51
328.305	114.52
328.518	53.08
328.731	128.85
328.944	20.31
329.157	28.5
329.37	55.12
329.583	69.46
329.796	5.97
330.009	-20.65
330.222	40.79
330.435	-28.84
330.648	40.79
330.861	22.36
331.073	1.88
331.286	87.89
331.499	-2.22
331.712	14.17
331.925	63.32
332.138	91.99
332.35	71.51
332.563	63.32
332.776	81.75
332.989	-41.13
333.202	26.45
333.414	55.12
333.627	-6.31
333.84	-8.36
334.053	81.75
334.265	-26.79
334.478	51.03
334.691	32.6
334.903	94.04
335.116	-14.51
335.329	79.7
335.541	65.36
335.754	12.12
335.966	3.93
336.179	63.32
336.392	55.12
336.604	-2.22
336.817	30.55
337.029	87.89
337.242	34.64
337.454	46.93
337.667	51.03
337.88	112.47
338.092	-6.31
338.305	32.6
338.517	8.02
338.729	44.88
338.942	87.89
339.154	69.46
339.367	-8.36
339.579	51.03
339.792	-2.22
340.004	-12.46
340.217	-41.13
340.429	51.03
340.641	55.12
340.854	24.4
341.066	38.74
341.278	34.64
341.491	85.84
341.703	87.89
341.915	-51.37
342.128	71.51
342.34	12.12
342.552	34.64
342.764	-2.22
342.977	-53.42
343.189	87.89
343.401	40.79
343.613	40.79
343.826	67.41
344.038	61.27
344.25	38.74
344.462	5.97
344.674	-18.6
344.886	-0.17
345.099	24.4
345.311	34.64
345.523	42.84
345.735	-10.41
345.947	79.7
346.159	51.03
346.371	5.97
346.583	18.26
346.795	63.32
347.007	-2.22
347.219	38.74
347.431	-22.7
347.643	40.79
347.855	38.74
348.067	46.93
348.279	14.17
348.491	71.51
348.703	8.02
348.915	22.36
349.127	-14.51
349.339	42.84
349.551	40.79
349.763	61.27
349.975	-14.51
350.187	36.69
350.399	51.03
350.61	30.55
350.822	5.97
351.034	38.74
351.246	85.84
351.458	44.88
351.669	79.7
351.881	106.32
352.093	10.07
352.305	71.51
352.517	44.88
352.728	67.41
352.94	22.36
353.152	20.31
353.363	30.55
353.575	5.97
353.787	75.6
353.999	-41.13
354.21	51.03
354.422	79.7
354.633	28.5
354.845	1.88
355.057	44.88
355.268	110.42
355.48	81.75
355.692	-18.6
355.903	30.55
356.115	5.97
356.326	22.36
356.538	42.84
356.749	5.97
356.961	71.51
357.172	10.07
357.384	38.74
357.595	100.18
357.807	-28.84
358.018	73.56
358.23	46.93
358.441	71.51
358.653	73.56
358.864	32.6
359.075	20.31
359.287	28.5
359.498	79.7
359.709	30.55
359.921	46.93
360.132	83.8
360.344	10.07
360.555	18.26
360.766	40.79
360.977	-24.75
361.189	55.12
361.4	-16.55
361.611	155.47
361.823	114.52
362.034	73.56
362.245	5.97
362.456	38.74
362.667	46.93
362.879	65.36
363.09	38.74
363.301	20.31
363.512	46.93
363.723	32.6
363.935	53.08
364.146	22.36
364.357	16.21
364.568	30.55
364.779	44.88
364.99	87.89
365.201	61.27
365.412	104.28
365.623	14.17
365.834	77.65
366.045	22.36
366.256	42.84
366.467	26.45
366.678	100.18
366.889	-30.89
367.1	112.47
367.311	57.17
367.522	59.22
367.733	18.26
367.944	104.28
368.155	57.17
368.366	-4.27
368.577	55.12
368.788	135
368.999	48.98
369.209	63.32
369.42	61.27
369.631	40.79
369.842	126.8
370.053	-16.55
370.264	190.29
370.474	48.98
370.685	89.94
370.896	67.41
371.107	69.46
371.317	55.12
371.528	-24.75
371.739	38.74
371.95	30.55
372.16	32.6
372.371	-26.79
372.582	10.07
372.792	-20.65
373.003	73.56
373.214	89.94
373.424	48.98
373.635	-10.41
373.846	91.99
374.056	-4.27
374.267	102.23
374.477	48.98
374.688	120.66
374.898	-34.99
375.109	34.64
375.319	96.08
375.53	106.32
375.74	-18.6
375.951	44.88
376.161	12.12
376.372	83.8
376.582	69.46
376.793	36.69
377.003	51.03
377.214	73.56
377.424	34.64
377.635	63.32
377.845	73.56
378.055	53.08
378.266	65.36
378.476	16.21
378.686	116.56
378.897	81.75
379.107	143.19
379.317	46.93
379.528	98.13
379.738	38.74
379.948	40.79
380.158	61.27
380.369	69.46
380.579	75.6
380.789	106.32
380.999	57.17
381.21	65.36
381.42	65.36
381.63	1.88
381.84	85.84
382.05	100.18
382.261	128.85
382.471	161.62
382.681	89.94
382.891	30.55
383.101	-2.22
383.311	67.41
383.521	-0.17
383.731	63.32
383.941	87.89
384.151	-10.41
384.361	30.55
384.571	51.03
384.781	46.93
384.991	42.84
385.201	42.84
385.411	53.08
385.621	79.7
385.831	1.88
386.041	22.36
386.251	44.88
386.461	65.36
386.671	-26.79
386.881	32.6
387.091	46.93
387.301	34.64
387.511	38.74
387.72	51.03
387.93	102.23
388.14	40.79
388.35	-4.27
388.56	51.03
388.769	128.85
388.979	14.17
389.189	32.6
389.399	-22.7
389.609	100.18
389.818	73.56
390.028	24.4
390.238	42.84
390.447	46.93
390.657	-2.22
390.867	-0.17
391.076	3.93
391.286	5.97
391.496	77.65
391.705	-0.17
391.915	51.03
392.125	-14.51
392.334	96.08
392.544	85.84
392.753	98.13
392.963	3.93
393.172	98.13
393.382	104.28
393.591	114.52
393.801	91.99
394.01	65.36
394.22	59.22
394.429	55.12
394.639	36.69
394.848	83.8
395.058	71.51
395.267	106.32
395.477	108.37
395.686	112.47
395.895	96.08
396.105	100.18
396.314	44.88
396.524	57.17
396.733	71.51
396.942	79.7
397.152	108.37
397.361	38.74
397.57	59.22
397.78	67.41
397.989	155.47
398.198	200.53
398.407	122.71
398.617	112.47
398.826	73.56
399.035	59.22
399.244	32.6
399.453	5.97
399.663	94.04
399.872	128.85
400.081	89.94
400.29	128.85
400.499	55.12
400.708	171.86
400.917	89.94
401.127	51.03
401.336	112.47
401.545	128.85
401.754	173.91
401.963	94.04
402.172	91.99
402.381	91.99
402.59	89.94
402.799	94.04
403.008	130.9
403.217	71.51
403.426	91.99
403.635	122.71
403.844	104.28
404.053	34.64
404.262	63.32
404.471	122.71
404.68	165.71
404.888	94.04
405.097	81.75
405.306	161.62
405.515	147.28
405.724	112.47
405.933	218.96
406.142	147.28
406.35	141.14
406.559	192.34
406.768	122.71
406.977	204.63
407.185	132.95
407.394	167.76
407.603	167.76
407.812	229.2
408.02	221.01
408.229	255.83
408.438	155.47
408.646	137.04
408.855	221.01
409.064	264.02
409.272	237.39
409.481	227.15
409.69	186.19
409.898	169.81
410.107	245.59
410.315	268.11
410.524	259.92
410.733	216.91
410.941	280.4
411.15	304.98
411.358	276.31
411.567	374.61
411.775	325.46
411.984	313.17
412.192	374.61
412.401	302.93
412.609	384.85
412.818	386.9
413.026	384.85
413.234	333.65
413.443	350.03
413.651	309.07
413.86	436.05
414.068	442.19
414.276	462.67
414.485	466.77
414.693	477.01
414.901	524.11
415.11	509.77
415.318	565.07
415.526	552.78
415.734	544.59
415.943	520.01
416.151	560.97
416.359	655.18
416.567	558.92
416.776	651.08
416.984	677.71
417.192	782.15
417.4	689.99
417.608	751.43
417.817	761.67
418.025	755.53
418.233	847.69
418.441	853.83
418.649	890.7
418.857	974.66
419.065	1054.53
419.273	948.04
419.481	1072.96
419.689	1111.88
419.897	1113.92
420.105	1195.84
420.313	1148.74
420.521	1226.56
420.729	1253.19
420.937	1279.81
421.145	1275.71
421.353	1404.74
421.561	1445.7
421.769	1529.66
421.977	1546.05
422.185	1521.47
422.393	1640.25
422.601	1734.46
422.809	1767.23
423.017	1716.03
423.224	1759.03
423.432	1808.19
423.64	1840.95
423.848	2080.57
424.056	1937.21
424.263	2127.67
424.471	2254.64
424.679	2209.59
424.887	2283.31
425.094	2320.18
425.302	2359.09
425.51	2522.93
425.718	2541.36
425.925	2481.97
426.133	2756.4
426.341	2723.63
426.548	3014.44
426.756	3077.93
426.964	3129.13
427.171	3067.69
427.379	3190.56
427.586	3333.92
427.794	3307.3
428.001	3610.4
428.209	3772.19
428.417	3651.36
428.624	3989.27
428.832	3870.49
429.039	3956.5
429.247	3870.49
429.454	4230.93
429.662	4509.46
429.869	4128.53
430.076	4634.38
430.284	4364.05
430.491	4642.57
430.699	4927.24
430.906	4859.66
431.114	4828.94
431.321	5230.34
431.528	5261.06
431.736	5537.54
431.943	5871.36
432.15	5648.13
432.358	5695.23
432.565	6223.61
432.772	6059.77
432.979	6301.43
433.187	6430.45
433.394	6649.58
433.601	6821.61
433.808	7055.08
434.016	7175.91
434.223	7263.97
434.43	7573.22
434.637	7542.5
434.844	7945.95
435.052	8224.47
435.259	8046.3
435.466	8099.55
435.673	8208.09
435.88	8677.07
436.087	8918.73
436.294	9178.83
436.501	8890.06
436.708	9131.72
436.915	9275.08
437.122	9696.96
437.329	9676.48
437.537	9995.96
437.743	10303.16
437.95	10049.21
438.157	10614.45
438.364	10888.88
438.571	10901.17
438.778	11142.83
438.985	12045.98
439.192	11652.77
439.399	12041.89
439.606	11863.71
439.813	12596.89
440.02	13385.35
440.227	13020.81
440.433	12803.73
440.64	13366.92
440.847	13141.64
441.054	13512.33
441.261	14263.93
441.467	14075.52
441.674	14454.39
441.881	15074.93
442.088	14925.43
442.294	14855.79
442.501	15494.76
442.708	15627.88
442.914	16350.81
443.121	16850.52
443.328	16408.15
443.534	17739.33
443.741	17110.61
443.948	16696.92
444.154	18159.17
444.361	18132.54
444.568	18617.91
444.774	17954.37
444.981	18552.38
445.187	19041.84
445.394	19727.91
445.6	19535.4
445.807	21325.33
446.013	20481.56
446.22	21116.44
446.426	21511.69
446.633	21921.29
446.839	22736.38
447.046	21884.42
447.252	22699.51
447.459	23051.77
447.665	22806.01
447.871	23920.1
448.078	24937.94
448.284	24038.89
448.491	24143.33
448.697	25306.58
448.903	26267.08
449.11	25712.08
449.316	25597.39
449.522	26041.8
449.728	26707.39
449.935	27143.61
450.141	26881.47
450.347	27993.51
450.553	27121.08
450.76	27176.37
450.966	27833.77
451.172	27811.24
451.378	28591.52
451.584	28009.9
451.791	28802.46
451.997	28429.73
452.203	29160.86
452.409	29134.23
452.615	29103.51
452.821	28124.58
453.027	27731.37
453.233	29107.61
453.44	28054.95
453.646	28245.41
453.852	28351.91
454.058	29167
454.264	27905.45
454.47	28945.82
454.676	27813.29
454.882	28972.44
455.088	26592.7
455.294	26953.15
455.5	27438.51
455.705	27766.19
455.911	26469.83
456.117	26187.21
456.323	25800.14
456.529	24337.89
456.735	25794
456.941	25107.93
457.147	24573.41
457.352	23866.86
457.558	23569.9
457.764	23422.45
457.97	22953.46
458.176	22814.2
458.381	22531.58
458.587	21624.33
458.793	21638.67
458.999	20184.61
459.204	21995.01
459.41	21091.86
459.616	19863.08
459.821	19998.24
460.027	20229.66
460.233	19211.82
460.438	18400.83
460.644	18832.95
460.85	17997.38
461.055	17579.59
461.261	17497.67
461.466	16279.13
461.672	15717.99
461.878	16883.28
462.083	15791.72
462.289	15433.32
462.494	15171.18
462.7	14558.84
462.905	13969.02
463.111	14741.11
463.316	14921.33
463.522	14481.02
463.727	14378.62
463.932	14388.86
464.138	14440.06
464.343	14220.92
464.549	13672.07
464.754	14339.71
464.959	14134.91
465.165	14139.01
465.37	13514.38
465.575	13153.93
465.781	13706.88
465.986	13821.57
466.191	13127.31
466.397	13016.72
466.602	12359.32
466.807	12897.94
467.012	12856.98
467.218	12752.53
467.423	12517.01
467.628	12844.69
467.833	13270.67
468.038	12705.43
468.244	12275.35
468.449	12922.51
468.654	12310.17
468.859	12422.81
469.064	12412.57
469.269	11865.76
469.474	11990.69
469.679	12287.64
469.885	11857.57
470.09	11933.34
470.295	11959.97
470.5	11468.45
470.705	11787.94
470.91	11267.75
471.115	11429.54
471.32	11505.32
471.525	11308.71
471.73	11089.58
471.935	10983.09
472.139	10737.33
472.344	11034.28
472.549	11028.14
472.754	10985.13
472.959	10346.17
473.164	10247.86
473.369	10282.68
473.574	10430.13
473.778	10346.17
473.983	10290.87
474.188	10153.66
474.393	9985.72
474.598	10124.99
474.802	9764.54
475.007	9688.77
475.212	9762.5
475.417	9344.71
475.621	9440.97
475.826	9387.72
476.031	9215.69
476.235	8982.22
476.44	9324.23
476.645	8963.79
476.849	9152.2
477.054	8838.86
477.259	8892.11
477.463	8756.94
477.668	8623.83
477.872	8552.15
478.077	8328.92
478.282	8392.41
478.486	8263.38
478.691	8029.91
478.895	8378.07
479.1	8099.55
479.304	8298.2
479.509	7968.48
479.713	8099.55
479.918	7997.15
480.122	7872.22
480.326	8060.63
480.531	7861.98
480.735	7554.79
480.94	7739.1
481.144	8025.82
481.348	7546.59
481.553	7755.49
481.757	7710.43
481.961	7747.3
482.166	7689.95
482.37	7632.61
482.574	7343.85
482.778	7718.62
482.983	7614.18
483.187	7565.03
483.391	7470.82
483.595	7493.35
483.8	7493.35
484.004	7767.77
484.208	7749.34
484.412	7790.3
484.616	7642.85
484.821	7603.94
485.025	7524.07
485.229	7376.61
485.433	7411.43
485.637	7489.25
485.841	7507.68
486.045	7542.5
486.249	7583.46
486.453	7507.68
486.657	7530.21
486.861	7737.06
487.065	7331.56
487.269	7665.38
487.473	7565.03
487.677	7567.07
487.881	7552.74
488.085	7403.24
488.289	7663.33
488.493	7460.58
488.697	7687.9
488.901	7612.13
489.105	7732.96
489.309	7610.08
489.512	7575.27
489.716	7612.13
489.92	7698.14
490.124	7577.31
490.328	7843.55
490.531	7648.99
490.735	7657.18
490.939	7663.33
491.143	7681.76
491.346	7732.96
491.55	8001.24
491.754	7773.92
491.958	7948
492.161	7892.7
492.365	7923.42
492.569	7976.67
492.772	8095.45
492.976	7960.28
493.18	8058.59
493.383	8240.86
493.587	8077.02
493.79	8380.12
493.994	8242.9
494.197	8251.1
494.401	8429.27
494.605	8363.73
494.808	8601.3
495.012	8578.77
495.215	8730.32
495.419	8783.57
495.622	8840.91
495.825	8834.77
496.029	8885.97
496.232	8937.16
496.436	8894.16
496.639	9410.25
496.843	9023.18
497.046	9275.08
497.249	9424.58
497.453	9348.81
497.656	9508.55
497.859	9512.64
498.063	9451.21
498.266	9789.12
498.469	9985.72
498.673	9813.7
498.876	10075.84
499.079	10225.34
499.282	10237.63
499.485	10327.74
499.689	10581.68
499.892	10626.74
500.095	10553.01
500.298	11026.09
500.501	10786.48
500.705	11079.34
500.908	11200.17
501.111	11409.06
501.314	11380.39
501.517	11529.89
501.72	11648.68
501.923	11878.05
502.126	11843.23
502.329	12117.66
502.532	11998.88
502.735	12211.87
502.938	12320.41
503.141	12496.53
503.344	12777.11
503.547	12625.56
503.75	13041.29
503.953	13213.32
504.156	13260.43
504.359	13307.53
504.562	13596.29
504.765	13753.99
504.968	13805.19
505.17	14036.61
505.373	13872.77
505.576	14370.43
505.779	14534.26
505.982	14515.83
506.185	14716.53
506.387	15031.92
506.59	14855.79
506.793	15173.23
506.996	15251.05
507.198	15703.65
507.401	15797.86
507.604	15765.09
507.807	16139.87
508.009	16262.75
508.212	16436.83
508.415	16514.65
508.617	16598.62
508.82	16754.26
509.022	16944.72
509.225	17184.34
509.428	17350.22
509.63	17747.53
509.833	17550.92
510.035	17657.42
510.238	17983.04
510.44	18241.09
510.643	18538.04
510.845	18449.98
511.048	18513.47
511.25	19154.48
511.453	19043.89
511.655	19430.96
511.858	19494.44
512.06	19828.26
512.262	19809.83
512.465	20045.35
512.667	20147.75
512.87	20581.92
513.072	20317.73
513.274	20825.62
513.477	21016.08
513.679	21165.59
513.881	21476.88
514.084	21622.28
514.286	21769.74
514.488	21999.11
514.69	22351.36
514.893	22476.29
515.095	22642.17
515.297	22926.84
515.499	23158.26
515.701	23057.91
515.904	23391.73
516.106	23705.07
516.308	24014.31
516.51	24161.76
516.712	24192.48
516.914	24681.95
517.116	24815.07
517.318	24962.52
517.52	25081.3
517.722	25204.18
517.925	25515.47
518.127	26125.77
518.329	25880.01
518.531	25595.34
518.733	26320.32
518.935	26768.83
519.136	26895.8
519.338	27180.47
519.54	27307.44
519.742	27366.84
519.944	27878.83
520.146	28097.96
520.348	28347.81
520.55	28472.74
520.752	28792.22
520.954	29105.56
521.155	29009.31
521.357	29379.99
521.559	29881.74
521.761	29945.23
521.963	30178.7
522.164	30481.8
522.366	30389.64
522.568	30842.24
522.77	30750.08
522.971	31229.3
523.173	30891.39
523.375	31315.32
523.576	30920.06
523.778	31153.53
523.98	31892.85
524.181	31954.29
524.383	32310.63
524.584	32449.89
524.786	32681.31
524.988	32458.09
525.189	32699.75
525.391	32879.97
525.592	33256.79
525.794	33428.82
525.995	33611.09
526.197	33617.24
526.398	33713.49
526.6	33994.06
526.801	34248.01
527.003	34348.36
527.204	33994.06
527.406	34823.49
527.607	34426.18
527.808	34682.18
528.01	34166.09
528.211	34733.38
528.412	35775.8
528.614	35358.01
528.815	35431.74
529.016	35462.46
529.218	35366.2
529.419	35411.26
529.62	35804.47
529.822	35401.02
530.023	35652.92
530.224	35640.63
530.425	35994.93
530.626	35861.81
530.828	35679.54
531.029	36195.63
531.23	36015.41
531.431	35806.51
531.632	36156.72
531.833	36353.32
532.035	36547.88
532.236	36414.76
532.437	36605.22
532.638	36085.04
532.839	36625.7
533.04	36867.36
533.241	35992.88
533.442	36924.71
533.643	36531.5
533.844	36558.12
534.045	36609.32
534.246	36572.46
534.447	36746.53
534.648	36693.29
534.849	36556.07
535.05	36474.15
535.251	36867.36
535.451	36533.54
535.652	36691.24
535.853	36623.65
536.054	37113.12
536.255	36658.47
536.456	36650.28
536.657	37082.4
536.857	36492.58
537.058	36736.29
537.259	37016.86
537.46	36793.64
537.66	36515.11
537.861	36738.34
538.062	36603.17
538.263	36986.14
538.463	36846.88
538.664	36603.17
538.865	36386.09
539.065	37004.58
539.266	36832.55
539.466	36752.68
539.667	36756.77
539.868	37219.61
540.068	36646.18
540.269	36564.26
540.469	37383.45
540.67	36384.04
540.87	36934.95
541.071	36771.11
541.271	37047.58
541.472	36750.63
541.672	36730.15
541.873	36701.48
542.073	35814.71
542.274	36992.29
542.474	36592.93
542.675	36345.13
542.875	37057.82
543.075	36910.37
543.276	36527.4
543.476	36922.66
543.676	36537.64
543.877	36558.12
544.077	36455.72
544.277	36427.05
544.478	36476.2
544.678	36506.92
544.878	37049.63
545.078	36523.3
545.279	36285.74
545.479	36414.76
545.679	36558.12
545.879	36578.6
546.079	36492.58
546.28	36541.74
546.48	36037.94
546.68	36484.39
546.88	36658.47
547.08	36896.03
547.28	36629.8
547.48	36064.56
547.68	36312.36
547.88	36642.09
548.081	36402.47
548.281	36171.05
548.481	36549.93
548.681	36689.19
548.881	36316.46
549.081	36203.82
549.28	36185.39
549.48	36261.16
549.68	36199.72
549.88	36713.77
550.08	36316.46
550.28	36812.07
550.48	35917.11
550.68	36676.9
550.88	36271.4
551.08	36293.93
551.279	36480.3
551.479	35609.91
551.679	36451.63
551.879	36316.46
552.079	36459.82
552.278	36222.25
552.478	36113.71
552.678	36019.5
552.878	36033.84
553.077	36402.47
553.277	35910.96
553.477	36810.02
553.676	36066.61
553.876	36117.81
554.076	35978.54
554.275	36107.57
554.475	35472.7
554.674	36400.43
554.874	36085.04
555.074	35759.41
555.273	36035.89
555.473	36029.74
555.672	35657.01
555.872	35679.54
556.071	35763.51
556.271	35806.51
556.47	35747.12
556.67	35255.61
556.869	35671.35
557.068	35767.6
557.268	35681.59
557.467	35409.21
557.667	35263.8
557.866	35333.43
558.065	35484.98
558.265	35362.11
558.464	35224.89
558.663	35245.37
558.863	35071.29
559.062	35267.9
559.261	35196.22
559.461	35824.95
559.66	34835.78
559.859	35097.92
560.058	34669.89
560.258	35016
560.457	34512.2
560.656	35097.92
560.855	34624.84
561.054	34551.11
561.253	34434.38
561.453	34549.06
561.652	34172.24
561.851	34620.74
562.05	34090.32
562.249	34194.76
562.448	34649.41
562.647	34217.29
562.846	34010.45
563.045	34217.29
563.244	33662.29
563.443	34313.55
563.642	33439.06
563.841	33930.58
564.04	34102.6
564.239	34039.12
564.438	33439.06
564.637	33805.65
564.836	33842.51
565.035	33197.4
565.234	33779.03
565.432	33359.19
565.631	33029.47
565.83	33209.69
566.029	33246.55
566.228	33090.91
566.427	33002.85
566.625	32591.2
566.824	32548.2
567.023	33115.48
567.222	32382.31
567.42	32650.6
567.619	32593.25
567.818	32515.43
568.016	32453.99
568.215	32441.7
568.414	31901.04
568.612	32787.81
568.811	32120.17
569.01	32896.35
569.208	31735.15
569.407	32386.41
569.605	31622.51
569.804	32073.07
570.002	31432.05
570.201	31919.47
570.4	31378.81
570.598	31659.38
570.797	31251.83
570.995	31595.89
571.193	30725.5
571.392	31493.49
571.59	31061.37
571.789	31073.66
571.987	30975.36
572.186	31307.13
572.384	30530.95
572.582	30670.21
572.781	31047.04
572.979	30029.2
573.177	30737.79
573.376	30688.64
573.574	30156.17
573.772	30363.01
573.971	30424.45
574.169	30096.78
574.367	29830.54
574.565	30010.76
574.763	30041.48
574.962	29418.9
575.16	29652.37
575.358	29611.41
575.556	29277.59
575.754	29779.34
575.952	28994.97
576.151	29707.66
576.349	29040.03
576.547	29205.91
576.745	29144.47
576.943	29160.86
577.141	29136.28
577.339	29056.41
577.537	28779.93
577.735	29019.55
577.933	28528.03
578.131	28759.45
578.329	28491.17
578.527	28450.21
578.725	28597.66
578.923	28767.65
579.121	28730.78
579.319	28067.24
579.516	28173.74
579.714	28085.67
579.912	28063.15
580.11	27870.64
580.308	27841.96
580.506	27678.13
580.704	27338.16
580.901	27784.62
581.099	28179.88
581.297	27248.05
581.495	27334.07
581.692	27499.95
581.89	27194.81
582.088	27323.83
582.285	27164.09
582.483	27334.07
582.681	27098.55
582.878	26815.93
583.076	26785.21
583.274	27182.52
583.471	26453.44
583.669	26920.38
583.866	26607.04
584.064	26453.44
584.262	26502.59
584.459	26944.95
584.657	26238.4
584.854	26549.7
585.052	26305.99
585.249	26152.39
585.447	26047.94
585.644	25572.82
585.841	26205.64
586.039	26396.1
586.236	25753.04
586.434	25449.94
586.631	25572.82
586.828	25585.1
587.026	25290.2
587.223	25601.49
587.42	25609.68
587.618	25251.28
587.815	25021.91
588.012	24960.47
588.21	24983
588.407	24966.62
588.604	24991.19
588.801	24817.11
588.999	24739.29
589.196	24464.86
589.393	24976.86
589.59	24518.11
589.787	24327.65
589.984	24172
590.182	24249.83
590.379	24397.28
590.576	23903.72
590.773	24450.53
590.97	24081.89
591.167	24493.54
591.364	23811.56
591.561	24059.37
591.758	23363.06
591.955	23889.38
592.152	23928.3
592.349	23467.5
592.546	23465.46
592.743	23590.38
592.94	22849.02
593.137	23725.55
593.334	23414.26
593.531	23043.57
593.727	23213.56
593.924	23168.5
594.121	22812.15
594.318	22932.98
594.515	22924.79
594.712	22920.7
594.908	22873.59
595.105	23047.67
595.302	22189.57
595.499	22332.93
595.696	22380.03
595.892	22300.16
596.089	22287.87
596.286	22611.45
596.482	22210.05
596.679	22085.12
596.876	21882.38
597.072	22162.95
597.269	21980.68
597.466	21788.17
597.662	21798.41
597.859	21724.68
598.055	21724.68
598.252	21943.81
598.448	21810.7
598.645	21220.88
598.841	21337.62
599.038	21474.83
599.234	21470.73
599.431	21231.12
599.627	21102.1
599.824	21399.05
600.02	21005.84
600.217	21384.72
600.413	21050.9
600.609	20796.95
600.806	20842.01
601.002	20686.36
601.198	20954.65
601.395	20416.03
601.591	20448.8
601.787	20866.58
601.984	20456.99
602.18	20647.45
602.376	20571.68
602.572	20229.66
602.769	20221.47
602.965	20123.17
603.161	20100.64
603.357	19875.37
603.553	19779.11
603.75	20176.42
603.946	19729.96
604.142	19883.56
604.338	19308.08
604.534	19684.9
604.73	19463.72
604.926	19414.57
605.122	19461.68
605.318	19213.87
605.514	19256.88
605.71	19242.54
605.906	19461.68
606.102	19258.93
606.298	19127.86
606.494	19060.27
606.69	19297.84
606.886	19140.15
607.082	18665.02
607.278	19193.39
607.474	18896.44
607.67	18923.06
607.866	18419.26
608.062	18832.95
608.257	18748.98
608.453	18785.85
608.649	18841.14
608.845	18507.32
609.041	18445.88
609.236	18417.21
609.432	18564.67
609.628	18271.81
609.824	18331.2
610.019	18318.91
610.215	18290.24
610.411	18204.22
610.606	18157.12
610.802	18212.42
610.998	17899.08
611.193	18069.06
611.389	17964.61
611.584	17843.78
611.78	17927.75
611.976	18075.2
612.171	18005.57
612.367	17987.14
612.562	17575.5
612.758	17708.62
612.953	17571.4
613.149	17712.71
613.344	17583.69
613.539	18118.21
613.735	17681.99
613.93	17634.89
614.126	17399.37
614.321	17692.23
614.517	17610.31
614.712	17450.57
614.907	17294.93
615.103	17378.89
615.298	17411.66
615.493	17428.04
615.688	17303.12
615.884	17374.8
616.079	17182.29
616.274	17233.49
616.47	17139.28
616.665	16887.38
616.86	17096.27
617.055	16782.93
617.25	16928.34
617.445	17036.88
617.641	16797.27
617.836	16848.47
618.031	16395.87
618.226	16830.04
618.421	16676.44
618.616	16750.17
618.811	16442.97
619.006	16797.27
619.201	16313.95
619.396	16295.52
619.591	15906.4
619.786	16459.35
619.981	16295.52
620.176	16356.96
620.371	15924.83
620.566	16047.71
620.761	15830.63
620.956	16283.23
621.151	15595.11
621.346	15836.77
621.541	15834.72
621.735	15783.52
621.93	15332.97
622.125	15650.41
622.32	15144.56
622.515	15160.94
622.709	15216.24
622.904	15048.3
623.099	14950
623.294	15251.05
623.488	14737.01
623.683	14857.84
623.878	14851.7
624.072	14534.26
624.267	14655.09
624.462	14644.85
624.656	14372.47
624.851	14376.57
625.046	14038.66
625.24	14188.16
625.435	14227.07
625.629	14341.75
625.824	14022.27
626.018	14026.37
626.213	13657.73
626.407	13915.78
626.602	13620.87
626.796	13489.8
626.991	13790.85
627.185	13645.45
627.38	13547.14
627.574	13418.12
627.768	13399.69
627.963	13110.93
628.157	12953.23
628.352	13043.34
628.546	12951.18
628.74	12998.29
628.935	12762.77
629.129	12738.19
629.323	12646.04
629.517	12756.63
629.712	12641.94
629.906	12625.56
630.1	12304.03
630.294	12457.62
630.489	12355.22
630.683	12402.33
630.877	12111.52
631.071	12314.27
631.265	12132
631.459	12060.32
631.653	12088.99
631.848	11931.3
632.042	11794.08
632.236	11886.24
632.43	11769.51
632.624	11650.72
632.818	11640.48
633.012	11542.18
633.206	11259.56
633.4	11538.09
633.594	11155.12
633.788	11452.07
633.982	11288.23
634.176	11394.73
634.369	11099.82
634.563	11146.92
634.757	11046.57
634.951	11060.91
635.145	11022
635.339	11083.44
635.533	10829.49
635.726	10632.88
635.92	10630.84
636.114	10712.75
636.308	10780.34
636.501	10634.93
636.695	10497.72
636.889	10598.07
637.083	10208.95
637.276	10200.76
637.47	10274.49
637.664	10397.37
637.857	10139.32
638.051	10256.06
638.244	10034.88
638.438	10012.35
638.632	10036.92
638.825	9846.46
639.019	9955.01
639.212	9705.15
639.406	9662.15
639.599	9692.87
639.793	9680.58
639.986	9486.02
640.18	9615.04
640.373	9518.79
640.567	9359.05
640.76	9477.83
640.954	9316.04
641.147	9232.07
641.34	9060.04
641.534	9141.96
641.727	9074.38
641.92	9084.62
642.114	9033.42
642.307	8986.32
642.5	8984.27
642.694	8845.01
642.887	8791.76
643.08	8971.98
643.273	8814.29
643.467	8703.7
643.66	8503
643.853	8595.15
644.046	8433.36
644.239	8568.53
644.432	8328.92
644.626	8486.61
644.819	8601.3
645.012	8414.93
645.205	8451.8
645.398	8173.27
645.591	8181.46
645.784	8324.82
645.977	8052.44
646.17	8095.45
646.363	8066.78
646.556	7773.92
646.749	7935.71
646.942	8007.39
647.135	7689.95
647.328	7919.32
647.521	7718.62
647.714	7767.77
647.907	7753.44
648.099	7618.27
648.292	7722.72
648.485	7714.53
648.678	7534.31
648.871	7640.8
649.064	7534.31
649.256	7386.85
649.449	7528.16
649.642	7272.17
649.835	7196.39
650.027	7382.76
650.22	7169.77
650.413	7208.68
650.605	7272.17
650.798	7046.89
650.991	7053.03
651.183	6960.88
651.376	6924.01
651.568	6895.34
651.761	6844.14
651.954	6846.19
652.146	6962.92
652.339	6749.93
652.531	6840.04
652.724	6829.81
652.916	6620.91
653.109	6549.23
653.301	6592.24
653.494	6633.2
653.686	6475.51
653.879	6625.01
654.071	6422.26
654.263	6364.92
654.456	6412.02
654.648	6407.92
654.84	6162.17
655.033	6362.87
655.225	6239.99
655.417	6330.1
655.61	6211.32
655.802	6233.85
655.994	6158.07
656.186	6082.3
656.379	6156.02
656.571	6178.55
656.763	6053.62
656.955	6010.62
657.148	5918.46
657.34	6016.76
657.532	5859.07
657.724	5914.36
657.916	5748.48
658.108	5697.28
658.3	5781.25
658.492	5838.59
658.684	5715.71
658.876	5529.34
659.068	5625.6
659.26	5732.09
659.452	5553.92
659.644	5633.79
659.836	5490.43
660.028	5400.32
660.22	5474.05
660.412	5402.37
660.604	5533.44
660.796	5568.26
660.988	5328.64
661.18	5306.12
661.372	5299.97
661.563	5349.12
661.755	5218.05
661.947	5209.86
662.139	5189.38
662.331	5091.08
662.522	5103.37
662.714	5109.51
662.906	4873.99
663.097	5117.7
663.289	5043.98
663.481	5013.26
663.673	4873.99
663.864	4869.9
664.056	4859.66
664.247	4970.25
664.439	4830.99
664.631	4953.87
664.822	4841.23
665.014	4775.69
665.205	4687.63
665.397	4663.05
665.588	4734.73
665.78	4714.25
665.971	4777.74
666.163	4706.06
666.354	4544.27
666.546	4699.92
666.737	4628.24
666.929	4781.84
667.12	4755.21
667.311	4529.94
667.503	4421.39
667.694	4591.38
667.885	4376.34
668.077	4439.83
668.268	4454.16
668.459	4454.16
668.651	4355.86
668.842	4306.71
669.033	4351.76
669.224	4126.49
669.416	4394.77
669.607	4198.17
669.798	4335.38
669.989	4044.57
670.18	4259.6
670.371	4163.35
670.563	4210.45
670.754	4185.88
670.945	3964.7
671.136	4073.24
671.327	4087.57
671.518	3833.63
671.709	4138.77
671.9	4048.66
672.091	3997.46
672.282	3938.07
672.473	3864.35
672.664	3983.13
672.855	3858.2
673.046	4003.61
673.237	3911.45
673.428	4022.04
673.619	3905.31
673.809	3817.24
674	3819.29
674.191	3868.44
674.382	3710.75
674.573	3878.68
674.764	3829.53
674.954	3790.62
675.145	3677.98
675.336	3768.09
675.527	3596.06
675.717	3815.2
675.908	3620.64
676.099	3622.69
676.289	3692.32
676.48	3491.62
676.671	3612.45
676.861	3663.65
677.052	3524.38
677.243	3536.67
677.433	3403.55
677.624	3540.77
677.814	3538.72
678.005	3542.82
678.195	3538.72
678.386	3467.04
678.576	3344.16
678.767	3464.99
678.957	3530.53
679.148	3381.03
679.338	3491.62
679.529	3598.11
679.719	3184.42
679.909	3419.94
680.1	3368.74
680.29	3368.74
680.481	3323.68
680.671	3329.83
680.861	3372.83
681.052	3268.39
681.242	3280.68
681.432	3378.98
681.622	3227.43
681.813	3202.85
682.003	3239.72
682.193	3127.08
682.383	3362.59
682.573	3151.65
682.764	3127.08
682.954	3135.27
683.144	3235.62
683.334	3137.32
683.524	3129.13
683.714	3102.5
683.904	3077.93
684.094	3043.11
684.284	3032.87
684.474	3067.69
684.664	3215.14
684.854	3243.81
685.044	3262.24
685.234	3024.68
685.424	3032.87
685.614	3041.06
685.804	3071.78
685.994	3030.82
686.184	3036.97
686.374	3211.04
686.564	3002.15
686.753	3008.3
686.943	2881.32
687.133	3055.4
687.323	2914.09
687.513	2961.19
687.702	3073.83
687.892	2887.47
688.082	3026.73
688.272	2993.96
688.461	2885.42
688.651	2957.1
688.841	2889.51
689.03	2889.51
689.22	2930.47
689.41	2768.68
689.599	2832.17
689.789	2830.12
689.979	2891.56
690.168	2821.93
690.358	2883.37
690.547	2766.64
690.737	2748.2
690.926	2762.54
691.116	2709.29
691.305	2844.46
691.495	2686.76
691.684	2682.67
691.874	2746.16
692.063	2604.85
692.252	2750.25
692.442	2594.61
692.631	2639.66
692.82	2668.33
693.01	2697
693.199	2561.84
693.388	2598.7
693.578	2527.02
693.767	2602.8
693.956	2631.47
694.146	2430.77
694.335	2643.76
694.524	2619.18
694.713	2527.02
694.902	2574.13
695.092	2580.27
695.281	2547.5
695.47	2498.35
695.659	2522.93
695.848	2537.26
696.037	2410.29
696.226	2445.1
696.415	2522.93
696.604	2486.06
696.793	2549.55
696.982	2455.34
697.171	2559.79
697.36	2400.05
697.549	2490.16
697.738	2457.39
697.927	2414.38
698.116	2594.61
698.305	2500.4
698.494	2484.02
698.683	2443.06
698.872	2416.43
699.061	2414.38
699.25	2518.83
699.438	2529.07
699.627	2383.66
699.816	2541.36
700.005	2461.49
700.193	2334.51
700.382	2475.82
700.571	2334.51
700.76	2357.04
700.948	2455.34
701.137	2404.14
701.326	2539.31
701.514	2391.86
701.703	2291.51
701.892	2332.47
702.08	2406.19
702.269	2385.71
702.457	2295.6
702.646	2484.02
702.834	2516.78
703.023	2473.78
703.212	2457.39
703.4	2363.19
703.589	2340.66
703.777	2340.66
703.965	2320.18
704.154	2322.23
704.342	2236.21
704.531	2373.43
704.719	2455.34
704.907	2406.19
705.096	2377.52
705.284	2344.75
705.472	2398
705.661	2299.7
705.849	2443.06
706.037	2428.72
706.226	2301.75
706.414	2389.81
706.602	2385.71
706.79	2336.56
706.979	2189.11
707.167	2264.88
707.355	2410.29
707.543	2252.59
707.731	2350.9
707.919	2293.55
708.107	2273.07
708.296	2359.09
708.484	2348.85
708.672	2260.79
708.86	2365.23
709.048	2236.21
709.236	2262.83
709.424	2309.94
709.612	2361.14
709.8	2453.3
709.988	2268.98
710.176	2367.28
710.364	2277.17
710.551	2266.93
710.739	2242.36
710.927	2373.43
711.115	2242.36
711.303	2348.85
711.491	2299.7
711.679	2215.73
711.866	2426.67
712.054	2361.14
712.242	2285.36
712.43	2295.6
712.617	2250.55
712.805	2250.55
712.993	2320.18
713.181	2260.79
713.368	2342.71
713.556	2354.99
713.744	2225.97
713.931	2350.9
714.119	2281.27
714.306	2246.45
714.494	2330.42
714.682	2234.16
714.869	2305.84
715.057	2258.74
715.244	2162.48
715.432	2320.18
715.619	2303.79
715.807	2299.7
715.994	2258.74
716.182	2254.64
716.369	2320.18
716.556	2275.12
716.744	2324.27
716.931	2242.36
717.119	2279.22
717.306	2316.08
717.493	2285.36
717.681	2299.7
717.868	2285.36
718.055	2320.18
718.242	2363.19
718.43	2283.31
718.617	2203.44
718.804	2223.92
718.991	2213.68
719.179	2381.62
719.366	2275.12
719.553	2246.45
719.74	2283.31
719.927	2228.02
720.114	2391.86
720.301	2340.66
720.488	2125.62
720.676	2281.27
720.863	2248.5
721.05	2389.81
721.237	2350.9
721.424	2262.83
721.611	2268.98
721.798	2189.11
721.985	2324.27
722.172	2199.35
722.358	2232.12
722.545	2228.02
722.732	2297.65
722.919	2326.32
723.106	2275.12
723.293	2156.34
723.48	2262.83
723.667	2287.41
723.853	2172.72
724.04	2174.77
724.227	2180.92
724.414	2283.31
724.6	2252.59
724.787	2346.8
724.974	2225.97
725.161	2217.78
725.347	2314.03
725.534	2225.97
725.72	2115.38
725.907	2189.11
726.094	2215.73
726.28	2125.62
726.467	2191.16
726.653	2152.24
726.84	2338.61
727.027	2164.53
727.213	2119.48
727.4	2283.31
727.586	2244.4
727.773	2232.12
727.959	2324.27
728.145	2236.21
728.332	2144.05
728.518	2162.48
728.705	2139.96
728.891	2299.7
729.077	2230.07
729.264	2211.64
729.45	2166.58
729.636	2277.17
729.823	2213.68
730.009	2203.44
730.195	2162.48
730.382	2154.29
730.568	2101.05
730.754	2297.65
730.94	2164.53
731.126	2260.79
731.313	2162.48
731.499	2197.3
731.685	2129.72
731.871	2201.4
732.057	2182.96
732.243	2207.54
732.429	2242.36
732.615	2101.05
732.801	2199.35
732.987	2223.92
733.173	2164.53
733.359	2127.67
733.545	2142
733.731	2119.48
733.917	2144.05
734.103	2094.9
734.289	2301.75
734.475	2099
734.661	2242.36
734.847	2131.76
735.033	2166.58
735.219	2193.2
735.404	2146.1
735.59	2195.25
735.776	2041.65
735.962	2193.2
736.148	2135.86
736.333	2154.29
736.519	2058.04
736.705	2148.15
736.89	2203.44
737.076	2172.72
737.262	2115.38
737.447	2043.7
737.633	2148.15
737.819	2062.13
738.004	2053.94
738.19	2191.16
738.375	2008.89
738.561	2162.48
738.747	2008.89
738.932	2127.67
739.118	2012.98
739.303	2084.66
739.489	2062.13
739.674	1937.21
739.859	2058.04
740.045	1982.26
740.23	2088.76
740.416	2010.93
740.601	2031.41
740.786	2012.98
740.972	1988.41
741.157	1959.74
741.342	1853.24
741.528	2072.37
741.713	2012.98
741.898	2027.32
742.084	1974.07
742.269	2125.62
742.454	1939.26
742.639	1939.26
742.824	1877.82
743.01	2033.46
743.195	1902.39
743.38	1931.06
743.565	1849.15
743.75	1929.02
743.935	1900.34
744.12	1875.77
744.305	1922.87
744.49	1875.77
744.675	1826.62
744.86	1863.48
745.045	1959.74
745.23	1859.38
745.415	1830.71
745.6	1906.49
745.785	1828.67
745.97	1845.05
746.155	1752.89
746.34	1808.19
746.525	1777.47
746.71	1769.27
746.895	1742.65
747.079	1642.3
747.264	1808.19
747.449	1824.57
747.634	1789.75
747.819	1709.88
748.003	1599.29
748.188	1644.35
748.373	1638.2
748.557	1685.31
748.742	1744.7
748.927	1658.68
749.111	1644.35
749.296	1519.42
749.481	1619.77
749.665	1603.39
749.85	1570.62
750.034	1677.12
750.219	1652.54
750.404	1552.19
750.588	1546.05
750.773	1558.33
750.957	1541.95
751.141	1646.4
751.326	1496.89
751.51	1605.44
751.695	1460.03
751.879	1427.26
752.064	1546.05
752.248	1593.15
752.432	1531.71
752.617	1544
752.801	1519.42
752.985	1341.25
753.17	1490.75
753.354	1437.5
753.538	1537.85
753.722	1496.89
753.907	1412.93
754.091	1369.92
754.275	1357.63
754.459	1466.17
754.643	1335.1
754.828	1488.7
755.012	1312.58
755.196	1318.72
755.38	1386.3
755.564	1357.63
755.748	1367.87
755.932	1333.06
756.116	1244.99
756.3	1320.77
756.484	1324.87
756.668	1390.4
756.852	1177.41
757.036	1312.58
757.22	1230.66
757.404	1193.8
757.588	1165.12
757.772	1255.23
757.956	1277.76
758.14	1222.47
758.323	1212.23
758.507	1214.27
758.691	1115.97
758.875	1183.56
759.059	1251.14
759.242	1150.79
759.426	1232.71
759.61	1179.46
759.794	1185.6
759.977	1095.49
760.161	1161.03
760.345	1054.53
760.528	1083.2
760.712	1150.79
760.895	1161.03
761.079	1150.79
761.263	1083.2
761.446	1044.29
761.63	1148.74
761.813	999.24
761.997	1070.92
762.18	1072.96
762.364	1120.07
762.547	1134.4
762.731	1007.43
762.914	1058.63
763.098	1107.78
763.281	1058.63
763.464	1013.57
763.648	1060.68
763.831	1046.34
764.015	1009.48
764.198	989
764.381	1023.81
764.564	1077.06
764.748	984.9
764.931	1029.96
765.114	941.89
765.297	954.18
765.481	1021.77
765.664	939.85
765.847	974.66
766.03	927.56
766.213	808.78
766.397	878.41
766.58	905.03
766.763	966.47
766.946	941.89
767.129	956.23
767.312	939.85
767.495	917.32
767.678	954.18
767.861	978.76
768.044	989
768.227	933.7
768.41	974.66
768.593	980.81
768.776	976.71
768.959	948.04
769.142	935.75
769.324	831.3
769.507	847.69
769.69	921.42
769.873	843.59
770.056	890.7
770.239	913.22
770.421	886.6
770.604	831.3
770.787	870.22
770.97	923.46
771.152	794.44
771.335	749.39
771.518	837.45
771.7	855.88
771.883	841.54
772.066	907.08
772.248	677.71
772.431	950.09
772.613	839.5
772.796	778.06
772.978	823.11
773.161	859.98
773.343	784.2
773.526	829.26
773.708	827.21
773.891	784.2
774.073	827.21
774.256	735.05
774.438	816.97
774.621	810.82
774.803	794.44
774.985	657.23
775.168	810.82
775.35	702.28
775.532	677.71
775.715	685.9
775.897	749.39
776.079	735.05
776.261	698.19
776.444	671.56
776.626	702.28
776.808	687.95
776.99	673.61
777.173	655.18
777.355	620.36
777.537	689.99
777.719	612.17
777.901	669.52
778.083	624.46
778.265	620.36
778.447	644.94
778.629	638.8
778.811	669.52
778.993	706.38
779.175	614.22
779.357	599.88
779.539	663.37
779.721	665.42
779.903	544.59
780.085	599.88
780.267	614.22
780.449	589.64
780.631	653.13
780.812	644.94
780.994	565.07
781.176	513.87
781.358	599.88
781.54	517.97
781.721	599.88
781.903	599.88
782.085	603.98
782.267	661.32
782.448	546.64
782.63	479.05
782.812	522.06
782.993	567.12
783.175	542.54
783.357	530.25
783.538	603.98
783.72	558.92
783.901	493.39
784.083	520.01
784.264	544.59
784.446	452.43
784.627	456.53
784.809	499.53
784.99	444.24
785.172	505.68
785.353	474.96
785.535	497.49
785.716	479.05
785.897	423.76
786.079	434
786.26	399.18
786.441	491.34
786.623	438.09
786.804	411.47
786.985	520.01
787.167	366.42
787.348	464.72
787.529	468.81
787.71	395.09
787.891	390.99
788.073	360.27
788.254	440.14
788.435	472.91
788.616	374.61
788.797	415.57
788.978	356.18
789.159	407.38
789.34	511.82
789.522	356.18
789.703	345.94
789.884	366.42
790.065	399.18
790.246	413.52
790.427	378.7
790.607	397.14
790.788	294.74
790.969	378.7
791.15	335.7
791.331	362.32
791.512	442.19
791.693	302.93
791.874	333.65
792.054	380.75
792.235	329.55
792.416	323.41
792.597	341.84
792.778	368.46
792.958	372.56
793.139	364.37
793.32	325.46
793.5	235.35
793.681	329.55
793.862	276.31
794.042	364.37
794.223	309.07
794.404	278.35
794.584	264.02
794.765	264.02
794.945	307.02
795.126	374.61
795.306	259.92
795.487	245.59
795.667	278.35
795.848	313.17
796.028	309.07
796.209	292.69
796.389	427.85
796.57	288.59
796.75	288.59
796.93	284.5
797.111	214.87
797.291	253.78
797.471	286.54
797.652	255.83
797.832	270.16
798.012	370.51
798.192	261.97
798.373	198.48
798.553	284.5
798.733	235.35
798.913	319.31
799.093	239.44
799.274	280.4
799.454	223.06
799.634	261.97
799.814	239.44
799.994	239.44
800.174	307.02
800.354	251.73
800.534	243.54
800.714	343.89
800.894	261.97
801.074	253.78
801.254	257.87
801.434	239.44
801.614	259.92
801.794	223.06
801.974	753.48
802.154	233.3
802.334	223.06
802.514	126.8
802.693	186.19
802.873	227.15
803.053	264.02
803.233	200.53
803.413	216.91
803.592	288.59
803.772	233.3
803.952	165.71
804.131	141.14
804.311	229.2
804.491	163.67
804.67	165.71
804.85	137.04
805.03	169.81
805.209	251.73
805.389	223.06
805.568	194.39
805.748	184.15
805.928	186.19
806.107	280.4
806.287	223.06
806.466	206.67
806.646	192.34
806.825	210.77
807.004	198.48
807.184	139.09
807.363	194.39
807.543	180.05
807.722	157.52
807.901	175.95
808.081	270.16
808.26	184.15
808.439	98.13
808.619	135
808.798	122.71
808.977	216.91
809.156	186.19
809.336	139.09
809.515	155.47
809.694	178
809.873	106.32
810.052	229.2
810.231	161.62
810.411	137.04
810.59	161.62
810.769	186.19
810.948	147.28
811.127	71.51
811.306	147.28
811.485	114.52
811.664	169.81
811.843	216.91
812.022	171.86
812.201	169.81
812.38	182.1
812.559	155.47
812.737	163.67
812.916	120.66
813.095	132.95
813.274	235.35
813.453	145.24
813.632	145.24
813.811	188.24
813.989	120.66
814.168	245.59
814.347	124.76
814.526	227.15
814.704	171.86
814.883	180.05
815.062	114.52
815.24	130.9
815.419	163.67
815.598	155.47
815.776	106.32
815.955	221.01
816.133	106.32
816.312	145.24
816.49	114.52
816.669	167.76
816.847	137.04
817.026	175.95
817.204	94.04
817.383	91.99
817.561	57.17
817.74	159.57
817.918	98.13
818.097	79.7
818.275	130.9
818.453	120.66
818.632	128.85
818.81	96.08
818.988	128.85
819.167	77.65
819.345	51.03
819.523	212.82
819.701	81.75
819.879	116.56
820.058	122.71
820.236	96.08
820.414	106.32
820.592	192.34
820.77	155.47
820.948	149.33
821.127	128.85
821.305	122.71
821.483	208.72
821.661	137.04
821.839	161.62
822.017	139.09
822.195	137.04
822.373	112.47
822.551	94.04
822.729	198.48
822.907	184.15
823.085	208.72
823.262	91.99
823.44	135
823.618	61.27
823.796	106.32
823.974	167.76
824.152	98.13
824.329	135
824.507	114.52
824.685	104.28
824.863	165.71
825.04	83.8
825.218	210.77
825.396	69.46
825.574	108.37
825.751	116.56
825.929	124.76
826.107	87.89
826.284	-6.31
826.462	110.42
826.639	32.6
826.817	36.69
826.994	36.69
827.172	34.64
827.349	63.32
827.527	87.89
827.704	128.85
827.882	145.24
828.059	128.85
828.237	77.65
828.414	175.95
828.591	73.56
828.769	91.99
828.946	18.26
829.124	120.66
829.301	75.6
829.478	130.9
829.655	94.04
829.833	89.94
830.01	22.36
830.187	128.85
830.364	143.19
830.542	71.51
830.719	57.17
830.896	65.36
831.073	63.32
831.25	46.93
831.427	178
831.604	122.71
831.782	57.17
831.959	98.13
832.136	36.69
832.313	110.42
832.49	94.04
832.667	40.79
832.844	79.7
833.021	34.64
833.198	75.6
833.374	102.23
833.551	98.13
833.728	155.47
833.905	91.99
834.082	5.97
834.259	102.23
834.436	85.84
834.612	100.18
834.789	130.9
834.966	120.66
835.143	112.47
835.319	91.99
835.496	14.17
835.673	89.94
835.85	137.04
836.026	98.13
836.203	51.03
836.38	79.7
836.556	63.32
836.733	-0.17
836.909	46.93
837.086	42.84
837.262	75.6
837.439	24.4
837.616	-2.22
837.792	73.56
837.968	120.66
838.145	153.43
838.321	79.7
838.498	28.5
838.674	32.6
838.851	18.26
839.027	46.93
839.203	67.41
839.38	59.22
839.556	65.36
839.732	38.74
839.909	22.36
840.085	112.47
840.261	18.26
840.437	51.03
840.614	83.8
840.79	100.18
840.966	46.93
841.142	36.69
841.318	63.32
841.494	83.8
841.671	51.03
841.847	-18.6
842.023	108.37
842.199	63.32
842.375	77.65
842.551	16.21
842.727	5.97
842.903	112.47
843.079	48.98
843.255	128.85
843.431	96.08
843.607	65.36
843.783	-0.17
843.959	122.71
844.134	-26.79
844.31	75.6
844.486	-4.27
844.662	55.12
844.838	61.27
845.013	59.22
845.189	61.27
845.365	110.42
845.541	94.04
845.716	104.28
845.892	36.69
846.068	5.97
846.244	-10.41
846.419	38.74
846.595	81.75
846.77	18.26
846.946	42.84
847.122	-14.51
847.297	36.69
847.473	91.99
847.648	55.12
847.824	83.8
847.999	32.6
848.175	46.93
848.35	20.31
848.526	73.56
848.701	96.08
848.876	71.51
849.052	118.61
849.227	5.97
849.403	-34.99
849.578	130.9
849.753	-71.85
849.929	79.7
850.104	26.45
850.279	87.89
850.454	14.17
850.63	98.13
850.805	28.5
850.98	63.32
851.155	18.26
851.33	1.88
851.505	46.93
851.681	120.66
851.856	26.45
852.031	118.61
852.206	24.4
852.381	26.45
852.556	53.08
852.731	81.75
852.906	18.26
853.081	40.79
853.256	34.64
853.431	24.4
853.606	30.55
853.781	44.88
853.956	14.17
854.131	-12.46
854.305	-34.99
854.48	48.98
854.655	-14.51
854.83	5.97
855.005	32.6
855.18	106.32
855.354	-43.18
855.529	48.98
855.704	-2.22
855.879	132.95
856.053	67.41
856.228	75.6
856.403	20.31
856.577	46.93
856.752	30.55
856.926	-12.46
857.101	30.55
857.276	14.17
857.45	12.12
857.625	22.36
857.799	28.5
857.974	65.36
858.148	-106.67
858.323	53.08
858.497	53.08
858.672	-34.99
858.846	-4.27
859.02	14.17
859.195	-8.36
859.369	55.12
859.543	85.84
859.718	73.56
859.892	96.08
860.066	-18.6
860.241	14.17
860.415	20.31
860.589	40.79
860.763	61.27
860.938	40.79
861.112	104.28
861.286	-26.79
861.46	46.93
861.634	18.26
861.808	63.32
861.982	26.45
862.157	14.17
862.331	-2.22
862.505	85.84
862.679	8.02
862.853	-10.41
863.027	3.93
863.201	46.93
863.375	65.36
863.549	26.45
863.722	20.31
863.896	126.8
864.07	36.69
864.244	42.84
864.418	55.12
864.592	-4.27
864.766	89.94
864.939	48.98
865.113	51.03
865.287	-8.36
865.461	-12.46
865.634	63.32
865.808	28.5
865.982	8.02
866.156	-2.22
866.329	30.55
866.503	-12.46
866.676	20.31
866.85	-14.51
867.024	-26.79
867.197	132.95
867.371	18.26
867.544	18.26
867.718	1.88
867.891	-6.31
868.065	-10.41
868.238	32.6
868.412	32.6
868.585	-2.22
868.759	22.36
868.932	40.79
869.105	10.07
869.279	-26.79
869.452	16.21
869.625	67.41
869.799	38.74
869.972	-6.31
870.145	38.74
870.319	30.55
870.492	94.04
870.665	53.08
870.838	-47.27
871.011	-28.84
871.185	-8.36
871.358	34.64
871.531	42.84
871.704	5.97
871.877	-20.65
872.05	34.64
872.223	-6.31
872.396	28.5
872.569	18.26
872.742	22.36
872.915	57.17
873.088	1.88
873.261	26.45
873.434	55.12
873.607	-28.84
873.78	42.84
873.953	-20.65
874.126	16.21
874.299	38.74
874.471	12.12
874.644	-28.84
874.817	42.84
874.99	55.12
875.163	-2.22
875.335	57.17
875.508	1.88
875.681	30.55
875.853	81.75
876.026	55.12
876.199	36.69
876.371	-22.7
876.544	-2.22
876.717	38.74
876.889	-8.36
877.062	24.4
877.234	-67.75
877.407	87.89
877.579	38.74
877.752	-22.7
877.924	18.26
878.097	16.21
878.269	-32.94
878.442	71.51
878.614	5.97
878.786	-6.31
878.959	-34.99
879.131	53.08
879.303	1.88
879.476	26.45
879.648	40.79
879.82	32.6
879.993	10.07
880.165	-37.03
880.337	-110.76
880.509	57.17
880.681	-30.89
880.854	10.07
881.026	94.04
881.198	34.64
881.37	-32.94
881.542	22.36
881.714	-4.27
881.886	-4.27
882.058	-2.22
882.23	71.51
882.402	83.8
882.574	22.36
882.746	24.4
882.918	51.03
883.09	-20.65
883.262	34.64
883.434	8.02
883.606	-18.6
883.778	-26.79
883.95	79.7
884.122	55.12
884.293	89.94
884.465	51.03
884.637	32.6
884.809	-20.65
884.98	91.99
885.152	28.5
885.324	-47.27
885.496	-2.22
885.667	-2.22
885.839	-34.99
886.011	63.32
886.182	48.98
886.354	5.97
886.525	-75.95
886.697	3.93
886.869	-0.17
887.04	87.89
887.212	116.56
887.383	63.32
887.555	24.4
887.726	16.21
887.897	-20.65
888.069	-4.27
888.24	14.17
888.412	-20.65
888.583	46.93
888.754	51.03
888.926	-34.99
889.097	-12.46
889.268	46.93
889.44	-12.46
889.611	-10.41
889.782	-8.36
889.953	-43.18
890.125	-10.41
890.296	-14.51
890.467	-26.79
890.638	16.21
890.809	30.55
890.98	-34.99
891.151	24.4
891.323	63.32
891.494	-4.27
891.665	5.97
891.836	10.07
892.007	14.17
892.178	71.51
892.349	16.21
892.52	3.93
892.691	-18.6
892.862	1.88
893.032	-55.47
893.203	71.51
893.374	36.69
893.545	26.45
893.716	-32.94
893.887	73.56
894.057	40.79
894.228	34.64
894.399	-0.17
894.57	-10.41
894.74	-34.99
894.911	-26.79
895.082	-39.08
895.253	-37.03
895.423	-71.85
895.594	-30.89
895.764	48.98
895.935	-20.65
896.106	-84.14
896.276	16.21
896.447	14.17
896.617	36.69
896.788	8.02
896.958	26.45
897.129	81.75
897.299	3.93
897.47	-18.6
897.64	51.03
897.81	-0.17
897.981	-12.46
898.151	-20.65
898.322	-6.31
898.492	14.17
898.662	28.5
898.832	-39.08
899.003	40.79
899.173	65.36
899.343	-47.27
899.513	5.97
