Data from USB4F104151__76__13-12-22-094.txt Node

Date: Fri Mar 14 13:12:22 EDT 2025
User: louis
Spectrometer: USB4F10415
Trigger mode: 4
Integration Time (sec): 2.000000E-2
Scans to average: 1
Electric dark correction enabled: true
Nonlinearity correction enabled: false
Boxcar width: 0
XAxis mode: Wavelengths
Number of Pixels in Spectrum: 3648
>>>>>Begin Spectral Data<<<<<
178.204	-133.63
178.424	-133.63
178.644	-133.63
178.864	-100.86
179.084	-141.82
179.304	-55.81
179.524	-45.57
179.744	-23.04
179.964	30.21
180.184	-14.85
180.404	-25.09
180.624	54.78
180.844	19.97
181.064	87.55
181.283	-31.23
181.503	-6.66
181.723	9.73
181.943	-20.99
182.163	46.59
182.383	-18.94
182.602	7.68
182.822	-33.28
183.042	-18.94
183.262	-35.33
183.482	-6.66
183.701	-66.05
183.921	-14.85
184.141	58.88
184.361	89.6
184.58	13.82
184.8	-18.94
185.02	-80.38
185.239	-41.47
185.459	-0.51
185.679	-23.04
185.898	-64
186.118	7.68
186.338	-90.62
186.557	-43.52
186.777	-66.05
186.997	-80.38
187.216	13.82
187.436	-20.99
187.655	-2.56
187.875	75.26
188.095	-10.75
188.314	44.54
188.534	-41.47
188.753	5.63
188.973	30.21
189.192	7.68
189.412	-6.66
189.631	-43.52
189.851	60.93
190.07	50.69
190.29	-27.14
190.509	77.31
190.729	46.59
190.948	-6.66
191.168	40.45
191.387	5.63
191.607	-90.62
191.826	19.97
192.045	-74.24
192.265	46.59
192.484	-33.28
192.704	-10.75
192.923	89.6
193.142	7.68
193.362	-27.14
193.581	-16.9
193.8	-20.99
194.02	-16.9
194.239	15.87
194.458	26.11
194.678	-98.81
194.897	-20.99
195.116	-33.28
195.335	-35.33
195.555	38.4
195.774	-16.9
195.993	-10.75
196.212	-8.7
196.432	17.92
196.651	-10.75
196.87	13.82
197.089	71.17
197.308	-4.61
197.528	48.64
197.747	-18.94
197.966	-80.38
198.185	79.36
198.404	-49.66
198.623	40.45
198.842	9.73
199.062	11.78
199.281	38.4
199.5	1.54
199.719	-35.33
199.938	-14.85
200.157	-23.04
200.376	-37.38
200.595	62.98
200.814	-2.56
201.033	-0.51
201.252	62.98
201.471	-23.04
201.69	30.21
201.909	-6.66
202.128	-0.51
202.347	-8.7
202.566	-47.62
202.785	19.97
203.004	-35.33
203.223	19.97
203.442	15.87
203.661	-18.94
203.879	-39.42
204.098	-20.99
204.317	-31.23
204.536	-8.7
204.755	-35.33
204.974	-51.71
205.193	40.45
205.411	46.59
205.63	36.35
205.849	-51.71
206.068	1.54
206.287	40.45
206.505	13.82
206.724	-6.66
206.943	-25.09
207.162	-0.51
207.381	-43.52
207.599	3.58
207.818	-18.94
208.037	19.97
208.255	17.92
208.474	81.41
208.693	-27.14
208.911	30.21
209.13	3.58
209.349	1.54
209.567	58.88
209.786	42.5
210.005	9.73
210.223	22.02
210.442	-80.38
210.661	15.87
210.879	-23.04
211.098	32.26
211.316	-31.23
211.535	-27.14
211.753	13.82
211.972	38.4
212.191	-18.94
212.409	-0.51
212.628	7.68
212.846	-51.71
213.065	65.02
213.283	-76.29
213.502	62.98
213.72	42.5
213.938	5.63
214.157	7.68
214.375	-0.51
214.594	42.5
214.812	-0.51
215.031	-20.99
215.249	-16.9
215.467	-20.99
215.686	44.54
215.904	-29.18
216.122	-18.94
216.341	26.11
216.559	-12.8
216.778	26.11
216.996	69.12
217.214	-29.18
217.432	-20.99
217.651	38.4
217.869	-2.56
218.087	1.54
218.306	-35.33
218.524	15.87
218.742	13.82
218.96	-49.66
219.179	40.45
219.397	-76.29
219.615	40.45
219.833	5.63
220.051	17.92
220.27	46.59
220.488	-25.09
220.706	30.21
220.924	-49.66
221.142	-12.8
221.36	5.63
221.578	-0.51
221.796	26.11
222.015	-16.9
222.233	-49.66
222.451	-10.75
222.669	-8.7
222.887	-0.51
223.105	56.83
223.323	-33.28
223.541	-14.85
223.759	24.06
223.977	40.45
224.195	40.45
224.413	69.12
224.631	48.64
224.849	34.3
225.067	71.17
225.285	-12.8
225.503	95.74
225.721	71.17
225.939	79.36
226.157	-4.61
226.375	118.27
226.592	-25.09
226.81	22.02
227.028	11.78
227.246	-29.18
227.464	73.21
227.682	-37.38
227.9	101.89
228.117	50.69
228.335	-4.61
228.553	44.54
228.771	-2.56
228.989	44.54
229.206	-2.56
229.424	40.45
229.642	-2.56
229.86	19.97
230.077	48.64
230.295	-14.85
230.513	-55.81
230.731	54.78
230.948	30.21
231.166	22.02
231.384	34.3
231.601	-16.9
231.819	75.26
232.037	-10.75
232.254	19.97
232.472	-6.66
232.689	-2.56
232.907	-2.56
233.125	13.82
233.342	17.92
233.56	-0.51
233.777	5.63
233.995	-10.75
234.213	38.4
234.43	26.11
234.648	-49.66
234.865	38.4
235.083	-0.51
235.3	-20.99
235.518	24.06
235.735	-47.62
235.953	-70.14
236.17	17.92
236.388	30.21
236.605	52.74
236.822	26.11
237.04	71.17
237.257	-35.33
237.475	-41.47
237.692	1.54
237.909	79.36
238.127	58.88
238.344	3.58
238.562	-10.75
238.779	-82.43
238.996	15.87
239.214	26.11
239.431	3.58
239.648	-47.62
239.865	-18.94
240.083	15.87
240.3	38.4
240.517	-25.09
240.735	50.69
240.952	-0.51
241.169	1.54
241.386	-39.42
241.603	-6.66
241.821	-23.04
242.038	-0.51
242.255	58.88
242.472	-16.9
242.689	13.82
242.907	-43.52
243.124	17.92
243.341	22.02
243.558	-20.99
243.775	-0.51
243.992	85.5
244.209	-16.9
244.426	40.45
244.643	54.78
244.86	-68.09
245.078	-27.14
245.295	26.11
245.512	28.16
245.729	-47.62
245.946	26.11
246.163	-59.9
246.38	13.82
246.597	40.45
246.814	32.26
247.031	32.26
247.248	-84.48
247.464	110.08
247.681	-2.56
247.898	-16.9
248.115	1.54
248.332	-64
248.549	9.73
248.766	79.36
248.983	-39.42
249.2	30.21
249.417	-2.56
249.633	-23.04
249.85	-35.33
250.067	-0.51
250.284	-4.61
250.501	-31.23
250.717	-2.56
250.934	17.92
251.151	-35.33
251.368	50.69
251.585	-10.75
251.801	-18.94
252.018	3.58
252.235	116.22
252.451	3.58
252.668	-18.94
252.885	13.82
253.102	56.83
253.318	-12.8
253.535	17.92
253.752	5.63
253.968	-2.56
254.185	-2.56
254.401	-39.42
254.618	48.64
254.835	-53.76
255.051	-29.18
255.268	62.98
255.484	-59.9
255.701	-25.09
255.917	-27.14
256.134	-70.14
256.351	71.17
256.567	-35.33
256.784	30.21
257	17.92
257.217	24.06
257.433	3.58
257.65	13.82
257.866	38.4
258.082	-39.42
258.299	-31.23
258.515	-6.66
258.732	-12.8
258.948	-64
259.165	22.02
259.381	24.06
259.597	13.82
259.814	-49.66
260.03	-8.7
260.246	-20.99
260.463	-16.9
260.679	44.54
260.895	48.64
261.112	50.69
261.328	-31.23
261.544	28.16
261.761	13.82
261.977	-33.28
262.193	-18.94
262.409	19.97
262.626	40.45
262.842	1.54
263.058	-27.14
263.274	-8.7
263.49	17.92
263.707	30.21
263.923	1.54
264.139	54.78
264.355	36.35
264.571	-16.9
264.787	24.06
265.004	48.64
265.22	-18.94
265.436	-57.86
265.652	58.88
265.868	-33.28
266.084	-59.9
266.3	-39.42
266.516	38.4
266.732	34.3
266.948	-6.66
267.164	38.4
267.38	-6.66
267.596	48.64
267.812	-10.75
268.028	-16.9
268.244	28.16
268.46	32.26
268.676	-10.75
268.892	-12.8
269.108	17.92
269.324	15.87
269.54	-18.94
269.756	-76.29
269.972	28.16
270.188	5.63
270.403	1.54
270.619	-43.52
270.835	19.97
271.051	24.06
271.267	38.4
271.483	30.21
271.698	-68.09
271.914	28.16
272.13	58.88
272.346	-23.04
272.562	1.54
272.777	-33.28
272.993	26.11
273.209	-20.99
273.425	24.06
273.64	56.83
273.856	15.87
274.072	1.54
274.287	-82.43
274.503	13.82
274.719	-23.04
274.934	-66.05
275.15	-57.86
275.366	42.5
275.581	26.11
275.797	32.26
276.012	-31.23
276.228	19.97
276.444	-78.33
276.659	32.26
276.875	-70.14
277.09	-25.09
277.306	28.16
277.521	-8.7
277.737	40.45
277.952	62.98
278.168	7.68
278.383	24.06
278.599	-10.75
278.814	97.79
279.03	-6.66
279.245	5.63
279.461	62.98
279.676	32.26
279.892	-33.28
280.107	3.58
280.322	-18.94
280.538	-10.75
280.753	-80.38
280.969	-0.51
281.184	101.89
281.399	81.41
281.615	30.21
281.83	38.4
282.045	-68.09
282.26	-55.81
282.476	30.21
282.691	-2.56
282.906	-55.81
283.122	79.36
283.337	71.17
283.552	34.3
283.767	-18.94
283.983	-86.53
284.198	-8.7
284.413	52.74
284.628	28.16
284.843	48.64
285.058	38.4
285.274	-64
285.489	-10.75
285.704	19.97
285.919	-18.94
286.134	36.35
286.349	28.16
286.564	-4.61
286.779	13.82
286.995	7.68
287.21	-23.04
287.425	-35.33
287.64	-68.09
287.855	-10.75
288.07	-76.29
288.285	13.82
288.5	67.07
288.715	34.3
288.93	-0.51
289.145	22.02
289.36	30.21
289.575	22.02
289.79	9.73
290.004	9.73
290.219	-45.57
290.434	-66.05
290.649	19.97
290.864	1.54
291.079	-6.66
291.294	-33.28
291.509	5.63
291.724	50.69
291.938	-35.33
292.153	-51.71
292.368	-43.52
292.583	77.31
292.798	-27.14
293.012	5.63
293.227	-10.75
293.442	-0.51
293.657	73.21
293.871	93.69
294.086	118.27
294.301	9.73
294.516	-23.04
294.73	17.92
294.945	-37.38
295.16	30.21
295.374	1.54
295.589	136.7
295.804	-2.56
296.018	9.73
296.233	17.92
296.447	-35.33
296.662	-53.76
296.877	-14.85
297.091	71.17
297.306	-35.33
297.52	-72.19
297.735	34.3
297.949	24.06
298.164	83.45
298.378	17.92
298.593	17.92
298.807	-12.8
299.022	-27.14
299.236	54.78
299.451	54.78
299.665	40.45
299.88	112.13
300.094	-53.76
300.309	11.78
300.523	42.5
300.737	38.4
300.952	-14.85
301.166	-23.04
301.381	5.63
301.595	30.21
301.809	38.4
302.024	-20.99
302.238	7.68
302.452	-68.09
302.667	11.78
302.881	58.88
303.095	38.4
303.309	-2.56
303.524	40.45
303.738	99.84
303.952	-10.75
304.166	40.45
304.381	-14.85
304.595	24.06
304.809	-41.47
305.023	62.98
305.237	-25.09
305.452	42.5
305.666	26.11
305.88	30.21
306.094	87.55
306.308	-18.94
306.522	15.87
306.736	-6.66
306.95	11.78
307.164	24.06
307.379	30.21
307.593	-8.7
307.807	26.11
308.021	50.69
308.235	32.26
308.449	-47.62
308.663	-57.86
308.877	77.31
309.091	-16.9
309.305	-2.56
309.519	-0.51
309.733	15.87
309.947	-33.28
310.161	38.4
310.374	19.97
310.588	36.35
310.802	-4.61
311.016	22.02
311.23	32.26
311.444	9.73
311.658	-68.09
311.872	3.58
312.085	1.54
312.299	-14.85
312.513	1.54
312.727	13.82
312.941	-96.77
313.154	-2.56
313.368	3.58
313.582	26.11
313.796	54.78
314.009	34.3
314.223	-10.75
314.437	-45.57
314.651	60.93
314.864	-55.81
315.078	-49.66
315.292	-55.81
315.505	1.54
315.719	5.63
315.933	48.64
316.146	-2.56
316.36	-29.18
316.573	38.4
316.787	13.82
317.001	-45.57
317.214	26.11
317.428	30.21
317.641	11.78
317.855	-10.75
318.068	11.78
318.282	5.63
318.495	17.92
318.709	56.83
318.922	-33.28
319.136	40.45
319.349	58.88
319.563	-27.14
319.776	30.21
319.99	-18.94
320.203	89.6
320.417	1.54
320.63	32.26
320.843	26.11
321.057	58.88
321.27	-43.52
321.483	-66.05
321.697	13.82
321.91	-12.8
322.124	-35.33
322.337	-18.94
322.55	38.4
322.763	-10.75
322.977	-23.04
323.19	-20.99
323.403	48.64
323.617	11.78
323.83	32.26
324.043	26.11
324.256	-45.57
324.469	-121.34
324.683	-4.61
324.896	-0.51
325.109	40.45
325.322	60.93
325.535	17.92
325.748	44.54
325.962	24.06
326.175	15.87
326.388	-16.9
326.601	-10.75
326.814	5.63
327.027	-53.76
327.24	36.35
327.453	1.54
327.666	-43.52
327.879	5.63
328.092	5.63
328.305	32.26
328.518	-18.94
328.731	79.36
328.944	89.6
329.157	-18.94
329.37	-43.52
329.583	-27.14
329.796	62.98
330.009	-0.51
330.222	-14.85
330.435	38.4
330.648	-27.14
330.861	-2.56
331.073	24.06
331.286	17.92
331.499	34.3
331.712	7.68
331.925	5.63
332.138	-39.42
332.35	32.26
332.563	67.07
332.776	-4.61
332.989	15.87
333.202	-41.47
333.414	50.69
333.627	30.21
333.84	9.73
334.053	17.92
334.265	-47.62
334.478	83.45
334.691	-4.61
334.903	58.88
335.116	-16.9
335.329	1.54
335.541	32.26
335.754	62.98
335.966	-0.51
336.179	79.36
336.392	26.11
336.604	22.02
336.817	30.21
337.029	5.63
337.242	-31.23
337.454	5.63
337.667	44.54
337.88	54.78
338.092	-47.62
338.305	9.73
338.517	-27.14
338.729	54.78
338.942	38.4
339.154	-0.51
339.367	5.63
339.579	38.4
339.792	-53.76
340.004	-23.04
340.217	-41.47
340.429	-6.66
340.641	7.68
340.854	22.02
341.066	-10.75
341.278	77.31
341.491	13.82
341.703	-27.14
341.915	-41.47
342.128	54.78
342.34	-6.66
342.552	-41.47
342.764	-47.62
342.977	60.93
343.189	69.12
343.401	-49.66
343.613	-47.62
343.826	46.59
344.038	-51.71
344.25	-27.14
344.462	22.02
344.674	87.55
344.886	-25.09
345.099	-31.23
345.311	30.21
345.523	-18.94
345.735	22.02
345.947	13.82
346.159	24.06
346.371	114.17
346.583	32.26
346.795	-14.85
347.007	52.74
347.219	32.26
347.431	-6.66
347.643	17.92
347.855	-27.14
348.067	54.78
348.279	13.82
348.491	-57.86
348.703	-8.7
348.915	19.97
349.127	-4.61
349.339	-33.28
349.551	-59.9
349.763	-16.9
349.975	44.54
350.187	30.21
350.399	79.36
350.61	26.11
350.822	60.93
351.034	48.64
351.246	15.87
351.458	26.11
351.669	-14.85
351.881	42.5
352.093	-10.75
352.305	62.98
352.517	40.45
352.728	67.07
352.94	79.36
353.152	-14.85
353.363	-16.9
353.575	-10.75
353.787	-18.94
353.999	69.12
354.21	56.83
354.422	3.58
354.633	42.5
354.845	30.21
355.057	-2.56
355.268	60.93
355.48	-23.04
355.692	32.26
355.903	62.98
356.115	97.79
356.326	-23.04
356.538	17.92
356.749	91.65
356.961	87.55
357.172	-20.99
357.384	30.21
357.595	62.98
357.807	-16.9
358.018	-0.51
358.23	-14.85
358.441	5.63
358.653	7.68
358.864	9.73
359.075	60.93
359.287	-2.56
359.498	40.45
359.709	7.68
359.921	97.79
360.132	42.5
360.344	79.36
360.555	1.54
360.766	-82.43
360.977	1.54
361.189	97.79
361.4	-18.94
361.611	-10.75
361.823	87.55
362.034	22.02
362.245	-0.51
362.456	-12.8
362.667	46.59
362.879	38.4
363.09	46.59
363.301	-27.14
363.512	67.07
363.723	-4.61
363.935	30.21
364.146	48.64
364.357	-55.81
364.568	112.13
364.779	-4.61
364.99	-12.8
365.201	-43.52
365.412	101.89
365.623	-39.42
365.834	65.02
366.045	30.21
366.256	56.83
366.467	-55.81
366.678	-8.7
366.889	13.82
367.1	62.98
367.311	-2.56
367.522	-33.28
367.733	-12.8
367.944	15.87
368.155	24.06
368.366	75.26
368.577	52.74
368.788	13.82
368.999	15.87
369.209	9.73
369.42	42.5
369.631	-2.56
369.842	-20.99
370.053	38.4
370.264	44.54
370.474	93.69
370.685	-27.14
370.896	-35.33
371.107	42.5
371.317	40.45
371.528	-31.23
371.739	32.26
371.95	13.82
372.16	-6.66
372.371	-29.18
372.582	-31.23
372.792	73.21
373.003	19.97
373.214	7.68
373.424	30.21
373.635	-66.05
373.846	46.59
374.056	67.07
374.267	-4.61
374.477	-18.94
374.688	-0.51
374.898	-16.9
375.109	89.6
375.319	26.11
375.53	5.63
375.74	17.92
375.951	44.54
376.161	-18.94
376.372	71.17
376.582	62.98
376.793	-2.56
377.003	-18.94
377.214	-47.62
377.424	5.63
377.635	15.87
377.845	44.54
378.055	114.17
378.266	-6.66
378.476	7.68
378.686	83.45
378.897	13.82
379.107	30.21
379.317	-23.04
379.528	93.69
379.738	62.98
379.948	-59.9
380.158	5.63
380.369	105.98
380.579	42.5
380.789	-37.38
380.999	48.64
381.21	-18.94
381.42	130.56
381.63	40.45
381.84	-4.61
382.05	15.87
382.261	46.59
382.471	-2.56
382.681	62.98
382.891	46.59
383.101	46.59
383.311	11.78
383.521	-10.75
383.731	73.21
383.941	95.74
384.151	9.73
384.361	-20.99
384.571	17.92
384.781	67.07
384.991	97.79
385.201	34.3
385.411	91.65
385.621	50.69
385.831	15.87
386.041	42.5
386.251	44.54
386.461	46.59
386.671	-25.09
386.881	56.83
387.091	22.02
387.301	97.79
387.511	30.21
387.72	38.4
387.93	153.09
388.14	22.02
388.35	26.11
388.56	-37.38
388.769	11.78
388.979	-31.23
389.189	34.3
389.399	36.35
389.609	9.73
389.818	52.74
390.028	34.3
390.238	60.93
390.447	40.45
390.657	28.16
390.867	46.59
391.076	38.4
391.286	67.07
391.496	44.54
391.705	-29.18
391.915	7.68
392.125	81.41
392.334	-47.62
392.544	132.61
392.753	81.41
392.963	54.78
393.172	19.97
393.382	48.64
393.591	75.26
393.801	15.87
394.01	54.78
394.22	50.69
394.429	56.83
394.639	11.78
394.848	36.35
395.058	15.87
395.267	54.78
395.477	101.89
395.686	9.73
395.895	65.02
396.105	114.17
396.314	77.31
396.524	30.21
396.733	-16.9
396.942	67.07
397.152	40.45
397.361	99.84
397.57	9.73
397.78	71.17
397.989	71.17
398.198	93.69
398.407	42.5
398.617	77.31
398.826	91.65
399.035	15.87
399.244	95.74
399.453	87.55
399.663	9.73
399.872	85.5
400.081	36.35
400.29	85.5
400.499	91.65
400.708	73.21
400.917	42.5
401.127	71.17
401.336	48.64
401.545	161.28
401.754	153.09
401.963	71.17
402.172	46.59
402.381	28.16
402.59	134.65
402.799	130.56
403.008	105.98
403.217	87.55
403.426	58.88
403.635	108.03
403.844	54.78
404.053	32.26
404.262	30.21
404.471	144.89
404.68	128.51
404.888	140.8
405.097	91.65
405.306	157.18
405.515	28.16
405.724	62.98
405.933	126.46
406.142	148.99
406.35	161.28
406.559	157.18
406.768	34.3
406.977	228.86
407.185	177.66
407.394	120.32
407.603	91.65
407.812	136.7
408.02	165.37
408.229	200.19
408.438	157.18
408.646	99.84
408.855	196.09
409.064	232.96
409.272	179.71
409.481	208.38
409.69	192
409.898	153.09
410.107	206.33
410.315	296.44
410.524	165.37
410.733	196.09
410.941	284.16
411.15	292.35
411.358	245.24
411.567	316.92
411.775	308.73
411.984	308.73
412.192	321.02
412.401	341.5
412.609	370.17
412.818	404.99
413.026	382.46
413.234	404.99
413.443	382.46
413.651	415.23
413.86	470.52
414.068	507.38
414.276	466.42
414.485	540.15
414.693	519.67
414.901	529.91
415.11	570.87
415.318	581.11
415.526	630.26
415.734	589.3
415.943	663.03
416.151	642.55
416.359	656.89
416.567	728.56
416.776	742.9
416.984	728.56
417.192	900.59
417.4	810.48
417.608	843.25
417.817	851.44
418.025	945.65
418.233	943.6
418.441	916.98
418.649	1046
418.857	1002.99
419.065	1015.28
419.273	1074.67
419.481	1140.21
419.689	1199.6
419.897	1287.66
420.105	1258.99
420.313	1273.32
420.521	1318.38
420.729	1347.05
420.937	1398.25
421.145	1433.07
421.353	1435.11
421.561	1615.34
421.769	1627.62
421.977	1646.05
422.185	1603.05
422.393	1760.74
422.601	1758.69
422.809	1914.34
423.017	1816.04
423.224	2022.88
423.432	2156
423.64	1994.21
423.848	2207.2
424.056	2229.73
424.263	2379.23
424.471	2397.66
424.679	2373.08
424.887	2584.02
425.094	2649.56
425.302	2596.31
425.51	2747.86
425.718	2713.05
425.925	2665.94
426.133	2766.29
426.341	3157.46
426.548	3200.46
426.756	3212.75
426.964	3415.5
427.171	3513.8
427.379	3624.39
427.586	3548.62
427.794	3741.13
428.001	3825.09
428.209	4060.61
428.417	3913.16
428.624	4246.98
428.832	4365.76
429.039	4316.61
429.247	4193.73
429.454	4650.43
429.662	4961.72
429.869	4775.35
430.076	5021.11
430.284	4826.55
430.491	5029.3
430.699	5291.44
430.906	5277.1
431.114	5449.13
431.321	5651.88
431.528	5713.32
431.736	6090.15
431.943	6378.91
432.15	6127.01
432.358	6370.72
432.565	6643.1
432.772	6466.97
432.979	7015.83
433.187	7107.99
433.394	7015.83
433.601	7568.78
433.808	7640.46
434.016	7427.47
434.223	7972.23
434.43	8265.09
434.637	8226.18
434.844	8725.88
435.052	8930.68
435.259	8820.09
435.466	8914.3
435.673	8646.01
435.88	9399.66
436.087	9903.46
436.294	9674.09
436.501	9573.74
436.708	9823.59
436.915	10251.62
437.122	10593.63
437.329	10548.58
437.537	11111.77
437.743	11222.36
437.95	11193.69
438.157	11715.92
438.364	11914.57
438.571	12000.58
438.778	12197.19
438.985	13149.5
439.192	12606.78
439.399	12991.8
439.606	12707.13
439.813	13624.62
440.02	14322.98
440.227	14132.52
440.433	14353.7
440.64	14388.52
440.847	14425.38
441.054	14636.32
441.261	15684.88
441.467	15635.73
441.674	15674.64
441.881	16088.33
442.088	16317.7
442.294	16332.04
442.501	16452.87
442.708	16872.7
442.914	17425.65
443.121	18447.59
443.328	17802.48
443.534	19111.13
443.741	18617.57
443.948	18468.07
444.154	19674.32
444.361	19674.32
444.568	19813.59
444.774	19533.01
444.981	19973.33
445.187	20356.3
445.394	21365.95
445.6	20966.59
445.807	23370.91
446.013	22097.07
446.22	22500.52
446.426	23426.2
446.633	23592.09
446.839	24355.98
447.046	23581.85
447.252	24747.14
447.459	24855.68
447.665	24906.88
447.871	25920.63
448.078	27018.34
448.284	25746.55
448.491	26621.03
448.697	27356.25
448.903	28032.08
449.11	28144.72
449.316	27720.79
449.522	28140.63
449.728	28712.01
449.935	29056.07
450.141	29318.21
450.347	29500.48
450.553	28910.66
450.76	28929.09
450.966	30340.15
451.172	30180.4
451.378	30932.01
451.584	30303.28
451.791	30876.71
451.997	30669.87
452.203	30997.54
452.409	31216.68
452.615	31355.94
452.821	30004.28
453.027	29504.57
453.233	31544.35
453.44	30192.69
453.646	30508.08
453.852	30755.88
454.058	31269.92
454.264	30207.03
454.47	31028.26
454.676	30078.01
454.882	31405.09
455.088	28372.05
455.294	29088.84
455.5	29434.94
455.705	29733.95
455.911	28519.5
456.117	27962.45
456.323	27604.06
456.529	26027.12
456.735	27358.3
456.941	26680.42
457.147	26444.91
457.352	25531.51
457.558	25060.48
457.764	25343.1
457.97	24470.67
458.176	24239.25
458.381	24265.87
458.587	23127.2
458.793	23225.5
458.999	21834.93
459.204	23663.77
459.41	22903.97
459.616	21316.79
459.821	21281.98
460.027	21482.68
460.233	20800.71
460.438	19827.92
460.644	20026.57
460.85	19246.3
461.055	18998.49
461.261	18576.61
461.466	17315.06
461.672	16864.51
461.878	18040.04
462.083	17026.3
462.289	16592.13
462.494	16354.57
462.7	15619.35
462.905	15449.36
463.111	15836.43
463.316	15768.85
463.522	15414.55
463.727	15519
463.932	15400.21
464.138	15240.47
464.343	15412.5
464.549	14968.09
464.754	15287.57
464.959	15408.4
465.165	15289.62
465.37	14400.8
465.575	13944.11
465.781	14540.07
465.986	14771.49
466.191	14071.08
466.397	13960.49
466.602	13274.42
466.807	13817.13
467.012	13837.61
467.218	13741.36
467.423	13317.43
467.628	13600.05
467.833	14060.84
468.038	13643.06
468.244	13421.88
468.449	13700.4
468.654	13368.63
468.859	13288.76
469.064	13067.58
469.269	12668.22
469.474	12916.03
469.679	12965.18
469.885	12655.93
470.09	12778.81
470.295	12793.15
470.5	12512.58
470.705	12707.13
470.91	12232.01
471.115	12178.76
471.32	12342.6
471.525	12307.78
471.73	11965.77
471.935	12082.5
472.139	11363.67
472.344	11611.47
472.549	11793.74
472.754	11318.61
472.959	11050.33
473.164	10972.5
473.369	10894.68
473.574	11185.49
473.778	11074.9
473.983	11017.56
474.188	10982.74
474.393	10347.87
474.598	10630.49
474.802	10515.81
475.007	10394.98
475.212	10368.35
475.417	9833.83
475.621	10286.44
475.826	10126.69
476.031	9846.12
476.235	9590.13
476.44	9663.85
476.645	9602.41
476.849	9684.33
477.054	9442.67
477.259	9368.95
477.463	9330.03
477.668	9110.9
477.872	9233.78
478.077	9205.11
478.282	8713.6
478.486	8703.36
478.691	8820.09
478.895	8707.45
479.1	8598.91
479.304	8684.92
479.509	8398.21
479.713	8500.61
479.918	8457.6
480.122	8369.54
480.326	8297.86
480.531	8498.56
480.735	8246.66
480.94	8109.44
481.144	8512.89
481.348	7923.08
481.553	8174.98
481.757	7847.3
481.961	8084.87
482.166	8068.48
482.37	7951.75
482.574	7808.39
482.778	7980.42
482.983	8207.75
483.187	7959.94
483.391	8355.2
483.595	7886.22
483.8	7984.52
484.004	7873.93
484.208	8027.53
484.412	8084.87
484.616	7882.12
484.821	8031.62
485.025	7845.26
485.229	8138.12
485.433	7792.01
485.637	7939.46
485.841	7853.45
486.045	8062.34
486.249	8082.82
486.453	7914.89
486.657	7992.71
486.861	8000.9
487.065	7771.53
487.269	8002.95
487.473	7720.33
487.677	8052.1
487.881	8072.58
488.085	7878.02
488.289	7851.4
488.493	8111.49
488.697	8091.01
488.901	8068.48
489.105	8113.54
489.309	7912.84
489.512	8093.06
489.716	8242.56
489.92	7933.32
490.124	8076.68
490.328	8209.79
490.531	8123.78
490.735	8111.49
490.939	8121.73
491.143	8215.94
491.346	8254.85
491.55	8308.1
491.754	8203.65
491.958	8281.47
492.161	8332.67
492.365	8371.58
492.569	8344.96
492.772	8369.54
492.976	8498.56
493.18	8355.2
493.383	8420.74
493.587	8672.64
493.79	8834.43
493.994	8717.69
494.197	8549.76
494.401	8818.04
494.605	8916.34
494.808	8899.96
495.012	8965.5
495.215	9213.3
495.419	9055.61
495.622	9213.3
495.825	9055.61
496.029	9112.95
496.232	9442.67
496.436	9223.54
496.639	9667.95
496.843	9377.14
497.046	9778.54
497.249	9852.27
497.453	9905.51
497.656	10073.45
497.859	9868.65
498.063	10083.69
498.266	10233.19
498.469	10202.47
498.673	10294.63
498.876	10626.4
499.079	10812.76
499.282	10696.03
499.485	10814.81
499.689	10960.22
499.892	10964.31
500.095	11167.06
500.298	11316.56
500.501	11158.87
500.705	11701.58
500.908	11834.7
501.111	11730.25
501.314	11752.78
501.517	11793.74
501.72	12199.24
501.923	12107.08
502.126	12346.69
502.329	12662.08
502.532	12791.1
502.735	12684.61
502.938	12924.22
503.141	12952.89
503.344	13075.77
503.547	13247.8
503.75	13471.03
503.953	13761.84
504.156	13886.76
504.359	13440.31
504.562	14091.56
504.765	14341.41
504.968	14398.76
505.17	14624.03
505.373	14523.68
505.576	14824.73
505.779	14937.37
505.982	15140.12
506.185	15480.08
506.387	15361.3
506.59	15652.11
506.793	15820.05
506.996	15469.84
507.198	16227.59
507.401	16039.18
507.604	16344.33
507.807	16792.83
508.009	17052.92
508.212	16706.82
508.415	17274.1
508.617	16985.34
508.82	17241.34
509.022	17231.1
509.225	17863.92
509.428	17804.53
509.63	17906.93
509.833	18056.43
510.035	18468.07
510.238	18142.44
510.44	18509.03
510.643	19047.65
510.845	19006.69
511.048	19129.56
511.25	19293.4
511.453	19332.31
511.655	20088.01
511.858	19825.87
512.06	19903.7
512.262	20180.17
512.465	20311.24
512.667	20407.5
512.87	20929.73
513.072	20978.88
513.274	21284.03
513.477	21478.58
513.679	21617.85
513.881	21877.94
514.084	21879.99
514.286	22101.17
514.488	22015.15
514.69	22754.47
514.893	22881.44
515.095	22953.12
515.297	23254.17
515.499	23403.67
515.701	23448.73
515.904	23542.94
516.106	24022.16
516.308	24321.16
516.51	24159.38
516.712	24386.7
516.914	24816.77
517.116	25197.7
517.318	25330.81
517.52	25441.4
517.722	25797.75
517.925	26002.55
518.127	25744.5
518.329	26199.15
518.531	26197.1
518.733	26641.51
518.935	27026.53
519.136	26975.33
519.338	27368.54
519.54	27319.39
519.742	27634.78
519.944	27733.08
520.146	28439.63
520.348	28417.1
520.55	28486.73
520.752	28574.8
520.954	28712.01
521.155	28925
521.357	29121.6
521.559	29819.96
521.761	29877.3
521.963	29881.4
522.164	29541.44
522.366	30110.77
522.568	30311.47
522.77	30684.2
522.971	31235.11
523.173	30839.85
523.375	31343.65
523.576	31114.28
523.778	31454.24
523.98	31689.76
524.181	31681.56
524.383	32074.77
524.584	31955.99
524.786	32494.61
524.988	32291.86
525.189	32590.86
525.391	32803.85
525.592	32820.24
525.794	33127.43
525.995	33178.63
526.197	33174.53
526.398	33457.15
526.6	33565.7
526.801	33694.72
527.003	33702.91
527.204	33588.22
527.406	34462.71
527.607	34161.65
527.808	34661.36
528.01	33571.84
528.211	34401.27
528.412	34788.33
528.614	34581.49
528.815	34587.63
529.016	35175.4
529.218	34655.22
529.419	34817
529.62	34808.81
529.822	34894.83
530.023	35159.02
530.224	35105.77
530.425	35052.52
530.626	35003.37
530.828	35128.3
531.029	35453.92
531.23	35302.37
531.431	35320.81
531.632	35785.69
531.833	35501.03
532.035	35359.72
532.236	35656.67
532.437	35757.02
532.638	35554.27
532.839	35689.44
533.04	35830.75
533.241	35220.45
533.442	35974.11
533.643	35828.7
533.844	35869.66
534.045	35982.3
534.246	35775.45
534.447	36148.18
534.648	35828.7
534.849	35972.06
535.05	35619.81
535.251	35953.63
535.451	35900.38
535.652	36164.57
535.853	36031.45
536.054	36201.43
536.255	36076.51
536.456	35660.77
536.657	36391.89
536.857	35666.91
537.058	35890.14
537.259	36131.8
537.46	36162.52
537.66	36035.55
537.861	36047.83
538.062	35757.02
538.263	35927
538.463	35849.18
538.664	36023.26
538.865	35826.65
539.065	36170.71
539.266	35746.78
539.466	35855.32
539.667	35628
539.868	36520.91
540.068	35974.11
540.269	35783.65
540.469	36297.69
540.67	35820.51
540.87	36172.76
541.071	36142.04
541.271	35994.59
541.472	36015.07
541.672	35646.43
541.873	35156.97
542.073	35779.55
542.274	35896.28
542.474	35877.85
542.675	35587.04
542.875	35910.62
543.075	35552.23
543.276	35415.01
543.476	35791.84
543.676	35531.75
543.877	35486.69
544.077	35763.17
544.277	35513.31
544.478	35498.98
544.678	35967.96
544.878	35621.86
545.078	35757.02
545.279	35390.44
545.479	35769.31
545.679	35853.28
545.879	35777.5
546.079	35671.01
546.28	35544.03
546.48	35099.62
546.68	35714.02
546.88	35871.71
547.08	35679.2
547.28	35621.86
547.48	35097.58
547.68	35464.16
547.88	35273.7
548.081	35716.06
548.281	35400.68
548.481	35660.77
548.681	35728.35
548.881	35582.95
549.081	35513.31
549.28	35384.29
549.48	35580.9
549.68	35378.15
549.88	35886.04
550.08	35294.18
550.28	35306.47
550.48	35376.1
550.68	35378.15
550.88	35267.56
551.08	35204.07
551.279	35513.31
551.479	35148.78
551.679	35193.83
551.879	35005.42
552.079	35355.62
552.278	35214.31
552.478	35337.19
552.678	35177.45
552.878	35339.24
553.077	34962.41
553.277	34870.25
553.477	35253.22
553.676	34724.85
553.876	34765.81
554.076	35013.61
554.275	35126.25
554.475	34952.17
554.674	35185.64
554.874	34769.9
555.074	34931.69
555.273	34962.41
555.473	35124.2
555.672	34647.02
555.872	34952.17
556.071	34702.32
556.271	34624.5
556.47	34569.2
556.67	34540.53
556.869	34692.08
557.068	34730.99
557.268	34442.23
557.467	34427.89
557.667	34479.09
557.866	34468.85
558.065	34454.51
558.265	34421.75
558.464	34077.69
558.663	34499.57
558.863	33704.96
559.062	34565.1
559.261	34059.26
559.461	34673.65
559.66	33686.53
559.859	34575.34
560.058	33924.09
560.258	33739.77
560.457	33541.12
560.656	34159.61
560.855	33715.2
561.054	33942.52
561.253	33680.38
561.453	33711.1
561.652	33754.11
561.851	33854.46
562.05	33518.59
562.249	33360.9
562.448	33465.35
562.647	33461.25
562.846	33174.53
563.045	33174.53
563.244	32752.65
563.443	33934.33
563.642	32666.64
563.841	33182.73
564.04	32975.88
564.239	33281.03
564.438	32535.57
564.637	32885.77
564.836	33244.16
565.035	32551.95
565.234	33014.79
565.432	32396.31
565.631	32693.26
565.83	32566.29
566.029	32279.57
566.228	32312.34
566.427	32109.59
566.625	31982.62
566.824	31841.31
567.023	32257.04
567.222	31568.93
567.42	32244.76
567.619	31884.31
567.818	31712.28
568.016	31829.02
568.215	32203.8
568.414	32052.25
568.612	31777.82
568.811	31986.71
569.01	31597.6
569.208	31288.35
569.407	31425.57
569.605	30917.67
569.804	31284.26
570.002	30884.9
570.201	31097.89
570.4	30555.18
570.598	31163.43
570.797	30616.62
570.995	30823.47
571.193	30782.51
571.392	31085.61
571.59	30424.11
571.789	30444.59
571.987	30573.61
572.186	30403.63
572.384	30112.82
572.582	30383.15
572.781	30407.73
572.979	30055.48
573.177	30045.24
573.376	30102.58
573.574	29844.54
573.772	29942.84
573.971	29744.19
574.169	29504.57
574.367	29355.07
574.565	29578.3
574.763	29410.37
574.962	29510.72
575.16	28812.36
575.358	29279.3
575.556	28787.78
575.754	29389.89
575.952	28859.46
576.151	28998.73
576.349	28775.5
576.547	29211.71
576.745	28851.27
576.943	28865.61
577.141	28720.2
577.339	28630.09
577.537	28623.95
577.735	28234.83
577.933	28267.6
578.131	28179.54
578.329	28257.36
578.527	28167.25
578.725	27987.03
578.923	27956.31
579.121	28001.36
579.319	27825.24
579.516	27849.82
579.714	27978.84
579.912	27931.73
580.11	27649.11
580.308	27731.03
580.506	27325.54
580.704	27241.57
580.901	27421.79
581.099	27364.45
581.297	27100.26
581.495	26987.62
581.692	27092.07
581.89	26887.27
582.088	27212.9
582.285	27173.99
582.483	27440.22
582.681	26575.98
582.878	26590.31
583.076	26283.12
583.274	27092.07
583.471	26592.36
583.669	26535.02
583.866	26315.89
584.064	26313.84
584.262	26401.9
584.459	26557.55
584.657	26127.47
584.854	26121.33
585.052	25619.58
585.249	26076.27
585.447	25853.05
585.644	25537.66
585.841	25752.7
586.039	25820.28
586.236	25678.97
586.434	25365.63
586.631	25640.06
586.828	25404.54
587.026	25154.69
587.223	25322.62
587.42	25162.88
587.618	25232.51
587.815	24679.56
588.012	24921.22
588.21	24806.53
588.407	25080.96
588.604	24958.08
588.801	24405.13
588.999	24546.44
589.196	24689.8
589.393	24743.05
589.59	24532.11
589.787	24433.8
589.984	24329.36
590.182	23893.14
590.379	24591.5
590.576	24108.18
590.773	24388.75
590.97	23794.84
591.167	23809.17
591.364	23424.15
591.561	23686.29
591.758	23757.97
591.955	23483.55
592.152	23762.07
592.349	23446.68
592.546	23405.72
592.743	23598.23
592.94	22883.49
593.137	23262.37
593.334	23526.55
593.531	22994.08
593.727	22920.35
593.924	22824.1
594.121	22893.73
594.318	23094.43
594.515	22557.86
594.712	22910.11
594.908	22733.99
595.105	23024.8
595.302	22879.39
595.499	22428.84
595.696	22535.34
595.892	21998.77
596.089	22322.35
596.286	22193.33
596.482	22099.12
596.679	22197.42
596.876	22076.59
597.072	22095.02
597.269	22115.5
597.466	21585.08
597.662	21910.71
597.859	21509.3
598.055	21910.71
598.252	21583.03
598.448	21611.7
598.645	21320.89
598.841	21109.95
599.038	21335.23
599.234	21316.79
599.431	21191.87
599.627	21083.33
599.824	21220.54
600.02	21015.74
600.217	21054.65
600.413	20980.93
600.609	20806.85
600.806	20606.15
601.002	20886.72
601.198	20475.08
601.395	20288.71
601.591	20260.04
601.787	20493.51
601.984	20036.81
602.18	20460.74
602.376	20384.97
602.572	20315.34
602.769	20055.25
602.965	20063.44
603.161	19965.14
603.357	19907.79
603.553	19827.92
603.75	19905.74
603.946	19682.52
604.142	19766.48
604.338	19811.54
604.534	19649.75
604.73	19444.95
604.926	19541.21
605.122	19418.33
605.318	19569.88
605.514	19158.24
605.71	19201.24
605.906	19178.72
606.102	19172.57
606.298	19424.47
606.494	19145.95
606.69	19322.07
606.886	19016.93
607.082	18873.57
607.278	19342.55
607.474	18640.1
607.67	18783.46
607.866	18857.18
608.062	18795.75
608.257	18568.42
608.453	18670.82
608.649	18711.78
608.845	18324.71
609.041	18805.99
609.236	18795.75
609.432	18369.77
609.628	18470.12
609.824	18472.17
610.019	18285.8
610.215	18468.07
610.411	18398.44
610.606	18160.87
610.802	18154.73
610.998	18201.83
611.193	18109.68
611.389	18234.6
611.584	17796.34
611.78	17943.79
611.976	17839.34
612.171	17970.41
612.367	17659.12
612.562	17888.5
612.758	17530.1
612.953	17468.66
613.149	17763.57
613.344	17671.41
613.539	17802.48
613.735	17687.79
613.93	17814.77
614.126	17536.24
614.321	17325.3
614.517	17706.23
614.712	17364.22
614.907	17278.2
615.103	17448.18
615.298	17290.49
615.493	17439.99
615.688	17229.05
615.884	17659.12
616.079	17059.07
616.274	17077.5
616.47	17257.72
616.665	17331.45
616.86	17294.58
617.055	17331.45
617.25	17052.92
617.445	17190.14
617.641	16758.02
617.836	17016.06
618.031	16739.58
618.226	16956.67
618.421	16657.67
618.616	16897.28
618.811	16495.88
619.006	16614.66
619.201	16424.2
619.396	16450.82
619.591	16194.82
619.786	16200.97
619.981	15871.25
620.176	16260.36
620.371	15854.86
620.566	16117
620.761	16129.29
620.956	15951.12
621.151	16008.46
621.346	15848.72
621.541	15514.9
621.735	15756.56
621.93	15600.91
622.125	15572.24
622.32	15133.98
622.515	15203.61
622.709	15402.26
622.904	15369.49
623.099	15289.62
623.294	15283.48
623.488	15230.23
623.683	15009.05
623.878	14818.59
624.072	14824.73
624.267	14742.82
624.462	14554.4
624.656	14640.42
624.851	14538.02
625.046	14550.31
625.24	14228.77
625.435	14247.21
625.629	14300.45
625.824	13929.77
626.018	13903.15
626.213	13759.79
626.407	13817.13
626.602	13608.24
626.796	13827.37
626.991	13923.63
627.185	13554.99
627.38	13358.39
627.574	13511.99
627.768	13372.72
627.963	13317.43
628.157	13126.97
628.352	13372.72
628.546	12985.66
628.74	13047.1
628.935	12920.12
629.129	12983.61
629.323	12735.81
629.517	12717.37
629.712	12545.34
629.906	12877.12
630.1	12506.43
630.294	12700.99
630.489	12299.59
630.683	12668.22
630.877	12086.6
631.071	12236.1
631.265	12229.96
631.459	12014.92
631.653	12189
631.848	12006.73
632.042	11957.58
632.236	11918.67
632.43	11756.88
632.624	11894.09
632.818	11550.03
633.012	11382.1
633.206	11431.25
633.4	11724.11
633.594	11265.36
633.788	11253.08
633.982	11257.17
634.176	11404.63
634.369	11146.58
634.563	11205.97
634.757	10831.19
634.951	11224.4
635.145	10911.07
635.339	10935.64
635.533	11236.69
635.726	10843.48
635.92	10538.34
636.114	10949.98
636.308	10708.32
636.501	10429.79
636.695	10665.31
636.889	10335.59
637.083	10650.97
637.276	10423.65
637.47	10415.46
637.664	10192.23
637.857	10085.73
638.051	10206.56
638.244	10159.46
638.438	10116.45
638.632	9936.23
638.825	9901.42
639.019	9969
639.212	9915.75
639.406	9598.32
639.599	9723.24
639.793	9942.38
639.986	9430.38
640.18	9721.2
640.373	9479.54
640.567	9426.29
640.76	9375.09
640.954	9381.23
641.147	9414
641.34	9373.04
641.534	9229.68
641.727	9307.51
641.92	9047.41
642.114	9086.33
642.307	9031.03
642.5	8992.12
642.694	8942.97
642.887	8856.95
643.08	9024.89
643.273	8895.86
643.467	8770.94
643.66	8689.02
643.853	8652.16
644.046	8656.25
644.239	8598.91
644.432	8523.13
644.626	8471.93
644.819	8494.46
645.012	8465.79
645.205	8426.88
645.398	8263.04
645.591	8248.71
645.784	8267.14
645.977	8215.94
646.17	7966.09
646.363	8109.44
646.556	8035.72
646.749	7957.89
646.942	8072.58
647.135	8193.41
647.328	7867.78
647.521	7900.55
647.714	7804.3
647.907	7751.05
648.099	7906.7
648.292	7990.66
648.485	7812.49
648.678	7552.4
648.871	7615.88
649.064	7466.38
649.256	7515.53
649.449	7495.05
649.642	7382.42
649.835	7232.91
650.027	7519.63
650.22	7499.15
650.413	7150.99
650.605	7148.95
650.798	7204.24
650.991	7177.62
651.183	7142.8
651.376	7017.88
651.568	7064.98
651.761	7091.6
651.954	7026.07
652.146	6915.48
652.339	6829.46
652.531	7026.07
652.724	6897.05
652.916	6649.24
653.109	6581.66
653.301	6616.48
653.494	6731.16
653.686	6548.89
653.879	6636.95
654.071	6518.17
654.263	6450.59
654.456	6503.84
654.648	6536.6
654.84	6452.64
655.033	6596
655.225	6329.76
655.417	6405.53
655.61	6397.34
655.802	6364.57
655.994	6282.66
656.186	6157.73
656.379	6237.6
656.571	6047.14
656.763	6075.81
656.955	5985.7
657.148	6190.5
657.34	5936.55
657.532	5932.45
657.724	5817.77
657.916	5901.73
658.108	5856.68
658.3	5959.08
658.492	5850.53
658.684	5735.85
658.876	5766.57
659.068	5776.81
659.26	5787.05
659.452	5664.17
659.644	5526.96
659.836	5561.77
660.028	5397.93
660.22	5486
660.412	5529
660.604	5473.71
660.796	5426.61
660.988	5404.08
661.18	5371.31
661.372	5436.85
661.563	5232.05
661.755	5279.15
661.947	5375.41
662.139	5277.1
662.331	5291.44
662.522	5227.95
662.714	5129.65
662.906	5119.41
663.097	5008.82
663.289	5209.52
663.481	4883.89
663.673	5115.31
663.864	5088.69
664.056	4892.09
664.247	4990.39
664.439	4887.99
664.631	5000.63
664.822	4928.95
665.014	4982.2
665.205	4691.38
665.397	4838.84
665.588	4990.39
665.78	4847.03
665.971	4855.22
666.163	4679.1
666.354	4693.43
666.546	4783.54
666.737	4658.62
666.929	4705.72
667.12	4537.79
667.311	4648.38
667.503	4459.96
667.694	4599.23
667.885	4388.29
668.077	4470.2
668.268	4470.2
668.459	4515.26
668.651	4480.44
668.842	4390.33
669.033	4269.5
669.224	4453.82
669.416	4324.8
669.607	4427.2
669.798	4259.26
669.989	4468.16
670.18	4283.84
670.371	4267.45
670.563	4109.76
670.754	4191.68
670.945	4089.28
671.136	4175.3
671.327	4199.87
671.518	4107.71
671.709	4048.32
671.9	4191.68
672.091	4003.27
672.282	4103.62
672.473	4122.05
672.664	4036.03
672.855	3995.08
673.046	3972.55
673.237	4005.31
673.428	3915.2
673.619	3929.54
673.809	3845.57
674	3929.54
674.191	3730.89
674.382	3796.42
674.573	3798.47
674.764	3798.47
674.954	3716.55
675.145	3802.57
675.336	3612.1
675.527	3749.32
675.717	3718.6
675.908	3583.43
676.099	3622.34
676.289	3634.63
676.48	3605.96
676.671	3605.96
676.861	3618.25
677.052	3636.68
677.243	3532.23
677.433	3593.67
677.624	3614.15
677.814	3366.35
678.005	3433.93
678.195	3499.47
678.386	3427.79
678.576	3347.92
678.767	3474.89
678.957	3282.38
679.148	3511.75
679.338	3421.64
679.529	3466.7
679.719	3315.15
679.909	3409.36
680.1	3243.47
680.29	3341.77
680.481	3286.48
680.671	3395.02
680.861	3360.2
681.052	3333.58
681.242	3290.57
681.432	3306.96
681.622	3100.11
681.813	3184.08
682.003	3294.67
682.193	3179.98
682.383	3229.13
682.573	3192.27
682.764	3175.89
682.954	3014.1
683.144	3233.23
683.334	3126.74
683.524	3190.22
683.714	3130.83
683.904	3050.96
684.094	3059.15
684.284	3188.18
684.474	2991.57
684.664	3118.54
684.854	3044.82
685.044	3040.72
685.234	3028.43
685.424	3030.48
685.614	3018.19
685.804	2907.6
685.994	2915.8
686.184	3012.05
686.374	2940.37
686.564	2897.36
686.753	2969.04
686.943	2764.25
687.133	2758.1
687.323	2909.65
687.513	2923.99
687.702	2880.98
687.892	2801.11
688.082	2995.67
688.272	2872.79
688.461	2811.35
688.651	2917.84
688.841	2794.97
689.03	2733.53
689.22	2856.4
689.41	2803.16
689.599	2768.34
689.789	2747.86
689.979	2768.34
690.168	2743.77
690.358	2700.76
690.547	2696.66
690.737	2663.9
690.926	2629.08
691.116	2614.74
691.305	2641.37
691.495	2553.31
691.684	2680.28
691.874	2475.48
692.063	2622.94
692.252	2545.11
692.442	2500.06
692.631	2555.35
692.82	2620.89
693.01	2508.25
693.199	2530.78
693.388	2461.15
693.578	2602.46
693.767	2481.63
693.956	2495.96
694.146	2379.23
694.335	2432.47
694.524	2397.66
694.713	2389.47
694.902	2442.71
695.092	2442.71
695.281	2381.28
695.47	2293.21
695.659	2354.65
695.848	2385.37
696.037	2274.78
696.226	2387.42
696.415	2325.98
696.604	2391.52
696.793	2368.99
696.982	2282.97
697.171	2379.23
697.36	2375.13
697.549	2313.69
697.738	2289.12
697.927	2297.31
698.116	2170.33
698.305	2319.84
698.494	2328.03
698.683	2209.25
698.872	2328.03
699.061	2237.92
699.25	2137.57
699.438	2426.33
699.627	2334.17
699.816	2274.78
700.005	2147.81
700.193	2307.55
700.382	2248.16
700.571	2244.06
700.76	2256.35
700.948	2258.4
701.137	2149.86
701.326	2285.02
701.514	2217.44
701.703	2196.96
701.892	2143.71
702.08	2258.4
702.269	2225.63
702.457	2055.65
702.646	2168.29
702.834	2069.98
703.023	2227.68
703.212	2287.07
703.4	2127.33
703.589	2086.37
703.777	2217.44
703.965	2164.19
704.154	2149.86
704.342	2203.1
704.531	2164.19
704.719	2182.62
704.907	2201.05
705.096	2153.95
705.284	2156
705.472	2186.72
705.661	2250.21
705.849	2227.68
706.037	2176.48
706.226	2014.69
706.414	2137.57
706.602	2170.33
706.79	2086.37
706.979	2061.79
707.167	2096.61
707.355	2178.53
707.543	2215.39
707.731	2178.53
707.919	2112.99
708.107	2074.08
708.296	2211.29
708.484	2110.94
708.672	2092.51
708.86	2012.64
709.048	2184.67
709.236	2168.29
709.424	2166.24
709.612	2162.14
709.8	2188.77
709.988	2141.66
710.176	2123.23
710.364	2137.57
710.551	2127.33
710.739	2080.22
710.927	2168.29
711.115	2188.77
711.303	2182.62
711.491	2094.56
711.679	2057.7
711.866	2102.75
712.054	2119.14
712.242	2098.66
712.43	2141.66
712.617	2151.9
712.805	2143.71
712.993	2166.24
713.181	2022.88
713.368	2168.29
713.556	2100.7
713.744	2078.18
713.931	2047.46
714.119	2182.62
714.306	2110.94
714.494	2145.76
714.682	2069.98
714.869	2153.95
715.057	2020.83
715.244	1988.07
715.432	2051.55
715.619	2086.37
715.807	2029.03
715.994	2080.22
716.182	2121.18
716.369	2139.62
716.556	2227.68
716.744	1994.21
716.931	2160.1
717.119	2141.66
717.306	2102.75
717.493	2053.6
717.681	2088.42
717.868	2067.94
718.055	2098.66
718.242	1990.11
718.43	2082.27
718.617	2074.08
718.804	2201.05
718.991	2080.22
719.179	2151.9
719.366	2160.1
719.553	2121.18
719.74	2088.42
719.927	2100.7
720.114	2072.03
720.301	2110.94
720.488	2063.84
720.676	2026.98
720.863	2172.38
721.05	2219.49
721.237	2143.71
721.424	2037.22
721.611	2100.7
721.798	2164.19
721.985	2078.18
722.172	2053.6
722.358	2055.65
722.545	2053.6
722.732	2012.64
722.919	2162.14
723.106	1998.31
723.293	2094.56
723.48	2106.85
723.667	1973.73
723.853	2078.18
724.04	2121.18
724.227	2104.8
724.414	2227.68
724.6	2084.32
724.787	2008.55
724.974	2166.24
725.161	2084.32
725.347	2063.84
725.534	2125.28
725.72	2094.56
725.907	2149.86
726.094	2121.18
726.28	2020.83
726.467	2137.57
726.653	2090.46
726.84	2125.28
727.027	2162.14
727.213	2242.01
727.4	2039.26
727.586	2131.42
727.773	2096.61
727.959	2014.69
728.145	2160.1
728.332	2031.07
728.518	2022.88
728.705	2065.89
728.891	2119.14
729.077	2102.75
729.264	2024.93
729.45	2117.09
729.636	2160.1
729.823	1961.44
730.009	2127.33
730.195	2121.18
730.382	1988.07
730.568	2192.86
730.754	2149.86
730.94	2072.03
731.126	2217.44
731.313	2133.47
731.499	2131.42
731.685	2055.65
731.871	2082.27
732.057	2139.62
732.243	2143.71
732.429	2207.2
732.615	2172.38
732.801	2166.24
732.987	2133.47
733.173	2026.98
733.359	2123.23
733.545	2119.14
733.731	2135.52
733.917	2153.95
734.103	2026.98
734.289	2115.04
734.475	2115.04
734.661	2172.38
734.847	2014.69
735.033	1926.63
735.219	2037.22
735.404	2055.65
735.59	2078.18
735.776	1971.68
735.962	2112.99
736.148	2020.83
736.333	2096.61
736.519	2106.85
736.705	2024.93
736.89	2016.74
737.076	2043.36
737.262	2026.98
737.447	1955.3
737.633	1949.15
737.819	2160.1
738.004	2094.56
738.19	2031.07
738.375	2022.88
738.561	2061.79
738.747	1992.16
738.932	2055.65
739.118	2020.83
739.303	1988.07
739.489	2035.17
739.674	2055.65
739.859	1977.83
740.045	2010.59
740.23	1957.35
740.416	2033.12
740.601	1979.87
740.786	1951.2
740.972	1836.52
741.157	1986.02
741.342	1861.09
741.528	1971.68
741.713	1938.91
741.898	1906.15
742.084	1854.95
742.269	1861.09
742.454	2000.35
742.639	1936.87
742.824	1893.86
743.01	1832.42
743.195	1842.66
743.38	1881.57
743.565	1859.04
743.75	1959.39
743.935	2010.59
744.12	1965.54
744.305	1816.04
744.49	1799.65
744.675	1945.06
744.86	1775.08
745.045	1897.96
745.23	1850.85
745.415	1842.66
745.6	1785.32
745.785	1777.12
745.97	1799.65
746.155	1848.8
746.34	1742.31
746.525	1713.64
746.71	1838.56
746.895	1725.93
747.079	1719.78
747.264	1650.15
747.449	1768.93
747.634	1654.25
747.819	1693.16
748.003	1691.11
748.188	1578.47
748.373	1666.53
748.557	1633.77
748.742	1627.62
748.927	1648.1
749.111	1557.99
749.296	1689.06
749.481	1580.52
749.665	1568.23
749.85	1582.57
750.034	1547.75
750.219	1541.61
750.404	1547.75
750.588	1603.05
750.773	1514.98
750.957	1523.18
751.141	1496.55
751.326	1555.94
751.51	1533.42
751.695	1562.09
751.879	1471.98
752.064	1521.13
752.248	1512.94
752.432	1517.03
752.617	1504.75
752.801	1512.94
752.985	1474.03
753.17	1390.06
753.354	1437.16
753.538	1457.64
753.722	1490.41
753.907	1351.15
754.091	1453.55
754.275	1408.49
754.459	1299.95
754.643	1316.33
754.828	1439.21
755.012	1441.26
755.196	1324.52
755.38	1406.44
755.564	1398.25
755.748	1361.39
755.932	1304.04
756.116	1414.63
756.3	1263.08
756.484	1322.48
756.668	1326.57
756.852	1172.97
757.036	1258.99
757.22	1242.61
757.404	1179.12
757.588	1166.83
757.772	1363.44
757.956	1160.69
758.14	1224.17
758.323	1185.26
758.507	1207.79
758.691	1156.59
758.875	1193.45
759.059	1138.16
759.242	1236.46
759.426	1170.93
759.61	1144.3
759.794	1132.01
759.977	1148.4
760.161	1160.69
760.345	1111.54
760.528	1080.82
760.712	1154.54
760.895	1070.58
761.079	1132.01
761.263	1048.05
761.446	1140.21
761.63	1123.82
761.813	1150.45
761.997	992.75
762.18	1050.1
762.364	1013.23
762.547	1097.2
762.731	992.75
762.914	1023.47
763.098	1080.82
763.281	996.85
763.464	1054.19
763.648	1084.91
763.831	957.94
764.015	1015.28
764.198	986.61
764.381	1023.47
764.564	919.03
764.748	980.47
764.931	1039.86
765.114	1027.57
765.297	939.51
765.481	996.85
765.664	941.55
765.847	951.79
766.03	951.79
766.213	1048.05
766.397	833.01
766.58	925.17
766.763	966.13
766.946	902.64
767.129	966.13
767.312	849.4
767.495	910.83
767.678	857.59
767.861	980.47
768.044	867.83
768.227	951.79
768.41	923.12
768.593	880.11
768.776	982.51
768.959	826.87
769.142	982.51
769.324	927.22
769.507	916.98
769.69	888.31
769.873	898.55
770.056	1017.33
770.239	826.87
770.421	941.55
770.604	839.16
770.787	792.05
770.97	855.54
771.152	865.78
771.335	837.11
771.518	886.26
771.7	855.54
771.883	749.04
772.066	921.07
772.248	812.53
772.431	806.39
772.613	867.83
772.796	775.67
772.978	841.2
773.161	787.96
773.343	751.09
773.526	816.63
773.708	804.34
773.891	660.98
774.073	849.4
774.256	828.92
774.438	771.57
774.621	751.09
774.803	802.29
774.985	718.33
775.168	761.33
775.35	783.86
775.532	824.82
775.715	663.03
775.897	726.52
776.079	679.41
776.261	757.24
776.444	728.56
776.626	742.9
776.808	691.7
776.99	640.5
777.173	765.43
777.355	628.21
777.537	747
777.719	726.52
777.901	677.37
778.083	710.13
778.265	681.46
778.447	646.65
778.629	677.37
778.811	701.94
778.993	669.17
779.175	677.37
779.357	615.93
779.539	597.49
779.721	583.16
779.903	587.26
780.085	654.84
780.267	554.49
780.449	552.44
780.631	624.12
780.812	595.45
780.994	624.12
781.176	468.47
781.358	597.49
781.54	622.07
781.721	531.96
781.903	570.87
782.085	593.4
782.267	550.39
782.448	546.3
782.63	611.83
782.812	558.58
782.993	550.39
783.175	540.15
783.357	521.72
783.538	482.81
783.72	517.62
783.901	447.99
784.083	396.79
784.264	515.58
784.446	570.87
784.627	488.95
784.809	476.66
784.99	525.82
785.172	503.29
785.353	501.24
785.535	456.19
785.716	437.75
785.897	417.27
786.079	355.83
786.26	509.43
786.441	388.6
786.623	421.37
786.804	384.51
786.985	384.51
787.167	550.39
787.348	435.71
787.529	415.23
787.71	433.66
787.891	376.31
788.073	392.7
788.254	415.23
788.435	425.47
788.616	366.07
788.797	355.83
788.978	417.27
789.159	382.46
789.34	357.88
789.522	359.93
789.703	343.55
789.884	306.68
790.065	314.88
790.246	359.93
790.427	316.92
790.607	388.6
790.788	407.03
790.969	318.97
791.15	378.36
791.331	286.2
791.512	364.03
791.693	296.44
791.874	437.75
792.054	374.27
792.235	384.51
792.416	294.4
792.597	220.67
792.778	347.64
792.958	345.59
793.139	310.78
793.32	329.21
793.5	308.73
793.681	255.48
793.862	318.97
794.042	267.77
794.223	323.07
794.404	368.12
794.584	247.29
794.765	263.68
794.945	269.82
795.126	327.16
795.306	343.55
795.487	327.16
795.667	202.24
795.848	261.63
796.028	271.87
796.209	300.54
796.389	222.72
796.57	278.01
796.75	294.4
796.93	241.15
797.111	251.39
797.291	245.24
797.471	257.53
797.652	253.44
797.832	232.96
798.012	269.82
798.192	263.68
798.373	230.91
798.553	228.86
798.733	245.24
798.913	208.38
799.093	220.67
799.274	189.95
799.454	163.33
799.634	292.35
799.814	251.39
799.994	310.78
800.174	218.62
800.354	187.9
800.534	212.48
800.714	210.43
800.894	210.43
801.074	206.33
801.254	181.76
801.434	206.33
801.614	194.05
801.794	169.47
801.974	759.28
802.154	275.96
802.334	194.05
802.514	130.56
802.693	222.72
802.873	161.28
803.053	269.82
803.233	202.24
803.413	241.15
803.592	163.33
803.772	175.61
803.952	169.47
804.131	116.22
804.311	214.52
804.491	202.24
804.67	185.85
804.85	116.22
805.03	275.96
805.209	210.43
805.389	122.37
805.568	167.42
805.748	235
805.928	179.71
806.107	235
806.287	214.52
806.466	286.2
806.646	235
806.825	235
807.004	189.95
807.184	114.17
807.363	220.67
807.543	142.85
807.722	187.9
807.901	118.27
808.081	206.33
808.26	140.8
808.439	189.95
808.619	212.48
808.798	208.38
808.977	163.33
809.156	169.47
809.336	132.61
809.515	126.46
809.694	169.47
809.873	245.24
810.052	200.19
810.231	212.48
810.411	171.52
810.59	187.9
810.769	146.94
810.948	163.33
811.127	124.41
811.306	112.13
811.485	157.18
811.664	142.85
811.843	157.18
812.022	108.03
812.201	124.41
812.38	130.56
812.559	132.61
812.737	192
812.916	142.85
813.095	108.03
813.274	220.67
813.453	140.8
813.632	140.8
813.811	132.61
813.989	210.43
814.168	179.71
814.347	103.93
814.526	134.65
814.704	101.89
814.883	169.47
815.062	83.45
815.24	120.32
815.419	34.3
815.598	97.79
815.776	110.08
815.955	122.37
816.133	132.61
816.312	169.47
816.49	161.28
816.669	71.17
816.847	169.47
817.026	142.85
817.204	95.74
817.383	163.33
817.561	122.37
817.74	136.7
817.918	112.13
818.097	130.56
818.275	134.65
818.453	163.33
818.632	103.93
818.81	159.23
818.988	83.45
819.167	108.03
819.345	173.57
819.523	124.41
819.701	138.75
819.879	132.61
820.058	87.55
820.236	91.65
820.414	73.21
820.592	105.98
820.77	62.98
820.948	112.13
821.127	112.13
821.305	130.56
821.483	95.74
821.661	196.09
821.839	79.36
822.017	48.64
822.195	97.79
822.373	110.08
822.551	89.6
822.729	54.78
822.907	46.59
823.085	151.04
823.262	13.82
823.44	144.89
823.618	54.78
823.796	62.98
823.974	91.65
824.152	3.58
824.329	91.65
824.507	144.89
824.685	95.74
824.863	110.08
825.04	142.85
825.218	71.17
825.396	87.55
825.574	120.32
825.751	95.74
825.929	97.79
826.107	-23.04
826.284	67.07
826.462	46.59
826.639	73.21
826.817	30.21
826.994	-53.76
827.172	15.87
827.349	134.65
827.527	36.35
827.704	42.5
827.882	85.5
828.059	54.78
828.237	-2.56
828.414	169.47
828.591	1.54
828.769	50.69
828.946	-12.8
829.124	62.98
829.301	83.45
829.478	97.79
829.655	120.32
829.833	91.65
830.01	108.03
830.187	91.65
830.364	54.78
830.542	132.61
830.719	87.55
830.896	99.84
831.073	69.12
831.25	38.4
831.427	91.65
831.604	89.6
831.782	9.73
831.959	93.69
832.136	93.69
832.313	52.74
832.49	75.26
832.667	38.4
832.844	58.88
833.021	65.02
833.198	130.56
833.374	40.45
833.551	-27.14
833.728	87.55
833.905	-31.23
834.082	54.78
834.259	-2.56
834.436	58.88
834.612	30.21
834.789	15.87
834.966	97.79
835.143	-2.56
835.319	73.21
835.496	50.69
835.673	75.26
835.85	46.59
836.026	28.16
836.203	54.78
836.38	73.21
836.556	75.26
836.733	38.4
836.909	85.5
837.086	22.02
837.262	-35.33
837.439	-10.75
837.616	65.02
837.792	62.98
837.968	71.17
838.145	38.4
838.321	17.92
838.498	58.88
838.674	81.41
838.851	-10.75
839.027	42.5
839.203	71.17
839.38	24.06
839.556	79.36
839.732	58.88
839.909	-23.04
840.085	-10.75
840.261	46.59
840.437	40.45
840.614	52.74
840.79	48.64
840.966	101.89
841.142	85.5
841.318	5.63
841.494	26.11
841.671	28.16
841.847	46.59
842.023	-10.75
842.199	32.26
842.375	58.88
842.551	65.02
842.727	-18.94
842.903	30.21
843.079	48.64
843.255	26.11
843.431	36.35
843.607	62.98
843.783	-2.56
843.959	30.21
844.134	-51.71
844.31	24.06
844.486	13.82
844.662	46.59
844.838	1.54
845.013	19.97
845.189	24.06
845.365	87.55
845.541	56.83
845.716	71.17
845.892	56.83
846.068	-23.04
846.244	58.88
846.419	-29.18
846.595	-14.85
846.77	-10.75
846.946	95.74
847.122	17.92
847.297	103.93
847.473	62.98
847.648	-2.56
847.824	46.59
847.999	1.54
848.175	60.93
848.35	-8.7
848.526	28.16
848.701	15.87
848.876	24.06
849.052	13.82
849.227	-0.51
849.403	3.58
849.578	103.93
849.753	44.54
849.929	26.11
850.104	-33.28
850.279	7.68
850.454	-39.42
850.63	17.92
850.805	38.4
850.98	108.03
851.155	40.45
851.33	-45.57
851.505	3.58
851.681	108.03
851.856	-10.75
852.031	32.26
852.206	3.58
852.381	-37.38
852.556	-45.57
852.731	15.87
852.906	-35.33
853.081	-14.85
853.256	60.93
853.431	36.35
853.606	-18.94
853.781	54.78
853.956	-10.75
854.131	26.11
854.305	24.06
854.48	-4.61
854.655	40.45
854.83	11.78
855.005	3.58
855.18	79.36
855.354	-27.14
855.529	-20.99
855.704	19.97
855.879	62.98
856.053	-70.14
856.228	46.59
856.403	-37.38
856.577	13.82
856.752	-10.75
856.926	7.68
857.101	-14.85
857.276	46.59
857.45	40.45
857.625	30.21
857.799	24.06
857.974	48.64
858.148	-27.14
858.323	58.88
858.497	13.82
858.672	-14.85
858.846	-14.85
859.02	-2.56
859.195	-4.61
859.369	52.74
859.543	28.16
859.718	54.78
859.892	26.11
860.066	22.02
860.241	17.92
860.415	13.82
860.589	-2.56
860.763	-0.51
860.938	40.45
861.112	-18.94
861.286	-29.18
861.46	-16.9
861.634	-23.04
861.808	56.83
861.982	30.21
862.157	-12.8
862.331	-20.99
862.505	-43.52
862.679	-33.28
862.853	67.07
863.027	13.82
863.201	-0.51
863.375	26.11
863.549	-10.75
863.722	-14.85
863.896	34.3
864.07	-137.73
864.244	-76.29
864.418	-23.04
864.592	46.59
864.766	22.02
864.939	7.68
865.113	-29.18
865.287	28.16
865.461	5.63
865.634	75.26
865.808	17.92
865.982	-43.52
866.156	-27.14
866.329	5.63
866.503	-72.19
866.676	-49.66
866.85	-14.85
867.024	-53.76
867.197	17.92
867.371	1.54
867.544	38.4
867.718	5.63
867.891	46.59
868.065	-53.76
868.238	38.4
868.412	-6.66
868.585	-18.94
868.759	-12.8
868.932	-37.38
869.105	-10.75
869.279	-47.62
869.452	-35.33
869.625	46.59
869.799	28.16
869.972	-27.14
870.145	-49.66
870.319	-37.38
870.492	-61.95
870.665	-14.85
870.838	38.4
871.011	-6.66
871.185	34.3
871.358	-31.23
871.531	-16.9
871.704	-31.23
871.877	11.78
872.05	36.35
872.223	-23.04
872.396	-0.51
872.569	46.59
872.742	-31.23
872.915	38.4
873.088	-29.18
873.261	-0.51
873.434	7.68
873.607	-23.04
873.78	-53.76
873.953	-6.66
874.126	26.11
874.299	17.92
874.471	17.92
874.644	-18.94
874.817	-8.7
874.99	-4.61
875.163	15.87
875.335	58.88
875.508	-23.04
875.681	15.87
875.853	-66.05
876.026	44.54
876.199	13.82
876.371	-66.05
876.544	1.54
876.717	9.73
876.889	-68.09
877.062	22.02
877.234	26.11
877.407	13.82
877.579	-41.47
877.752	44.54
877.924	26.11
878.097	19.97
878.269	34.3
878.442	-25.09
878.614	13.82
878.786	40.45
878.959	-20.99
879.131	26.11
879.303	-23.04
879.476	-33.28
879.648	-33.28
879.82	5.63
879.993	5.63
880.165	-16.9
880.337	-51.71
880.509	11.78
880.681	-64
880.854	-43.52
881.026	36.35
881.198	71.17
881.37	48.64
881.542	-18.94
881.714	-31.23
881.886	-18.94
882.058	-12.8
882.23	15.87
882.402	5.63
882.574	-0.51
882.746	-2.56
882.918	-10.75
883.09	-0.51
883.262	-10.75
883.434	-39.42
883.606	-39.42
883.778	-43.52
883.95	-0.51
884.122	-59.9
884.293	1.54
884.465	56.83
884.637	-4.61
884.809	-6.66
884.98	-16.9
885.152	7.68
885.324	9.73
885.496	-51.71
885.667	-4.61
885.839	-8.7
886.011	-78.33
886.182	17.92
886.354	-31.23
886.525	87.55
886.697	13.82
886.869	-49.66
887.04	30.21
887.212	3.58
887.383	38.4
887.555	1.54
887.726	-59.9
887.897	-55.81
888.069	17.92
888.24	-8.7
888.412	-10.75
888.583	-10.75
888.754	-66.05
888.926	-72.19
889.097	-2.56
889.268	-27.14
889.44	3.58
889.611	-37.38
889.782	30.21
889.953	58.88
890.125	87.55
890.296	-2.56
890.467	-47.62
890.638	81.41
890.809	17.92
890.98	-82.43
891.151	-2.56
891.323	19.97
891.494	-8.7
891.665	-68.09
891.836	32.26
892.007	11.78
892.178	-39.42
892.349	-27.14
892.52	-18.94
892.691	28.16
892.862	-20.99
893.032	-25.09
893.203	-23.04
893.374	24.06
893.545	-23.04
893.716	50.69
893.887	-33.28
894.057	-4.61
894.228	-68.09
894.399	-39.42
894.57	30.21
894.74	-88.57
894.911	-49.66
895.082	65.02
895.253	3.58
895.423	-16.9
895.594	38.4
895.764	-33.28
895.935	-86.53
896.106	-43.52
896.276	-18.94
896.447	-23.04
896.617	46.59
896.788	-31.23
896.958	-37.38
897.129	-74.24
897.299	-20.99
897.47	11.78
897.64	-92.67
897.81	-16.9
897.981	-49.66
898.151	-49.66
898.322	1.54
898.492	46.59
898.662	-59.9
898.832	-64
899.003	-16.9
899.173	26.11
899.343	-0.51
899.513	-10.75
