Data from USB4F104151__24__13-10-40-064.txt Node

Date: Fri Mar 14 13:10:40 EDT 2025
User: louis
Spectrometer: USB4F10415
Trigger mode: 4
Integration Time (sec): 2.000000E-2
Scans to average: 1
Electric dark correction enabled: true
Nonlinearity correction enabled: false
Boxcar width: 0
XAxis mode: Wavelengths
Number of Pixels in Spectrum: 3648
>>>>>Begin Spectral Data<<<<<
178.204	-39.42
178.424	-39.42
178.644	-39.42
178.864	-55.81
179.084	-88.57
179.304	28.16
179.524	-68.09
179.744	3.58
179.964	-39.42
180.184	-6.66
180.404	40.45
180.624	62.98
180.844	7.68
181.064	-72.19
181.283	22.02
181.503	-12.8
181.723	34.3
181.943	-35.33
182.163	105.98
182.383	-20.99
182.602	77.31
182.822	30.21
183.042	3.58
183.262	5.63
183.482	71.17
183.701	38.4
183.921	36.35
184.141	-43.52
184.361	110.08
184.58	77.31
184.8	54.78
185.02	62.98
185.239	85.5
185.459	42.5
185.679	22.02
185.898	11.78
186.118	26.11
186.338	36.35
186.557	24.06
186.777	17.92
186.997	97.79
187.216	-23.04
187.436	124.41
187.655	17.92
187.875	32.26
188.095	36.35
188.314	85.5
188.534	9.73
188.753	54.78
188.973	-43.52
189.192	144.89
189.412	-49.66
189.631	87.55
189.851	24.06
190.07	3.58
190.29	22.02
190.509	-14.85
190.729	38.4
190.948	130.56
191.168	120.32
191.387	48.64
191.607	50.69
191.826	77.31
192.045	40.45
192.265	-31.23
192.484	93.69
192.704	7.68
192.923	38.4
193.142	56.83
193.362	-2.56
193.581	165.37
193.8	-35.33
194.02	19.97
194.239	122.37
194.458	105.98
194.678	22.02
194.897	22.02
195.116	34.3
195.335	67.07
195.555	30.21
195.774	38.4
195.993	44.54
196.212	-20.99
196.432	15.87
196.651	28.16
196.87	-8.7
197.089	56.83
197.308	11.78
197.528	17.92
197.747	28.16
197.966	77.31
198.185	71.17
198.404	26.11
198.623	148.99
198.842	69.12
199.062	108.03
199.281	87.55
199.5	75.26
199.719	60.93
199.938	114.17
200.157	13.82
200.376	5.63
200.595	26.11
200.814	52.74
201.033	-35.33
201.252	36.35
201.471	24.06
201.69	48.64
201.909	-6.66
202.128	81.41
202.347	81.41
202.566	1.54
202.785	108.03
203.004	1.54
203.223	101.89
203.442	105.98
203.661	79.36
203.879	-6.66
204.098	69.12
204.317	42.5
204.536	89.6
204.755	58.88
204.974	108.03
205.193	-23.04
205.411	151.04
205.63	79.36
205.849	19.97
206.068	17.92
206.287	62.98
206.505	103.93
206.724	-29.18
206.943	81.41
207.162	54.78
207.381	-8.7
207.599	34.3
207.818	99.84
208.037	81.41
208.255	105.98
208.474	34.3
208.693	75.26
208.911	50.69
209.13	89.6
209.349	60.93
209.567	44.54
209.786	73.21
210.005	46.59
210.223	36.35
210.442	9.73
210.661	77.31
210.879	-6.66
211.098	28.16
211.316	17.92
211.535	36.35
211.753	11.78
211.972	44.54
212.191	44.54
212.409	118.27
212.628	93.69
212.846	30.21
213.065	79.36
213.283	-16.9
213.502	26.11
213.72	26.11
213.938	-0.51
214.157	24.06
214.375	28.16
214.594	42.5
214.812	62.98
215.031	44.54
215.249	11.78
215.467	58.88
215.686	67.07
215.904	11.78
216.122	69.12
216.341	58.88
216.559	-20.99
216.778	69.12
216.996	124.41
217.214	40.45
217.432	22.02
217.651	-39.42
217.869	67.07
218.087	5.63
218.306	26.11
218.524	-37.38
218.742	69.12
218.96	132.61
219.179	42.5
219.397	52.74
219.615	36.35
219.833	-2.56
220.051	-35.33
220.27	56.83
220.488	36.35
220.706	87.55
220.924	-4.61
221.142	73.21
221.36	62.98
221.578	28.16
221.796	42.5
222.015	24.06
222.233	52.74
222.451	83.45
222.669	73.21
222.887	60.93
223.105	48.64
223.323	28.16
223.541	11.78
223.759	54.78
223.977	48.64
224.195	132.61
224.413	50.69
224.631	1.54
224.849	50.69
225.067	95.74
225.285	-55.81
225.503	60.93
225.721	13.82
225.939	-14.85
226.157	34.3
226.375	34.3
226.592	-45.57
226.81	120.32
227.028	54.78
227.246	1.54
227.464	26.11
227.682	83.45
227.9	79.36
228.117	134.65
228.335	58.88
228.553	67.07
228.771	79.36
228.989	50.69
229.206	75.26
229.424	97.79
229.642	56.83
229.86	-6.66
230.077	19.97
230.295	67.07
230.513	75.26
230.731	75.26
230.948	22.02
231.166	71.17
231.384	60.93
231.601	-29.18
231.819	32.26
232.037	48.64
232.254	-29.18
232.472	46.59
232.689	108.03
232.907	52.74
233.125	-6.66
233.342	99.84
233.56	36.35
233.777	7.68
233.995	-8.7
234.213	112.13
234.43	-12.8
234.648	58.88
234.865	24.06
235.083	-4.61
235.3	5.63
235.518	69.12
235.735	38.4
235.953	52.74
236.17	22.02
236.388	52.74
236.605	50.69
236.822	103.93
237.04	75.26
237.257	48.64
237.475	1.54
237.692	5.63
237.909	-64
238.127	87.55
238.344	50.69
238.562	58.88
238.779	79.36
238.996	36.35
239.214	60.93
239.431	91.65
239.648	34.3
239.865	19.97
240.083	40.45
240.3	77.31
240.517	5.63
240.735	116.22
240.952	91.65
241.169	97.79
241.386	-20.99
241.603	-0.51
241.821	13.82
242.038	36.35
242.255	99.84
242.472	26.11
242.689	26.11
242.907	-0.51
243.124	89.6
243.341	11.78
243.558	-14.85
243.775	-6.66
243.992	30.21
244.209	110.08
244.426	77.31
244.643	83.45
244.86	65.02
245.078	22.02
245.295	17.92
245.512	101.89
245.729	-12.8
245.946	50.69
246.163	34.3
246.38	73.21
246.597	114.17
246.814	38.4
247.031	62.98
247.248	124.41
247.464	44.54
247.681	62.98
247.898	58.88
248.115	50.69
248.332	-29.18
248.549	155.13
248.766	81.41
248.983	83.45
249.2	15.87
249.417	-6.66
249.633	-4.61
249.85	-0.51
250.067	22.02
250.284	71.17
250.501	99.84
250.717	124.41
250.934	42.5
251.151	58.88
251.368	48.64
251.585	11.78
251.801	65.02
252.018	-20.99
252.235	81.41
252.451	38.4
252.668	-4.61
252.885	69.12
253.102	-6.66
253.318	1.54
253.535	54.78
253.752	22.02
253.968	5.63
254.185	22.02
254.401	34.3
254.618	28.16
254.835	13.82
255.051	77.31
255.268	-27.14
255.484	26.11
255.701	77.31
255.917	50.69
256.134	-10.75
256.351	73.21
256.567	32.26
256.784	58.88
257	-2.56
257.217	46.59
257.433	50.69
257.65	60.93
257.866	11.78
258.082	19.97
258.299	38.4
258.515	54.78
258.732	81.41
258.948	46.59
259.165	13.82
259.381	118.27
259.597	36.35
259.814	28.16
260.03	50.69
260.246	13.82
260.463	85.5
260.679	93.69
260.895	67.07
261.112	-68.09
261.328	24.06
261.544	-37.38
261.761	67.07
261.977	93.69
262.193	-12.8
262.409	93.69
262.626	89.6
262.842	89.6
263.058	77.31
263.274	114.17
263.49	83.45
263.707	110.08
263.923	13.82
264.139	17.92
264.355	58.88
264.571	60.93
264.787	81.41
265.004	46.59
265.22	71.17
265.436	13.82
265.652	9.73
265.868	114.17
266.084	15.87
266.3	38.4
266.516	77.31
266.732	11.78
266.948	95.74
267.164	67.07
267.38	40.45
267.596	62.98
267.812	7.68
268.028	103.93
268.244	95.74
268.46	71.17
268.676	9.73
268.892	-49.66
269.108	17.92
269.324	26.11
269.54	32.26
269.756	28.16
269.972	19.97
270.188	124.41
270.403	11.78
270.619	79.36
270.835	40.45
271.051	101.89
271.267	50.69
271.483	54.78
271.698	34.3
271.914	11.78
272.13	50.69
272.346	93.69
272.562	38.4
272.777	1.54
272.993	-12.8
273.209	77.31
273.425	44.54
273.64	-18.94
273.856	75.26
274.072	42.5
274.287	1.54
274.503	42.5
274.719	58.88
274.934	50.69
275.15	52.74
275.366	40.45
275.581	17.92
275.797	44.54
276.012	-23.04
276.228	42.5
276.444	75.26
276.659	54.78
276.875	46.59
277.09	15.87
277.306	60.93
277.521	-2.56
277.737	67.07
277.952	114.17
278.168	105.98
278.383	17.92
278.599	-0.51
278.814	77.31
279.03	77.31
279.245	48.64
279.461	15.87
279.676	67.07
279.892	-10.75
280.107	36.35
280.322	65.02
280.538	46.59
280.753	30.21
280.969	50.69
281.184	-35.33
281.399	58.88
281.615	34.3
281.83	75.26
282.045	81.41
282.26	62.98
282.476	26.11
282.691	128.51
282.906	32.26
283.122	-14.85
283.337	28.16
283.552	50.69
283.767	124.41
283.983	93.69
284.198	34.3
284.413	52.74
284.628	15.87
284.843	62.98
285.058	-45.57
285.274	42.5
285.489	30.21
285.704	77.31
285.919	7.68
286.134	71.17
286.349	-37.38
286.564	105.98
286.779	36.35
286.995	87.55
287.21	13.82
287.425	112.13
287.64	69.12
287.855	79.36
288.07	60.93
288.285	110.08
288.5	60.93
288.715	30.21
288.93	9.73
289.145	79.36
289.36	38.4
289.575	-6.66
289.79	54.78
290.004	15.87
290.219	99.84
290.434	40.45
290.649	56.83
290.864	24.06
291.079	17.92
291.294	40.45
291.509	26.11
291.724	46.59
291.938	110.08
292.153	28.16
292.368	-10.75
292.583	11.78
292.798	-14.85
293.012	24.06
293.227	3.58
293.442	34.3
293.657	15.87
293.871	118.27
294.086	56.83
294.301	26.11
294.516	83.45
294.73	28.16
294.945	28.16
295.16	58.88
295.374	42.5
295.589	11.78
295.804	67.07
296.018	87.55
296.233	110.08
296.447	75.26
296.662	-41.47
296.877	65.02
297.091	81.41
297.306	79.36
297.52	42.5
297.735	22.02
297.949	48.64
298.164	99.84
298.378	26.11
298.593	22.02
298.807	130.56
299.022	26.11
299.236	30.21
299.451	91.65
299.665	46.59
299.88	40.45
300.094	15.87
300.309	93.69
300.523	26.11
300.737	46.59
300.952	108.03
301.166	79.36
301.381	62.98
301.595	99.84
301.809	32.26
302.024	24.06
302.238	19.97
302.452	17.92
302.667	50.69
302.881	81.41
303.095	71.17
303.309	44.54
303.524	58.88
303.738	17.92
303.952	38.4
304.166	42.5
304.381	-8.7
304.595	58.88
304.809	81.41
305.023	9.73
305.237	58.88
305.452	22.02
305.666	34.3
305.88	48.64
306.094	103.93
306.308	42.5
306.522	38.4
306.736	83.45
306.95	124.41
307.164	34.3
307.379	85.5
307.593	157.18
307.807	91.65
308.021	9.73
308.235	54.78
308.449	-8.7
308.663	58.88
308.877	118.27
309.091	19.97
309.305	81.41
309.519	87.55
309.733	93.69
309.947	42.5
310.161	93.69
310.374	38.4
310.588	105.98
310.802	17.92
311.016	13.82
311.23	71.17
311.444	34.3
311.658	79.36
311.872	56.83
312.085	54.78
312.299	71.17
312.513	38.4
312.727	67.07
312.941	32.26
313.154	95.74
313.368	52.74
313.582	26.11
313.796	26.11
314.009	30.21
314.223	79.36
314.437	36.35
314.651	52.74
314.864	-20.99
315.078	-0.51
315.292	42.5
315.505	144.89
315.719	46.59
315.933	11.78
316.146	110.08
316.36	7.68
316.573	134.65
316.787	40.45
317.001	-6.66
317.214	15.87
317.428	46.59
317.641	54.78
317.855	15.87
318.068	67.07
318.282	26.11
318.495	79.36
318.709	-23.04
318.922	42.5
319.136	1.54
319.349	50.69
319.563	-2.56
319.776	28.16
319.99	-2.56
320.203	120.32
320.417	75.26
320.63	50.69
320.843	50.69
321.057	81.41
321.27	44.54
321.483	71.17
321.697	60.93
321.91	9.73
322.124	52.74
322.337	101.89
322.55	38.4
322.763	62.98
322.977	85.5
323.19	69.12
323.403	56.83
323.617	146.94
323.83	58.88
324.043	1.54
324.256	36.35
324.469	24.06
324.683	36.35
324.896	105.98
325.109	60.93
325.322	9.73
325.535	26.11
325.748	60.93
325.962	58.88
326.175	54.78
326.388	87.55
326.601	19.97
326.814	99.84
327.027	73.21
327.24	110.08
327.453	36.35
327.666	75.26
327.879	58.88
328.092	134.65
328.305	91.65
328.518	28.16
328.731	77.31
328.944	22.02
329.157	95.74
329.37	77.31
329.583	91.65
329.796	69.12
330.009	62.98
330.222	83.45
330.435	24.06
330.648	71.17
330.861	44.54
331.073	30.21
331.286	54.78
331.499	19.97
331.712	73.21
331.925	17.92
332.138	56.83
332.35	46.59
332.563	52.74
332.776	67.07
332.989	34.3
333.202	32.26
333.414	-31.23
333.627	69.12
333.84	62.98
334.053	5.63
334.265	105.98
334.478	99.84
334.691	52.74
334.903	32.26
335.116	83.45
335.329	67.07
335.541	36.35
335.754	112.13
335.966	103.93
336.179	22.02
336.392	32.26
336.604	28.16
336.817	58.88
337.029	69.12
337.242	58.88
337.454	52.74
337.667	58.88
337.88	71.17
338.092	26.11
338.305	42.5
338.517	85.5
338.729	34.3
338.942	71.17
339.154	75.26
339.367	79.36
339.579	34.3
339.792	28.16
340.004	26.11
340.217	60.93
340.429	93.69
340.641	9.73
340.854	19.97
341.066	97.79
341.278	24.06
341.491	91.65
341.703	44.54
341.915	42.5
342.128	7.68
342.34	77.31
342.552	91.65
342.764	40.45
342.977	108.03
343.189	24.06
343.401	58.88
343.613	44.54
343.826	60.93
344.038	-6.66
344.25	38.4
344.462	30.21
344.674	136.7
344.886	116.22
345.099	11.78
345.311	83.45
345.523	56.83
345.735	60.93
345.947	40.45
346.159	124.41
346.371	67.07
346.583	101.89
346.795	50.69
347.007	28.16
347.219	71.17
347.431	19.97
347.643	9.73
347.855	-53.76
348.067	110.08
348.279	40.45
348.491	99.84
348.703	112.13
348.915	54.78
349.127	42.5
349.339	151.04
349.551	-6.66
349.763	75.26
349.975	42.5
350.187	75.26
350.399	101.89
350.61	40.45
350.822	52.74
351.034	28.16
351.246	13.82
351.458	89.6
351.669	50.69
351.881	87.55
352.093	77.31
352.305	-6.66
352.517	13.82
352.728	136.7
352.94	110.08
353.152	50.69
353.363	17.92
353.575	69.12
353.787	32.26
353.999	62.98
354.21	71.17
354.422	24.06
354.633	91.65
354.845	34.3
355.057	62.98
355.268	69.12
355.48	60.93
355.692	56.83
355.903	75.26
356.115	50.69
356.326	67.07
356.538	116.22
356.749	159.23
356.961	132.61
357.172	26.11
357.384	99.84
357.595	171.52
357.807	67.07
358.018	81.41
358.23	56.83
358.441	44.54
358.653	93.69
358.864	67.07
359.075	87.55
359.287	93.69
359.498	105.98
359.709	26.11
359.921	62.98
360.132	87.55
360.344	91.65
360.555	13.82
360.766	75.26
360.977	60.93
361.189	126.46
361.4	54.78
361.611	7.68
361.823	13.82
362.034	62.98
362.245	85.5
362.456	28.16
362.667	122.37
362.879	-16.9
363.09	36.35
363.301	120.32
363.512	103.93
363.723	13.82
363.935	54.78
364.146	108.03
364.357	95.74
364.568	50.69
364.779	46.59
364.99	71.17
365.201	3.58
365.412	101.89
365.623	40.45
365.834	73.21
366.045	50.69
366.256	124.41
366.467	97.79
366.678	5.63
366.889	17.92
367.1	101.89
367.311	97.79
367.522	22.02
367.733	75.26
367.944	159.23
368.155	83.45
368.366	71.17
368.577	87.55
368.788	71.17
368.999	56.83
369.209	42.5
369.42	77.31
369.631	50.69
369.842	69.12
370.053	50.69
370.264	93.69
370.474	75.26
370.685	101.89
370.896	89.6
371.107	62.98
371.317	62.98
371.528	22.02
371.739	71.17
371.95	103.93
372.16	60.93
372.371	38.4
372.582	54.78
372.792	34.3
373.003	77.31
373.214	56.83
373.424	79.36
373.635	128.51
373.846	95.74
374.056	13.82
374.267	44.54
374.477	67.07
374.688	58.88
374.898	83.45
375.109	118.27
375.319	124.41
375.53	97.79
375.74	52.74
375.951	157.18
376.161	19.97
376.372	99.84
376.582	93.69
376.793	58.88
377.003	44.54
377.214	9.73
377.424	130.56
377.635	40.45
377.845	38.4
378.055	85.5
378.266	-37.38
378.476	40.45
378.686	62.98
378.897	77.31
379.107	85.5
379.317	175.61
379.528	99.84
379.738	140.8
379.948	87.55
380.158	13.82
380.369	89.6
380.579	99.84
380.789	112.13
380.999	77.31
381.21	75.26
381.42	120.32
381.63	-0.51
381.84	144.89
382.05	-8.7
382.261	22.02
382.471	99.84
382.681	85.5
382.891	65.02
383.101	67.07
383.311	38.4
383.521	56.83
383.731	93.69
383.941	144.89
384.151	50.69
384.361	-20.99
384.571	83.45
384.781	87.55
384.991	91.65
385.201	40.45
385.411	36.35
385.621	52.74
385.831	54.78
386.041	30.21
386.251	56.83
386.461	132.61
386.671	65.02
386.881	95.74
387.091	91.65
387.301	161.28
387.511	112.13
387.72	69.12
387.93	36.35
388.14	-10.75
388.35	40.45
388.56	81.41
388.769	75.26
388.979	128.51
389.189	-8.7
389.399	85.5
389.609	95.74
389.818	91.65
390.028	126.46
390.238	126.46
390.447	105.98
390.657	99.84
390.867	110.08
391.076	9.73
391.286	32.26
391.496	44.54
391.705	24.06
391.915	128.51
392.125	89.6
392.334	81.41
392.544	77.31
392.753	77.31
392.963	75.26
393.172	89.6
393.382	87.55
393.591	95.74
393.801	91.65
394.01	157.18
394.22	99.84
394.429	54.78
394.639	105.98
394.848	99.84
395.058	22.02
395.267	54.78
395.477	144.89
395.686	114.17
395.895	83.45
396.105	120.32
396.314	50.69
396.524	73.21
396.733	120.32
396.942	126.46
397.152	130.56
397.361	103.93
397.57	144.89
397.78	77.31
397.989	155.13
398.198	151.04
398.407	132.61
398.617	101.89
398.826	116.22
399.035	83.45
399.244	122.37
399.453	81.41
399.663	97.79
399.872	185.85
400.081	159.23
400.29	118.27
400.499	73.21
400.708	103.93
400.917	103.93
401.127	181.76
401.336	108.03
401.545	196.09
401.754	165.37
401.963	151.04
402.172	13.82
402.381	148.99
402.59	148.99
402.799	93.69
403.008	128.51
403.217	134.65
403.426	99.84
403.635	136.7
403.844	159.23
404.053	189.95
404.262	192
404.471	189.95
404.68	62.98
404.888	181.76
405.097	112.13
405.306	146.94
405.515	157.18
405.724	155.13
405.933	181.76
406.142	116.22
406.35	230.91
406.559	155.13
406.768	169.47
406.977	218.62
407.185	230.91
407.394	210.43
407.603	103.93
407.812	261.63
408.02	263.68
408.229	204.28
408.438	206.33
408.646	202.24
408.855	259.58
409.064	253.44
409.272	179.71
409.481	292.35
409.69	251.39
409.898	267.77
410.107	372.22
410.315	265.72
410.524	249.34
410.733	331.26
410.941	312.83
411.15	376.31
411.358	265.72
411.567	411.13
411.775	402.94
411.984	396.79
412.192	546.3
412.401	370.17
412.609	404.99
412.818	427.51
413.026	476.66
413.234	357.88
413.443	447.99
413.651	462.33
413.86	495.1
414.068	521.72
414.276	603.64
414.485	566.78
414.693	558.58
414.901	579.06
415.11	632.31
415.318	595.45
415.526	591.35
415.734	708.09
415.943	710.13
416.151	724.47
416.359	828.92
416.567	806.39
416.776	771.57
416.984	888.31
417.192	853.49
417.4	828.92
417.608	886.26
417.817	933.36
418.025	962.03
418.233	968.18
418.441	986.61
418.649	1002.99
418.857	1218.03
419.065	1201.65
419.273	1093.1
419.481	1150.45
419.689	1277.42
419.897	1291.76
420.105	1340.91
420.313	1404.39
420.521	1455.59
420.729	1443.31
420.937	1424.87
421.145	1471.98
421.353	1605.1
421.561	1633.77
421.769	1633.77
421.977	1807.84
422.185	1732.07
422.393	1828.32
422.601	2010.59
422.809	2069.98
423.017	2024.93
423.224	2096.61
423.432	2147.81
423.64	2160.1
423.848	2412
424.056	2309.6
424.263	2442.71
424.471	2422.24
424.679	2604.5
424.887	2721.24
425.094	2766.29
425.302	2835.92
425.51	2848.21
425.718	2944.47
425.925	2975.19
426.133	3040.72
426.341	3102.16
426.548	3251.66
426.756	3409.36
426.964	3536.33
427.171	3718.6
427.379	3907.01
427.586	3763.65
427.794	3808.71
428.001	4081.09
428.209	4212.16
428.417	4226.5
428.624	4437.44
428.832	4509.12
429.039	4511.16
429.247	4554.17
429.454	4955.57
429.662	5137.84
429.869	4890.04
430.076	5254.58
430.284	5062.07
430.491	5352.88
430.699	5549.48
430.906	5678.51
431.114	5668.27
431.321	5846.44
431.528	5864.87
431.736	6366.62
431.943	6612.38
432.15	6448.54
432.358	6626.71
432.565	6864.28
432.772	6827.42
432.979	7447.95
433.187	7456.14
433.394	7218.58
433.601	7974.28
433.808	7970.18
434.016	7935.37
434.223	8117.64
434.43	8545.66
434.637	8656.25
434.844	9094.52
435.052	9258.35
435.259	9299.31
435.466	9211.25
435.673	9358.71
435.88	9655.66
436.087	10462.56
436.294	10249.57
436.501	10126.69
436.708	10419.55
436.915	10628.45
437.122	11126.1
437.329	11203.93
437.537	11455.83
437.743	11726.16
437.95	11578.7
438.157	12371.27
438.364	12680.51
438.571	12700.99
438.778	12514.63
438.985	13735.21
439.192	13309.24
439.399	13700.4
439.606	13329.72
439.813	14294.31
440.02	15127.83
440.227	14724.38
440.433	14521.63
440.64	15074.59
440.847	15031.58
441.054	15369.49
441.261	16477.44
441.467	16174.35
441.674	16284.94
441.881	17175.8
442.088	17122.55
442.294	16999.68
442.501	17552.63
442.708	17935.6
442.914	18341.1
443.121	19080.41
443.328	18748.64
443.534	20225.23
443.741	19154.14
443.948	19119.32
444.154	20683.97
444.361	20649.16
444.568	20532.42
444.774	20548.81
444.981	20985.02
445.187	21415.1
445.394	22467.75
445.6	22262.96
445.807	24323.21
446.013	23297.18
446.22	23882.9
446.426	24654.98
446.633	24530.06
446.839	25844.85
447.046	24528.01
447.252	26020.98
447.459	25996.4
447.665	26090.61
447.871	27214.94
448.078	28236.88
448.284	27079.78
448.491	27493.47
448.697	28824.65
448.903	29471.81
449.11	29344.83
449.316	28824.65
449.522	29451.33
449.728	29987.89
449.935	30514.22
450.141	30782.51
450.347	31499.3
450.553	30094.39
450.76	30483.5
450.966	31943.7
451.172	31616.03
451.378	32347.15
451.584	31503.39
451.791	32607.25
451.997	32353.3
452.203	32570.38
452.409	32934.92
452.615	32769.04
452.821	31349.79
453.027	31196.2
453.233	32754.7
453.44	31452.19
453.646	31722.52
453.852	32310.29
454.058	32871.43
454.264	31423.52
454.47	32715.79
454.676	31865.88
454.882	32885.77
455.088	29729.85
455.294	30225.46
455.5	31179.81
455.705	31323.17
455.911	29951.03
456.117	29326.4
456.323	29054.02
456.529	27737.18
456.735	28826.7
456.941	27843.67
457.147	27516
457.352	26618.99
457.558	26711.14
457.764	26885.22
457.97	26209.39
458.176	25807.99
458.381	25369.72
458.587	24392.84
458.793	24157.33
458.999	22848.68
459.204	24753.29
459.41	24044.69
459.616	22367.4
459.821	22521
460.027	22070.45
460.233	22123.69
460.438	20636.87
460.644	21167.29
460.85	19997.9
461.055	19694.8
461.261	19594.45
461.466	18226.41
461.672	17956.08
461.878	18846.94
462.083	17798.38
462.289	17313.02
462.494	17118.46
462.7	16592.13
462.905	15828.24
463.111	16526.6
463.316	16516.36
463.522	16299.27
463.727	16278.79
463.932	16252.17
464.138	15996.17
464.343	15856.91
464.549	15488.28
464.754	16342.28
464.959	15738.13
465.165	15869.2
465.37	15115.55
465.575	15000.86
465.781	15705.36
465.986	15342.87
466.191	14951.71
466.397	14800.16
466.602	13995.31
466.807	14523.68
467.012	14533.92
467.218	14439.72
467.423	14075.18
467.628	14288.17
467.833	14724.38
468.038	14267.69
468.244	13858.09
468.449	14654.75
468.654	13935.92
468.859	13972.78
469.064	13722.93
469.269	13333.81
469.474	13397.3
469.679	13862.19
469.885	13331.76
470.09	13511.99
470.295	13462.83
470.5	12916.03
470.705	13212.98
470.91	13055.29
471.115	12821.82
471.32	13137.21
471.525	13012.28
471.73	12471.62
471.935	12567.87
472.139	11965.77
472.344	12350.79
472.549	12275.01
472.754	12170.57
472.959	11996.49
473.164	11576.66
473.369	11461.97
473.574	11662.67
473.778	11740.49
473.983	11504.98
474.188	11650.38
474.393	10972.5
474.598	11070.81
474.802	11035.99
475.007	10812.76
475.212	11179.35
475.417	10540.38
475.621	10429.79
475.826	10427.74
476.031	10394.98
476.235	10282.34
476.44	10536.29
476.645	10265.96
476.849	10208.61
477.054	10059.11
477.259	9971.05
477.463	9893.23
477.668	9624.94
477.872	9676.14
478.077	9612.65
478.282	9207.16
478.486	9293.17
478.691	9289.07
478.895	9192.82
479.1	9303.41
479.304	9151.86
479.509	8719.74
479.713	8965.5
479.918	8873.34
480.122	8859
480.326	8775.03
480.531	8852.86
480.735	8764.79
480.94	8672.64
481.144	9014.65
481.348	8465.79
481.553	8582.53
481.757	8387.97
481.961	8545.66
482.166	8613.24
482.37	8564.09
482.574	8562.05
482.778	8469.89
482.983	8588.67
483.187	8564.09
483.391	8697.21
483.595	8521.09
483.8	8473.98
484.004	8527.23
484.208	8570.24
484.412	8410.5
484.616	8535.42
484.821	8504.7
485.025	8351.1
485.229	8324.48
485.433	8426.88
485.637	8490.37
485.841	8217.99
486.045	8355.2
486.249	8453.5
486.453	8301.95
486.657	8537.47
486.861	8586.62
487.065	8342.91
487.269	8349.06
487.473	8127.88
487.677	8353.15
487.881	8496.51
488.085	8400.26
488.289	8576.38
488.493	8504.7
488.697	8529.28
488.901	8326.53
489.105	8381.82
489.309	8541.57
489.512	8269.19
489.716	8779.13
489.92	8514.94
490.124	8422.78
490.328	8725.88
490.531	8588.67
490.735	8803.71
490.939	8680.83
491.143	8598.91
491.346	8664.44
491.55	8807.8
491.754	8756.6
491.958	8844.67
492.161	8861.05
492.365	8897.91
492.569	8834.43
492.772	9008.5
492.976	8947.06
493.18	9012.6
493.383	9080.18
493.587	9143.67
493.79	9350.51
493.994	9225.59
494.197	9268.59
494.401	9446.77
494.605	9454.96
494.808	9487.73
495.012	9500.02
495.215	9516.4
495.419	9676.14
495.622	9803.11
495.825	9778.54
496.029	9657.71
496.232	9860.46
496.436	10157.41
496.639	10362.21
496.843	10018.15
497.046	10335.59
497.249	10429.79
497.453	10435.94
497.656	10618.21
497.859	10693.98
498.063	10763.61
498.266	11074.9
498.469	10972.5
498.673	11064.66
498.876	11263.32
499.079	11373.91
499.282	11339.09
499.485	11668.81
499.689	11605.33
499.892	11717.97
500.095	11892.04
500.298	11982.15
500.501	11996.49
500.705	12574.02
500.908	12377.41
501.111	12459.33
501.314	12647.74
501.517	12920.12
501.72	12913.98
501.923	12840.25
502.126	13276.47
502.329	13550.9
502.532	13491.51
502.735	13724.97
502.938	13847.85
503.141	13868.33
503.344	14236.97
503.547	14179.62
503.75	14501.15
503.953	14632.22
504.156	14662.94
504.359	14984.48
504.562	14896.41
504.765	15127.83
504.968	15398.17
505.17	15402.26
505.373	15545.62
505.576	15590.67
505.779	16051.47
505.982	16110.86
506.185	16557.32
506.387	16317.7
506.59	16461.06
506.793	16790.78
506.996	16903.42
507.198	17630.45
507.401	17362.17
507.604	17671.41
507.807	17829.1
508.009	17927.41
508.212	18253.03
508.415	18328.81
508.617	18478.31
508.82	18470.12
509.022	18486.5
509.225	19154.14
509.428	18959.58
509.63	19246.3
509.833	19383.51
510.035	19827.92
510.238	19930.32
510.44	20128.97
510.643	20356.3
510.845	20262.09
511.048	20344.01
511.25	20923.58
511.453	20841.67
511.655	21499.06
511.858	21449.91
512.06	21540.02
512.262	21818.55
512.465	21757.11
512.667	22281.39
512.87	22328.49
513.072	22514.86
513.274	22842.53
513.477	23100.58
513.679	22891.68
513.881	23524.51
514.084	23872.66
514.286	23772.31
514.488	24138.9
514.69	24433.8
514.893	24382.6
515.095	25044.1
515.297	25074.82
515.499	25046.15
515.701	25568.38
515.904	25810.04
516.106	25791.61
516.308	26145.91
516.51	26463.34
516.712	26573.93
516.914	26721.38
517.116	27604.06
517.318	27706.46
517.52	27688.03
517.722	27415.65
517.925	28111.96
518.127	28347.47
518.329	28611.66
518.531	28263.5
518.733	29031.49
518.935	28841.03
519.136	29056.07
519.338	29508.67
519.54	29926.46
519.742	29811.77
519.944	29985.85
520.146	30954.54
520.348	30860.33
520.55	30743.59
520.752	31028.26
520.954	31448.1
521.155	31108.13
521.357	31773.72
521.559	31984.66
521.761	32291.86
521.963	32562.19
522.164	32244.76
522.366	32576.53
522.568	32867.34
522.77	33395.71
522.971	33586.18
523.173	33608.7
523.375	34065.4
523.576	33684.48
523.778	34237.43
523.98	34345.97
524.181	34726.89
524.383	34806.76
524.584	35273.7
524.786	35156.97
524.988	35445.73
525.189	35603.42
525.391	35722.21
525.592	35935.2
525.794	36080.6
525.995	36348.89
526.197	36262.87
526.398	36619.22
526.6	36789.2
526.801	37102.54
527.003	37020.62
527.204	37080.01
527.406	37503.94
527.607	37938.11
527.808	37485.51
528.01	36858.83
528.211	37444.55
528.412	38273.98
528.614	38425.53
528.815	37979.07
529.016	38435.77
529.218	38015.93
529.419	38302.65
529.62	38400.95
529.822	38515.64
530.023	38288.31
530.224	38722.48
530.425	38558.64
530.626	38249.4
530.828	38241.21
531.029	39277.48
531.23	38474.68
531.431	38667.19
531.632	38802.35
531.833	39191.47
532.035	39191.47
532.236	38945.71
532.437	39281.58
532.638	38628.27
532.839	39617.44
533.04	39201.71
533.241	38935.47
533.442	39732.13
533.643	39367.59
533.844	39183.27
534.045	39775.14
534.246	39187.37
534.447	39383.98
534.648	39275.43
534.849	39213.99
535.05	39103.4
535.251	39246.76
535.451	39449.51
535.652	39592.87
535.853	38955.95
536.054	39771.04
536.255	39717.79
536.456	39060.4
536.657	39975.84
536.857	39433.13
537.058	39398.31
537.259	39568.29
537.46	39732.13
537.66	39381.93
537.861	39500.71
538.062	39396.26
538.263	39560.1
538.463	39502.76
538.664	39248.81
538.865	39496.61
539.065	39855.01
539.266	39060.4
539.466	40223.64
539.667	39312.3
539.868	39670.69
540.068	39527.33
540.269	39285.67
540.469	39920.54
540.67	39611.3
540.87	39711.65
541.071	39365.54
541.271	39572.39
541.472	39353.26
541.672	39541.67
541.873	39195.56
542.073	39052.2
542.274	39932.83
542.474	39312.3
542.675	38826.93
542.875	40000.41
543.075	39648.16
543.276	39357.35
543.476	39998.37
543.676	39267.24
543.877	39568.29
544.077	39469.99
544.277	39152.55
544.478	39506.85
544.678	39725.99
544.878	39564.2
545.078	39713.7
545.279	39361.45
545.479	39328.68
545.679	39277.48
545.879	39316.39
546.079	39330.73
546.28	39177.13
546.48	39293.86
546.68	39185.32
546.88	39232.43
547.08	38949.81
547.28	39121.84
547.48	38912.94
547.68	39429.03
547.88	38865.84
548.081	39531.43
548.281	39390.12
548.481	38937.52
548.681	39027.63
548.881	39213.99
549.081	39097.26
549.28	38941.61
549.48	39340.97
549.68	38896.56
549.88	39619.49
550.08	38912.94
550.28	39050.16
550.48	38869.93
550.68	39392.17
550.88	38757.3
551.08	39029.68
551.279	38859.7
551.479	38837.17
551.679	39050.16
551.879	38808.5
552.079	39068.59
552.278	38783.92
552.478	39074.73
552.678	38896.56
552.878	39259.05
553.077	38867.89
553.277	38820.78
553.477	39371.69
553.676	38767.54
553.876	39039.92
554.076	38972.33
554.275	38591.41
554.475	38464.44
554.674	38800.3
554.874	38654.9
555.074	38603.7
555.273	38669.23
555.473	38681.52
555.672	38435.77
555.872	38337.46
556.071	38767.54
556.271	38992.81
556.47	38280.12
556.67	38046.65
556.869	38353.85
557.068	38470.58
557.268	38110.14
557.467	38140.86
557.667	38284.22
557.866	38267.83
558.065	38261.69
558.265	37815.23
558.464	38017.98
558.663	38040.51
558.863	37686.21
559.062	38212.54
559.261	37934.01
559.461	37956.54
559.66	37602.24
559.859	37598.15
560.058	37536.71
560.258	37596.1
560.457	37305.29
560.656	37733.31
560.855	37452.74
561.054	37555.14
561.253	37422.02
561.453	37211.08
561.652	37243.85
561.851	37413.83
562.05	37518.28
562.249	36721.62
562.448	37333.96
562.647	37135.31
562.846	37145.55
563.045	36815.82
563.244	36375.51
563.443	37096.39
563.642	36213.72
563.841	36631.51
564.04	36285.4
564.239	37090.25
564.438	36297.69
564.637	36656.08
564.836	36424.66
565.035	35865.56
565.234	36387.8
565.432	36144.09
565.631	35781.6
565.83	35947.48
566.029	35869.66
566.228	35560.42
566.427	35754.97
566.625	35339.24
566.824	35429.35
567.023	35625.95
567.222	35054.57
567.42	35257.32
567.619	35374.05
567.818	35238.89
568.016	35208.17
568.215	35468.26
568.414	34829.29
568.612	35283.94
568.811	34780.14
569.01	34976.75
569.208	34315.25
569.407	34638.83
569.605	34450.42
569.804	34638.83
570.002	34036.73
570.201	34659.31
570.4	34155.51
570.598	34116.6
570.797	34016.25
570.995	33768.44
571.193	33711.1
571.392	34077.69
571.59	33805.31
571.789	33809.4
571.987	33469.44
572.186	33547.26
572.384	33467.39
572.582	33645.57
572.781	33356.8
572.979	32660.49
573.177	33377.28
573.376	33418.24
573.574	32687.12
573.772	33131.53
573.971	32834.57
574.169	32357.39
574.367	32642.06
574.565	32615.44
574.763	32410.64
574.962	32117.78
575.16	31951.9
575.358	32324.63
575.556	31898.65
575.754	32386.07
575.952	31548.45
576.151	32011.29
576.349	31724.57
576.547	31798.3
576.745	31845.4
576.943	31749.15
577.141	31566.88
577.339	31861.79
577.537	31339.55
577.735	31392.8
577.933	31398.94
578.131	31159.33
578.329	30956.58
578.527	30905.38
578.725	30813.23
578.923	31009.83
579.121	30874.66
579.319	30516.27
579.516	30802.99
579.714	30434.35
579.912	30534.7
580.11	30338.1
580.308	30379.06
580.506	30479.41
580.704	29727.8
580.901	30278.71
581.099	30010.42
581.297	29762.62
581.495	29797.43
581.692	29924.41
581.89	29180.99
582.088	29817.91
582.285	29574.2
582.483	29451.33
582.681	29570.11
582.878	29498.43
583.076	28965.96
583.274	29805.63
583.471	29101.12
583.669	29045.83
583.866	29029.45
584.064	29080.64
584.262	28400.72
584.459	28884.04
584.657	28345.42
584.854	28810.31
585.052	28331.09
585.249	28697.67
585.447	28423.25
585.644	27898.97
585.841	28531.79
586.039	28474.45
586.236	28085.33
586.434	28294.22
586.631	28001.36
586.828	27923.54
587.026	27968.6
587.223	27612.25
587.42	27317.34
587.618	27346.01
587.815	27141.22
588.012	27196.51
588.21	27212.9
588.407	27354.21
588.604	27274.34
588.801	26922.09
588.999	27096.16
589.196	27022.44
589.393	26856.55
589.59	27106.4
589.787	26932.33
589.984	26608.75
590.182	26262.64
590.379	26432.62
590.576	26131.57
590.773	26436.72
590.97	25801.85
591.167	26190.96
591.364	25996.4
591.561	26186.86
591.758	26137.71
591.955	25705.59
592.152	26281.07
592.349	25711.74
592.546	25551.99
592.743	25701.5
592.94	25347.2
593.137	25705.59
593.334	25914.48
593.531	25158.78
593.727	25246.85
593.924	25238.65
594.121	24802.44
594.318	25175.17
594.515	24808.58
594.712	25080.96
594.908	24827.01
595.105	25085.06
595.302	24388.75
595.499	24577.16
595.696	24667.27
595.892	24241.29
596.089	24413.32
596.286	24331.4
596.482	24370.32
596.679	24226.96
596.876	24243.34
597.072	24054.93
597.269	24214.67
597.466	23975.06
597.662	23684.25
597.859	23622.81
598.055	24173.71
598.252	23407.77
598.448	23645.34
598.645	23798.93
598.841	23202.97
599.038	23397.53
599.234	23567.51
599.431	23346.33
599.627	22852.77
599.824	23121.06
600.02	22797.48
600.217	23129.25
600.413	22865.06
600.609	22977.7
600.806	22922.4
601.002	22645.93
601.198	22420.65
601.395	22215.85
601.591	22774.95
601.787	22559.91
601.984	22305.96
602.18	22525.1
602.376	22201.52
602.572	22187.18
602.769	21984.43
602.965	22144.17
603.161	22142.13
603.357	21945.52
603.553	21677.24
603.75	21736.63
603.946	21927.09
604.142	22082.74
604.338	21619.89
604.534	21959.86
604.73	21585.08
604.926	21517.5
605.122	21449.91
605.318	21097.66
605.514	21003.46
605.71	20946.11
605.906	20858.05
606.102	20946.11
606.298	21050.56
606.494	21003.46
606.69	21062.85
606.886	20993.22
607.082	20575.43
607.278	20704.45
607.474	20786.37
607.67	20520.13
607.866	20483.27
608.062	20374.73
608.257	20554.95
608.453	20665.54
608.649	20614.34
608.845	20120.78
609.041	20202.7
609.236	20505.8
609.432	19887.31
609.628	20288.71
609.824	20133.07
610.019	19789.01
610.215	19965.14
610.411	20171.98
610.606	19789.01
610.802	19768.53
610.998	19825.87
611.193	19766.48
611.389	19864.78
611.584	19692.76
611.78	19756.24
611.976	19596.5
612.171	19598.55
612.367	19453.14
612.562	19231.96
612.758	19266.78
612.953	19070.17
613.149	19559.64
613.344	19412.18
613.539	19647.7
613.735	19422.42
613.93	19336.41
614.126	19207.39
614.321	19385.56
614.517	19207.39
614.712	19172.57
614.907	19184.86
615.103	19086.56
615.298	19035.36
615.493	19051.74
615.688	18783.46
615.884	18978.01
616.079	18652.39
616.274	18867.42
616.47	18791.65
616.665	18990.3
616.86	18879.71
617.055	18777.31
617.25	18703.59
617.445	18451.69
617.641	18312.42
617.836	18429.16
618.031	18222.31
618.226	18506.98
618.421	18308.33
618.616	18480.36
618.811	18089.2
619.006	18289.9
619.201	17726.71
619.396	17892.59
619.591	17642.74
619.786	18205.93
619.981	17822.96
620.176	17775.86
620.371	17605.88
620.566	17741.04
620.761	17483
620.956	17503.48
621.151	17222.91
621.346	17462.52
621.541	17075.45
621.735	17100.03
621.93	16991.48
622.125	17018.11
622.32	16608.51
622.515	16870.65
622.709	16356.61
622.904	16653.57
623.099	16428.29
623.294	16547.08
623.488	16524.55
623.683	16622.85
623.878	16127.24
624.072	16143.63
624.267	16014.6
624.462	15975.69
624.656	15764.75
624.851	15934.73
625.046	15488.28
625.24	15715.6
625.435	15432.98
625.629	15508.76
625.824	15365.4
626.018	15320.34
626.213	14961.95
626.407	15215.9
626.602	15121.69
626.796	14920.99
626.991	14982.43
627.185	14730.53
627.38	14624.03
627.574	14748.96
627.768	14550.31
627.963	14560.55
628.157	14515.49
628.352	14355.75
628.546	14277.93
628.74	14417.19
628.935	14134.57
629.129	14081.32
629.323	13890.86
629.517	13995.31
629.712	13995.31
629.906	13995.31
630.1	13778.22
630.294	13767.98
630.489	13567.28
630.683	13614.38
630.877	13305.14
631.071	13286.71
631.265	13405.49
631.459	13262.13
631.653	13077.82
631.848	13299
632.042	12969.27
632.236	12995.9
632.43	13055.29
632.624	12707.13
632.818	12625.22
633.012	12563.78
633.206	12494.15
633.4	12567.87
633.594	12498.24
633.788	12340.55
633.982	12352.84
634.176	12455.23
634.369	12080.46
634.563	12215.62
634.757	12141.89
634.951	12051.78
635.145	11935.05
635.339	12113.22
635.533	11918.67
635.726	11717.97
635.92	11717.97
636.114	11783.5
636.308	11732.3
636.501	11734.35
636.695	11453.78
636.889	11621.71
637.083	11355.47
637.276	11273.56
637.47	11353.43
637.664	11367.76
637.857	11285.84
638.051	11167.06
638.244	10974.55
638.438	10943.83
638.632	10888.54
638.825	11021.66
639.019	10833.24
639.212	10704.22
639.406	10704.22
639.599	10661.21
639.793	10718.56
639.986	10462.56
640.18	10687.84
640.373	10343.78
640.567	10323.3
640.76	10388.83
640.954	10233.19
641.147	10069.35
641.34	10104.17
641.534	10245.48
641.727	10059.11
641.92	10075.49
642.114	9946.47
642.307	9907.56
642.5	10036.58
642.694	9762.16
642.887	9557.36
643.08	9954.66
643.273	9528.69
643.467	9708.91
643.66	9532.78
643.853	9524.59
644.046	9289.07
644.239	9422.19
644.432	9403.76
644.626	9063.8
644.819	9209.2
645.012	9196.92
645.205	9201.01
645.398	9059.7
645.591	8983.93
645.784	8979.83
645.977	8873.34
646.17	9006.45
646.363	8854.9
646.556	8787.32
646.749	8756.6
646.942	8596.86
647.135	8705.4
647.328	8553.85
647.521	8557.95
647.714	8451.46
647.907	8576.38
648.099	8252.8
648.292	8320.39
648.485	8293.76
648.678	8394.11
648.871	8119.68
649.064	8312.19
649.256	8162.69
649.449	8123.78
649.642	8269.19
649.835	8035.72
650.027	7982.47
650.22	7906.7
650.413	7738.76
650.605	7746.95
650.798	7785.87
650.991	7832.97
651.183	7783.82
651.376	7652.75
651.568	7789.96
651.761	7771.53
651.954	7730.57
652.146	7601.55
652.339	7544.2
652.531	7675.27
652.724	7548.3
652.916	7435.66
653.109	7454.09
653.301	7368.08
653.494	7374.22
653.686	7093.65
653.879	7478.67
654.071	7251.35
654.263	7116.18
654.456	7118.23
654.648	7163.28
654.84	6907.29
655.033	6899.09
655.225	7005.59
655.417	6882.71
655.61	6886.81
655.802	6751.64
655.994	6938.01
656.186	6794.65
656.379	6780.31
656.571	6710.68
656.763	6692.25
656.955	6841.75
657.148	6700.44
657.34	6692.25
657.532	6450.59
657.724	6522.27
657.916	6428.06
658.108	6421.92
658.3	6540.7
658.492	6383.01
658.684	6311.33
658.876	6366.62
659.068	6305.18
659.26	6219.17
659.452	6315.42
659.644	6268.32
659.836	6301.09
660.028	6202.79
660.22	6065.57
660.412	6120.87
660.604	5924.26
660.796	5961.13
660.988	6094.24
661.18	5887.4
661.372	5887.4
661.563	5819.82
661.755	5895.59
661.947	5828.01
662.139	5746.09
662.331	5825.96
662.522	5615.02
662.714	5762.47
662.906	5619.11
663.097	5633.45
663.289	5508.52
663.481	5490.09
663.673	5588.39
663.864	5496.24
664.056	5526.96
664.247	5598.63
664.439	5287.34
664.631	5375.41
664.822	5363.12
665.014	5275.06
665.205	5412.27
665.397	5305.78
665.588	5195.18
665.78	5201.33
665.971	5158.32
666.163	5156.27
666.354	5090.74
666.546	5154.23
666.737	5184.94
666.929	5037.49
667.12	5017.01
667.311	5148.08
667.503	4967.86
667.694	5031.35
667.885	4877.75
668.077	4978.1
668.268	4672.95
668.459	4867.51
668.651	4666.81
668.842	4681.14
669.033	4689.34
669.224	4611.51
669.416	4887.99
669.607	4767.16
669.798	4545.98
669.989	4691.38
670.18	4744.63
670.371	4572.6
670.563	4593.08
670.754	4474.3
670.945	4560.31
671.136	4613.56
671.327	4447.68
671.518	4412.86
671.709	4580.79
671.9	4515.26
672.091	4523.45
672.282	4449.72
672.473	4255.17
672.664	4378.05
672.855	4298.17
673.046	4394.43
673.237	4392.38
673.428	4289.98
673.619	4228.54
673.809	4074.95
674	4285.89
674.191	4259.26
674.382	4089.28
674.573	4156.86
674.764	4124.1
674.954	4339.13
675.145	4025.79
675.336	4099.52
675.527	4036.03
675.717	4009.41
675.908	4081.09
676.099	3988.93
676.289	3904.96
676.48	3984.84
676.671	3931.59
676.861	4046.27
677.052	4015.55
677.243	3812.81
677.433	3818.95
677.624	3843.53
677.814	3988.93
678.005	3898.82
678.195	3864.01
678.386	3669.45
678.576	3892.68
678.767	3669.45
678.957	3704.26
679.148	3784.13
679.338	3775.94
679.529	3745.22
679.719	3763.65
679.909	3689.93
680.1	3704.26
680.29	3694.02
680.481	3489.23
680.671	3634.63
680.861	3597.77
681.052	3651.02
681.242	3573.19
681.432	3694.02
681.622	3730.89
681.813	3485.13
682.003	3423.69
682.193	3425.74
682.383	3544.52
682.573	3546.57
682.764	3501.51
682.954	3452.36
683.144	3526.09
683.334	3464.65
683.524	3425.74
683.714	3392.97
683.904	3331.53
684.094	3464.65
684.284	3427.79
684.474	3409.36
684.664	3300.81
684.854	3319.25
685.044	3313.1
685.234	3208.66
685.424	3364.3
685.614	3235.28
685.804	3216.85
685.994	3141.07
686.184	3347.92
686.374	3257.81
686.564	3243.47
686.753	3247.57
686.943	3112.4
687.133	3212.75
687.323	3116.5
687.513	3147.22
687.702	3124.69
687.892	3022.29
688.082	3093.97
688.272	3053.01
688.461	3147.22
688.651	3200.46
688.841	3053.01
689.03	3020.24
689.22	3116.5
689.41	3020.24
689.599	2983.38
689.789	3053.01
689.979	3016.15
690.168	2997.71
690.358	2799.06
690.547	2844.12
690.737	3030.48
690.926	2887.12
691.116	2932.18
691.305	2868.69
691.495	2817.49
691.684	2780.63
691.874	2932.18
692.063	2962.9
692.252	2809.3
692.442	2815.45
692.631	2768.34
692.82	2780.63
693.01	2846.16
693.199	2868.69
693.388	2692.57
693.578	2819.54
693.767	2713.05
693.956	2774.49
694.146	2704.85
694.335	2803.16
694.524	2721.24
694.713	2678.23
694.902	2790.87
695.092	2667.99
695.281	2764.25
695.47	2764.25
695.659	2633.18
695.848	2659.8
696.037	2627.03
696.226	2764.25
696.415	2631.13
696.604	2584.02
696.793	2602.46
696.982	2598.36
697.171	2653.66
697.36	2659.8
697.549	2614.74
697.738	2610.65
697.927	2475.48
698.116	2600.41
698.305	2504.15
698.494	2579.93
698.683	2649.56
698.872	2520.54
699.061	2616.79
699.25	2567.64
699.438	2450.91
699.627	2543.07
699.816	2606.55
700.005	2579.93
700.193	2432.47
700.382	2631.13
700.571	2526.68
700.76	2495.96
700.948	2704.85
701.137	2555.35
701.326	2506.2
701.514	2434.52
701.703	2565.59
701.892	2567.64
702.08	2485.72
702.269	2538.97
702.457	2518.49
702.646	2553.31
702.834	2610.65
703.023	2495.96
703.212	2475.48
703.4	2524.63
703.589	2510.3
703.777	2594.26
703.965	2491.87
704.154	2459.1
704.342	2538.97
704.531	2516.44
704.719	2473.43
704.907	2541.02
705.096	2508.25
705.284	2489.82
705.472	2485.72
705.661	2565.59
705.849	2395.61
706.037	2510.3
706.226	2368.99
706.414	2520.54
706.602	2455
706.79	2608.6
706.979	2393.56
707.167	2397.66
707.355	2530.78
707.543	2450.91
707.731	2475.48
707.919	2457.05
708.107	2444.76
708.296	2414.04
708.484	2463.19
708.672	2436.57
708.86	2526.68
709.048	2577.88
709.236	2383.32
709.424	2452.95
709.612	2510.3
709.8	2407.9
709.988	2440.67
710.176	2442.71
710.364	2377.18
710.551	2403.8
710.739	2491.87
710.927	2452.95
711.115	2487.77
711.303	2395.61
711.491	2530.78
711.679	2389.47
711.866	2266.59
712.054	2287.07
712.242	2383.32
712.43	2358.75
712.617	2418.14
712.805	2414.04
712.993	2475.48
713.181	2375.13
713.368	2485.72
713.556	2387.42
713.744	2354.65
713.931	2336.22
714.119	2403.8
714.306	2373.08
714.494	2383.32
714.682	2473.43
714.869	2338.27
715.057	2377.18
715.244	2463.19
715.432	2368.99
715.619	2471.39
715.807	2309.6
715.994	2420.19
716.182	2332.12
716.369	2426.33
716.556	2285.02
716.744	2430.43
716.931	2358.75
717.119	2436.57
717.306	2258.4
717.493	2287.07
717.681	2303.45
717.868	2248.16
718.055	2379.23
718.242	2336.22
718.43	2201.05
718.617	2258.4
718.804	2317.79
718.991	2356.7
719.179	2455
719.366	2223.58
719.553	2313.69
719.74	2389.47
719.927	2278.88
720.114	2289.12
720.301	2393.56
720.488	2321.88
720.676	2223.58
720.863	2371.04
721.05	2254.3
721.237	2297.31
721.424	2309.6
721.611	2293.21
721.798	2248.16
721.985	2297.31
722.172	2149.86
722.358	2258.4
722.545	2250.21
722.732	2360.8
722.919	2256.35
723.106	2203.1
723.293	2242.01
723.48	2217.44
723.667	2295.26
723.853	2192.86
724.04	2262.49
724.227	2254.3
724.414	2209.25
724.6	2221.53
724.787	2289.12
724.974	2366.94
725.161	2199.01
725.347	2137.57
725.534	2258.4
725.72	2360.8
725.907	2348.51
726.094	2352.6
726.28	2092.51
726.467	2192.86
726.653	2201.05
726.84	2258.4
727.027	2258.4
727.213	2141.66
727.4	2237.92
727.586	2291.17
727.773	2209.25
727.959	2147.81
728.145	2166.24
728.332	2209.25
728.518	2233.82
728.705	2246.11
728.891	2252.25
729.077	2180.57
729.264	2225.63
729.45	2092.51
729.636	2242.01
729.823	2147.81
730.009	2172.38
730.195	2229.73
730.382	2221.53
730.568	2205.15
730.754	2117.09
730.94	2131.42
731.126	2201.05
731.313	2239.97
731.499	2227.68
731.685	2143.71
731.871	2205.15
732.057	2153.95
732.243	2094.56
732.429	2108.9
732.615	2178.53
732.801	2242.01
732.987	2137.57
733.173	2100.7
733.359	2151.9
733.545	2176.48
733.731	2147.81
733.917	2254.3
734.103	2102.75
734.289	2108.9
734.475	2123.23
734.661	2078.18
734.847	2029.03
735.033	2057.7
735.219	2106.85
735.404	2115.04
735.59	2067.94
735.776	2008.55
735.962	2096.61
736.148	2004.45
736.333	2086.37
736.519	2153.95
736.705	1998.31
736.89	2065.89
737.076	2100.7
737.262	2051.55
737.447	2110.94
737.633	2035.17
737.819	2035.17
738.004	2086.37
738.19	1943.01
738.375	2057.7
738.561	2049.5
738.747	2158.05
738.932	1963.49
739.118	2053.6
739.303	1973.73
739.489	1869.28
739.674	2010.59
739.859	1953.25
740.045	1936.87
740.23	1992.16
740.416	1758.69
740.601	1857
740.786	1891.81
740.972	1961.44
741.157	2084.32
741.342	1852.9
741.528	1949.15
741.713	1928.67
741.898	1902.05
742.084	1967.59
742.269	1908.19
742.454	1865.19
742.639	2039.26
742.824	1908.19
743.01	1967.59
743.195	1836.52
743.38	1906.15
743.565	1918.43
743.75	1912.29
743.935	1791.46
744.12	1871.33
744.305	1756.65
744.49	1762.79
744.675	1797.6
744.86	1775.08
745.045	1875.43
745.23	1805.8
745.415	1730.02
745.6	1758.69
745.785	1746.41
745.97	1754.6
746.155	1848.8
746.34	1748.45
746.525	1678.82
746.71	1727.97
746.895	1658.34
747.079	1715.69
747.264	1764.84
747.449	1656.29
747.634	1631.72
747.819	1656.29
748.003	1514.98
748.188	1707.49
748.373	1629.67
748.557	1576.42
748.742	1627.62
748.927	1603.05
749.111	1449.45
749.296	1580.52
749.481	1613.29
749.665	1598.95
749.85	1566.18
750.034	1555.94
750.219	1502.7
750.404	1453.55
750.588	1570.28
750.773	1459.69
750.957	1471.98
751.141	1531.37
751.326	1422.83
751.51	1388.01
751.695	1486.31
751.879	1328.62
752.064	1416.68
752.248	1463.79
752.432	1467.88
752.617	1351.15
752.801	1334.76
752.985	1306.09
753.17	1347.05
753.354	1402.35
753.538	1416.68
753.722	1334.76
753.907	1336.81
754.091	1355.24
754.275	1314.28
754.459	1295.85
754.643	1359.34
754.828	1363.44
755.012	1295.85
755.196	1322.48
755.38	1267.18
755.564	1164.78
755.748	1220.08
755.932	1261.04
756.116	1248.75
756.3	1273.32
756.484	1189.36
756.668	1230.32
756.852	1187.31
757.036	1203.69
757.22	1187.31
757.404	1170.93
757.588	1168.88
757.772	1172.97
757.956	1123.82
758.14	1175.02
758.323	1099.25
758.507	1164.78
758.691	1152.49
758.875	1144.3
759.059	1117.68
759.242	1193.45
759.426	1136.11
759.61	1119.73
759.794	1050.1
759.977	1074.67
760.161	1197.55
760.345	1099.25
760.528	1064.43
760.712	1101.3
760.895	1058.29
761.079	1084.91
761.263	996.85
761.446	1097.2
761.63	1185.26
761.813	1054.19
761.997	1027.57
762.18	970.23
762.364	1095.15
762.547	982.51
762.731	1027.57
762.914	1037.81
763.098	1011.18
763.281	1002.99
763.464	976.37
763.648	959.99
763.831	953.84
764.015	959.99
764.198	984.56
764.381	900.59
764.564	1048.05
764.748	970.23
764.931	976.37
765.114	912.88
765.297	968.18
765.481	925.17
765.664	919.03
765.847	871.92
766.03	1019.38
766.213	935.41
766.397	964.08
766.58	855.54
766.763	1017.33
766.946	962.03
767.129	873.97
767.312	1000.94
767.495	925.17
767.678	933.36
767.861	880.11
768.044	898.55
768.227	968.18
768.41	927.22
768.593	912.88
768.776	880.11
768.959	855.54
769.142	953.84
769.324	865.78
769.507	849.4
769.69	845.3
769.873	810.48
770.056	882.16
770.239	790
770.421	884.21
770.604	835.06
770.787	916.98
770.97	747
771.152	693.75
771.335	820.72
771.518	892.4
771.7	826.87
771.883	790
772.066	873.97
772.248	816.63
772.431	814.58
772.613	769.52
772.796	738.8
772.978	771.57
773.161	773.62
773.343	790
773.526	751.09
773.708	781.81
773.891	839.16
774.073	798.2
774.256	763.38
774.438	833.01
774.621	738.8
774.803	706.04
774.985	728.56
775.168	775.67
775.35	646.65
775.532	626.17
775.715	767.48
775.897	691.7
776.079	749.04
776.261	693.75
776.444	718.33
776.626	697.85
776.808	642.55
776.99	691.7
777.173	632.31
777.355	732.66
777.537	656.89
777.719	634.36
777.901	693.75
778.083	685.56
778.265	652.79
778.447	767.48
778.629	673.27
778.811	677.37
778.993	560.63
779.175	583.16
779.357	585.21
779.539	591.35
779.721	589.3
779.903	681.46
780.085	658.93
780.267	611.83
780.449	640.5
780.631	591.35
780.812	630.26
780.994	617.97
781.176	595.45
781.358	523.77
781.54	599.54
781.721	470.52
781.903	740.85
782.085	548.34
782.267	597.49
782.448	579.06
782.63	634.36
782.812	550.39
782.993	544.25
783.175	509.43
783.357	509.43
783.538	536.06
783.72	509.43
783.901	554.49
784.083	509.43
784.264	517.62
784.446	464.38
784.627	462.33
784.809	491
784.99	470.52
785.172	445.95
785.353	495.1
785.535	513.53
785.716	509.43
785.897	472.57
786.079	513.53
786.26	486.9
786.441	548.34
786.623	443.9
786.804	400.89
786.985	425.47
787.167	454.14
787.348	474.62
787.529	357.88
787.71	470.52
787.891	445.95
788.073	443.9
788.254	388.6
788.435	558.58
788.616	368.12
788.797	347.64
788.978	382.46
789.159	462.33
789.34	394.75
789.522	388.6
789.703	419.32
789.884	407.03
790.065	390.65
790.246	386.55
790.427	353.79
790.607	425.47
790.788	409.08
790.969	390.65
791.15	374.27
791.331	341.5
791.512	359.93
791.693	341.5
791.874	355.83
792.054	443.9
792.235	404.99
792.416	366.07
792.597	304.64
792.778	286.2
792.958	341.5
793.139	343.55
793.32	255.48
793.5	345.59
793.681	445.95
793.862	308.73
794.042	396.79
794.223	314.88
794.404	321.02
794.584	243.2
794.765	390.65
794.945	355.83
795.126	296.44
795.306	364.03
795.487	280.06
795.667	327.16
795.848	308.73
796.028	278.01
796.209	347.64
796.389	239.1
796.57	353.79
796.75	269.82
796.93	323.07
797.111	341.5
797.291	298.49
797.471	339.45
797.652	304.64
797.832	275.96
798.012	306.68
798.192	288.25
798.373	267.77
798.553	284.16
798.733	284.16
798.913	314.88
799.093	255.48
799.274	329.21
799.454	302.59
799.634	259.58
799.814	267.77
799.994	302.59
800.174	357.88
800.354	255.48
800.534	265.72
800.714	237.05
800.894	253.44
801.074	232.96
801.254	222.72
801.434	278.01
801.614	239.1
801.794	226.81
801.974	734.71
802.154	275.96
802.334	198.14
802.514	232.96
802.693	210.43
802.873	218.62
803.053	235
803.233	245.24
803.413	249.34
803.592	259.58
803.772	269.82
803.952	269.82
804.131	120.32
804.311	290.3
804.491	230.91
804.67	218.62
804.85	249.34
805.03	284.16
805.209	206.33
805.389	235
805.568	237.05
805.748	155.13
805.928	181.76
806.107	206.33
806.287	241.15
806.466	210.43
806.646	222.72
806.825	161.28
807.004	241.15
807.184	222.72
807.363	214.52
807.543	255.48
807.722	230.91
807.901	255.48
808.081	157.18
808.26	112.13
808.439	237.05
808.619	175.61
808.798	165.37
808.977	214.52
809.156	196.09
809.336	228.86
809.515	187.9
809.694	183.81
809.873	140.8
810.052	210.43
810.231	210.43
810.411	183.81
810.59	251.39
810.769	228.86
810.948	114.17
811.127	112.13
811.306	177.66
811.485	161.28
811.664	192
811.843	169.47
812.022	179.71
812.201	151.04
812.38	206.33
812.559	167.42
812.737	151.04
812.916	175.61
813.095	208.38
813.274	202.24
813.453	136.7
813.632	183.81
813.811	196.09
813.989	155.13
814.168	155.13
814.347	93.69
814.526	148.99
814.704	165.37
814.883	247.29
815.062	108.03
815.24	130.56
815.419	91.65
815.598	196.09
815.776	132.61
815.955	202.24
816.133	91.65
816.312	249.34
816.49	132.61
816.669	146.94
816.847	116.22
817.026	206.33
817.204	161.28
817.383	194.05
817.561	99.84
817.74	222.72
817.918	99.84
818.097	142.85
818.275	136.7
818.453	116.22
818.632	103.93
818.81	192
818.988	124.41
819.167	159.23
819.345	134.65
819.523	124.41
819.701	189.95
819.879	151.04
820.058	165.37
820.236	171.52
820.414	161.28
820.592	148.99
820.77	65.02
820.948	165.37
821.127	175.61
821.305	142.85
821.483	134.65
821.661	192
821.839	165.37
822.017	75.26
822.195	198.14
822.373	224.76
822.551	22.02
822.729	165.37
822.907	108.03
823.085	144.89
823.262	187.9
823.44	130.56
823.618	79.36
823.796	101.89
823.974	79.36
824.152	85.5
824.329	153.09
824.507	85.5
824.685	112.13
824.863	189.95
825.04	167.42
825.218	181.76
825.396	81.41
825.574	165.37
825.751	87.55
825.929	146.94
826.107	56.83
826.284	58.88
826.462	155.13
826.639	165.37
826.817	91.65
826.994	112.13
827.172	110.08
827.349	151.04
827.527	22.02
827.704	105.98
827.882	163.33
828.059	114.17
828.237	126.46
828.414	140.8
828.591	48.64
828.769	134.65
828.946	54.78
829.124	75.26
829.301	54.78
829.478	93.69
829.655	101.89
829.833	26.11
830.01	155.13
830.187	85.5
830.364	75.26
830.542	124.41
830.719	151.04
830.896	105.98
831.073	159.23
831.25	177.66
831.427	157.18
831.604	24.06
831.782	69.12
831.959	122.37
832.136	73.21
832.313	136.7
832.49	140.8
832.667	50.69
832.844	75.26
833.021	97.79
833.198	67.07
833.374	93.69
833.551	93.69
833.728	36.35
833.905	58.88
834.082	19.97
834.259	91.65
834.436	128.51
834.612	24.06
834.789	151.04
834.966	118.27
835.143	185.85
835.319	116.22
835.496	93.69
835.673	46.59
835.85	83.45
836.026	157.18
836.203	181.76
836.38	48.64
836.556	155.13
836.733	69.12
836.909	28.16
837.086	140.8
837.262	120.32
837.439	52.74
837.616	151.04
837.792	54.78
837.968	-4.61
838.145	67.07
838.321	71.17
838.498	79.36
838.674	142.85
838.851	200.19
839.027	-12.8
839.203	81.41
839.38	75.26
839.556	34.3
839.732	122.37
839.909	38.4
840.085	124.41
840.261	30.21
840.437	93.69
840.614	67.07
840.79	67.07
840.966	34.3
841.142	-8.7
841.318	73.21
841.494	79.36
841.671	97.79
841.847	79.36
842.023	67.07
842.199	75.26
842.375	62.98
842.551	75.26
842.727	9.73
842.903	122.37
843.079	91.65
843.255	69.12
843.431	26.11
843.607	58.88
843.783	87.55
843.959	34.3
844.134	65.02
844.31	71.17
844.486	42.5
844.662	17.92
844.838	101.89
845.013	60.93
845.189	83.45
845.365	60.93
845.541	54.78
845.716	132.61
845.892	44.54
846.068	50.69
846.244	34.3
846.419	116.22
846.595	30.21
846.77	105.98
846.946	-2.56
847.122	5.63
847.297	118.27
847.473	32.26
847.648	73.21
847.824	54.78
847.999	40.45
848.175	56.83
848.35	60.93
848.526	71.17
848.701	75.26
848.876	87.55
849.052	192
849.227	40.45
849.403	11.78
849.578	85.5
849.753	69.12
849.929	36.35
850.104	97.79
850.279	95.74
850.454	83.45
850.63	101.89
850.805	54.78
850.98	-12.8
851.155	36.35
851.33	-23.04
851.505	58.88
851.681	22.02
851.856	42.5
852.031	134.65
852.206	1.54
852.381	69.12
852.556	24.06
852.731	69.12
852.906	17.92
853.081	136.7
853.256	69.12
853.431	69.12
853.606	101.89
853.781	26.11
853.956	32.26
854.131	73.21
854.305	36.35
854.48	60.93
854.655	-68.09
854.83	83.45
855.005	73.21
855.18	120.32
855.354	71.17
855.529	71.17
855.704	-16.9
855.879	153.09
856.053	19.97
856.228	-18.94
856.403	24.06
856.577	108.03
856.752	22.02
856.926	54.78
857.101	-0.51
857.276	28.16
857.45	22.02
857.625	77.31
857.799	93.69
857.974	77.31
858.148	60.93
858.323	118.27
858.497	46.59
858.672	99.84
858.846	50.69
859.02	-4.61
859.195	24.06
859.369	91.65
859.543	87.55
859.718	79.36
859.892	79.36
860.066	22.02
860.241	50.69
860.415	77.31
860.589	77.31
860.763	81.41
860.938	60.93
861.112	75.26
861.286	60.93
861.46	24.06
861.634	-76.29
861.808	83.45
861.982	54.78
862.157	22.02
862.331	54.78
862.505	-4.61
862.679	17.92
862.853	114.17
863.027	83.45
863.201	34.3
863.375	38.4
863.549	52.74
863.722	9.73
863.896	-20.99
864.07	24.06
864.244	67.07
864.418	30.21
864.592	103.93
864.766	52.74
864.939	17.92
865.113	38.4
865.287	24.06
865.461	-10.75
865.634	40.45
865.808	30.21
865.982	71.17
866.156	79.36
866.329	-14.85
866.503	42.5
866.676	-39.42
866.85	73.21
867.024	103.93
867.197	52.74
867.371	108.03
867.544	26.11
867.718	26.11
867.891	28.16
868.065	-2.56
868.238	17.92
868.412	50.69
868.585	-12.8
868.759	22.02
868.932	67.07
869.105	15.87
869.279	19.97
869.452	22.02
869.625	67.07
869.799	67.07
869.972	1.54
870.145	32.26
870.319	26.11
870.492	83.45
870.665	1.54
870.838	13.82
871.011	-57.86
871.185	87.55
871.358	17.92
871.531	11.78
871.704	26.11
871.877	15.87
872.05	60.93
872.223	44.54
872.396	132.61
872.569	24.06
872.742	48.64
872.915	-6.66
873.088	-23.04
873.261	-18.94
873.434	50.69
873.607	44.54
873.78	114.17
873.953	71.17
874.126	-2.56
874.299	-31.23
874.471	17.92
874.644	62.98
874.817	79.36
874.99	112.13
875.163	40.45
875.335	87.55
875.508	99.84
875.681	-41.47
875.853	15.87
876.026	11.78
876.199	-10.75
876.371	83.45
876.544	9.73
876.717	22.02
876.889	56.83
877.062	69.12
877.234	-8.7
877.407	17.92
877.579	15.87
877.752	67.07
877.924	40.45
878.097	38.4
878.269	58.88
878.442	108.03
878.614	69.12
878.786	52.74
878.959	1.54
879.131	67.07
879.303	26.11
879.476	99.84
879.648	1.54
879.82	38.4
879.993	38.4
880.165	62.98
880.337	60.93
880.509	13.82
880.681	34.3
880.854	3.58
881.026	15.87
881.198	52.74
881.37	26.11
881.542	-8.7
881.714	17.92
881.886	42.5
882.058	17.92
882.23	17.92
882.402	26.11
882.574	15.87
882.746	95.74
882.918	38.4
883.09	67.07
883.262	-6.66
883.434	52.74
883.606	-25.09
883.778	30.21
883.95	116.22
884.122	17.92
884.293	-12.8
884.465	5.63
884.637	-31.23
884.809	7.68
884.98	17.92
885.152	34.3
885.324	-2.56
885.496	32.26
885.667	28.16
885.839	-4.61
886.011	3.58
886.182	48.64
886.354	58.88
886.525	157.18
886.697	1.54
886.869	-35.33
887.04	-49.66
887.212	46.59
887.383	42.5
887.555	-78.33
887.726	54.78
887.897	83.45
888.069	62.98
888.24	58.88
888.412	-49.66
888.583	40.45
888.754	54.78
888.926	85.5
889.097	-2.56
889.268	-16.9
889.44	1.54
889.611	26.11
889.782	38.4
889.953	-25.09
890.125	11.78
890.296	-47.62
890.467	-18.94
890.638	28.16
890.809	38.4
890.98	-47.62
891.151	87.55
891.323	69.12
891.494	-37.38
891.665	15.87
891.836	81.41
892.007	77.31
892.178	9.73
892.349	69.12
892.52	50.69
892.691	-10.75
892.862	-4.61
893.032	13.82
893.203	1.54
893.374	22.02
893.545	17.92
893.716	-6.66
893.887	50.69
894.057	-23.04
894.228	65.02
894.399	-2.56
894.57	48.64
894.74	60.93
894.911	28.16
895.082	19.97
895.253	93.69
895.423	-43.52
895.594	15.87
895.764	15.87
895.935	5.63
896.106	32.26
896.276	105.98
896.447	50.69
896.617	34.3
896.788	58.88
896.958	7.68
897.129	17.92
897.299	17.92
897.47	85.5
897.64	-8.7
897.81	-43.52
897.981	60.93
898.151	3.58
898.322	99.84
898.492	5.63
898.662	34.3
898.832	58.88
899.003	-47.62
899.173	-8.7
899.343	28.16
899.513	-4.61
