Data from USB4F104151__94__13-13-13-828.txt Node

Date: Fri Mar 14 13:13:13 EDT 2025
User: louis
Spectrometer: USB4F10415
Trigger mode: 4
Integration Time (sec): 2.000000E-2
Scans to average: 1
Electric dark correction enabled: true
Nonlinearity correction enabled: false
Boxcar width: 0
XAxis mode: Wavelengths
Number of Pixels in Spectrum: 3648
>>>>>Begin Spectral Data<<<<<
178.204	-111.96
178.424	-111.96
178.644	-111.96
178.864	-95.57
179.084	-130.39
179.304	39.59
179.524	21.16
179.744	-9.56
179.964	31.4
180.184	-68.95
180.404	41.64
180.624	41.64
180.844	-19.8
181.064	-48.47
181.283	10.92
181.503	-23.89
181.723	-15.7
181.943	-42.32
182.163	74.41
182.383	-27.99
182.602	10.92
182.822	15.02
183.042	55.98
183.262	-23.89
183.482	-17.75
183.701	-17.75
183.921	31.4
184.141	-9.56
184.361	55.98
184.58	12.97
184.8	23.21
185.02	-13.65
185.239	27.31
185.459	-1.37
185.679	15.02
185.898	-54.61
186.118	41.64
186.338	8.87
186.557	41.64
186.777	6.83
186.997	-1.37
187.216	6.83
187.436	88.75
187.655	23.21
187.875	15.02
188.095	10.92
188.314	47.79
188.534	62.12
188.753	58.03
188.973	-30.04
189.192	62.12
189.412	66.22
189.631	66.22
189.851	27.31
190.07	68.27
190.29	-5.46
190.509	-38.23
190.729	-23.89
190.948	80.55
191.168	197.29
191.387	12.97
191.607	45.74
191.826	-64.85
192.045	6.83
192.265	-30.04
192.484	23.21
192.704	80.55
192.923	-23.89
193.142	111.27
193.362	-23.89
193.581	64.17
193.8	53.93
194.02	72.36
194.239	6.83
194.458	51.88
194.678	19.11
194.897	23.21
195.116	-25.94
195.335	23.21
195.555	41.64
195.774	23.21
195.993	51.88
196.212	10.92
196.432	-36.18
196.651	-48.47
196.87	25.26
197.089	66.22
197.308	49.83
197.528	-15.7
197.747	-17.75
197.966	39.59
198.185	60.07
198.404	-34.13
198.623	12.97
198.842	55.98
199.062	17.07
199.281	15.02
199.5	4.78
199.719	47.79
199.938	-15.7
200.157	39.59
200.376	66.22
200.595	6.83
200.814	-25.94
201.033	6.83
201.252	49.83
201.471	58.03
201.69	12.97
201.909	72.36
202.128	55.98
202.347	31.4
202.566	41.64
202.785	-50.52
203.004	4.78
203.223	45.74
203.442	33.45
203.661	23.21
203.879	37.55
204.098	129.7
204.317	25.26
204.536	68.27
204.755	45.74
204.974	76.46
205.193	-40.28
205.411	10.92
205.63	-36.18
205.849	-25.94
206.068	6.83
206.287	-11.61
206.505	76.46
206.724	51.88
206.943	0.68
207.162	76.46
207.381	86.7
207.599	47.79
207.818	-9.56
208.037	33.45
208.255	-17.75
208.474	96.94
208.693	-79.19
208.911	72.36
209.13	80.55
209.349	27.31
209.567	92.84
209.786	0.68
210.005	15.02
210.223	55.98
210.442	-34.13
210.661	21.16
210.879	-36.18
211.098	76.46
211.316	-32.08
211.535	72.36
211.753	29.35
211.972	82.6
212.191	-15.7
212.409	47.79
212.628	-25.94
212.846	-1.37
213.065	109.22
213.283	49.83
213.502	-15.7
213.72	80.55
213.938	31.4
214.157	2.73
214.375	55.98
214.594	31.4
214.812	-15.7
215.031	17.07
215.249	-30.04
215.467	10.92
215.686	21.16
215.904	72.36
216.122	17.07
216.341	82.6
216.559	25.26
216.778	25.26
216.996	-1.37
217.214	60.07
217.432	-11.61
217.651	33.45
217.869	15.02
218.087	-15.7
218.306	-1.37
218.524	66.22
218.742	74.41
218.96	6.83
219.179	-40.28
219.397	51.88
219.615	-1.37
219.833	-48.47
220.051	17.07
220.27	92.84
220.488	-13.65
220.706	-5.46
220.924	-50.52
221.142	23.21
221.36	-25.94
221.578	96.94
221.796	74.41
222.015	23.21
222.233	47.79
222.451	-21.85
222.669	-7.51
222.887	17.07
223.105	31.4
223.323	37.55
223.541	-19.8
223.759	41.64
223.977	-7.51
224.195	31.4
224.413	64.17
224.631	39.59
224.849	15.02
225.067	47.79
225.285	27.31
225.503	6.83
225.721	35.5
225.939	25.26
226.157	19.11
226.375	135.85
226.592	-54.61
226.81	-7.51
227.028	55.98
227.246	137.9
227.464	43.69
227.682	31.4
227.9	66.22
228.117	17.07
228.335	72.36
228.553	-13.65
228.771	39.59
228.989	58.03
229.206	41.64
229.424	23.21
229.642	6.83
229.86	39.59
230.077	47.79
230.295	-30.04
230.513	66.22
230.731	33.45
230.948	115.37
231.166	6.83
231.384	10.92
231.601	-15.7
231.819	19.11
232.037	15.02
232.254	-58.71
232.472	27.31
232.689	-5.46
232.907	43.69
233.125	8.87
233.342	35.5
233.56	-52.56
233.777	15.02
233.995	66.22
234.213	66.22
234.43	6.83
234.648	-11.61
234.865	-21.85
235.083	49.83
235.3	58.03
235.518	8.87
235.735	41.64
235.953	113.32
236.17	2.73
236.388	15.02
236.605	25.26
236.822	-5.46
237.04	60.07
237.257	-15.7
237.475	31.4
237.692	64.17
237.909	55.98
238.127	23.21
238.344	-23.89
238.562	-13.65
238.779	0.68
238.996	-40.28
239.214	2.73
239.431	37.55
239.648	-17.75
239.865	27.31
240.083	41.64
240.3	10.92
240.517	-9.56
240.735	17.07
240.952	60.07
241.169	41.64
241.386	-11.61
241.603	55.98
241.821	-19.8
242.038	51.88
242.255	53.93
242.472	27.31
242.689	15.02
242.907	17.07
243.124	47.79
243.341	21.16
243.558	-93.52
243.775	-1.37
243.992	-83.28
244.209	-3.41
244.426	80.55
244.643	82.6
244.86	0.68
245.078	41.64
245.295	10.92
245.512	58.03
245.729	23.21
245.946	49.83
246.163	8.87
246.38	-7.51
246.597	60.07
246.814	45.74
247.031	39.59
247.248	-5.46
247.464	12.97
247.681	-34.13
247.898	-11.61
248.115	19.11
248.332	-52.56
248.549	8.87
248.766	2.73
248.983	8.87
249.2	31.4
249.417	27.31
249.633	27.31
249.85	15.02
250.067	-73.04
250.284	-5.46
250.501	-13.65
250.717	115.37
250.934	84.65
251.151	123.56
251.368	31.4
251.585	45.74
251.801	39.59
252.018	2.73
252.235	-5.46
252.451	2.73
252.668	6.83
252.885	19.11
253.102	-5.46
253.318	37.55
253.535	-48.47
253.752	62.12
253.968	-44.37
254.185	35.5
254.401	-30.04
254.618	-11.61
254.835	8.87
255.051	31.4
255.268	41.64
255.484	82.6
255.701	29.35
255.917	-44.37
256.134	-19.8
256.351	-21.85
256.567	-36.18
256.784	82.6
257	-9.56
257.217	10.92
257.433	39.59
257.65	62.12
257.866	-32.08
258.082	12.97
258.299	51.88
258.515	17.07
258.732	-15.7
258.948	23.21
259.165	80.55
259.381	-21.85
259.597	-58.71
259.814	43.69
260.03	41.64
260.246	6.83
260.463	35.5
260.679	8.87
260.895	64.17
261.112	-27.99
261.328	27.31
261.544	12.97
261.761	-25.94
261.977	6.83
262.193	-40.28
262.409	-60.76
262.626	0.68
262.842	-27.99
263.058	10.92
263.274	55.98
263.49	-15.7
263.707	45.74
263.923	109.22
264.139	-1.37
264.355	-5.46
264.571	62.12
264.787	-34.13
265.004	33.45
265.22	-44.37
265.436	47.79
265.652	-19.8
265.868	17.07
266.084	-34.13
266.3	-21.85
266.516	-5.46
266.732	43.69
266.948	-21.85
267.164	47.79
267.38	78.51
267.596	37.55
267.812	-32.08
268.028	78.51
268.244	-9.56
268.46	-56.66
268.676	72.36
268.892	84.65
269.108	-11.61
269.324	-9.56
269.54	-64.85
269.756	-21.85
269.972	49.83
270.188	-9.56
270.403	49.83
270.619	6.83
270.835	39.59
271.051	31.4
271.267	-21.85
271.483	-19.8
271.698	45.74
271.914	72.36
272.13	-9.56
272.346	33.45
272.562	33.45
272.777	12.97
272.993	76.46
273.209	58.03
273.425	72.36
273.64	-11.61
273.856	47.79
274.072	-34.13
274.287	55.98
274.503	35.5
274.719	35.5
274.934	60.07
275.15	4.78
275.366	-17.75
275.581	-21.85
275.797	-9.56
276.012	10.92
276.228	-36.18
276.444	72.36
276.659	21.16
276.875	-36.18
277.09	6.83
277.306	-1.37
277.521	-27.99
277.737	78.51
277.952	66.22
278.168	33.45
278.383	-40.28
278.599	-21.85
278.814	53.93
279.03	33.45
279.245	74.41
279.461	39.59
279.676	43.69
279.892	27.31
280.107	-15.7
280.322	21.16
280.538	49.83
280.753	21.16
280.969	33.45
281.184	68.27
281.399	27.31
281.615	66.22
281.83	35.5
282.045	4.78
282.26	49.83
282.476	2.73
282.691	10.92
282.906	-46.42
283.122	0.68
283.337	-7.51
283.552	66.22
283.767	55.98
283.983	23.21
284.198	-13.65
284.413	107.18
284.628	23.21
284.843	-54.61
285.058	19.11
285.274	49.83
285.489	64.17
285.704	55.98
285.919	47.79
286.134	64.17
286.349	88.75
286.564	-15.7
286.779	49.83
286.995	-9.56
287.21	6.83
287.425	72.36
287.64	-32.08
287.855	17.07
288.07	-32.08
288.285	-11.61
288.5	8.87
288.715	35.5
288.93	37.55
289.145	10.92
289.36	-40.28
289.575	-34.13
289.79	-1.37
290.004	78.51
290.219	29.35
290.434	-1.37
290.649	-44.37
290.864	23.21
291.079	25.26
291.294	-21.85
291.509	-15.7
291.724	33.45
291.938	-1.37
292.153	15.02
292.368	-32.08
292.583	17.07
292.798	29.35
293.012	-5.46
293.227	86.7
293.442	37.55
293.657	-1.37
293.871	-3.41
294.086	0.68
294.301	45.74
294.516	6.83
294.73	19.11
294.945	27.31
295.16	0.68
295.374	4.78
295.589	10.92
295.804	47.79
296.018	15.02
296.233	6.83
296.447	27.31
296.662	-30.04
296.877	-1.37
297.091	37.55
297.306	96.94
297.52	-5.46
297.735	25.26
297.949	35.5
298.164	-9.56
298.378	-9.56
298.593	80.55
298.807	0.68
299.022	10.92
299.236	-25.94
299.451	90.79
299.665	6.83
299.88	62.12
300.094	31.4
300.309	68.27
300.523	41.64
300.737	15.02
300.952	43.69
301.166	-1.37
301.381	29.35
301.595	25.26
301.809	39.59
302.024	64.17
302.238	8.87
302.452	31.4
302.667	15.02
302.881	-32.08
303.095	45.74
303.309	74.41
303.524	105.13
303.738	62.12
303.952	-5.46
304.166	-25.94
304.381	-23.89
304.595	41.64
304.809	58.03
305.023	-7.51
305.237	-50.52
305.452	23.21
305.666	6.83
305.88	33.45
306.094	0.68
306.308	60.07
306.522	35.5
306.736	25.26
306.95	10.92
307.164	-9.56
307.379	4.78
307.593	53.93
307.807	-34.13
308.021	31.4
308.235	107.18
308.449	21.16
308.663	-23.89
308.877	58.03
309.091	6.83
309.305	33.45
309.519	-13.65
309.733	109.22
309.947	43.69
310.161	64.17
310.374	45.74
310.588	51.88
310.802	84.65
311.016	0.68
311.23	47.79
311.444	-7.51
311.658	-34.13
311.872	39.59
312.085	60.07
312.299	0.68
312.513	31.4
312.727	10.92
312.941	-42.32
313.154	45.74
313.368	55.98
313.582	-3.41
313.796	10.92
314.009	74.41
314.223	49.83
314.437	55.98
314.651	6.83
314.864	-17.75
315.078	98.99
315.292	-40.28
315.505	31.4
315.719	51.88
315.933	-40.28
316.146	-1.37
316.36	-9.56
316.573	64.17
316.787	76.46
317.001	-3.41
317.214	82.6
317.428	12.97
317.641	60.07
317.855	2.73
318.068	41.64
318.282	64.17
318.495	10.92
318.709	15.02
318.922	58.03
319.136	96.94
319.349	-11.61
319.563	15.02
319.776	-27.99
319.99	94.89
320.203	-21.85
320.417	6.83
320.63	51.88
320.843	64.17
321.057	33.45
321.27	-19.8
321.483	-30.04
321.697	49.83
321.91	55.98
322.124	53.93
322.337	41.64
322.55	35.5
322.763	23.21
322.977	-1.37
323.19	15.02
323.403	-46.42
323.617	76.46
323.83	55.98
324.043	70.31
324.256	74.41
324.469	70.31
324.683	74.41
324.896	105.13
325.109	17.07
325.322	2.73
325.535	33.45
325.748	27.31
325.962	17.07
326.175	107.18
326.388	37.55
326.601	19.11
326.814	43.69
327.027	31.4
327.24	107.18
327.453	31.4
327.666	-25.94
327.879	29.35
328.092	74.41
328.305	29.35
328.518	41.64
328.731	0.68
328.944	31.4
329.157	105.13
329.37	-7.51
329.583	88.75
329.796	-9.56
330.009	-46.42
330.222	51.88
330.435	-25.94
330.648	6.83
330.861	-71
331.073	55.98
331.286	66.22
331.499	76.46
331.712	80.55
331.925	98.99
332.138	-17.75
332.35	74.41
332.563	-19.8
332.776	8.87
332.989	27.31
333.202	8.87
333.414	45.74
333.627	17.07
333.84	37.55
334.053	6.83
334.265	103.08
334.478	-89.43
334.691	15.02
334.903	47.79
335.116	-64.85
335.329	-27.99
335.541	111.27
335.754	33.45
335.966	31.4
336.179	8.87
336.392	-46.42
336.604	-36.18
336.817	8.87
337.029	88.75
337.242	-36.18
337.454	27.31
337.667	-1.37
337.88	76.46
338.092	37.55
338.305	-25.94
338.517	-58.71
338.729	64.17
338.942	72.36
339.154	-15.7
339.367	17.07
339.579	-23.89
339.792	29.35
340.004	101.03
340.217	-52.56
340.429	4.78
340.641	47.79
340.854	62.12
341.066	58.03
341.278	115.37
341.491	82.6
341.703	12.97
341.915	-36.18
342.128	39.59
342.34	43.69
342.552	-40.28
342.764	31.4
342.977	66.22
343.189	-66.9
343.401	47.79
343.613	15.02
343.826	6.83
344.038	41.64
344.25	103.08
344.462	8.87
344.674	15.02
344.886	19.11
345.099	23.21
345.311	64.17
345.523	37.55
345.735	-5.46
345.947	-56.66
346.159	80.55
346.371	6.83
346.583	-116.05
346.795	76.46
347.007	39.59
347.219	-25.94
347.431	12.97
347.643	39.59
347.855	17.07
348.067	66.22
348.279	49.83
348.491	-34.13
348.703	12.97
348.915	19.11
349.127	4.78
349.339	64.17
349.551	-11.61
349.763	15.02
349.975	-23.89
350.187	47.79
350.399	6.83
350.61	51.88
350.822	-36.18
351.034	55.98
351.246	60.07
351.458	6.83
351.669	55.98
351.881	0.68
352.093	47.79
352.305	37.55
352.517	17.07
352.728	58.03
352.94	72.36
353.152	15.02
353.363	21.16
353.575	117.42
353.787	39.59
353.999	33.45
354.21	84.65
354.422	31.4
354.633	43.69
354.845	33.45
355.057	-3.41
355.268	68.27
355.48	35.5
355.692	-1.37
355.903	101.03
356.115	-5.46
356.326	41.64
356.538	78.51
356.749	19.11
356.961	74.41
357.172	105.13
357.384	62.12
357.595	117.42
357.807	21.16
358.018	33.45
358.23	35.5
358.441	-13.65
358.653	45.74
358.864	47.79
359.075	39.59
359.287	58.03
359.498	88.75
359.709	76.46
359.921	-23.89
360.132	-5.46
360.344	17.07
360.555	60.07
360.766	-7.51
360.977	10.92
361.189	90.79
361.4	-32.08
361.611	45.74
361.823	35.5
362.034	58.03
362.245	-30.04
362.456	31.4
362.667	6.83
362.879	10.92
363.09	88.75
363.301	-40.28
363.512	23.21
363.723	25.26
363.935	0.68
364.146	39.59
364.357	0.68
364.568	47.79
364.779	35.5
364.99	-1.37
365.201	25.26
365.412	80.55
365.623	-48.47
365.834	-7.51
366.045	15.02
366.256	47.79
366.467	82.6
366.678	0.68
366.889	70.31
367.1	-15.7
367.311	25.26
367.522	121.51
367.733	80.55
367.944	58.03
368.155	25.26
368.366	21.16
368.577	53.93
368.788	2.73
368.999	-9.56
369.209	39.59
369.42	105.13
369.631	111.27
369.842	53.93
370.053	-9.56
370.264	113.32
370.474	-36.18
370.685	0.68
370.896	-32.08
371.107	6.83
371.317	15.02
371.528	29.35
371.739	-5.46
371.95	-9.56
372.16	80.55
372.371	27.31
372.582	27.31
372.792	39.59
373.003	19.11
373.214	90.79
373.424	31.4
373.635	19.11
373.846	101.03
374.056	29.35
374.267	72.36
374.477	98.99
374.688	27.31
374.898	29.35
375.109	37.55
375.319	55.98
375.53	-21.85
375.74	41.64
375.951	37.55
376.161	-34.13
376.372	25.26
376.582	12.97
376.793	84.65
377.003	49.83
377.214	35.5
377.424	33.45
377.635	35.5
377.845	15.02
378.055	76.46
378.266	17.07
378.476	33.45
378.686	27.31
378.897	2.73
379.107	27.31
379.317	133.8
379.528	105.13
379.738	37.55
379.948	-58.71
380.158	17.07
380.369	-9.56
380.579	58.03
380.789	53.93
380.999	39.59
381.21	51.88
381.42	51.88
381.63	92.84
381.84	82.6
382.05	-42.32
382.261	90.79
382.471	70.31
382.681	27.31
382.891	148.14
383.101	92.84
383.311	-15.7
383.521	17.07
383.731	6.83
383.941	23.21
384.151	-46.42
384.361	-23.89
384.571	-1.37
384.781	111.27
384.991	74.41
385.201	55.98
385.411	45.74
385.621	182.95
385.831	-48.47
386.041	45.74
386.251	25.26
386.461	31.4
386.671	68.27
386.881	66.22
387.091	107.18
387.301	47.79
387.511	-17.75
387.72	45.74
387.93	72.36
388.14	-60.76
388.35	6.83
388.56	88.75
388.769	64.17
388.979	37.55
389.189	19.11
389.399	111.27
389.609	115.37
389.818	-23.89
390.028	19.11
390.238	27.31
390.447	41.64
390.657	47.79
390.867	29.35
391.076	25.26
391.286	10.92
391.496	43.69
391.705	43.69
391.915	58.03
392.125	37.55
392.334	-3.41
392.544	68.27
392.753	76.46
392.963	37.55
393.172	156.33
393.382	-9.56
393.591	125.61
393.801	88.75
394.01	51.88
394.22	115.37
394.429	35.5
394.639	4.78
394.848	8.87
395.058	43.69
395.267	47.79
395.477	78.51
395.686	-40.28
395.895	39.59
396.105	37.55
396.314	4.78
396.524	96.94
396.733	68.27
396.942	23.21
397.152	60.07
397.361	103.08
397.57	72.36
397.78	35.5
397.989	51.88
398.198	82.6
398.407	66.22
398.617	96.94
398.826	82.6
399.035	82.6
399.244	82.6
399.453	80.55
399.663	45.74
399.872	31.4
400.081	62.12
400.29	105.13
400.499	76.46
400.708	-9.56
400.917	109.22
401.127	72.36
401.336	55.98
401.545	154.28
401.754	72.36
401.963	72.36
402.172	29.35
402.381	33.45
402.59	88.75
402.799	70.31
403.008	150.18
403.217	115.37
403.426	53.93
403.635	70.31
403.844	47.79
404.053	154.28
404.262	86.7
404.471	86.7
404.68	82.6
404.888	125.61
405.097	131.75
405.306	105.13
405.515	92.84
405.724	150.18
405.933	127.66
406.142	148.14
406.35	96.94
406.559	125.61
406.768	158.38
406.977	101.03
407.185	127.66
407.394	121.51
407.603	144.04
407.812	156.33
408.02	105.13
408.229	193.19
408.438	156.33
408.646	152.23
408.855	195.24
409.064	101.03
409.272	156.33
409.481	182.95
409.69	170.66
409.898	225.96
410.107	215.72
410.315	131.75
410.524	172.71
410.733	320.17
410.941	185
411.15	215.72
411.358	236.2
411.567	242.34
411.775	289.45
411.984	293.54
412.192	320.17
412.401	309.93
412.609	314.02
412.818	344.74
413.026	328.36
413.234	434.85
413.443	279.21
413.651	342.69
413.86	314.02
414.068	322.21
414.276	449.19
414.485	400.04
414.693	352.93
414.901	420.52
415.11	531.11
415.318	492.2
415.526	500.39
415.734	473.76
415.943	565.92
416.151	516.77
416.359	606.88
416.567	549.54
416.776	555.68
416.984	623.27
417.192	703.14
417.4	625.31
417.608	604.83
417.817	647.84
418.025	678.56
418.233	768.67
418.441	780.96
418.649	805.53
418.857	885.41
419.065	797.34
419.273	887.45
419.481	834.21
419.689	961.18
419.897	1014.43
420.105	957.08
420.313	1069.72
420.521	1122.97
420.729	1092.25
420.937	1090.2
421.145	1139.35
421.353	1249.94
421.561	1258.14
421.769	1411.73
421.977	1335.96
422.185	1358.49
422.393	1432.21
422.601	1591.95
422.809	1555.09
423.017	1550.99
423.224	1608.34
423.432	1684.11
423.64	1702.54
423.848	1794.7
424.056	1772.18
424.263	1876.62
424.471	1890.96
424.679	1997.45
424.887	1999.5
425.094	2218.63
425.302	2169.48
425.51	2192.01
425.718	2235.02
425.925	2273.93
426.133	2331.27
426.341	2540.16
426.548	2519.68
426.756	2560.64
426.964	2660.99
427.171	2853.5
427.379	2759.3
427.586	2894.46
427.794	3082.88
428.001	3140.22
428.209	3287.67
428.417	3187.32
428.624	3469.94
428.832	3484.28
429.039	3521.14
429.247	3484.28
429.454	3773.04
429.662	4092.52
429.869	3762.8
430.076	4072.04
430.284	3963.5
430.491	3955.31
430.699	4334.18
430.906	4278.89
431.114	4414.06
431.321	4616.8
431.528	4653.67
431.736	4817.51
431.943	5110.36
432.15	5116.51
432.358	5087.84
432.565	5220.95
432.772	5392.98
432.979	5384.79
433.187	5782.1
433.394	5659.22
433.601	6070.86
433.808	6210.12
434.016	6154.83
434.223	6322.76
434.43	6560.33
434.637	6656.58
434.844	7111.23
435.052	7189.05
435.259	7109.18
435.466	7346.75
435.673	7275.07
435.88	7727.67
436.087	7881.27
436.294	7969.33
436.501	7830.07
436.708	8157.74
436.915	8299.05
437.122	8626.73
437.329	8702.5
437.537	8905.25
437.743	8929.83
437.95	8921.63
438.157	9386.52
438.364	9738.77
438.571	9697.81
438.778	9630.23
438.985	10598.92
439.192	10236.43
439.399	10699.27
439.606	10482.19
439.813	11217.41
440.02	11817.46
440.227	11407.87
440.433	11524.6
440.64	11790.84
440.847	11581.95
441.054	11903.48
441.261	12911.08
441.467	12417.52
441.674	12851.69
441.881	13343.2
442.088	13072.87
442.294	13111.78
442.501	13355.49
442.708	13754.84
442.914	14324.18
443.121	14823.88
443.328	14459.34
443.534	15509.95
443.741	15276.48
443.948	14948.81
444.154	16032.18
444.361	16048.57
444.568	16023.99
444.774	16030.13
444.981	16003.51
445.187	16626.09
445.394	17467.81
445.6	17199.52
445.807	18542.99
446.013	18172.31
446.22	18542.99
446.426	19237.25
446.633	19415.43
446.839	19886.46
447.046	19315.08
447.252	20173.17
447.459	20369.78
447.665	20054.39
447.871	21416.29
448.078	22063.45
448.284	21047.66
448.491	21315.94
448.697	22602.07
448.903	23251.27
449.11	22618.45
449.316	22364.5
449.522	23245.13
449.728	23746.88
449.935	23775.55
450.141	24092.99
450.347	24557.88
450.553	23558.47
450.76	23812.42
450.966	24897.84
451.172	24408.37
451.378	25116.97
451.584	24897.84
451.791	25383.21
451.997	25317.67
452.203	25452.84
452.409	26001.69
452.615	25508.13
452.821	24613.17
453.027	24279.35
453.233	25626.92
453.44	24910.13
453.646	25051.44
453.852	25188.65
454.058	25463.08
454.264	25114.92
454.47	25635.11
454.676	24815.92
454.882	25444.65
455.088	23546.18
455.294	23798.08
455.5	24205.63
455.705	24344.89
455.911	23648.58
456.117	22878.54
456.323	22708.56
456.529	21535.07
456.735	22581.59
456.941	21625.18
457.147	21604.7
457.352	20752.75
457.558	20595.06
457.764	20629.87
457.97	20177.27
458.176	19872.12
458.381	19855.74
458.587	19351.94
458.793	18766.22
458.999	17979.8
459.204	19360.13
459.41	18614.67
459.616	17621.41
459.821	17766.81
460.027	17488.29
460.233	17346.98
460.438	16243.12
460.644	16499.12
460.85	15643.07
461.055	15501.76
461.261	15489.47
461.466	14072.28
461.672	13806.04
461.878	14490.06
462.083	13892.05
462.289	13619.67
462.494	13556.19
462.7	12939.75
462.905	12485.1
463.111	12952.04
463.316	13027.81
463.522	12726.76
463.727	12681.71
463.932	12663.27
464.138	12425.71
464.343	12497.39
464.549	12126.71
464.754	12554.73
464.959	12765.67
465.165	12331.5
465.37	11944.44
465.575	11540.99
465.781	12198.38
465.986	12122.61
466.191	11512.31
466.397	11411.96
466.602	10781.19
466.807	11299.33
467.012	11489.79
467.218	11207.17
467.423	11303.42
467.628	11110.91
467.833	11631.1
468.038	11248.13
468.244	11186.69
468.449	11282.94
468.654	10889.73
468.859	10746.37
469.064	10951.17
469.269	10449.42
469.474	10400.27
469.679	10566.15
469.885	10496.52
470.09	10596.87
470.295	10441.23
470.5	10052.11
470.705	10469.9
470.91	10027.54
471.115	10066.45
471.32	9947.67
471.525	10041.87
471.73	9738.77
471.935	9849.36
472.139	9443.87
472.344	9595.42
472.549	9787.93
472.754	9384.48
472.959	9071.14
473.164	8868.39
473.369	8870.44
473.574	9181.73
473.778	9333.28
473.983	9091.62
474.188	9134.62
474.393	8520.23
474.598	8776.23
474.802	8645.16
475.007	8489.51
475.212	8682.02
475.417	8297
475.621	8378.92
475.826	8391.21
476.031	7959.09
476.235	7987.76
476.44	8034.86
476.645	8165.93
476.849	7905.84
477.054	7832.12
477.259	7696.95
477.463	7660.09
477.668	7426.62
477.872	7793.2
478.077	7408.19
478.282	7266.88
478.486	7395.9
478.691	7225.92
478.895	7088.7
479.1	7303.74
479.304	7064.13
479.509	7029.31
479.713	6998.59
479.918	6998.59
480.122	6709.83
480.326	7066.17
480.531	6810.18
480.735	6834.75
480.94	6795.84
481.144	6898.24
481.348	6662.73
481.553	6681.16
481.757	6670.92
481.961	6609.48
482.166	6740.55
482.37	6554.18
482.574	6589
482.778	6597.19
482.983	6758.98
483.187	6687.3
483.391	6652.49
483.595	6629.96
483.8	6507.08
484.004	6466.12
484.208	6701.64
484.412	6638.15
484.616	6603.33
484.821	6507.08
485.025	6392.39
485.229	6562.37
485.433	6500.94
485.637	6482.5
485.841	6328.91
486.045	6593.09
486.249	6521.42
486.453	6548.04
486.657	6625.86
486.861	6687.3
487.065	6543.94
487.269	6548.04
487.473	6480.46
487.677	6589
487.881	6672.96
488.085	6363.72
488.289	6707.78
488.493	6466.12
488.697	6466.12
488.901	6580.81
489.105	6537.8
489.309	6625.86
489.512	6822.47
489.716	6660.68
489.92	6634.05
490.124	6742.6
490.328	6701.64
490.531	6689.35
490.735	6738.5
490.939	6693.44
491.143	6693.44
491.346	6959.68
491.55	6933.06
491.754	6920.77
491.958	7129.66
492.161	6933.06
492.365	7094.85
492.569	6799.94
492.772	6871.62
492.976	7068.22
493.18	7019.07
493.383	7121.47
493.587	7088.7
493.79	7127.61
493.994	7111.23
494.197	7344.7
494.401	7332.41
494.605	7305.79
494.808	7406.14
495.012	7537.21
495.215	7399.99
495.419	7670.33
495.622	7426.62
495.825	7629.37
496.029	7840.31
496.232	7914.03
496.436	7914.03
496.639	8045.1
496.843	8032.82
497.046	8084.02
497.249	8090.16
497.453	8176.17
497.656	8368.68
497.859	8430.12
498.063	8458.79
498.266	8528.42
498.469	8380.97
498.673	8491.56
498.876	8788.52
499.079	8892.96
499.282	8817.19
499.485	9157.15
499.689	9288.22
499.892	9224.73
500.095	9454.11
500.298	9282.08
500.501	9372.19
500.705	9818.64
500.908	9708.05
501.111	10013.2
501.314	9896.47
501.517	10105.36
501.72	10205.71
501.923	10340.88
502.126	10414.6
502.329	10639.88
502.532	10584.59
502.735	10637.83
502.938	10875.4
503.141	10885.64
503.344	11174.4
503.547	11002.37
503.75	11201.02
503.953	11452.92
504.156	11436.54
504.359	11604.47
504.562	11610.62
504.765	12141.04
504.968	12136.95
505.17	12102.13
505.373	12192.24
505.576	12683.75
505.779	12644.84
505.982	12886.5
506.185	13103.59
506.387	12859.88
506.59	13105.63
506.793	13373.92
506.996	13361.63
507.198	13623.77
507.401	13701.59
507.604	13691.35
507.807	13865.43
508.009	14250.45
508.212	14250.45
508.415	14381.52
508.617	14801.35
508.82	14762.44
509.022	14535.12
509.225	15069.64
509.428	15204.8
509.63	15270.34
509.833	15237.57
510.035	15813.05
510.238	15915.45
510.44	15677.88
510.643	16021.94
510.845	16292.27
511.048	16417.2
511.25	16431.54
511.453	16466.35
511.655	17158.56
511.858	17015.21
512.06	17324.45
512.262	17488.29
512.465	17586.59
512.667	17607.07
512.87	17979.8
513.072	17926.55
513.274	18147.73
513.477	18547.09
513.679	18358.67
513.881	18975.11
514.084	18817.42
514.286	19087.75
514.488	19444.1
514.69	19687.81
514.893	19612.03
515.095	19784.06
515.297	20083.06
515.499	20089.21
515.701	20392.31
515.904	20388.21
516.106	20834.67
516.308	20947.31
516.51	21084.52
516.712	21225.83
516.914	21758.3
517.116	21789.02
517.318	21989.72
517.52	22075.74
517.722	22092.12
517.925	22425.94
518.127	22925.64
518.329	23103.82
518.531	22835.53
518.733	23232.84
518.935	23619.91
519.136	23675.2
519.338	24072.51
519.54	23984.44
519.742	24269.11
519.944	24217.91
520.146	24627.51
520.348	24969.52
520.55	24926.51
520.752	25297.19
520.954	25440.55
521.155	25518.37
521.357	26048.8
521.559	26075.42
521.761	26419.48
521.963	25975.07
522.164	26540.31
522.366	26540.31
522.568	26867.98
522.77	27300.11
522.971	27601.16
523.173	27445.51
523.375	27736.32
523.576	27402.5
523.778	27552.01
523.98	28164.35
524.181	28057.85
524.383	28743.92
524.584	29055.22
524.786	28807.41
524.988	28735.73
525.189	28684.53
525.391	29362.41
525.592	29409.51
525.794	29577.45
525.995	29563.11
526.197	29440.23
526.398	30079.2
526.6	30286.04
526.801	30195.93
527.003	30277.85
527.204	30290.14
527.406	30689.49
527.607	30619.86
527.808	30863.57
528.01	30329.05
528.211	30820.56
528.412	31336.65
528.614	31094.99
528.815	31365.32
529.016	31412.43
529.218	31152.34
529.419	31430.86
529.62	31502.54
529.822	31580.36
530.023	31563.98
530.224	31631.56
530.425	31686.86
530.626	31391.95
530.828	31756.49
531.029	32438.46
531.23	31772.87
531.431	32153.79
531.632	32313.53
531.833	32282.81
532.035	32028.87
532.236	31940.8
532.437	32155.84
532.638	32159.94
532.839	32626.87
533.04	32577.72
533.241	32256.19
533.442	32852.15
533.643	32444.6
533.844	32422.08
534.045	33050.8
534.246	32172.22
534.447	32604.35
534.648	32731.32
534.849	32710.84
535.05	32630.97
535.251	32932.02
535.451	32778.42
535.652	32827.57
535.853	32659.64
536.054	32964.79
536.255	32714.94
536.456	32622.78
536.657	33165.49
536.857	32514.23
537.058	32784.57
537.259	32897.2
537.46	33181.87
537.66	32753.85
537.861	32868.53
538.062	32719.03
538.263	32917.68
538.463	32874.68
538.664	32649.4
538.865	33255.6
539.065	32876.72
539.266	32434.36
539.466	32932.02
539.667	32248
539.868	33122.48
540.068	32594.11
540.269	32407.74
540.469	32686.26
540.67	32178.37
540.87	32813.24
541.071	32483.51
541.271	32745.65
541.472	32800.95
541.672	32671.93
541.873	32305.34
542.073	32284.86
542.274	32909.49
542.474	32446.65
542.675	32735.42
542.875	33261.74
543.075	32915.64
543.276	32372.92
543.476	32919.73
543.676	32565.43
543.877	32379.07
544.077	32667.83
544.277	32682.17
544.478	32669.88
544.678	32452.8
544.878	32989.36
545.078	32547
545.279	32657.59
545.479	32581.82
545.679	32389.31
545.879	32880.82
546.079	32479.42
546.28	32309.44
546.48	32309.44
546.68	32514.23
546.88	32379.07
547.08	32477.37
547.28	32573.63
547.48	32370.88
547.68	32577.72
547.88	32225.47
548.081	32528.57
548.281	32663.74
548.481	32417.98
548.681	32450.75
548.881	32446.65
549.081	32768.18
549.28	32481.47
549.48	32553.15
549.68	32297.15
549.88	32526.52
550.08	32262.33
550.28	32428.22
550.48	32458.94
550.68	32256.19
550.88	32118.98
551.08	32311.49
551.279	32532.67
551.479	32282.81
551.679	32471.23
551.879	32342.21
552.079	32411.84
552.278	32032.96
552.478	32155.84
552.678	32118.98
552.878	32544.95
553.077	31654.09
553.277	31707.33
553.477	32323.77
553.676	32053.44
553.876	32123.07
554.076	32145.6
554.275	32006.34
554.475	31762.63
554.674	32049.35
554.874	31662.28
555.074	31523.02
555.273	31895.75
555.473	31955.14
555.672	31414.48
555.872	31445.19
556.071	31963.33
556.271	31942.85
556.47	31750.34
556.67	31344.84
556.869	31889.6
557.068	31949
557.268	31733.96
557.467	31576.26
557.667	31451.34
557.866	31557.83
558.065	31746.25
558.265	31051.98
558.464	31135.95
558.663	31451.34
558.863	31178.96
559.062	31637.7
559.261	31017.17
559.461	31381.71
559.66	30640.34
559.859	31254.73
560.058	30714.07
560.258	30953.68
560.457	30415.07
560.656	31049.94
560.855	30836.95
561.054	30648.53
561.253	30552.28
561.453	30808.28
561.652	30697.69
561.851	30681.3
562.05	30472.41
562.249	30111.97
562.448	30478.55
562.647	30503.13
562.846	30314.72
563.045	30523.61
563.244	29862.11
563.443	30417.11
563.642	29825.25
563.841	30243.04
564.04	29702.37
564.239	30220.51
564.438	29667.56
564.637	30040.29
564.836	29612.26
565.035	29622.5
565.234	29636.84
565.432	29337.83
565.631	29225.2
565.83	29561.06
566.029	29075.69
566.228	29071.6
566.427	29202.67
566.625	29241.58
566.824	28805.36
567.023	29040.88
567.222	28367.1
567.42	29341.93
567.619	28659.96
567.818	28516.6
568.016	28932.34
568.215	28616.95
568.414	28512.5
568.612	28705.01
568.811	28244.22
569.01	28707.06
569.208	28426.49
569.407	28215.55
569.605	27902.21
569.804	28346.62
570.002	27791.62
570.201	27877.63
570.4	27535.62
570.598	27779.33
570.797	27545.86
570.995	27578.63
571.193	27296.01
571.392	27701.51
571.59	27304.2
571.789	27339.02
571.987	27283.72
572.186	27064.59
572.384	27238.67
572.582	26992.91
572.781	27074.83
572.979	26513.69
573.177	26624.28
573.376	27089.17
573.574	26560.79
573.772	26689.81
573.971	26736.91
574.169	26611.99
574.367	26429.72
574.565	26337.56
574.763	26143
574.962	26286.36
575.16	26097.95
575.358	25977.12
575.556	25844
575.754	26188.06
575.952	25588
576.151	25876.77
576.349	25749.79
576.547	25588
576.745	25760.03
576.943	26048.8
577.141	25340.2
577.339	25299.24
577.537	25338.15
577.735	25274.66
577.933	25245.99
578.131	25295.14
578.329	25016.62
578.527	24942.89
578.725	24940.85
578.923	25186.6
579.121	24867.12
579.319	24883.5
579.516	24916.27
579.714	24785.2
579.912	24697.14
580.11	24287.54
580.308	24875.31
580.506	24062.27
580.704	23884.09
580.901	24299.83
581.099	24533.3
581.297	24129.85
581.495	23955.77
581.692	23984.44
581.89	23865.66
582.088	23707.97
582.285	23634.24
582.483	23621.95
582.681	23707.97
582.878	23603.52
583.076	23697.73
583.274	23392.58
583.471	23310.66
583.669	23163.21
583.866	23042.38
584.064	23173.45
584.262	23005.52
584.459	23191.88
584.657	22905.17
584.854	23030.09
585.052	22681.94
585.249	22901.07
585.447	22856.01
585.644	22673.74
585.841	22686.03
586.039	22651.22
586.236	22503.76
586.434	22239.58
586.631	22456.66
586.828	22634.83
587.026	22442.32
587.223	22272.34
587.42	22077.79
587.618	22380.89
587.815	21653.86
588.012	21737.82
588.21	21797.21
588.407	21903.71
588.604	21653.86
588.801	21770.59
588.999	21676.38
589.196	21596.51
589.393	21279.08
589.59	21371.24
589.787	21477.73
589.984	21086.57
590.182	21203.3
590.379	21297.51
590.576	21098.86
590.773	21303.65
590.97	20953.45
591.167	21176.68
591.364	20769.13
591.561	20959.59
591.758	20767.09
591.955	20343.16
592.152	20785.52
592.349	20683.12
592.546	20750.7
592.743	20681.07
592.94	20459.89
593.137	20541.81
593.334	20433.27
593.531	20380.02
593.727	20494.71
593.924	20353.4
594.121	20054.39
594.318	19949.95
594.515	19923.32
594.712	20302.2
594.908	19884.41
595.105	19747.2
595.302	19927.42
595.499	20087.16
595.696	19528.06
595.892	19806.59
596.089	19831.16
596.286	19591.55
596.482	19577.22
596.679	19192.2
596.876	19243.4
597.072	19120.52
597.269	19292.55
597.466	19063.18
597.662	18946.44
597.859	19083.66
598.055	19157.38
598.252	18893.19
598.448	18872.71
598.645	18665.87
598.841	18831.76
599.038	18684.3
599.234	18907.53
599.431	18243.99
599.627	18370.96
599.824	18682.25
600.02	18432.4
600.217	18549.14
600.413	18287
600.609	18313.62
600.806	17885.59
601.002	18213.27
601.198	18229.65
601.395	17705.37
601.591	17947.03
601.787	17856.92
601.984	17983.9
602.18	18180.5
602.376	17766.81
602.572	17611.17
602.769	17688.99
602.965	17404.32
603.161	17729.95
603.357	17346.98
603.553	17396.13
603.75	17455.52
603.946	17189.28
604.142	17441.18
604.338	17273.25
604.534	17263.01
604.73	16710.06
604.926	16992.68
605.122	17127.85
605.318	16951.72
605.514	17017.25
605.71	16828.84
605.906	17107.37
606.102	16849.32
606.298	16880.04
606.494	16540.08
606.69	16744.88
606.886	16726.44
607.082	16435.63
607.278	16554.41
607.474	16206.26
607.67	16734.64
607.866	16359.86
608.062	16468.4
608.257	16056.76
608.453	16091.57
608.649	16290.23
608.845	16042.42
609.041	16437.68
609.236	16302.51
609.432	16179.64
609.628	15880.63
609.824	16060.85
610.019	15727.03
610.215	16038.33
610.411	15886.78
610.606	15798.71
610.802	15913.4
610.998	15737.27
611.193	15700.41
611.389	15704.51
611.584	15645.12
611.78	15647.16
611.976	15892.92
612.171	15767.99
612.367	15411.65
612.562	15378.88
612.758	15325.63
612.953	15411.65
613.149	15548.86
613.344	15225.28
613.539	15489.47
613.735	15305.15
613.93	15282.63
614.126	15360.45
614.321	15442.37
614.517	15278.53
614.712	15169.99
614.907	15094.21
615.103	15274.43
615.298	15141.32
615.493	15116.74
615.688	14901.7
615.884	15284.67
616.079	14858.7
616.274	15108.55
616.47	14870.98
616.665	14793.16
616.86	14698.95
617.055	14686.67
617.25	14809.54
617.445	14787.02
617.641	14535.12
617.836	14655.95
618.031	14498.25
618.226	14326.22
618.421	14404.05
618.616	14424.53
618.811	14123.48
619.006	14645.71
619.201	13951.45
619.396	14246.35
619.591	14121.43
619.786	14211.54
619.981	13756.89
620.176	14004.69
620.371	13984.21
620.566	13961.69
620.761	14029.27
620.956	14016.98
621.151	13650.39
621.346	13726.17
621.541	13476.32
621.735	13670.87
621.93	13373.92
622.125	13466.08
622.32	13185.51
622.515	13470.17
622.709	13216.22
622.904	13107.68
623.099	13117.92
623.294	13093.35
623.488	12710.38
623.683	13060.58
623.878	12820.97
624.072	12726.76
624.267	12835.3
624.462	12679.66
624.656	12673.51
624.851	12653.03
625.046	12468.72
625.24	12347.89
625.435	12175.86
625.629	12270.06
625.824	12184.05
626.018	12253.68
626.213	11846.13
626.407	11987.44
626.602	11883
626.796	12190.19
626.991	12024.31
627.185	11770.36
627.38	11641.34
627.574	11764.22
627.768	11653.62
627.963	11457.02
628.157	11385.34
628.352	11526.65
628.546	11250.17
628.74	11522.55
628.935	11166.21
629.129	11196.93
629.323	10908.16
629.517	10803.72
629.712	11172.35
629.906	11194.88
630.1	10902.02
630.294	10899.97
630.489	10711.56
630.683	10822.15
630.877	10594.82
631.071	10582.54
631.265	10625.54
631.459	10494.47
631.653	10310.16
631.848	10473.99
632.042	10316.3
632.236	10318.35
632.43	10433.04
632.624	10416.65
632.818	10107.41
633.012	10238.48
633.206	10027.54
633.4	10045.97
633.594	9839.12
633.788	10000.91
633.982	9925.14
634.176	9962
634.369	9697.81
634.563	9839.12
634.757	9421.34
634.951	9517.59
635.145	9579.03
635.339	9384.48
635.533	9243.17
635.726	9505.31
635.92	9239.07
636.114	9196.06
636.308	9282.08
636.501	9194.01
636.695	8976.93
636.889	8985.12
637.083	9136.67
637.276	8964.64
637.47	9005.6
637.664	8974.88
637.857	8847.91
638.051	8655.4
638.244	8536.62
638.438	8575.53
638.632	8751.65
638.825	8585.77
639.019	8641.06
639.212	8528.42
639.406	8671.78
639.599	8458.79
639.793	8538.66
639.986	8104.49
640.18	8294.96
640.373	8194.61
640.567	8223.28
640.76	8086.06
640.954	8149.55
641.147	8061.49
641.34	8084.02
641.534	7936.56
641.727	7991.86
641.92	7842.35
642.114	7885.36
642.307	7918.13
642.5	7776.82
642.694	7651.89
642.887	7647.8
643.08	7803.44
643.273	7707.19
643.467	7561.78
643.66	7498.3
643.853	7496.25
644.046	7381.56
644.239	7428.67
644.432	7453.24
644.626	7217.72
644.819	7207.48
645.012	7215.68
645.205	7293.5
645.398	7150.14
645.591	7223.87
645.784	7139.9
645.977	7154.24
646.17	7019.07
646.363	7060.03
646.556	6912.58
646.749	7041.6
646.942	7004.74
647.135	6844.99
647.328	6867.52
647.521	6861.38
647.714	6660.68
647.907	6683.2
648.099	6582.85
648.292	6560.33
648.485	6607.43
648.678	6478.41
648.871	6476.36
649.064	6627.91
649.256	6675.01
649.449	6416.97
649.642	6402.63
649.835	6333
650.027	6333
650.22	6343.24
650.413	6150.73
650.605	6236.75
650.798	6095.44
650.991	6038.09
651.183	6101.58
651.376	6103.63
651.568	6216.27
651.761	5990.99
651.954	6068.81
652.146	6027.85
652.339	5870.16
652.531	5855.83
652.724	5866.07
652.916	5614.16
653.109	6011.47
653.301	5640.79
653.494	5911.12
653.686	5603.93
653.879	5630.55
654.071	5616.21
654.263	5716.56
654.456	5667.41
654.648	5620.31
654.84	5507.67
655.033	5474.9
655.225	5528.15
655.417	5444.18
655.61	5489.24
655.802	5288.54
655.994	5378.65
656.186	5395.03
656.379	5313.11
656.571	5157.47
656.763	5177.95
656.955	5247.58
657.148	5190.24
657.34	5159.52
657.532	5161.56
657.724	5134.94
657.916	5272.15
658.108	5085.79
658.3	5106.27
658.492	4962.91
658.684	5096.03
658.876	5016.16
659.068	4962.91
659.26	4786.79
659.452	4932.19
659.644	4864.61
659.836	4917.86
660.028	4784.74
660.22	4708.96
660.412	4846.18
660.604	4819.55
660.796	4866.66
660.988	4674.15
661.18	4590.18
661.372	4625
661.563	4606.56
661.755	4586.08
661.947	4588.13
662.139	4565.6
662.331	4518.5
662.522	4414.06
662.714	4471.4
662.906	4424.3
663.097	4469.35
663.289	4309.61
663.481	4395.62
663.673	4553.32
663.864	4213.35
664.056	4184.68
664.247	4299.37
664.439	4395.62
664.631	4217.45
664.822	4399.72
665.014	4162.16
665.205	4174.44
665.397	4158.06
665.588	4297.32
665.78	4270.7
665.971	4147.82
666.163	4151.92
666.354	4149.87
666.546	4115.05
666.737	4014.7
666.929	4053.61
667.12	4090.48
667.311	4037.23
667.503	4022.89
667.694	3945.07
667.885	3900.02
668.077	3998.32
668.268	3998.32
668.459	3867.25
668.651	3871.34
668.842	3893.87
669.033	3869.3
669.224	3826.29
669.416	3850.86
669.607	3840.62
669.798	3756.66
669.989	3760.75
670.18	3885.68
670.371	3672.69
670.563	3848.82
670.754	3641.97
670.945	3613.3
671.136	3742.32
671.327	3662.45
671.518	3652.21
671.709	3730.03
671.9	3660.4
672.091	3660.4
672.282	3750.51
672.473	3523.19
672.664	3584.63
672.855	3629.68
673.046	3601.01
673.237	3492.47
673.428	3627.64
673.619	3531.38
673.809	3578.48
674	3474.04
674.191	3572.34
674.382	3238.52
674.573	3549.81
674.764	3474.04
674.954	3486.33
675.145	3496.57
675.336	3424.89
675.527	3414.65
675.717	3396.21
675.908	3320.44
676.099	3381.88
676.289	3332.73
676.48	3390.07
676.671	3443.32
676.861	3345.02
677.052	3287.67
677.243	3326.58
677.433	3326.58
677.624	3449.46
677.814	3306.1
678.005	3316.34
678.195	3398.26
678.386	3439.22
678.576	3172.99
678.767	3177.08
678.957	3234.43
679.148	3248.76
679.338	3326.58
679.529	3218.04
679.719	3207.8
679.909	3183.23
680.1	3246.71
680.29	3226.23
680.481	3183.23
680.671	3170.94
680.861	3310.2
681.052	3218.04
681.242	3154.55
681.432	3254.9
681.622	3099.26
681.813	3166.84
682.003	3125.88
682.193	3150.46
682.383	3195.51
682.573	3177.08
682.764	3144.31
682.954	3162.75
683.144	3119.74
683.334	3056.25
683.524	3029.63
683.714	3068.54
683.904	2884.22
684.094	3252.86
684.284	3050.11
684.474	3068.54
684.664	3093.12
684.854	3154.55
685.044	2912.89
685.234	3023.48
685.424	3043.96
685.614	3078.78
685.804	2996.86
685.994	2951.81
686.184	2919.04
686.374	3029.63
686.564	3035.77
686.753	2974.33
686.943	2921.09
687.133	3019.39
687.323	3046.01
687.513	2998.91
687.702	2898.56
687.892	2894.46
688.082	2998.91
688.272	2916.99
688.461	2890.37
688.651	2884.22
688.841	2878.08
689.03	2833.02
689.22	2839.17
689.41	2882.17
689.599	2783.87
689.789	2722.43
689.979	2914.94
690.168	2765.44
690.358	2658.95
690.547	2726.53
690.737	2833.02
690.926	2755.2
691.116	2710.15
691.305	2800.26
691.495	2855.55
691.684	2622.08
691.874	2742.91
692.063	2779.78
692.252	2771.58
692.442	2638.47
692.631	2601.6
692.82	2630.27
693.01	2671.23
693.199	2632.32
693.388	2644.61
693.578	2597.51
693.767	2579.08
693.956	2554.5
694.146	2603.65
694.335	2622.08
694.524	2491.01
694.713	2482.82
694.902	2448.01
695.092	2593.41
695.281	2509.44
695.47	2570.88
695.659	2435.72
695.848	2388.61
696.037	2482.82
696.226	2450.05
696.415	2464.39
696.604	2423.43
696.793	2423.43
696.982	2364.04
697.171	2392.71
697.36	2384.52
697.549	2431.62
697.738	2431.62
697.927	2400.9
698.116	2482.82
698.305	2411.14
698.494	2392.71
698.683	2292.36
698.872	2433.67
699.061	2357.89
699.25	2413.19
699.438	2355.85
699.627	2292.36
699.816	2415.24
700.005	2370.18
700.193	2343.56
700.382	2366.09
700.571	2413.19
700.76	2359.94
700.948	2396.81
701.137	2343.56
701.326	2448.01
701.514	2400.9
701.703	2239.11
701.892	2321.03
702.08	2370.18
702.269	2308.74
702.457	2243.21
702.646	2409.09
702.834	2374.28
703.023	2235.02
703.212	2368.13
703.4	2400.9
703.589	2226.82
703.777	2417.29
703.965	2398.85
704.154	2323.08
704.342	2329.22
704.531	2304.65
704.719	2171.53
704.907	2298.5
705.096	2267.78
705.284	2302.6
705.472	2361.99
705.661	2302.6
705.849	2333.32
706.037	2288.26
706.226	2251.4
706.414	2409.09
706.602	2314.89
706.79	2386.57
706.979	2177.67
707.167	2284.17
707.355	2292.36
707.543	2325.13
707.731	2372.23
707.919	2294.41
708.107	2343.56
708.296	2308.74
708.484	2263.69
708.672	2304.65
708.86	2312.84
709.048	2388.61
709.236	2337.41
709.424	2140.81
709.612	2343.56
709.8	2300.55
709.988	2226.82
710.176	2196.11
710.364	2278.02
710.551	2212.49
710.739	2284.17
710.927	2278.02
711.115	2292.36
711.303	2265.74
711.491	2357.89
711.679	2280.07
711.866	2380.42
712.054	2214.54
712.242	2241.16
712.43	2304.65
712.617	2333.32
712.805	2224.78
712.993	2306.7
713.181	2245.26
713.368	2304.65
713.556	2280.07
713.744	2157.19
713.931	2343.56
714.119	2165.39
714.306	2355.85
714.494	2288.26
714.682	2218.63
714.869	2306.7
715.057	2390.66
715.244	2251.4
715.432	2198.15
715.619	2196.11
715.807	2239.11
715.994	2314.89
716.182	2273.93
716.369	2407.05
716.556	2343.56
716.744	2218.63
716.931	2351.75
717.119	2220.68
717.306	2259.59
717.493	2284.17
717.681	2220.68
717.868	2273.93
718.055	2300.55
718.242	2204.3
718.43	2237.06
718.617	2218.63
718.804	2261.64
718.991	2357.89
719.179	2335.37
719.366	2325.13
719.553	2341.51
719.74	2271.88
719.927	2382.47
720.114	2298.5
720.301	2341.51
720.488	2177.67
720.676	2271.88
720.863	2405
721.05	2355.85
721.237	2267.78
721.424	2337.41
721.611	2316.94
721.798	2257.54
721.985	2349.7
722.172	2157.19
722.358	2314.89
722.545	2308.74
722.732	2263.69
722.919	2341.51
723.106	2073.23
723.293	2304.65
723.48	2179.72
723.667	2329.22
723.853	2308.74
724.04	2321.03
724.227	2280.07
724.414	2216.58
724.6	2353.8
724.787	2378.37
724.974	2384.52
725.161	2316.94
725.347	2239.11
725.534	2267.78
725.72	2208.39
725.907	2284.17
726.094	2286.22
726.28	2235.02
726.467	2177.67
726.653	2343.56
726.84	2189.96
727.027	2347.65
727.213	2337.41
727.4	2355.85
727.586	2331.27
727.773	2284.17
727.959	2304.65
728.145	2323.08
728.332	2189.96
728.518	2357.89
728.705	2259.59
728.891	2310.79
729.077	2226.82
729.264	2288.26
729.45	2206.34
729.636	2284.17
729.823	2359.94
730.009	2294.41
730.195	2386.57
730.382	2325.13
730.568	2368.13
730.754	2259.59
730.94	2216.58
731.126	2417.29
731.313	2341.51
731.499	2349.7
731.685	2292.36
731.871	2257.54
732.057	2267.78
732.243	2288.26
732.429	2314.89
732.615	2419.33
732.801	2122.38
732.987	2218.63
733.173	2140.81
733.359	2308.74
733.545	2278.02
733.731	2304.65
733.917	2380.42
734.103	2302.6
734.289	2284.17
734.475	2230.92
734.661	2343.56
734.847	2189.96
735.033	2275.98
735.219	2284.17
735.404	2146.95
735.59	2183.82
735.776	2290.31
735.962	2282.12
736.148	2235.02
736.333	2218.63
736.519	2202.25
736.705	2232.97
736.89	2235.02
737.076	2169.48
737.262	2179.72
737.447	2202.25
737.633	2110.09
737.819	2173.58
738.004	2120.33
738.19	2124.43
738.375	2212.49
738.561	2263.69
738.747	2189.96
738.932	2206.34
739.118	2271.88
739.303	2153.1
739.489	2212.49
739.674	2144.91
739.859	2351.75
740.045	2194.06
740.23	2216.58
740.416	2163.34
740.601	2235.02
740.786	2232.97
740.972	2169.48
741.157	2140.81
741.342	2124.43
741.528	2120.33
741.713	2103.95
741.898	2146.95
742.084	2017.93
742.269	1991.31
742.454	2138.76
742.639	2095.75
742.824	2159.24
743.01	2079.37
743.195	2042.51
743.38	2026.12
743.565	2103.95
743.75	2116.23
743.935	2038.41
744.12	2026.12
744.305	2001.55
744.49	1952.4
744.675	1948.3
744.86	2030.22
745.045	1950.35
745.23	1925.77
745.415	1997.45
745.6	1970.83
745.785	1911.44
745.97	1874.57
746.155	1886.86
746.34	1976.97
746.525	1804.94
746.71	1981.07
746.895	1802.9
747.079	1907.34
747.264	1907.34
747.449	1768.08
747.634	1897.1
747.819	1850
748.003	1768.08
748.188	1837.71
748.373	1788.56
748.557	1768.08
748.742	1731.22
748.927	1823.37
749.111	1768.08
749.296	1776.27
749.481	1850
749.665	1800.85
749.85	1806.99
750.034	1749.65
750.219	1710.74
750.404	1596.05
750.588	1675.92
750.773	1645.2
750.957	1637.01
751.141	1637.01
751.326	1587.86
751.51	1571.47
751.695	1540.76
751.879	1667.73
752.064	1604.24
752.248	1663.63
752.432	1612.43
752.617	1581.71
752.801	1563.28
752.985	1579.67
753.17	1532.56
753.354	1538.71
753.538	1567.38
753.722	1464.98
753.907	1491.6
754.091	1512.08
754.275	1424.02
754.459	1491.6
754.643	1329.81
754.828	1526.42
755.012	1413.78
755.196	1411.73
755.38	1417.88
755.564	1346.2
755.748	1327.77
755.932	1475.22
756.116	1292.95
756.3	1383.06
756.484	1378.97
756.668	1321.62
756.852	1311.38
757.036	1329.81
757.22	1309.33
757.404	1321.62
757.588	1335.96
757.772	1268.38
757.956	1321.62
758.14	1174.17
758.323	1186.46
758.507	1268.38
758.691	1256.09
758.875	1254.04
759.059	1256.09
759.242	1133.21
759.426	1143.45
759.61	1227.42
759.794	1172.12
759.977	1219.22
760.161	1186.46
760.345	1325.72
760.528	1235.61
760.712	1194.65
760.895	1120.92
761.079	1157.78
761.263	1096.35
761.446	1145.5
761.63	1102.49
761.813	1200.79
761.997	1016.48
762.18	1096.35
762.364	1120.92
762.547	1028.76
762.731	1079.96
762.914	1073.82
763.098	1073.82
763.281	1131.16
763.464	1133.21
763.648	1077.91
763.831	1063.58
764.015	1084.06
764.198	1036.95
764.381	977.56
764.564	1043.1
764.748	1041.05
764.931	1084.06
765.114	1032.86
765.297	1039
765.481	959.13
765.664	918.17
765.847	987.8
766.03	975.52
766.213	952.99
766.397	967.32
766.58	1022.62
766.763	918.17
766.946	922.27
767.129	961.18
767.312	924.32
767.495	1024.67
767.678	983.71
767.861	942.75
768.044	965.28
768.227	922.27
768.41	881.31
768.593	965.28
768.776	963.23
768.959	924.32
769.142	1034.91
769.324	877.21
769.507	801.44
769.69	973.47
769.873	903.84
770.056	928.41
770.239	887.45
770.421	969.37
770.604	885.41
770.787	903.84
770.97	899.74
771.152	752.29
771.335	907.93
771.518	866.97
771.7	860.83
771.883	907.93
772.066	826.01
772.248	862.88
772.431	795.29
772.613	791.2
772.796	877.21
772.978	735.9
773.161	838.3
773.343	791.2
773.526	811.68
773.708	701.09
773.891	750.24
774.073	819.87
774.256	785.05
774.438	850.59
774.621	776.86
774.803	797.34
774.985	705.18
775.168	764.57
775.35	729.76
775.532	780.96
775.715	723.62
775.897	729.76
776.079	715.42
776.261	682.66
776.444	725.66
776.626	809.63
776.808	664.22
776.99	686.75
777.173	703.14
777.355	570.02
777.537	690.85
777.719	717.47
777.901	686.75
778.083	645.79
778.265	692.9
778.447	600.74
778.629	666.27
778.811	721.57
778.993	672.42
779.175	711.33
779.357	555.68
779.539	588.45
779.721	533.15
779.903	744.1
780.085	549.54
780.267	549.54
780.449	633.51
780.631	651.94
780.812	629.41
780.994	549.54
781.176	604.83
781.358	586.4
781.54	504.48
781.721	600.74
781.903	567.97
782.085	524.96
782.267	565.92
782.448	547.49
782.63	545.44
782.812	572.07
782.993	537.25
783.175	541.35
783.357	461.48
783.538	551.59
783.72	561.83
783.901	533.15
784.083	490.15
784.264	420.52
784.446	426.66
784.627	447.14
784.809	457.38
784.99	465.57
785.172	408.23
785.353	518.82
785.535	420.52
785.716	402.08
785.897	393.89
786.079	565.92
786.26	416.42
786.441	402.08
786.623	426.66
786.804	406.18
786.985	436.9
787.167	473.76
787.348	400.04
787.529	387.75
787.71	449.19
787.891	424.61
788.073	391.84
788.254	352.93
788.435	418.47
788.616	414.37
788.797	357.03
788.978	414.37
789.159	314.02
789.34	338.6
789.522	350.89
789.703	322.21
789.884	377.51
790.065	498.34
790.246	375.46
790.427	314.02
790.607	426.66
790.788	414.37
790.969	326.31
791.15	332.45
791.331	375.46
791.512	332.45
791.693	352.93
791.874	352.93
792.054	342.69
792.235	328.36
792.416	314.02
792.597	342.69
792.778	338.6
792.958	318.12
793.139	258.73
793.32	359.08
793.5	230.06
793.681	287.4
793.862	336.55
794.042	311.97
794.223	250.53
794.404	297.64
794.584	262.82
794.765	307.88
794.945	277.16
795.126	303.78
795.306	344.74
795.487	260.77
795.667	332.45
795.848	244.39
796.028	289.45
796.209	279.21
796.389	287.4
796.57	279.21
796.75	221.86
796.93	268.97
797.111	264.87
797.291	297.64
797.471	301.73
797.652	248.49
797.832	273.06
798.012	252.58
798.192	236.2
798.373	236.2
798.553	301.73
798.733	309.93
798.913	287.4
799.093	299.69
799.274	232.1
799.454	244.39
799.634	299.69
799.814	281.25
799.994	248.49
800.174	260.77
800.354	223.91
800.534	211.62
800.714	197.29
800.894	232.1
801.074	273.06
801.254	225.96
801.434	258.73
801.614	180.9
801.794	225.96
801.974	844.45
802.154	250.53
802.334	238.25
802.514	297.64
802.693	225.96
802.873	178.86
803.053	311.97
803.233	254.63
803.413	260.77
803.592	178.86
803.772	160.42
803.952	156.33
804.131	170.66
804.311	215.72
804.491	172.71
804.67	232.1
804.85	172.71
805.03	187.05
805.209	230.06
805.389	254.63
805.568	172.71
805.748	219.82
805.928	221.86
806.107	172.71
806.287	248.49
806.466	203.43
806.646	256.68
806.825	154.28
807.004	164.52
807.184	125.61
807.363	180.9
807.543	277.16
807.722	164.52
807.901	162.47
808.081	162.47
808.26	162.47
808.439	203.43
808.619	187.05
808.798	111.27
808.977	201.38
809.156	252.58
809.336	144.04
809.515	223.91
809.694	262.82
809.873	125.61
810.052	223.91
810.231	244.39
810.411	191.14
810.59	211.62
810.769	137.9
810.948	197.29
811.127	156.33
811.306	180.9
811.485	178.86
811.664	154.28
811.843	164.52
812.022	78.51
812.201	158.38
812.38	121.51
812.559	133.8
812.737	193.19
812.916	189.1
813.095	164.52
813.274	197.29
813.453	154.28
813.632	174.76
813.811	244.39
813.989	146.09
814.168	193.19
814.347	113.32
814.526	109.22
814.704	125.61
814.883	178.86
815.062	107.18
815.24	199.34
815.419	129.7
815.598	199.34
815.776	72.36
815.955	164.52
816.133	96.94
816.312	129.7
816.49	137.9
816.669	131.75
816.847	137.9
817.026	146.09
817.204	125.61
817.383	109.22
817.561	125.61
817.74	127.66
817.918	137.9
818.097	129.7
818.275	90.79
818.453	185
818.632	105.13
818.81	158.38
818.988	109.22
819.167	103.08
819.345	109.22
819.523	58.03
819.701	33.45
819.879	84.65
820.058	131.75
820.236	113.32
820.414	105.13
820.592	92.84
820.77	131.75
820.948	82.6
821.127	74.41
821.305	207.53
821.483	80.55
821.661	158.38
821.839	137.9
822.017	53.93
822.195	90.79
822.373	148.14
822.551	62.12
822.729	125.61
822.907	101.03
823.085	131.75
823.262	111.27
823.44	133.8
823.618	172.71
823.796	105.13
823.974	129.7
824.152	78.51
824.329	33.45
824.507	146.09
824.685	70.31
824.863	72.36
825.04	101.03
825.218	115.37
825.396	115.37
825.574	146.09
825.751	133.8
825.929	111.27
826.107	137.9
826.284	144.04
826.462	121.51
826.639	10.92
826.817	15.02
826.994	90.79
827.172	35.5
827.349	113.32
827.527	84.65
827.704	107.18
827.882	66.22
828.059	98.99
828.237	80.55
828.414	60.07
828.591	117.42
828.769	15.02
828.946	76.46
829.124	121.51
829.301	58.03
829.478	109.22
829.655	68.27
829.833	33.45
830.01	68.27
830.187	105.13
830.364	101.03
830.542	58.03
830.719	80.55
830.896	84.65
831.073	78.51
831.25	90.79
831.427	72.36
831.604	96.94
831.782	31.4
831.959	47.79
832.136	76.46
832.313	74.41
832.49	55.98
832.667	55.98
832.844	64.17
833.021	107.18
833.198	21.16
833.374	90.79
833.551	55.98
833.728	72.36
833.905	-5.46
834.082	4.78
834.259	123.56
834.436	82.6
834.612	41.64
834.789	115.37
834.966	25.26
835.143	80.55
835.319	60.07
835.496	133.8
835.673	-38.23
835.85	17.07
836.026	55.98
836.203	78.51
836.38	96.94
836.556	-30.04
836.733	17.07
836.909	55.98
837.086	101.03
837.262	10.92
837.439	6.83
837.616	55.98
837.792	45.74
837.968	49.83
838.145	17.07
838.321	-23.89
838.498	60.07
838.674	2.73
838.851	39.59
839.027	64.17
839.203	58.03
839.38	103.08
839.556	82.6
839.732	37.55
839.909	-17.75
840.085	96.94
840.261	47.79
840.437	96.94
840.614	-11.61
840.79	70.31
840.966	33.45
841.142	19.11
841.318	39.59
841.494	0.68
841.671	53.93
841.847	-38.23
842.023	25.26
842.199	45.74
842.375	101.03
842.551	37.55
842.727	43.69
842.903	84.65
843.079	10.92
843.255	41.64
843.431	15.02
843.607	55.98
843.783	17.07
843.959	17.07
844.134	39.59
844.31	96.94
844.486	39.59
844.662	41.64
844.838	49.83
845.013	53.93
845.189	58.03
845.365	84.65
845.541	6.83
845.716	27.31
845.892	66.22
846.068	10.92
846.244	60.07
846.419	80.55
846.595	37.55
846.77	19.11
846.946	-1.37
847.122	31.4
847.297	47.79
847.473	94.89
847.648	23.21
847.824	88.75
847.999	39.59
848.175	-9.56
848.35	35.5
848.526	-25.94
848.701	12.97
848.876	37.55
849.052	-58.71
849.227	33.45
849.403	21.16
849.578	0.68
849.753	-42.32
849.929	-9.56
850.104	-5.46
850.279	37.55
850.454	4.78
850.63	101.03
850.805	53.93
850.98	-25.94
851.155	6.83
851.33	45.74
851.505	31.4
851.681	0.68
851.856	-30.04
852.031	68.27
852.206	119.46
852.381	47.79
852.556	-5.46
852.731	47.79
852.906	23.21
853.081	101.03
853.256	-13.65
853.431	43.69
853.606	25.26
853.781	12.97
853.956	6.83
854.131	64.17
854.305	43.69
854.48	33.45
854.655	-17.75
854.83	49.83
855.005	4.78
855.18	-9.56
855.354	113.32
855.529	84.65
855.704	-40.28
855.879	-9.56
856.053	6.83
856.228	64.17
856.403	17.07
856.577	-15.7
856.752	-3.41
856.926	19.11
857.101	53.93
857.276	-9.56
857.45	80.55
857.625	129.7
857.799	49.83
857.974	0.68
858.148	-9.56
858.323	15.02
858.497	-54.61
858.672	0.68
858.846	-60.76
859.02	49.83
859.195	0.68
859.369	21.16
859.543	10.92
859.718	88.75
859.892	-23.89
860.066	72.36
860.241	39.59
860.415	60.07
860.589	21.16
860.763	35.5
860.938	49.83
861.112	-1.37
861.286	-9.56
861.46	29.35
861.634	-13.65
861.808	19.11
861.982	-11.61
862.157	-17.75
862.331	-21.85
862.505	8.87
862.679	-62.8
862.853	49.83
863.027	-21.85
863.201	60.07
863.375	-15.7
863.549	35.5
863.722	80.55
863.896	41.64
864.07	37.55
864.244	-1.37
864.418	96.94
864.592	58.03
864.766	49.83
864.939	41.64
865.113	-17.75
865.287	51.88
865.461	17.07
865.634	41.64
865.808	23.21
865.982	19.11
866.156	25.26
866.329	41.64
866.503	-42.32
866.676	47.79
866.85	47.79
867.024	55.98
867.197	2.73
867.371	6.83
867.544	31.4
867.718	-15.7
867.891	31.4
868.065	35.5
868.238	17.07
868.412	25.26
868.585	25.26
868.759	-19.8
868.932	-1.37
869.105	-1.37
869.279	0.68
869.452	-21.85
869.625	55.98
869.799	-27.99
869.972	-38.23
870.145	-7.51
870.319	45.74
870.492	82.6
870.665	-50.52
870.838	29.35
871.011	-25.94
871.185	6.83
871.358	80.55
871.531	0.68
871.704	31.4
871.877	-48.47
872.05	-23.89
872.223	-9.56
872.396	21.16
872.569	17.07
872.742	43.69
872.915	35.5
873.088	68.27
873.261	-38.23
873.434	25.26
873.607	-11.61
873.78	31.4
873.953	-48.47
874.126	-3.41
874.299	-58.71
874.471	-13.65
874.644	82.6
874.817	27.31
874.99	15.02
875.163	25.26
875.335	47.79
875.508	8.87
875.681	37.55
875.853	-19.8
876.026	39.59
876.199	17.07
876.371	62.12
876.544	17.07
876.717	10.92
876.889	25.26
877.062	-1.37
877.234	29.35
877.407	6.83
877.579	-3.41
877.752	49.83
877.924	19.11
878.097	23.21
878.269	-75.09
878.442	15.02
878.614	-5.46
878.786	33.45
878.959	45.74
879.131	33.45
879.303	10.92
879.476	-32.08
879.648	21.16
879.82	-11.61
879.993	2.73
880.165	19.11
880.337	-56.66
880.509	-32.08
880.681	-17.75
880.854	-23.89
881.026	60.07
881.198	92.84
881.37	17.07
881.542	-1.37
881.714	55.98
881.886	82.6
882.058	-38.23
882.23	8.87
882.402	49.83
882.574	-7.51
882.746	-32.08
882.918	12.97
883.09	55.98
883.262	23.21
883.434	2.73
883.606	-144.72
883.778	78.51
883.95	47.79
884.122	-13.65
884.293	0.68
884.465	-13.65
884.637	2.73
884.809	-77.14
884.98	25.26
885.152	37.55
885.324	10.92
885.496	-5.46
885.667	-23.89
885.839	39.59
886.011	49.83
886.182	-32.08
886.354	-9.56
886.525	47.79
886.697	-21.85
886.869	6.83
887.04	0.68
887.212	8.87
887.383	15.02
887.555	15.02
887.726	-42.32
887.897	-36.18
888.069	-64.85
888.24	17.07
888.412	33.45
888.583	-11.61
888.754	-9.56
888.926	-60.76
889.097	39.59
889.268	-13.65
889.44	60.07
889.611	10.92
889.782	-21.85
889.953	-25.94
890.125	-21.85
890.296	-58.71
890.467	10.92
890.638	4.78
890.809	-19.8
890.98	-25.94
891.151	-58.71
891.323	-34.13
891.494	-30.04
891.665	-30.04
891.836	-42.32
892.007	-5.46
892.178	-5.46
892.349	19.11
892.52	2.73
892.691	-32.08
892.862	-93.52
893.032	-30.04
893.203	43.69
893.374	17.07
893.545	23.21
893.716	-30.04
893.887	-23.89
894.057	2.73
894.228	-7.51
894.399	-3.41
894.57	25.26
894.74	39.59
894.911	-40.28
895.082	0.68
895.253	23.21
895.423	31.4
895.594	6.83
895.764	-27.99
895.935	25.26
896.106	2.73
896.276	45.74
896.447	4.78
896.617	35.5
896.788	-7.51
896.958	-1.37
897.129	-34.13
897.299	23.21
897.47	19.11
897.64	45.74
897.81	-25.94
897.981	33.45
898.151	-46.42
898.322	17.07
898.492	-48.47
898.662	4.78
898.832	-19.8
899.003	-11.61
899.173	23.21
899.343	-50.52
899.513	33.45
