Data from USB4F104151__40__13-11-08-062.txt Node

Date: Fri Mar 14 13:11:08 EDT 2025
User: louis
Spectrometer: USB4F10415
Trigger mode: 4
Integration Time (sec): 2.000000E-2
Scans to average: 1
Electric dark correction enabled: true
Nonlinearity correction enabled: false
Boxcar width: 0
XAxis mode: Wavelengths
Number of Pixels in Spectrum: 3648
>>>>>Begin Spectral Data<<<<<
178.204	-176.81
178.424	-176.81
178.644	-176.81
178.864	-88.75
179.084	-86.7
179.304	40.28
179.524	3.41
179.744	7.51
179.964	32.08
180.184	-0.68
180.404	-74.41
180.624	-10.92
180.844	36.18
181.064	-31.4
181.283	-15.02
181.503	-35.5
181.723	48.47
181.943	-66.22
182.163	15.7
182.383	9.56
182.602	-21.16
182.822	-10.92
183.042	48.47
183.262	-84.65
183.482	15.7
183.701	38.23
183.921	-6.83
184.141	-60.07
184.361	11.61
184.58	-37.55
184.8	30.04
185.02	-33.45
185.239	13.65
185.459	-49.83
185.679	1.37
185.898	-0.68
186.118	-43.69
186.338	34.13
186.557	87.38
186.777	-86.7
186.997	58.71
187.216	-25.26
187.436	5.46
187.655	23.89
187.875	30.04
188.095	-25.26
188.314	93.52
188.534	73.04
188.753	-43.69
188.973	32.08
189.192	15.7
189.412	38.23
189.631	75.09
189.851	-17.07
190.07	17.75
190.29	3.41
190.509	-53.93
190.729	-37.55
190.948	44.37
191.168	126.29
191.387	-0.68
191.607	-37.55
191.826	5.46
192.045	-19.11
192.265	1.37
192.484	7.51
192.704	-68.27
192.923	-29.35
193.142	175.44
193.362	-41.64
193.581	85.33
193.8	54.61
194.02	83.28
194.239	-35.5
194.458	46.42
194.678	-45.74
194.897	-10.92
195.116	-66.22
195.335	-53.93
195.555	-21.16
195.774	-27.31
195.993	11.61
196.212	15.7
196.432	-31.4
196.651	-12.97
196.87	23.89
197.089	11.61
197.308	3.41
197.528	68.95
197.747	48.47
197.966	-53.93
198.185	-23.21
198.404	-10.92
198.623	-25.26
198.842	60.76
199.062	-10.92
199.281	9.56
199.5	79.19
199.719	-19.11
199.938	-47.79
200.157	44.37
200.376	-17.07
200.595	7.51
200.814	23.89
201.033	-51.88
201.252	-12.97
201.471	64.85
201.69	5.46
201.909	13.65
202.128	-49.83
202.347	15.7
202.566	-21.16
202.785	64.85
203.004	-58.03
203.223	-8.87
203.442	9.56
203.661	-45.74
203.879	52.56
204.098	3.41
204.317	-6.83
204.536	-29.35
204.755	36.18
204.974	9.56
205.193	-4.78
205.411	36.18
205.63	23.89
205.849	21.85
206.068	-6.83
206.287	9.56
206.505	-17.07
206.724	-33.45
206.943	32.08
207.162	-31.4
207.381	-10.92
207.599	-29.35
207.818	-19.11
208.037	-0.68
208.255	1.37
208.474	17.75
208.693	109.91
208.911	38.23
209.13	-45.74
209.349	-35.5
209.567	-8.87
209.786	-4.78
210.005	52.56
210.223	13.65
210.442	-37.55
210.661	-31.4
210.879	-17.07
211.098	-29.35
211.316	30.04
211.535	44.37
211.753	50.52
211.972	-8.87
212.191	5.46
212.409	21.85
212.628	-0.68
212.846	-23.21
213.065	-8.87
213.283	7.51
213.502	-35.5
213.72	56.66
213.938	40.28
214.157	-39.59
214.375	44.37
214.594	71
214.812	17.75
215.031	32.08
215.249	15.7
215.467	32.08
215.686	-10.92
215.904	-8.87
216.122	-2.73
216.341	-37.55
216.559	54.61
216.778	15.7
216.996	79.19
217.214	-0.68
217.432	-25.26
217.651	44.37
217.869	-84.65
218.087	21.85
218.306	32.08
218.524	27.99
218.742	-74.41
218.96	77.14
219.179	-25.26
219.397	-35.5
219.615	21.85
219.833	-49.83
220.051	-74.41
220.27	77.14
220.488	25.94
220.706	-115.37
220.924	-29.35
221.142	11.61
221.36	32.08
221.578	-29.35
221.796	-33.45
222.015	-37.55
222.233	-17.07
222.451	-4.78
222.669	-35.5
222.887	13.65
223.105	-62.12
223.323	-27.31
223.541	-82.6
223.759	-43.69
223.977	-27.31
224.195	-45.74
224.413	21.85
224.631	21.85
224.849	52.56
225.067	54.61
225.285	-45.74
225.503	-0.68
225.721	-58.03
225.939	54.61
226.157	19.8
226.375	11.61
226.592	-29.35
226.81	-15.02
227.028	-64.17
227.246	23.89
227.464	87.38
227.682	87.38
227.9	-27.31
228.117	21.85
228.335	38.23
228.553	-41.64
228.771	-58.03
228.989	-29.35
229.206	-15.02
229.424	-21.16
229.642	-43.69
229.86	36.18
230.077	-4.78
230.295	15.7
230.513	-35.5
230.731	36.18
230.948	17.75
231.166	73.04
231.384	-0.68
231.601	-2.73
231.819	118.1
232.037	5.46
232.254	-37.55
232.472	-2.73
232.689	-37.55
232.907	97.62
233.125	-39.59
233.342	36.18
233.56	11.61
233.777	-64.17
233.995	-2.73
234.213	3.41
234.43	-21.16
234.648	-49.83
234.865	56.66
235.083	-0.68
235.3	13.65
235.518	27.99
235.735	85.33
235.953	81.24
236.17	68.95
236.388	-29.35
236.605	13.65
236.822	83.28
237.04	-70.31
237.257	105.81
237.475	-6.83
237.692	52.56
237.909	36.18
238.127	21.85
238.344	-0.68
238.562	19.8
238.779	-64.17
238.996	-45.74
239.214	23.89
239.431	27.99
239.648	-39.59
239.865	-58.03
240.083	79.19
240.3	-17.07
240.517	-29.35
240.735	32.08
240.952	-70.31
241.169	36.18
241.386	-58.03
241.603	-49.83
241.821	-17.07
242.038	34.13
242.255	21.85
242.472	-62.12
242.689	15.7
242.907	68.95
243.124	-45.74
243.341	42.32
243.558	-31.4
243.775	-29.35
243.992	1.37
244.209	5.46
244.426	1.37
244.643	5.46
244.86	3.41
245.078	-2.73
245.295	64.85
245.512	11.61
245.729	15.7
245.946	134.48
246.163	30.04
246.38	-53.93
246.597	-21.16
246.814	13.65
247.031	21.85
247.248	15.7
247.464	-58.03
247.681	15.7
247.898	36.18
248.115	-39.59
248.332	-12.97
248.549	-2.73
248.766	-35.5
248.983	111.96
249.2	-29.35
249.417	19.8
249.633	-55.98
249.85	38.23
250.067	-70.31
250.284	-2.73
250.501	-10.92
250.717	-72.36
250.934	-12.97
251.151	-19.11
251.368	-17.07
251.585	11.61
251.801	3.41
252.018	-35.5
252.235	-35.5
252.451	-53.93
252.668	1.37
252.885	-12.97
253.102	5.46
253.318	60.76
253.535	-35.5
253.752	-53.93
253.968	54.61
254.185	42.32
254.401	-31.4
254.618	44.37
254.835	-10.92
255.051	30.04
255.268	-12.97
255.484	15.7
255.701	-49.83
255.917	36.18
256.134	-0.68
256.351	-49.83
256.567	-17.07
256.784	-29.35
257	-19.11
257.217	23.89
257.433	-0.68
257.65	11.61
257.866	-25.26
258.082	-49.83
258.299	32.08
258.515	5.46
258.732	-39.59
258.948	-21.16
259.165	15.7
259.381	-49.83
259.597	-23.21
259.814	-51.88
260.03	21.85
260.246	-21.16
260.463	-62.12
260.679	-62.12
260.895	7.51
261.112	44.37
261.328	44.37
261.544	-35.5
261.761	52.56
261.977	-0.68
262.193	-6.83
262.409	9.56
262.626	9.56
262.842	34.13
263.058	15.7
263.274	-12.97
263.49	-23.21
263.707	77.14
263.923	23.89
264.139	-21.16
264.355	19.8
264.571	-39.59
264.787	27.99
265.004	73.04
265.22	-21.16
265.436	15.7
265.652	-64.17
265.868	-4.78
266.084	-12.97
266.3	-25.26
266.516	38.23
266.732	5.46
266.948	-29.35
267.164	38.23
267.38	40.28
267.596	46.42
267.812	107.86
268.028	-31.4
268.244	-21.16
268.46	7.51
268.676	-92.84
268.892	-25.26
269.108	-43.69
269.324	-23.21
269.54	-58.03
269.756	27.99
269.972	-6.83
270.188	-47.79
270.403	-6.83
270.619	3.41
270.835	5.46
271.051	19.8
271.267	-51.88
271.483	1.37
271.698	-25.26
271.914	77.14
272.13	3.41
272.346	1.37
272.562	27.99
272.777	85.33
272.993	36.18
273.209	-21.16
273.425	3.41
273.64	30.04
273.856	-12.97
274.072	-101.03
274.287	-45.74
274.503	15.7
274.719	-6.83
274.934	23.89
275.15	-37.55
275.366	-0.68
275.581	-33.45
275.797	21.85
276.012	-25.26
276.228	-25.26
276.444	-0.68
276.659	-17.07
276.875	27.99
277.09	-37.55
277.306	46.42
277.521	44.37
277.737	-27.31
277.952	1.37
278.168	-72.36
278.383	-17.07
278.599	27.99
278.814	48.47
279.03	3.41
279.245	87.38
279.461	36.18
279.676	11.61
279.892	25.94
280.107	-60.07
280.322	-12.97
280.538	17.75
280.753	30.04
280.969	38.23
281.184	-53.93
281.399	1.37
281.615	7.51
281.83	7.51
282.045	-58.03
282.26	15.7
282.476	-51.88
282.691	109.91
282.906	-0.68
283.122	19.8
283.337	7.51
283.552	68.95
283.767	5.46
283.983	-43.69
284.198	-68.27
284.413	1.37
284.628	-29.35
284.843	7.51
285.058	-4.78
285.274	32.08
285.489	-60.07
285.704	-33.45
285.919	-31.4
286.134	54.61
286.349	54.61
286.564	-37.55
286.779	75.09
286.995	-58.03
287.21	-31.4
287.425	44.37
287.64	7.51
287.855	17.75
288.07	-6.83
288.285	-25.26
288.5	36.18
288.715	36.18
288.93	21.85
289.145	1.37
289.36	38.23
289.575	5.46
289.79	-49.83
290.004	3.41
290.219	50.52
290.434	23.89
290.649	5.46
290.864	79.19
291.079	-15.02
291.294	-29.35
291.509	46.42
291.724	-17.07
291.938	-62.12
292.153	9.56
292.368	52.56
292.583	48.47
292.798	44.37
293.012	-31.4
293.227	-43.69
293.442	71
293.657	5.46
293.871	11.61
294.086	5.46
294.301	25.94
294.516	15.7
294.73	-64.17
294.945	36.18
295.16	142.68
295.374	44.37
295.589	-17.07
295.804	-17.07
296.018	52.56
296.233	40.28
296.447	-17.07
296.662	3.41
296.877	58.71
297.091	7.51
297.306	-103.08
297.52	77.14
297.735	-33.45
297.949	-64.17
298.164	-27.31
298.378	13.65
298.593	-37.55
298.807	-12.97
299.022	-39.59
299.236	1.37
299.451	-21.16
299.665	-58.03
299.88	3.41
300.094	17.75
300.309	54.61
300.523	-29.35
300.737	27.99
300.952	54.61
301.166	56.66
301.381	5.46
301.595	56.66
301.809	-43.69
302.024	-12.97
302.238	-35.5
302.452	87.38
302.667	15.7
302.881	-10.92
303.095	58.71
303.309	93.52
303.524	5.46
303.738	32.08
303.952	32.08
304.166	3.41
304.381	5.46
304.595	30.04
304.809	40.28
305.023	52.56
305.237	-58.03
305.452	-31.4
305.666	-33.45
305.88	-2.73
306.094	15.7
306.308	-31.4
306.522	-19.11
306.736	27.99
306.95	13.65
307.164	103.76
307.379	15.7
307.593	17.75
307.807	32.08
308.021	-25.26
308.235	60.76
308.449	19.8
308.663	-70.31
308.877	120.15
309.091	3.41
309.305	25.94
309.519	-60.07
309.733	73.04
309.947	-76.46
310.161	30.04
310.374	-4.78
310.588	34.13
310.802	-37.55
311.016	77.14
311.23	3.41
311.444	-17.07
311.658	-33.45
311.872	27.99
312.085	36.18
312.299	-39.59
312.513	-29.35
312.727	13.65
312.941	44.37
313.154	44.37
313.368	34.13
313.582	13.65
313.796	-80.55
314.009	-0.68
314.223	11.61
314.437	25.94
314.651	-2.73
314.864	-21.16
315.078	13.65
315.292	-45.74
315.505	15.7
315.719	-2.73
315.933	1.37
316.146	-2.73
316.36	-12.97
316.573	56.66
316.787	27.99
317.001	44.37
317.214	13.65
317.428	3.41
317.641	-94.89
317.855	7.51
318.068	-21.16
318.282	-43.69
318.495	9.56
318.709	79.19
318.922	-12.97
319.136	40.28
319.349	19.8
319.563	-29.35
319.776	-10.92
319.99	38.23
320.203	21.85
320.417	13.65
320.63	7.51
320.843	19.8
321.057	73.04
321.27	52.56
321.483	-4.78
321.697	60.76
321.91	1.37
322.124	44.37
322.337	21.85
322.55	3.41
322.763	73.04
322.977	-17.07
323.19	-15.02
323.403	-78.51
323.617	68.95
323.83	83.28
324.043	21.85
324.256	-33.45
324.469	19.8
324.683	46.42
324.896	-12.97
325.109	44.37
325.322	-0.68
325.535	34.13
325.748	42.32
325.962	62.8
326.175	19.8
326.388	99.67
326.601	-17.07
326.814	-2.73
327.027	-0.68
327.24	46.42
327.453	-43.69
327.666	85.33
327.879	-41.64
328.092	23.89
328.305	-6.83
328.518	32.08
328.731	-19.11
328.944	-29.35
329.157	-29.35
329.37	-17.07
329.583	64.85
329.796	38.23
330.009	-8.87
330.222	56.66
330.435	5.46
330.648	-19.11
330.861	-27.31
331.073	-33.45
331.286	-33.45
331.499	-4.78
331.712	-53.93
331.925	27.99
332.138	-12.97
332.35	79.19
332.563	-25.26
332.776	-2.73
332.989	-29.35
333.202	13.65
333.414	40.28
333.627	-31.4
333.84	3.41
334.053	-29.35
334.265	-17.07
334.478	19.8
334.691	44.37
334.903	5.46
335.116	-2.73
335.329	15.7
335.541	-12.97
335.754	-0.68
335.966	-31.4
336.179	50.52
336.392	-29.35
336.604	-23.21
336.817	-37.55
337.029	-12.97
337.242	-27.31
337.454	-21.16
337.667	-60.07
337.88	-2.73
338.092	46.42
338.305	9.56
338.517	40.28
338.729	64.85
338.942	27.99
339.154	32.08
339.367	13.65
339.579	-21.16
339.792	-49.83
340.004	-29.35
340.217	38.23
340.429	15.7
340.641	-0.68
340.854	-17.07
341.066	-47.79
341.278	-37.55
341.491	81.24
341.703	-92.84
341.915	-4.78
342.128	27.99
342.34	-41.64
342.552	-21.16
342.764	-33.45
342.977	87.38
343.189	-60.07
343.401	-45.74
343.613	19.8
343.826	13.65
344.038	-19.11
344.25	48.47
344.462	-76.46
344.674	11.61
344.886	21.85
345.099	11.61
345.311	64.85
345.523	-49.83
345.735	-70.31
345.947	36.18
346.159	40.28
346.371	-21.16
346.583	-27.31
346.795	87.38
347.007	7.51
347.219	19.8
347.431	-76.46
347.643	13.65
347.855	-31.4
348.067	23.89
348.279	-21.16
348.491	79.19
348.703	30.04
348.915	-12.97
349.127	5.46
349.339	52.56
349.551	-43.69
349.763	77.14
349.975	46.42
350.187	79.19
350.399	54.61
350.61	-35.5
350.822	-31.4
351.034	9.56
351.246	-27.31
351.458	-25.26
351.669	32.08
351.881	79.19
352.093	25.94
352.305	50.52
352.517	32.08
352.728	66.9
352.94	-19.11
353.152	-2.73
353.363	-35.5
353.575	27.99
353.787	27.99
353.999	52.56
354.21	40.28
354.422	7.51
354.633	-45.74
354.845	36.18
355.057	-66.22
355.268	-60.07
355.48	58.71
355.692	-10.92
355.903	-21.16
356.115	5.46
356.326	-21.16
356.538	-19.11
356.749	68.95
356.961	81.24
357.172	9.56
357.384	64.85
357.595	-15.02
357.807	-53.93
358.018	30.04
358.23	-62.12
358.441	32.08
358.653	7.51
358.864	73.04
359.075	-17.07
359.287	60.76
359.498	17.75
359.709	-19.11
359.921	17.75
360.132	7.51
360.344	-47.79
360.555	17.75
360.766	17.75
360.977	36.18
361.189	21.85
361.4	21.85
361.611	-4.78
361.823	27.99
362.034	-51.88
362.245	1.37
362.456	40.28
362.667	-74.41
362.879	-2.73
363.09	42.32
363.301	44.37
363.512	-10.92
363.723	87.38
363.935	-2.73
364.146	52.56
364.357	5.46
364.568	46.42
364.779	-92.84
364.99	-25.26
365.201	38.23
365.412	40.28
365.623	5.46
365.834	44.37
366.045	25.94
366.256	1.37
366.467	32.08
366.678	66.9
366.889	44.37
367.1	40.28
367.311	48.47
367.522	-17.07
367.733	-10.92
367.944	9.56
368.155	-53.93
368.366	109.91
368.577	21.85
368.788	7.51
368.999	-37.55
369.209	17.75
369.42	73.04
369.631	60.76
369.842	-21.16
370.053	38.23
370.264	15.7
370.474	-53.93
370.685	-8.87
370.896	-27.31
371.107	77.14
371.317	-17.07
371.528	-51.88
371.739	3.41
371.95	32.08
372.16	146.77
372.371	-35.5
372.582	11.61
372.792	-12.97
373.003	58.71
373.214	46.42
373.424	-12.97
373.635	-17.07
373.846	-21.16
374.056	-10.92
374.267	23.89
374.477	36.18
374.688	42.32
374.898	7.51
375.109	48.47
375.319	-21.16
375.53	64.85
375.74	54.61
375.951	27.99
376.161	-39.59
376.372	7.51
376.582	-12.97
376.793	-4.78
377.003	-19.11
377.214	-6.83
377.424	-31.4
377.635	52.56
377.845	-0.68
378.055	11.61
378.266	15.7
378.476	105.81
378.686	58.71
378.897	9.56
379.107	-105.13
379.317	44.37
379.528	52.56
379.738	-70.31
379.948	-8.87
380.158	-29.35
380.369	38.23
380.579	-21.16
380.789	7.51
380.999	48.47
381.21	3.41
381.42	68.95
381.63	9.56
381.84	-64.17
382.05	13.65
382.261	9.56
382.471	36.18
382.681	-45.74
382.891	-37.55
383.101	7.51
383.311	32.08
383.521	19.8
383.731	46.42
383.941	62.8
384.151	68.95
384.361	-12.97
384.571	3.41
384.781	36.18
384.991	1.37
385.201	48.47
385.411	40.28
385.621	27.99
385.831	-4.78
386.041	66.9
386.251	30.04
386.461	15.7
386.671	-29.35
386.881	11.61
387.091	7.51
387.301	27.99
387.511	56.66
387.72	30.04
387.93	40.28
388.14	15.7
388.35	32.08
388.56	7.51
388.769	-19.11
388.979	58.71
389.189	-74.41
389.399	-51.88
389.609	40.28
389.818	-0.68
390.028	7.51
390.238	34.13
390.447	-92.84
390.657	15.7
390.867	17.75
391.076	-55.98
391.286	13.65
391.496	-60.07
391.705	-2.73
391.915	9.56
392.125	9.56
392.334	-6.83
392.544	68.95
392.753	83.28
392.963	-21.16
393.172	-25.26
393.382	27.99
393.591	62.8
393.801	11.61
394.01	120.15
394.22	-27.31
394.429	54.61
394.639	23.89
394.848	7.51
395.058	-43.69
395.267	52.56
395.477	60.76
395.686	44.37
395.895	68.95
396.105	56.66
396.314	25.94
396.524	66.9
396.733	-53.93
396.942	68.95
397.152	66.9
397.361	11.61
397.57	87.38
397.78	60.76
397.989	13.65
398.198	105.81
398.407	-4.78
398.617	25.94
398.826	54.61
399.035	17.75
399.244	68.95
399.453	3.41
399.663	109.91
399.872	7.51
400.081	-12.97
400.29	85.33
400.499	60.76
400.708	87.38
400.917	32.08
401.127	66.9
401.336	40.28
401.545	91.48
401.754	130.39
401.963	64.85
402.172	77.14
402.381	-29.35
402.59	42.32
402.799	66.9
403.008	87.38
403.217	58.71
403.426	105.81
403.635	-60.07
403.844	85.33
404.053	21.85
404.262	36.18
404.471	32.08
404.68	73.04
404.888	103.76
405.097	52.56
405.306	68.95
405.515	118.1
405.724	40.28
405.933	132.44
406.142	30.04
406.35	89.43
406.559	120.15
406.768	71
406.977	109.91
407.185	48.47
407.394	122.2
407.603	114
407.812	130.39
408.02	214.35
408.229	136.53
408.438	159.06
408.646	62.8
408.855	116.05
409.064	126.29
409.272	126.29
409.481	169.3
409.69	91.48
409.898	130.39
410.107	142.68
410.315	253.27
410.524	191.83
410.733	159.06
410.941	163.15
411.15	230.74
411.358	220.5
411.567	179.54
411.775	230.74
411.984	230.74
412.192	265.55
412.401	249.17
412.609	263.51
412.818	226.64
413.026	292.18
413.234	267.6
413.443	249.17
413.651	220.5
413.86	290.13
414.068	218.45
414.276	363.86
414.485	267.6
414.693	376.14
414.901	372.05
415.11	400.72
415.318	396.62
415.526	413.01
415.734	449.87
415.943	476.49
416.151	515.41
416.359	404.82
416.567	552.27
416.776	486.73
416.984	529.74
417.192	505.17
417.4	558.41
417.608	480.59
417.817	539.98
418.025	574.8
418.233	699.72
418.441	531.79
418.649	660.81
418.857	671.05
419.065	642.38
419.273	761.16
419.481	767.31
419.689	836.94
419.897	820.55
420.105	820.55
420.313	980.29
420.521	865.61
420.729	961.86
420.937	959.81
421.145	1019.21
421.353	988.49
421.561	1099.08
421.769	1043.78
421.977	1242.43
422.185	1164.61
422.393	1262.91
422.601	1297.73
422.809	1248.58
423.017	1269.06
423.224	1353.02
423.432	1424.7
423.64	1357.12
423.848	1566.01
424.056	1580.35
424.263	1645.88
424.471	1623.36
424.679	1690.94
424.887	1654.08
425.094	1768.76
425.302	1781.05
425.51	1770.81
425.718	1948.98
425.925	1822.01
426.133	2004.28
426.341	2147.64
426.548	2135.35
426.756	2231.6
426.964	2217.27
427.171	2338.1
427.379	2405.68
427.586	2397.49
427.794	2585.9
428.001	2577.71
428.209	2829.61
428.417	2800.94
428.624	2884.91
428.832	2936.1
429.039	2764.08
429.247	2831.66
429.454	3157.29
429.662	3444
429.869	3099.94
430.076	3444
430.284	3280.16
430.491	3407.14
430.699	3702.04
430.906	3677.47
431.114	3730.72
431.321	3935.51
431.528	3872.03
431.736	4185.37
431.943	4549.9
432.15	4298
432.358	4496.66
432.565	4517.14
432.772	4474.13
432.979	4676.88
433.187	4873.48
433.394	4936.97
433.601	5186.82
433.808	5276.93
434.016	5285.12
434.223	5209.35
434.43	5731.58
434.637	5598.46
434.844	5928.19
435.052	5879.04
435.259	5979.39
435.466	6085.88
435.673	5936.38
435.88	6380.79
436.087	6534.39
436.294	6618.35
436.501	6642.93
436.708	6759.66
436.915	7140.58
437.122	7267.56
437.329	7271.65
437.537	7380.2
437.743	7548.13
437.95	7476.45
438.157	7859.42
438.364	8047.83
438.571	7943.39
438.778	8195.29
438.985	8965.32
439.192	8629.46
439.399	9037
439.606	8705.23
439.813	9233.61
440.02	9809.09
440.227	9632.96
440.433	9716.93
440.64	9907.39
440.847	9782.46
441.054	9870.53
441.261	10675.38
441.467	10476.73
441.674	10785.97
441.881	11259.05
442.088	11093.16
442.294	11048.11
442.501	11158.7
442.708	11625.64
442.914	11934.88
443.121	12567.7
443.328	12027.04
443.534	13016.21
443.741	12614.8
443.948	12436.63
444.154	13440.14
444.361	13331.59
444.568	13225.1
444.774	13485.19
444.981	13405.32
445.187	13874.31
445.394	14613.62
445.6	14460.02
445.807	15848.55
446.013	15060.08
446.22	15352.94
446.426	16223.33
446.633	16245.85
446.839	16614.49
447.046	16161.89
447.252	16989.27
447.459	17085.52
447.665	16860.24
447.871	17347.66
448.078	18193.47
448.284	17546.31
448.491	18265.15
448.697	18852.92
448.903	19067.95
449.11	19164.21
449.316	18979.89
449.522	19182.64
449.728	19823.65
449.935	19749.93
450.141	19850.28
450.347	20415.52
450.553	19604.52
450.76	20237.34
450.966	20622.36
451.172	20468.76
451.378	21132.31
451.584	20788.25
451.791	21269.52
451.997	21308.43
452.203	21693.45
452.409	21373.97
452.615	21433.36
452.821	20616.22
453.027	20386.85
453.233	21654.54
453.44	20945.94
453.646	21150.74
453.852	21253.14
454.058	21437.45
454.264	20931.61
454.47	21177.36
454.676	20655.13
454.882	21427.21
455.088	19573.8
455.294	19803.18
455.5	20126.75
455.705	20311.07
455.911	19452.97
456.117	19211.31
456.323	19149.87
456.529	18086.98
456.735	18719.8
456.941	18254.91
457.147	17982.53
457.352	17603.66
457.558	17488.97
457.764	17386.57
457.97	17400.91
458.176	16647.26
458.381	16784.47
458.587	15922.27
458.793	15740.01
458.999	15314.03
459.204	16303.2
459.41	15707.24
459.616	14564.47
459.821	14718.07
460.027	14699.64
460.233	14247.04
460.438	13716.61
460.644	13864.07
460.85	13069.45
461.055	12774.55
461.261	12999.82
461.466	12014.75
461.672	11572.39
461.878	12299.42
462.083	11562.15
462.289	11236.52
462.494	11224.23
462.7	10753.2
462.905	10284.22
463.111	10871.98
463.316	10736.82
463.522	10669.23
463.727	10472.63
463.932	10697.91
464.138	10466.49
464.343	10646.71
464.549	10253.5
464.754	10636.47
464.959	10300.6
465.165	10478.77
465.37	10011.84
465.575	9565.38
465.781	10220.73
465.986	10230.97
466.191	9686.21
466.397	9483.46
466.602	9166.03
466.807	9549
467.012	9411.78
467.218	9155.79
467.423	9307.34
467.628	9467.08
467.833	9682.11
468.038	9391.3
468.244	9178.31
468.449	9413.83
468.654	9348.29
468.859	9268.42
469.064	9145.55
469.269	8803.53
469.474	8907.98
469.679	8877.26
469.885	8662.23
470.09	8705.23
470.295	8832.21
470.5	8635.6
470.705	8588.5
470.91	8373.46
471.115	8242.39
471.32	8383.7
471.525	8449.24
471.73	8383.7
471.935	8244.44
472.139	7875.81
472.344	7992.54
472.549	7937.24
472.754	7937.24
472.959	7918.81
473.164	7650.53
473.369	7439.59
473.574	7773.41
473.778	7726.3
473.983	7679.2
474.188	7625.95
474.393	7212.26
474.598	7288.04
474.802	7097.58
475.007	7130.34
475.212	7124.2
475.417	7046.38
475.621	6839.53
475.826	6905.07
476.031	6769.9
476.235	6528.24
476.44	6774
476.645	6626.54
476.849	6526.19
477.054	6425.84
477.259	6409.46
477.463	6343.92
477.668	6323.44
477.872	6325.49
478.077	6237.43
478.282	5958.91
478.486	6190.33
478.691	6116.6
478.895	6098.17
479.1	5963
479.304	5952.76
479.509	5784.83
479.713	6016.25
479.918	5717.25
480.122	5672.19
480.326	5745.92
480.531	5764.35
480.735	5766.4
480.94	5670.14
481.144	5840.12
481.348	5629.18
481.553	5786.88
481.757	5567.74
481.961	5614.85
482.166	5688.57
482.37	5702.91
482.574	5444.87
482.778	5516.55
482.983	5444.87
483.187	5438.72
483.391	5555.46
483.595	5534.98
483.8	5463.3
484.004	5561.6
484.208	5532.93
484.412	5528.83
484.616	5582.08
484.821	5553.41
485.025	5494.02
485.229	5592.32
485.433	5565.7
485.637	5379.33
485.841	5586.18
486.045	5516.55
486.249	5633.28
486.453	5483.78
486.657	5559.55
486.861	5565.7
487.065	5338.37
487.269	5549.31
487.473	5448.96
487.677	5528.83
487.881	5618.94
488.085	5504.26
488.289	5512.45
488.493	5580.03
488.697	5555.46
488.901	5561.6
489.105	5494.02
489.309	5614.85
489.512	5641.47
489.716	5528.83
489.92	5522.69
490.124	5666.05
490.328	5807.36
490.531	5698.81
490.735	5780.73
490.939	5698.81
491.143	5721.34
491.346	5557.5
491.55	5842.17
491.754	5766.4
491.958	5864.7
492.161	5784.83
492.365	5743.87
492.569	5764.35
492.772	5682.43
492.976	5993.72
493.18	5930.23
493.383	6040.83
493.587	5960.95
493.79	5952.76
493.994	6034.68
494.197	6092.02
494.401	6182.14
494.605	5975.29
494.808	6157.56
495.012	6216.95
495.215	6307.06
495.419	6335.73
495.622	6276.34
495.825	6474.99
496.029	6462.71
496.232	6589.68
496.436	6479.09
496.639	6673.65
496.843	6470.9
497.046	6991.08
497.249	6720.75
497.453	6835.44
497.656	6798.57
497.859	7081.19
498.063	7253.22
498.266	7142.63
498.469	7089.39
498.673	7267.56
498.876	7288.04
499.079	7394.53
499.282	7408.87
499.485	7671.01
499.689	7574.75
499.892	7562.47
500.095	7853.28
500.298	7959.77
500.501	7832.8
500.705	7943.39
500.908	8199.38
501.111	8203.48
501.314	8305.88
501.517	8371.41
501.72	8565.97
501.923	8465.62
502.126	8678.61
502.329	8895.69
502.532	8672.47
502.735	8713.42
502.938	9012.43
503.141	9221.32
503.344	9182.41
503.547	9202.89
503.75	9536.71
503.953	9559.24
504.156	9653.44
504.359	9575.62
504.562	9587.91
504.765	10007.74
504.968	10026.17
505.17	10192.06
505.373	9962.69
505.576	10280.12
505.779	10554.55
505.982	10529.97
506.185	10620.08
506.387	10605.75
506.59	10935.47
506.793	11007.15
506.996	10958
507.198	11349.16
507.401	11379.88
507.604	11369.64
507.807	11666.6
508.009	11629.73
508.212	11795.62
508.415	11971.74
508.617	12111
508.82	12119.2
509.022	11986.08
509.225	12520.6
509.428	12598.42
509.63	12469.4
509.833	12518.55
510.035	12870.8
510.238	12702.87
510.44	13210.76
510.643	13405.32
510.845	13245.58
511.048	13399.18
511.25	13513.86
511.453	13933.7
511.655	14130.3
511.858	13943.94
512.06	13943.94
512.262	14087.29
512.465	14296.19
512.667	14462.07
512.87	14621.81
513.072	14634.1
513.274	14982.26
513.477	15152.24
513.679	15170.67
513.881	15314.03
514.084	15555.69
514.286	15588.46
514.488	15555.69
514.69	16112.74
514.893	16043.1
515.095	15950.95
515.297	16020.58
515.499	16507.99
515.701	16702.55
515.904	16747.61
516.106	16737.37
516.308	17103.95
516.51	17060.94
516.712	17212.49
516.914	17435.72
517.116	17671.24
517.318	17826.89
517.52	17695.82
517.722	18027.59
517.925	18246.72
518.127	18379.84
518.329	18349.12
518.531	18414.65
518.733	18986.04
518.935	19211.31
519.136	19041.33
519.338	19196.98
519.54	19432.49
519.742	19491.88
519.944	19584.04
520.146	20040.74
520.348	20093.99
520.55	20345.89
520.752	20063.27
520.954	20556.83
521.155	20575.26
521.357	20804.63
521.559	20800.54
521.761	21406.73
521.963	21179.41
522.164	21355.54
522.366	21333.01
522.568	21615.63
522.77	21478.41
522.971	22066.18
523.173	21861.38
523.375	22164.48
523.576	22260.74
523.778	22131.72
523.98	22348.8
524.181	22408.19
524.383	22438.91
524.584	22989.81
524.786	22920.18
524.988	22715.39
525.189	23256.05
525.391	22991.86
525.592	23415.79
525.794	23544.81
525.995	23608.3
526.197	23589.87
526.398	23671.79
526.6	23743.47
526.801	24052.71
527.003	23931.88
527.204	23925.74
527.406	24320.99
527.607	24583.13
527.808	24701.92
528.01	23864.3
528.211	24353.76
528.412	24370.15
528.614	24884.19
528.815	24599.52
529.016	24857.56
529.218	24763.36
529.419	24886.23
529.62	25021.4
529.822	25039.83
530.023	24771.55
530.224	25236.44
530.425	24980.44
530.626	25136.09
530.828	24798.17
531.029	25592.78
531.23	25361.36
531.431	25402.32
531.632	25175
531.833	25396.18
532.035	25324.5
532.236	25175
532.437	25600.97
532.638	25316.31
532.839	25871.31
533.04	25680.85
533.241	25297.88
533.442	25926.6
533.643	25709.52
533.844	25437.14
534.045	25953.23
534.246	25492.43
534.447	25779.15
534.648	25615.31
534.849	25983.94
535.05	25686.99
535.251	25773
535.451	26020.81
535.652	25955.27
535.853	25641.93
536.054	25793.48
536.255	25897.93
536.456	25439.19
536.657	25854.92
536.857	25834.44
537.058	25813.96
537.259	25838.54
537.46	25840.59
537.66	25934.79
537.861	25777.1
538.062	25713.61
538.263	26264.52
538.463	25842.63
538.664	26055.62
538.865	25785.29
539.065	26090.44
539.266	25459.66
539.466	26047.43
539.667	25527.25
539.868	26176.45
540.068	25592.78
540.269	25758.67
540.469	25852.87
540.67	25717.71
540.87	25934.79
541.071	25650.13
541.271	26207.17
541.472	25934.79
541.672	25732.04
541.873	25590.73
542.073	25381.84
542.274	25996.23
542.474	25856.97
542.675	25586.64
542.875	25811.92
543.075	25928.65
543.276	26006.47
543.476	26000.33
543.676	25615.31
543.877	25664.46
544.077	25809.87
544.277	25410.51
544.478	25553.87
544.678	25891.79
544.878	26182.6
545.078	25942.99
545.279	25607.12
545.479	25607.12
545.679	25611.21
545.879	25404.37
546.079	25678.8
546.28	25551.82
546.48	25492.43
546.68	25822.16
546.88	25727.95
547.08	25607.12
547.28	26029
547.48	25547.73
547.68	25613.26
547.88	25410.51
548.081	25615.31
548.281	25537.49
548.481	25261.01
548.681	25656.27
548.881	25682.89
549.081	25707.47
549.28	25295.83
549.48	25635.79
549.68	25723.85
549.88	25848.78
550.08	25306.07
550.28	25664.46
550.48	25736.14
550.68	25920.46
550.88	25252.82
551.08	25586.64
551.279	25873.35
551.479	25498.58
551.679	25635.79
551.879	25156.57
552.079	25428.95
552.278	25316.31
552.478	25574.35
552.678	25551.82
552.878	25484.24
553.077	25439.19
553.277	25066.45
553.477	25402.32
553.676	25218
553.876	25150.42
554.076	25226.2
554.275	25344.98
554.475	25287.64
554.674	25240.53
554.874	25633.74
555.074	24861.66
555.273	25383.89
555.473	25197.52
555.672	25097.17
555.872	25181.14
556.071	25242.58
556.271	25271.25
556.47	24875.99
556.67	24609.76
556.869	24882.14
557.068	25078.74
557.268	24646.62
557.467	25039.83
557.667	25005.02
557.866	25080.79
558.065	24937.43
558.265	24742.88
558.464	24701.92
558.663	24945.62
558.863	24636.38
559.062	25070.55
559.261	24554.46
559.461	25113.56
559.66	24501.22
559.859	24683.48
560.058	24396.77
560.258	24439.78
560.457	24241.12
560.656	24615.9
560.855	24312.8
561.054	24495.07
561.253	24183.78
561.453	24427.49
561.652	24368.1
561.851	24421.34
562.05	24140.77
562.249	24208.36
562.448	24497.12
562.647	24275.94
562.846	24196.07
563.045	24030.18
563.244	23966.7
563.443	24056.81
563.642	23790.57
563.841	23669.74
564.04	23831.53
564.239	23690.22
564.438	23768.04
564.637	23763.95
564.836	23673.84
565.035	23466.99
565.234	23514.09
565.432	23428.08
565.631	23413.74
565.83	23432.18
566.029	23086.07
566.228	23233.52
566.427	23032.82
566.625	22893.56
566.824	23104.5
567.023	23049.21
567.222	22635.52
567.42	23354.35
567.619	22866.94
567.818	22526.97
568.016	22785.02
568.215	22875.13
568.414	22514.69
568.612	22819.83
568.811	22701.05
569.01	22832.12
569.208	22426.62
569.407	22821.88
569.605	22324.22
569.804	22612.99
570.002	22129.67
570.201	22123.52
570.4	21953.54
570.598	22074.37
570.797	21951.49
570.995	22299.65
571.193	21978.12
571.392	22098.95
571.59	22072.32
571.789	21724.17
571.987	21599.24
572.186	21601.29
572.384	21660.68
572.582	21853.19
572.781	21728.27
572.979	21408.78
573.177	21494.8
573.376	21427.21
573.574	21537.8
573.772	21574.67
573.971	21431.31
574.169	21201.94
574.367	20974.61
574.565	21265.42
574.763	20857.88
574.962	21025.81
575.16	20769.82
575.358	21160.98
575.556	20917.27
575.754	20794.39
575.952	20470.81
576.151	21001.24
576.349	20726.81
576.547	20816.92
576.745	20542.49
576.943	20911.13
577.141	20544.54
577.339	20411.42
577.537	20501.53
577.735	20270.11
577.933	20184.1
578.131	20237.34
578.329	20028.45
578.527	20034.6
578.725	20210.72
578.923	20108.32
579.121	19991.59
579.319	20139.04
579.516	20079.65
579.714	19932.2
579.912	19786.79
580.11	19805.22
580.308	19862.57
580.506	19639.34
580.704	19256.37
580.901	19631.15
581.099	19788.84
581.297	19440.68
581.495	19647.53
581.692	19627.05
581.89	19375.15
582.088	19356.72
582.285	19137.59
582.483	19102.77
582.681	19117.11
582.878	19164.21
583.076	18920.5
583.274	19221.55
583.471	18900.02
583.669	18842.68
583.866	18725.94
584.064	18807.86
584.262	18736.18
584.459	18719.8
584.657	18451.52
584.854	18605.11
585.052	18345.02
585.249	18715.7
585.447	18437.18
585.644	18254.91
585.841	18469.95
586.039	18390.08
586.236	18142.27
586.434	18218.05
586.631	18414.65
586.828	18222.14
587.026	18398.27
587.223	18076.74
587.42	18254.91
587.618	18003.01
587.815	17839.17
588.012	17452.11
588.21	17574.99
588.407	17939.52
588.604	17718.34
588.801	17701.96
588.999	17597.51
589.196	17736.77
589.393	17697.86
589.59	17425.48
589.787	17558.6
589.984	17296.46
590.182	17003.6
590.379	17417.29
590.576	17321.04
590.773	17325.13
590.97	16946.26
591.167	17144.91
591.364	16962.64
591.561	16989.27
591.758	16639.06
591.955	16989.27
592.152	17026.13
592.349	16763.99
592.546	16813.14
592.743	16673.88
592.94	16510.04
593.137	16659.54
593.334	16727.13
593.531	16438.36
593.727	16639.06
593.924	16665.69
594.121	16233.57
594.318	16739.41
594.515	16260.19
594.712	16354.4
594.908	16100.45
595.105	16290.91
595.302	16034.91
595.499	16231.52
595.696	16157.79
595.892	16000.1
596.089	15918.18
596.286	15989.86
596.482	15987.81
596.679	15785.06
596.876	15801.44
597.072	15815.78
597.269	15752.29
597.466	15459.43
597.662	15766.63
597.859	15582.31
598.055	15633.51
598.252	15559.78
598.448	15379.56
598.645	15299.69
598.841	15397.99
599.038	15283.31
599.234	15320.17
599.431	15146.09
599.627	15051.89
599.824	15174.77
600.02	15064.18
600.217	15338.6
600.413	15070.32
600.609	14902.39
600.806	14990.45
601.002	14822.52
601.198	14832.76
601.395	14859.38
601.591	14730.36
601.787	14902.39
601.984	14470.26
602.18	14845.04
602.376	14417.02
602.572	14392.44
602.769	14570.61
602.965	14226.56
603.161	14441.59
603.357	14109.82
603.553	14230.65
603.75	14347.39
603.946	14208.12
604.142	14087.29
604.338	14036.1
604.534	14271.61
604.73	13968.51
604.926	14060.67
605.122	13935.74
605.318	14109.82
605.514	13776
605.71	14134.4
605.906	13862.02
606.102	13675.65
606.298	13489.29
606.494	13714.56
606.69	13851.78
606.886	13614.21
607.082	13515.91
607.278	13675.65
607.474	13309.07
607.67	13548.68
607.866	13472.9
608.062	13520.01
608.257	13425.8
608.453	13474.95
608.649	13593.73
608.845	13194.38
609.041	13182.09
609.236	13214.86
609.432	13147.28
609.628	13145.23
609.824	13061.26
610.019	13214.86
610.215	13157.52
610.411	13141.13
610.606	13270.15
610.802	13089.93
610.998	13077.65
611.193	13014.16
611.389	12829.84
611.584	12969.1
611.78	12715.16
611.976	13014.16
612.171	13067.41
612.367	13016.21
612.562	12741.78
612.758	12594.33
612.953	12797.07
613.149	12917.9
613.344	12758.16
613.539	13036.69
613.735	12686.48
613.93	12774.55
614.126	12479.64
614.321	12592.28
614.517	12672.15
614.712	12407.96
614.907	12510.36
615.103	12522.65
615.298	12301.47
615.493	12559.51
615.688	12416.15
615.884	12563.61
616.079	12436.63
616.274	12432.54
616.47	12440.73
616.665	12373.14
616.86	12301.47
617.055	12328.09
617.25	12129.44
617.445	12313.75
617.641	11994.27
617.836	12252.31
618.031	12092.57
618.226	12270.75
618.421	12096.67
618.616	12102.81
618.811	11992.22
619.006	12096.67
619.201	11799.71
619.396	11791.52
619.591	11621.54
619.786	12041.37
619.981	11664.55
620.176	11789.47
620.371	11445.41
620.566	11658.4
620.761	11637.92
620.956	11564.2
621.151	11347.11
621.346	11310.25
621.541	11324.58
621.735	11281.58
621.93	11125.93
622.125	10992.81
622.32	10937.52
622.515	10923.18
622.709	10900.65
622.904	11015.34
623.099	11054.25
623.294	10994.86
623.488	10984.62
623.683	10757.3
623.878	10605.75
624.072	10484.92
624.267	10767.54
624.462	10607.8
624.656	10398.9
624.851	10382.52
625.046	10392.76
625.24	10388.66
625.435	10226.87
625.629	10157.24
625.824	10224.83
626.018	10108.09
626.213	9876.67
626.407	9866.43
626.602	9915.58
626.796	9864.38
626.991	9966.78
627.185	9716.93
627.38	9735.36
627.574	9684.16
627.768	9575.62
627.963	9608.39
628.157	9727.17
628.352	9745.6
628.546	9192.65
628.74	9536.71
628.935	9116.87
629.129	9372.87
629.323	9172.17
629.517	9321.67
629.712	9104.59
629.906	9102.54
630.1	8819.92
630.294	8998.09
630.489	8836.3
630.683	9090.25
630.877	8797.39
631.071	8690.9
631.265	8791.25
631.459	8756.43
631.653	8672.47
631.848	8555.73
632.042	8654.03
632.236	8807.63
632.43	8555.73
632.624	8443.09
632.818	8391.89
633.012	8398.04
633.206	8025.31
633.4	8342.74
633.594	8228.06
633.788	8428.76
633.982	8066.27
634.176	8293.59
634.369	8180.95
634.563	8203.48
634.757	8041.69
634.951	8031.45
635.145	8142.04
635.339	7982.3
635.533	7816.41
635.726	7857.37
635.92	7857.37
636.114	7714.02
636.308	7716.06
636.501	7623.91
636.695	7539.94
636.889	7492.83
637.083	7582.95
637.276	7613.67
637.47	7507.17
637.664	7398.63
637.857	7468.26
638.051	7484.64
638.244	7304.42
638.438	7396.58
638.632	7300.33
638.825	7101.67
639.019	7306.47
639.212	7048.43
639.406	7019.75
639.599	7077.1
639.793	7056.62
639.986	6894.83
640.18	7079.15
640.373	6929.64
640.567	6819.05
640.76	6831.34
640.954	6683.89
641.147	6792.43
641.34	6827.25
641.534	6706.41
641.727	6753.52
641.92	6733.04
642.114	6655.22
642.307	6634.74
642.5	6663.41
642.694	6397.17
642.887	6558.96
643.08	6425.84
643.273	6456.56
643.467	6393.08
643.66	6302.97
643.853	6249.72
644.046	6386.93
644.239	6345.97
644.432	6214.9
644.626	6139.13
644.819	5963
645.012	6130.94
645.205	6165.75
645.398	6083.83
645.591	5999.87
645.784	6008.06
645.977	6065.4
646.17	5950.71
646.363	5969.15
646.556	5876.99
646.749	5782.78
646.942	5987.58
647.135	5795.07
647.328	5840.12
647.521	5707.01
647.714	5733.63
647.907	5692.67
648.099	5582.08
648.292	5743.87
648.485	5690.62
648.678	5539.07
648.871	5594.37
649.064	5422.34
649.256	5539.07
649.449	5553.41
649.642	5344.52
649.835	5362.95
650.027	5451.01
650.22	5557.5
650.413	5354.76
650.605	5412.1
650.798	5328.13
650.991	5057.8
651.183	5147.91
651.376	5102.86
651.568	5264.64
651.761	5113.1
651.954	5152.01
652.146	5129.48
652.339	5111.05
652.531	4994.31
652.724	5100.81
652.916	4934.92
653.109	4953.35
653.301	4943.11
653.494	5000.46
653.686	4939.02
653.879	4816.14
654.071	4928.78
654.263	4873.48
654.456	4740.36
654.648	4650.25
654.84	4691.21
655.033	4683.02
655.225	4707.6
655.417	4547.86
655.61	4723.98
655.802	4719.89
655.994	4541.71
656.186	4476.18
656.379	4402.45
656.571	4554
656.763	4580.62
656.955	4437.27
657.148	4521.23
657.34	4480.27
657.532	4564.24
657.724	4347.15
657.916	4482.32
658.108	4322.58
658.3	4291.86
658.492	4189.46
658.684	4291.86
658.876	4244.76
659.068	4324.63
659.26	4197.65
659.452	4271.38
659.644	4312.34
659.836	4121.88
660.028	4095.25
660.22	4214.04
660.412	4048.15
660.604	3937.56
660.796	4160.79
660.988	4017.43
661.18	3962.14
661.372	3923.23
661.563	3888.41
661.755	3843.35
661.947	3906.84
662.139	3937.56
662.331	3915.03
662.522	3802.4
662.714	3767.58
662.906	3878.17
663.097	3812.64
663.289	3845.4
663.481	3769.63
663.673	3700
663.864	3761.44
664.056	3761.44
664.247	3773.72
664.439	3652.89
664.631	3566.88
664.822	3491.1
665.014	3480.86
665.205	3501.34
665.397	3530.02
665.588	3509.54
665.78	3564.83
665.971	3581.21
666.163	3497.25
666.354	3398.95
666.546	3509.54
666.737	3487.01
666.929	3599.65
667.12	3323.17
667.311	3405.09
667.503	3446.05
667.694	3472.67
667.885	3390.75
668.077	3329.31
668.268	3353.89
668.459	3378.47
668.651	3190.05
668.842	3204.39
669.033	3276.07
669.224	3249.44
669.416	3214.63
669.607	3282.21
669.798	3048.74
669.989	3202.34
670.18	3169.57
670.371	3142.95
670.563	3093.8
670.754	3259.68
670.945	3034.41
671.136	3026.22
671.327	3114.28
671.518	3079.46
671.709	3026.22
671.9	3081.51
672.091	3081.51
672.282	3138.85
672.473	2952.49
672.664	3044.65
672.855	2942.25
673.046	2952.49
673.237	2944.3
673.428	2950.44
673.619	2884.91
673.809	2970.92
674	2854.19
674.191	2897.19
674.382	2821.42
674.573	2821.42
674.764	2837.8
674.954	2872.62
675.145	2848.04
675.336	2827.56
675.527	2798.89
675.717	2770.22
675.908	2819.37
676.099	2747.69
676.289	2755.88
676.48	2813.23
676.671	2739.5
676.861	2790.7
677.052	2856.23
677.243	2798.89
677.433	2536.75
677.624	2794.79
677.814	2684.2
678.005	2751.79
678.195	2725.16
678.386	2649.39
678.576	2624.81
678.767	2643.24
678.957	2641.2
679.148	2690.35
679.338	2635.05
679.529	2596.14
679.719	2546.99
679.909	2555.18
680.1	2602.29
680.29	2581.81
680.481	2680.11
680.671	2612.53
680.861	2583.85
681.052	2526.51
681.242	2463.02
681.432	2655.53
681.622	2518.32
681.813	2405.68
682.003	2506.03
682.193	2526.51
682.383	2469.17
682.573	2428.21
682.764	2415.92
682.954	2411.82
683.144	2469.17
683.334	2454.83
683.524	2426.16
683.714	2508.08
683.904	2428.21
684.094	2348.34
684.284	2460.98
684.474	2266.42
684.664	2370.87
684.854	2465.07
685.044	2417.97
685.234	2338.1
685.424	2354.48
685.614	2350.39
685.804	2385.2
685.994	2272.56
686.184	2243.89
686.374	2452.78
686.564	2422.06
686.753	2346.29
686.943	2305.33
687.133	2223.41
687.323	2346.29
687.513	2401.58
687.702	2250.03
687.892	2241.84
688.082	2233.65
688.272	2252.08
688.461	2217.27
688.651	2217.27
688.841	2192.69
689.03	2225.46
689.22	2293.04
689.41	2192.69
689.599	2213.17
689.789	2307.38
689.979	2114.87
690.168	2190.64
690.358	2174.26
690.547	2082.1
690.737	2164.02
690.926	2196.79
691.116	2176.31
691.305	2149.68
691.495	2157.88
691.684	2141.49
691.874	2069.81
692.063	2084.15
692.252	2100.53
692.442	2045.24
692.631	2018.61
692.82	2112.82
693.01	2012.47
693.199	2067.77
693.388	1996.09
693.578	1985.85
693.767	1989.94
693.956	1871.16
694.146	2018.61
694.335	1903.93
694.524	1920.31
694.713	1922.36
694.902	1903.93
695.092	2030.9
695.281	1887.54
695.47	1887.54
695.659	1807.67
695.848	1824.06
696.037	1764.67
696.226	1875.26
696.415	1916.22
696.604	1893.69
696.793	1854.78
696.982	1869.11
697.171	1862.97
697.36	1914.17
697.549	1930.55
697.738	1733.95
697.927	1840.44
698.116	1871.16
698.305	1908.02
698.494	1893.69
698.683	1850.68
698.872	1822.01
699.061	1781.05
699.25	1815.87
699.438	1912.12
699.627	1783.1
699.816	1752.38
700.005	1754.43
700.193	1772.86
700.382	1783.1
700.571	1840.44
700.76	1707.32
700.948	1795.39
701.137	1817.91
701.326	1830.2
701.514	1803.58
701.703	1846.59
701.892	1772.86
702.08	1830.2
702.269	1731.9
702.457	1733.95
702.646	1805.63
702.834	1725.75
703.023	1842.49
703.212	1811.77
703.4	1860.92
703.589	1748.28
703.777	1752.38
703.965	1715.52
704.154	1715.52
704.342	1801.53
704.531	1682.75
704.719	1660.22
704.907	1617.21
705.096	1748.28
705.284	1742.14
705.472	1649.98
705.661	1822.01
705.849	1668.41
706.037	1842.49
706.226	1668.41
706.414	1684.8
706.602	1766.71
706.79	1758.52
706.979	1609.02
707.167	1660.22
707.355	1688.89
707.543	1867.06
707.731	1678.65
707.919	1711.42
708.107	1748.28
708.296	1781.05
708.484	1682.75
708.672	1807.67
708.86	1709.37
709.048	1654.08
709.236	1701.18
709.424	1678.65
709.612	1705.28
709.8	1666.36
709.988	1709.37
710.176	1766.71
710.364	1750.33
710.551	1768.76
710.739	1711.42
710.927	1674.56
711.115	1799.48
711.303	1738.04
711.491	1738.04
711.679	1701.18
711.866	1690.94
712.054	1658.17
712.242	1674.56
712.43	1727.8
712.617	1768.76
712.805	1807.67
712.993	1604.92
713.181	1699.13
713.368	1721.66
713.556	1717.56
713.744	1703.23
713.931	1850.68
714.119	1826.11
714.306	1836.35
714.494	1813.82
714.682	1695.04
714.869	1819.96
715.057	1805.63
715.244	1789.24
715.432	1758.52
715.619	1791.29
715.807	1762.62
715.994	1688.89
716.182	1748.28
716.369	1774.91
716.556	1772.86
716.744	1707.32
716.931	1803.58
717.119	1862.97
717.306	1805.63
717.493	1762.62
717.681	1772.86
717.868	1764.67
718.055	1793.34
718.242	1754.43
718.43	1760.57
718.617	1885.5
718.804	1795.39
718.991	1785.15
719.179	1793.34
719.366	1719.61
719.553	1830.2
719.74	1787.19
719.927	1797.43
720.114	1719.61
720.301	1711.42
720.488	1781.05
720.676	1713.47
720.863	1832.25
721.05	1789.24
721.237	1856.83
721.424	1920.31
721.611	1781.05
721.798	1871.16
721.985	1760.57
722.172	1768.76
722.358	1746.23
722.545	1883.45
722.732	1830.2
722.919	1781.05
723.106	1682.75
723.293	1883.45
723.48	1809.72
723.667	1772.86
723.853	1707.32
724.04	1840.44
724.227	1770.81
724.414	1795.39
724.6	1758.52
724.787	1824.06
724.974	1875.26
725.161	1756.47
725.347	1871.16
725.534	2000.18
725.72	1910.07
725.907	1908.02
726.094	1858.87
726.28	1787.19
726.467	1809.72
726.653	1873.21
726.84	1865.02
727.027	1817.91
727.213	1735.99
727.4	1801.53
727.586	1873.21
727.773	1799.48
727.959	1901.88
728.145	1846.59
728.332	1920.31
728.518	1873.21
728.705	1912.12
728.891	1842.49
729.077	1916.22
729.264	1758.52
729.45	1862.97
729.636	1899.83
729.823	1799.48
730.009	1912.12
730.195	1865.02
730.382	1989.94
730.568	1871.16
730.754	1822.01
730.94	1813.82
731.126	1883.45
731.313	1893.69
731.499	1764.67
731.685	1948.98
731.871	1885.5
732.057	1887.54
732.243	1871.16
732.429	1858.87
732.615	1815.87
732.801	1887.54
732.987	1856.83
733.173	1807.67
733.359	1762.62
733.545	1871.16
733.731	1824.06
733.917	2039.09
734.103	1967.42
734.289	1838.39
734.475	1760.57
734.661	1940.79
734.847	1981.75
735.033	1920.31
735.219	1934.65
735.404	1924.41
735.59	1881.4
735.776	1971.51
735.962	1953.08
736.148	1924.41
736.333	1901.88
736.519	1832.25
736.705	1932.6
736.89	1750.33
737.076	1852.73
737.262	1893.69
737.447	1873.21
737.633	1889.59
737.819	1799.48
738.004	1996.09
738.19	1889.59
738.375	1852.73
738.561	1879.35
738.747	1918.26
738.932	1758.52
739.118	1842.49
739.303	1852.73
739.489	1865.02
739.674	1895.74
739.859	1813.82
740.045	1779
740.23	1914.17
740.416	1639.74
740.601	1840.44
740.786	1852.73
740.972	1754.43
741.157	1834.3
741.342	1766.71
741.528	1803.58
741.713	1873.21
741.898	1756.47
742.084	1680.7
742.269	1799.48
742.454	1807.67
742.639	1854.78
742.824	1715.52
743.01	1731.9
743.195	1903.93
743.38	1719.61
743.565	1721.66
743.75	1688.89
743.935	1774.91
744.12	1711.42
744.305	1692.99
744.49	1682.75
744.675	1678.65
744.86	1668.41
745.045	1850.68
745.23	1688.89
745.415	1649.98
745.6	1758.52
745.785	1715.52
745.97	1633.6
746.155	1596.73
746.34	1561.92
746.525	1658.17
746.71	1654.08
746.895	1531.2
747.079	1568.06
747.264	1551.68
747.449	1662.27
747.634	1570.11
747.819	1582.4
748.003	1486.14
748.188	1447.23
748.373	1555.77
748.557	1477.95
748.742	1568.06
748.927	1537.34
749.111	1510.72
749.296	1430.85
749.481	1338.69
749.665	1531.2
749.85	1414.46
750.034	1529.15
750.219	1455.42
750.404	1490.24
750.588	1379.65
750.773	1393.98
750.957	1447.23
751.141	1428.8
751.326	1410.37
751.51	1322.31
751.695	1350.98
751.879	1359.17
752.064	1320.26
752.248	1393.98
752.432	1342.78
752.617	1346.88
752.801	1385.79
752.985	1250.63
753.17	1322.31
753.354	1289.54
753.538	1264.96
753.722	1322.31
753.907	1207.62
754.091	1267.01
754.275	1310.02
754.459	1271.11
754.643	1207.62
754.828	1144.13
755.012	1250.63
755.196	1252.67
755.38	1199.43
755.564	1142.08
755.748	1217.86
755.932	1158.47
756.116	1150.28
756.3	1078.6
756.484	1101.12
756.668	1105.22
756.852	1107.27
757.036	1178.95
757.22	1133.89
757.404	1043.78
757.588	1080.64
757.772	1129.8
757.956	1144.13
758.14	1023.3
758.323	1144.13
758.507	1013.06
758.691	1060.17
758.875	1041.73
759.059	1146.18
759.242	1084.74
759.426	1125.7
759.61	955.72
759.794	1078.6
759.977	1002.82
760.161	1103.17
760.345	1045.83
760.528	1054.02
760.712	957.77
760.895	1035.59
761.079	1029.45
761.263	955.72
761.446	965.96
761.63	972.1
761.813	918.86
761.997	929.1
762.18	1006.92
762.364	906.57
762.547	865.61
762.731	929.1
762.914	994.63
763.098	984.39
763.281	920.9
763.464	881.99
763.648	959.81
763.831	963.91
764.015	947.53
764.198	894.28
764.381	861.51
764.564	904.52
764.748	886.09
764.931	918.86
765.114	945.48
765.297	859.46
765.481	828.74
765.664	824.65
765.847	955.72
766.03	832.84
766.213	828.74
766.397	830.79
766.58	806.22
766.763	933.19
766.946	816.46
767.129	855.37
767.312	759.11
767.495	826.7
767.678	859.46
767.861	791.88
768.044	863.56
768.227	759.11
768.41	814.41
768.593	822.6
768.776	785.74
768.959	888.14
769.142	777.55
769.324	775.5
769.507	787.79
769.69	773.45
769.873	757.07
770.056	867.66
770.239	728.39
770.421	736.59
770.604	869.7
770.787	701.77
770.97	728.39
771.152	841.03
771.335	775.5
771.518	783.69
771.7	836.94
771.883	857.42
772.066	726.35
772.248	734.54
772.431	705.87
772.613	654.67
772.796	748.87
772.978	675.15
773.161	714.06
773.343	701.77
773.526	615.76
773.708	658.76
773.891	628.04
774.073	748.87
774.256	695.63
774.438	744.78
774.621	660.81
774.803	630.09
774.985	675.15
775.168	681.29
775.35	746.83
775.532	601.42
775.715	562.51
775.897	718.15
776.079	546.12
776.261	699.72
776.444	638.28
776.626	623.95
776.808	601.42
776.99	572.75
777.173	617.8
777.355	593.23
777.537	544.08
777.719	626
777.901	597.32
778.083	660.81
778.265	628.04
778.447	564.56
778.629	478.54
778.811	587.08
778.993	566.6
779.175	578.89
779.357	558.41
779.539	486.73
779.721	585.04
779.903	544.08
780.085	562.51
780.267	496.97
780.449	593.23
780.631	597.32
780.812	642.38
780.994	496.97
781.176	496.97
781.358	509.26
781.54	505.17
781.721	505.17
781.903	398.67
782.085	476.49
782.267	427.34
782.448	486.73
782.63	437.58
782.812	474.45
782.993	404.82
783.175	544.08
783.357	462.16
783.538	367.95
783.72	351.57
783.901	458.06
784.083	437.58
784.264	490.83
784.446	447.82
784.627	433.49
784.809	439.63
784.99	392.53
785.172	400.72
785.353	472.4
785.535	421.2
785.716	400.72
785.897	413.01
786.079	302.42
786.26	402.77
786.441	374.1
786.623	392.53
786.804	298.32
786.985	390.48
787.167	441.68
787.348	392.53
787.529	316.75
787.71	390.48
787.891	322.9
788.073	308.56
788.254	312.66
788.435	384.34
788.616	406.86
788.797	367.95
788.978	316.75
789.159	341.33
789.34	363.86
789.522	357.71
789.703	349.52
789.884	310.61
790.065	320.85
790.246	257.36
790.427	302.42
790.607	380.24
790.788	314.7
790.969	322.9
791.15	333.14
791.331	322.9
791.512	329.04
791.693	263.51
791.874	333.14
792.054	308.56
792.235	306.51
792.416	195.92
792.597	335.18
792.778	322.9
792.958	298.32
793.139	324.94
793.32	240.98
793.5	324.94
793.681	357.71
793.862	247.12
794.042	249.17
794.223	298.32
794.404	257.36
794.584	212.31
794.765	249.17
794.945	220.5
795.126	171.35
795.306	261.46
795.487	238.93
795.667	243.03
795.848	294.22
796.028	296.27
796.209	290.13
796.389	261.46
796.57	234.83
796.75	298.32
796.93	226.64
797.111	238.93
797.291	232.79
797.471	310.61
797.652	269.65
797.832	226.64
798.012	359.76
798.192	230.74
798.373	154.96
798.553	236.88
798.733	245.07
798.913	204.11
799.093	271.7
799.274	183.63
799.454	279.89
799.634	206.16
799.814	220.5
799.994	208.21
800.174	273.75
800.354	175.44
800.534	253.27
800.714	251.22
800.894	204.11
801.074	169.3
801.254	200.02
801.434	200.02
801.614	206.16
801.794	204.11
801.974	695.63
802.154	230.74
802.334	228.69
802.514	169.3
802.693	210.26
802.873	208.21
803.053	185.68
803.233	277.84
803.413	128.34
803.592	200.02
803.772	187.73
803.952	150.87
804.131	148.82
804.311	152.91
804.491	214.35
804.67	146.77
804.85	177.49
805.03	175.44
805.209	181.59
805.389	212.31
805.568	128.34
805.748	138.58
805.928	167.25
806.107	179.54
806.287	175.44
806.466	197.97
806.646	214.35
806.825	195.92
807.004	111.96
807.184	212.31
807.363	171.35
807.543	163.15
807.722	152.91
807.901	101.72
808.081	187.73
808.26	87.38
808.439	159.06
808.619	144.72
808.798	220.5
808.977	195.92
809.156	167.25
809.336	208.21
809.515	163.15
809.694	191.83
809.873	138.58
810.052	179.54
810.231	234.83
810.411	157.01
810.59	167.25
810.769	44.37
810.948	150.87
811.127	159.06
811.306	89.43
811.485	200.02
811.664	202.07
811.843	126.29
812.022	118.1
812.201	95.57
812.38	165.2
812.559	142.68
812.737	101.72
812.916	120.15
813.095	87.38
813.274	169.3
813.453	161.11
813.632	128.34
813.811	107.86
813.989	83.28
814.168	128.34
814.347	44.37
814.526	177.49
814.704	240.98
814.883	134.48
815.062	79.19
815.24	146.77
815.419	89.43
815.598	154.96
815.776	-17.07
815.955	36.18
816.133	54.61
816.312	130.39
816.49	58.71
816.669	142.68
816.847	163.15
817.026	159.06
817.204	107.86
817.383	142.68
817.561	11.61
817.74	126.29
817.918	105.81
818.097	52.56
818.275	77.14
818.453	103.76
818.632	120.15
818.81	116.05
818.988	71
819.167	30.04
819.345	83.28
819.523	107.86
819.701	95.57
819.879	126.29
820.058	40.28
820.236	134.48
820.414	148.82
820.592	120.15
820.77	118.1
820.948	138.58
821.127	77.14
821.305	150.87
821.483	27.99
821.661	165.2
821.839	85.33
822.017	132.44
822.195	13.65
822.373	109.91
822.551	64.85
822.729	71
822.907	13.65
823.085	105.81
823.262	54.61
823.44	77.14
823.618	132.44
823.796	-12.97
823.974	54.61
824.152	19.8
824.329	114
824.507	105.81
824.685	75.09
824.863	148.82
825.04	93.52
825.218	25.94
825.396	21.85
825.574	101.72
825.751	-33.45
825.929	120.15
826.107	-25.26
826.284	46.42
826.462	157.01
826.639	177.49
826.817	36.18
826.994	54.61
827.172	114
827.349	107.86
827.527	93.52
827.704	44.37
827.882	126.29
828.059	130.39
828.237	62.8
828.414	93.52
828.591	38.23
828.769	27.99
828.946	19.8
829.124	64.85
829.301	-0.68
829.478	85.33
829.655	126.29
829.833	77.14
830.01	79.19
830.187	66.9
830.364	52.56
830.542	15.7
830.719	42.32
830.896	54.61
831.073	15.7
831.25	99.67
831.427	77.14
831.604	52.56
831.782	54.61
831.959	38.23
832.136	62.8
832.313	79.19
832.49	71
832.667	1.37
832.844	36.18
833.021	77.14
833.198	15.7
833.374	-4.78
833.551	111.96
833.728	46.42
833.905	73.04
834.082	62.8
834.259	38.23
834.436	64.85
834.612	62.8
834.789	36.18
834.966	23.89
835.143	27.99
835.319	114
835.496	30.04
835.673	103.76
835.85	5.46
836.026	81.24
836.203	99.67
836.38	52.56
836.556	7.51
836.733	93.52
836.909	21.85
837.086	56.66
837.262	97.62
837.439	38.23
837.616	114
837.792	42.32
837.968	66.9
838.145	30.04
838.321	99.67
838.498	89.43
838.674	81.24
838.851	21.85
839.027	54.61
839.203	11.61
839.38	19.8
839.556	27.99
839.732	93.52
839.909	44.37
840.085	138.58
840.261	9.56
840.437	32.08
840.614	-6.83
840.79	38.23
840.966	58.71
841.142	19.8
841.318	32.08
841.494	73.04
841.671	103.76
841.847	15.7
842.023	-12.97
842.199	9.56
842.375	66.9
842.551	77.14
842.727	-12.97
842.903	97.62
843.079	-21.16
843.255	52.56
843.431	-17.07
843.607	38.23
843.783	-64.17
843.959	3.41
844.134	21.85
844.31	64.85
844.486	48.47
844.662	-47.79
844.838	60.76
845.013	66.9
845.189	142.68
845.365	-6.83
845.541	11.61
845.716	-33.45
845.892	73.04
846.068	5.46
846.244	71
846.419	3.41
846.595	11.61
846.77	17.75
846.946	36.18
847.122	30.04
847.297	-21.16
847.473	73.04
847.648	-12.97
847.824	21.85
847.999	-19.11
848.175	36.18
848.35	36.18
848.526	42.32
848.701	-35.5
848.876	32.08
849.052	79.19
849.227	9.56
849.403	83.28
849.578	-43.69
849.753	-76.46
849.929	30.04
850.104	23.89
850.279	13.65
850.454	40.28
850.63	36.18
850.805	21.85
850.98	38.23
851.155	27.99
851.33	-12.97
851.505	-15.02
851.681	9.56
851.856	-37.55
852.031	-4.78
852.206	-23.21
852.381	-70.31
852.556	5.46
852.731	-10.92
852.906	105.81
853.081	-78.51
853.256	-15.02
853.431	62.8
853.606	32.08
853.781	52.56
853.956	32.08
854.131	9.56
854.305	19.8
854.48	34.13
854.655	-21.16
854.83	60.76
855.005	91.48
855.18	23.89
855.354	-0.68
855.529	44.37
855.704	13.65
855.879	-12.97
856.053	-78.51
856.228	27.99
856.403	-76.46
856.577	19.8
856.752	-51.88
856.926	23.89
857.101	-0.68
857.276	-2.73
857.45	21.85
857.625	58.71
857.799	30.04
857.974	7.51
858.148	15.7
858.323	21.85
858.497	68.95
858.672	-47.79
858.846	-45.74
859.02	87.38
859.195	23.89
859.369	-6.83
859.543	46.42
859.718	-4.78
859.892	-33.45
860.066	77.14
860.241	-84.65
860.415	-53.93
860.589	-12.97
860.763	21.85
860.938	36.18
861.112	27.99
861.286	-10.92
861.46	-23.21
861.634	-12.97
861.808	60.76
861.982	-4.78
862.157	-51.88
862.331	19.8
862.505	-27.31
862.679	7.51
862.853	3.41
863.027	-25.26
863.201	-10.92
863.375	-47.79
863.549	27.99
863.722	11.61
863.896	23.89
864.07	-21.16
864.244	42.32
864.418	50.52
864.592	56.66
864.766	-10.92
864.939	42.32
865.113	-43.69
865.287	25.94
865.461	11.61
865.634	5.46
865.808	27.99
865.982	11.61
866.156	-27.31
866.329	-12.97
866.503	38.23
866.676	-15.02
866.85	-15.02
867.024	-53.93
867.197	62.8
867.371	-10.92
867.544	42.32
867.718	-76.46
867.891	-8.87
868.065	-27.31
868.238	21.85
868.412	-2.73
868.585	-33.45
868.759	-10.92
868.932	-76.46
869.105	-39.59
869.279	-4.78
869.452	-60.07
869.625	11.61
869.799	19.8
869.972	-45.74
870.145	-31.4
870.319	3.41
870.492	15.7
870.665	-4.78
870.838	-17.07
871.011	-29.35
871.185	-25.26
871.358	5.46
871.531	56.66
871.704	-19.11
871.877	-45.74
872.05	1.37
872.223	-68.27
872.396	-25.26
872.569	11.61
872.742	-17.07
872.915	46.42
873.088	-23.21
873.261	46.42
873.434	-45.74
873.607	-12.97
873.78	-2.73
873.953	-84.65
874.126	-39.59
874.299	-37.55
874.471	21.85
874.644	-27.31
874.817	-41.64
874.99	44.37
875.163	3.41
875.335	-10.92
875.508	-103.08
875.681	-2.73
875.853	77.14
876.026	-4.78
876.199	-4.78
876.371	79.19
876.544	21.85
876.717	-25.26
876.889	-49.83
877.062	25.94
877.234	-0.68
877.407	-21.16
877.579	-25.26
877.752	-6.83
877.924	15.7
878.097	40.28
878.269	19.8
878.442	11.61
878.614	19.8
878.786	30.04
878.959	-12.97
879.131	-29.35
879.303	56.66
879.476	3.41
879.648	-58.03
879.82	42.32
879.993	-37.55
880.165	-41.64
880.337	9.56
880.509	-64.17
880.681	30.04
880.854	36.18
881.026	-15.02
881.198	44.37
881.37	46.42
881.542	-31.4
881.714	21.85
881.886	-27.31
882.058	-4.78
882.23	-29.35
882.402	-21.16
882.574	13.65
882.746	68.95
882.918	38.23
883.09	3.41
883.262	-33.45
883.434	-0.68
883.606	-29.35
883.778	38.23
883.95	60.76
884.122	-2.73
884.293	21.85
884.465	-0.68
884.637	30.04
884.809	25.94
884.98	25.94
885.152	19.8
885.324	87.38
885.496	-15.02
885.667	-27.31
885.839	-35.5
886.011	21.85
886.182	15.7
886.354	-27.31
886.525	-0.68
886.697	19.8
886.869	-31.4
887.04	44.37
887.212	7.51
887.383	19.8
887.555	-43.69
887.726	-49.83
887.897	-60.07
888.069	-53.93
888.24	71
888.412	-35.5
888.583	-53.93
888.754	-43.69
888.926	-4.78
889.097	-12.97
889.268	-51.88
889.44	44.37
889.611	-19.11
889.782	-64.17
889.953	5.46
890.125	-4.78
890.296	-6.83
890.467	-23.21
890.638	-49.83
890.809	52.56
890.98	-105.13
891.151	3.41
891.323	-8.87
891.494	-21.16
891.665	87.38
891.836	-23.21
892.007	-2.73
892.178	-4.78
892.349	-45.74
892.52	-49.83
892.691	60.76
892.862	-25.26
893.032	-88.75
893.203	-72.36
893.374	21.85
893.545	-17.07
893.716	-4.78
893.887	-35.5
894.057	-29.35
894.228	11.61
894.399	-17.07
894.57	36.18
894.74	-47.79
894.911	71
895.082	-31.4
895.253	-17.07
895.423	3.41
895.594	21.85
895.764	-8.87
895.935	-80.55
896.106	-19.11
896.276	21.85
896.447	-29.35
896.617	-17.07
896.788	5.46
896.958	-92.84
897.129	1.37
897.299	-2.73
897.47	-12.97
897.64	-0.68
897.81	-8.87
897.981	-21.16
898.151	-90.79
898.322	3.41
898.492	-12.97
898.662	-47.79
898.832	5.46
899.003	-29.35
899.173	-82.6
899.343	-12.97
899.513	-29.35
