Data from USB4F104151__32__13-10-56-023.txt Node

Date: Fri Mar 14 13:10:56 EDT 2025
User: louis
Spectrometer: USB4F10415
Trigger mode: 4
Integration Time (sec): 2.000000E-2
Scans to average: 1
Electric dark correction enabled: true
Nonlinearity correction enabled: false
Boxcar width: 0
XAxis mode: Wavelengths
Number of Pixels in Spectrum: 3648
>>>>>Begin Spectral Data<<<<<
178.204	-101.72
178.424	-101.72
178.644	-101.72
178.864	-103.76
179.084	-62.8
179.304	15.02
179.524	-44.37
179.744	6.83
179.964	15.02
180.184	45.74
180.404	-17.75
180.624	19.11
180.844	33.45
181.064	-19.8
181.283	-34.13
181.503	-30.04
181.723	10.92
181.943	15.02
182.163	-17.75
182.383	-56.66
182.602	55.98
182.822	8.87
183.042	19.11
183.262	-13.65
183.482	27.31
183.701	39.59
183.921	68.27
184.141	-1.37
184.361	70.31
184.58	27.31
184.8	31.4
185.02	19.11
185.239	29.35
185.459	12.97
185.679	51.88
185.898	21.16
186.118	66.22
186.338	8.87
186.557	105.13
186.777	43.69
186.997	51.88
187.216	27.31
187.436	60.07
187.655	111.27
187.875	43.69
188.095	27.31
188.314	47.79
188.534	49.83
188.753	33.45
188.973	25.26
189.192	27.31
189.412	31.4
189.631	125.61
189.851	-48.47
190.07	68.27
190.29	23.21
190.509	37.55
190.729	10.92
190.948	45.74
191.168	150.18
191.387	119.46
191.607	41.64
191.826	15.02
192.045	58.03
192.265	12.97
192.484	-44.37
192.704	60.07
192.923	8.87
193.142	41.64
193.362	15.02
193.581	29.35
193.8	15.02
194.02	101.03
194.239	37.55
194.458	15.02
194.678	74.41
194.897	78.51
195.116	-13.65
195.335	12.97
195.555	17.07
195.774	-17.75
195.993	96.94
196.212	12.97
196.432	105.13
196.651	60.07
196.87	90.79
197.089	92.84
197.308	53.93
197.528	66.22
197.747	41.64
197.966	29.35
198.185	80.55
198.404	82.6
198.623	96.94
198.842	4.78
199.062	58.03
199.281	76.46
199.5	-54.61
199.719	33.45
199.938	10.92
200.157	15.02
200.376	-7.51
200.595	-13.65
200.814	35.5
201.033	-27.99
201.252	55.98
201.471	-13.65
201.69	19.11
201.909	-13.65
202.128	45.74
202.347	107.18
202.566	80.55
202.785	27.31
203.004	70.31
203.223	94.89
203.442	12.97
203.661	-27.99
203.879	74.41
204.098	94.89
204.317	2.73
204.536	-21.85
204.755	70.31
204.974	60.07
205.193	35.5
205.411	96.94
205.63	29.35
205.849	27.31
206.068	53.93
206.287	41.64
206.505	70.31
206.724	12.97
206.943	58.03
207.162	76.46
207.381	74.41
207.599	76.46
207.818	-23.89
208.037	62.12
208.255	37.55
208.474	25.26
208.693	4.78
208.911	12.97
209.13	25.26
209.349	19.11
209.567	55.98
209.786	8.87
210.005	68.27
210.223	-11.61
210.442	10.92
210.661	33.45
210.879	37.55
211.098	60.07
211.316	80.55
211.535	101.03
211.753	33.45
211.972	58.03
212.191	15.02
212.409	47.79
212.628	8.87
212.846	64.17
213.065	101.03
213.283	17.07
213.502	37.55
213.72	64.17
213.938	0.68
214.157	86.7
214.375	-13.65
214.594	-21.85
214.812	109.22
215.031	21.16
215.249	84.65
215.467	19.11
215.686	76.46
215.904	35.5
216.122	92.84
216.341	72.36
216.559	-13.65
216.778	27.31
216.996	2.73
217.214	-11.61
217.432	31.4
217.651	-34.13
217.869	29.35
218.087	-19.8
218.306	10.92
218.524	35.5
218.742	66.22
218.96	58.03
219.179	117.42
219.397	60.07
219.615	37.55
219.833	105.13
220.051	45.74
220.27	4.78
220.488	68.27
220.706	10.92
220.924	31.4
221.142	66.22
221.36	60.07
221.578	4.78
221.796	-1.37
222.015	37.55
222.233	68.27
222.451	68.27
222.669	-23.89
222.887	12.97
223.105	10.92
223.323	27.31
223.541	78.51
223.759	84.65
223.977	35.5
224.195	58.03
224.413	17.07
224.631	0.68
224.849	55.98
225.067	94.89
225.285	21.16
225.503	80.55
225.721	-83.28
225.939	29.35
226.157	-19.8
226.375	96.94
226.592	12.97
226.81	96.94
227.028	33.45
227.246	76.46
227.464	37.55
227.682	70.31
227.9	51.88
228.117	84.65
228.335	19.11
228.553	21.16
228.771	-1.37
228.989	21.16
229.206	70.31
229.424	-5.46
229.642	55.98
229.86	6.83
230.077	-7.51
230.295	-27.99
230.513	66.22
230.731	10.92
230.948	64.17
231.166	72.36
231.384	-3.41
231.601	27.31
231.819	82.6
232.037	10.92
232.254	49.83
232.472	70.31
232.689	58.03
232.907	19.11
233.125	98.99
233.342	-54.61
233.56	37.55
233.777	55.98
233.995	55.98
234.213	10.92
234.43	15.02
234.648	0.68
234.865	103.08
235.083	92.84
235.3	43.69
235.518	62.12
235.735	60.07
235.953	37.55
236.17	35.5
236.388	6.83
236.605	12.97
236.822	60.07
237.04	39.59
237.257	80.55
237.475	82.6
237.692	51.88
237.909	37.55
238.127	43.69
238.344	23.21
238.562	80.55
238.779	-1.37
238.996	117.42
239.214	4.78
239.431	19.11
239.648	-15.7
239.865	-11.61
240.083	86.7
240.3	113.32
240.517	-32.08
240.735	113.32
240.952	103.08
241.169	76.46
241.386	68.27
241.603	12.97
241.821	43.69
242.038	51.88
242.255	113.32
242.472	21.16
242.689	35.5
242.907	66.22
243.124	68.27
243.341	92.84
243.558	88.75
243.775	53.93
243.992	-71
244.209	98.99
244.426	66.22
244.643	53.93
244.86	-5.46
245.078	6.83
245.295	29.35
245.512	-1.37
245.729	51.88
245.946	-9.56
246.163	39.59
246.38	64.17
246.597	12.97
246.814	68.27
247.031	94.89
247.248	80.55
247.464	60.07
247.681	10.92
247.898	55.98
248.115	55.98
248.332	-60.76
248.549	92.84
248.766	25.26
248.983	117.42
249.2	-1.37
249.417	31.4
249.633	62.12
249.85	109.22
250.067	35.5
250.284	58.03
250.501	43.69
250.717	88.75
250.934	-27.99
251.151	82.6
251.368	8.87
251.585	35.5
251.801	27.31
252.018	68.27
252.235	27.31
252.451	-3.41
252.668	0.68
252.885	60.07
253.102	-19.8
253.318	53.93
253.535	60.07
253.752	45.74
253.968	8.87
254.185	-21.85
254.401	37.55
254.618	86.7
254.835	17.07
255.051	19.11
255.268	45.74
255.484	47.79
255.701	-7.51
255.917	86.7
256.134	39.59
256.351	17.07
256.567	-68.95
256.784	12.97
257	15.02
257.217	72.36
257.433	55.98
257.65	101.03
257.866	68.27
258.082	8.87
258.299	37.55
258.515	88.75
258.732	15.02
258.948	-13.65
259.165	86.7
259.381	0.68
259.597	64.17
259.814	68.27
260.03	115.37
260.246	-36.18
260.463	101.03
260.679	66.22
260.895	64.17
261.112	101.03
261.328	49.83
261.544	19.11
261.761	-13.65
261.977	-17.75
262.193	29.35
262.409	55.98
262.626	25.26
262.842	64.17
263.058	-5.46
263.274	-5.46
263.49	68.27
263.707	29.35
263.923	31.4
264.139	31.4
264.355	41.64
264.571	29.35
264.787	68.27
265.004	19.11
265.22	35.5
265.436	43.69
265.652	8.87
265.868	37.55
266.084	70.31
266.3	70.31
266.516	-11.61
266.732	4.78
266.948	80.55
267.164	12.97
267.38	78.51
267.596	135.85
267.812	10.92
268.028	-5.46
268.244	2.73
268.46	-9.56
268.676	43.69
268.892	41.64
269.108	15.02
269.324	29.35
269.54	84.65
269.756	-3.41
269.972	4.78
270.188	23.21
270.403	62.12
270.619	31.4
270.835	74.41
271.051	-23.89
271.267	45.74
271.483	41.64
271.698	92.84
271.914	84.65
272.13	72.36
272.346	-3.41
272.562	74.41
272.777	43.69
272.993	-17.75
273.209	107.18
273.425	21.16
273.64	117.42
273.856	111.27
274.072	-3.41
274.287	-36.18
274.503	90.79
274.719	82.6
274.934	43.69
275.15	-40.28
275.366	39.59
275.581	-9.56
275.797	-3.41
276.012	78.51
276.228	10.92
276.444	74.41
276.659	62.12
276.875	6.83
277.09	-42.32
277.306	2.73
277.521	47.79
277.737	90.79
277.952	68.27
278.168	88.75
278.383	105.13
278.599	4.78
278.814	86.7
279.03	70.31
279.245	49.83
279.461	29.35
279.676	51.88
279.892	37.55
280.107	55.98
280.322	-75.09
280.538	84.65
280.753	-19.8
280.969	60.07
281.184	25.26
281.399	146.09
281.615	55.98
281.83	68.27
282.045	43.69
282.26	-7.51
282.476	58.03
282.691	58.03
282.906	55.98
283.122	39.59
283.337	-5.46
283.552	-5.46
283.767	2.73
283.983	0.68
284.198	29.35
284.413	53.93
284.628	-85.33
284.843	-9.56
285.058	78.51
285.274	68.27
285.489	10.92
285.704	68.27
285.919	88.75
286.134	60.07
286.349	10.92
286.564	23.21
286.779	27.31
286.995	60.07
287.21	10.92
287.425	101.03
287.64	64.17
287.855	6.83
288.07	27.31
288.285	58.03
288.5	47.79
288.715	-27.99
288.93	58.03
289.145	-9.56
289.36	17.07
289.575	103.08
289.79	103.08
290.004	-1.37
290.219	-3.41
290.434	41.64
290.649	21.16
290.864	39.59
291.079	27.31
291.294	-34.13
291.509	39.59
291.724	41.64
291.938	43.69
292.153	76.46
292.368	39.59
292.583	31.4
292.798	-13.65
293.012	64.17
293.227	62.12
293.442	51.88
293.657	76.46
293.871	101.03
294.086	35.5
294.301	51.88
294.516	158.38
294.73	35.5
294.945	41.64
295.16	58.03
295.374	96.94
295.589	90.79
295.804	12.97
296.018	64.17
296.233	70.31
296.447	43.69
296.662	31.4
296.877	35.5
297.091	88.75
297.306	64.17
297.52	2.73
297.735	45.74
297.949	12.97
298.164	96.94
298.378	2.73
298.593	-11.61
298.807	15.02
299.022	101.03
299.236	27.31
299.451	45.74
299.665	12.97
299.88	49.83
300.094	-15.7
300.309	49.83
300.523	2.73
300.737	37.55
300.952	70.31
301.166	60.07
301.381	41.64
301.595	29.35
301.809	-25.94
302.024	35.5
302.238	-68.95
302.452	53.93
302.667	12.97
302.881	41.64
303.095	78.51
303.309	0.68
303.524	21.16
303.738	49.83
303.952	23.21
304.166	60.07
304.381	-25.94
304.595	8.87
304.809	8.87
305.023	64.17
305.237	6.83
305.452	47.79
305.666	17.07
305.88	103.08
306.094	94.89
306.308	51.88
306.522	-17.75
306.736	62.12
306.95	25.26
307.164	45.74
307.379	-1.37
307.593	53.93
307.807	27.31
308.021	84.65
308.235	-23.89
308.449	27.31
308.663	82.6
308.877	92.84
309.091	62.12
309.305	-15.7
309.519	-1.37
309.733	117.42
309.947	2.73
310.161	53.93
310.374	62.12
310.588	68.27
310.802	37.55
311.016	19.11
311.23	27.31
311.444	62.12
311.658	64.17
311.872	60.07
312.085	29.35
312.299	103.08
312.513	55.98
312.727	139.94
312.941	-50.52
313.154	21.16
313.368	12.97
313.582	10.92
313.796	41.64
314.009	-9.56
314.223	64.17
314.437	117.42
314.651	55.98
314.864	78.51
315.078	53.93
315.292	27.31
315.505	41.64
315.719	58.03
315.933	76.46
316.146	-7.51
316.36	-42.32
316.573	55.98
316.787	84.65
317.001	76.46
317.214	76.46
317.428	80.55
317.641	53.93
317.855	25.26
318.068	2.73
318.282	101.03
318.495	101.03
318.709	39.59
318.922	10.92
319.136	27.31
319.349	51.88
319.563	117.42
319.776	47.79
319.99	49.83
320.203	76.46
320.417	47.79
320.63	37.55
320.843	125.61
321.057	68.27
321.27	-5.46
321.483	43.69
321.697	35.5
321.91	12.97
322.124	19.11
322.337	33.45
322.55	39.59
322.763	27.31
322.977	-21.85
323.19	-7.51
323.403	29.35
323.617	10.92
323.83	29.35
324.043	-11.61
324.256	39.59
324.469	12.97
324.683	98.99
324.896	70.31
325.109	6.83
325.322	41.64
325.535	94.89
325.748	70.31
325.962	117.42
326.175	45.74
326.388	88.75
326.601	29.35
326.814	-36.18
327.027	84.65
327.24	107.18
327.453	31.4
327.666	82.6
327.879	60.07
328.092	119.46
328.305	12.97
328.518	23.21
328.731	68.27
328.944	49.83
329.157	92.84
329.37	33.45
329.583	76.46
329.796	92.84
330.009	37.55
330.222	74.41
330.435	4.78
330.648	60.07
330.861	53.93
331.073	43.69
331.286	39.59
331.499	4.78
331.712	15.02
331.925	45.74
332.138	70.31
332.35	60.07
332.563	10.92
332.776	121.51
332.989	76.46
333.202	94.89
333.414	-7.51
333.627	58.03
333.84	8.87
334.053	25.26
334.265	98.99
334.478	0.68
334.691	45.74
334.903	64.17
335.116	-19.8
335.329	31.4
335.541	64.17
335.754	113.32
335.966	39.59
336.179	27.31
336.392	55.98
336.604	29.35
336.817	15.02
337.029	101.03
337.242	60.07
337.454	74.41
337.667	66.22
337.88	4.78
338.092	-38.23
338.305	76.46
338.517	78.51
338.729	15.02
338.942	64.17
339.154	41.64
339.367	84.65
339.579	19.11
339.792	41.64
340.004	66.22
340.217	68.27
340.429	6.83
340.641	-3.41
340.854	10.92
341.066	133.8
341.278	37.55
341.491	80.55
341.703	58.03
341.915	78.51
342.128	68.27
342.34	45.74
342.552	-13.65
342.764	70.31
342.977	-11.61
343.189	90.79
343.401	60.07
343.613	19.11
343.826	27.31
344.038	10.92
344.25	47.79
344.462	64.17
344.674	74.41
344.886	94.89
345.099	86.7
345.311	2.73
345.523	76.46
345.735	12.97
345.947	23.21
346.159	76.46
346.371	19.11
346.583	-17.75
346.795	94.89
347.007	111.27
347.219	58.03
347.431	2.73
347.643	64.17
347.855	-9.56
348.067	45.74
348.279	53.93
348.491	127.66
348.703	-1.37
348.915	33.45
349.127	62.12
349.339	45.74
349.551	92.84
349.763	70.31
349.975	21.16
350.187	62.12
350.399	55.98
350.61	86.7
350.822	27.31
351.034	94.89
351.246	82.6
351.458	103.08
351.669	51.88
351.881	72.36
352.093	41.64
352.305	49.83
352.517	82.6
352.728	35.5
352.94	33.45
353.152	80.55
353.363	53.93
353.575	109.22
353.787	51.88
353.999	141.99
354.21	15.02
354.422	66.22
354.633	62.12
354.845	68.27
355.057	53.93
355.268	72.36
355.48	60.07
355.692	35.5
355.903	103.08
356.115	68.27
356.326	-13.65
356.538	105.13
356.749	84.65
356.961	152.23
357.172	12.97
357.384	37.55
357.595	109.22
357.807	51.88
358.018	92.84
358.23	10.92
358.441	82.6
358.653	70.31
358.864	53.93
359.075	-38.23
359.287	43.69
359.498	78.51
359.709	82.6
359.921	10.92
360.132	31.4
360.344	43.69
360.555	12.97
360.766	80.55
360.977	84.65
361.189	27.31
361.4	15.02
361.611	49.83
361.823	121.51
362.034	96.94
362.245	31.4
362.456	62.12
362.667	80.55
362.879	6.83
363.09	76.46
363.301	70.31
363.512	47.79
363.723	78.51
363.935	-17.75
364.146	21.16
364.357	2.73
364.568	41.64
364.779	0.68
364.99	62.12
365.201	35.5
365.412	68.27
365.623	25.26
365.834	84.65
366.045	27.31
366.256	37.55
366.467	-13.65
366.678	82.6
366.889	45.74
367.1	76.46
367.311	23.21
367.522	41.64
367.733	17.07
367.944	113.32
368.155	53.93
368.366	103.08
368.577	94.89
368.788	70.31
368.999	27.31
369.209	51.88
369.42	144.04
369.631	66.22
369.842	37.55
370.053	68.27
370.264	43.69
370.474	-13.65
370.685	74.41
370.896	27.31
371.107	135.85
371.317	92.84
371.528	55.98
371.739	86.7
371.95	60.07
372.16	78.51
372.371	19.11
372.582	70.31
372.792	72.36
373.003	43.69
373.214	76.46
373.424	86.7
373.635	-30.04
373.846	109.22
374.056	66.22
374.267	10.92
374.477	19.11
374.688	45.74
374.898	-5.46
375.109	70.31
375.319	80.55
375.53	68.27
375.74	33.45
375.951	60.07
376.161	72.36
376.372	10.92
376.582	-7.51
376.793	64.17
377.003	4.78
377.214	53.93
377.424	115.37
377.635	43.69
377.845	-7.51
378.055	53.93
378.266	-5.46
378.476	53.93
378.686	86.7
378.897	35.5
379.107	45.74
379.317	64.17
379.528	31.4
379.738	43.69
379.948	43.69
380.158	76.46
380.369	21.16
380.579	45.74
380.789	27.31
380.999	82.6
381.21	-9.56
381.42	47.79
381.63	43.69
381.84	141.99
382.05	133.8
382.261	60.07
382.471	68.27
382.681	31.4
382.891	76.46
383.101	23.21
383.311	41.64
383.521	58.03
383.731	66.22
383.941	51.88
384.151	90.79
384.361	64.17
384.571	131.75
384.781	78.51
384.991	51.88
385.201	115.37
385.411	37.55
385.621	103.08
385.831	101.03
386.041	15.02
386.251	43.69
386.461	191.14
386.671	23.21
386.881	66.22
387.091	39.59
387.301	51.88
387.511	76.46
387.72	88.75
387.93	-7.51
388.14	88.75
388.35	80.55
388.56	64.17
388.769	35.5
388.979	70.31
389.189	55.98
389.399	86.7
389.609	86.7
389.818	94.89
390.028	23.21
390.238	41.64
390.447	76.46
390.657	119.46
390.867	92.84
391.076	103.08
391.286	51.88
391.496	105.13
391.705	64.17
391.915	19.11
392.125	84.65
392.334	64.17
392.544	35.5
392.753	12.97
392.963	47.79
393.172	49.83
393.382	58.03
393.591	182.95
393.801	35.5
394.01	113.32
394.22	74.41
394.429	94.89
394.639	51.88
394.848	109.22
395.058	135.85
395.267	66.22
395.477	23.21
395.686	123.56
395.895	33.45
396.105	111.27
396.314	98.99
396.524	51.88
396.733	76.46
396.942	62.12
397.152	-1.37
397.361	98.99
397.57	60.07
397.78	107.18
397.989	84.65
398.198	176.81
398.407	119.46
398.617	133.8
398.826	66.22
399.035	113.32
399.244	160.42
399.453	154.28
399.663	84.65
399.872	105.13
400.081	68.27
400.29	117.42
400.499	101.03
400.708	109.22
400.917	109.22
401.127	84.65
401.336	10.92
401.545	162.47
401.754	96.94
401.963	47.79
402.172	43.69
402.381	86.7
402.59	86.7
402.799	82.6
403.008	207.53
403.217	64.17
403.426	144.04
403.635	205.48
403.844	133.8
404.053	170.66
404.262	103.08
404.471	84.65
404.68	70.31
404.888	133.8
405.097	117.42
405.306	117.42
405.515	168.62
405.724	158.38
405.933	137.9
406.142	152.23
406.35	248.49
406.559	164.52
406.768	166.57
406.977	223.91
407.185	158.38
407.394	160.42
407.603	90.79
407.812	217.77
408.02	201.38
408.229	170.66
408.438	187.05
408.646	182.95
408.855	187.05
409.064	215.72
409.272	211.62
409.481	246.44
409.69	141.99
409.898	228.01
410.107	211.62
410.315	244.39
410.524	285.35
410.733	279.21
410.941	221.86
411.15	361.13
411.358	334.5
411.567	365.22
411.775	299.69
411.984	307.88
412.192	260.77
412.401	289.45
412.609	344.74
412.818	420.52
413.026	416.42
413.234	383.65
413.443	381.6
413.651	424.61
413.86	455.33
414.068	469.67
414.276	404.13
414.485	475.81
414.693	535.2
414.901	582.31
415.11	555.68
415.318	504.48
415.526	471.72
415.734	484
415.943	555.68
416.151	686.75
416.359	598.69
416.567	639.65
416.776	586.4
416.984	729.76
417.192	719.52
417.4	627.36
417.608	674.46
417.817	785.05
418.025	821.92
418.233	875.17
418.441	774.81
418.649	903.84
418.857	848.54
419.065	946.84
419.273	1002.14
419.481	1039
419.689	1020.57
419.897	1139.35
420.105	1088.15
420.313	1141.4
420.521	1198.74
420.729	1190.55
420.937	1174.17
421.145	1297.05
421.353	1335.96
421.561	1393.3
421.769	1397.4
421.977	1501.84
422.185	1428.12
422.393	1522.32
422.601	1688.21
422.809	1690.26
423.017	1669.78
423.224	1704.59
423.432	1786.51
423.64	1858.19
423.848	1895.05
424.056	1948.3
424.263	2019.98
424.471	2165.39
424.679	2110.09
424.887	2130.57
425.094	2312.84
425.302	2263.69
425.51	2337.41
425.718	2511.49
425.925	2374.28
426.133	2478.72
426.341	2620.03
426.548	2822.78
426.756	2747.01
426.964	2882.17
427.171	3058.3
427.379	3197.56
427.586	3140.22
427.794	3142.27
428.001	3369.59
428.209	3670.64
428.417	3443.32
428.624	3748.47
428.832	3709.55
429.039	3838.58
429.247	3811.95
429.454	4033.13
429.662	4338.28
429.869	3979.89
430.076	4463.21
430.284	4256.36
430.491	4323.94
430.699	4635.24
430.906	4721.25
431.114	4844.13
431.321	4956.77
431.528	4921.95
431.736	5306.97
431.943	5755.47
432.15	5317.21
432.358	5519.96
432.565	5782.1
432.772	5775.95
432.979	5978.7
433.187	6212.17
433.394	6117.97
433.601	6580.81
433.808	6505.03
434.016	6593.09
434.223	6941.25
434.43	7342.65
434.637	7250.49
434.844	7467.58
435.052	7758.39
435.259	7834.16
435.466	7658.04
435.673	7674.42
435.88	8286.76
436.087	8596.01
436.294	8651.3
436.501	8329.77
436.708	8641.06
436.915	8927.78
437.122	9163.29
437.329	9234.97
437.537	9574.94
437.743	9890.32
437.95	9583.13
438.157	10146.32
438.364	10549.77
438.571	10390.03
438.778	10566.15
438.985	11426.3
439.192	10983.94
439.399	11401.72
439.606	11207.17
439.813	11821.56
440.02	12585.45
440.227	12452.33
440.433	12179.95
440.64	12737
440.847	12423.66
441.054	12648.94
441.261	13636.06
441.467	13738.46
441.674	13818.33
441.881	14328.27
442.088	14281.17
442.294	14303.7
442.501	14371.28
442.708	14639.56
442.914	15315.39
443.121	15811
443.328	15690.17
443.534	16767.4
443.741	16081.33
443.948	15780.28
444.154	17246.63
444.361	17019.3
444.568	17340.83
444.774	17197.48
444.981	17373.6
445.187	17985.94
445.394	18661.77
445.6	18485.65
445.807	20308.34
446.013	19386.75
446.22	19829.12
446.426	20822.38
446.633	20730.22
446.839	21490.02
447.046	20574.58
447.252	21598.56
447.459	22026.59
447.665	21721.44
447.871	22546.77
448.078	23537.99
448.284	22409.56
448.491	23183.69
448.697	24123.71
448.903	24435
449.11	24764.72
449.316	24219.96
449.522	24742.19
449.728	25268.52
449.935	25575.72
450.141	25692.45
450.347	26351.9
450.553	25497.89
450.76	25870.62
450.966	26728.72
451.172	26454.29
451.378	26896.66
451.584	26712.34
451.791	26976.53
451.997	27285.77
452.203	27400.46
452.409	27787.52
452.615	27572.49
452.821	26568.98
453.027	26331.42
453.233	27752.71
453.44	26777.87
453.646	26745.11
453.852	26941.71
454.058	27271.43
454.264	26849.55
454.47	27486.47
454.676	26544.41
454.882	27789.57
455.088	25030.96
455.294	25239.85
455.5	26032.41
455.705	26206.49
455.911	25172.27
456.117	24764.72
456.323	24516.92
456.529	23386.44
456.735	23894.33
456.941	23671.11
457.147	22892.88
457.352	22485.33
457.558	22245.72
457.764	22407.51
457.97	22040.92
458.176	21322.09
458.381	21426.53
458.587	20281.72
458.793	20560.24
458.999	19214.73
459.204	20488.56
459.41	19933.56
459.616	18907.53
459.821	19030.41
460.027	18975.11
460.233	18639.25
460.438	17658.27
460.644	17799.58
460.85	16767.4
461.055	16855.47
461.261	16697.77
461.466	15481.28
461.672	14825.93
461.878	16085.43
462.083	14782.92
462.289	14584.27
462.494	14701
462.7	13724.12
462.905	13222.37
463.111	14043.6
463.316	14025.17
463.522	13593.05
463.727	13666.78
463.932	13689.31
464.138	13638.11
464.343	13529.56
464.549	13015.52
464.754	13687.26
464.959	13461.98
465.165	13181.41
465.37	12982.76
465.575	12315.12
465.781	13021.67
465.986	13011.43
466.191	12433.9
466.397	12411.37
466.602	11651.58
466.807	12249.58
467.012	12188.14
467.218	12077.55
467.423	11895.29
467.628	12225.01
467.833	12698.09
468.038	12270.06
468.244	11618.81
468.449	12427.76
468.654	11788.79
468.859	11753.98
469.064	11942.39
469.269	11213.31
469.474	11291.13
469.679	11620.86
469.885	11172.35
470.09	11647.48
470.295	11297.28
470.5	11033.09
470.705	11110.91
470.91	10955.27
471.115	10942.98
471.32	10873.35
471.525	10729.99
471.73	10463.75
471.935	10672.65
472.139	10252.81
472.344	10238.48
472.549	10299.92
472.754	10293.77
472.959	9994.77
473.164	9570.84
473.369	9769.49
473.574	10154.51
473.778	9669.14
473.983	9728.53
474.188	9660.95
474.393	9368.09
474.598	9378.33
474.802	9312.8
475.007	9153.05
475.212	9499.16
475.417	8811.04
475.621	8985.12
475.826	8946.21
476.031	8624.68
476.235	8464.94
476.44	8704.55
476.645	8608.3
476.849	8567.34
477.054	8518.18
477.259	8417.83
477.463	8348.2
477.668	8149.55
477.872	8292.91
478.077	8129.07
478.282	7760.44
478.486	7772.72
478.691	7819.83
478.895	7739.96
479.1	7709.24
479.304	7651.89
479.509	7551.54
479.713	7774.77
479.918	7477.82
480.122	7256.64
480.326	7711.28
480.531	7424.57
480.735	7508.54
480.94	7223.87
481.144	7473.72
481.348	7197.24
481.553	7307.84
481.757	7098.94
481.961	7270.97
482.166	7211.58
482.37	7125.57
482.574	7182.91
482.778	7213.63
482.983	7377.47
483.187	6994.5
483.391	7242.3
483.595	7041.6
483.8	6984.26
484.004	7070.27
484.208	7008.83
484.412	7197.24
484.616	7350.84
484.821	7113.28
485.025	6978.11
485.229	7107.13
485.433	7191.1
485.637	7303.74
485.841	7010.88
486.045	7041.6
486.249	7119.42
486.453	7047.74
486.657	7170.62
486.861	7225.92
487.065	7174.72
487.269	7334.46
487.473	6992.45
487.677	7045.7
487.881	7277.12
488.085	7113.28
488.289	7227.96
488.493	7227.96
488.697	7207.48
488.901	7277.12
489.105	7043.65
489.309	7275.07
489.512	7350.84
489.716	7219.77
489.92	7225.92
490.124	7195.2
490.328	7408.19
490.531	7283.26
490.735	7391.8
490.939	7391.8
491.143	7475.77
491.346	7432.76
491.55	7535.16
491.754	7445.05
491.958	7399.99
492.161	7473.72
492.365	7641.65
492.569	7473.72
492.772	7580.21
492.976	7510.58
493.18	7805.49
493.383	7860.79
493.587	7746.1
493.79	7817.78
493.994	7838.26
494.197	7725.62
494.401	7785.01
494.605	8002.1
494.808	8008.24
495.012	8008.24
495.215	8188.46
495.419	8061.49
495.622	8135.21
495.825	8327.72
496.029	8305.2
496.232	8348.2
496.436	8450.6
496.639	8604.2
496.843	8405.55
497.046	8647.21
497.249	8895.01
497.453	8811.04
497.656	8997.41
497.859	8878.63
498.063	9177.63
498.266	9198.11
498.469	9298.46
498.673	9611.8
498.876	9628.18
499.079	9669.14
499.282	9515.55
499.485	9894.42
499.689	9701.91
499.892	10025.49
500.095	10048.02
500.298	10273.29
500.501	10086.93
500.705	10506.76
500.908	10453.52
501.111	10668.55
501.314	10809.86
501.517	10830.34
501.72	10930.69
501.923	10916.36
502.126	11432.44
502.329	11420.16
502.532	11506.17
502.735	11504.12
502.938	11706.87
503.141	11598.33
503.344	12100.08
503.547	12038.64
503.75	12206.58
503.953	12446.19
504.156	12372.46
504.359	12575.21
504.562	12470.76
504.765	12964.32
504.968	12909.03
505.17	12956.13
505.373	13187.55
505.576	13494.75
505.779	13486.56
505.982	13646.3
506.185	14049.75
506.387	14076.37
506.59	13849.05
506.793	14139.86
506.996	14358.99
507.198	14733.77
507.401	14406.09
507.604	14768.59
507.807	15313.34
508.009	14954.95
508.212	15307.2
508.415	15557.05
508.617	15667.64
508.82	15706.55
509.022	15485.37
509.225	16175.54
509.428	16265.65
509.63	16411.06
509.833	16509.36
510.035	16824.75
510.238	16609.71
510.44	16779.69
510.643	17035.69
510.845	17283.49
511.048	17129.89
511.25	17476
511.453	17633.69
511.655	18459.02
511.858	18180.5
512.06	18413.97
512.262	18436.5
512.465	18553.23
512.667	18901.39
512.87	19163.53
513.072	19186.05
513.274	19247.49
513.477	19417.47
513.679	19888.51
513.881	19988.86
514.084	20271.48
514.286	20087.16
514.488	20175.22
514.69	20912.49
514.893	20613.49
515.095	21053.8
515.297	21105
515.499	21242.21
515.701	21840.22
515.904	22030.68
516.106	21829.98
516.308	22157.66
516.51	22346.07
516.712	22524.24
516.914	22638.93
517.116	22958.41
517.318	23296.33
517.52	23277.9
517.722	23517.51
517.925	23527.75
518.127	23873.85
518.329	24377.65
518.531	24027.45
518.733	24717.62
518.935	24834.35
519.136	24785.2
519.338	25274.66
519.54	25426.21
519.742	25618.72
519.944	25704.74
520.146	26222.87
520.348	26063.13
520.55	26085.66
520.752	26345.75
520.954	26476.82
521.155	26693.91
521.357	26802.45
521.559	27357.45
521.761	27615.49
521.963	27658.5
522.164	27912.45
522.366	27699.46
522.568	27955.46
522.77	28121.34
522.971	28762.36
523.173	28604.66
523.375	28778.74
523.576	28940.53
523.778	28821.75
523.98	29425.9
524.181	29544.68
524.383	29264.11
524.584	29855.97
524.786	29837.54
524.988	29987.04
525.189	29993.18
525.391	30562.52
525.592	30658.77
525.794	30685.4
525.995	30677.21
526.197	30814.42
526.398	31004.88
526.6	31283.41
526.801	31375.56
527.003	31510.73
527.204	31518.92
527.406	31795.4
527.607	31899.84
527.808	31574.22
528.01	31588.55
528.211	32123.07
528.412	32196.8
528.614	32413.88
528.815	32555.19
529.016	32542.91
529.218	32245.95
529.419	32557.24
529.62	32489.66
529.822	32463.04
530.023	32882.87
530.224	32630.97
530.425	33073.33
530.626	32450.75
530.828	32460.99
531.029	33372.33
531.23	33145.01
531.431	32997.56
531.632	33009.84
531.833	33392.81
532.035	33161.39
532.236	33110.19
532.437	33224.88
532.638	33095.86
532.839	33484.97
533.04	33583.27
533.241	33173.68
533.442	33906.85
533.643	33675.43
533.844	33478.83
534.045	33370.29
534.246	33548.46
534.447	33593.51
534.648	33292.46
534.849	33611.95
535.05	33675.43
535.251	33740.97
535.451	33388.72
535.652	33515.69
535.853	33855.65
536.054	33888.42
536.255	33648.81
536.456	33589.42
536.657	34396.32
536.857	33906.85
537.058	33568.94
537.259	33935.52
537.46	33462.44
537.66	33595.56
537.861	33644.71
538.062	33521.84
538.263	33759.4
538.463	33382.57
538.664	33603.75
538.865	33525.93
539.065	34095.27
539.266	33261.74
539.466	33865.89
539.667	33378.48
539.868	33794.22
540.068	33685.67
540.269	33657
540.469	33626.28
540.67	33609.9
540.87	33652.91
541.071	33593.51
541.271	33786.02
541.472	33581.23
541.672	33558.7
541.873	33218.74
542.073	33106.1
542.274	33749.16
542.474	33652.91
542.675	33171.63
542.875	33849.51
543.075	33454.25
543.276	33231.02
543.476	33982.63
543.676	33155.25
543.877	33538.22
544.077	33392.81
544.277	33472.68
544.478	33511.6
544.678	33446.06
544.878	33591.47
545.078	33659.05
545.279	33370.29
545.479	33360.05
545.679	33458.35
545.879	33431.72
546.079	33460.4
546.28	33069.23
546.48	32823.48
546.68	33433.77
546.88	33519.79
547.08	33323.18
547.28	33286.32
547.48	33188.02
547.68	33237.17
547.88	32968.88
548.081	33196.21
548.281	33112.24
548.481	32911.54
548.681	33599.66
548.881	33290.41
549.081	33503.4
549.28	32944.31
549.48	33775.78
549.68	32983.22
549.88	33695.91
550.08	33161.39
550.28	33024.18
550.48	33282.22
550.68	33603.75
550.88	33052.85
551.08	33185.97
551.279	33472.68
551.479	32950.45
551.679	33341.61
551.879	32911.54
552.079	32962.74
552.278	33032.37
552.478	32977.08
552.678	32954.55
552.878	33249.46
553.077	33026.23
553.277	32774.33
553.477	33796.26
553.676	32913.59
553.876	32723.13
554.076	32626.87
554.275	32934.07
554.475	32850.1
554.674	33157.3
554.874	32643.26
555.074	32827.57
555.273	32929.97
555.473	32608.44
555.672	32669.88
555.872	32645.3
556.071	32671.93
556.271	32977.08
556.47	32755.89
556.67	32508.09
556.869	32698.55
557.068	32682.17
557.268	32528.57
557.467	32540.86
557.667	32383.16
557.866	32270.53
558.065	32172.22
558.265	32635.06
558.464	32172.22
558.663	32051.39
558.863	32291.01
559.062	32520.38
559.261	32047.3
559.461	32288.96
559.66	31785.16
559.859	31924.42
560.058	31774.92
560.258	31631.56
560.457	31602.89
560.656	31740.1
560.855	31428.81
561.054	31910.08
561.253	31500.49
561.453	31553.74
561.652	31486.15
561.851	31656.14
562.05	31234.25
562.249	31234.25
562.448	31719.62
562.647	31400.14
562.846	31451.34
563.045	31523.02
563.244	30992.59
563.443	31449.29
563.642	30882
563.841	30828.76
564.04	30716.12
564.239	31267.02
564.438	30873.81
564.637	30963.92
564.836	30935.25
565.035	30640.34
565.234	30736.6
565.432	30529.75
565.631	30095.58
565.83	30593.24
566.029	30195.93
566.228	30308.57
566.427	30005.47
566.625	29878.5
566.824	29882.59
567.023	30025.95
567.222	29501.67
567.42	30230.75
567.619	29950.18
567.818	29810.92
568.016	29849.83
568.215	30148.83
568.414	29532.39
568.612	29886.69
568.811	29620.45
569.01	29583.59
569.208	29124.85
569.407	29409.51
569.605	28911.86
569.804	29685.99
570.002	29223.15
570.201	29024.5
570.4	29024.5
570.598	28700.92
570.797	28788.98
570.995	28870.9
571.193	28395.77
571.392	28946.67
571.59	28492.02
571.789	28840.18
571.987	28545.27
572.186	28571.89
572.384	28508.41
572.582	28375.29
572.781	28436.73
572.979	27840.77
573.177	28217.6
573.376	28563.7
573.574	27586.82
573.772	27996.42
573.971	27566.34
574.169	27400.46
574.367	27531.53
574.565	27592.97
574.763	27388.17
574.962	27420.94
575.16	27070.73
575.358	27232.52
575.556	27175.18
575.754	27455.75
575.952	26978.57
576.151	27443.46
576.349	27128.08
576.547	26943.76
576.745	26814.74
576.943	26749.2
577.141	26646.8
577.339	26966.29
577.537	26566.93
577.735	26437.91
577.933	26274.07
578.131	26460.44
578.329	26206.49
578.527	26108.19
578.725	26601.75
578.923	26351.9
579.121	26249.5
579.319	26091.8
579.516	26147.1
579.714	26159.39
579.912	25751.84
580.11	26009.89
580.308	25995.55
580.506	25559.33
580.704	25465.13
580.901	25844
581.099	25723.17
581.297	25274.66
581.495	25172.27
581.692	25440.55
581.89	25305.38
582.088	25375.02
582.285	25166.12
582.483	25432.36
582.681	25280.81
582.878	24838.45
583.076	24901.93
583.274	24871.22
583.471	24527.16
583.669	24787.25
583.866	24441.14
584.064	25008.43
584.262	24449.33
584.459	24693.04
584.657	24381.75
584.854	24619.31
585.052	24004.92
585.249	24189.24
585.447	24342.84
585.644	23970.11
585.841	24047.93
586.039	24146.23
586.236	24131.9
586.434	23847.23
586.631	23753.02
586.828	23816.51
587.026	23943.49
587.223	23628.1
587.42	23472.45
587.618	23484.74
587.815	23488.84
588.012	23267.66
588.21	23349.57
588.407	23675.2
588.604	23298.38
588.801	23085.39
588.999	23101.77
589.196	22794.57
589.393	22808.91
589.59	22931.79
589.787	22700.37
589.984	22829.39
590.182	22542.67
590.379	22776.14
590.576	22507.86
590.773	22518.1
590.97	22407.51
591.167	22675.79
591.364	22161.75
591.561	22020.44
591.758	21778.78
591.955	22215
592.152	22157.66
592.349	21805.41
592.546	21975.39
592.743	22079.83
592.94	21643.62
593.137	21901.66
593.334	21842.27
593.531	21414.24
593.727	21635.42
593.924	21686.62
594.121	21229.93
594.318	21500.26
594.515	21225.83
594.712	21592.42
594.908	21500.26
595.105	21303.65
595.302	21084.52
595.499	21315.94
595.696	20859.24
595.892	20947.31
596.089	21102.95
596.286	20810.09
596.482	20887.92
596.679	20646.26
596.876	20756.85
597.072	20623.73
597.269	20785.52
597.466	20152.7
597.662	20201.85
597.859	20144.5
598.055	20586.86
598.252	20111.74
598.448	19988.86
598.645	20351.35
598.841	20132.22
599.038	19861.88
599.234	19974.52
599.431	19626.37
599.627	19667.33
599.824	20097.4
600.02	19849.6
600.217	19788.16
600.413	19597.7
600.609	19480.96
600.806	19382.66
601.002	19636.61
601.198	19239.3
601.395	19190.15
601.591	19417.47
601.787	19261.83
601.984	19132.81
602.18	19427.71
602.376	19081.61
602.572	18958.73
602.769	18954.63
602.965	18805.13
603.161	18731.4
603.357	18823.56
603.553	18698.64
603.75	18680.21
603.946	18649.49
604.142	18729.36
604.338	18358.67
604.534	18643.34
604.73	18426.26
604.926	18053.53
605.122	18051.48
605.318	18162.07
605.514	18041.24
605.71	18235.8
605.906	18080.15
606.102	17807.77
606.298	17852.83
606.494	18057.62
606.69	18096.53
606.886	17674.65
607.082	17856.92
607.278	17924.51
607.474	17605.02
607.67	17938.84
607.866	17641.89
608.062	17725.85
608.257	17359.27
608.453	17621.41
608.649	17576.35
608.845	17201.57
609.041	17336.74
609.236	17336.74
609.432	17199.52
609.628	17402.27
609.824	17351.07
610.019	16970.15
610.215	17326.5
610.411	17412.51
610.606	17025.45
610.802	16882.09
610.998	16951.72
611.193	17174.95
611.389	16591.28
611.584	17021.35
611.78	16363.95
611.976	16714.16
612.171	16816.55
612.367	16499.12
612.562	16679.34
612.758	16468.4
612.953	16585.13
613.149	16738.73
613.344	16452.02
613.539	16910.76
613.735	16433.58
613.93	16607.66
614.126	16622
614.321	16538.03
614.517	16292.27
614.712	16390.58
614.907	16417.2
615.103	16267.7
615.298	16271.79
615.493	16304.56
615.688	16208.31
615.884	16535.98
616.079	16101.81
616.274	16273.84
616.47	16349.62
616.665	15954.36
616.86	16050.61
617.055	16007.61
617.25	15978.93
617.445	16292.27
617.641	15745.47
617.836	15976.89
618.031	15704.51
618.226	15854.01
618.421	15733.18
618.616	15704.51
618.811	15325.63
619.006	15757.75
619.201	15088.07
619.396	15600.06
619.591	15149.51
619.786	15380.93
619.981	15282.63
620.176	15346.11
620.371	15200.71
620.566	14971.33
620.761	15104.45
620.956	15204.8
621.151	14881.22
621.346	14807.5
621.541	14668.23
621.735	15051.2
621.93	14541.26
622.125	14477.77
622.32	14354.9
622.515	14576.08
622.709	14205.39
622.904	14244.31
623.099	14197.2
623.294	14236.11
623.488	14094.8
623.683	14107.09
623.878	13887.96
624.072	13834.71
624.267	13922.77
624.462	13488.6
624.656	13720.03
624.851	13586.91
625.046	13603.29
625.24	13464.03
625.435	13332.96
625.629	13341.15
625.824	13255.14
626.018	13113.83
626.213	12999.14
626.407	13107.68
626.602	12896.74
626.796	12845.54
626.991	12777.96
627.185	12812.78
627.38	12669.42
627.574	12675.56
627.768	12585.45
627.963	12585.45
628.157	12425.71
628.352	12372.46
628.546	12182
628.74	12356.08
628.935	12001.78
629.129	12251.63
629.323	11989.49
629.517	11893.24
629.712	12052.98
629.906	12024.31
630.1	11790.84
630.294	11809.27
630.489	11878.9
630.683	11631.1
630.877	11467.26
631.071	11534.84
631.265	11606.52
631.459	11387.39
631.653	11444.73
631.848	11205.12
632.042	11274.75
632.236	11219.46
632.43	11065.86
632.624	11225.6
632.818	10979.84
633.012	11041.28
633.206	10750.47
633.4	10936.84
633.594	10805.77
633.788	10887.68
633.982	10748.42
634.176	10490.38
634.369	10590.73
634.563	10508.81
634.757	10383.88
634.951	10398.22
635.145	10385.93
635.339	10365.45
635.533	10369.55
635.726	10375.69
635.92	10142.22
636.114	10209.81
636.308	10023.44
636.501	10127.89
636.695	10009.11
636.889	9935.38
637.083	10043.92
637.276	9884.18
637.47	9714.2
637.664	9880.08
637.857	9886.23
638.051	9644.57
638.244	9384.48
638.438	9617.94
638.632	9224.73
638.825	9337.37
639.019	9484.83
639.212	9251.36
639.406	9378.33
639.599	9216.54
639.793	9097.76
639.986	9103.9
640.18	9140.77
640.373	9202.21
640.567	8925.73
640.76	8962.59
640.954	8811.04
641.147	8796.71
641.34	8718.89
641.534	8845.86
641.727	8901.15
641.92	8714.79
642.114	8524.33
642.307	8546.86
642.5	8620.58
642.694	8460.84
642.887	8311.34
643.08	8518.18
643.273	8358.44
643.467	8442.41
643.66	8368.68
643.853	8157.74
644.046	8122.93
644.239	8219.18
644.432	8129.07
644.626	8090.16
644.819	7676.47
645.012	7854.64
645.205	8149.55
645.398	7922.23
645.591	7889.46
645.784	7899.7
645.977	7711.28
646.17	7725.62
646.363	7580.21
646.556	7653.94
646.749	7744.05
646.942	7543.35
647.135	7354.94
647.328	7500.34
647.521	7449.14
647.714	7207.48
647.907	7451.19
648.099	7449.14
648.292	7445.05
648.485	7399.99
648.678	7055.94
648.871	7096.89
649.064	7129.66
649.256	7248.44
649.449	7109.18
649.642	7234.11
649.835	7047.74
650.027	6898.24
650.22	7023.17
650.413	7096.89
650.605	6705.73
650.798	6890.05
650.991	6765.12
651.183	6834.75
651.376	6738.5
651.568	6632.01
651.761	6589
651.954	6609.48
652.146	6566.47
652.339	6758.98
652.531	6695.49
652.724	6474.31
652.916	6353.48
653.109	6574.66
653.301	6498.89
653.494	6365.77
653.686	6357.58
653.879	6275.66
654.071	6249.04
654.263	6242.89
654.456	6361.67
654.648	6226.51
654.84	6068.81
655.033	6019.66
655.225	6105.68
655.417	6040.14
655.61	5794.39
655.802	6015.57
655.994	5958.22
656.186	5943.89
656.379	5894.74
656.571	5925.46
656.763	6050.38
656.955	5870.16
657.148	5732.95
657.34	5825.11
657.532	5712.47
657.724	5849.68
657.916	5739.09
658.108	5759.57
658.3	5491.29
658.492	5515.86
658.684	5605.97
658.876	5614.16
659.068	5452.38
659.26	5395.03
659.452	5364.31
659.644	5319.26
659.836	5337.69
660.028	5388.89
660.22	5294.68
660.412	5360.22
660.604	5206.62
660.796	5069.41
660.988	5192.28
661.18	5286.49
661.372	5237.34
661.563	5167.71
661.755	5198.43
661.947	5065.31
662.139	5036.64
662.331	5032.54
662.522	4934.24
662.714	5005.92
662.906	4852.32
663.097	4842.08
663.289	4829.79
663.481	4868.7
663.673	4934.24
663.864	4856.42
664.056	4674.15
664.247	4887.14
664.439	4762.21
664.631	4743.78
664.822	4768.35
665.014	4694.63
665.205	4543.08
665.397	4680.29
665.588	4508.26
665.78	4557.41
665.971	4551.27
666.163	4549.22
666.354	4581.99
666.546	4485.73
666.737	4409.96
666.929	4481.64
667.12	4545.13
667.311	4282.99
667.503	4278.89
667.694	4266.6
667.885	4379.24
668.077	4301.42
668.268	4278.89
668.459	4248.17
668.651	4268.65
668.842	4219.5
669.033	4250.22
669.224	4160.11
669.416	4184.68
669.607	4164.2
669.798	4053.61
669.989	4129.39
670.18	4186.73
670.371	4119.15
670.563	4096.62
670.754	4117.1
670.945	3959.41
671.136	3967.6
671.327	3861.1
671.518	3983.98
671.709	3969.65
671.9	3998.32
672.091	3967.6
672.282	3947.12
672.473	3885.68
672.664	3893.87
672.855	3859.06
673.046	3848.82
673.237	4070
673.428	3779.18
673.619	3895.92
673.809	3762.8
674	3920.49
674.191	3756.66
674.382	3699.31
674.573	3814
674.764	3693.17
674.954	3824.24
675.145	3615.35
675.336	3672.69
675.527	3789.42
675.717	3697.27
675.908	3611.25
676.099	3564.15
676.289	3560.05
676.48	3504.76
676.671	3463.8
676.861	3482.23
677.052	3619.44
677.243	3484.28
677.433	3410.55
677.624	3486.33
677.814	3465.85
678.005	3517.05
678.195	3650.16
678.386	3342.97
678.576	3551.86
678.767	3398.26
678.957	3433.08
679.148	3437.17
679.338	3324.54
679.529	3469.94
679.719	3177.08
679.909	3316.34
680.1	3322.49
680.29	3443.32
680.481	3312.25
680.671	3500.66
680.861	3465.85
681.052	3385.98
681.242	3297.91
681.432	3201.66
681.622	3306.1
681.813	3259
682.003	3218.04
682.193	3242.62
682.383	3291.77
682.573	3168.89
682.764	3383.93
682.954	3201.66
683.144	3074.68
683.334	3254.9
683.524	3066.49
683.714	3263.1
683.904	3164.79
684.094	3003
684.284	3156.6
684.474	3160.7
684.664	3066.49
684.854	3162.75
685.044	3117.69
685.234	3125.88
685.424	3129.98
685.614	2949.76
685.804	2910.85
685.994	3070.59
686.184	3015.29
686.374	2953.85
686.564	3074.68
686.753	2927.23
686.943	2820.74
687.133	2972.29
687.323	2964.09
687.513	2919.04
687.702	3050.11
687.892	2892.41
688.082	2931.33
688.272	2996.86
688.461	2773.63
688.651	2787.97
688.841	2962.05
689.03	2898.56
689.22	2792.06
689.41	2892.41
689.599	2802.3
689.789	2796.16
689.979	2689.67
690.168	2695.81
690.358	2769.54
690.547	2650.75
690.737	2728.58
690.926	2714.24
691.116	2687.62
691.305	2708.1
691.495	2724.48
691.684	2710.15
691.874	2556.55
692.063	2534.02
692.252	2679.43
692.442	2626.18
692.631	2648.71
692.82	2560.64
693.01	2560.64
693.199	2511.49
693.388	2546.31
693.578	2486.92
693.767	2626.18
693.956	2564.74
694.146	2493.06
694.335	2540.16
694.524	2534.02
694.713	2474.63
694.902	2501.25
695.092	2536.07
695.281	2556.55
695.47	2488.96
695.659	2476.68
695.848	2497.16
696.037	2456.2
696.226	2470.53
696.415	2415.24
696.604	2454.15
696.793	2407.05
696.982	2376.33
697.171	2509.44
697.36	2333.32
697.549	2380.42
697.738	2423.43
697.927	2331.27
698.116	2462.34
698.305	2409.09
698.494	2331.27
698.683	2386.57
698.872	2378.37
699.061	2339.46
699.25	2378.37
699.438	2419.33
699.627	2382.47
699.816	2361.99
700.005	2337.41
700.193	2400.9
700.382	2294.41
700.571	2247.3
700.76	2405
700.948	2349.7
701.137	2282.12
701.326	2316.94
701.514	2370.18
701.703	2210.44
701.892	2192.01
702.08	2243.21
702.269	2189.96
702.457	2302.6
702.646	2261.64
702.834	2267.78
703.023	2296.46
703.212	2321.03
703.4	2255.5
703.589	2237.06
703.777	2304.65
703.965	2226.82
704.154	2224.78
704.342	2292.36
704.531	2165.39
704.719	2349.7
704.907	2212.49
705.096	2216.58
705.284	2161.29
705.472	2239.11
705.661	2218.63
705.849	2312.84
706.037	2159.24
706.226	2216.58
706.414	2273.93
706.602	2218.63
706.79	2247.3
706.979	2216.58
707.167	2173.58
707.355	2177.67
707.543	2333.32
707.731	2294.41
707.919	2255.5
708.107	2196.11
708.296	2237.06
708.484	2167.43
708.672	2321.03
708.86	2206.34
709.048	2175.63
709.236	2159.24
709.424	2269.83
709.612	2337.41
709.8	2089.61
709.988	2153.1
710.176	2269.83
710.364	2374.28
710.551	2194.06
710.739	2224.78
710.927	2192.01
711.115	2267.78
711.303	2273.93
711.491	2245.26
711.679	2226.82
711.866	2167.43
712.054	2314.89
712.242	2099.85
712.43	2218.63
712.617	2192.01
712.805	2196.11
712.993	2230.92
713.181	2159.24
713.368	2366.09
713.556	2249.35
713.744	2048.65
713.931	2185.87
714.119	2206.34
714.306	2112.14
714.494	2136.71
714.682	2087.56
714.869	2171.53
715.057	2194.06
715.244	2181.77
715.432	2165.39
715.619	2249.35
715.807	2151.05
715.994	2259.59
716.182	2173.58
716.369	2259.59
716.556	2196.11
716.744	2081.42
716.931	2208.39
717.119	2144.91
717.306	2226.82
717.493	2128.52
717.681	2269.83
717.868	2206.34
718.055	2198.15
718.242	2210.44
718.43	2189.96
718.617	2271.88
718.804	2120.33
718.991	2275.98
719.179	2249.35
719.366	2288.26
719.553	2071.18
719.74	2173.58
719.927	2159.24
720.114	2271.88
720.301	2230.92
720.488	2077.32
720.676	2204.3
720.863	2249.35
721.05	2210.44
721.237	2189.96
721.424	2218.63
721.611	2237.06
721.798	2241.16
721.985	2255.5
722.172	2110.09
722.358	2151.05
722.545	2286.22
722.732	2149
722.919	2198.15
723.106	2169.48
723.293	2220.68
723.48	2181.77
723.667	2241.16
723.853	2206.34
724.04	2214.54
724.227	2247.3
724.414	2228.87
724.6	2306.7
724.787	2304.65
724.974	2232.97
725.161	2144.91
725.347	2198.15
725.534	2165.39
725.72	2189.96
725.907	2173.58
726.094	2261.64
726.28	2099.85
726.467	2175.63
726.653	2122.38
726.84	2181.77
727.027	2239.11
727.213	2273.93
727.4	2255.5
727.586	2144.91
727.773	2185.87
727.959	2245.26
728.145	2173.58
728.332	2230.92
728.518	2136.71
728.705	2345.61
728.891	2196.11
729.077	2220.68
729.264	2202.25
729.45	2067.08
729.636	2247.3
729.823	2155.15
730.009	2105.99
730.195	2165.39
730.382	2151.05
730.568	2124.43
730.754	2183.82
730.94	2212.49
731.126	2206.34
731.313	2243.21
731.499	2146.95
731.685	2159.24
731.871	2169.48
732.057	2177.67
732.243	2273.93
732.429	2216.58
732.615	2232.97
732.801	2462.34
732.987	2263.69
733.173	2165.39
733.359	2140.81
733.545	2165.39
733.731	2161.29
733.917	2183.82
734.103	2181.77
734.289	2241.16
734.475	2206.34
734.661	2218.63
734.847	2214.54
735.033	2304.65
735.219	2167.43
735.404	2130.57
735.59	2114.19
735.776	2042.51
735.962	2206.34
736.148	2194.06
736.333	2175.63
736.519	2198.15
736.705	2060.94
736.89	2269.83
737.076	2134.67
737.262	2103.95
737.447	2159.24
737.633	2099.85
737.819	2124.43
738.004	2134.67
738.19	2114.19
738.375	2101.9
738.561	2157.19
738.747	2128.52
738.932	2165.39
739.118	2132.62
739.303	2083.47
739.489	2167.43
739.674	2050.7
739.859	2177.67
740.045	2140.81
740.23	2099.85
740.416	2038.41
740.601	2134.67
740.786	1952.4
740.972	2017.93
741.157	2149
741.342	2046.6
741.528	2042.51
741.713	2017.93
741.898	2071.18
742.084	2087.56
742.269	2032.27
742.454	1968.78
742.639	2060.94
742.824	2073.23
743.01	1948.3
743.195	2032.27
743.38	1921.68
743.565	2022.03
743.75	2075.27
743.935	1956.49
744.12	2042.51
744.305	1829.52
744.49	1956.49
744.675	1962.64
744.86	1866.38
745.045	2069.13
745.23	1901.2
745.415	1960.59
745.6	1931.92
745.785	1897.1
745.97	1874.57
746.155	1915.53
746.34	1942.16
746.525	1952.4
746.71	1893.01
746.895	1794.7
747.079	1829.52
747.264	1739.41
747.449	1813.13
747.634	1872.53
747.819	1858.19
748.003	1716.88
748.188	1784.46
748.373	1733.26
748.557	1788.56
748.742	1823.37
748.927	1651.35
749.111	1692.3
749.296	1673.87
749.481	1704.59
749.665	1618.58
749.85	1610.39
750.034	1665.68
750.219	1763.98
750.404	1630.87
750.588	1632.91
750.773	1653.39
750.957	1526.42
751.141	1632.91
751.326	1686.16
751.51	1542.8
751.695	1671.83
751.879	1602.19
752.064	1495.7
752.248	1604.24
752.432	1628.82
752.617	1567.38
752.801	1542.8
752.985	1528.47
753.17	1596.05
753.354	1594
753.538	1565.33
753.722	1446.55
753.907	1460.88
754.091	1389.21
754.275	1413.78
754.459	1483.41
754.643	1383.06
754.828	1462.93
755.012	1426.07
755.196	1393.3
755.38	1395.35
755.564	1432.21
755.748	1354.39
755.932	1346.2
756.116	1411.73
756.3	1338.01
756.484	1346.2
756.668	1317.53
756.852	1272.47
757.036	1338.01
757.22	1321.62
757.404	1182.36
757.588	1284.76
757.772	1262.23
757.956	1258.14
758.14	1286.81
758.323	1217.18
758.507	1251.99
758.691	1174.17
758.875	1229.46
759.059	1315.48
759.242	1260.18
759.426	1309.33
759.61	1217.18
759.794	1227.42
759.977	1272.47
760.161	1200.79
760.345	1178.26
760.528	1194.65
760.712	1229.46
760.895	1247.9
761.079	1147.55
761.263	1153.69
761.446	1055.39
761.63	1165.98
761.813	1262.23
761.997	1129.11
762.18	1143.45
762.364	1168.02
762.547	1086.11
762.731	1028.76
762.914	996
763.098	1061.53
763.281	1041.05
763.464	1051.29
763.648	1096.35
763.831	965.28
764.015	1045.15
764.198	1061.53
764.381	1034.91
764.564	1133.21
764.748	1075.87
764.931	1114.78
765.114	1000.09
765.297	1102.49
765.481	983.71
765.664	1075.87
765.847	1051.29
766.03	1075.87
766.213	981.66
766.397	985.76
766.58	996
766.763	1061.53
766.946	991.9
767.129	1000.09
767.312	969.37
767.495	1018.52
767.678	836.25
767.861	1045.15
768.044	907.93
768.227	1008.28
768.41	979.61
768.593	1008.28
768.776	883.36
768.959	981.66
769.142	846.49
769.324	957.08
769.507	907.93
769.69	985.76
769.873	916.12
770.056	969.37
770.239	920.22
770.421	932.51
770.604	955.04
770.787	932.51
770.97	887.45
771.152	834.21
771.335	940.7
771.518	940.7
771.7	914.08
771.883	854.69
772.066	813.73
772.248	920.22
772.431	815.77
772.613	783.01
772.796	832.16
772.978	826.01
773.161	899.74
773.343	813.73
773.526	862.88
773.708	797.34
773.891	832.16
774.073	740
774.256	709.28
774.438	819.87
774.621	729.76
774.803	787.1
774.985	842.4
775.168	813.73
775.35	791.2
775.532	830.11
775.715	721.57
775.897	776.86
776.079	764.58
776.261	854.69
776.444	772.77
776.626	690.85
776.808	744.1
776.99	762.53
777.173	692.9
777.355	719.52
777.537	717.47
777.719	692.9
777.901	717.47
778.083	633.5
778.265	639.65
778.447	649.89
778.629	662.18
778.811	670.37
778.993	690.85
779.175	635.55
779.357	645.79
779.539	656.03
779.721	627.36
779.903	688.8
780.085	608.93
780.267	641.7
780.449	756.38
780.631	596.64
780.812	623.27
780.994	658.08
781.176	649.89
781.358	559.78
781.54	590.5
781.721	580.26
781.903	567.97
782.085	563.87
782.267	578.21
782.448	535.2
782.63	600.74
782.812	553.63
782.993	490.15
783.175	584.35
783.357	494.24
783.538	543.39
783.72	563.87
783.901	578.21
784.083	623.27
784.264	494.24
784.446	584.35
784.627	496.29
784.809	469.67
784.99	524.96
785.172	488.1
785.353	512.67
785.535	590.5
785.716	387.75
785.897	414.37
786.079	481.96
786.26	432.8
786.441	549.54
786.623	387.75
786.804	428.71
786.985	557.73
787.167	424.61
787.348	463.52
787.529	461.48
787.71	490.15
787.891	436.9
788.073	447.14
788.254	369.32
788.435	504.48
788.616	494.24
788.797	443.04
788.978	479.91
789.159	422.56
789.34	426.66
789.522	436.9
789.703	449.19
789.884	445.09
790.065	486.05
790.246	453.28
790.427	359.08
790.607	375.46
790.788	375.46
790.969	391.84
791.15	393.89
791.331	412.32
791.512	256.68
791.693	375.46
791.874	307.88
792.054	385.7
792.235	414.37
792.416	441
792.597	338.6
792.778	354.98
792.958	373.41
793.139	240.29
793.32	420.52
793.5	436.9
793.681	406.18
793.862	385.7
794.042	305.83
794.223	332.45
794.404	336.55
794.584	311.97
794.765	342.69
794.945	350.89
795.126	410.28
795.306	363.17
795.487	352.93
795.667	305.83
795.848	309.93
796.028	289.45
796.209	375.46
796.389	326.31
796.57	314.02
796.75	271.01
796.93	273.06
797.111	305.83
797.291	352.93
797.471	316.07
797.652	271.01
797.832	258.73
798.012	324.26
798.192	240.29
798.373	172.71
798.553	309.93
798.733	277.16
798.913	234.15
799.093	281.25
799.274	256.68
799.454	289.45
799.634	230.06
799.814	297.64
799.994	281.25
800.174	389.8
800.354	303.78
800.534	260.77
800.714	334.5
800.894	262.82
801.074	268.97
801.254	295.59
801.434	250.53
801.614	189.1
801.794	281.25
801.974	780.96
802.154	215.72
802.334	307.88
802.514	289.45
802.693	277.16
802.873	281.25
803.053	248.49
803.233	289.45
803.413	217.77
803.592	256.68
803.772	162.47
803.952	195.24
804.131	199.34
804.311	225.96
804.491	305.83
804.67	209.58
804.85	187.05
805.03	174.76
805.209	316.07
805.389	191.14
805.568	166.57
805.748	199.34
805.928	256.68
806.107	246.44
806.287	166.57
806.466	195.24
806.646	260.77
806.825	191.14
807.004	189.1
807.184	250.53
807.363	195.24
807.543	141.99
807.722	203.43
807.901	201.38
808.081	246.44
808.26	217.77
808.439	215.72
808.619	207.53
808.798	283.3
808.977	228.01
809.156	219.82
809.336	232.1
809.515	201.38
809.694	209.58
809.873	199.34
810.052	273.06
810.231	262.82
810.411	158.38
810.59	193.19
810.769	191.14
810.948	236.2
811.127	162.47
811.306	113.32
811.485	154.28
811.664	252.58
811.843	264.87
812.022	191.14
812.201	146.09
812.38	158.38
812.559	139.94
812.737	217.77
812.916	213.67
813.095	150.18
813.274	205.48
813.453	133.8
813.632	168.62
813.811	166.57
813.989	197.29
814.168	205.48
814.347	117.42
814.526	199.34
814.704	166.57
814.883	193.19
815.062	193.19
815.24	170.66
815.419	187.05
815.598	225.96
815.776	113.32
815.955	201.38
816.133	170.66
816.312	203.43
816.49	135.85
816.669	98.99
816.847	107.18
817.026	113.32
817.204	146.09
817.383	146.09
817.561	174.76
817.74	176.81
817.918	199.34
818.097	146.09
818.275	121.51
818.453	121.51
818.632	84.65
818.81	185
818.988	217.77
819.167	123.56
819.345	187.05
819.523	201.38
819.701	131.75
819.879	166.57
820.058	117.42
820.236	125.61
820.414	135.85
820.592	174.76
820.77	189.1
820.948	113.32
821.127	94.89
821.305	201.38
821.483	92.84
821.661	154.28
821.839	117.42
822.017	51.88
822.195	70.31
822.373	166.57
822.551	115.37
822.729	141.99
822.907	158.38
823.085	150.18
823.262	121.51
823.44	137.9
823.618	150.18
823.796	121.51
823.974	98.99
824.152	117.42
824.329	80.55
824.507	133.8
824.685	117.42
824.863	84.65
825.04	96.94
825.218	141.99
825.396	80.55
825.574	127.66
825.751	148.14
825.929	49.83
826.107	64.17
826.284	80.55
826.462	139.94
826.639	154.28
826.817	152.23
826.994	60.07
827.172	39.59
827.349	232.1
827.527	115.37
827.704	207.53
827.882	213.67
828.059	150.18
828.237	27.31
828.414	119.46
828.591	31.4
828.769	168.62
828.946	90.79
829.124	178.86
829.301	94.89
829.478	135.85
829.655	92.84
829.833	51.88
830.01	82.6
830.187	111.27
830.364	113.32
830.542	78.51
830.719	86.7
830.896	60.07
831.073	121.51
831.25	76.46
831.427	129.7
831.604	103.08
831.782	119.46
831.959	135.85
832.136	103.08
832.313	37.55
832.49	72.36
832.667	72.36
832.844	109.22
833.021	96.94
833.198	53.93
833.374	119.46
833.551	117.42
833.728	111.27
833.905	92.84
834.082	70.31
834.259	144.04
834.436	105.13
834.612	45.74
834.789	129.7
834.966	78.51
835.143	64.17
835.319	135.85
835.496	176.81
835.673	76.46
835.85	109.22
836.026	92.84
836.203	111.27
836.38	80.55
836.556	68.27
836.733	101.03
836.909	162.47
837.086	78.51
837.262	101.03
837.439	68.27
837.616	109.22
837.792	58.03
837.968	76.46
838.145	31.4
838.321	127.66
838.498	43.69
838.674	94.89
838.851	19.11
839.027	-1.37
839.203	80.55
839.38	131.75
839.556	-3.41
839.732	27.31
839.909	55.98
840.085	92.84
840.261	103.08
840.437	62.12
840.614	80.55
840.79	84.65
840.966	84.65
841.142	98.99
841.318	43.69
841.494	53.93
841.671	55.98
841.847	45.74
842.023	-27.99
842.199	80.55
842.375	66.22
842.551	76.46
842.727	82.6
842.903	76.46
843.079	55.98
843.255	-3.41
843.431	27.31
843.607	125.61
843.783	-3.41
843.959	68.27
844.134	78.51
844.31	45.74
844.486	33.45
844.662	76.46
844.838	21.16
845.013	78.51
845.189	80.55
845.365	92.84
845.541	43.69
845.716	82.6
845.892	139.94
846.068	80.55
846.244	55.98
846.419	55.98
846.595	45.74
846.77	60.07
846.946	60.07
847.122	12.97
847.297	74.41
847.473	86.7
847.648	60.07
847.824	29.35
847.999	-5.46
848.175	31.4
848.35	68.27
848.526	127.66
848.701	17.07
848.876	119.46
849.052	103.08
849.227	115.37
849.403	86.7
849.578	109.22
849.753	45.74
849.929	27.31
850.104	51.88
850.279	84.65
850.454	74.41
850.63	43.69
850.805	35.5
850.98	31.4
851.155	76.46
851.33	60.07
851.505	86.7
851.681	51.88
851.856	58.03
852.031	-11.61
852.206	51.88
852.381	92.84
852.556	103.08
852.731	-3.41
852.906	125.61
853.081	60.07
853.256	47.79
853.431	17.07
853.606	45.74
853.781	-30.04
853.956	78.51
854.131	31.4
854.305	62.12
854.48	70.31
854.655	66.22
854.83	43.69
855.005	10.92
855.18	66.22
855.354	12.97
855.529	64.17
855.704	-13.65
855.879	133.8
856.053	-11.61
856.228	94.89
856.403	39.59
856.577	86.7
856.752	64.17
856.926	45.74
857.101	76.46
857.276	92.84
857.45	29.35
857.625	60.07
857.799	45.74
857.974	-25.94
858.148	68.27
858.323	111.27
858.497	-1.37
858.672	49.83
858.846	80.55
859.02	129.7
859.195	53.93
859.369	55.98
859.543	76.46
859.718	62.12
859.892	-5.46
860.066	66.22
860.241	45.74
860.415	60.07
860.589	92.84
860.763	41.64
860.938	66.22
861.112	103.08
861.286	-13.65
861.46	58.03
861.634	2.73
861.808	19.11
861.982	117.42
862.157	0.68
862.331	-19.8
862.505	-17.75
862.679	10.92
862.853	51.88
863.027	21.16
863.201	55.98
863.375	64.17
863.549	66.22
863.722	88.75
863.896	94.89
864.07	27.31
864.244	-5.46
864.418	125.61
864.592	-1.37
864.766	25.26
864.939	76.46
865.113	43.69
865.287	72.36
865.461	-42.32
865.634	37.55
865.808	27.31
865.982	-17.75
866.156	68.27
866.329	21.16
866.503	39.59
866.676	88.75
866.85	43.69
867.024	-3.41
867.197	23.21
867.371	35.5
867.544	64.17
867.718	-13.65
867.891	21.16
868.065	39.59
868.238	96.94
868.412	76.46
868.585	27.31
868.759	84.65
868.932	-30.04
869.105	-21.85
869.279	-62.8
869.452	10.92
869.625	19.11
869.799	35.5
869.972	2.73
870.145	-5.46
870.319	78.51
870.492	15.02
870.665	70.31
870.838	-46.42
871.011	12.97
871.185	-11.61
871.358	27.31
871.531	21.16
871.704	51.88
871.877	37.55
872.05	-9.56
872.223	47.79
872.396	92.84
872.569	21.16
872.742	-3.41
872.915	58.03
873.088	-9.56
873.261	76.46
873.434	31.4
873.607	-38.23
873.78	41.64
873.953	2.73
874.126	76.46
874.299	133.8
874.471	47.79
874.644	37.55
874.817	27.31
874.99	37.55
875.163	-5.46
875.335	27.31
875.508	37.55
875.681	76.46
875.853	37.55
876.026	31.4
876.199	45.74
876.371	-27.99
876.544	-46.42
876.717	-5.46
876.889	49.83
877.062	70.31
877.234	10.92
877.407	35.5
877.579	21.16
877.752	70.31
877.924	123.56
878.097	25.26
878.269	78.51
878.442	31.4
878.614	41.64
878.786	27.31
878.959	19.11
879.131	51.88
879.303	62.12
879.476	35.5
879.648	62.12
879.82	43.69
879.993	68.27
880.165	-32.08
880.337	8.87
880.509	-1.37
880.681	-25.94
880.854	68.27
881.026	10.92
881.198	86.7
881.37	45.74
881.542	-3.41
881.714	2.73
881.886	76.46
882.058	-7.51
882.23	68.27
882.402	43.69
882.574	55.98
882.746	-5.46
882.918	141.99
883.09	62.12
883.262	49.83
883.434	-19.8
883.606	-46.42
883.778	-13.65
883.95	10.92
884.122	-15.7
884.293	10.92
884.465	0.68
884.637	76.46
884.809	43.69
884.98	-13.65
885.152	-30.04
885.324	6.83
885.496	23.21
885.667	101.03
885.839	4.78
886.011	53.93
886.182	53.93
886.354	17.07
886.525	76.46
886.697	6.83
886.869	68.27
887.04	21.16
887.212	-13.65
887.383	27.31
887.555	19.11
887.726	68.27
887.897	-13.65
888.069	-5.46
888.24	23.21
888.412	43.69
888.583	-40.28
888.754	25.26
888.926	47.79
889.097	31.4
889.268	58.03
889.44	0.68
889.611	25.26
889.782	51.88
889.953	21.16
890.125	31.4
890.296	31.4
890.467	2.73
890.638	51.88
890.809	27.31
890.98	4.78
891.151	-32.08
891.323	55.98
891.494	23.21
891.665	27.31
891.836	29.35
892.007	8.87
892.178	53.93
892.349	45.74
892.52	70.31
892.691	35.5
892.862	17.07
893.032	51.88
893.203	60.07
893.374	37.55
893.545	43.69
893.716	2.73
893.887	4.78
894.057	58.03
894.228	109.22
894.399	-42.32
894.57	127.66
894.74	-21.85
894.911	70.31
895.082	10.92
895.253	-27.99
895.423	76.46
895.594	76.46
895.764	80.55
895.935	35.5
896.106	78.51
896.276	19.11
896.447	-17.75
896.617	0.68
896.788	12.97
896.958	-68.95
897.129	8.87
897.299	35.5
897.47	76.46
897.64	2.73
897.81	27.31
897.981	-13.65
898.151	-11.61
898.322	19.11
898.492	101.03
898.662	-46.42
898.832	-58.71
899.003	88.75
899.173	-50.52
899.343	-5.46
899.513	47.79
