Data from USB4F104151__26__13-10-40-753.txt Node

Date: Fri Mar 14 13:10:40 EDT 2025
User: louis
Spectrometer: USB4F10415
Trigger mode: 4
Integration Time (sec): 2.000000E-2
Scans to average: 1
Electric dark correction enabled: true
Nonlinearity correction enabled: false
Boxcar width: 0
XAxis mode: Wavelengths
Number of Pixels in Spectrum: 3648
>>>>>Begin Spectral Data<<<<<
178.204	-97.79
178.424	-97.79
178.644	-97.79
178.864	-118.27
179.084	-56.83
179.304	10.75
179.524	16.9
179.744	33.28
179.964	-7.68
180.184	4.61
180.404	8.7
180.624	27.14
180.844	-9.73
181.064	6.66
181.283	-15.87
181.503	-101.89
181.723	27.14
181.943	-38.4
182.163	45.57
182.383	-13.82
182.602	43.52
182.822	37.38
183.042	-15.87
183.262	-19.97
183.482	-1.54
183.701	94.72
183.921	31.23
184.141	59.9
184.361	-7.68
184.58	-3.58
184.8	16.9
185.02	76.29
185.239	-22.02
185.459	-13.82
185.679	35.33
185.898	4.61
186.118	25.09
186.338	14.85
186.557	-30.21
186.777	-24.06
186.997	-13.82
187.216	-28.16
187.436	72.19
187.655	8.7
187.875	-28.16
188.095	-7.68
188.314	-3.58
188.534	43.52
188.753	55.81
188.973	43.52
189.192	25.09
189.412	-24.06
189.631	-28.16
189.851	8.7
190.07	4.61
190.29	-13.82
190.509	2.56
190.729	6.66
190.948	-19.97
191.168	57.86
191.387	41.47
191.607	-1.54
191.826	76.29
192.045	27.14
192.265	-24.06
192.484	68.09
192.704	2.56
192.923	39.42
193.142	64
193.362	2.56
193.581	41.47
193.8	57.86
194.02	41.47
194.239	25.09
194.458	-15.87
194.678	-24.06
194.897	98.81
195.116	-46.59
195.335	14.85
195.555	47.62
195.774	12.8
195.993	37.38
196.212	27.14
196.432	8.7
196.651	43.52
196.87	74.24
197.089	90.62
197.308	49.66
197.528	57.86
197.747	8.7
197.966	-15.87
198.185	43.52
198.404	-71.17
198.623	-3.58
198.842	35.33
199.062	74.24
199.281	94.72
199.5	-3.58
199.719	35.33
199.938	35.33
200.157	49.66
200.376	109.05
200.595	10.75
200.814	33.28
201.033	43.52
201.252	74.24
201.471	-7.68
201.69	-40.45
201.909	41.47
202.128	25.09
202.347	129.53
202.566	43.52
202.785	-36.35
203.004	-5.63
203.223	88.57
203.442	-3.58
203.661	-7.68
203.879	16.9
204.098	133.63
204.317	6.66
204.536	59.9
204.755	92.67
204.974	47.62
205.193	16.9
205.411	41.47
205.63	68.09
205.849	72.19
206.068	16.9
206.287	12.8
206.505	57.86
206.724	-24.06
206.943	12.8
207.162	16.9
207.381	8.7
207.599	25.09
207.818	-60.93
208.037	18.94
208.255	70.14
208.474	23.04
208.693	12.8
208.911	-38.4
209.13	47.62
209.349	86.53
209.567	16.9
209.786	-22.02
210.005	61.95
210.223	14.85
210.442	55.81
210.661	41.47
210.879	35.33
211.098	53.76
211.316	4.61
211.535	59.9
211.753	45.57
211.972	84.48
212.191	47.62
212.409	-34.3
212.628	12.8
212.846	2.56
213.065	-17.92
213.283	-30.21
213.502	-103.93
213.72	8.7
213.938	-34.3
214.157	12.8
214.375	16.9
214.594	10.75
214.812	-24.06
215.031	20.99
215.249	117.25
215.467	12.8
215.686	18.94
215.904	10.75
216.122	-1.54
216.341	70.14
216.559	-44.54
216.778	82.43
216.996	-50.69
217.214	59.9
217.432	16.9
217.651	-11.78
217.869	-3.58
218.087	86.53
218.306	10.75
218.524	80.38
218.742	-34.3
218.96	-24.06
219.179	0.51
219.397	25.09
219.615	55.81
219.833	41.47
220.051	-3.58
220.27	66.05
220.488	-24.06
220.706	-24.06
220.924	-36.35
221.142	8.7
221.36	18.94
221.578	14.85
221.796	18.94
222.015	-11.78
222.233	117.25
222.451	31.23
222.669	33.28
222.887	25.09
223.105	-44.54
223.323	41.47
223.541	-5.63
223.759	33.28
223.977	0.51
224.195	14.85
224.413	57.86
224.631	33.28
224.849	49.66
225.067	111.1
225.285	43.52
225.503	64
225.721	23.04
225.939	23.04
226.157	2.56
226.375	117.25
226.592	14.85
226.81	-11.78
227.028	23.04
227.246	141.82
227.464	-24.06
227.682	33.28
227.9	16.9
228.117	-3.58
228.335	-9.73
228.553	37.38
228.771	-15.87
228.989	12.8
229.206	78.33
229.424	41.47
229.642	-15.87
229.86	49.66
230.077	23.04
230.295	47.62
230.513	2.56
230.731	10.75
230.948	59.9
231.166	51.71
231.384	8.7
231.601	25.09
231.819	16.9
232.037	55.81
232.254	12.8
232.472	51.71
232.689	-19.97
232.907	66.05
233.125	20.99
233.342	76.29
233.56	14.85
233.777	47.62
233.995	-3.58
234.213	64
234.43	20.99
234.648	57.86
234.865	8.7
235.083	-15.87
235.3	51.71
235.518	61.95
235.735	12.8
235.953	49.66
236.17	66.05
236.388	23.04
236.605	-3.58
236.822	55.81
237.04	49.66
237.257	23.04
237.475	6.66
237.692	14.85
237.909	51.71
238.127	25.09
238.344	27.14
238.562	0.51
238.779	0.51
238.996	-50.69
239.214	49.66
239.431	90.62
239.648	31.23
239.865	41.47
240.083	27.14
240.3	-7.68
240.517	43.52
240.735	80.38
240.952	66.05
241.169	-3.58
241.386	57.86
241.603	23.04
241.821	-40.45
242.038	74.24
242.255	78.33
242.472	-5.63
242.689	39.42
242.907	37.38
243.124	-32.26
243.341	64
243.558	64
243.775	-52.74
243.992	49.66
244.209	10.75
244.426	16.9
244.643	45.57
244.86	-24.06
245.078	37.38
245.295	-7.68
245.512	2.56
245.729	-32.26
245.946	84.48
246.163	78.33
246.38	-11.78
246.597	-15.87
246.814	18.94
247.031	-28.16
247.248	57.86
247.464	-13.82
247.681	37.38
247.898	-5.63
248.115	33.28
248.332	41.47
248.549	37.38
248.766	86.53
248.983	14.85
249.2	-24.06
249.417	70.14
249.633	-22.02
249.85	82.43
250.067	-34.3
250.284	57.86
250.501	29.18
250.717	-40.45
250.934	-54.78
251.151	-5.63
251.368	6.66
251.585	57.86
251.801	-9.73
252.018	-7.68
252.235	23.04
252.451	25.09
252.668	4.61
252.885	45.57
253.102	8.7
253.318	76.29
253.535	70.14
253.752	-1.54
253.968	27.14
254.185	84.48
254.401	16.9
254.618	29.18
254.835	12.8
255.051	16.9
255.268	35.33
255.484	47.62
255.701	27.14
255.917	70.14
256.134	-48.64
256.351	33.28
256.567	43.52
256.784	37.38
257	68.09
257.217	27.14
257.433	80.38
257.65	12.8
257.866	8.7
258.082	37.38
258.299	-11.78
258.515	51.71
258.732	-105.98
258.948	39.42
259.165	47.62
259.381	66.05
259.597	86.53
259.814	59.9
260.03	66.05
260.246	61.95
260.463	-11.78
260.679	6.66
260.895	23.04
261.112	102.91
261.328	33.28
261.544	41.47
261.761	111.1
261.977	-1.54
262.193	-19.97
262.409	51.71
262.626	27.14
262.842	18.94
263.058	-34.3
263.274	18.94
263.49	41.47
263.707	29.18
263.923	41.47
264.139	49.66
264.355	8.7
264.571	51.71
264.787	4.61
265.004	10.75
265.22	-46.59
265.436	23.04
265.652	29.18
265.868	0.51
266.084	51.71
266.3	49.66
266.516	4.61
266.732	-30.21
266.948	35.33
267.164	-3.58
267.38	94.72
267.596	35.33
267.812	23.04
268.028	18.94
268.244	33.28
268.46	39.42
268.676	-36.35
268.892	45.57
269.108	-79.36
269.324	8.7
269.54	6.66
269.756	78.33
269.972	10.75
270.188	121.34
270.403	-79.36
270.619	-30.21
270.835	-1.54
271.051	20.99
271.267	18.94
271.483	-3.58
271.698	33.28
271.914	-1.54
272.13	35.33
272.346	0.51
272.562	-28.16
272.777	66.05
272.993	-50.69
273.209	-36.35
273.425	-5.63
273.64	51.71
273.856	57.86
274.072	14.85
274.287	8.7
274.503	78.33
274.719	-11.78
274.934	-32.26
275.15	37.38
275.366	41.47
275.581	-5.63
275.797	-5.63
276.012	-19.97
276.228	16.9
276.444	31.23
276.659	8.7
276.875	-44.54
277.09	45.57
277.306	-62.98
277.521	109.05
277.737	-9.73
277.952	14.85
278.168	90.62
278.383	-19.97
278.599	-15.87
278.814	-48.64
279.03	107.01
279.245	53.76
279.461	-60.93
279.676	-15.87
279.892	55.81
280.107	10.75
280.322	-40.45
280.538	35.33
280.753	-52.74
280.969	27.14
281.184	43.52
281.399	68.09
281.615	-3.58
281.83	39.42
282.045	66.05
282.26	6.66
282.476	-3.58
282.691	33.28
282.906	68.09
283.122	102.91
283.337	12.8
283.552	43.52
283.767	2.56
283.983	6.66
284.198	20.99
284.413	55.81
284.628	43.52
284.843	-22.02
285.058	39.42
285.274	82.43
285.489	-5.63
285.704	31.23
285.919	29.18
286.134	80.38
286.349	39.42
286.564	-1.54
286.779	66.05
286.995	37.38
287.21	25.09
287.425	57.86
287.64	68.09
287.855	92.67
288.07	-52.74
288.285	31.23
288.5	39.42
288.715	100.86
288.93	25.09
289.145	33.28
289.36	51.71
289.575	74.24
289.79	66.05
290.004	-54.78
290.219	82.43
290.434	2.56
290.649	25.09
290.864	10.75
291.079	86.53
291.294	31.23
291.509	64
291.724	0.51
291.938	-5.63
292.153	25.09
292.368	25.09
292.583	51.71
292.798	23.04
293.012	49.66
293.227	14.85
293.442	8.7
293.657	43.52
293.871	39.42
294.086	-22.02
294.301	90.62
294.516	49.66
294.73	2.56
294.945	-34.3
295.16	68.09
295.374	66.05
295.589	43.52
295.804	-19.97
296.018	45.57
296.233	23.04
296.447	8.7
296.662	16.9
296.877	20.99
297.091	18.94
297.306	18.94
297.52	-40.45
297.735	37.38
297.949	31.23
298.164	64
298.378	-7.68
298.593	-22.02
298.807	-24.06
299.022	100.86
299.236	80.38
299.451	6.66
299.665	-3.58
299.88	43.52
300.094	31.23
300.309	47.62
300.523	2.56
300.737	27.14
300.952	-5.63
301.166	4.61
301.381	43.52
301.595	2.56
301.809	-24.06
302.024	-1.54
302.238	33.28
302.452	-22.02
302.667	12.8
302.881	-5.63
303.095	12.8
303.309	68.09
303.524	31.23
303.738	53.76
303.952	96.77
304.166	57.86
304.381	-19.97
304.595	57.86
304.809	37.38
305.023	33.28
305.237	53.76
305.452	20.99
305.666	74.24
305.88	-11.78
306.094	90.62
306.308	57.86
306.522	57.86
306.736	16.9
306.95	-34.3
307.164	35.33
307.379	20.99
307.593	80.38
307.807	94.72
308.021	37.38
308.235	4.61
308.449	-3.58
308.663	12.8
308.877	82.43
309.091	41.47
309.305	129.53
309.519	12.8
309.733	53.76
309.947	-7.68
310.161	-1.54
310.374	139.77
310.588	61.95
310.802	8.7
311.016	45.57
311.23	-3.58
311.444	45.57
311.658	86.53
311.872	37.38
312.085	16.9
312.299	86.53
312.513	10.75
312.727	78.33
312.941	-22.02
313.154	100.86
313.368	27.14
313.582	29.18
313.796	76.29
314.009	100.86
314.223	-30.21
314.437	98.81
314.651	49.66
314.864	61.95
315.078	45.57
315.292	109.05
315.505	-32.26
315.719	16.9
315.933	39.42
316.146	23.04
316.36	33.28
316.573	12.8
316.787	86.53
317.001	27.14
317.214	41.47
317.428	41.47
317.641	0.51
317.855	27.14
318.068	43.52
318.282	72.19
318.495	145.92
318.709	68.09
318.922	6.66
319.136	37.38
319.349	-13.82
319.563	12.8
319.776	98.81
319.99	14.85
320.203	59.9
320.417	51.71
320.63	-19.97
320.843	33.28
321.057	-22.02
321.27	33.28
321.483	2.56
321.697	100.86
321.91	74.24
322.124	39.42
322.337	-38.4
322.55	33.28
322.763	78.33
322.977	49.66
323.19	-36.35
323.403	27.14
323.617	68.09
323.83	96.77
324.043	43.52
324.256	57.86
324.469	-15.87
324.683	51.71
324.896	0.51
325.109	76.29
325.322	76.29
325.535	51.71
325.748	41.47
325.962	-40.45
326.175	-28.16
326.388	-7.68
326.601	-13.82
326.814	29.18
327.027	39.42
327.24	96.77
327.453	-32.26
327.666	59.9
327.879	16.9
328.092	94.72
328.305	-26.11
328.518	64
328.731	-46.59
328.944	16.9
329.157	68.09
329.37	10.75
329.583	-19.97
329.796	53.76
330.009	45.57
330.222	55.81
330.435	4.61
330.648	10.75
330.861	16.9
331.073	109.05
331.286	-3.58
331.499	35.33
331.712	41.47
331.925	-24.06
332.138	51.71
332.35	45.57
332.563	53.76
332.776	49.66
332.989	47.62
333.202	-30.21
333.414	59.9
333.627	82.43
333.84	29.18
334.053	88.57
334.265	2.56
334.478	47.62
334.691	20.99
334.903	23.04
335.116	-56.83
335.329	25.09
335.541	-11.78
335.754	-19.97
335.966	49.66
336.179	16.9
336.392	41.47
336.604	43.52
336.817	127.49
337.029	45.57
337.242	41.47
337.454	59.9
337.667	107.01
337.88	53.76
338.092	12.8
338.305	-7.68
338.517	-30.21
338.729	29.18
338.942	51.71
339.154	107.01
339.367	-65.02
339.579	45.57
339.792	-32.26
340.004	37.38
340.217	49.66
340.429	68.09
340.641	2.56
340.854	-15.87
341.066	-13.82
341.278	18.94
341.491	43.52
341.703	37.38
341.915	-30.21
342.128	57.86
342.34	-22.02
342.552	14.85
342.764	14.85
342.977	76.29
343.189	53.76
343.401	18.94
343.613	-40.45
343.826	4.61
344.038	-22.02
344.25	12.8
344.462	33.28
344.674	86.53
344.886	53.76
345.099	74.24
345.311	45.57
345.523	18.94
345.735	64
345.947	39.42
346.159	-17.92
346.371	49.66
346.583	-48.64
346.795	74.24
347.007	-19.97
347.219	29.18
347.431	2.56
347.643	27.14
347.855	-26.11
348.067	143.87
348.279	4.61
348.491	43.52
348.703	27.14
348.915	53.76
349.127	14.85
349.339	4.61
349.551	-5.63
349.763	86.53
349.975	16.9
350.187	57.86
350.399	45.57
350.61	70.14
350.822	-15.87
351.034	8.7
351.246	-32.26
351.458	-19.97
351.669	66.05
351.881	78.33
352.093	27.14
352.305	51.71
352.517	-22.02
352.728	33.28
352.94	25.09
353.152	14.85
353.363	55.81
353.575	25.09
353.787	45.57
353.999	35.33
354.21	-5.63
354.422	29.18
354.633	-34.3
354.845	37.38
355.057	-11.78
355.268	59.9
355.48	92.67
355.692	45.57
355.903	35.33
356.115	90.62
356.326	41.47
356.538	70.14
356.749	33.28
356.961	45.57
357.172	98.81
357.384	10.75
357.595	39.42
357.807	27.14
358.018	45.57
358.23	129.53
358.441	16.9
358.653	53.76
358.864	-17.92
359.075	2.56
359.287	-32.26
359.498	70.14
359.709	27.14
359.921	-22.02
360.132	131.58
360.344	68.09
360.555	6.66
360.766	86.53
360.977	-7.68
361.189	78.33
361.4	-52.74
361.611	92.67
361.823	61.95
362.034	43.52
362.245	72.19
362.456	94.72
362.667	47.62
362.879	59.9
363.09	61.95
363.301	-9.73
363.512	-13.82
363.723	10.75
363.935	78.33
364.146	64
364.357	55.81
364.568	43.52
364.779	20.99
364.99	102.91
365.201	45.57
365.412	74.24
365.623	102.91
365.834	18.94
366.045	45.57
366.256	6.66
366.467	37.38
366.678	37.38
366.889	-22.02
367.1	-19.97
367.311	-9.73
367.522	27.14
367.733	-24.06
367.944	86.53
368.155	-73.21
368.366	35.33
368.577	49.66
368.788	45.57
368.999	33.28
369.209	8.7
369.42	35.33
369.631	86.53
369.842	20.99
370.053	-24.06
370.264	51.71
370.474	66.05
370.685	18.94
370.896	57.86
371.107	29.18
371.317	88.57
371.528	49.66
371.739	92.67
371.95	-15.87
372.16	113.15
372.371	14.85
372.582	49.66
372.792	-36.35
373.003	84.48
373.214	-32.26
373.424	35.33
373.635	-62.98
373.846	20.99
374.056	57.86
374.267	33.28
374.477	86.53
374.688	-38.4
374.898	98.81
375.109	-34.3
375.319	35.33
375.53	76.29
375.74	35.33
375.951	109.05
376.161	-46.59
376.372	29.18
376.582	61.95
376.793	86.53
377.003	4.61
377.214	78.33
377.424	80.38
377.635	29.18
377.845	35.33
378.055	64
378.266	84.48
378.476	25.09
378.686	29.18
378.897	76.29
379.107	68.09
379.317	43.52
379.528	35.33
379.738	59.9
379.948	57.86
380.158	29.18
380.369	20.99
380.579	33.28
380.789	43.52
380.999	88.57
381.21	20.99
381.42	16.9
381.63	25.09
381.84	84.48
382.05	57.86
382.261	74.24
382.471	51.71
382.681	-15.87
382.891	90.62
383.101	66.05
383.311	25.09
383.521	-3.58
383.731	51.71
383.941	-13.82
384.151	121.34
384.361	61.95
384.571	31.23
384.781	45.57
384.991	100.86
385.201	45.57
385.411	96.77
385.621	49.66
385.831	61.95
386.041	10.75
386.251	8.7
386.461	92.67
386.671	-3.58
386.881	66.05
387.091	-52.74
387.301	109.05
387.511	49.66
387.72	72.19
387.93	107.01
388.14	0.51
388.35	68.09
388.56	43.52
388.769	102.91
388.979	-65.02
389.189	2.56
389.399	41.47
389.609	76.29
389.818	90.62
390.028	35.33
390.238	25.09
390.447	16.9
390.657	64
390.867	53.76
391.076	57.86
391.286	27.14
391.496	-11.78
391.705	43.52
391.915	82.43
392.125	66.05
392.334	-9.73
392.544	27.14
392.753	90.62
392.963	61.95
393.172	49.66
393.382	92.67
393.591	102.91
393.801	74.24
394.01	45.57
394.22	84.48
394.429	104.96
394.639	8.7
394.848	90.62
395.058	20.99
395.267	53.76
395.477	125.44
395.686	121.34
395.895	70.14
396.105	96.77
396.314	37.38
396.524	43.52
396.733	16.9
396.942	111.1
397.152	51.71
397.361	150.01
397.57	90.62
397.78	76.29
397.989	78.33
398.198	131.58
398.407	135.68
398.617	18.94
398.826	111.1
399.035	57.86
399.244	162.3
399.453	156.16
399.663	68.09
399.872	90.62
400.081	78.33
400.29	125.44
400.499	-30.21
400.708	156.16
400.917	76.29
401.127	16.9
401.336	55.81
401.545	115.2
401.754	184.83
401.963	125.44
402.172	94.72
402.381	125.44
402.59	98.81
402.799	37.38
403.008	147.97
403.217	53.76
403.426	96.77
403.635	76.29
403.844	172.54
404.053	123.39
404.262	113.15
404.471	145.92
404.68	113.15
404.888	127.49
405.097	-5.63
405.306	115.2
405.515	160.25
405.724	84.48
405.933	123.39
406.142	123.39
406.35	158.21
406.559	131.58
406.768	176.64
406.977	221.69
407.185	160.25
407.394	205.31
407.603	117.25
407.812	188.93
408.02	190.97
408.229	170.49
408.438	240.12
408.646	195.07
408.855	180.73
409.064	201.21
409.272	287.23
409.481	262.65
409.69	184.83
409.898	250.36
410.107	272.89
410.315	270.84
410.524	225.79
410.733	385.53
410.941	320
411.15	322.04
411.358	322.04
411.567	401.91
411.775	287.23
411.984	307.71
412.192	369.15
412.401	420.35
412.609	403.96
412.818	326.14
413.026	457.21
413.234	371.19
413.443	496.12
413.651	459.26
413.86	459.26
414.068	559.61
414.276	557.56
414.485	573.94
414.693	602.61
414.901	586.23
415.11	610.81
415.318	557.56
415.526	565.75
415.734	682.49
415.943	672.25
416.151	643.57
416.359	682.49
416.567	815.6
416.776	752.12
416.984	819.7
417.192	809.46
417.4	846.32
417.608	813.56
417.817	915.95
418.025	893.43
418.233	1014.26
418.441	942.58
418.649	1057.26
418.857	1081.84
419.065	1063.41
419.273	1059.31
419.481	1161.71
419.689	1188.33
419.897	1262.06
420.105	1290.73
420.313	1360.36
420.521	1401.32
420.729	1468.91
420.937	1337.84
421.145	1509.86
421.353	1528.3
421.561	1673.7
421.769	1647.08
421.977	1778.15
422.185	1782.24
422.393	1841.64
422.601	2032.1
422.809	1921.51
423.017	1935.84
423.224	2075.1
423.432	2195.93
423.64	2175.45
423.848	2370.01
424.056	2267.61
424.263	2419.16
424.471	2507.23
424.679	2499.03
424.887	2580.95
425.094	2712.02
425.302	2795.99
425.51	2845.14
425.718	3031.51
425.925	2929.11
426.133	3131.86
426.341	3213.77
426.548	3305.93
426.756	3467.72
426.964	3287.5
427.171	3477.96
427.379	3713.48
427.586	3660.23
427.794	3850.69
428.001	4078.02
428.209	4237.76
428.417	4186.56
428.624	4383.17
428.832	4573.63
429.039	4512.19
429.247	4460.99
429.454	4901.3
429.662	5161.39
429.869	4868.53
430.076	5271.98
430.284	5048.75
430.491	5306.8
430.699	5624.23
430.906	5626.28
431.114	5693.87
431.321	5917.09
431.528	6046.12
431.736	6459.81
431.943	6519.2
432.15	6482.33
432.358	6568.35
432.565	7004.57
432.772	6992.28
432.979	7199.12
433.187	7276.94
433.394	7491.98
433.601	7946.63
433.808	7969.16
434.016	7991.69
434.223	8278.4
434.43	8536.45
434.637	8636.8
434.844	9040.25
435.052	9468.27
435.259	9298.29
435.466	9380.21
435.673	9236.85
435.88	9931.11
436.087	10410.34
436.294	10166.63
436.501	10142.05
436.708	10211.68
436.915	10535.26
437.122	11360.59
437.329	11045.21
437.537	11393.36
437.743	11440.47
437.95	11598.16
438.157	12239.17
438.364	12575.04
438.571	12542.27
438.778	12710.21
438.985	13981.99
439.192	13084.98
439.399	13533.49
439.606	13406.52
439.813	14080.3
440.02	14985.5
440.227	14723.36
440.433	14571.81
440.64	14911.77
440.847	14956.83
441.054	15276.31
441.261	16236.81
441.467	16083.21
441.674	16402.69
441.881	16806.14
442.088	16976.12
442.294	16869.63
442.501	17293.56
442.708	17936.62
442.914	18747.62
443.121	19407.06
443.328	18641.12
443.534	19914.96
443.741	19464.41
443.948	19333.34
444.154	20678.85
444.361	20355.27
444.568	20547.78
444.774	20715.72
444.981	20844.74
445.187	21450.94
445.394	22532.26
445.6	22337.71
445.807	24221.84
446.013	23126.18
446.22	23791.76
446.426	24840.32
446.633	24920.2
446.839	25475.2
447.046	24670.34
447.252	26151.02
447.459	25979
447.665	25870.45
447.871	27187.3
448.078	28387.41
448.284	26921.06
448.491	27371.61
448.697	29007.94
448.903	29532.22
449.11	29272.13
449.316	28905.54
449.522	29341.76
449.728	30509.1
449.935	30765.1
450.141	30310.45
450.347	31125.54
450.553	30478.38
450.76	30648.36
450.966	31551.52
451.172	31283.23
451.378	32364.56
451.584	31303.71
451.791	32124.95
451.997	32159.77
452.203	32837.64
452.409	32749.58
452.615	32651.28
452.821	31522.85
453.027	31559.71
453.233	32772.11
453.44	31858.71
453.646	31928.34
453.852	32053.27
454.058	32636.94
454.264	31465.5
454.47	32516.11
454.676	31440.93
454.882	32837.64
455.088	29816.89
455.294	30339.12
455.5	30548.01
455.705	31272.99
455.911	29960.25
456.117	29294.66
456.323	29022.28
456.529	27357.28
456.735	28717.13
456.941	28043.35
457.147	27709.53
457.352	26525.8
457.558	26456.17
457.764	26593.39
457.97	25995.38
458.176	25704.57
458.381	25137.28
458.587	24297.61
458.793	24135.82
458.999	22868.13
459.204	24627.34
459.41	24043.67
459.616	22397.1
459.821	22233.26
460.027	22427.82
460.233	21653.69
460.438	20721.86
460.644	21270.72
460.85	19931.34
461.055	19656.92
461.261	19800.27
461.466	18405.61
461.672	17948.91
461.878	18909.41
462.083	17682.67
462.289	17426.68
462.494	17355
462.7	16324.87
462.905	16042.25
463.111	16433.41
463.316	16576.77
463.522	16554.24
463.727	16208.14
463.932	16288.01
464.138	15956.24
464.343	16369.93
464.549	15558.93
464.754	16318.73
464.959	15974.67
465.165	15851.79
465.37	15094.04
465.575	14856.48
465.781	15329.56
465.986	15644.95
466.191	14915.87
466.397	14760.22
466.602	13988.14
466.807	14663.97
467.012	14475.56
467.218	14143.78
467.423	14117.16
467.628	14326.05
467.833	14811.42
468.038	14432.55
468.244	13986.09
468.449	14623.01
468.654	13850.92
468.859	13797.68
469.064	13842.73
469.269	13484.34
469.474	13295.93
469.679	13635.89
469.885	13277.49
470.09	13463.86
470.295	13478.19
470.5	13113.66
470.705	13304.12
470.91	12970.3
471.115	12816.7
471.32	13091.13
471.525	12833.08
471.73	12534.08
471.935	12560.7
472.139	12003.66
472.344	12192.07
472.549	12149.06
472.754	12093.77
472.959	11706.7
473.164	11450.71
473.369	11559.25
473.574	11841.87
473.778	11657.55
473.983	11518.29
474.188	11428.18
474.393	11045.21
474.598	11157.85
474.802	11067.74
475.007	10922.33
475.212	10973.53
475.417	10580.32
475.621	10623.33
475.826	10590.56
476.031	10207.59
476.235	10277.22
476.44	10518.88
476.645	10211.68
476.849	10131.81
477.054	10109.29
477.259	9961.83
477.463	9910.63
477.668	9539.95
477.872	9759.08
478.077	9605.49
478.282	9228.66
478.486	9220.47
478.691	9122.16
478.895	9036.15
479.1	9062.77
479.304	9193.84
479.509	8950.14
479.713	9216.37
479.918	8921.46
480.122	8905.08
480.326	8943.99
480.531	8747.39
480.735	8694.14
480.94	8581.5
481.144	9068.92
481.348	8489.34
481.553	8434.05
481.757	8444.29
481.961	8558.97
482.166	8657.28
482.37	8692.09
482.574	8259.97
482.778	8477.05
482.983	8622.46
483.187	8456.57
483.391	8675.71
483.595	8495.49
483.8	8444.29
484.004	8450.43
484.208	8354.18
484.412	8362.37
484.616	8413.57
484.821	8446.34
485.025	8352.13
485.229	8413.57
485.433	8323.46
485.637	8378.75
485.841	8018.31
486.045	8339.84
486.249	8425.86
486.453	8393.09
486.657	8432
486.861	8544.64
487.065	8196.48
487.269	8372.61
487.473	8196.48
487.677	8411.52
487.881	8386.94
488.085	8231.3
488.289	8448.38
488.493	8305.03
488.697	8475.01
488.901	8464.77
489.105	8374.66
489.309	8458.62
489.512	8620.41
489.716	8640.89
489.92	8561.02
490.124	8550.78
490.328	8632.7
490.531	8530.3
490.735	8624.51
490.939	8681.85
491.143	8630.65
491.346	8810.87
491.55	8661.37
491.754	8728.95
491.958	8728.95
492.161	8700.28
492.365	9068.92
492.569	8903.03
492.772	8810.87
492.976	8946.04
493.18	8857.98
493.383	9220.47
493.587	9242.99
493.79	9322.87
493.994	9130.36
494.197	9212.28
494.401	9429.36
494.605	9290.1
494.808	9443.7
495.012	9511.28
495.215	9558.38
495.419	9828.71
495.622	9505.13
495.825	9783.66
496.029	9642.35
496.232	10142.05
496.436	9949.54
496.639	10346.85
496.843	10142.05
497.046	10361.19
497.249	10303.84
497.453	10506.59
497.656	10559.84
497.859	10629.47
498.063	10721.63
498.266	10821.98
498.469	10873.18
498.673	10963.29
498.876	11098.45
499.079	11223.38
499.282	11346.26
499.485	11481.42
499.689	11692.37
499.892	11536.72
500.095	11555.15
500.298	12116.3
500.501	12097.86
500.705	12460.35
500.908	12460.35
501.111	12546.37
501.314	12568.9
501.517	12912.95
501.72	13017.4
501.923	12980.54
502.126	13281.59
502.329	13371.7
502.532	13304.12
502.735	13590.83
502.938	13748.53
503.141	13961.51
503.344	14319.91
503.547	14115.11
503.75	14240.04
503.953	14461.22
504.156	14729.5
504.359	14909.72
504.562	15098.14
504.765	15126.81
504.968	15221.02
505.17	15675.66
505.373	15671.57
505.576	15722.77
505.779	16146.7
505.982	15986.96
506.185	15950.09
506.387	16226.57
506.59	16681.22
506.793	16920.83
506.996	16625.92
507.198	17271.03
507.401	17176.83
507.604	17477.88
507.807	17688.82
508.009	18004.21
508.212	17973.49
508.415	18219.24
508.617	18305.26
508.82	18491.62
509.022	18458.85
509.225	19075.29
509.428	19058.91
509.63	19054.81
509.833	19693.78
510.035	19759.31
510.238	19663.06
510.44	20029.65
510.643	20412.62
510.845	20750.53
511.048	20371.66
511.25	20648.13
511.453	20809.92
511.655	21633.21
511.858	21350.59
512.06	21549.24
512.262	22010.03
512.465	21747.89
512.667	22165.68
512.87	22495.4
513.072	22732.97
513.274	22704.29
513.477	22993.06
513.679	23304.35
513.881	23482.52
514.084	23742.61
514.286	23586.97
514.488	24027.28
514.69	24713.35
514.893	24830.09
515.095	24549.51
515.297	24795.27
515.499	25206.91
515.701	25411.71
515.904	25589.88
516.106	26222.7
516.308	25974.9
516.51	26572.91
516.712	26421.36
516.914	26792.04
517.116	27463.77
517.318	27117.67
517.52	27717.72
517.722	27695.19
517.925	27897.94
518.127	28282.96
518.329	28422.22
518.531	28352.59
518.733	28864.58
518.935	28899.4
519.136	29358.14
519.338	29411.39
519.54	29665.34
519.742	30095.41
519.944	30353.46
520.146	30474.29
520.348	30693.42
520.55	30793.77
520.752	31248.42
520.954	31887.39
521.155	31193.12
521.357	31643.68
521.559	32014.36
521.761	32364.56
521.963	32382.99
522.164	32503.82
522.366	33026.06
522.568	33138.69
522.77	33449.99
522.971	33796.09
523.173	33626.11
523.375	33957.88
523.576	34371.57
523.778	34199.54
523.98	34463.73
524.181	34744.3
524.383	34408.43
524.584	35305.45
524.786	35239.91
524.988	34746.35
525.189	35907.55
525.391	35766.24
525.592	35694.56
525.794	36253.65
525.995	35932.12
526.197	35946.46
526.398	36571.09
526.6	36595.67
526.801	36679.63
527.003	36732.88
527.204	36816.85
527.406	37001.16
527.607	37148.62
527.808	37302.21
528.01	36937.68
528.211	37779.39
528.412	38184.89
528.614	37767.1
528.815	37896.13
529.016	38502.32
529.218	37976
529.419	37844.93
529.62	38371.25
529.822	38303.67
530.023	38571.96
530.224	38520.76
530.425	38633.39
530.626	38109.11
530.828	38137.79
531.029	38813.62
531.23	38416.31
531.431	38592.44
531.632	38592.44
531.833	39180.2
532.035	39139.24
532.236	39366.57
532.437	39124.91
532.638	39114.67
532.839	39509.93
533.04	38864.81
533.241	38700.98
533.442	39602.08
533.643	39344.04
533.844	39399.33
534.045	39739.3
534.246	38815.66
534.447	39698.34
534.648	39559.08
534.849	39399.33
535.05	39239.59
535.251	39548.84
535.451	39292.84
535.652	39825.31
535.853	39282.6
536.054	39731.11
536.255	39399.33
536.456	39395.24
536.657	39841.7
536.857	39493.54
537.058	39440.29
537.259	39681.95
537.46	39896.99
537.66	39137.19
537.861	39530.4
538.062	39505.83
538.263	39987.1
538.463	39413.67
538.664	39540.64
538.865	39186.35
539.065	39708.58
539.266	39292.84
539.466	39780.26
539.667	39196.59
539.868	39841.7
540.068	39858.08
540.269	39620.52
540.469	39978.91
540.67	39344.04
540.87	39595.94
541.071	39458.73
541.271	39606.18
541.472	39321.51
541.672	39391.14
541.873	39438.25
542.073	38887.34
542.274	40038.3
542.474	39487.4
542.675	39169.96
542.875	39585.7
543.075	39372.71
543.276	39120.81
543.476	39684
543.676	39241.64
543.877	39618.47
544.077	39333.8
544.277	39206.83
544.478	39196.59
544.678	39706.53
544.878	39260.07
545.078	39542.69
545.279	39227.31
545.479	39090.09
545.679	39538.6
545.879	39282.6
546.079	39258.02
546.28	39628.71
546.48	39122.86
546.68	39407.53
546.88	39141.29
547.08	38999.98
547.28	39258.02
547.48	38817.71
547.68	39233.45
547.88	38623.15
548.081	39374.76
548.281	38971.31
548.481	39057.32
548.681	39169.96
548.881	39051.18
549.081	38995.88
549.28	38918.06
549.48	39372.71
549.68	39124.91
549.88	39344.04
550.08	38926.25
550.28	39126.95
550.48	39098.28
550.68	39053.23
550.88	39137.19
551.08	38799.28
551.279	38889.39
551.479	38592.44
551.679	39010.22
551.879	38743.98
552.079	39180.2
552.278	38545.33
552.478	38551.48
552.678	38817.71
552.878	39221.16
553.077	38602.67
553.277	38375.35
553.477	39036.84
553.676	38805.42
553.876	39053.23
554.076	38451.13
554.275	38791.09
554.475	38318.01
554.674	38631.35
554.874	38934.45
555.074	38416.31
555.273	38750.13
555.473	38508.47
555.672	37949.37
555.872	38533.04
556.071	38498.23
556.271	39024.56
556.47	38330.3
556.67	38320.06
556.869	38318.01
557.068	38029.24
557.268	37912.51
557.467	38240.18
557.667	37930.94
557.866	38029.24
558.065	38117.31
558.265	37892.03
558.464	37894.08
558.663	38346.68
558.863	37625.79
559.062	38068.16
559.261	37621.7
559.461	38125.5
559.66	37369.8
559.859	37543.88
560.058	37654.47
560.258	37720
560.457	37089.23
560.656	37672.9
560.855	37345.22
561.054	37480.39
561.253	37076.94
561.453	37496.77
561.652	37425.09
561.851	37613.51
562.05	37402.57
562.249	36820.94
562.448	37259.21
562.647	36757.46
562.846	36509.65
563.045	36814.8
563.244	36822.99
563.443	37130.19
563.642	36302.81
563.841	36681.68
564.04	36167.64
564.239	37027.79
564.438	36233.18
564.637	36409.3
564.836	36108.25
565.035	36175.83
565.234	35999.71
565.432	36270.04
565.631	35749.85
565.83	36061.15
566.029	35903.45
566.228	35534.82
566.427	35639.26
566.625	35473.38
566.824	35123.18
567.023	35809.25
567.222	34912.24
567.42	35186.66
567.619	35205.09
567.818	35215.33
568.016	35157.99
568.215	35524.58
568.414	34914.28
568.612	35065.83
568.811	34682.86
569.01	35121.13
569.208	34076.66
569.407	34488.31
569.605	34318.32
569.804	34514.93
570.002	33955.83
570.201	34766.83
570.4	33943.55
570.598	33800.19
570.797	33562.62
570.995	34129.91
571.193	33419.27
571.392	33757.18
571.59	33396.74
571.789	33357.83
571.987	33310.72
572.186	33155.08
572.384	33167.37
572.582	33441.79
572.781	33421.31
572.979	33142.79
573.177	33085.45
573.376	33189.89
573.574	32499.73
573.772	33099.78
573.971	32946.19
574.169	32346.13
574.367	32645.13
574.565	32600.08
574.763	32399.38
574.962	32378.9
575.16	32047.13
575.358	32045.08
575.556	31651.87
575.754	32421.91
575.952	31639.58
576.151	32000.02
576.349	31744.03
576.547	31887.39
576.745	31617.05
576.943	31447.07
577.141	31572
577.339	31653.92
577.537	31254.56
577.735	31088.68
577.933	30877.74
578.131	31195.17
578.329	30801.96
578.527	31029.29
578.725	30380.08
578.923	31275.04
579.121	30640.17
579.319	30353.46
579.516	30738.47
579.714	30685.23
579.912	30640.17
580.11	30314.55
580.308	30169.14
580.506	30380.08
580.704	29616.19
580.901	30197.81
581.099	30103.6
581.297	29732.92
581.495	29943.86
581.692	30216.24
581.89	29556.8
582.088	29739.07
582.285	29610.04
582.483	29712.44
582.681	29747.26
582.878	29438.01
583.076	28917.83
583.274	29450.3
583.471	29001.8
583.669	29155.4
583.866	28844.1
584.064	28995.65
584.262	28663.88
584.459	28954.69
584.657	28444.75
584.854	29022.28
585.052	27891.8
585.249	28633.16
585.447	28614.73
585.644	28139.6
585.841	27922.52
586.039	28338.26
586.236	27902.04
586.434	27998.29
586.631	27926.61
586.828	27637.85
587.026	27816.02
587.223	27705.43
587.42	27529.31
587.618	27715.67
587.815	26966.12
588.012	27136.1
588.21	27299.94
588.407	27275.36
588.604	27195.49
588.801	27027.56
588.999	27273.31
589.196	27084.9
589.393	27238.5
589.59	26765.42
589.787	26583.15
589.984	26591.34
590.182	26374.25
590.379	26663.02
590.576	26476.65
590.773	26302.57
590.97	26148.98
591.167	26372.21
591.364	26028.15
591.561	26220.66
591.758	26124.4
591.955	26046.58
592.152	25782.39
592.349	25761.91
592.546	25798.77
592.743	25561.21
592.94	25563.26
593.137	25501.82
593.334	25649.27
593.531	25014.4
593.727	25067.65
593.924	25401.47
594.121	25055.36
594.318	25206.91
594.515	24760.45
594.712	25055.36
594.908	24737.93
595.105	24963.2
595.302	24373.39
595.499	24600.71
595.696	24572.04
595.892	24113.3
596.089	24637.58
596.286	24455.31
596.482	24162.45
596.679	23971.99
596.876	24479.88
597.072	23771.29
597.269	24180.88
597.466	23957.65
597.662	24027.28
597.859	23853.2
598.055	24002.71
598.252	23644.31
598.448	23531.67
598.645	23484.57
598.841	23177.37
599.038	23216.29
599.234	23337.12
599.431	23339.16
599.627	22839.46
599.824	22997.15
600.02	23054.5
600.217	22755.49
600.413	22898.85
600.609	22573.22
600.806	22591.66
601.002	22935.71
601.198	22446.25
601.395	22304.94
601.591	22526.12
601.787	22458.54
601.984	22251.69
602.18	22345.9
602.376	22212.78
602.572	22192.3
602.769	21956.78
602.965	21915.83
603.161	21895.35
603.357	21786.8
603.553	21958.83
603.75	21885.11
603.946	21651.64
604.142	21530.81
604.338	21348.54
604.534	21827.76
604.73	21174.46
604.926	21272.76
605.122	21506.23
605.318	21121.21
605.514	21162.17
605.71	21168.32
605.906	21166.27
606.102	21244.09
606.298	21080.25
606.494	20926.66
606.69	21000.38
606.886	20930.75
607.082	20576.45
607.278	20752.58
607.474	20340.94
607.67	20865.22
607.866	20420.81
608.062	20533.45
608.257	20635.85
608.453	20379.85
608.649	20205.77
608.845	20291.79
609.041	20361.42
609.236	20402.38
609.432	20068.56
609.628	20322.51
609.824	20136.14
610.019	20058.32
610.215	20156.62
610.411	20164.81
610.606	19824.85
610.802	19871.95
610.998	19935.44
611.193	19761.36
611.389	19796.18
611.584	19785.94
611.78	19833.04
611.976	19579.09
612.171	19509.46
612.367	19706.07
612.562	19558.61
612.758	19456.22
612.953	19597.52
613.149	19556.57
613.344	19271.9
613.539	19564.76
613.735	19235.03
613.93	19167.45
614.126	19052.77
614.321	19323.1
614.517	19409.11
614.712	19054.81
614.907	18970.85
615.103	19067.1
615.298	19079.39
615.493	19298.52
615.688	18614.5
615.884	19040.48
616.079	18874.59
616.274	18968.8
616.47	18544.87
616.665	18901.22
616.86	18655.46
617.055	18653.41
617.25	18432.23
617.445	18594.02
617.641	18221.29
617.836	18393.32
618.031	18180.33
618.226	18508.01
618.421	18401.51
618.616	18419.94
618.811	17768.69
619.006	18344.17
619.201	17844.46
619.396	18235.63
619.591	17869.04
619.786	17928.43
619.981	17400.05
620.176	17697.01
620.371	17680.63
620.566	17866.99
620.761	17367.29
620.956	17537.27
621.151	17252.6
621.346	17283.32
621.541	16949.5
621.735	17242.36
621.93	16836.86
622.125	16914.69
622.32	16812.29
622.515	16791.81
622.709	16679.17
622.904	16482.56
623.099	16601.35
623.294	16476.42
623.488	16402.69
623.683	16531.72
623.878	15759.63
624.072	15984.91
624.267	16177.42
624.462	15782.16
624.656	15857.93
624.851	15632.66
625.046	15579.41
625.24	15528.21
625.435	15540.5
625.629	15200.54
625.824	15214.87
626.018	15319.32
626.213	14647.58
626.407	14999.84
626.602	14864.67
626.796	14919.96
626.991	15071.51
627.185	14907.68
627.38	14846.24
627.574	14653.73
627.768	14741.79
627.963	14463.27
628.157	14373.16
628.352	14432.55
628.546	14154.02
628.74	14483.75
628.935	14090.54
629.129	13951.28
629.323	13824.3
629.517	13852.97
629.712	13852.97
629.906	13787.44
630.1	13353.27
630.294	13685.04
630.489	13580.59
630.683	13455.67
630.877	13158.71
631.071	13371.7
631.265	13412.66
631.459	13095.22
631.653	13291.83
631.848	13222.2
632.042	13084.98
632.236	13236.53
632.43	12630.34
632.624	12921.15
632.818	12716.35
633.012	12630.34
633.206	12577.09
633.4	12474.69
633.594	12400.96
633.788	12417.35
633.982	12329.28
634.176	12396.87
634.369	12259.65
634.563	12124.49
634.757	12071.24
634.951	12212.55
635.145	11927.88
635.339	12063.05
635.533	11702.61
635.726	11475.28
635.92	11567.44
636.114	11725.13
636.308	11489.62
636.501	11530.58
636.695	11624.78
636.889	11555.15
637.083	11460.95
637.276	11329.88
637.47	11198.81
637.664	11256.15
637.857	11317.59
638.051	11170.13
638.244	11006.3
638.438	10996.06
638.632	10910.04
638.825	11065.69
639.019	10899.8
639.212	10613.09
639.406	10670.43
639.599	10570.08
639.793	10715.48
639.986	10473.82
640.18	10717.53
640.373	10299.75
640.567	10256.74
640.76	10449.25
640.954	10158.44
641.147	10209.64
641.34	10201.44
641.534	10115.43
641.727	10275.17
641.92	10004.84
642.114	9976.17
642.307	9865.58
642.5	10103.14
642.694	9599.34
642.887	9537.9
643.08	9800.04
643.273	9630.06
643.467	9410.93
643.66	9484.66
643.853	9271.67
644.046	9412.98
644.239	9437.55
644.432	9314.67
644.626	9003.38
644.819	9120.12
645.012	9136.5
645.205	9359.73
645.398	9199.99
645.591	9099.64
645.784	9013.62
645.977	9003.38
646.17	9040.25
646.363	8849.78
646.556	8786.3
646.749	8778.11
646.942	8923.51
647.135	8546.69
647.328	8667.52
647.521	8663.42
647.714	8481.15
647.907	8464.77
648.099	8612.22
648.292	8595.84
648.485	8296.83
648.678	8282.5
648.871	8296.83
649.064	8020.36
649.256	8159.62
649.449	8194.43
649.642	7991.69
649.835	8163.72
650.027	8098.18
650.22	7989.64
650.413	7758.22
650.605	8003.97
650.798	7770.51
650.991	7715.21
651.183	7866.76
651.376	7758.22
651.568	7831.94
651.761	7598.48
651.954	7700.87
652.146	7639.44
652.339	7602.57
652.531	7553.42
652.724	7344.53
652.916	7225.75
653.109	7340.43
653.301	7365.01
653.494	7295.38
653.686	7285.14
653.879	7250.32
654.071	7182.74
654.263	7264.66
654.456	7219.6
654.648	7143.83
654.84	6949.27
655.033	7008.66
655.225	6951.32
655.417	6773.14
655.61	6922.65
655.802	6922.65
655.994	6711.71
656.186	6949.27
656.379	6754.71
656.571	6744.47
656.763	6527.39
656.955	6547.87
657.148	6517.15
657.34	6545.82
657.532	6447.52
657.724	6474.14
657.916	6515.1
658.108	6441.37
658.3	6302.11
658.492	6379.93
658.684	6111.65
658.876	6445.47
659.068	6367.65
659.26	6058.4
659.452	6132.13
659.644	6291.87
659.836	6111.65
660.028	6177.19
660.22	6173.09
660.412	6140.32
660.604	5937.57
660.796	5902.76
660.988	5882.28
661.18	5945.77
661.372	5915.05
661.563	5878.18
661.755	5720.49
661.947	5792.17
662.139	5706.15
662.331	5669.29
662.522	5564.84
662.714	5691.82
662.906	5521.84
663.097	5611.95
663.289	5441.96
663.481	5583.27
663.673	5460.4
663.864	5487.02
664.056	5212.59
664.247	5413.29
664.439	5308.85
664.631	5317.04
664.822	5337.52
665.014	5314.99
665.205	5300.66
665.397	5292.46
665.588	5247.41
665.78	5218.74
665.971	5325.23
666.163	5112.24
666.354	5077.43
666.546	5067.19
666.737	5104.05
666.929	5102
667.12	5085.62
667.311	4966.84
667.503	4927.92
667.694	5003.7
667.885	4868.53
668.077	4884.92
668.268	4809.14
668.459	4831.67
668.651	4778.42
668.842	4829.62
669.033	4786.61
669.224	4716.98
669.416	4716.98
669.607	4643.26
669.798	4501.95
669.989	4542.91
670.18	4540.86
670.371	4596.15
670.563	4696.5
670.754	4544.95
670.945	4428.22
671.136	4547
671.327	4379.07
671.518	4434.36
671.709	4422.08
671.9	4499.9
672.091	4463.04
672.282	4415.93
672.473	4387.26
672.664	4229.57
672.855	4254.14
673.046	4383.17
673.237	4317.63
673.428	4196.8
673.619	4184.51
673.809	4305.34
674	4194.75
674.191	4063.68
674.382	4217.28
674.573	4071.87
674.764	4219.33
674.954	4229.57
675.145	4018.63
675.336	4110.79
675.527	4037.06
675.717	4137.41
675.908	3916.23
676.099	4067.78
676.289	4014.53
676.48	3934.66
676.671	3877.32
676.861	3867.08
677.052	3932.61
677.243	4000.19
677.433	3850.69
677.624	3965.38
677.814	3842.5
678.005	3860.93
678.195	3781.06
678.386	3826.12
678.576	3695.05
678.767	3768.77
678.957	3736.01
679.148	3701.19
679.338	3518.92
679.529	3742.15
679.719	3631.56
679.909	3576.27
680.1	3557.83
680.29	3652.04
680.481	3580.36
680.671	3576.27
680.861	3578.31
681.052	3559.88
681.242	3604.94
681.432	3656.14
681.622	3412.43
681.813	3514.83
682.003	3500.49
682.193	3473.87
682.383	3473.87
682.573	3490.25
682.764	3297.74
682.954	3367.37
683.144	3389.9
683.334	3383.76
683.524	3469.77
683.714	3287.5
683.904	3353.04
684.094	3293.65
684.284	3400.14
684.474	3422.67
684.664	3297.74
684.854	3445.2
685.044	3326.41
685.234	3281.36
685.424	3305.93
685.614	3275.21
685.804	3236.3
685.994	3299.79
686.184	3285.45
686.374	3113.42
686.564	3156.43
686.753	3269.07
686.943	3088.85
687.133	3236.3
687.323	3269.07
687.513	3170.77
687.702	3080.66
687.892	3033.55
688.082	2879.96
688.272	3021.27
688.461	3117.52
688.651	3115.47
688.841	2984.4
689.03	3051.99
689.22	3015.12
689.41	3039.7
689.599	3002.83
689.789	2974.16
689.979	2906.58
690.168	2871.76
690.358	2828.76
690.547	2857.43
690.737	3000.79
690.926	2869.72
691.116	2804.18
691.305	2869.72
691.495	2765.27
691.684	2877.91
691.874	2855.38
692.063	2914.77
692.252	2929.11
692.442	2869.72
692.631	2712.02
692.82	2851.28
693.01	2693.59
693.199	2634.2
693.388	2787.8
693.578	2705.88
693.767	2789.85
693.956	2695.64
694.146	2644.44
694.335	2695.64
694.524	2632.15
694.713	2564.57
694.902	2671.06
695.092	2689.49
695.281	2636.25
695.47	2621.91
695.659	2544.09
695.848	2755.03
696.037	2675.16
696.226	2601.43
696.415	2519.51
696.604	2718.17
696.793	2550.23
696.982	2578.9
697.171	2574.81
697.36	2519.51
697.549	2574.81
697.738	2456.03
697.927	2648.54
698.116	2492.89
698.305	2570.71
698.494	2550.23
698.683	2574.81
698.872	2501.08
699.061	2499.03
699.25	2511.32
699.438	2619.86
699.627	2558.42
699.816	2566.62
700.005	2517.47
700.193	2478.55
700.382	2443.74
700.571	2548.19
700.76	2503.13
700.948	2472.41
701.137	2413.02
701.326	2519.51
701.514	2554.33
701.703	2499.03
701.892	2435.55
702.08	2482.65
702.269	2580.95
702.457	2413.02
702.646	2503.13
702.834	2406.88
703.023	2519.51
703.212	2398.68
703.4	2451.93
703.589	2482.65
703.777	2550.23
703.965	2535.9
704.154	2580.95
704.342	2310.62
704.531	2435.55
704.719	2474.46
704.907	2443.74
705.096	2327
705.284	2415.07
705.472	2466.27
705.661	2443.74
705.849	2464.22
706.037	2380.25
706.226	2370.01
706.414	2386.4
706.602	2402.78
706.79	2382.3
706.979	2396.64
707.167	2286.05
707.355	2353.63
707.543	2345.44
707.731	2490.84
707.919	2560.47
708.107	2388.44
708.296	2351.58
708.484	2343.39
708.672	2421.21
708.86	2384.35
709.048	2314.72
709.236	2296.28
709.424	2474.46
709.612	2484.7
709.8	2320.86
709.988	2417.12
710.176	2374.11
710.364	2443.74
710.551	2355.68
710.739	2492.89
710.927	2429.4
711.115	2449.88
711.303	2333.15
711.491	2318.81
711.679	2337.24
711.866	2376.16
712.054	2327
712.242	2335.2
712.43	2390.49
712.617	2400.73
712.805	2290.14
712.993	2347.48
713.181	2302.43
713.368	2425.31
713.556	2351.58
713.744	2441.69
713.931	2384.35
714.119	2384.35
714.306	2384.35
714.494	2255.33
714.682	2337.24
714.869	2290.14
715.057	2363.87
715.244	2327
715.432	2281.95
715.619	2286.05
715.807	2300.38
715.994	2308.57
716.182	2339.29
716.369	2367.96
716.556	2353.63
716.744	2410.97
716.931	2345.44
717.119	2204.13
717.306	2277.85
717.493	2423.26
717.681	2202.08
717.868	2363.87
718.055	2349.53
718.242	2240.99
718.43	2245.09
718.617	2245.09
718.804	2324.96
718.991	2236.89
719.179	2216.41
719.366	2316.76
719.553	2271.71
719.74	2249.18
719.927	2253.28
720.114	2335.2
720.301	2271.71
720.488	2257.37
720.676	2306.52
720.863	2218.46
721.05	2335.2
721.237	2288.09
721.424	2232.8
721.611	2316.76
721.798	2224.61
721.985	2204.13
722.172	2132.45
722.358	2279.9
722.545	2234.85
722.732	2152.93
722.919	2279.9
723.106	2286.05
723.293	2195.93
723.48	2173.41
723.667	2273.76
723.853	2154.98
724.04	2220.51
724.227	2253.28
724.414	2083.3
724.6	2204.13
724.787	2210.27
724.974	2163.17
725.161	2193.89
725.347	2075.1
725.534	2159.07
725.72	2224.61
725.907	2247.13
726.094	2236.89
726.28	2163.17
726.467	2290.14
726.653	2286.05
726.84	2206.17
727.027	2351.58
727.213	2062.82
727.4	2247.13
727.586	2040.29
727.773	2214.37
727.959	2107.87
728.145	2286.05
728.332	2243.04
728.518	2193.89
728.705	2148.83
728.891	2019.81
729.077	2181.6
729.264	2101.73
729.45	2220.51
729.636	2154.98
729.823	2136.54
730.009	2132.45
730.195	2163.17
730.382	2126.3
730.568	2163.17
730.754	2097.63
730.94	1987.04
731.126	2097.63
731.313	2171.36
731.499	2175.45
731.685	2107.87
731.871	2058.72
732.057	2138.59
732.243	2081.25
732.429	2109.92
732.615	2028
732.801	2138.59
732.987	2081.25
733.173	2054.62
733.359	1978.85
733.545	2003.43
733.731	2122.21
733.917	2089.44
734.103	2062.82
734.289	1974.75
734.475	1944.03
734.661	2138.59
734.847	1927.65
735.033	2052.58
735.219	2077.15
735.404	2054.62
735.59	2150.88
735.776	2163.17
735.962	1966.56
736.148	2017.76
736.333	2116.06
736.519	2048.48
736.705	2015.71
736.89	1948.13
737.076	2021.86
737.262	1982.95
737.447	1982.95
737.633	2017.76
737.819	1952.23
738.004	1903.07
738.19	2023.91
738.375	1858.02
738.561	1847.78
738.747	1952.23
738.932	1898.98
739.118	2001.38
739.303	1851.88
739.489	2152.93
739.674	1903.07
739.859	1878.5
740.045	1862.12
740.23	1833.44
740.416	1794.53
740.601	1778.15
740.786	1886.69
740.972	1815.01
741.157	1952.23
741.342	1855.97
741.528	1839.59
741.713	1831.4
741.898	1831.4
742.084	1843.68
742.269	1880.55
742.454	1827.3
742.639	1882.6
742.824	1782.24
743.01	1868.26
743.195	1778.15
743.38	1794.53
743.565	1757.67
743.75	1786.34
743.935	1731.05
744.12	1845.73
744.305	1784.29
744.49	1753.57
744.675	1688.04
744.86	1692.13
745.045	1722.85
745.23	1731.05
745.415	1718.76
745.6	1679.85
745.785	1688.04
745.97	1675.75
746.155	1720.81
746.34	1608.17
746.525	1636.84
746.71	1645.03
746.895	1630.7
747.079	1567.21
747.264	1604.07
747.449	1610.22
747.634	1640.93
747.819	1530.34
748.003	1491.43
748.188	1425.9
748.373	1530.34
748.557	1583.59
748.742	1483.24
748.927	1606.12
749.111	1511.91
749.296	1556.97
749.481	1544.68
749.665	1575.4
749.85	1520.1
750.034	1489.39
750.219	1556.97
750.404	1460.71
750.588	1479.15
750.773	1401.32
750.957	1440.23
751.141	1339.88
751.326	1401.32
751.51	1483.24
751.695	1458.67
751.879	1372.65
752.064	1440.23
752.248	1247.72
752.432	1401.32
752.617	1432.04
752.801	1411.56
752.985	1395.18
753.17	1282.54
753.354	1309.16
753.538	1376.75
753.722	1305.07
753.907	1309.16
754.091	1305.07
754.275	1325.55
754.459	1262.06
754.643	1305.07
754.828	1272.3
755.012	1305.07
755.196	1221.1
755.38	1303.02
755.564	1262.06
755.748	1294.83
755.932	1198.57
756.116	1233.39
756.3	1200.62
756.484	1186.29
756.668	1204.72
756.852	1208.81
757.036	1163.76
757.22	1159.66
757.404	1208.81
757.588	1151.47
757.772	1067.5
757.956	1147.37
758.14	1128.94
758.323	1126.89
758.507	1116.65
758.691	1094.13
758.875	1077.74
759.059	1155.57
759.242	1030.64
759.426	1102.32
759.61	1114.61
759.794	1090.03
759.977	1057.26
760.161	1139.18
760.345	1090.03
760.528	1022.45
760.712	1051.12
760.895	1001.97
761.079	1118.7
761.263	938.48
761.446	920.05
761.63	1006.06
761.813	1057.26
761.997	1034.74
762.18	1004.02
762.364	999.92
762.547	1008.11
762.731	987.63
762.914	915.95
763.098	1008.11
763.281	918
763.464	918
763.648	897.52
763.831	907.76
764.015	903.67
764.198	1014.26
764.381	928.24
764.564	922.1
764.748	946.67
764.931	985.58
765.114	909.81
765.297	831.99
765.481	911.86
765.664	895.47
765.847	918
766.03	985.58
766.213	918
766.397	801.27
766.58	860.66
766.763	922.1
766.946	858.61
767.129	963.06
767.312	858.61
767.495	872.95
767.678	930.29
767.861	866.8
768.044	819.7
768.227	856.56
768.41	901.62
768.593	791.03
768.776	827.89
768.959	856.56
769.142	829.94
769.324	872.95
769.507	903.67
769.69	836.08
769.873	764.4
770.056	979.44
770.239	786.93
770.421	860.66
770.604	831.99
770.787	840.18
770.97	748.02
771.152	821.75
771.335	819.7
771.518	815.6
771.7	733.68
771.883	823.8
772.066	883.19
772.248	709.11
772.431	836.08
772.613	717.3
772.796	768.5
772.978	729.59
773.161	805.36
773.343	758.26
773.526	760.31
773.708	705.01
773.891	653.81
774.073	811.51
774.256	770.55
774.438	672.25
774.621	741.88
774.803	709.11
774.985	707.06
775.168	692.73
775.35	705.01
775.532	696.82
775.715	696.82
775.897	729.59
776.079	698.87
776.261	741.88
776.444	664.05
776.626	715.25
776.808	657.91
776.99	684.53
777.173	666.1
777.355	731.64
777.537	662.01
777.719	680.44
777.901	606.71
778.083	639.48
778.265	672.25
778.447	664.05
778.629	575.99
778.811	582.14
778.993	604.66
779.175	602.61
779.357	610.81
779.539	575.99
779.721	608.76
779.903	610.81
780.085	647.67
780.267	555.51
780.449	571.9
780.631	549.37
780.812	584.18
780.994	586.23
781.176	541.18
781.358	551.42
781.54	504.31
781.721	559.61
781.903	539.13
782.085	526.84
782.267	518.65
782.448	528.89
782.63	494.07
782.812	524.79
782.993	471.54
783.175	508.41
783.357	489.98
783.538	506.36
783.72	483.83
783.901	399.87
784.083	510.46
784.264	489.98
784.446	455.16
784.627	391.67
784.809	510.46
784.99	420.35
785.172	508.41
785.353	485.88
785.535	410.11
785.716	481.78
785.897	426.49
786.079	387.58
786.26	418.3
786.441	457.21
786.623	424.44
786.804	393.72
786.985	406.01
787.167	397.82
787.348	393.72
787.529	502.26
787.71	485.88
787.891	381.43
788.073	397.82
788.254	360.95
788.435	438.78
788.616	426.49
788.797	350.71
788.978	385.53
789.159	406.01
789.34	395.77
789.522	328.19
789.703	350.71
789.884	416.25
790.065	420.35
790.246	414.2
790.427	406.01
790.607	348.67
790.788	344.57
790.969	358.91
791.15	270.84
791.331	334.33
791.512	307.71
791.693	346.62
791.874	338.43
792.054	393.72
792.235	369.15
792.416	365.05
792.597	381.43
792.778	307.71
792.958	344.57
793.139	330.23
793.32	336.38
793.5	293.37
793.681	272.89
793.862	242.17
794.042	307.71
794.223	295.42
794.404	254.46
794.584	199.16
794.765	248.32
794.945	375.29
795.126	344.57
795.306	363
795.487	291.32
795.667	315.9
795.848	258.56
796.028	369.15
796.209	346.62
796.389	289.28
796.57	295.42
796.75	311.8
796.93	324.09
797.111	283.13
797.291	324.09
797.471	242.17
797.652	238.08
797.832	231.93
798.012	326.14
798.192	229.88
798.373	240.12
798.553	236.03
798.733	260.6
798.913	266.75
799.093	291.32
799.274	322.04
799.454	262.65
799.634	203.26
799.814	268.8
799.994	244.22
800.174	221.69
800.354	246.27
800.534	283.13
800.714	201.21
800.894	307.71
801.074	193.02
801.254	197.12
801.434	223.74
801.614	188.93
801.794	182.78
801.974	715.25
802.154	315.9
802.334	264.7
802.514	215.55
802.693	207.36
802.873	188.93
803.053	291.32
803.233	238.08
803.413	164.35
803.592	145.92
803.772	227.84
803.952	229.88
804.131	174.59
804.311	223.74
804.491	190.97
804.67	201.21
804.85	193.02
805.03	225.79
805.209	231.93
805.389	219.64
805.568	197.12
805.748	201.21
805.928	199.16
806.107	213.5
806.287	264.7
806.466	219.64
806.646	199.16
806.825	205.31
807.004	92.67
807.184	174.59
807.363	188.93
807.543	193.02
807.722	129.53
807.901	166.4
808.081	193.02
808.26	201.21
808.439	190.97
808.619	168.45
808.798	193.02
808.977	174.59
809.156	227.84
809.336	139.77
809.515	152.06
809.694	215.55
809.873	139.77
810.052	135.68
810.231	180.73
810.411	172.54
810.59	215.55
810.769	158.21
810.948	143.87
811.127	135.68
811.306	174.59
811.485	139.77
811.664	154.11
811.843	203.26
812.022	195.07
812.201	133.63
812.38	139.77
812.559	96.77
812.737	178.69
812.916	107.01
813.095	66.05
813.274	152.06
813.453	164.35
813.632	160.25
813.811	162.3
813.989	137.73
814.168	213.5
814.347	115.2
814.526	174.59
814.704	98.81
814.883	231.93
815.062	145.92
815.24	76.29
815.419	111.1
815.598	195.07
815.776	113.15
815.955	152.06
816.133	20.99
816.312	90.62
816.49	156.16
816.669	113.15
816.847	111.1
817.026	172.54
817.204	70.14
817.383	92.67
817.561	39.42
817.74	127.49
817.918	59.9
818.097	229.88
818.275	156.16
818.453	115.2
818.632	111.1
818.81	190.97
818.988	129.53
819.167	66.05
819.345	70.14
819.523	72.19
819.701	168.45
819.879	39.42
820.058	74.24
820.236	104.96
820.414	115.2
820.592	109.05
820.77	156.16
820.948	125.44
821.127	12.8
821.305	45.57
821.483	100.86
821.661	190.97
821.839	74.24
822.017	12.8
822.195	141.82
822.373	166.4
822.551	139.77
822.729	117.25
822.907	127.49
823.085	162.3
823.262	113.15
823.44	113.15
823.618	45.57
823.796	145.92
823.974	113.15
824.152	86.53
824.329	111.1
824.507	115.2
824.685	117.25
824.863	49.66
825.04	41.47
825.218	147.97
825.396	31.23
825.574	78.33
825.751	49.66
825.929	107.01
826.107	72.19
826.284	72.19
826.462	-19.97
826.639	100.86
826.817	123.39
826.994	123.39
827.172	74.24
827.349	82.43
827.527	51.71
827.704	51.71
827.882	64
828.059	131.58
828.237	45.57
828.414	170.49
828.591	35.33
828.769	92.67
828.946	43.52
829.124	145.92
829.301	170.49
829.478	31.23
829.655	115.2
829.833	115.2
830.01	-5.63
830.187	76.29
830.364	100.86
830.542	102.91
830.719	147.97
830.896	82.43
831.073	74.24
831.25	-38.4
831.427	53.76
831.604	66.05
831.782	82.43
831.959	96.77
832.136	27.14
832.313	66.05
832.49	129.53
832.667	94.72
832.844	25.09
833.021	102.91
833.198	68.09
833.374	33.28
833.551	78.33
833.728	115.2
833.905	78.33
834.082	74.24
834.259	111.1
834.436	66.05
834.612	20.99
834.789	117.25
834.966	123.39
835.143	8.7
835.319	88.57
835.496	111.1
835.673	96.77
835.85	156.16
836.026	82.43
836.203	72.19
836.38	64
836.556	-5.63
836.733	49.66
836.909	117.25
837.086	84.48
837.262	102.91
837.439	92.67
837.616	49.66
837.792	16.9
837.968	57.86
838.145	25.09
838.321	98.81
838.498	78.33
838.674	127.49
838.851	121.34
839.027	23.04
839.203	2.56
839.38	127.49
839.556	6.66
839.732	80.38
839.909	139.77
840.085	125.44
840.261	35.33
840.437	84.48
840.614	10.75
840.79	-9.73
840.966	57.86
841.142	45.57
841.318	23.04
841.494	129.53
841.671	45.57
841.847	72.19
842.023	-30.21
842.199	14.85
842.375	121.34
842.551	-9.73
842.727	33.28
842.903	86.53
843.079	10.75
843.255	64
843.431	57.86
843.607	16.9
843.783	70.14
843.959	107.01
844.134	68.09
844.31	70.14
844.486	0.51
844.662	74.24
844.838	51.71
845.013	25.09
845.189	76.29
845.365	43.52
845.541	64
845.716	55.81
845.892	49.66
846.068	35.33
846.244	-32.26
846.419	78.33
846.595	-5.63
846.77	82.43
846.946	90.62
847.122	0.51
847.297	31.23
847.473	125.44
847.648	-24.06
847.824	78.33
847.999	45.57
848.175	57.86
848.35	-40.45
848.526	33.28
848.701	64
848.876	86.53
849.052	66.05
849.227	-11.78
849.403	25.09
849.578	0.51
849.753	80.38
849.929	59.9
850.104	-40.45
850.279	8.7
850.454	20.99
850.63	25.09
850.805	4.61
850.98	-15.87
851.155	31.23
851.33	0.51
851.505	41.47
851.681	109.05
851.856	25.09
852.031	33.28
852.206	43.52
852.381	35.33
852.556	33.28
852.731	14.85
852.906	18.94
853.081	16.9
853.256	57.86
853.431	6.66
853.606	0.51
853.781	10.75
853.956	27.14
854.131	47.62
854.305	-13.82
854.48	55.81
854.655	61.95
854.83	0.51
855.005	-7.68
855.18	109.05
855.354	-42.5
855.529	16.9
855.704	20.99
855.879	59.9
856.053	18.94
856.228	47.62
856.403	-3.58
856.577	8.7
856.752	82.43
856.926	2.56
857.101	14.85
857.276	10.75
857.45	14.85
857.625	29.18
857.799	68.09
857.974	16.9
858.148	-17.92
858.323	102.91
858.497	20.99
858.672	12.8
858.846	37.38
859.02	47.62
859.195	41.47
859.369	20.99
859.543	98.81
859.718	-38.4
859.892	45.57
860.066	86.53
860.241	-3.58
860.415	-24.06
860.589	41.47
860.763	23.04
860.938	41.47
861.112	78.33
861.286	33.28
861.46	68.09
861.634	-3.58
861.808	100.86
861.982	-1.54
862.157	-24.06
862.331	-36.35
862.505	14.85
862.679	8.7
862.853	-13.82
863.027	27.14
863.201	43.52
863.375	-5.63
863.549	0.51
863.722	-11.78
863.896	14.85
864.07	45.57
864.244	0.51
864.418	61.95
864.592	82.43
864.766	-1.54
864.939	27.14
865.113	-15.87
865.287	119.29
865.461	-38.4
865.634	-1.54
865.808	41.47
865.982	64
866.156	12.8
866.329	-52.74
866.503	-32.26
866.676	82.43
866.85	-38.4
867.024	45.57
867.197	18.94
867.371	49.66
867.544	53.76
867.718	-15.87
867.891	41.47
868.065	31.23
868.238	18.94
868.412	45.57
868.585	4.61
868.759	2.56
868.932	-32.26
869.105	47.62
869.279	-30.21
869.452	33.28
869.625	8.7
869.799	-3.58
869.972	-17.92
870.145	10.75
870.319	18.94
870.492	12.8
870.665	-32.26
870.838	14.85
871.011	-62.98
871.185	0.51
871.358	-9.73
871.531	78.33
871.704	16.9
871.877	57.86
872.05	-15.87
872.223	49.66
872.396	12.8
872.569	51.71
872.742	29.18
872.915	20.99
873.088	-7.68
873.261	72.19
873.434	43.52
873.607	37.38
873.78	72.19
873.953	-11.78
874.126	-24.06
874.299	4.61
874.471	14.85
874.644	20.99
874.817	4.61
874.99	16.9
875.163	35.33
875.335	45.57
875.508	20.99
875.681	29.18
875.853	2.56
876.026	-60.93
876.199	37.38
876.371	-48.64
876.544	-17.92
876.717	6.66
876.889	-32.26
877.062	16.9
877.234	10.75
877.407	41.47
877.579	2.56
877.752	-7.68
877.924	61.95
878.097	35.33
878.269	51.71
878.442	8.7
878.614	29.18
878.786	49.66
878.959	33.28
879.131	35.33
879.303	16.9
879.476	8.7
879.648	0.51
879.82	35.33
879.993	23.04
880.165	66.05
880.337	29.18
880.509	-19.97
880.681	27.14
880.854	59.9
881.026	-19.97
881.198	25.09
881.37	-58.88
881.542	53.76
881.714	-19.97
881.886	8.7
882.058	4.61
882.23	61.95
882.402	14.85
882.574	-42.5
882.746	53.76
882.918	119.29
883.09	-54.78
883.262	25.09
883.434	84.48
883.606	-30.21
883.778	-3.58
883.95	45.57
884.122	51.71
884.293	6.66
884.465	35.33
884.637	-5.63
884.809	10.75
884.98	61.95
885.152	41.47
885.324	8.7
885.496	-32.26
885.667	6.66
885.839	10.75
886.011	84.48
886.182	-15.87
886.354	-3.58
886.525	-52.74
886.697	31.23
886.869	-40.45
887.04	82.43
887.212	102.91
887.383	23.04
887.555	12.8
887.726	68.09
887.897	2.56
888.069	8.7
888.24	2.56
888.412	-28.16
888.583	-3.58
888.754	-28.16
888.926	-11.78
889.097	-19.97
889.268	23.04
889.44	78.33
889.611	-22.02
889.782	2.56
889.953	-46.59
890.125	-7.68
890.296	0.51
890.467	-34.3
890.638	51.71
890.809	-5.63
890.98	-52.74
891.151	-17.92
891.323	64
891.494	-19.97
891.665	25.09
891.836	27.14
892.007	-40.45
892.178	-5.63
892.349	41.47
892.52	16.9
892.691	18.94
892.862	-50.69
893.032	27.14
893.203	-26.11
893.374	59.9
893.545	59.9
893.716	-15.87
893.887	-52.74
894.057	16.9
894.228	49.66
894.399	41.47
894.57	12.8
894.74	41.47
894.911	25.09
895.082	20.99
895.253	-32.26
895.423	-19.97
895.594	-13.82
895.764	64
895.935	-19.97
896.106	12.8
896.276	8.7
896.447	31.23
896.617	-54.78
896.788	-54.78
896.958	10.75
897.129	37.38
897.299	-28.16
897.47	-46.59
897.64	96.77
897.81	-75.26
897.981	-19.97
898.151	-17.92
898.322	-7.68
898.492	33.28
898.662	-15.87
898.832	-71.17
899.003	43.52
899.173	-17.92
899.343	-1.54
899.513	-28.16
