Data from USB4F104151__100__13-22-06-261.txt Node

Date: Fri Mar 14 13:22:06 EDT 2025
User: louis
Spectrometer: USB4F10415
Trigger mode: 4
Integration Time (sec): 3.000000E-2
Scans to average: 1
Electric dark correction enabled: true
Nonlinearity correction enabled: false
Boxcar width: 0
XAxis mode: Wavelengths
Number of Pixels in Spectrum: 3648
>>>>>Begin Spectral Data<<<<<
178.204	-144.21
178.424	-144.21
178.644	-144.21
178.864	-156.5
179.084	-142.16
179.304	13.48
179.524	-37.72
179.744	-2.9
179.964	11.43
180.184	-0.85
180.404	17.58
180.624	50.35
180.844	-15.19
181.064	-11.09
181.283	17.58
181.503	-52.05
181.723	9.39
181.943	11.43
182.163	72.87
182.383	-4.95
182.602	70.83
182.822	50.35
183.042	113.83
183.262	-56.15
183.482	7.34
183.701	54.44
183.921	54.44
184.141	5.29
184.361	21.67
184.58	-7
184.8	29.87
185.02	54.44
185.239	105.64
185.459	-4.95
185.679	23.72
185.898	-37.72
186.118	52.39
186.338	9.39
186.557	29.87
186.777	52.39
186.997	48.3
187.216	-7
187.436	27.82
187.655	1.19
187.875	25.77
188.095	33.96
188.314	27.82
188.534	-9.05
188.753	13.48
188.973	17.58
189.192	48.3
189.412	31.91
189.631	-31.57
189.851	3.24
190.07	76.97
190.29	-17.24
190.509	13.48
190.729	40.11
190.948	21.67
191.168	195.75
191.387	109.74
191.607	-66.39
191.826	54.44
192.045	-19.29
192.265	-29.52
192.484	25.77
192.704	13.48
192.923	27.82
193.142	113.83
193.362	38.06
193.581	9.39
193.8	56.49
194.02	74.92
194.239	25.77
194.458	25.77
194.678	62.63
194.897	-9.05
195.116	-31.57
195.335	70.83
195.555	87.21
195.774	-43.86
195.993	42.15
196.212	3.24
196.432	21.67
196.651	-2.9
196.87	-17.24
197.089	42.15
197.308	33.96
197.528	-21.33
197.747	29.87
197.966	74.92
198.185	7.34
198.404	68.78
198.623	23.72
198.842	33.96
199.062	50.35
199.281	50.35
199.5	36.01
199.719	40.11
199.938	-19.29
200.157	99.5
200.376	3.24
200.595	-31.57
200.814	-68.44
201.033	7.34
201.252	93.35
201.471	54.44
201.69	50.35
201.909	13.48
202.128	-56.15
202.347	50.35
202.566	36.01
202.785	-15.19
203.004	-23.38
203.223	158.89
203.442	48.3
203.661	44.2
203.879	52.39
204.098	83.11
204.317	-47.96
204.536	132.26
204.755	-0.85
204.974	68.78
205.193	29.87
205.411	58.54
205.63	42.15
205.849	23.72
206.068	5.29
206.287	5.29
206.505	99.5
206.724	56.49
206.943	3.24
207.162	68.78
207.381	-50
207.599	-33.62
207.818	25.77
208.037	64.68
208.255	50.35
208.474	19.63
208.693	27.82
208.911	1.19
209.13	7.34
209.349	68.78
209.567	40.11
209.786	74.92
210.005	52.39
210.223	-31.57
210.442	-35.67
210.661	13.48
210.879	5.29
211.098	83.11
211.316	-7
211.535	107.69
211.753	25.77
211.972	72.87
212.191	36.01
212.409	83.11
212.628	74.92
212.846	13.48
213.065	107.69
213.283	91.31
213.502	3.24
213.72	50.35
213.938	46.25
214.157	64.68
214.375	93.35
214.594	-9.05
214.812	60.59
215.031	-19.29
215.249	21.67
215.467	-101.2
215.686	7.34
215.904	103.59
216.122	19.63
216.341	50.35
216.559	13.48
216.778	95.4
216.996	89.26
217.214	33.96
217.432	-27.48
217.651	50.35
217.869	-7
218.087	25.77
218.306	3.24
218.524	117.93
218.742	-0.85
218.96	48.3
219.179	21.67
219.397	-31.57
219.615	101.55
219.833	79.02
220.051	58.54
220.27	93.35
220.488	70.83
220.706	5.29
220.924	-9.05
221.142	1.19
221.36	74.92
221.578	-62.29
221.796	62.63
222.015	1.19
222.233	74.92
222.451	101.55
222.669	5.29
222.887	70.83
223.105	-23.38
223.323	5.29
223.541	25.77
223.759	5.29
223.977	1.19
224.195	-2.9
224.413	42.15
224.631	122.02
224.849	38.06
225.067	48.3
225.285	21.67
225.503	1.19
225.721	11.43
225.939	13.48
226.157	-4.95
226.375	95.4
226.592	-23.38
226.81	58.54
227.028	130.22
227.246	115.88
227.464	117.93
227.682	-19.29
227.9	1.19
228.117	-4.95
228.335	-17.24
228.553	50.35
228.771	56.49
228.989	25.77
229.206	58.54
229.424	-7
229.642	-29.52
229.86	13.48
230.077	1.19
230.295	1.19
230.513	-15.19
230.731	29.87
230.948	52.39
231.166	66.73
231.384	5.29
231.601	33.96
231.819	58.54
232.037	48.3
232.254	21.67
232.472	9.39
232.689	40.11
232.907	15.53
233.125	33.96
233.342	64.68
233.56	-52.05
233.777	44.2
233.995	3.24
234.213	9.39
234.43	33.96
234.648	42.15
234.865	-11.09
235.083	89.26
235.3	-37.72
235.518	93.35
235.735	-31.57
235.953	23.72
236.17	44.2
236.388	74.92
236.605	9.39
236.822	79.02
237.04	-0.85
237.257	52.39
237.475	33.96
237.692	44.2
237.909	76.97
238.127	23.72
238.344	31.91
238.562	124.07
238.779	-33.62
238.996	-33.62
239.214	19.63
239.431	66.73
239.648	29.87
239.865	13.48
240.083	-2.9
240.3	17.58
240.517	-78.68
240.735	23.72
240.952	62.63
241.169	15.53
241.386	54.44
241.603	56.49
241.821	29.87
242.038	-4.95
242.255	70.83
242.472	-62.29
242.689	-37.72
242.907	60.59
243.124	-35.67
243.341	42.15
243.558	46.25
243.775	-15.19
243.992	27.82
244.209	36.01
244.426	81.07
244.643	113.83
244.86	3.24
245.078	-13.14
245.295	76.97
245.512	66.73
245.729	93.35
245.946	103.59
246.163	9.39
246.38	3.24
246.597	-17.24
246.814	17.58
247.031	25.77
247.248	42.15
247.464	42.15
247.681	5.29
247.898	-11.09
248.115	60.59
248.332	-56.15
248.549	40.11
248.766	42.15
248.983	17.58
249.2	-13.14
249.417	50.35
249.633	-2.9
249.85	38.06
250.067	7.34
250.284	33.96
250.501	38.06
250.717	5.29
250.934	-21.33
251.151	50.35
251.368	93.35
251.585	128.17
251.801	-23.38
252.018	29.87
252.235	91.31
252.451	52.39
252.668	31.91
252.885	60.59
253.102	76.97
253.318	-29.52
253.535	29.87
253.752	17.58
253.968	95.4
254.185	44.2
254.401	50.35
254.618	7.34
254.835	-45.91
255.051	76.97
255.268	36.01
255.484	66.73
255.701	-0.85
255.917	74.92
256.134	29.87
256.351	-2.9
256.567	-25.43
256.784	54.44
257	3.24
257.217	66.73
257.433	60.59
257.65	7.34
257.866	33.96
258.082	-0.85
258.299	-19.29
258.515	23.72
258.732	-2.9
258.948	38.06
259.165	-2.9
259.381	-15.19
259.597	13.48
259.814	95.4
260.03	1.19
260.246	36.01
260.463	21.67
260.679	119.98
260.895	54.44
261.112	36.01
261.328	-31.57
261.544	19.63
261.761	162.98
261.977	-13.14
262.193	-23.38
262.409	46.25
262.626	23.72
262.842	-0.85
263.058	-2.9
263.274	42.15
263.49	122.02
263.707	25.77
263.923	91.31
264.139	-4.95
264.355	93.35
264.571	50.35
264.787	58.54
265.004	62.63
265.22	11.43
265.436	13.48
265.652	36.01
265.868	38.06
266.084	50.35
266.3	-21.33
266.516	38.06
266.732	109.74
266.948	42.15
267.164	-2.9
267.38	19.63
267.596	19.63
267.812	70.83
268.028	33.96
268.244	-17.24
268.46	27.82
268.676	7.34
268.892	72.87
269.108	-52.05
269.324	7.34
269.54	33.96
269.756	93.35
269.972	-9.05
270.188	13.48
270.403	76.97
270.619	83.11
270.835	21.67
271.051	-15.19
271.267	-47.96
271.483	29.87
271.698	5.29
271.914	95.4
272.13	36.01
272.346	-0.85
272.562	38.06
272.777	52.39
272.993	-37.72
273.209	44.2
273.425	40.11
273.64	25.77
273.856	42.15
274.072	76.97
274.287	11.43
274.503	85.16
274.719	58.54
274.934	-13.14
275.15	-11.09
275.366	-41.81
275.581	23.72
275.797	-58.2
276.012	50.35
276.228	-45.91
276.444	42.15
276.659	21.67
276.875	-2.9
277.09	-7
277.306	15.53
277.521	46.25
277.737	11.43
277.952	33.96
278.168	113.83
278.383	9.39
278.599	-31.57
278.814	21.67
279.03	23.72
279.245	122.02
279.461	-0.85
279.676	76.97
279.892	-4.95
280.107	-27.48
280.322	52.39
280.538	56.49
280.753	48.3
280.969	44.2
281.184	56.49
281.399	48.3
281.615	-13.14
281.83	66.73
282.045	-0.85
282.26	-27.48
282.476	-23.38
282.691	9.39
282.906	25.77
283.122	54.44
283.337	5.29
283.552	13.48
283.767	33.96
283.983	66.73
284.198	-11.09
284.413	46.25
284.628	-23.38
284.843	-7
285.058	89.26
285.274	-4.95
285.489	-9.05
285.704	1.19
285.919	11.43
286.134	11.43
286.349	29.87
286.564	-58.2
286.779	60.59
286.995	95.4
287.21	-45.91
287.425	68.78
287.64	36.01
287.855	52.39
288.07	19.63
288.285	66.73
288.5	36.01
288.715	-4.95
288.93	89.26
289.145	-9.05
289.36	29.87
289.575	9.39
289.79	36.01
290.004	42.15
290.219	56.49
290.434	132.26
290.649	52.39
290.864	-31.57
291.079	66.73
291.294	17.58
291.509	21.67
291.724	-2.9
291.938	11.43
292.153	25.77
292.368	-27.48
292.583	62.63
292.798	-15.19
293.012	52.39
293.227	3.24
293.442	42.15
293.657	62.63
293.871	91.31
294.086	13.48
294.301	95.4
294.516	5.29
294.73	3.24
294.945	-29.52
295.16	-15.19
295.374	85.16
295.589	27.82
295.804	27.82
296.018	-80.72
296.233	3.24
296.447	68.78
296.662	-9.05
296.877	36.01
297.091	-17.24
297.306	91.31
297.52	29.87
297.735	50.35
297.949	5.29
298.164	62.63
298.378	38.06
298.593	-62.29
298.807	-7
299.022	40.11
299.236	-7
299.451	-52.05
299.665	9.39
299.88	-19.29
300.094	33.96
300.309	-0.85
300.523	36.01
300.737	42.15
300.952	23.72
301.166	60.59
301.381	-11.09
301.595	19.63
301.809	13.48
302.024	74.92
302.238	44.2
302.452	-13.14
302.667	66.73
302.881	-15.19
303.095	-29.52
303.309	66.73
303.524	-23.38
303.738	-21.33
303.952	-35.67
304.166	27.82
304.381	-62.29
304.595	85.16
304.809	11.43
305.023	83.11
305.237	83.11
305.452	15.53
305.666	103.59
305.88	50.35
306.094	23.72
306.308	68.78
306.522	19.63
306.736	132.26
306.95	60.59
307.164	-15.19
307.379	31.91
307.593	1.19
307.807	117.93
308.021	-47.96
308.235	117.93
308.449	1.19
308.663	44.2
308.877	66.73
309.091	44.2
309.305	79.02
309.519	-15.19
309.733	72.87
309.947	38.06
310.161	52.39
310.374	38.06
310.588	-9.05
310.802	36.01
311.016	42.15
311.23	54.44
311.444	-13.14
311.658	-39.76
311.872	109.74
312.085	46.25
312.299	117.93
312.513	87.21
312.727	23.72
312.941	-45.91
313.154	21.67
313.368	29.87
313.582	-31.57
313.796	60.59
314.009	42.15
314.223	70.83
314.437	-11.09
314.651	17.58
314.864	-0.85
315.078	-0.85
315.292	27.82
315.505	87.21
315.719	68.78
315.933	42.15
316.146	1.19
316.36	-27.48
316.573	99.5
316.787	33.96
317.001	9.39
317.214	33.96
317.428	1.19
317.641	-72.53
317.855	-27.48
318.068	17.58
318.282	38.06
318.495	70.83
318.709	-13.14
318.922	11.43
319.136	85.16
319.349	38.06
319.563	-29.52
319.776	60.59
319.99	15.53
320.203	25.77
320.417	76.97
320.63	17.58
320.843	113.83
321.057	-15.19
321.27	17.58
321.483	-21.33
321.697	72.87
321.91	-0.85
322.124	52.39
322.337	-4.95
322.55	11.43
322.763	50.35
322.977	1.19
323.19	-37.72
323.403	76.97
323.617	70.83
323.83	62.63
324.043	25.77
324.256	52.39
324.469	-11.09
324.683	25.77
324.896	62.63
325.109	40.11
325.322	-80.72
325.535	-9.05
325.748	-21.33
325.962	91.31
326.175	103.59
326.388	54.44
326.601	68.78
326.814	81.07
327.027	-9.05
327.24	111.78
327.453	-4.95
327.666	44.2
327.879	83.11
328.092	36.01
328.305	115.88
328.518	25.77
328.731	3.24
328.944	107.69
329.157	91.31
329.37	124.07
329.583	99.5
329.796	101.55
330.009	38.06
330.222	62.63
330.435	70.83
330.648	58.54
330.861	42.15
331.073	42.15
331.286	107.69
331.499	33.96
331.712	5.29
331.925	31.91
332.138	48.3
332.35	64.68
332.563	44.2
332.776	124.07
332.989	-29.52
333.202	9.39
333.414	44.2
333.627	15.53
333.84	64.68
334.053	48.3
334.265	38.06
334.478	11.43
334.691	-23.38
334.903	25.77
335.116	-7
335.329	-4.95
335.541	-31.57
335.754	117.93
335.966	25.77
336.179	33.96
336.392	-4.95
336.604	95.4
336.817	11.43
337.029	-21.33
337.242	13.48
337.454	95.4
337.667	-4.95
337.88	42.15
338.092	-15.19
338.305	115.88
338.517	79.02
338.729	27.82
338.942	1.19
339.154	-7
339.367	-39.76
339.579	66.73
339.792	-29.52
340.004	52.39
340.217	-27.48
340.429	-9.05
340.641	5.29
340.854	17.58
341.066	70.83
341.278	9.39
341.491	70.83
341.703	23.72
341.915	-45.91
342.128	38.06
342.34	25.77
342.552	-7
342.764	-37.72
342.977	9.39
343.189	58.54
343.401	11.43
343.613	27.82
343.826	-13.14
344.038	-27.48
344.25	50.35
344.462	-7
344.674	79.02
344.886	-23.38
345.099	70.83
345.311	58.54
345.523	-23.38
345.735	7.34
345.947	33.96
346.159	11.43
346.371	29.87
346.583	27.82
346.795	111.78
347.007	27.82
347.219	52.39
347.431	31.91
347.643	52.39
347.855	70.83
348.067	50.35
348.279	-15.19
348.491	-7
348.703	48.3
348.915	31.91
349.127	-4.95
349.339	31.91
349.551	-35.67
349.763	44.2
349.975	-0.85
350.187	68.78
350.399	52.39
350.61	105.64
350.822	58.54
351.034	21.67
351.246	19.63
351.458	76.97
351.669	60.59
351.881	85.16
352.093	-4.95
352.305	74.92
352.517	70.83
352.728	89.26
352.94	25.77
353.152	36.01
353.363	3.24
353.575	66.73
353.787	25.77
353.999	91.31
354.21	7.34
354.422	62.63
354.633	50.35
354.845	19.63
355.057	27.82
355.268	48.3
355.48	13.48
355.692	-33.62
355.903	87.21
356.115	17.58
356.326	-58.2
356.538	68.78
356.749	79.02
356.961	64.68
357.172	25.77
357.384	54.44
357.595	42.15
357.807	76.97
358.018	25.77
358.23	1.19
358.441	44.2
358.653	74.92
358.864	-52.05
359.075	-29.52
359.287	105.64
359.498	42.15
359.709	54.44
359.921	-2.9
360.132	64.68
360.344	62.63
360.555	13.48
360.766	109.74
360.977	107.69
361.189	62.63
361.4	25.77
361.611	74.92
361.823	29.87
362.034	95.4
362.245	25.77
362.456	46.25
362.667	36.01
362.879	31.91
363.09	54.44
363.301	-29.52
363.512	-60.24
363.723	11.43
363.935	-11.09
364.146	60.59
364.357	19.63
364.568	107.69
364.779	-35.67
364.99	9.39
365.201	11.43
365.412	44.2
365.623	3.24
365.834	40.11
366.045	-17.24
366.256	19.63
366.467	3.24
366.678	42.15
366.889	-2.9
367.1	-41.81
367.311	103.59
367.522	17.58
367.733	9.39
367.944	15.53
368.155	17.58
368.366	-19.29
368.577	79.02
368.788	50.35
368.999	21.67
369.209	7.34
369.42	128.17
369.631	103.59
369.842	60.59
370.053	42.15
370.264	40.11
370.474	27.82
370.685	17.58
370.896	36.01
371.107	9.39
371.317	-39.76
371.528	17.58
371.739	66.73
371.95	60.59
372.16	31.91
372.371	9.39
372.582	-52.05
372.792	93.35
373.003	19.63
373.214	-29.52
373.424	50.35
373.635	17.58
373.846	93.35
374.056	-17.24
374.267	25.77
374.477	42.15
374.688	9.39
374.898	-27.48
375.109	76.97
375.319	13.48
375.53	40.11
375.74	58.54
375.951	66.73
376.161	79.02
376.372	66.73
376.582	46.25
376.793	1.19
377.003	52.39
377.214	17.58
377.424	9.39
377.635	-9.05
377.845	-0.85
378.055	58.54
378.266	79.02
378.476	25.77
378.686	50.35
378.897	-7
379.107	117.93
379.317	50.35
379.528	36.01
379.738	85.16
379.948	-11.09
380.158	42.15
380.369	-27.48
380.579	66.73
380.789	-25.43
380.999	21.67
381.21	70.83
381.42	54.44
381.63	-21.33
381.84	17.58
382.05	76.97
382.261	36.01
382.471	27.82
382.681	-113.49
382.891	103.59
383.101	76.97
383.311	-0.85
383.521	31.91
383.731	50.35
383.941	38.06
384.151	25.77
384.361	54.44
384.571	-19.29
384.781	87.21
384.991	95.4
385.201	99.5
385.411	76.97
385.621	19.63
385.831	44.2
386.041	11.43
386.251	-7
386.461	126.12
386.671	23.72
386.881	54.44
387.091	17.58
387.301	76.97
387.511	-13.14
387.72	9.39
387.93	107.69
388.14	21.67
388.35	40.11
388.56	85.16
388.769	95.4
388.979	11.43
389.189	54.44
389.399	-0.85
389.609	42.15
389.818	113.83
390.028	-54.1
390.238	89.26
390.447	89.26
390.657	-13.14
390.867	27.82
391.076	-11.09
391.286	76.97
391.496	9.39
391.705	29.87
391.915	44.2
392.125	66.73
392.334	17.58
392.544	21.67
392.753	33.96
392.963	31.91
393.172	101.55
393.382	91.31
393.591	160.94
393.801	11.43
394.01	109.74
394.22	25.77
394.429	95.4
394.639	40.11
394.848	25.77
395.058	9.39
395.267	-23.38
395.477	117.93
395.686	42.15
395.895	95.4
396.105	87.21
396.314	40.11
396.524	42.15
396.733	-62.29
396.942	74.92
397.152	66.73
397.361	87.21
397.57	87.21
397.78	68.78
397.989	105.64
398.198	68.78
398.407	64.68
398.617	99.5
398.826	17.58
399.035	23.72
399.244	52.39
399.453	38.06
399.663	9.39
399.872	23.72
400.081	1.19
400.29	60.59
400.499	-0.85
400.708	33.96
400.917	83.11
401.127	85.16
401.336	-13.14
401.545	58.54
401.754	95.4
401.963	50.35
402.172	91.31
402.381	66.73
402.59	132.26
402.799	33.96
403.008	44.2
403.217	91.31
403.426	87.21
403.635	-43.86
403.844	50.35
404.053	93.35
404.262	36.01
404.471	50.35
404.68	50.35
404.888	91.31
405.097	50.35
405.306	38.06
405.515	113.83
405.724	140.46
405.933	44.2
406.142	70.83
406.35	185.51
406.559	117.93
406.768	93.35
406.977	91.31
407.185	113.83
407.394	140.46
407.603	62.63
407.812	156.84
408.02	95.4
408.229	156.84
408.438	46.25
408.646	48.3
408.855	103.59
409.064	97.45
409.272	156.84
409.481	93.35
409.69	128.17
409.898	144.55
410.107	97.45
410.315	91.31
410.524	74.92
410.733	228.52
410.941	162.98
411.15	124.07
411.358	130.22
411.567	238.76
411.775	177.32
411.984	150.7
412.192	208.04
412.401	197.8
412.609	271.53
412.818	214.18
413.026	246.95
413.234	193.7
413.443	216.23
413.651	246.95
413.86	205.99
414.068	335.01
414.276	273.57
414.485	287.91
414.693	365.73
414.901	369.83
415.11	257.19
415.318	251.05
415.526	349.35
415.734	351.4
415.943	439.46
416.151	300.2
416.359	312.49
416.567	423.08
416.776	453.8
416.984	421.03
417.192	384.16
417.4	459.94
417.608	375.97
417.817	337.06
418.025	468.13
418.233	543.91
418.441	476.32
418.649	498.85
418.857	582.82
419.065	560.29
419.273	488.61
419.481	533.67
419.689	597.15
419.897	631.97
420.105	601.25
420.313	642.21
420.521	689.31
420.729	668.83
420.937	689.31
421.145	709.79
421.353	814.24
421.561	754.85
421.769	922.78
421.977	830.62
422.185	828.57
422.393	930.97
422.601	967.84
422.809	1045.66
423.017	951.45
423.224	1051.8
423.432	1111.19
423.64	1043.61
423.848	1270.94
424.056	1203.35
424.263	1113.24
424.471	1219.74
424.679	1232.02
424.887	1199.26
425.094	1383.57
425.302	1320.09
425.51	1361.05
425.718	1477.78
425.925	1449.11
426.133	1500.31
426.341	1555.6
426.548	1694.86
426.756	1602.71
426.964	1682.58
427.171	1684.62
427.379	1846.41
427.586	1893.52
427.794	1891.47
428.001	2129.03
428.209	2153.61
428.417	2081.93
428.624	2245.77
428.832	2274.44
429.039	2083.98
429.247	2161.8
429.454	2352.26
429.662	2583.68
429.869	2532.48
430.076	2641.03
430.284	2493.57
430.491	2624.64
430.699	2706.56
430.906	2794.62
431.114	2819.2
431.321	2927.74
431.528	2909.31
431.736	2991.23
431.943	3155.07
432.15	3187.83
432.358	3138.68
432.565	3372.15
432.772	3357.82
432.979	3452.02
433.187	3513.46
433.394	3658.87
433.601	3923.05
433.808	3970.16
434.016	3834.99
434.223	3978.35
434.43	4238.44
434.637	4166.76
434.844	4453.48
435.052	4531.3
435.259	4457.57
435.466	4615.27
435.673	4381.8
435.88	4861.02
436.087	4942.94
436.294	4953.18
436.501	4938.85
436.708	5080.16
436.915	5217.37
437.122	5514.33
437.329	5360.73
437.537	5596.25
437.743	5719.12
437.95	5616.72
438.157	5749.84
438.364	6093.9
438.571	6100.05
438.778	6050.89
438.985	6802.5
439.192	6388.81
439.399	6661.19
439.606	6462.54
439.813	6796.35
440.02	7318.59
440.227	7160.89
440.433	6923.33
440.64	7463.99
440.847	7275.58
441.054	7564.34
441.261	7992.37
441.467	7932.98
441.674	7853.11
441.881	8416.3
442.088	8236.08
442.294	8111.15
442.501	8401.96
442.708	8657.96
442.914	8961.06
443.121	9509.91
443.328	9143.33
443.534	9776.15
443.741	9384.99
443.948	9235.49
444.154	10007.57
444.361	10079.25
444.568	9964.56
444.774	9815.06
444.981	9991.19
445.187	10449.93
445.394	10925.06
445.6	10533.9
445.807	11695.1
446.013	11172.86
446.22	11437.05
446.426	11680.76
446.633	12127.22
446.839	12350.45
447.046	11860.98
447.252	12704.74
447.459	12653.55
447.665	12557.29
447.871	13153.25
448.078	13673.43
448.284	13009.89
448.491	13446.11
448.697	13970.39
448.903	14060.5
449.11	14187.47
449.316	13929.43
449.522	14343.12
449.728	14545.87
449.935	14685.13
450.141	14640.08
450.347	15377.34
450.553	14500.81
450.76	14707.66
450.966	15444.93
451.172	15160.26
451.378	15619
451.584	15033.29
451.791	15553.47
451.997	15451.07
452.203	15918.01
452.409	15987.64
452.615	16022.45
452.821	15188.93
453.027	15066.05
453.233	15852.47
453.44	15209.41
453.646	15563.71
453.852	15512.51
454.058	15782.84
454.264	15145.92
454.47	15682.49
454.676	15143.88
454.882	15596.48
455.088	14285.78
455.294	14652.36
455.5	14851.02
455.705	15215.55
455.911	14283.73
456.117	14070.74
456.323	13863.9
456.529	13233.12
456.735	13661.15
456.941	13360.09
457.147	13091.81
457.352	12729.32
457.558	12542.96
457.764	12491.76
457.97	12428.27
458.176	11844.6
458.381	11951.09
458.587	11508.73
458.793	11596.79
458.999	10814.47
459.204	11607.03
459.41	11146.24
459.616	10765.32
459.821	10699.78
460.027	10470.41
460.233	10411.02
460.438	10161.17
460.644	10050.58
460.85	9548.82
461.055	9354.27
461.261	9530.39
461.466	8660.01
461.672	8561.7
461.878	8948.77
462.083	8533.03
462.289	8305.71
462.494	8160.3
462.7	7797.81
462.905	7746.61
463.111	7752.76
463.316	8014.9
463.522	7773.24
463.727	7859.25
463.932	7701.56
464.138	7640.12
464.343	7779.38
464.549	7590.97
464.754	7734.32
464.959	7810.1
465.165	7629.88
465.37	7382.07
465.575	7126.08
465.781	7353.4
465.986	7451.7
466.191	7208
466.397	6956.1
466.602	6505.54
466.807	7070.78
467.012	7078.97
467.218	7009.34
467.423	6784.07
467.628	6876.23
467.833	7095.36
468.038	7001.15
468.244	6577.22
468.449	6931.52
468.654	6820.93
468.859	6493.26
469.064	6571.08
469.269	6405.19
469.474	6374.47
469.679	6507.59
469.885	6462.54
470.09	6399.05
470.295	6397
470.5	6409.29
470.705	6212.68
470.91	6143.05
471.115	6116.43
471.32	6358.09
471.525	6212.68
471.73	6048.85
471.935	6040.65
472.139	5852.24
472.344	5954.64
472.549	5801.04
472.754	5702.74
472.959	5596.25
473.164	5530.71
473.369	5540.95
473.574	5698.64
473.778	5643.35
473.983	5487.7
474.188	5532.76
474.393	5413.98
474.598	5399.64
474.802	5299.29
475.007	5227.61
475.212	5227.61
475.417	5121.12
475.621	5178.46
475.826	5141.6
476.031	5000.29
476.235	4840.54
476.44	5088.35
476.645	4867.17
476.849	4951.14
477.054	4715.62
477.259	4934.75
477.463	4850.78
477.668	4826.21
477.872	4686.95
478.077	4615.27
478.282	4551.78
478.486	4549.73
478.691	4437.09
478.895	4467.81
479.1	4433
479.304	4289.64
479.509	4338.79
479.713	4342.89
479.918	4252.78
480.122	4123.76
480.326	4410.47
480.531	4172.91
480.735	4271.21
480.94	4127.85
481.144	4150.38
481.348	4123.76
481.553	4187.24
481.757	4109.42
481.961	4047.98
482.166	4090.99
482.37	4088.94
482.574	4103.28
482.778	4031.6
482.983	4226.15
483.187	3964.01
483.391	4250.73
483.595	4172.91
483.8	4152.43
484.004	4111.47
484.208	4203.63
484.412	4078.7
484.616	4162.67
484.821	4041.84
485.025	4138.09
485.229	4109.42
485.433	4000.88
485.637	4002.93
485.841	4189.29
486.045	4125.8
486.249	4146.28
486.453	3992.69
486.657	4148.33
486.861	3990.64
487.065	4181.1
487.269	4152.43
487.473	4068.46
487.677	4064.36
487.881	4113.52
488.085	4131.95
488.289	4207.72
488.493	4033.65
488.697	4181.1
488.901	4174.95
489.105	4164.72
489.309	4170.86
489.512	4047.98
489.716	4224.11
489.92	4291.69
490.124	4303.98
490.328	4187.24
490.531	4086.89
490.735	4367.46
490.939	4308.07
491.143	4172.91
491.346	4131.95
491.55	4430.95
491.754	4258.92
491.958	4277.35
492.161	4375.66
492.365	4363.37
492.569	4359.27
492.772	4355.18
492.976	4418.66
493.18	4375.66
493.383	4478.05
493.587	4502.63
493.79	4426.86
493.994	4516.97
494.197	4559.97
494.401	4539.49
494.605	4559.97
494.808	4625.51
495.012	4719.71
495.215	4779.11
495.419	4838.5
495.622	4635.75
495.825	4660.32
496.029	4828.26
496.232	4856.93
496.436	4912.22
496.639	4994.14
496.843	5053.53
497.046	5051.49
497.249	5164.12
497.453	5119.07
497.656	5127.26
497.859	5069.92
498.063	5194.84
498.266	5407.83
498.469	5272.67
498.673	5393.5
498.876	5473.37
499.079	5612.63
499.282	5465.18
499.485	5702.74
499.689	5606.49
499.892	5760.08
500.095	5788.75
500.298	5930.06
500.501	5766.23
500.705	5964.88
500.908	6085.71
501.111	6032.46
501.314	6235.21
501.517	6235.21
501.72	6294.6
501.923	6179.92
502.126	6499.4
502.329	6767.68
502.532	6626.37
502.735	6583.37
502.938	6763.59
503.141	6798.4
503.344	6888.51
503.547	7074.88
503.75	6904.9
503.953	7203.9
504.156	7197.76
504.359	7199.8
504.562	7320.63
504.765	7484.47
504.968	7435.32
505.17	7394.36
505.373	7310.4
505.576	7754.8
505.779	7754.8
505.982	7746.61
506.185	8008.75
506.387	8168.49
506.59	8105.01
506.793	8129.58
506.996	8231.98
507.198	8414.25
507.401	8457.26
507.604	8473.64
507.807	8709.16
508.009	8924.19
508.212	8782.88
508.415	8924.19
508.617	9053.22
508.82	9159.71
509.022	9028.64
509.225	9305.12
509.428	9425.95
509.63	9407.52
509.833	9348.12
510.035	9579.54
510.238	9600.02
510.44	9778.2
510.643	10089.49
510.845	10093.58
511.048	10101.78
511.25	10044.43
511.453	10241.04
511.655	10605.58
511.858	10345.48
512.06	10529.8
512.262	10636.3
512.465	10759.17
512.667	10871.81
512.87	10896.39
513.072	10892.29
513.274	11195.39
513.477	11314.17
513.679	11256.83
513.881	11508.73
514.084	11688.95
514.286	11572.22
514.488	11781.11
514.69	12305.39
514.893	12090.35
515.095	12055.54
515.297	12360.69
515.499	12399.6
515.701	12323.82
515.904	12483.56
516.106	12807.14
516.308	12807.14
516.51	13073.38
516.712	12897.25
516.914	13106.15
517.116	13315.04
517.318	13247.46
517.52	13511.64
517.722	13321.18
517.925	13579.23
518.127	13648.86
518.329	13976.53
518.531	13894.61
518.733	14201.81
518.935	14185.43
519.136	14363.6
519.338	14685.13
519.54	14760.91
519.742	14789.58
519.944	14838.73
520.146	15150.02
520.348	15252.42
520.55	15203.27
520.752	15410.11
520.954	15715.26
521.155	15471.55
521.357	15782.84
521.559	15993.78
521.761	16069.56
521.963	16176.05
522.164	16124.85
522.366	16229.3
522.568	16438.19
522.77	16559.02
522.971	16935.85
523.173	16708.52
523.375	16993.19
523.576	16855.98
523.778	17093.54
523.98	17204.13
524.181	17437.6
524.383	17583.01
524.584	17580.96
524.786	17388.45
524.988	17605.53
525.189	17705.88
525.391	17947.54
525.592	17968.02
525.794	18230.16
525.995	18088.85
526.197	18178.97
526.398	18316.18
526.6	18606.99
526.801	18695.05
527.003	18705.29
527.204	18801.55
527.406	18887.56
527.607	18836.36
527.808	18867.08
528.01	18764.68
528.211	18920.33
528.412	19350.4
528.614	19319.68
528.815	19331.97
529.016	19624.83
529.218	19372.93
529.419	19422.08
529.62	19557.25
529.822	19432.32
530.023	19205
530.224	19727.23
530.425	19702.65
530.626	19637.12
530.828	19420.03
531.029	19993.47
531.23	19594.11
531.431	19708.8
531.632	20036.47
531.833	20071.29
532.035	19837.82
532.236	19917.69
532.437	19852.16
532.638	19932.03
532.839	19970.94
533.04	20296.56
533.241	20040.57
533.442	20415.35
533.643	20128.63
533.844	19993.47
534.045	20280.18
534.246	20073.34
534.447	20267.89
534.648	20171.64
534.849	20075.38
535.05	20444.02
535.251	20233.08
535.451	19962.75
535.652	20343.67
535.853	20343.67
536.054	20493.17
536.255	20362.1
536.456	19901.31
536.657	20804.46
536.857	20030.33
537.058	20278.13
537.259	20333.43
537.46	20167.54
537.66	20290.42
537.861	20597.62
538.062	20159.35
538.263	20456.31
538.463	20382.58
538.664	20204.41
538.865	20515.7
539.065	20304.76
539.266	20323.19
539.466	20312.95
539.667	20351.86
539.868	20812.65
540.068	20362.1
540.269	20302.71
540.469	20378.48
540.67	20214.65
540.87	20349.81
541.071	20128.63
541.271	20401.01
541.472	20646.77
541.672	20059
541.873	20278.13
542.073	20145.02
542.274	20384.63
542.474	20378.48
542.675	20429.68
542.875	20456.31
543.075	19987.32
543.276	19925.88
543.476	20614
543.676	20366.2
543.877	20222.84
544.077	20265.85
544.277	20380.53
544.478	20509.55
544.678	20099.96
544.878	20419.44
545.078	20015.99
545.279	20202.36
545.479	20331.38
545.679	20308.85
545.879	20513.65
546.079	20038.52
546.28	20081.53
546.48	20085.62
546.68	20368.24
546.88	20292.47
547.08	20409.2
547.28	20163.45
547.48	20124.54
547.68	20288.37
547.88	19972.99
548.081	20222.84
548.281	20167.54
548.481	19999.61
548.681	20263.8
548.881	20405.11
549.081	20044.66
549.28	20134.78
549.48	20251.51
549.68	20063.1
549.88	20310.9
550.08	20054.9
550.28	20306.8
550.48	20079.48
550.68	20091.77
550.88	19948.41
551.08	19903.35
551.279	20126.58
551.479	19911.55
551.679	20083.58
551.879	20087.67
552.079	20112.25
552.278	20075.38
552.478	20110.2
552.678	19964.79
552.878	20087.67
553.077	20003.71
553.277	19903.35
553.477	20308.85
553.676	19876.73
553.876	19864.44
554.076	19999.61
554.275	19602.3
554.475	19798.91
554.674	20097.91
554.874	20224.89
555.074	19895.16
555.273	19901.31
555.473	19786.62
555.672	19880.83
555.872	19704.7
556.071	20005.75
556.271	20022.14
556.47	19952.51
556.67	19741.57
556.869	19495.81
557.068	19850.11
557.268	19735.42
557.467	19673.98
557.667	19673.98
557.866	19532.67
558.065	19469.19
558.265	19540.86
558.464	19329.92
558.663	19698.56
558.863	19198.85
559.062	19811.2
559.261	19219.33
559.461	19317.64
559.66	19368.84
559.859	19262.34
560.058	19260.29
560.258	19336.07
560.457	19143.56
560.656	19319.68
560.855	19307.4
561.054	19223.43
561.253	18930.57
561.453	19202.95
561.652	19002.25
561.851	19295.11
562.05	18885.51
562.249	19071.88
562.448	18805.64
562.647	18893.71
562.846	18826.12
563.045	19084.17
563.244	18400.15
563.443	18727.82
563.642	18432.91
563.841	18609.04
564.04	18570.13
564.239	18918.28
564.438	18504.59
564.637	18584.46
564.836	18195.35
565.035	18447.25
565.234	18361.23
565.432	18318.23
565.631	18244.5
565.83	18228.12
566.029	18213.78
566.228	18105.24
566.427	18277.27
566.625	18095
566.824	18070.42
567.023	17896.35
567.222	17593.25
567.42	18011.03
567.619	17922.97
567.818	17804.19
568.016	17849.24
568.215	17615.77
568.414	17474.46
568.612	17755.04
568.811	17613.73
569.01	17456.03
569.208	17116.07
569.407	17558.43
569.605	17494.94
569.804	17730.46
570.002	17376.16
570.201	17359.78
570.4	17122.21
570.598	16886.7
570.797	16952.23
570.995	17228.71
571.193	17050.53
571.392	17169.32
571.59	16941.99
571.789	17122.21
571.987	16812.97
572.186	16886.7
572.384	16888.74
572.582	16888.74
572.781	16669.61
572.979	16548.78
573.177	16518.06
573.376	16872.36
573.574	16544.69
573.772	16733.1
573.971	16309.17
574.169	16415.66
574.367	16180.15
574.565	16362.42
574.763	16411.57
574.962	16190.39
575.16	16098.23
575.358	15948.73
575.556	15952.82
575.754	15969.21
575.952	15795.13
576.151	16071.61
576.349	15774.65
576.547	15817.66
576.745	15805.37
576.943	15717.31
577.141	15866.81
577.339	15737.79
577.537	15457.21
577.735	15571.9
577.933	15553.47
578.131	15379.39
578.329	15324.1
578.527	15287.23
578.725	15471.55
578.923	15360.96
579.121	15309.76
579.319	15055.81
579.516	15176.64
579.714	15184.83
579.912	15150.02
580.11	14969.8
580.308	15166.4
580.506	14867.4
580.704	14758.86
580.901	14947.27
581.099	15090.63
581.297	15016.9
581.495	14721.99
581.692	14926.79
581.89	14771.15
582.088	14621.64
582.285	14640.08
582.483	14701.51
582.681	14627.79
582.878	14642.12
583.076	14642.12
583.274	14427.09
583.471	14162.9
583.669	14541.77
583.866	14369.74
584.064	14334.93
584.262	14066.64
584.459	14353.36
584.657	14187.47
584.854	14283.73
585.052	13865.94
585.249	14142.42
585.447	13960.15
585.644	13679.58
585.841	13919.19
586.039	14052.31
586.236	13753.3
586.434	13741.02
586.631	13671.39
586.828	13675.48
587.026	13906.9
587.223	13884.37
587.42	13335.52
587.618	13741.02
587.815	13536.22
588.012	13519.84
588.21	13325.28
588.407	13634.52
588.604	13298.66
588.801	13321.18
588.999	13114.34
589.196	13298.66
589.393	13026.28
589.59	13100
589.787	13067.24
589.984	13167.59
590.182	13194.21
590.379	13057
590.576	13175.78
590.773	12952.55
590.97	12801
591.167	13052.9
591.364	12944.36
591.561	12676.07
591.758	12577.77
591.955	12733.42
592.152	12698.6
592.349	12563.43
592.546	12508.14
592.743	12596.2
592.94	12254.19
593.137	12508.14
593.334	12481.52
593.531	12465.13
593.727	12334.06
593.924	12184.56
594.121	12258.29
594.318	12358.64
594.515	12129.27
594.712	12268.53
594.908	12256.24
595.105	12270.58
595.302	12200.94
595.499	12114.93
595.696	11920.37
595.892	11910.13
596.089	11961.33
596.286	11758.58
596.482	11985.91
596.679	11805.69
596.876	11932.66
597.072	11746.3
597.269	11867.13
597.466	11701.24
597.662	11822.07
597.859	11643.9
598.055	11774.97
598.252	11453.44
598.448	11578.36
598.645	11525.11
598.841	11424.76
599.038	11305.98
599.234	11449.34
599.431	11322.37
599.627	11484.16
599.824	11437.05
600.02	11187.2
600.217	11340.8
600.413	11215.87
600.609	11275.26
600.806	11160.58
601.002	11254.78
601.198	11168.77
601.395	11269.12
601.591	11097.09
601.787	10955.78
601.984	10779.65
602.18	10867.72
602.376	11054.08
602.572	10908.68
602.769	10863.62
602.965	10753.03
603.161	10710.02
603.357	10779.65
603.553	10472.46
603.75	10701.83
603.946	10738.69
604.142	10531.85
604.338	10331.15
604.534	10529.8
604.73	10392.59
604.926	10443.79
605.122	10529.8
605.318	10433.55
605.514	10472.46
605.71	10302.48
605.906	10398.73
606.102	10331.15
606.298	10322.96
606.494	10220.56
606.69	10226.7
606.886	10081.3
607.082	10126.35
607.278	10114.06
607.474	9858.07
607.67	10134.54
607.866	9823.25
608.062	9921.56
608.257	9995.28
608.453	9882.64
608.649	10064.91
608.845	9808.92
609.041	9933.84
609.236	9937.94
609.432	9708.57
609.628	9878.55
609.824	9729.05
610.019	9671.7
610.215	9630.74
610.411	9782.29
610.606	9724.95
610.802	9839.64
610.998	9821.2
611.193	9702.42
611.389	9800.73
611.584	9663.51
611.78	9421.85
611.976	9628.7
612.171	9647.13
612.367	9530.39
612.562	9647.13
612.758	9391.13
612.953	9446.43
613.149	9493.53
613.344	9348.12
613.539	9511.96
613.735	9280.54
613.93	9503.77
614.126	9462.81
614.321	9360.41
614.517	9368.6
614.712	9253.92
614.907	9307.16
615.103	9382.94
615.298	9180.19
615.493	9186.33
615.688	9096.22
615.884	9331.74
616.079	9266.21
616.274	9331.74
616.47	9102.37
616.665	9143.33
616.86	9184.29
617.055	8963.11
617.25	9049.12
617.445	8967.2
617.641	8895.52
617.836	8934.43
618.031	8797.22
618.226	8791.08
618.421	8989.73
618.616	8801.32
618.811	8877.09
619.006	8913.95
619.201	8887.33
619.396	8543.27
619.591	8600.62
619.786	8694.82
619.981	8524.84
620.176	8604.71
620.371	8553.51
620.566	8578.09
620.761	8688.68
620.956	8590.38
621.151	8342.57
621.346	8504.36
621.541	8414.25
621.735	8410.15
621.93	8250.41
622.125	8283.18
622.32	8059.95
622.515	8082.48
622.709	8055.86
622.904	7924.79
623.099	8090.67
623.294	8041.52
623.488	7851.06
623.683	7889.97
623.878	7783.48
624.072	7902.26
624.267	7881.78
624.462	7828.53
624.656	7457.85
624.851	7754.8
625.046	7488.57
625.24	7726.13
625.435	7504.95
625.629	7472.18
625.824	7418.94
626.018	7332.92
626.213	7232.57
626.407	7283.77
626.602	7103.55
626.796	7343.16
626.991	7345.21
627.185	7101.5
627.38	6943.81
627.574	7177.28
627.768	7119.93
627.963	7087.17
628.157	6997.06
628.352	6943.81
628.546	6681.67
628.74	6988.86
628.935	6784.07
629.129	6992.96
629.323	6595.65
629.517	6675.52
629.712	6595.65
629.906	6577.22
630.1	6472.78
630.294	6665.28
630.489	6489.16
630.683	6411.34
630.877	6558.79
631.071	6562.89
631.265	6454.34
631.459	6378.57
631.653	6222.92
631.848	6360.14
632.042	6194.25
632.236	6317.13
632.43	6358.09
632.624	6362.19
632.818	6036.56
633.012	6073.42
633.206	6083.66
633.4	6081.61
633.594	6089.81
633.788	6005.84
633.982	6112.33
634.176	6042.7
634.369	5942.35
634.563	5866.58
634.757	5891.15
634.951	5907.54
635.145	5882.96
635.339	5858.39
635.533	5629.01
635.726	5854.29
635.92	5532.76
636.114	5657.68
636.308	5469.27
636.501	5565.53
636.695	5631.06
636.889	5424.22
637.083	5516.37
637.276	5467.22
637.47	5549.14
637.664	5602.39
637.857	5473.37
638.051	5368.92
638.244	5336.15
638.438	5334.11
638.632	5276.76
638.825	5270.62
639.019	5287
639.212	5057.63
639.406	5403.74
639.599	5082.21
639.793	5149.79
639.986	5067.87
640.18	5114.97
640.373	4924.51
640.567	4957.28
640.76	5080.16
640.954	4840.54
641.147	4887.65
641.34	5022.81
641.534	4758.63
641.727	4883.55
641.92	4787.3
642.114	4760.67
642.307	4719.71
642.5	4879.46
642.694	4613.22
642.887	4719.71
643.08	4680.8
643.273	4719.71
643.467	4619.36
643.66	4494.44
643.853	4598.88
644.046	4512.87
644.239	4574.31
644.432	4547.69
644.626	4525.16
644.819	4435.05
645.012	4215.91
645.205	4426.86
645.398	4310.12
645.591	4193.39
645.784	4228.2
645.977	4392.04
646.17	4375.66
646.363	4228.2
646.556	4097.13
646.749	4097.13
646.942	4254.83
647.135	4244.59
647.328	4109.42
647.521	4121.71
647.714	4000.88
647.907	4097.13
648.099	3984.49
648.292	3972.21
648.485	4201.58
648.678	3869.81
648.871	4109.42
649.064	3884.14
649.256	3916.91
649.449	3732.59
649.642	3839.09
649.835	3884.14
650.027	3947.63
650.22	3912.81
650.413	3880.05
650.605	3810.42
650.798	3873.9
650.991	3665.01
651.183	3675.25
651.376	3697.78
651.568	3708.02
651.761	3632.24
651.954	3540.08
652.146	3595.38
652.339	3529.84
652.531	3603.57
652.724	3538.04
652.916	3482.74
653.109	3542.13
653.301	3556.47
653.494	3499.13
653.686	3345.53
653.879	3552.37
654.071	3384.44
654.263	3435.64
654.456	3366.01
654.648	3425.4
654.84	3331.19
655.033	3355.77
655.225	3351.67
655.417	3320.95
655.61	3370.1
655.802	3269.75
655.994	3286.14
656.186	3343.48
656.379	3216.51
656.571	3161.21
656.763	3206.27
656.955	3083.39
657.148	3253.37
657.34	3093.63
657.532	3165.31
657.724	2933.89
657.916	3249.27
658.108	3077.24
658.3	2980.99
658.492	3073.15
658.684	3040.38
658.876	2956.41
659.068	2995.32
659.26	3015.8
659.452	2890.88
659.644	2940.03
659.836	3021.95
660.028	3060.86
660.22	2880.64
660.412	2966.65
660.604	2892.93
660.796	2851.97
660.988	2894.97
661.18	2763.9
661.372	2804.86
661.563	2811.01
661.755	2837.63
661.947	2743.42
662.139	2663.55
662.331	2671.75
662.522	2741.38
662.714	2655.36
662.906	2628.74
663.097	2630.79
663.289	2649.22
663.481	2630.79
663.673	2624.64
663.864	2645.12
664.056	2585.73
664.247	2575.49
664.439	2585.73
664.631	2612.35
664.822	2600.07
665.014	2403.46
665.205	2565.25
665.397	2522.24
665.588	2520.2
665.78	2524.29
665.971	2507.91
666.163	2462.85
666.354	2518.15
666.546	2385.03
666.737	2436.23
666.929	2444.42
667.12	2364.55
667.311	2356.36
667.503	2344.07
667.694	2466.95
667.885	2399.37
668.077	2385.03
668.268	2370.69
668.459	2327.69
668.651	2407.56
668.842	2342.02
669.033	2290.82
669.224	2221.19
669.416	2372.74
669.607	2217.1
669.798	2366.6
669.989	2344.07
670.18	2200.71
670.371	2178.19
670.563	2149.51
670.754	2288.78
670.945	2272.39
671.136	2169.99
671.327	2274.44
671.518	2147.47
671.709	2210.95
671.9	2180.23
672.091	2198.67
672.282	2149.51
672.473	2153.61
672.664	2040.97
672.855	2057.36
673.046	2208.9
673.237	2100.36
673.428	2079.88
673.619	2186.38
673.809	2024.59
674	1942.67
674.191	2045.07
674.382	1975.44
674.573	2159.75
674.764	2000.01
674.954	2090.12
675.145	1954.96
675.336	1905.81
675.527	1979.53
675.717	1965.2
675.908	1936.53
676.099	1983.63
676.289	2049.16
676.48	2020.49
676.671	1967.24
676.861	2045.07
677.052	1893.52
677.243	1868.94
677.433	1922.19
677.624	1914
677.814	1852.56
678.005	1830.03
678.195	1961.1
678.386	1934.48
678.576	1848.46
678.767	1746.06
678.957	1875.09
679.148	1918.09
679.338	1934.48
679.529	1991.82
679.719	1903.76
679.909	2006.16
680.1	1832.08
680.29	1823.89
680.481	1791.12
680.671	1889.42
680.861	1844.37
681.052	1791.12
681.242	1832.08
681.432	1850.51
681.622	1875.09
681.813	1680.53
682.003	1840.27
682.193	1766.54
682.383	1731.73
682.573	1787.02
682.764	1789.07
682.954	1879.18
683.144	1795.22
683.334	1707.15
683.524	1713.3
683.714	1789.07
683.904	1864.85
684.094	1705.1
684.284	1735.82
684.474	1842.32
684.664	1698.96
684.854	1676.43
685.044	1647.76
685.234	1672.34
685.424	1711.25
685.614	1803.41
685.804	1686.67
685.994	1770.64
686.184	1787.02
686.374	1733.78
686.564	1647.76
686.753	1629.33
686.943	1569.94
687.133	1672.34
687.323	1623.19
687.513	1551.51
687.702	1612.95
687.892	1549.46
688.082	1551.51
688.272	1668.24
688.461	1643.67
688.651	1637.52
688.841	1502.36
689.03	1494.16
689.22	1496.21
689.41	1590.42
689.599	1453.2
689.789	1590.42
689.979	1541.27
690.168	1453.2
690.358	1578.13
690.547	1479.83
690.737	1549.46
690.926	1469.59
691.116	1412.25
691.305	1553.55
691.495	1483.92
691.684	1440.92
691.874	1496.21
692.063	1576.08
692.252	1465.49
692.442	1543.32
692.631	1428.63
692.82	1504.4
693.01	1422.48
693.199	1479.83
693.388	1424.53
693.578	1422.48
693.767	1412.25
693.956	1451.16
694.146	1414.29
694.335	1371.29
694.524	1424.53
694.713	1438.87
694.902	1324.18
695.092	1442.96
695.281	1459.35
695.47	1352.85
695.659	1369.24
695.848	1395.86
696.037	1356.95
696.226	1461.4
696.415	1447.06
696.604	1371.29
696.793	1414.29
696.982	1281.18
697.171	1406.1
697.36	1408.15
697.549	1377.43
697.738	1320.09
697.927	1352.85
698.116	1320.09
698.305	1377.43
698.494	1402.01
698.683	1336.47
698.872	1426.58
699.061	1307.8
699.25	1275.03
699.438	1365.14
699.627	1354.9
699.816	1393.81
700.005	1303.7
700.193	1328.28
700.382	1262.74
700.571	1313.94
700.76	1359
700.948	1293.46
701.137	1375.38
701.326	1334.42
701.514	1240.22
701.703	1348.76
701.892	1381.53
702.08	1422.48
702.269	1297.56
702.457	1197.21
702.646	1340.57
702.834	1363.09
703.023	1379.48
703.212	1328.28
703.4	1270.94
703.589	1356.95
703.777	1344.66
703.965	1320.09
704.154	1313.94
704.342	1381.53
704.531	1373.33
704.719	1408.15
704.907	1336.47
705.096	1332.37
705.284	1299.61
705.472	1320.09
705.661	1369.24
705.849	1387.67
706.037	1275.03
706.226	1422.48
706.414	1389.72
706.602	1356.95
706.79	1279.13
706.979	1217.69
707.167	1303.7
707.355	1340.57
707.543	1359
707.731	1502.36
707.919	1404.05
708.107	1301.65
708.296	1283.22
708.484	1283.22
708.672	1268.89
708.86	1369.24
709.048	1397.91
709.236	1305.75
709.424	1324.18
709.612	1340.57
709.8	1289.37
709.988	1309.85
710.176	1328.28
710.364	1383.57
710.551	1315.99
710.739	1371.29
710.927	1240.22
711.115	1281.18
711.303	1373.33
711.491	1318.04
711.679	1283.22
711.866	1315.99
712.054	1395.86
712.242	1326.23
712.43	1309.85
712.617	1367.19
712.805	1297.56
712.993	1297.56
713.181	1217.69
713.368	1297.56
713.556	1322.13
713.744	1258.65
713.931	1377.43
714.119	1299.61
714.306	1223.83
714.494	1309.85
714.682	1301.65
714.869	1283.22
715.057	1238.17
715.244	1272.98
715.432	1303.7
715.619	1318.04
715.807	1344.66
715.994	1342.61
716.182	1377.43
716.369	1391.77
716.556	1336.47
716.744	1232.02
716.931	1264.79
717.119	1395.86
717.306	1309.85
717.493	1320.09
717.681	1254.55
717.868	1305.75
718.055	1393.81
718.242	1279.13
718.43	1377.43
718.617	1426.58
718.804	1272.98
718.991	1340.57
719.179	1295.51
719.366	1287.32
719.553	1336.47
719.74	1270.94
719.927	1164.44
720.114	1326.23
720.301	1352.85
720.488	1254.55
720.676	1389.72
720.863	1283.22
721.05	1326.23
721.237	1279.13
721.424	1369.24
721.611	1303.7
721.798	1227.93
721.985	1264.79
722.172	1277.08
722.358	1320.09
722.545	1324.18
722.732	1295.51
722.919	1311.89
723.106	1246.36
723.293	1178.78
723.48	1320.09
723.667	1315.99
723.853	1371.29
724.04	1277.08
724.227	1281.18
724.414	1260.7
724.6	1266.84
724.787	1279.13
724.974	1242.26
725.161	1227.93
725.347	1135.77
725.534	1254.55
725.72	1281.18
725.907	1254.55
726.094	1336.47
726.28	1252.5
726.467	1166.49
726.653	1119.39
726.84	1348.76
727.027	1311.89
727.213	1199.26
727.4	1338.52
727.586	1240.22
727.773	1234.07
727.959	1229.98
728.145	1184.92
728.332	1289.37
728.518	1281.18
728.705	1266.84
728.891	1262.74
729.077	1191.06
729.264	1209.5
729.45	1209.5
729.636	1229.98
729.823	1262.74
730.009	1227.93
730.195	1205.4
730.382	1309.85
730.568	1215.64
730.754	1186.97
730.94	1248.41
731.126	1197.21
731.313	1143.96
731.499	1236.12
731.685	1207.45
731.871	1221.78
732.057	1246.36
732.243	1176.73
732.429	1215.64
732.615	1176.73
732.801	1223.83
732.987	1201.3
733.173	1197.21
733.359	1244.31
733.545	1160.34
733.731	1213.59
733.917	1225.88
734.103	1156.25
734.289	1242.26
734.475	1096.86
734.661	1252.5
734.847	1229.98
735.033	1193.11
735.219	1197.21
735.404	1174.68
735.59	1135.77
735.776	1125.53
735.962	1109.15
736.148	1211.54
736.333	1160.34
736.519	1186.97
736.705	1176.73
736.89	1156.25
737.076	1250.46
737.262	1100.95
737.447	1146.01
737.633	1119.39
737.819	1121.43
738.004	1105.05
738.19	1088.67
738.375	1170.58
738.561	1174.68
738.747	1098.91
738.932	1074.33
739.118	1219.74
739.303	1039.51
739.489	1170.58
739.674	1043.61
739.859	1082.52
740.045	1088.67
740.23	1006.75
740.416	1055.9
740.601	1184.92
740.786	1078.43
740.972	1074.33
741.157	1016.99
741.342	1006.75
741.528	1062.04
741.713	1074.33
741.898	1033.37
742.084	1105.05
742.269	1027.23
742.454	1072.28
742.639	1094.81
742.824	896.16
743.01	1143.96
743.195	1008.8
743.38	1010.84
743.565	1039.51
743.75	969.88
743.935	978.08
744.12	961.69
744.305	900.25
744.49	953.5
744.675	963.74
744.86	967.84
745.045	1002.65
745.23	984.22
745.415	894.11
745.6	953.5
745.785	941.21
745.97	1025.18
746.155	857.25
746.34	914.59
746.525	902.3
746.71	971.93
746.895	918.68
747.079	1012.89
747.264	930.97
747.449	941.21
747.634	869.53
747.819	920.73
748.003	914.59
748.188	795.81
748.373	808.09
748.557	879.77
748.742	797.85
748.927	902.3
749.111	828.57
749.296	894.11
749.481	902.3
749.665	849.05
749.85	838.81
750.034	916.64
750.219	890.01
750.404	857.25
750.588	818.33
750.773	724.13
750.957	857.25
751.141	820.38
751.326	765.09
751.51	711.84
751.695	668.83
751.879	830.62
752.064	793.76
752.248	732.32
752.432	785.57
752.617	832.67
752.801	865.44
752.985	820.38
753.17	773.28
753.354	722.08
753.538	773.28
753.722	773.28
753.907	728.22
754.091	658.59
754.275	666.78
754.459	548
754.643	648.35
754.828	732.32
755.012	715.94
755.196	681.12
755.38	681.12
755.564	593.06
755.748	781.47
755.932	726.18
756.116	668.83
756.3	627.87
756.484	658.59
756.668	681.12
756.852	611.49
757.036	730.27
757.22	631.97
757.404	570.53
757.588	619.68
757.772	611.49
757.956	582.82
758.14	691.36
758.323	550.05
758.507	609.44
758.691	478.37
758.875	621.73
759.059	650.4
759.242	533.67
759.426	564.39
759.61	570.53
759.794	535.71
759.977	584.87
760.161	640.16
760.345	574.63
760.528	603.3
760.712	556.19
760.895	541.86
761.079	611.49
761.263	588.96
761.446	496.8
761.63	513.19
761.813	562.34
761.997	539.81
762.18	562.34
762.364	607.39
762.547	453.8
762.731	464.04
762.914	570.53
763.098	523.43
763.281	558.24
763.464	525.47
763.648	527.52
763.831	494.76
764.015	474.28
764.198	560.29
764.381	484.52
764.564	531.62
764.748	437.41
764.931	517.28
765.114	521.38
765.297	543.91
765.481	459.94
765.664	468.13
765.847	494.76
766.03	443.56
766.213	435.36
766.397	414.88
766.58	429.22
766.763	423.08
766.946	507.04
767.129	468.13
767.312	429.22
767.495	482.47
767.678	464.04
767.861	447.65
768.044	429.22
768.227	437.41
768.41	406.69
768.593	507.04
768.776	466.08
768.959	410.79
769.142	472.23
769.324	443.56
769.507	371.88
769.69	427.17
769.873	494.76
770.056	527.52
770.239	470.18
770.421	396.45
770.604	421.03
770.787	418.98
770.97	519.33
771.152	410.79
771.335	433.32
771.518	507.04
771.7	476.32
771.883	435.36
772.066	357.54
772.248	388.26
772.431	533.67
772.613	431.27
772.796	371.88
772.978	388.26
773.161	464.04
773.343	378.02
773.526	339.11
773.708	412.84
773.891	390.31
774.073	373.92
774.256	304.29
774.438	504.99
774.621	410.79
774.803	416.93
774.985	410.79
775.168	437.41
775.35	361.64
775.532	378.02
775.715	353.45
775.897	337.06
776.079	330.92
776.261	429.22
776.444	351.4
776.626	378.02
776.808	414.88
776.99	255.14
777.173	363.69
777.355	355.49
777.537	330.92
777.719	449.7
777.901	296.1
778.083	355.49
778.265	273.57
778.447	289.96
778.629	353.45
778.811	294.05
778.993	359.59
779.175	402.6
779.357	339.11
779.539	249
779.721	285.86
779.903	380.07
780.085	361.64
780.267	296.1
780.449	296.1
780.631	281.77
780.812	296.1
780.994	304.29
781.176	373.92
781.358	296.1
781.54	306.34
781.721	292.01
781.903	349.35
782.085	292.01
782.267	355.49
782.448	197.8
782.63	312.49
782.812	300.2
782.993	337.06
783.175	218.28
783.357	294.05
783.538	337.06
783.72	238.76
783.901	339.11
784.083	345.25
784.264	249
784.446	240.81
784.627	224.42
784.809	296.1
784.99	232.62
785.172	251.05
785.353	181.42
785.535	298.15
785.716	283.81
785.897	259.24
786.079	210.09
786.26	214.18
786.441	191.66
786.623	238.76
786.804	208.04
786.985	181.42
787.167	304.29
787.348	173.22
787.529	222.38
787.71	257.19
787.891	212.14
788.073	167.08
788.254	228.52
788.435	199.85
788.616	203.94
788.797	119.98
788.978	205.99
789.159	189.61
789.34	197.8
789.522	185.51
789.703	126.12
789.884	171.18
790.065	214.18
790.246	195.75
790.427	158.89
790.607	197.8
790.788	189.61
790.969	240.81
791.15	134.31
791.331	230.57
791.512	220.33
791.693	181.42
791.874	197.8
792.054	249
792.235	122.02
792.416	122.02
792.597	103.59
792.778	214.18
792.958	253.09
793.139	148.65
793.32	185.51
793.5	195.75
793.681	156.84
793.862	130.22
794.042	171.18
794.223	132.26
794.404	158.89
794.584	119.98
794.765	173.22
794.945	62.63
795.126	181.42
795.306	162.98
795.487	146.6
795.667	128.17
795.848	251.05
796.028	95.4
796.209	136.36
796.389	152.74
796.57	181.42
796.75	134.31
796.93	240.81
797.111	74.92
797.291	158.89
797.471	103.59
797.652	181.42
797.832	173.22
798.012	136.36
798.192	105.64
798.373	85.16
798.553	148.65
798.733	212.14
798.913	44.2
799.093	50.35
799.274	132.26
799.454	179.37
799.634	115.88
799.814	146.6
799.994	226.47
800.174	132.26
800.354	97.45
800.534	25.77
800.714	128.17
800.894	76.97
801.074	126.12
801.254	89.26
801.434	283.81
801.614	36.01
801.794	76.97
801.974	646.3
802.154	103.59
802.334	232.62
802.514	66.73
802.693	93.35
802.873	132.26
803.053	107.69
803.233	167.08
803.413	201.9
803.592	85.16
803.772	89.26
803.952	72.87
804.131	111.78
804.311	95.4
804.491	183.46
804.67	29.87
804.85	101.55
805.03	152.74
805.209	162.98
805.389	7.34
805.568	146.6
805.748	87.21
805.928	95.4
806.107	105.64
806.287	117.93
806.466	74.92
806.646	91.31
806.825	83.11
807.004	111.78
807.184	97.45
807.363	107.69
807.543	85.16
807.722	52.39
807.901	70.83
808.081	201.9
808.26	87.21
808.439	93.35
808.619	48.3
808.798	36.01
808.977	107.69
809.156	119.98
809.336	52.39
809.515	72.87
809.694	95.4
809.873	70.83
810.052	128.17
810.231	171.18
810.411	95.4
810.59	72.87
810.769	117.93
810.948	154.79
811.127	-41.81
811.306	58.54
811.485	29.87
811.664	140.46
811.843	115.88
812.022	132.26
812.201	46.25
812.38	109.74
812.559	-39.76
812.737	179.37
812.916	58.54
813.095	50.35
813.274	76.97
813.453	103.59
813.632	87.21
813.811	70.83
813.989	60.59
814.168	124.07
814.347	99.5
814.526	56.49
814.704	115.88
814.883	132.26
815.062	38.06
815.24	132.26
815.419	107.69
815.598	134.31
815.776	64.68
815.955	19.63
816.133	33.96
816.312	83.11
816.49	95.4
816.669	128.17
816.847	74.92
817.026	169.13
817.204	-19.29
817.383	46.25
817.561	52.39
817.74	115.88
817.918	79.02
818.097	81.07
818.275	23.72
818.453	107.69
818.632	29.87
818.81	66.73
818.988	-29.52
819.167	74.92
819.345	126.12
819.523	27.82
819.701	48.3
819.879	91.31
820.058	11.43
820.236	64.68
820.414	56.49
820.592	42.15
820.77	31.91
820.948	83.11
821.127	70.83
821.305	19.63
821.483	62.63
821.661	70.83
821.839	25.77
822.017	-21.33
822.195	54.44
822.373	134.31
822.551	105.64
822.729	66.73
822.907	70.83
823.085	36.01
823.262	58.54
823.44	11.43
823.618	58.54
823.796	19.63
823.974	132.26
824.152	-19.29
824.329	15.53
824.507	60.59
824.685	31.91
824.863	33.96
825.04	36.01
825.218	115.88
825.396	-37.72
825.574	-4.95
825.751	48.3
825.929	130.22
826.107	29.87
826.284	95.4
826.462	52.39
826.639	79.02
826.817	44.2
826.994	13.48
827.172	17.58
827.349	95.4
827.527	126.12
827.704	-33.62
827.882	144.55
828.059	91.31
828.237	70.83
828.414	122.02
828.591	17.58
828.769	54.44
828.946	19.63
829.124	13.48
829.301	40.11
829.478	-4.95
829.655	1.19
829.833	-39.76
830.01	7.34
830.187	95.4
830.364	25.77
830.542	99.5
830.719	15.53
830.896	109.74
831.073	68.78
831.25	25.77
831.427	42.15
831.604	62.63
831.782	25.77
831.959	11.43
832.136	3.24
832.313	91.31
832.49	76.97
832.667	9.39
832.844	-27.48
833.021	107.69
833.198	72.87
833.374	101.55
833.551	9.39
833.728	15.53
833.905	-4.95
834.082	7.34
834.259	56.49
834.436	5.29
834.612	36.01
834.789	58.54
834.966	23.72
835.143	7.34
835.319	-15.19
835.496	-19.29
835.673	-7
835.85	50.35
836.026	15.53
836.203	134.31
836.38	19.63
836.556	33.96
836.733	-31.57
836.909	95.4
837.086	21.67
837.262	-9.05
837.439	23.72
837.616	29.87
837.792	66.73
837.968	113.83
838.145	-54.1
838.321	11.43
838.498	113.83
838.674	25.77
838.851	74.92
839.027	11.43
839.203	33.96
839.38	27.82
839.556	99.5
839.732	-13.14
839.909	29.87
840.085	-21.33
840.261	-2.9
840.437	21.67
840.614	-25.43
840.79	-7
840.966	27.82
841.142	101.55
841.318	-45.91
841.494	70.83
841.671	54.44
841.847	1.19
842.023	54.44
842.199	13.48
842.375	11.43
842.551	-37.72
842.727	-27.48
842.903	74.92
843.079	-60.24
843.255	101.55
843.431	46.25
843.607	23.72
843.783	-41.81
843.959	23.72
844.134	9.39
844.31	25.77
844.486	-15.19
844.662	15.53
844.838	33.96
845.013	-4.95
845.189	25.77
845.365	38.06
845.541	52.39
845.716	7.34
845.892	38.06
846.068	-52.05
846.244	38.06
846.419	76.97
846.595	-62.29
846.77	-39.76
846.946	142.5
847.122	7.34
847.297	31.91
847.473	66.73
847.648	74.92
847.824	103.59
847.999	60.59
848.175	85.16
848.35	29.87
848.526	48.3
848.701	44.2
848.876	52.39
849.052	33.96
849.227	-29.52
849.403	13.48
849.578	-23.38
849.753	-25.43
849.929	1.19
850.104	-2.9
850.279	33.96
850.454	-21.33
850.63	60.59
850.805	68.78
850.98	144.55
851.155	-41.81
851.33	58.54
851.505	-64.34
851.681	27.82
851.856	50.35
852.031	58.54
852.206	13.48
852.381	-15.19
852.556	-11.09
852.731	99.5
852.906	5.29
853.081	9.39
853.256	36.01
853.431	27.82
853.606	-37.72
853.781	-21.33
853.956	-35.67
854.131	11.43
854.305	-13.14
854.48	-29.52
854.655	33.96
854.83	-39.76
855.005	-23.38
855.18	1.19
855.354	-23.38
855.529	62.63
855.704	60.59
855.879	-9.05
856.053	-11.09
856.228	23.72
856.403	38.06
856.577	42.15
856.752	-17.24
856.926	42.15
857.101	5.29
857.276	-43.86
857.45	-7
857.625	42.15
857.799	-2.9
857.974	31.91
858.148	-103.25
858.323	52.39
858.497	5.29
858.672	58.54
858.846	-33.62
859.02	58.54
859.195	3.24
859.369	-64.34
859.543	25.77
859.718	58.54
859.892	7.34
860.066	17.58
860.241	17.58
860.415	-29.52
860.589	-31.57
860.763	54.44
860.938	-47.96
861.112	33.96
861.286	44.2
861.46	-39.76
861.634	-76.63
861.808	58.54
861.982	-4.95
862.157	-15.19
862.331	-9.05
862.505	-19.29
862.679	-60.24
862.853	-17.24
863.027	33.96
863.201	87.21
863.375	-9.05
863.549	27.82
863.722	11.43
863.896	58.54
864.07	-52.05
864.244	-64.34
864.418	36.01
864.592	9.39
864.766	19.63
864.939	74.92
865.113	-56.15
865.287	11.43
865.461	-15.19
865.634	54.44
865.808	3.24
865.982	17.58
866.156	-31.57
866.329	17.58
866.503	19.63
866.676	25.77
866.85	56.49
867.024	9.39
867.197	38.06
867.371	85.16
867.544	-41.81
867.718	-19.29
867.891	46.25
868.065	48.3
868.238	44.2
868.412	60.59
868.585	1.19
868.759	-15.19
868.932	-17.24
869.105	5.29
869.279	36.01
869.452	1.19
869.625	-45.91
869.799	15.53
869.972	27.82
870.145	40.11
870.319	15.53
870.492	54.44
870.665	27.82
870.838	81.07
871.011	-47.96
871.185	25.77
871.358	-31.57
871.531	38.06
871.704	3.24
871.877	46.25
872.05	15.53
872.223	5.29
872.396	11.43
872.569	33.96
872.742	-21.33
872.915	79.02
873.088	-33.62
873.261	-13.14
873.434	-35.67
873.607	-66.39
873.78	48.3
873.953	1.19
874.126	50.35
874.299	27.82
874.471	42.15
874.644	-62.29
874.817	-13.14
874.99	25.77
875.163	-37.72
875.335	50.35
875.508	-47.96
875.681	70.83
875.853	25.77
876.026	76.97
876.199	40.11
876.371	-7
876.544	-19.29
876.717	9.39
876.889	19.63
877.062	3.24
877.234	-19.29
877.407	44.2
877.579	21.67
877.752	-39.76
877.924	7.34
878.097	83.11
878.269	31.91
878.442	36.01
878.614	54.44
878.786	52.39
878.959	52.39
879.131	33.96
879.303	-50
879.476	29.87
879.648	40.11
879.82	29.87
879.993	-11.09
880.165	-2.9
880.337	-15.19
880.509	17.58
880.681	-19.29
880.854	50.35
881.026	-4.95
881.198	99.5
881.37	-11.09
881.542	-4.95
881.714	33.96
881.886	-37.72
882.058	-13.14
882.23	52.39
882.402	44.2
882.574	38.06
882.746	33.96
882.918	-2.9
883.09	44.2
883.262	50.35
883.434	11.43
883.606	19.63
883.778	29.87
883.95	50.35
884.122	-58.2
884.293	25.77
884.465	27.82
884.637	-33.62
884.809	-9.05
884.98	27.82
885.152	-4.95
885.324	-15.19
885.496	5.29
885.667	29.87
885.839	-19.29
886.011	101.55
886.182	3.24
886.354	15.53
886.525	17.58
886.697	-39.76
886.869	23.72
887.04	-35.67
887.212	-21.33
887.383	60.59
887.555	36.01
887.726	50.35
887.897	-31.57
888.069	27.82
888.24	-39.76
888.412	44.2
888.583	-7
888.754	-72.53
888.926	-56.15
889.097	46.25
889.268	-58.2
889.44	25.77
889.611	-4.95
889.782	-45.91
889.953	21.67
890.125	-25.43
890.296	-29.52
890.467	17.58
890.638	-7
890.809	1.19
890.98	42.15
891.151	-4.95
891.323	15.53
891.494	29.87
891.665	-7
891.836	-72.53
892.007	-66.39
892.178	19.63
892.349	74.92
892.52	-60.24
892.691	33.96
892.862	17.58
893.032	21.67
893.203	-17.24
893.374	-25.43
893.545	-56.15
893.716	-23.38
893.887	5.29
894.057	-74.58
894.228	42.15
894.399	7.34
894.57	27.82
894.74	42.15
894.911	52.39
895.082	25.77
895.253	-0.85
895.423	17.58
895.594	-9.05
895.764	33.96
895.935	1.19
896.106	27.82
896.276	-4.95
896.447	-93.01
896.617	7.34
896.788	-39.76
896.958	-29.52
897.129	23.72
897.299	-4.95
897.47	-47.96
897.64	36.01
897.81	-97.11
897.981	17.58
898.151	3.24
898.322	-11.09
898.492	44.2
898.662	-21.33
898.832	-66.39
899.003	25.77
899.173	-13.14
899.343	-27.48
899.513	-45.91
