Data from USB4F104151__39__13-11-07-662.txt Node

Date: Fri Mar 14 13:11:07 EDT 2025
User: louis
Spectrometer: USB4F10415
Trigger mode: 4
Integration Time (sec): 2.000000E-2
Scans to average: 1
Electric dark correction enabled: true
Nonlinearity correction enabled: false
Boxcar width: 0
XAxis mode: Wavelengths
Number of Pixels in Spectrum: 3648
>>>>>Begin Spectral Data<<<<<
178.204	-146.77
178.424	-146.77
178.644	-146.77
178.864	-124.24
179.084	-152.91
179.304	2.73
179.524	-1.37
179.744	-25.94
179.964	35.5
180.184	-38.23
180.404	12.97
180.624	-19.8
180.844	53.93
181.064	25.26
181.283	-13.65
181.503	-66.9
181.723	35.5
181.943	-71
182.163	-9.56
182.383	-13.65
182.602	84.65
182.822	-21.84
183.042	31.4
183.262	15.02
183.482	4.78
183.701	41.64
183.921	47.79
184.141	-62.8
184.361	41.64
184.58	12.97
184.8	39.59
185.02	-56.66
185.239	6.83
185.459	-71
185.679	12.97
185.898	-58.71
186.118	-30.04
186.338	-5.46
186.557	45.74
186.777	25.26
186.997	-17.75
187.216	43.69
187.436	33.45
187.655	29.35
187.875	25.26
188.095	-71
188.314	23.21
188.534	-13.65
188.753	-15.7
188.973	-66.9
189.192	90.79
189.412	-62.8
189.631	84.65
189.851	-60.76
190.07	8.87
190.29	-34.13
190.509	31.4
190.729	-1.37
190.948	19.11
191.168	31.4
191.387	-23.89
191.607	12.97
191.826	-11.61
192.045	-34.13
192.265	19.11
192.484	-21.84
192.704	10.92
192.923	-5.46
193.142	45.74
193.362	4.78
193.581	53.93
193.8	31.4
194.02	144.04
194.239	47.79
194.458	-17.75
194.678	45.74
194.897	-9.56
195.116	0.68
195.335	-17.75
195.555	76.46
195.774	-13.65
195.993	-7.51
196.212	21.16
196.432	4.78
196.651	68.27
196.87	-17.75
197.089	49.83
197.308	27.31
197.528	27.31
197.747	70.31
197.966	21.16
198.185	113.32
198.404	-21.84
198.623	-21.84
198.842	0.68
199.062	53.93
199.281	43.69
199.5	31.4
199.719	-19.8
199.938	-54.61
200.157	15.02
200.376	51.88
200.595	76.46
200.814	12.97
201.033	-36.18
201.252	23.21
201.471	33.45
201.69	15.02
201.909	29.35
202.128	-17.75
202.347	88.75
202.566	10.92
202.785	-3.41
203.004	-50.52
203.223	117.42
203.442	31.4
203.661	-1.37
203.879	-36.18
204.098	43.69
204.317	72.36
204.536	43.69
204.755	78.51
204.974	27.31
205.193	15.02
205.411	49.83
205.63	2.73
205.849	17.07
206.068	-27.99
206.287	29.35
206.505	109.23
206.724	27.31
206.943	-46.42
207.162	35.5
207.381	2.73
207.599	-9.56
207.818	4.78
208.037	37.55
208.255	-40.28
208.474	-21.84
208.693	-9.56
208.911	12.97
209.13	31.4
209.349	-30.04
209.567	29.35
209.786	31.4
210.005	55.98
210.223	43.69
210.442	-17.75
210.661	-23.89
210.879	43.69
211.098	-27.99
211.316	96.94
211.535	45.74
211.753	39.59
211.972	10.92
212.191	51.88
212.409	10.92
212.628	8.87
212.846	-44.37
213.065	35.5
213.283	-21.84
213.502	27.31
213.72	-34.13
213.938	53.93
214.157	33.45
214.375	37.55
214.594	-32.08
214.812	-15.7
215.031	10.92
215.249	-38.23
215.467	-25.94
215.686	29.35
215.904	21.16
216.122	76.46
216.341	141.99
216.559	29.35
216.778	39.59
216.996	27.31
217.214	60.07
217.432	8.87
217.651	29.35
217.869	35.5
218.087	45.74
218.306	2.73
218.524	-54.61
218.742	-11.61
218.96	29.35
219.179	0.68
219.397	-23.89
219.615	70.31
219.833	-13.65
220.051	45.74
220.27	72.36
220.488	-103.76
220.706	-54.61
220.924	12.97
221.142	6.83
221.36	39.59
221.578	39.59
221.796	51.88
222.015	12.97
222.233	-1.37
222.451	53.93
222.669	0.68
222.887	33.45
223.105	35.5
223.323	27.31
223.541	-48.47
223.759	84.65
223.977	43.69
224.195	-38.23
224.413	17.07
224.631	8.87
224.849	-9.56
225.067	101.03
225.285	-58.71
225.503	47.79
225.721	25.26
225.939	-3.41
226.157	60.07
226.375	35.5
226.592	17.07
226.81	8.87
227.028	-34.13
227.246	47.79
227.464	-3.41
227.682	37.55
227.9	103.08
228.117	-25.94
228.335	0.68
228.553	21.16
228.771	-5.46
228.989	-15.7
229.206	10.92
229.424	74.41
229.642	29.35
229.86	2.73
230.077	39.59
230.295	-36.18
230.513	45.74
230.731	6.83
230.948	125.61
231.166	-1.37
231.384	-21.84
231.601	12.97
231.819	60.07
232.037	37.55
232.254	4.78
232.472	17.07
232.689	72.36
232.907	35.5
233.125	41.64
233.342	-71
233.56	45.74
233.777	68.27
233.995	-52.56
234.213	76.46
234.43	94.89
234.648	-58.71
234.865	109.23
235.083	141.99
235.3	10.92
235.518	23.21
235.735	68.27
235.953	35.5
236.17	35.5
236.388	64.17
236.605	23.21
236.822	53.93
237.04	-9.56
237.257	55.98
237.475	21.16
237.692	10.92
237.909	-17.75
238.127	-73.04
238.344	78.51
238.562	60.07
238.779	-38.23
238.996	-13.65
239.214	25.26
239.431	70.31
239.648	-50.52
239.865	80.55
240.083	76.46
240.3	4.78
240.517	-9.56
240.735	66.22
240.952	12.97
241.169	-5.46
241.386	4.78
241.603	6.83
241.821	19.11
242.038	2.73
242.255	17.07
242.472	-25.94
242.689	-15.7
242.907	43.69
243.124	23.21
243.341	6.83
243.558	2.73
243.775	-42.32
243.992	-44.37
244.209	19.11
244.426	2.73
244.643	60.07
244.86	-48.47
245.078	43.69
245.295	6.83
245.512	43.69
245.729	41.64
245.946	47.79
246.163	25.26
246.38	-54.61
246.597	4.78
246.814	29.35
247.031	-38.23
247.248	45.74
247.464	-17.75
247.681	-13.65
247.898	31.4
248.115	21.16
248.332	47.79
248.549	64.17
248.766	45.74
248.983	-34.13
249.2	-25.94
249.417	86.7
249.633	31.4
249.85	23.21
250.067	-38.23
250.284	12.97
250.501	55.98
250.717	101.03
250.934	-11.61
251.151	0.68
251.368	39.59
251.585	19.11
251.801	55.98
252.018	-66.9
252.235	-36.18
252.451	41.64
252.668	-5.46
252.885	53.93
253.102	37.55
253.318	-3.41
253.535	-38.23
253.752	-62.8
253.968	10.92
254.185	-19.8
254.401	17.07
254.618	27.31
254.835	-27.99
255.051	72.36
255.268	23.21
255.484	135.85
255.701	15.02
255.917	111.27
256.134	58.03
256.351	94.89
256.567	23.21
256.784	21.16
257	-21.84
257.217	0.68
257.433	23.21
257.65	-7.51
257.866	49.83
258.082	43.69
258.299	10.92
258.515	2.73
258.732	-44.37
258.948	2.73
259.165	-11.61
259.381	-36.18
259.597	68.27
259.814	-15.7
260.03	-5.46
260.246	15.02
260.463	39.59
260.679	45.74
260.895	35.5
261.112	43.69
261.328	4.78
261.544	-52.56
261.761	31.4
261.977	-5.46
262.193	-58.71
262.409	-7.51
262.626	78.51
262.842	45.74
263.058	-40.28
263.274	60.07
263.49	45.74
263.707	27.31
263.923	8.87
264.139	-27.99
264.355	-27.99
264.571	51.88
264.787	39.59
265.004	74.41
265.22	25.26
265.436	-56.66
265.652	-19.8
265.868	8.87
266.084	2.73
266.3	19.11
266.516	-5.46
266.732	21.16
266.948	15.02
267.164	53.93
267.38	45.74
267.596	23.21
267.812	111.27
268.028	4.78
268.244	25.26
268.46	53.93
268.676	17.07
268.892	-21.84
269.108	-17.75
269.324	-30.04
269.54	27.31
269.756	35.5
269.972	-62.8
270.188	41.64
270.403	53.93
270.619	68.27
270.835	-5.46
271.051	-17.75
271.267	-17.75
271.483	47.79
271.698	80.55
271.914	-11.61
272.13	33.45
272.346	31.4
272.562	109.23
272.777	-1.37
272.993	49.83
273.209	-27.99
273.425	-83.28
273.64	-13.65
273.856	0.68
274.072	15.02
274.287	-5.46
274.503	-38.23
274.719	70.31
274.934	8.87
275.15	-54.61
275.366	37.55
275.581	49.83
275.797	74.41
276.012	-9.56
276.228	-17.75
276.444	-3.41
276.659	45.74
276.875	-44.37
277.09	31.4
277.306	-42.32
277.521	49.83
277.737	-1.37
277.952	-27.99
278.168	58.03
278.383	27.31
278.599	-107.86
278.814	-32.08
279.03	-56.66
279.245	47.79
279.461	60.07
279.676	21.16
279.892	-44.37
280.107	2.73
280.322	133.8
280.538	0.68
280.753	-126.29
280.969	33.45
281.184	-46.42
281.399	90.79
281.615	72.36
281.83	19.11
282.045	-30.04
282.26	-30.04
282.476	37.55
282.691	62.12
282.906	10.92
283.122	-11.61
283.337	-9.56
283.552	21.16
283.767	15.02
283.983	43.69
284.198	-3.41
284.413	84.65
284.628	0.68
284.843	-9.56
285.058	117.42
285.274	-11.61
285.489	19.11
285.704	29.35
285.919	-13.65
286.134	-36.18
286.349	12.97
286.564	-42.32
286.779	-5.46
286.995	66.22
287.21	-91.48
287.425	2.73
287.64	27.31
287.855	-9.56
288.07	6.83
288.285	-27.99
288.5	10.92
288.715	-3.41
288.93	25.26
289.145	55.98
289.36	105.13
289.575	96.94
289.79	10.92
290.004	-23.89
290.219	86.7
290.434	-5.46
290.649	12.97
290.864	23.21
291.079	-7.51
291.294	29.35
291.509	19.11
291.724	-58.71
291.938	-3.41
292.153	47.79
292.368	-30.04
292.583	-3.41
292.798	12.97
293.012	53.93
293.227	-42.32
293.442	23.21
293.657	-42.32
293.871	53.93
294.086	74.41
294.301	80.55
294.516	58.03
294.73	68.27
294.945	-66.9
295.16	-1.37
295.374	43.69
295.589	68.27
295.804	4.78
296.018	94.89
296.233	86.7
296.447	-30.04
296.662	-1.37
296.877	86.7
297.091	-17.75
297.306	10.92
297.52	-1.37
297.735	0.68
297.949	29.35
298.164	10.92
298.378	17.07
298.593	39.59
298.807	-13.65
299.022	-19.8
299.236	53.93
299.451	60.07
299.665	21.16
299.88	23.21
300.094	19.11
300.309	31.4
300.523	-25.94
300.737	94.89
300.952	-5.46
301.166	0.68
301.381	-23.89
301.595	-38.23
301.809	45.74
302.024	51.88
302.238	29.35
302.452	23.21
302.667	-93.52
302.881	10.92
303.095	-3.41
303.309	-9.56
303.524	19.11
303.738	4.78
303.952	43.69
304.166	76.46
304.381	4.78
304.595	70.31
304.809	10.92
305.023	2.73
305.237	15.02
305.452	15.02
305.666	107.18
305.88	6.83
306.094	-19.8
306.308	43.69
306.522	25.26
306.736	76.46
306.95	-15.7
307.164	-1.37
307.379	17.07
307.593	96.94
307.807	70.31
308.021	47.79
308.235	19.11
308.449	-25.94
308.663	2.73
308.877	35.5
309.091	82.6
309.305	6.83
309.519	-17.75
309.733	25.26
309.947	12.97
310.161	58.03
310.374	49.83
310.588	-38.23
310.802	21.16
311.016	68.27
311.23	2.73
311.444	-1.37
311.658	-50.52
311.872	137.9
312.085	107.18
312.299	-32.08
312.513	23.21
312.727	-15.7
312.941	15.02
313.154	-34.13
313.368	15.02
313.582	76.46
313.796	29.35
314.009	35.5
314.223	29.35
314.437	68.27
314.651	80.55
314.864	23.21
315.078	-21.84
315.292	27.31
315.505	19.11
315.719	-11.61
315.933	64.17
316.146	27.31
316.36	-1.37
316.573	21.16
316.787	55.98
317.001	21.16
317.214	15.02
317.428	33.45
317.641	-32.08
317.855	41.64
318.068	35.5
318.282	10.92
318.495	45.74
318.709	64.17
318.922	-7.51
319.136	51.88
319.349	76.46
319.563	25.26
319.776	6.83
319.99	-36.18
320.203	-5.46
320.417	-15.7
320.63	60.07
320.843	109.23
321.057	43.69
321.27	51.88
321.483	90.79
321.697	10.92
321.91	96.94
322.124	86.7
322.337	10.92
322.55	45.74
322.763	31.4
322.977	4.78
323.19	6.83
323.403	-7.51
323.617	6.83
323.83	94.89
324.043	0.68
324.256	29.35
324.469	-25.94
324.683	19.11
324.896	8.87
325.109	-19.8
325.322	23.21
325.535	64.17
325.748	35.5
325.962	43.69
326.175	12.97
326.388	10.92
326.601	129.7
326.814	76.46
327.027	21.16
327.24	47.79
327.453	-15.7
327.666	-23.89
327.879	27.31
328.092	35.5
328.305	53.93
328.518	53.93
328.731	-30.04
328.944	47.79
329.157	-19.8
329.37	78.51
329.583	62.12
329.796	72.36
330.009	-38.23
330.222	15.02
330.435	62.12
330.648	39.59
330.861	-46.42
331.073	27.31
331.286	0.68
331.499	121.51
331.712	19.11
331.925	-7.51
332.138	-9.56
332.35	51.88
332.563	-46.42
332.776	72.36
332.989	-9.56
333.202	-5.46
333.414	12.97
333.627	37.55
333.84	43.69
334.053	10.92
334.265	49.83
334.478	29.35
334.691	6.83
334.903	23.21
335.116	25.26
335.329	-11.61
335.541	51.88
335.754	-44.37
335.966	-30.04
336.179	39.59
336.392	51.88
336.604	37.55
336.817	60.07
337.029	-42.32
337.242	-27.99
337.454	-19.8
337.667	-3.41
337.88	-19.8
338.092	55.98
338.305	64.17
338.517	-23.89
338.729	92.84
338.942	80.55
339.154	-21.84
339.367	25.26
339.579	4.78
339.792	35.5
340.004	37.55
340.217	53.93
340.429	21.16
340.641	-3.41
340.854	4.78
341.066	43.69
341.278	-1.37
341.491	43.69
341.703	76.46
341.915	19.11
342.128	82.6
342.34	-5.46
342.552	53.93
342.764	29.35
342.977	15.02
343.189	4.78
343.401	131.75
343.613	-48.47
343.826	12.97
344.038	35.5
344.25	86.7
344.462	-30.04
344.674	25.26
344.886	49.83
345.099	70.31
345.311	8.87
345.523	-17.75
345.735	-21.84
345.947	80.55
346.159	-13.65
346.371	35.5
346.583	-7.51
346.795	17.07
347.007	41.64
347.219	68.27
347.431	-27.99
347.643	-13.65
347.855	62.12
348.067	78.51
348.279	-62.8
348.491	27.31
348.703	31.4
348.915	-17.75
349.127	-21.84
349.339	45.74
349.551	-7.51
349.763	23.21
349.975	2.73
350.187	39.59
350.399	29.35
350.61	60.07
350.822	-68.95
351.034	62.12
351.246	37.55
351.458	-17.75
351.669	17.07
351.881	60.07
352.093	-73.04
352.305	92.84
352.517	86.7
352.728	111.27
352.94	2.73
353.152	60.07
353.363	55.98
353.575	43.69
353.787	84.65
353.999	76.46
354.21	119.46
354.422	43.69
354.633	29.35
354.845	43.69
355.057	-13.65
355.268	49.83
355.48	27.31
355.692	27.31
355.903	12.97
356.115	-1.37
356.326	-27.99
356.538	53.93
356.749	82.6
356.961	64.17
357.172	35.5
357.384	10.92
357.595	68.27
357.807	35.5
358.018	31.4
358.23	92.84
358.441	103.08
358.653	10.92
358.864	-11.61
359.075	-19.8
359.287	78.51
359.498	27.31
359.709	37.55
359.921	76.46
360.132	37.55
360.344	-15.7
360.555	43.69
360.766	66.22
360.977	49.83
361.189	74.41
361.4	-7.51
361.611	101.03
361.823	72.36
362.034	15.02
362.245	45.74
362.456	58.03
362.667	72.36
362.879	43.69
363.09	76.46
363.301	8.87
363.512	2.73
363.723	37.55
363.935	-50.52
364.146	55.98
364.357	55.98
364.568	-25.94
364.779	31.4
364.99	10.92
365.201	-27.99
365.412	78.51
365.623	-34.13
365.834	80.55
366.045	53.93
366.256	60.07
366.467	-19.8
366.678	-1.37
366.889	39.59
367.1	23.21
367.311	64.17
367.522	19.11
367.733	10.92
367.944	-62.8
368.155	-17.75
368.366	125.61
368.577	82.6
368.788	78.51
368.999	8.87
369.209	-3.41
369.42	35.5
369.631	43.69
369.842	27.31
370.053	-19.8
370.264	94.89
370.474	41.64
370.685	35.5
370.896	-7.51
371.107	45.74
371.317	88.75
371.528	70.31
371.739	121.51
371.95	25.26
372.16	55.98
372.371	-71
372.582	58.03
372.792	47.79
373.003	29.35
373.214	-3.41
373.424	39.59
373.635	25.26
373.846	-9.56
374.056	117.42
374.267	4.78
374.477	45.74
374.688	-13.65
374.898	33.45
375.109	27.31
375.319	70.31
375.53	27.31
375.74	80.55
375.951	55.98
376.161	39.59
376.372	64.17
376.582	23.21
376.793	23.21
377.003	10.92
377.214	19.11
377.424	55.98
377.635	111.27
377.845	-44.37
378.055	117.42
378.266	-5.46
378.476	17.07
378.686	88.75
378.897	101.03
379.107	6.83
379.317	64.17
379.528	68.27
379.738	60.07
379.948	70.31
380.158	76.46
380.369	109.23
380.579	-9.56
380.789	98.99
380.999	66.22
381.21	39.59
381.42	119.46
381.63	80.55
381.84	39.59
382.05	62.12
382.261	23.21
382.471	68.27
382.681	78.51
382.891	113.32
383.101	41.64
383.311	80.55
383.521	-13.65
383.731	35.5
383.941	19.11
384.151	-15.7
384.361	70.31
384.571	53.93
384.781	60.07
384.991	55.98
385.201	21.16
385.411	49.83
385.621	66.22
385.831	4.78
386.041	15.02
386.251	-19.8
386.461	64.17
386.671	17.07
386.881	60.07
387.091	45.74
387.301	2.73
387.511	92.84
387.72	58.03
387.93	-1.37
388.14	-19.8
388.35	8.87
388.56	27.31
388.769	72.36
388.979	-3.41
389.189	-19.8
389.399	-42.32
389.609	33.45
389.818	70.31
390.028	51.88
390.238	10.92
390.447	-5.46
390.657	82.6
390.867	8.87
391.076	78.51
391.286	76.46
391.496	29.35
391.705	15.02
391.915	86.7
392.125	92.84
392.334	123.56
392.544	12.97
392.753	17.07
392.963	31.4
393.172	37.55
393.382	-19.8
393.591	84.65
393.801	27.31
394.01	92.84
394.22	45.74
394.429	51.88
394.639	10.92
394.848	37.55
395.058	21.16
395.267	74.41
395.477	41.64
395.686	113.32
395.895	25.26
396.105	51.88
396.314	90.79
396.524	37.55
396.733	47.79
396.942	86.7
397.152	25.26
397.361	78.51
397.57	10.92
397.78	53.93
397.989	2.73
398.198	92.84
398.407	6.83
398.617	101.03
398.826	47.79
399.035	82.6
399.244	82.6
399.453	88.75
399.663	37.55
399.872	103.08
400.081	58.03
400.29	84.65
400.499	-13.65
400.708	74.41
400.917	29.35
401.127	53.93
401.336	60.07
401.545	107.18
401.754	70.31
401.963	137.9
402.172	60.07
402.381	31.4
402.59	27.31
402.799	4.78
403.008	129.7
403.217	82.6
403.426	121.51
403.635	23.21
403.844	70.31
404.053	101.03
404.262	107.18
404.471	174.76
404.68	139.94
404.888	74.41
405.097	103.08
405.306	107.18
405.515	55.98
405.724	51.88
405.933	62.12
406.142	113.32
406.35	133.8
406.559	74.41
406.768	137.9
406.977	166.57
407.185	160.42
407.394	113.32
407.603	119.46
407.812	168.62
408.02	164.52
408.229	178.86
408.438	98.99
408.646	139.94
408.855	189.1
409.064	125.61
409.272	135.85
409.481	223.91
409.69	174.76
409.898	129.7
410.107	170.66
410.315	127.66
410.524	182.95
410.733	219.82
410.941	152.23
411.15	225.96
411.358	209.58
411.567	273.06
411.775	262.82
411.984	240.3
412.192	234.15
412.401	273.06
412.609	318.12
412.818	260.77
413.026	281.25
413.234	217.77
413.443	273.06
413.651	250.53
413.86	293.54
414.068	346.79
414.276	387.75
414.485	320.17
414.693	420.52
414.901	445.09
415.11	432.8
415.318	412.32
415.526	365.22
415.734	465.57
415.943	397.99
416.151	510.63
416.359	475.81
416.567	520.87
416.776	572.07
416.984	535.2
417.192	547.49
417.4	500.39
417.608	553.63
417.817	615.07
418.025	658.08
418.233	713.38
418.441	631.46
418.649	635.55
418.857	754.34
419.065	797.34
419.273	696.99
419.481	883.36
419.689	770.72
419.897	838.3
420.105	889.5
420.313	834.21
420.521	1000.09
420.729	889.5
420.937	920.22
421.145	987.8
421.353	1047.19
421.561	1147.55
421.769	1116.83
421.977	1135.26
422.185	1196.7
422.393	1200.79
422.601	1251.99
422.809	1223.32
423.017	1215.13
423.224	1432.21
423.432	1421.97
423.64	1493.65
423.848	1514.13
424.056	1497.75
424.263	1618.58
424.471	1667.73
424.679	1657.49
424.887	1798.8
425.094	1708.69
425.302	1833.61
425.51	1882.77
425.718	1936.01
425.925	1944.2
426.133	1993.36
426.341	2126.47
426.548	2247.3
426.756	2308.74
426.964	2366.09
427.171	2384.52
427.379	2486.92
427.586	2400.9
427.794	2566.79
428.001	2724.48
428.209	2845.31
428.417	2734.72
428.624	2919.04
428.832	3007.1
429.039	2855.55
429.247	2845.31
429.454	3160.7
429.662	3381.88
429.869	3107.45
430.076	3601.01
430.284	3291.77
430.491	3476.09
430.699	3641.97
430.906	3811.95
431.114	3699.31
431.321	3945.07
431.528	3926.64
431.736	4127.34
431.943	4487.78
432.15	4385.38
432.358	4213.35
432.565	4551.27
432.772	4569.7
432.979	4737.63
433.187	4743.78
433.394	4903.52
433.601	5151.32
433.808	5278.3
434.016	5239.39
434.223	5427.8
434.43	5675.6
434.637	5665.36
434.844	5882.45
435.052	5968.46
435.259	5972.56
435.466	6150.73
435.673	6009.42
435.88	6468.17
436.087	6822.47
436.294	6748.74
436.501	6560.33
436.708	6949.44
436.915	7014.98
437.122	7223.87
437.329	7483.96
437.537	7524.92
437.743	7604.79
437.95	7639.61
438.157	7809.59
438.364	8079.92
438.571	8264.24
438.778	8237.61
438.985	9079.33
439.192	8501.8
439.399	9009.7
439.606	8632.87
439.813	9378.33
440.02	9855.51
440.227	9755.16
440.433	9419.29
440.64	9984.53
440.847	9761.3
441.054	10029.59
441.261	10711.56
441.467	10766.85
441.674	10873.35
441.881	11250.17
442.088	11033.09
442.294	10988.03
442.501	11315.71
442.708	11446.78
442.914	12063.22
443.121	12823.01
443.328	12397.04
443.534	13232.61
443.741	12534.25
443.948	12521.96
444.154	13541.85
444.361	13306.34
444.568	13652.44
444.774	13437.41
444.981	13642.2
445.187	14117.33
445.394	14475.73
445.6	14508.49
445.807	15755.71
446.013	15290.82
446.22	15253.95
446.426	16005.56
446.633	16288.18
446.839	16939.43
447.046	15923.64
447.252	17084.84
447.459	16914.86
447.665	17097.13
447.871	17619.36
448.078	18526.61
448.284	17641.89
448.491	18200.98
448.697	18770.32
448.903	19179.91
449.11	19243.4
449.316	18665.87
449.522	19294.6
449.728	19698.05
449.935	19956.09
450.141	20056.44
450.347	20478.32
450.553	19763.58
450.76	20023.67
450.966	20939.12
451.172	20672.88
451.378	21143.91
451.584	20603.25
451.791	21164.39
451.997	21240.17
452.203	21420.39
452.409	21936.48
452.615	21551.46
452.821	20625.78
453.027	20287.86
453.233	21631.33
453.44	20820.33
453.646	21025.13
453.852	21268.84
454.058	21330.28
454.264	21000.55
454.47	21434.72
454.676	20693.36
454.882	21557.6
455.088	19431.81
455.294	19933.56
455.5	20468.08
455.705	20355.44
455.911	19773.82
456.117	19366.28
456.323	18928.01
456.529	17979.8
456.735	18870.67
456.941	18463.12
457.147	17813.91
457.352	17701.28
457.558	17299.87
457.764	17617.31
457.97	17050.02
458.176	16828.84
458.381	16771.5
458.587	16140.72
458.793	15770.04
458.999	15190.47
459.204	16222.64
459.41	15788.47
459.616	14641.61
459.821	14811.59
460.027	14565.84
460.233	14236.11
460.438	13437.41
460.644	13937.11
460.85	13003.24
461.055	13060.58
461.261	13027.81
461.466	12069.36
461.672	11309.57
461.878	12415.47
462.083	11368.96
462.289	11405.82
462.494	11258.37
462.7	10875.4
462.905	10377.74
463.111	10770.95
463.316	10869.25
463.522	10881.54
463.727	10760.71
463.932	10674.7
464.138	10588.68
464.343	10768.9
464.549	10353.16
464.754	10566.15
464.959	10629.64
465.165	10330.64
465.37	9890.32
465.575	9728.53
465.781	10234.38
465.986	10267.15
466.191	9781.78
466.397	9476.63
466.602	9048.61
466.807	9460.25
467.012	9531.93
467.218	9466.39
467.423	9292.32
467.628	9441.82
467.833	9761.3
468.038	9302.56
468.244	9312.8
468.449	9470.49
468.654	9099.81
468.859	9073.18
469.064	9245.21
469.269	8679.97
469.474	8682.02
469.679	9017.89
469.885	8737.32
470.09	8950.31
470.295	8964.64
470.5	8606.25
470.705	8731.17
470.91	8557.1
471.115	8507.94
471.32	8442.41
471.525	8444.46
471.73	8247.85
471.935	8198.7
472.139	7983.66
472.344	8069.68
472.549	7848.5
472.754	8100.4
472.959	7821.88
473.164	7612.98
473.369	7514.68
473.574	7854.64
473.778	7752.24
473.983	7686.71
474.188	7785.01
474.393	7322.17
474.598	7273.02
474.802	7113.28
475.007	7238.2
475.212	7182.91
475.417	6955.58
475.621	7060.03
475.826	6830.66
476.031	6924.86
476.235	6806.08
476.44	6859.33
476.645	6718.02
476.849	6660.68
477.054	6539.85
477.259	6589
477.463	6607.43
477.668	6376.01
477.872	6431.3
478.077	6138.44
478.282	6132.3
478.486	6224.46
478.691	5923.41
478.895	6074.96
479.1	6048.33
479.304	6115.92
479.509	5876.3
479.713	5933.65
479.918	5782.1
480.122	5716.56
480.326	5802.58
480.531	5896.78
480.735	5597.78
480.94	5646.93
481.144	5845.59
481.348	5507.67
481.553	5786.19
481.757	5509.72
481.961	5460.57
482.166	5638.74
482.37	5577.3
482.574	5616.21
482.778	5565.01
482.983	5657.17
483.187	5524.05
483.391	5599.83
483.595	5630.55
483.8	5491.29
484.004	5515.86
484.208	5532.25
484.412	5466.71
484.616	5573.21
484.821	5728.85
485.025	5636.69
485.229	5581.4
485.433	5501.53
485.637	5442.14
485.841	5476.95
486.045	5653.08
486.249	5487.19
486.453	5620.31
486.657	5634.64
486.861	5515.86
487.065	5560.92
487.269	5583.45
487.473	5468.76
487.677	5653.08
487.881	5712.47
488.085	5583.45
488.289	5636.69
488.493	5792.34
488.697	5585.49
488.901	5696.08
489.105	5648.98
489.309	5517.91
489.512	5679.7
489.716	5573.21
489.92	5593.69
490.124	5554.77
490.328	5810.77
490.531	5646.93
490.735	5683.8
490.939	5667.41
491.143	5739.09
491.346	5835.35
491.55	5886.54
491.754	5855.83
491.958	5894.74
492.161	5839.44
492.365	5911.12
492.569	5757.52
492.772	5845.59
492.976	6027.85
493.18	5806.67
493.383	5999.18
493.587	6091.34
493.79	6165.07
493.994	6091.34
494.197	6287.95
494.401	6189.64
494.605	6181.45
494.808	6158.92
495.012	6165.07
495.215	6296.14
495.419	6480.46
495.622	6443.59
495.825	6533.7
496.029	6621.77
496.232	6480.46
496.436	6507.08
496.639	6756.93
496.843	6736.45
497.046	6859.33
497.249	6998.59
497.453	6906.43
497.656	6969.92
497.859	7113.28
498.063	7051.84
498.266	7154.24
498.469	7148.09
498.673	7316.03
498.876	7320.12
499.079	7451.19
499.282	7295.55
499.485	7651.89
499.689	7709.24
499.892	7752.24
500.095	7674.42
500.298	8006.19
500.501	7805.49
500.705	7897.65
500.908	8333.87
501.111	8344.11
501.314	8526.38
501.517	8411.69
501.72	8452.65
501.923	8544.81
502.126	8614.44
502.329	8722.98
502.532	9003.55
502.735	8858.15
502.938	9099.81
503.141	8983.07
503.344	9314.84
503.547	9212.45
503.75	9417.24
503.953	9607.7
504.156	9804.31
504.359	9671.19
504.562	9814.55
504.765	9972.24
504.968	10000.91
505.17	10052.11
505.373	10070.55
505.576	10271.25
505.779	10428.94
505.982	10646.02
506.185	10764.81
506.387	10709.51
506.59	10922.5
506.793	11006.47
506.996	10971.65
507.198	11360.77
507.401	11454.97
507.604	11663.86
507.807	11735.54
508.009	11723.26
508.212	11979.25
508.415	11833.85
508.617	11823.61
508.82	12061.17
509.022	12126.71
509.225	12466.67
509.428	12550.64
509.63	12571.11
509.833	12767.72
510.035	13060.58
510.238	12872.17
510.44	13175.27
510.643	13298.14
510.845	13361.63
511.048	13480.41
511.25	13597.15
511.453	13650.39
511.655	14264.78
511.858	13976.02
512.06	14244.31
512.262	14410.19
512.465	14264.78
512.667	14651.85
512.87	14703.05
513.072	14694.86
513.274	14750.15
513.477	15034.82
513.679	15018.44
513.881	15432.13
514.084	15444.41
514.286	15610.3
514.488	15575.48
514.69	16136.63
514.893	16159.16
515.095	16181.68
515.297	16339.38
515.499	16468.4
515.701	16519.6
515.904	16894.38
516.106	16558.51
516.308	17070.5
516.51	17336.74
516.712	17322.4
516.914	17600.93
517.116	17906.07
517.318	17869.21
517.52	17775
517.722	17901.98
517.925	18182.55
518.127	18602.38
518.329	18655.63
518.531	18766.22
518.733	19032.46
518.935	19159.43
519.136	18893.19
519.338	19495.3
519.54	19476.87
519.742	19489.15
519.944	19687.81
520.146	19687.81
520.348	20203.89
520.55	19937.66
520.752	20466.03
520.954	20810.09
521.155	20560.24
521.357	20961.64
521.559	20978.03
521.761	21281.13
521.963	20832.62
522.164	21393.76
522.366	21428.58
522.568	21942.62
522.77	21827.93
522.971	22188.38
523.173	21678.43
523.375	22108.51
523.576	22143.32
523.778	22350.17
523.98	22352.21
524.181	22456.66
524.383	22747.47
524.584	23042.38
524.786	22939.98
524.988	22839.63
525.189	23460.16
525.391	23325
525.592	23523.65
525.794	23621.95
525.995	23548.23
526.197	23615.81
526.398	23662.91
526.6	24195.39
526.801	24031.55
527.003	24355.13
527.204	24232.25
527.406	24830.26
527.607	24330.55
527.808	24621.36
528.01	24279.35
528.211	24396.09
528.412	25127.21
528.614	25014.57
528.815	25039.15
529.016	25082.16
529.218	24850.74
529.419	25043.24
529.62	25098.54
529.822	24918.32
530.023	25217.32
530.224	25241.9
530.425	25106.73
530.626	24766.77
530.828	25035.05
531.029	25866.53
531.23	25266.47
531.431	25622.82
531.632	25835.81
531.833	25532.71
532.035	25624.87
532.236	25633.06
532.437	25704.74
532.638	25501.99
532.839	25559.33
533.04	25831.71
533.241	25448.74
533.442	25669.92
533.643	25581.86
533.844	25891.1
534.045	25727.27
534.246	25532.71
534.447	25684.26
534.648	25620.77
534.849	25938.21
535.05	25780.51
535.251	26003.74
535.451	25737.51
535.652	26054.94
535.853	25592.1
536.054	25784.61
536.255	26042.65
536.456	25674.02
536.657	26153.24
536.857	25973.02
537.058	25790.75
537.259	25925.92
537.46	25923.87
537.66	25788.71
537.861	25823.52
538.062	25622.82
538.263	25790.75
538.463	25583.91
538.664	25921.82
538.865	25727.27
539.065	25979.17
539.266	25819.42
539.466	25958.69
539.667	25987.36
539.868	26013.98
540.068	25749.79
540.269	25573.67
540.469	26183.96
540.67	25383.21
540.87	25819.42
541.071	25970.97
541.271	25923.87
541.472	25874.72
541.672	25600.29
541.873	25798.94
542.073	25762.08
542.274	26106.14
542.474	25948.45
542.675	25542.95
542.875	25811.23
543.075	25743.65
543.276	25624.87
543.476	26013.98
543.676	25606.44
543.877	25839.9
544.077	25588
544.277	25354.54
544.478	25743.65
544.678	25813.28
544.878	25647.4
545.078	26026.27
545.279	25768.23
545.479	25686.31
545.679	25973.02
545.879	25905.44
546.079	25575.72
546.28	25411.88
546.48	25626.92
546.68	25706.79
546.88	25796.9
547.08	25739.55
547.28	25694.5
547.48	25667.88
547.68	25819.42
547.88	25680.16
548.081	25714.98
548.281	25649.44
548.481	25442.6
548.681	25745.7
548.881	25770.27
549.081	25542.95
549.28	25616.68
549.48	25809.18
549.68	25420.07
549.88	25911.58
550.08	25497.89
550.28	25438.5
550.48	25528.61
550.68	25725.22
550.88	25553.19
551.08	25518.37
551.279	25518.37
551.479	25461.03
551.679	25690.4
551.879	25588
552.079	25766.18
552.278	25479.46
552.478	25516.33
552.678	25549.09
552.878	25776.42
553.077	25413.93
553.277	25166.12
553.477	25526.57
553.676	25225.51
553.876	25504.04
554.076	25237.8
554.275	25252.14
554.475	25051.44
554.674	25618.72
554.874	25415.97
555.074	25375.02
555.273	25250.09
555.473	25280.81
555.672	25200.94
555.872	25231.66
556.071	25307.43
556.271	25129.26
556.47	25045.29
556.67	25069.87
556.869	25217.32
557.068	25229.61
557.268	24897.84
557.467	25041.2
557.667	25090.35
557.866	25057.58
558.065	24928.56
558.265	24248.63
558.464	24533.3
558.663	25094.44
558.863	24645.94
559.062	24840.5
559.261	24592.69
559.461	24955.18
559.66	24189.24
559.859	24209.72
560.058	24252.73
560.258	24244.54
560.457	24482.1
560.656	24607.03
560.855	24291.64
561.054	24940.85
561.253	24314.17
561.453	24375.61
561.652	24572.21
561.851	24252.73
562.05	24166.71
562.249	24025.4
562.448	24125.75
562.647	24332.6
562.846	23818.56
563.045	23898.43
563.244	23800.13
563.443	24262.97
563.642	23488.84
563.841	23759.17
564.04	23466.31
564.239	23959.87
564.438	23892.29
564.637	23398.73
564.836	23845.18
565.035	23478.6
565.234	23718.21
565.432	23357.77
565.631	23257.42
565.83	23761.22
566.029	23085.39
566.228	23292.23
566.427	23402.82
566.625	23206.22
566.824	22954.32
567.023	23320.9
567.222	22958.41
567.42	22956.36
567.619	22833.49
567.818	22804.81
568.016	22636.88
568.215	22888.78
568.414	22731.09
568.612	23091.53
568.811	22858.06
569.01	23013.71
569.208	22526.29
569.407	22790.48
569.605	22387.03
569.804	22577.49
570.002	22354.26
570.201	22354.26
570.4	22235.48
570.598	22442.32
570.797	21922.14
570.995	22075.74
571.193	22067.55
571.392	22225.24
571.59	22051.16
571.789	21717.34
571.987	22102.36
572.186	21766.49
572.384	21782.88
572.582	21725.54
572.781	21498.21
572.979	21539.17
573.177	21707.1
573.376	21743.97
573.574	21471.59
573.772	21606.75
573.971	21469.54
574.169	21317.99
574.367	21201.26
574.565	21145.96
574.763	21150.06
574.962	21082.47
575.16	20656.5
575.358	21025.13
575.556	20717.93
575.754	21057.9
575.952	20969.83
576.151	20846.96
576.349	20941.16
576.547	20810.09
576.745	20601.2
576.943	20642.16
577.141	20687.21
577.339	20445.55
577.537	20326.77
577.735	20623.73
577.933	20263.29
578.131	20367.73
578.329	20312.44
578.527	20031.86
578.725	20240.76
578.923	20130.17
579.121	20062.58
579.319	19954.04
579.516	20162.93
579.714	20085.11
579.912	19833.21
580.11	19796.35
580.308	19919.23
580.506	19696
580.704	19489.15
580.901	19552.64
581.099	19960.19
581.297	19489.15
581.495	19329.41
581.692	19818.88
581.89	19493.25
582.088	19333.51
582.285	19339.65
582.483	19372.42
582.681	19265.92
582.878	19261.83
583.076	18995.59
583.274	18921.87
583.471	19210.63
583.669	18973.07
583.866	18905.48
584.064	19181.96
584.262	18905.48
584.459	18868.62
584.657	18639.25
584.854	18842
585.052	18389.39
585.249	18401.68
585.447	18729.36
585.644	18248.08
585.841	18438.55
586.039	18428.31
586.236	18141.59
586.434	18475.41
586.631	18416.02
586.828	18393.49
587.026	18198.93
587.223	18211.22
587.42	18178.45
587.618	18104.73
587.815	17693.08
588.012	18147.73
588.21	18055.58
588.407	17985.94
588.604	17854.87
588.801	17641.89
588.999	17623.45
589.196	17443.23
589.393	17990.04
589.59	17572.25
589.787	17594.78
589.984	17312.16
590.182	17600.93
590.379	17418.66
590.576	17336.74
590.773	17418.66
590.97	17476
591.167	17172.9
591.364	17131.94
591.561	17136.04
591.758	17144.23
591.955	17189.28
592.152	17138.09
592.349	16886.18
592.546	16839.08
592.743	16914.86
592.94	16744.88
593.137	16769.45
593.334	16546.22
593.531	16386.48
593.727	16794.03
593.924	16515.5
594.121	16507.31
594.318	16343.47
594.515	16255.41
594.712	16531.89
594.908	16136.63
595.105	16343.47
595.302	16279.99
595.499	16023.99
595.696	15966.65
595.892	15798.71
596.089	16062.9
596.286	15909.3
596.482	15964.6
596.679	15811
596.876	15925.69
597.072	15606.2
597.269	15731.13
597.466	15626.68
597.662	15622.59
597.859	15638.97
598.055	15665.6
598.252	15561.15
598.448	15507.9
598.645	15356.35
598.841	15147.46
599.038	15534.53
599.234	15364.54
599.431	15038.92
599.627	14963.14
599.824	15327.68
600.02	15178.18
600.217	15112.64
600.413	15079.88
600.609	14942.66
600.806	14825.93
601.002	14862.79
601.198	14883.27
601.395	14602.7
601.591	14637.52
601.787	14868.94
601.984	14793.16
602.18	14725.58
602.376	14629.32
602.572	14662.09
602.769	14545.36
602.965	14420.43
603.161	14416.33
603.357	14160.34
603.553	14182.87
603.75	14412.24
603.946	14283.22
604.142	14432.72
604.338	13806.04
604.534	14291.41
604.73	13949.4
604.926	14103
605.122	14094.8
605.318	14103
605.514	13842.9
605.71	13914.58
605.906	13621.72
606.102	13748.7
606.298	13900.25
606.494	13898.2
606.69	13953.49
606.886	13601.24
607.082	13490.65
607.278	13670.87
607.474	13437.41
607.67	13650.39
607.866	13222.37
608.062	13425.12
608.257	13418.97
608.453	13390.3
608.649	13398.49
608.845	13314.53
609.041	13504.99
609.236	13332.96
609.432	13289.95
609.628	13378.01
609.824	13224.42
610.019	13146.59
610.215	13183.46
610.411	13324.77
610.606	13019.62
610.802	13081.06
610.998	12966.37
611.193	13212.13
611.389	13062.63
611.584	12839.4
611.78	12870.12
611.976	13095.39
612.171	12898.79
612.367	12958.18
612.562	12761.58
612.758	12665.32
612.953	12741.1
613.149	12806.63
613.344	12640.75
613.539	12720.62
613.735	12724.71
613.93	12605.93
614.126	12505.58
614.321	12718.57
614.517	12716.52
614.712	12644.84
614.907	12468.72
615.103	12640.75
615.298	12585.45
615.493	12345.84
615.688	12317.17
615.884	12646.89
616.079	12179.95
616.274	12683.75
616.47	12421.61
616.665	12378.61
616.86	12241.39
617.055	12243.44
617.25	12200.43
617.445	12343.79
617.641	11958.77
617.836	12487.15
618.031	11934.2
618.226	12024.31
618.421	12077.55
618.616	12175.86
618.811	12044.79
619.006	12050.93
619.201	11993.59
619.396	11729.4
619.591	11717.11
619.786	11893.24
619.981	11606.52
620.176	11993.59
620.371	11739.64
620.566	11821.56
620.761	11553.27
620.956	11493.88
621.151	11508.22
621.346	11612.67
621.541	11006.47
621.735	11436.54
621.93	11198.98
622.125	11078.15
622.32	10945.03
622.515	10934.79
622.709	11143.68
622.904	11041.28
623.099	10936.84
623.294	11086.34
623.488	10779.14
623.683	10750.47
623.878	10502.67
624.072	10840.58
624.267	10609.16
624.462	10572.3
624.656	10584.59
624.851	10564.11
625.046	10342.92
625.24	10107.41
625.435	10273.29
625.629	10226.19
625.824	10019.35
626.018	10082.83
626.213	9855.51
626.407	10162.7
626.602	10023.44
626.796	10013.2
626.991	9982.48
627.185	9839.12
627.38	9548.31
627.574	9617.94
627.768	9665.05
627.963	9484.83
628.157	9452.06
628.352	9585.18
628.546	9415.19
628.74	9392.67
628.935	9333.28
629.129	9341.47
629.323	9204.25
629.517	9243.17
629.712	9169.44
629.906	9130.53
630.1	9191.97
630.294	9105.95
630.489	8948.26
630.683	9005.6
630.877	8845.86
631.071	8813.09
631.265	8948.26
631.459	8862.24
631.653	8823.33
631.848	8731.17
632.042	8591.91
632.236	8497.7
632.43	8475.18
632.624	8481.32
632.818	8344.11
633.012	8423.98
633.206	8417.83
633.4	8509.99
633.594	8256.04
633.788	8325.68
633.982	8413.74
634.176	8303.15
634.369	8180.27
634.563	8176.17
634.757	8034.86
634.951	8233.52
635.145	7891.51
635.339	7918.13
635.533	7868.98
635.726	7897.65
635.92	7879.22
636.114	7760.44
636.308	7696.95
636.501	7678.52
636.695	7776.82
636.889	7629.37
637.083	7549.5
637.276	7512.63
637.47	7361.08
637.664	7508.54
637.857	7565.88
638.051	7311.93
638.244	7524.92
638.438	7213.63
638.632	7350.84
638.825	7170.62
639.019	7395.9
639.212	7180.86
639.406	7316.03
639.599	7121.47
639.793	7170.62
639.986	7049.79
640.18	7025.22
640.373	6953.54
640.567	6822.47
640.76	6851.14
640.954	6771.27
641.147	6681.16
641.34	6629.96
641.534	6908.48
641.727	6726.21
641.92	6564.42
642.114	6670.92
642.307	6644.29
642.5	6627.91
642.694	6515.27
642.887	6419.02
643.08	6713.92
643.273	6435.4
643.467	6330.95
643.66	6386.25
643.853	6490.7
644.046	6376.01
644.239	6111.82
644.432	6093.39
644.626	6206.03
644.819	6089.29
645.012	6212.17
645.205	6265.42
645.398	6140.49
645.591	6085.2
645.784	6019.66
645.977	5964.37
646.17	5935.7
646.363	6163.02
646.556	5771.86
646.749	5947.98
646.942	5851.73
647.135	5849.68
647.328	5876.3
647.521	5794.39
647.714	5843.54
647.907	5741.14
648.099	5769.81
648.292	5739.09
648.485	5651.03
648.678	5544.53
648.871	5489.24
649.064	5501.53
649.256	5622.36
649.449	5466.71
649.642	5407.32
649.835	5388.89
650.027	5319.26
650.22	5243.48
650.413	5435.99
650.605	5272.15
650.798	5370.46
650.991	5048.93
651.183	5208.67
651.376	5263.96
651.568	5223
651.761	5136.99
651.954	4964.96
652.146	5229.15
652.339	5214.81
652.531	4921.95
652.724	5012.06
652.916	4846.18
653.109	4964.96
653.301	4950.62
653.494	5028.45
653.686	5020.25
653.879	4909.66
654.071	4840.03
654.263	4600.42
654.456	4901.47
654.648	4815.46
654.84	4545.13
655.033	4686.44
655.225	4819.55
655.417	4770.4
655.61	4887.14
655.802	4735.59
655.994	4737.63
656.186	4747.87
656.379	4655.72
656.571	4481.64
656.763	4567.65
656.955	4670.05
657.148	4393.58
657.34	4442.73
657.532	4506.21
657.724	4457.06
657.916	4424.3
658.108	4377.19
658.3	4348.52
658.492	4289.13
658.684	4338.28
658.876	4139.63
659.068	4330.09
659.26	4248.17
659.452	4149.87
659.644	4235.88
659.836	4153.96
660.028	4274.79
660.22	4164.2
660.412	4332.14
660.604	4035.18
660.796	4067.95
660.988	4133.48
661.18	4016.75
661.372	3986.03
661.563	3965.55
661.755	3918.45
661.947	3957.36
662.139	3920.49
662.331	4020.85
662.522	3777.14
662.714	3861.1
662.906	3811.95
663.097	3840.62
663.289	3885.68
663.481	3822.19
663.673	3838.58
663.864	3762.8
664.056	3744.37
664.247	3684.98
664.439	3637.88
664.631	3779.18
664.822	3613.3
665.014	3467.89
665.205	3623.54
665.397	3523.19
665.588	3529.33
665.78	3549.81
665.971	3582.58
666.163	3486.33
666.354	3492.47
666.546	3461.75
666.737	3457.65
666.929	3412.6
667.12	3517.05
667.311	3418.74
667.503	3588.72
667.694	3451.51
667.885	3529.33
668.077	3369.59
668.268	3269.24
668.459	3439.22
668.651	3291.77
668.842	3244.67
669.033	3316.34
669.224	3377.78
669.416	3394.17
669.607	3113.6
669.798	3340.92
669.989	3332.73
670.18	3164.79
670.371	3125.88
670.563	3023.48
670.754	3172.99
670.945	3132.03
671.136	3156.6
671.327	3199.61
671.518	3117.69
671.709	3148.41
671.9	3220.09
672.091	2996.86
672.282	2990.72
672.473	3011.2
672.664	3091.07
672.855	2992.77
673.046	3095.16
673.237	3068.54
673.428	2988.67
673.619	3031.68
673.809	3050.11
674	2935.42
674.191	3037.82
674.382	2818.69
674.573	2873.98
674.764	2904.7
674.954	2945.66
675.145	2837.12
675.336	2929.28
675.527	2906.75
675.717	2939.52
675.908	2853.5
676.099	2800.26
676.289	2765.44
676.48	2806.4
676.671	2742.91
676.861	2822.78
677.052	2749.06
677.243	2724.48
677.433	2751.1
677.624	2759.3
677.814	2841.22
678.005	2701.95
678.195	2738.82
678.386	2660.99
678.576	2716.29
678.767	2681.47
678.957	2640.51
679.148	2759.3
679.338	2767.49
679.529	2673.28
679.719	2599.56
679.909	2681.47
680.1	2706.05
680.29	2603.65
680.481	2620.03
680.671	2538.12
680.861	2521.73
681.052	2558.6
681.242	2669.19
681.432	2577.03
681.622	2548.36
681.813	2560.64
682.003	2476.68
682.193	2624.13
682.383	2542.21
682.573	2558.6
682.764	2497.16
682.954	2531.97
683.144	2593.41
683.334	2531.97
683.524	2474.63
683.714	2529.92
683.904	2429.57
684.094	2419.33
684.284	2431.62
684.474	2456.2
684.664	2554.5
684.854	2521.73
685.044	2474.63
685.234	2312.84
685.424	2431.62
685.614	2493.06
685.804	2454.15
685.994	2357.89
686.184	2357.89
686.374	2357.89
686.564	2376.33
686.753	2431.62
686.943	2345.61
687.133	2275.98
687.323	2329.22
687.513	2376.33
687.702	2341.51
687.892	2255.5
688.082	2257.54
688.272	2222.73
688.461	2204.3
688.651	2329.22
688.841	2228.87
689.03	2269.83
689.22	2265.74
689.41	2271.88
689.599	2224.78
689.789	2226.82
689.979	2189.96
690.168	2140.81
690.358	2165.39
690.547	2118.28
690.737	2157.19
690.926	2273.93
691.116	2185.87
691.305	2263.69
691.495	2149
691.684	2165.39
691.874	2204.3
692.063	2126.47
692.252	2118.28
692.442	2157.19
692.631	2054.8
692.82	2083.47
693.01	2030.22
693.199	2011.79
693.388	1952.4
693.578	1938.06
693.767	2052.75
693.956	2056.84
694.146	2028.17
694.335	2058.89
694.524	2046.6
694.713	1944.2
694.902	1944.2
695.092	1917.58
695.281	1919.63
695.47	2067.08
695.659	1931.92
695.848	1962.64
696.037	1880.72
696.226	1886.86
696.415	1856.14
696.604	1911.44
696.793	1893.01
696.982	1899.15
697.171	1917.58
697.36	1923.73
697.549	1835.66
697.738	1936.01
697.927	1798.8
698.116	1821.33
698.305	1850
698.494	1864.33
698.683	1907.34
698.872	1845.9
699.061	1806.99
699.25	1821.33
699.438	1858.19
699.627	1847.95
699.816	1796.75
700.005	1737.36
700.193	1841.81
700.382	1761.94
700.571	1895.05
700.76	1813.14
700.948	1878.67
701.137	1729.17
701.326	1866.38
701.514	1829.52
701.703	1780.37
701.892	1829.52
702.08	1862.29
702.269	1813.14
702.457	1811.09
702.646	1763.98
702.834	1729.17
703.023	1817.23
703.212	1780.37
703.4	1835.66
703.589	1798.8
703.777	1893.01
703.965	1770.13
704.154	1761.94
704.342	1776.27
704.531	1823.37
704.719	1745.55
704.907	1776.27
705.096	1833.61
705.284	1751.7
705.472	1839.76
705.661	1725.07
705.849	1741.46
706.037	1802.9
706.226	1796.75
706.414	1702.54
706.602	1700.5
706.79	1806.99
706.979	1796.75
707.167	1735.31
707.355	1806.99
707.543	1845.9
707.731	1897.1
707.919	1702.54
708.107	1604.24
708.296	1747.6
708.484	1827.47
708.672	1837.71
708.86	1768.08
709.048	1759.89
709.236	1798.8
709.424	1839.76
709.612	1774.22
709.8	1723.02
709.988	1723.02
710.176	1763.98
710.364	1682.07
710.551	1727.12
710.739	1706.64
710.927	1792.66
711.115	1784.46
711.303	1665.68
711.491	1741.46
711.679	1673.87
711.866	1854.09
712.054	1827.47
712.242	1741.46
712.43	1714.83
712.617	1794.7
712.805	1639.06
712.993	1796.75
713.181	1761.94
713.368	1690.26
713.556	1837.71
713.744	1710.74
713.931	1743.5
714.119	1847.95
714.306	1688.21
714.494	1735.31
714.682	1792.66
714.869	1811.09
715.057	1821.33
715.244	1747.6
715.432	1804.94
715.619	1811.09
715.807	1772.18
715.994	1862.29
716.182	1731.22
716.369	1817.23
716.556	1841.81
716.744	1790.61
716.931	1723.02
717.119	1755.79
717.306	1796.75
717.493	1802.9
717.681	1845.9
717.868	1790.61
718.055	1839.76
718.242	1878.67
718.43	1780.37
718.617	1806.99
718.804	1782.42
718.991	1766.03
719.179	1827.47
719.366	1806.99
719.553	1874.57
719.74	1878.67
719.927	1884.81
720.114	1772.18
720.301	1819.28
720.488	1806.99
720.676	1704.59
720.863	1802.9
721.05	1831.57
721.237	1864.33
721.424	1864.33
721.611	1796.75
721.798	1817.23
721.985	1821.33
722.172	1815.18
722.358	1831.57
722.545	1829.52
722.732	1806.99
722.919	1874.57
723.106	1708.69
723.293	1780.37
723.48	1833.61
723.667	1747.6
723.853	1786.51
724.04	1706.64
724.227	1796.75
724.414	1817.23
724.6	1741.46
724.787	1786.51
724.974	1868.43
725.161	1858.19
725.347	1806.99
725.534	1763.98
725.72	1833.61
725.907	1845.9
726.094	1827.47
726.28	1968.78
726.467	1780.37
726.653	1845.9
726.84	1866.38
727.027	1825.42
727.213	1856.14
727.4	1897.1
727.586	1911.44
727.773	1804.94
727.959	1874.57
728.145	1850
728.332	1841.81
728.518	1811.09
728.705	1983.12
728.891	1886.86
729.077	1874.57
729.264	1804.94
729.45	1903.25
729.636	1970.83
729.823	1821.33
730.009	1888.91
730.195	1876.62
730.382	1956.49
730.568	1909.39
730.754	1936.01
730.94	1825.42
731.126	1921.68
731.313	1968.78
731.499	1878.67
731.685	1815.18
731.871	1866.38
732.057	1960.59
732.243	1901.2
732.429	1938.06
732.615	2015.88
732.801	1872.53
732.987	1833.61
733.173	2007.69
733.359	1763.98
733.545	1905.29
733.731	1872.53
733.917	1901.2
734.103	1909.39
734.289	1866.38
734.475	1882.77
734.661	1880.72
734.847	1899.15
735.033	2009.74
735.219	1804.94
735.404	1901.2
735.59	1833.61
735.776	1888.91
735.962	1946.25
736.148	1880.72
736.333	1987.21
736.519	1901.2
736.705	1827.47
736.89	1911.44
737.076	1897.1
737.262	1895.05
737.447	1850
737.633	1798.8
737.819	1888.91
738.004	1915.53
738.19	1911.44
738.375	1909.39
738.561	1886.86
738.747	1817.23
738.932	1854.09
739.118	1872.53
739.303	1866.38
739.489	1876.62
739.674	1874.57
739.859	1886.86
740.045	1858.19
740.23	1809.04
740.416	1733.26
740.601	1970.83
740.786	1852.05
740.972	1893.01
741.157	1862.29
741.342	1788.56
741.528	1778.32
741.713	1759.89
741.898	1780.37
742.084	1792.66
742.269	1854.09
742.454	1763.98
742.639	1860.24
742.824	1776.27
743.01	1813.14
743.195	1772.18
743.38	1667.73
743.565	1718.93
743.75	1813.14
743.935	1682.07
744.12	1686.16
744.305	1653.39
744.49	1706.64
744.675	1706.64
744.86	1620.63
745.045	1804.94
745.23	1692.3
745.415	1682.07
745.6	1669.78
745.785	1567.38
745.97	1731.22
746.155	1612.43
746.34	1655.44
746.525	1690.26
746.71	1520.28
746.895	1610.39
747.079	1628.82
747.264	1557.14
747.449	1538.71
747.634	1647.25
747.819	1698.45
748.003	1446.55
748.188	1591.95
748.373	1655.44
748.557	1522.32
748.742	1573.52
748.927	1569.43
749.111	1485.46
749.296	1526.42
749.481	1561.23
749.665	1555.09
749.85	1430.16
750.034	1491.6
750.219	1516.18
750.404	1419.93
750.588	1419.93
750.773	1510.04
750.957	1434.26
751.141	1317.53
751.326	1505.94
751.51	1329.81
751.695	1456.79
751.879	1383.06
752.064	1413.78
752.248	1350.29
752.432	1290.9
752.617	1378.97
752.801	1436.31
752.985	1389.21
753.17	1303.19
753.354	1358.49
753.538	1280.66
753.722	1274.52
753.907	1362.58
754.091	1315.48
754.275	1338.01
754.459	1202.84
754.643	1274.52
754.828	1280.66
755.012	1262.23
755.196	1239.7
755.38	1258.14
755.564	1178.26
755.748	1225.37
755.932	1282.71
756.116	1247.9
756.3	1247.9
756.484	1254.04
756.668	1122.97
756.852	1200.79
757.036	1114.78
757.22	1110.68
757.404	1092.25
757.588	1079.96
757.772	1165.98
757.956	1155.74
758.14	1239.7
758.323	1082.01
758.507	1133.21
758.691	1067.67
758.875	1100.44
759.059	1069.72
759.242	1116.83
759.426	1086.11
759.61	1110.68
759.794	1100.44
759.977	1075.87
760.161	1086.11
760.345	1039
760.528	996
760.712	1051.29
760.895	1161.88
761.079	1100.44
761.263	1022.62
761.446	1090.2
761.63	971.42
761.813	1020.57
761.997	971.42
762.18	1012.38
762.364	905.88
762.547	920.22
762.731	963.23
762.914	1016.48
763.098	1032.86
763.281	936.6
763.464	940.7
763.648	903.84
763.831	1016.48
764.015	987.8
764.198	944.8
764.381	803.49
764.564	916.12
764.748	930.46
764.931	967.32
765.114	944.8
765.297	873.12
765.481	899.74
765.664	989.85
765.847	920.22
766.03	871.07
766.213	901.79
766.397	955.04
766.58	864.93
766.763	903.84
766.946	821.92
767.129	916.12
767.312	850.59
767.495	895.64
767.678	848.54
767.861	760.48
768.044	881.31
768.227	920.22
768.41	832.16
768.593	754.34
768.776	866.97
768.959	791.2
769.142	821.92
769.324	768.67
769.507	805.53
769.69	789.15
769.873	791.2
770.056	901.79
770.239	733.86
770.421	780.96
770.604	813.73
770.787	774.81
770.97	850.59
771.152	735.9
771.335	854.69
771.518	731.81
771.7	791.2
771.883	772.77
772.066	729.76
772.248	748.19
772.431	799.39
772.613	721.57
772.796	754.34
772.978	760.48
773.161	832.16
773.343	719.52
773.526	701.09
773.708	660.13
773.891	723.62
774.073	740
774.256	731.81
774.438	774.81
774.621	744.1
774.803	639.65
774.985	627.36
775.168	664.22
775.35	604.83
775.532	760.48
775.715	674.46
775.897	690.85
776.079	578.21
776.261	678.56
776.444	619.17
776.626	592.55
776.808	699.04
776.99	606.88
777.173	719.52
777.355	633.51
777.537	551.59
777.719	570.02
777.901	572.07
778.083	658.08
778.265	498.34
778.447	578.21
778.629	621.22
778.811	565.92
778.993	596.64
779.175	625.31
779.357	578.21
779.539	555.68
779.721	541.35
779.903	635.55
780.085	549.54
780.267	486.05
780.449	473.76
780.631	551.59
780.812	551.59
780.994	543.39
781.176	527.01
781.358	484
781.54	397.99
781.721	512.67
781.903	582.31
782.085	510.63
782.267	502.43
782.448	441
782.63	494.24
782.812	535.2
782.993	496.29
783.175	527.01
783.357	473.76
783.538	531.11
783.72	520.87
783.901	486.05
784.083	469.67
784.264	416.42
784.446	404.13
784.627	389.8
784.809	395.94
784.99	471.72
785.172	402.08
785.353	463.52
785.535	410.28
785.716	412.32
785.897	369.32
786.079	420.52
786.26	348.84
786.441	387.75
786.623	371.37
786.804	348.84
786.985	430.76
787.167	387.75
787.348	348.84
787.529	373.41
787.71	420.52
787.891	436.9
788.073	389.8
788.254	363.17
788.435	420.52
788.616	424.61
788.797	350.89
788.978	357.03
789.159	387.75
789.34	377.51
789.522	381.6
789.703	354.98
789.884	332.45
790.065	322.21
790.246	422.56
790.427	350.89
790.607	461.48
790.788	369.32
790.969	309.93
791.15	320.17
791.331	305.83
791.512	281.25
791.693	314.02
791.874	438.95
792.054	424.61
792.235	328.36
792.416	250.53
792.597	316.07
792.778	297.64
792.958	301.73
793.139	215.72
793.32	232.1
793.5	338.6
793.681	338.6
793.862	342.69
794.042	207.53
794.223	309.93
794.404	271.01
794.584	264.87
794.765	207.53
794.945	318.12
795.126	275.11
795.306	311.97
795.487	260.77
795.667	291.49
795.848	289.45
796.028	336.55
796.209	240.3
796.389	240.3
796.57	289.45
796.75	348.84
796.93	291.49
797.111	281.25
797.291	180.9
797.471	256.68
797.652	281.25
797.832	305.83
798.012	256.68
798.192	174.76
798.373	193.19
798.553	299.69
798.733	250.53
798.913	238.25
799.093	211.62
799.274	322.21
799.454	254.63
799.634	244.39
799.814	275.11
799.994	178.86
800.174	258.73
800.354	236.2
800.534	176.81
800.714	232.1
800.894	203.43
801.074	195.24
801.254	182.95
801.434	199.34
801.614	248.49
801.794	168.62
801.974	742.05
802.154	174.76
802.334	215.72
802.514	195.24
802.693	178.86
802.873	187.05
803.053	223.91
803.233	156.33
803.413	246.44
803.592	144.04
803.772	174.76
803.952	230.06
804.131	158.38
804.311	164.52
804.491	168.62
804.67	205.48
804.85	211.62
805.03	174.76
805.209	182.95
805.389	180.9
805.568	158.38
805.748	215.72
805.928	191.14
806.107	193.19
806.287	246.44
806.466	170.66
806.646	182.95
806.825	166.57
807.004	166.57
807.184	154.28
807.363	172.71
807.543	168.62
807.722	105.13
807.901	158.38
808.081	133.8
808.26	84.65
808.439	170.66
808.619	141.99
808.798	166.57
808.977	133.8
809.156	221.86
809.336	144.04
809.515	225.96
809.694	180.9
809.873	135.85
810.052	193.19
810.231	182.95
810.411	187.05
810.59	162.47
810.769	168.62
810.948	197.29
811.127	127.66
811.306	166.57
811.485	180.9
811.664	166.57
811.843	176.81
812.022	168.62
812.201	135.85
812.38	78.51
812.559	141.99
812.737	150.18
812.916	172.71
813.095	166.57
813.274	174.76
813.453	133.8
813.632	119.46
813.811	148.14
813.989	135.85
814.168	86.7
814.347	125.61
814.526	121.51
814.704	86.7
814.883	127.66
815.062	139.94
815.24	150.18
815.419	84.65
815.598	123.56
815.776	74.41
815.955	101.03
816.133	111.27
816.312	127.66
816.49	109.23
816.669	23.21
816.847	82.6
817.026	109.23
817.204	129.7
817.383	174.76
817.561	115.37
817.74	141.99
817.918	103.08
818.097	101.03
818.275	164.52
818.453	127.66
818.632	125.61
818.81	168.62
818.988	86.7
819.167	133.8
819.345	129.7
819.523	88.75
819.701	150.18
819.879	170.66
820.058	103.08
820.236	160.42
820.414	80.55
820.592	72.36
820.77	70.31
820.948	94.89
821.127	12.97
821.305	53.93
821.483	74.41
821.661	168.62
821.839	74.41
822.017	98.99
822.195	156.33
822.373	80.55
822.551	103.08
822.729	76.46
822.907	58.03
823.085	187.05
823.262	90.79
823.44	148.14
823.618	53.93
823.796	45.74
823.974	127.66
824.152	84.65
824.329	141.99
824.507	47.79
824.685	58.03
824.863	139.94
825.04	135.85
825.218	160.42
825.396	221.86
825.574	45.74
825.751	53.93
825.929	168.62
826.107	25.26
826.284	64.17
826.462	84.65
826.639	68.27
826.817	84.65
826.994	47.79
827.172	35.5
827.349	158.38
827.527	70.31
827.704	94.89
827.882	60.07
828.059	70.31
828.237	39.59
828.414	98.99
828.591	80.55
828.769	60.07
828.946	90.79
829.124	129.7
829.301	168.62
829.478	72.36
829.655	-62.8
829.833	72.36
830.01	10.92
830.187	74.41
830.364	70.31
830.542	29.35
830.719	82.6
830.896	92.84
831.073	107.18
831.25	103.08
831.427	84.65
831.604	53.93
831.782	66.22
831.959	148.14
832.136	19.11
832.313	86.7
832.49	53.93
832.667	68.27
832.844	109.23
833.021	158.38
833.198	115.37
833.374	35.5
833.551	82.6
833.728	-27.99
833.905	146.09
834.082	78.51
834.259	115.37
834.436	47.79
834.612	43.69
834.789	23.21
834.966	94.89
835.143	70.31
835.319	45.74
835.496	74.41
835.673	101.03
835.85	101.03
836.026	107.18
836.203	39.59
836.38	-5.46
836.556	-7.51
836.733	41.64
836.909	37.55
837.086	51.88
837.262	41.64
837.439	49.83
837.616	119.46
837.792	29.35
837.968	45.74
838.145	8.87
838.321	74.41
838.498	43.69
838.674	47.79
838.851	105.13
839.027	27.31
839.203	98.99
839.38	78.51
839.556	98.99
839.732	113.32
839.909	103.08
840.085	49.83
840.261	82.6
840.437	82.6
840.614	39.59
840.79	47.79
840.966	43.69
841.142	94.89
841.318	92.84
841.494	45.74
841.671	60.07
841.847	84.65
842.023	12.97
842.199	19.11
842.375	101.03
842.551	53.93
842.727	41.64
842.903	117.42
843.079	41.64
843.255	68.27
843.431	70.31
843.607	0.68
843.783	37.55
843.959	45.74
844.134	64.17
844.31	58.03
844.486	96.94
844.662	76.46
844.838	92.84
845.013	27.31
845.189	0.68
845.365	33.45
845.541	2.73
845.716	141.99
845.892	76.46
846.068	-30.04
846.244	31.4
846.419	115.37
846.595	27.31
846.77	60.07
846.946	43.69
847.122	21.16
847.297	62.12
847.473	41.64
847.648	-5.46
847.824	51.88
847.999	27.31
848.175	8.87
848.35	-13.65
848.526	111.27
848.701	92.84
848.876	17.07
849.052	4.78
849.227	4.78
849.403	60.07
849.578	8.87
849.753	76.46
849.929	55.98
850.104	-58.71
850.279	-5.46
850.454	45.74
850.63	-13.65
850.805	6.83
850.98	94.89
851.155	41.64
851.33	39.59
851.505	-36.18
851.681	135.85
851.856	45.74
852.031	53.93
852.206	15.02
852.381	12.97
852.556	-40.28
852.731	53.93
852.906	80.55
853.081	-1.37
853.256	92.84
853.431	19.11
853.606	-44.37
853.781	-30.04
853.956	-19.8
854.131	33.45
854.305	4.78
854.48	-21.84
854.655	25.26
854.83	92.84
855.005	-11.61
855.18	-1.37
855.354	-17.75
855.529	-11.61
855.704	21.16
855.879	68.27
856.053	4.78
856.228	60.07
856.403	-1.37
856.577	-3.41
856.752	66.22
856.926	-46.42
857.101	15.02
857.276	15.02
857.45	-3.41
857.625	109.23
857.799	68.27
857.974	-3.41
858.148	23.21
858.323	21.16
858.497	-32.08
858.672	-56.66
858.846	-1.37
859.02	43.69
859.195	49.83
859.369	107.18
859.543	-5.46
859.718	-34.13
859.892	66.22
860.066	60.07
860.241	43.69
860.415	-36.18
860.589	27.31
860.763	90.79
860.938	27.31
861.112	35.5
861.286	84.65
861.46	29.35
861.634	21.16
861.808	66.22
861.982	-34.13
862.157	62.12
862.331	4.78
862.505	55.98
862.679	58.03
862.853	27.31
863.027	51.88
863.201	113.32
863.375	17.07
863.549	35.5
863.722	25.26
863.896	25.26
864.07	12.97
864.244	17.07
864.418	58.03
864.592	62.12
864.766	-73.04
864.939	84.65
865.113	-11.61
865.287	2.73
865.461	-42.32
865.634	45.74
865.808	39.59
865.982	-27.99
866.156	23.21
866.329	35.5
866.503	80.55
866.676	-9.56
866.85	-9.56
867.024	-21.84
867.197	47.79
867.371	-7.51
867.544	-30.04
867.718	-46.42
867.891	-34.13
868.065	-38.23
868.238	2.73
868.412	68.27
868.585	-13.65
868.759	86.7
868.932	-48.47
869.105	10.92
869.279	15.02
869.452	-13.65
869.625	-15.7
869.799	19.11
869.972	-36.18
870.145	35.5
870.319	-13.65
870.492	23.21
870.665	-38.23
870.838	12.97
871.011	68.27
871.185	2.73
871.358	35.5
871.531	80.55
871.704	-9.56
871.877	-30.04
872.05	-27.99
872.223	-17.75
872.396	-1.37
872.569	45.74
872.742	-7.51
872.915	25.26
873.088	-1.37
873.261	55.98
873.434	6.83
873.607	43.69
873.78	55.98
873.953	-19.8
874.126	-34.13
874.299	-27.99
874.471	29.35
874.644	-27.99
874.817	41.64
874.99	125.61
875.163	21.16
875.335	78.51
875.508	55.98
875.681	39.59
875.853	-36.18
876.026	-7.51
876.199	21.16
876.371	-60.76
876.544	66.22
876.717	-25.94
876.889	41.64
877.062	27.31
877.234	-13.65
877.407	49.83
877.579	10.92
877.752	-46.42
877.924	-9.56
878.097	27.31
878.269	-105.81
878.442	12.97
878.614	80.55
878.786	-1.37
878.959	-64.85
879.131	21.16
879.303	-13.65
879.476	-30.04
879.648	19.11
879.82	21.16
879.993	-27.99
880.165	23.21
880.337	-21.84
880.509	35.5
880.681	10.92
880.854	-25.94
881.026	37.55
881.198	55.98
881.37	19.11
881.542	-9.56
881.714	-34.13
881.886	51.88
882.058	-38.23
882.23	-21.84
882.402	-79.19
882.574	-3.41
882.746	51.88
882.918	-13.65
883.09	62.12
883.262	-5.46
883.434	27.31
883.606	-38.23
883.778	27.31
883.95	21.16
884.122	-34.13
884.293	-5.46
884.465	2.73
884.637	27.31
884.809	-13.65
884.98	17.07
885.152	-15.7
885.324	47.79
885.496	-38.23
885.667	45.74
885.839	62.12
886.011	72.36
886.182	49.83
886.354	15.02
886.525	23.21
886.697	15.02
886.869	6.83
887.04	-34.13
887.212	-42.32
887.383	53.93
887.555	-58.71
887.726	-3.41
887.897	-46.42
888.069	-50.52
888.24	45.74
888.412	15.02
888.583	-9.56
888.754	31.4
888.926	-103.76
889.097	35.5
889.268	-42.32
889.44	15.02
889.611	-34.13
889.782	-38.23
889.953	23.21
890.125	62.12
890.296	39.59
890.467	-58.71
890.638	-1.37
890.809	58.03
890.98	37.55
891.151	27.31
891.323	-34.13
891.494	4.78
891.665	35.5
891.836	-62.8
892.007	19.11
892.178	47.79
892.349	-21.84
892.52	-19.8
892.691	78.51
892.862	2.73
893.032	-5.46
893.203	-3.41
893.374	-34.13
893.545	-5.46
893.716	4.78
893.887	-5.46
894.057	-36.18
894.228	-34.13
894.399	6.83
894.57	58.03
894.74	21.16
894.911	-23.89
895.082	-50.52
895.253	27.31
895.423	-50.52
895.594	35.5
895.764	-21.84
895.935	4.78
896.106	-56.66
896.276	51.88
896.447	17.07
896.617	-126.29
896.788	-77.14
896.958	-44.37
897.129	15.02
897.299	2.73
897.47	-11.61
897.64	4.78
897.81	29.35
897.981	-46.42
898.151	-36.18
898.322	6.83
898.492	4.78
898.662	10.92
898.832	-44.37
899.003	70.31
899.173	-3.41
899.343	-25.94
899.513	-99.67
