Data from USB4F104151__10__13-10-21-866.txt Node

Date: Fri Mar 14 13:10:21 EDT 2025
User: louis
Spectrometer: USB4F10415
Trigger mode: 4
Integration Time (sec): 2.000000E-2
Scans to average: 1
Electric dark correction enabled: true
Nonlinearity correction enabled: false
Boxcar width: 0
XAxis mode: Wavelengths
Number of Pixels in Spectrum: 3648
>>>>>Begin Spectral Data<<<<<
178.204	-136.53
178.424	-136.53
178.644	-136.53
178.864	-81.24
179.084	-60.76
179.304	19.11
179.524	12.97
179.744	-1.37
179.964	2.73
180.184	-1.37
180.404	-44.37
180.624	27.31
180.844	-17.75
181.064	-38.23
181.283	29.35
181.503	-44.37
181.723	55.98
181.943	-46.42
182.163	29.35
182.383	-11.61
182.602	-23.89
182.822	-9.56
183.042	90.79
183.262	-36.18
183.482	25.26
183.701	-5.46
183.921	45.74
184.141	23.21
184.361	31.4
184.58	-27.99
184.8	37.55
185.02	15.02
185.239	-3.41
185.459	-30.04
185.679	80.55
185.898	12.97
186.118	76.46
186.338	55.98
186.557	82.6
186.777	55.98
186.997	80.55
187.216	39.59
187.436	84.65
187.655	47.79
187.875	98.99
188.095	27.31
188.314	2.73
188.534	66.22
188.753	51.88
188.973	131.75
189.192	23.21
189.412	25.26
189.631	4.78
189.851	19.11
190.07	12.97
190.29	31.4
190.509	-25.94
190.729	-19.8
190.948	39.59
191.168	88.75
191.387	47.79
191.607	12.97
191.826	25.26
192.045	19.11
192.265	92.84
192.484	53.93
192.704	60.07
192.923	31.4
193.142	19.11
193.362	-11.61
193.581	51.88
193.8	33.45
194.02	78.51
194.239	51.88
194.458	98.99
194.678	29.35
194.897	-15.7
195.116	-11.61
195.335	76.46
195.555	78.51
195.774	92.84
195.993	80.55
196.212	37.55
196.432	76.46
196.651	4.78
196.87	96.94
197.089	117.42
197.308	31.4
197.528	86.7
197.747	31.4
197.966	55.98
198.185	94.89
198.404	2.73
198.623	23.21
198.842	158.38
199.062	45.74
199.281	123.56
199.5	41.64
199.719	10.92
199.938	60.07
200.157	10.92
200.376	47.79
200.595	109.23
200.814	70.31
201.033	23.21
201.252	103.08
201.471	2.73
201.69	4.78
201.909	55.98
202.128	62.12
202.347	68.27
202.566	60.07
202.785	-19.8
203.004	-11.61
203.223	135.85
203.442	51.88
203.661	88.75
203.879	35.5
204.098	82.6
204.317	-38.23
204.536	8.87
204.755	35.5
204.974	-27.99
205.193	21.16
205.411	68.27
205.63	2.73
205.849	33.45
206.068	-15.7
206.287	41.64
206.505	152.23
206.724	49.83
206.943	-21.84
207.162	49.83
207.381	76.46
207.599	29.35
207.818	70.31
208.037	37.55
208.255	-27.99
208.474	58.03
208.693	-13.65
208.911	39.59
209.13	72.36
209.349	62.12
209.567	94.89
209.786	74.41
210.005	-36.18
210.223	135.85
210.442	88.75
210.661	15.02
210.879	-1.37
211.098	107.18
211.316	31.4
211.535	6.83
211.753	-44.37
211.972	68.27
212.191	64.17
212.409	76.46
212.628	-13.65
212.846	6.83
213.065	86.7
213.283	141.99
213.502	-21.84
213.72	94.89
213.938	55.98
214.157	92.84
214.375	80.55
214.594	15.02
214.812	43.69
215.031	80.55
215.249	17.07
215.467	101.03
215.686	-19.8
215.904	92.84
216.122	-1.37
216.341	39.59
216.559	39.59
216.778	72.36
216.996	43.69
217.214	45.74
217.432	21.16
217.651	12.97
217.869	86.7
218.087	82.6
218.306	129.7
218.524	80.55
218.742	64.17
218.96	8.87
219.179	58.03
219.397	107.18
219.615	86.7
219.833	84.65
220.051	23.21
220.27	86.7
220.488	82.6
220.706	68.27
220.924	-5.46
221.142	-36.18
221.36	45.74
221.578	101.03
221.796	-3.41
222.015	-21.84
222.233	25.26
222.451	96.94
222.669	37.55
222.887	29.35
223.105	23.21
223.323	49.83
223.541	33.45
223.759	45.74
223.977	43.69
224.195	94.89
224.413	111.27
224.631	19.11
224.849	41.64
225.067	94.89
225.285	19.11
225.503	2.73
225.721	2.73
225.939	-17.75
226.157	51.88
226.375	62.12
226.592	51.88
226.81	35.5
227.028	55.98
227.246	125.61
227.464	17.07
227.682	62.12
227.9	53.93
228.117	15.02
228.335	31.4
228.553	58.03
228.771	68.27
228.989	27.31
229.206	21.16
229.424	-38.23
229.642	15.02
229.86	10.92
230.077	43.69
230.295	53.93
230.513	35.5
230.731	39.59
230.948	27.31
231.166	39.59
231.384	21.16
231.601	51.88
231.819	35.5
232.037	-5.46
232.254	-21.84
232.472	51.88
232.689	27.31
232.907	55.98
233.125	39.59
233.342	60.07
233.56	-5.46
233.777	62.12
233.995	31.4
234.213	109.23
234.43	23.21
234.648	78.51
234.865	8.87
235.083	90.79
235.3	21.16
235.518	92.84
235.735	84.65
235.953	58.03
236.17	41.64
236.388	39.59
236.605	80.55
236.822	139.94
237.04	47.79
237.257	45.74
237.475	27.31
237.692	-3.41
237.909	41.64
238.127	19.11
238.344	-17.75
238.562	68.27
238.779	0.68
238.996	-36.18
239.214	76.46
239.431	35.5
239.648	6.83
239.865	64.17
240.083	88.75
240.3	35.5
240.517	0.68
240.735	70.31
240.952	43.69
241.169	76.46
241.386	37.55
241.603	51.88
241.821	10.92
242.038	47.79
242.255	68.27
242.472	-1.37
242.689	49.83
242.907	49.83
243.124	80.55
243.341	51.88
243.558	-19.8
243.775	27.31
243.992	15.02
244.209	2.73
244.426	107.18
244.643	-3.41
244.86	2.73
245.078	90.79
245.295	53.93
245.512	82.6
245.729	8.87
245.946	43.69
246.163	41.64
246.38	45.74
246.597	-11.61
246.814	35.5
247.031	10.92
247.248	76.46
247.464	45.74
247.681	101.03
247.898	41.64
248.115	55.98
248.332	-13.65
248.549	19.11
248.766	-5.46
248.983	92.84
249.2	-27.99
249.417	45.74
249.633	27.31
249.85	33.45
250.067	27.31
250.284	39.59
250.501	-25.94
250.717	123.56
250.934	51.88
251.151	68.27
251.368	60.07
251.585	39.59
251.801	80.55
252.018	47.79
252.235	113.32
252.451	-21.84
252.668	-42.32
252.885	15.02
253.102	8.87
253.318	55.98
253.535	-21.84
253.752	15.02
253.968	53.93
254.185	78.51
254.401	31.4
254.618	12.97
254.835	27.31
255.051	113.32
255.268	49.83
255.484	66.22
255.701	15.02
255.917	31.4
256.134	47.79
256.351	82.6
256.567	-34.13
256.784	84.65
257	12.97
257.217	4.78
257.433	64.17
257.65	47.79
257.866	64.17
258.082	43.69
258.299	12.97
258.515	60.07
258.732	72.36
258.948	19.11
259.165	21.16
259.381	31.4
259.597	21.16
259.814	23.21
260.03	-13.65
260.246	10.92
260.463	2.73
260.679	70.31
260.895	58.03
261.112	72.36
261.328	55.98
261.544	29.35
261.761	62.12
261.977	66.22
262.193	-27.99
262.409	117.42
262.626	-7.51
262.842	-3.41
263.058	47.79
263.274	-95.57
263.49	47.79
263.707	15.02
263.923	33.45
264.139	6.83
264.355	74.41
264.571	84.65
264.787	43.69
265.004	88.75
265.22	60.07
265.436	53.93
265.652	21.16
265.868	-9.56
266.084	-13.65
266.3	68.27
266.516	-44.37
266.732	47.79
266.948	64.17
267.164	-11.61
267.38	21.16
267.596	21.16
267.812	127.66
268.028	125.61
268.244	-9.56
268.46	2.73
268.676	35.5
268.892	41.64
269.108	62.12
269.324	121.51
269.54	2.73
269.756	123.56
269.972	-13.65
270.188	43.69
270.403	82.6
270.619	53.93
270.835	70.31
271.051	25.26
271.267	35.5
271.483	68.27
271.698	15.02
271.914	72.36
272.13	51.88
272.346	-13.65
272.562	-38.23
272.777	49.83
272.993	64.17
273.209	-7.51
273.425	78.51
273.64	-38.23
273.856	49.83
274.072	27.31
274.287	29.35
274.503	53.93
274.719	-1.37
274.934	35.5
275.15	49.83
275.366	25.26
275.581	12.97
275.797	66.22
276.012	2.73
276.228	60.07
276.444	-25.94
276.659	82.6
276.875	33.45
277.09	37.55
277.306	19.11
277.521	82.6
277.737	12.97
277.952	27.31
278.168	47.79
278.383	55.98
278.599	92.84
278.814	103.08
279.03	82.6
279.245	125.61
279.461	35.5
279.676	27.31
279.892	39.59
280.107	15.02
280.322	-36.18
280.538	39.59
280.753	6.83
280.969	6.83
281.184	53.93
281.399	137.9
281.615	-54.61
281.83	29.35
282.045	-1.37
282.26	-17.75
282.476	113.32
282.691	90.79
282.906	43.69
283.122	62.12
283.337	-9.56
283.552	164.52
283.767	-9.56
283.983	96.94
284.198	-3.41
284.413	64.17
284.628	6.83
284.843	31.4
285.058	12.97
285.274	64.17
285.489	29.35
285.704	125.61
285.919	21.16
286.134	8.87
286.349	109.23
286.564	29.35
286.779	62.12
286.995	-5.46
287.21	-19.8
287.425	51.88
287.64	-32.08
287.855	49.83
288.07	43.69
288.285	68.27
288.5	35.5
288.715	49.83
288.93	8.87
289.145	109.23
289.36	33.45
289.575	-19.8
289.79	19.11
290.004	80.55
290.219	55.98
290.434	39.59
290.649	70.31
290.864	58.03
291.079	111.27
291.294	101.03
291.509	76.46
291.724	2.73
291.938	64.17
292.153	37.55
292.368	29.35
292.583	82.6
292.798	92.84
293.012	84.65
293.227	0.68
293.442	86.7
293.657	101.03
293.871	127.66
294.086	133.8
294.301	139.94
294.516	78.51
294.73	-17.75
294.945	43.69
295.16	62.12
295.374	-7.51
295.589	103.08
295.804	8.87
296.018	19.11
296.233	51.88
296.447	72.36
296.662	33.45
296.877	-13.65
297.091	72.36
297.306	21.16
297.52	21.16
297.735	111.27
297.949	66.22
298.164	60.07
298.378	103.08
298.593	-15.7
298.807	25.26
299.022	-17.75
299.236	35.5
299.451	82.6
299.665	53.93
299.88	150.18
300.094	64.17
300.309	66.22
300.523	88.75
300.737	43.69
300.952	31.4
301.166	84.65
301.381	80.55
301.595	72.36
301.809	-11.61
302.024	84.65
302.238	27.31
302.452	47.79
302.667	72.36
302.881	150.18
303.095	12.97
303.309	45.74
303.524	15.02
303.738	31.4
303.952	64.17
304.166	29.35
304.381	4.78
304.595	76.46
304.809	37.55
305.023	105.13
305.237	8.87
305.452	68.27
305.666	35.5
305.88	31.4
306.094	19.11
306.308	-5.46
306.522	12.97
306.736	35.5
306.95	17.07
307.164	6.83
307.379	4.78
307.593	55.98
307.807	47.79
308.021	84.65
308.235	47.79
308.449	37.55
308.663	-15.7
308.877	90.79
309.091	72.36
309.305	17.07
309.519	64.17
309.733	23.21
309.947	60.07
310.161	70.31
310.374	45.74
310.588	74.41
310.802	6.83
311.016	76.46
311.23	12.97
311.444	27.31
311.658	58.03
311.872	92.84
312.085	31.4
312.299	62.12
312.513	103.08
312.727	125.61
312.941	62.12
313.154	25.26
313.368	70.31
313.582	125.61
313.796	68.27
314.009	78.51
314.223	125.61
314.437	137.9
314.651	-13.65
314.864	45.74
315.078	19.11
315.292	33.45
315.505	64.17
315.719	55.98
315.933	76.46
316.146	103.08
316.36	88.75
316.573	105.13
316.787	-46.42
317.001	62.12
317.214	27.31
317.428	82.6
317.641	-32.08
317.855	2.73
318.068	39.59
318.282	84.65
318.495	72.36
318.709	101.03
318.922	115.37
319.136	76.46
319.349	88.75
319.563	68.27
319.776	92.84
319.99	62.12
320.203	19.11
320.417	53.93
320.63	101.03
320.843	15.02
321.057	70.31
321.27	51.88
321.483	78.51
321.697	117.42
321.91	105.13
322.124	76.46
322.337	47.79
322.55	68.27
322.763	45.74
322.977	84.65
323.19	29.35
323.403	72.36
323.617	8.87
323.83	51.88
324.043	64.17
324.256	31.4
324.469	72.36
324.683	33.45
324.896	68.27
325.109	64.17
325.322	10.92
325.535	144.04
325.748	23.21
325.962	15.02
326.175	12.97
326.388	70.31
326.601	98.99
326.814	33.45
327.027	90.79
327.24	51.88
327.453	4.78
327.666	27.31
327.879	117.42
328.092	-27.99
328.305	55.98
328.518	31.4
328.731	23.21
328.944	70.31
329.157	-52.56
329.37	66.22
329.583	98.99
329.796	70.31
330.009	-42.32
330.222	45.74
330.435	19.11
330.648	90.79
330.861	76.46
331.073	58.03
331.286	2.73
331.499	0.68
331.712	-62.8
331.925	60.07
332.138	109.23
332.35	76.46
332.563	2.73
332.776	148.14
332.989	76.46
333.202	-13.65
333.414	70.31
333.627	72.36
333.84	76.46
334.053	25.26
334.265	37.55
334.478	4.78
334.691	37.55
334.903	80.55
335.116	78.51
335.329	76.46
335.541	51.88
335.754	25.26
335.966	45.74
336.179	12.97
336.392	27.31
336.604	101.03
336.817	19.11
337.029	141.99
337.242	0.68
337.454	6.83
337.667	58.03
337.88	19.11
338.092	0.68
338.305	90.79
338.517	29.35
338.729	21.16
338.942	101.03
339.154	33.45
339.367	64.17
339.579	92.84
339.792	-21.84
340.004	51.88
340.217	15.02
340.429	-7.51
340.641	43.69
340.854	35.5
341.066	41.64
341.278	31.4
341.491	103.08
341.703	51.88
341.915	58.03
342.128	92.84
342.34	90.79
342.552	15.02
342.764	19.11
342.977	10.92
343.189	41.64
343.401	76.46
343.613	8.87
343.826	84.65
344.038	49.83
344.25	58.03
344.462	19.11
344.674	68.27
344.886	82.6
345.099	53.93
345.311	51.88
345.523	68.27
345.735	-9.56
345.947	70.31
346.159	35.5
346.371	96.94
346.583	27.31
346.795	84.65
347.007	37.55
347.219	53.93
347.431	64.17
347.643	62.12
347.855	4.78
348.067	62.12
348.279	-30.04
348.491	35.5
348.703	33.45
348.915	37.55
349.127	43.69
349.339	6.83
349.551	2.73
349.763	53.93
349.975	123.56
350.187	53.93
350.399	80.55
350.61	137.9
350.822	64.17
351.034	49.83
351.246	31.4
351.458	53.93
351.669	35.5
351.881	92.84
352.093	119.46
352.305	133.8
352.517	86.7
352.728	125.61
352.94	35.5
353.152	51.88
353.363	-13.65
353.575	82.6
353.787	76.46
353.999	66.22
354.21	168.62
354.422	64.17
354.633	-5.46
354.845	64.17
355.057	37.55
355.268	80.55
355.48	86.7
355.692	43.69
355.903	68.27
356.115	-27.99
356.326	25.26
356.538	64.17
356.749	76.46
356.961	103.08
357.172	74.41
357.384	72.36
357.595	168.62
357.807	64.17
358.018	105.13
358.23	86.7
358.441	84.65
358.653	60.07
358.864	55.98
359.075	58.03
359.287	39.59
359.498	103.08
359.709	72.36
359.921	6.83
360.132	55.98
360.344	55.98
360.555	78.51
360.766	94.89
360.977	137.9
361.189	141.99
361.4	64.17
361.611	35.5
361.823	148.14
362.034	70.31
362.245	74.41
362.456	74.41
362.667	101.03
362.879	21.16
363.09	6.83
363.301	135.85
363.512	35.5
363.723	21.16
363.935	29.35
364.146	82.6
364.357	125.61
364.568	29.35
364.779	-15.7
364.99	53.93
365.201	33.45
365.412	119.46
365.623	78.51
365.834	80.55
366.045	70.31
366.256	88.75
366.467	51.88
366.678	33.45
366.889	53.93
367.1	-1.37
367.311	39.59
367.522	23.21
367.733	27.31
367.944	103.08
368.155	0.68
368.366	47.79
368.577	15.02
368.788	47.79
368.999	86.7
369.209	141.99
369.42	103.08
369.631	92.84
369.842	51.88
370.053	10.92
370.264	96.94
370.474	53.93
370.685	103.08
370.896	17.07
371.107	82.6
371.317	66.22
371.528	160.42
371.739	96.94
371.95	27.31
372.16	43.69
372.371	51.88
372.582	31.4
372.792	-19.8
373.003	103.08
373.214	68.27
373.424	80.55
373.635	41.64
373.846	53.93
374.056	55.98
374.267	49.83
374.477	-7.51
374.688	103.08
374.898	72.36
375.109	47.79
375.319	62.12
375.53	86.7
375.74	58.03
375.951	70.31
376.161	43.69
376.372	72.36
376.582	51.88
376.793	6.83
377.003	49.83
377.214	43.69
377.424	60.07
377.635	80.55
377.845	84.65
378.055	86.7
378.266	15.02
378.476	62.12
378.686	123.56
378.897	96.94
379.107	125.61
379.317	148.14
379.528	19.11
379.738	37.55
379.948	62.12
380.158	70.31
380.369	101.03
380.579	125.61
380.789	53.93
380.999	76.46
381.21	109.23
381.42	105.13
381.63	35.5
381.84	74.41
382.05	70.31
382.261	45.74
382.471	70.31
382.681	64.17
382.891	84.65
383.101	168.62
383.311	10.92
383.521	62.12
383.731	133.8
383.941	105.13
384.151	49.83
384.361	21.16
384.571	29.35
384.781	103.08
384.991	82.6
385.201	111.27
385.411	113.32
385.621	119.46
385.831	107.18
386.041	37.55
386.251	60.07
386.461	135.85
386.671	74.41
386.881	41.64
387.091	31.4
387.301	103.08
387.511	49.83
387.72	58.03
387.93	82.6
388.14	17.07
388.35	35.5
388.56	160.42
388.769	92.84
388.979	103.08
389.189	92.84
389.399	90.79
389.609	121.51
389.818	150.18
390.028	62.12
390.238	117.42
390.447	66.22
390.657	43.69
390.867	47.79
391.076	35.5
391.286	-36.18
391.496	27.31
391.705	43.69
391.915	137.9
392.125	76.46
392.334	51.88
392.544	105.13
392.753	72.36
392.963	162.47
393.172	113.32
393.382	62.12
393.591	164.52
393.801	94.89
394.01	170.66
394.22	68.27
394.429	125.61
394.639	94.89
394.848	76.46
395.058	119.46
395.267	135.85
395.477	123.56
395.686	101.03
395.895	172.71
396.105	141.99
396.314	43.69
396.524	125.61
396.733	80.55
396.942	150.18
397.152	107.18
397.361	117.42
397.57	68.27
397.78	70.31
397.989	90.79
398.198	113.32
398.407	62.12
398.617	150.18
398.826	139.94
399.035	152.23
399.244	144.04
399.453	131.75
399.663	150.18
399.872	107.18
400.081	103.08
400.29	158.38
400.499	146.09
400.708	115.37
400.917	146.09
401.127	94.89
401.336	119.46
401.545	135.85
401.754	74.41
401.963	113.32
402.172	135.85
402.381	84.65
402.59	127.66
402.799	101.03
403.008	152.23
403.217	137.9
403.426	131.75
403.635	135.85
403.844	96.94
404.053	166.57
404.262	111.27
404.471	256.68
404.68	209.58
404.888	154.28
405.097	182.95
405.306	137.9
405.515	234.15
405.724	135.85
405.933	232.1
406.142	199.34
406.35	199.34
406.559	215.72
406.768	242.34
406.977	240.3
407.185	193.19
407.394	211.62
407.603	230.06
407.812	217.77
408.02	291.49
408.229	256.68
408.438	336.55
408.646	242.34
408.855	197.29
409.064	326.31
409.272	246.44
409.481	283.3
409.69	264.87
409.898	285.35
410.107	400.04
410.315	342.69
410.524	346.79
410.733	322.21
410.941	465.57
411.15	436.9
411.358	340.65
411.567	453.28
411.775	469.67
411.984	389.8
412.192	441
412.401	465.57
412.609	518.82
412.818	518.82
413.026	547.49
413.234	641.7
413.443	508.58
413.651	490.15
413.86	608.93
414.068	586.4
414.276	678.56
414.485	512.67
414.693	668.32
414.901	723.62
415.11	686.75
415.318	752.29
415.526	746.14
415.734	844.45
415.943	760.48
416.151	856.73
416.359	924.32
416.567	858.78
416.776	934.56
416.984	1020.57
417.192	1108.63
417.4	1075.87
417.608	1100.44
417.817	1116.83
418.025	1176.22
418.233	1258.14
418.441	1211.03
418.649	1219.22
418.857	1284.76
419.065	1321.62
419.273	1335.96
419.481	1503.89
419.689	1550.99
419.897	1526.42
420.105	1589.91
420.313	1530.52
420.521	1663.63
420.729	1800.85
420.937	1796.75
421.145	1847.95
421.353	1850
421.561	1970.83
421.769	2028.17
421.977	2134.67
422.185	2212.49
422.393	2245.26
422.601	2325.13
422.809	2372.23
423.017	2366.09
423.224	2544.26
423.432	2513.54
423.64	2632.32
423.848	2804.35
424.056	2730.62
424.263	3048.06
424.471	2951.81
424.679	2994.81
424.887	3123.84
425.094	3238.52
425.302	3306.1
425.51	3467.89
425.718	3551.86
425.925	3564.15
426.133	3691.12
426.341	3801.71
426.548	4090.48
426.756	3973.74
426.964	4262.51
427.171	4461.16
427.379	4403.82
427.586	4598.37
427.794	4799.07
428.001	4936.29
428.209	5239.39
428.417	5057.12
428.624	5540.44
428.832	5392.98
429.039	5329.5
429.247	5554.77
429.454	5886.54
429.662	6359.63
429.869	5761.62
430.076	6189.64
430.284	6130.25
430.491	6412.87
430.699	6689.35
430.906	6591.05
431.114	6883.91
431.321	7057.98
431.528	7316.03
431.736	7522.87
431.943	8116.78
432.15	7815.73
432.358	7721.52
432.565	8516.14
432.772	8317.48
432.979	8878.63
433.187	8890.92
433.394	8960.55
433.601	9533.98
433.808	9527.83
434.016	9566.74
434.223	9863.7
434.43	10553.87
434.637	10328.59
434.844	10865.16
435.052	11162.11
435.259	11076.1
435.466	11078.15
435.673	11082.24
435.88	11764.22
436.087	12165.62
436.294	12610.03
436.501	12306.93
436.708	12689.9
436.915	13033.96
437.122	13302.24
437.329	13312.48
437.537	13812.18
437.743	13969.88
437.95	14051.8
438.157	14592.46
438.364	15184.32
438.571	15135.17
438.778	15411.65
438.985	16669.1
439.192	15944.12
439.399	16382.38
439.606	16015.8
439.813	17248.68
440.02	18035.1
440.227	17584.54
440.433	17418.66
440.64	18243.99
440.847	18127.25
441.054	18622.86
441.261	19601.79
441.467	19546.5
441.674	19853.69
441.881	20361.59
442.088	20298.1
442.294	20351.35
442.501	20750.7
442.708	21301.61
442.914	22219.1
443.121	23298.38
443.328	22444.37
443.534	24281.4
443.741	23251.27
443.948	22942.03
444.154	24981.81
444.361	24443.19
444.568	24901.93
444.774	24639.79
444.981	25076.01
445.187	25794.85
445.394	27123.98
445.6	26663.19
445.807	29292.78
446.013	28023.04
446.22	28813.55
446.426	29634.79
446.633	29954.27
446.839	30755.03
447.046	29380.84
447.252	31922.37
447.459	31115.47
447.665	31293.65
447.871	32508.09
448.078	33929.38
448.284	32667.83
448.491	33491.12
448.697	34689.18
448.903	35457.17
449.11	35410.06
449.316	34842.78
449.522	35129.49
449.728	36587.64
449.935	36405.38
450.141	36835.45
450.347	37351.54
450.553	36368.51
450.76	36937.85
450.966	38334.56
451.172	37771.37
451.378	38897.75
451.584	37945.45
451.791	39077.97
451.997	38881.37
452.203	39481.42
452.409	39485.52
452.615	39430.22
452.821	38240.36
453.027	37675.12
453.233	39442.51
453.44	38377.57
453.646	38477.92
453.852	38981.72
454.058	39555.15
454.264	38025.32
454.47	39065.69
454.676	38334.56
454.882	39360.59
455.088	36040.84
455.294	36919.42
455.5	37597.29
455.705	37181.56
455.911	36157.57
456.117	35260.56
456.323	34750.62
456.529	33284.27
456.735	34793.62
456.941	33974.44
457.147	33208.5
457.352	32360.64
457.558	32346.3
457.764	32135.36
457.97	31690.95
458.176	30746.84
458.381	30925.01
458.587	29290.73
458.793	29374.7
458.999	28027.13
459.204	30148.83
459.41	29032.69
459.616	27377.93
459.821	27048.21
460.027	26761.49
460.233	26429.72
460.438	25098.54
460.644	25295.14
460.85	24363.32
461.055	23857.47
461.261	23726.4
461.466	21614.94
461.672	21250.41
461.878	23140.68
462.083	21270.89
462.289	21096.81
462.494	20711.79
462.7	19935.61
462.905	19614.08
463.111	20134.26
463.316	20074.87
463.522	19640.7
463.727	19777.92
463.932	19476.87
464.138	19403.14
464.343	19167.62
464.549	18864.52
464.754	19648.89
464.959	19396.99
465.165	19519.87
465.37	18426.26
465.575	17836.44
465.781	18586
465.986	18991.5
466.191	18311.57
466.397	17742.24
466.602	16736.68
466.807	17570.21
467.012	17631.65
467.218	17334.69
467.423	17211.81
467.628	17373.6
467.833	18198.93
468.038	17377.7
468.244	16925.1
468.449	17349.03
468.654	16892.33
468.859	16791.98
469.064	16918.95
469.269	16196.02
469.474	16558.51
469.679	16505.26
469.885	16095.67
470.09	16419.25
470.295	16196.02
470.5	15581.63
470.705	16142.77
470.91	15395.26
471.115	15483.33
471.32	15923.64
471.525	15411.65
471.73	15309.25
471.935	15182.27
472.139	14748.11
472.344	14832.07
472.549	14657.99
472.754	14655.95
472.959	13969.88
473.164	13875.67
473.369	13836.76
473.574	14189.01
473.778	14453.2
473.983	14045.65
474.188	13681.11
474.393	13353.44
474.598	13525.47
474.802	13185.51
475.007	13066.72
475.212	13298.14
475.417	12909.03
475.621	12808.68
475.826	12767.72
476.031	12464.62
476.235	12339.69
476.44	12503.53
476.645	12290.54
476.849	12302.83
477.054	11969.01
477.259	12026.36
477.463	11842.04
477.668	11596.28
477.872	11751.93
478.077	11616.76
478.282	11323.9
478.486	11342.33
478.691	11104.77
478.895	11045.38
479.1	10899.97
479.304	11004.42
479.509	10824.2
479.713	10846.73
479.918	10703.37
480.122	10613.26
480.326	10619.4
480.531	10674.7
480.735	10439.18
480.94	10248.72
481.144	10693.13
481.348	10207.76
481.553	10527.24
481.757	10267.15
481.961	10373.64
482.166	10392.08
482.37	10400.27
482.574	10107.41
482.778	10201.61
482.983	10306.06
483.187	10396.17
483.391	10218
483.595	10283.53
483.8	10226.19
484.004	10140.18
484.208	10381.84
484.412	10236.43
484.616	10361.36
484.821	10316.3
485.025	10080.78
485.229	10287.63
485.433	10242.57
485.637	10328.59
485.841	10064.4
486.045	10013.2
486.249	10170.9
486.453	10064.4
486.657	10033.68
486.861	10203.66
487.065	10007.06
487.269	10091.02
487.473	9955.86
487.677	10273.29
487.881	10449.42
488.085	10301.97
488.289	10256.91
488.493	10312.21
488.697	10242.57
488.901	10316.3
489.105	10371.6
489.309	10242.57
489.512	10211.85
489.716	10390.03
489.92	10258.96
490.124	10125.84
490.328	10535.43
490.531	10392.08
490.735	10551.82
490.939	10410.51
491.143	10467.85
491.346	10381.84
491.55	10686.98
491.754	10693.13
491.958	10662.41
492.161	10668.55
492.365	10883.59
492.569	10566.15
492.772	10736.13
492.976	10889.73
493.18	10795.53
493.383	11063.81
493.587	11037.19
493.79	11059.71
493.994	11192.83
494.197	11028.99
494.401	11356.67
494.605	11360.77
494.808	11356.67
495.012	11516.41
495.215	11532.79
495.419	11831.8
495.622	11579.9
495.825	11885.05
496.029	11641.34
496.232	12212.72
496.436	11878.9
496.639	12276.21
496.843	12120.56
497.046	12573.16
497.249	12577.26
497.453	12622.31
497.656	12673.51
497.859	12816.87
498.063	12937.7
498.266	13240.8
498.469	13113.83
498.673	13472.22
498.876	13461.98
499.079	13480.41
499.282	13371.87
499.485	14051.8
499.689	13990.36
499.892	14156.24
500.095	14115.28
500.298	14799.3
500.501	14361.04
500.705	14846.41
500.908	15114.69
501.111	15221.19
501.314	15219.14
501.517	15239.62
501.72	15509.95
501.923	15575.48
502.126	16011.7
502.329	15989.17
502.532	16132.53
502.735	16402.86
502.938	16630.19
503.141	16738.73
503.344	17232.29
503.547	16787.88
503.75	17226.15
503.953	17510.82
504.156	17799.58
504.359	17922.46
504.562	17912.22
504.765	18459.02
504.968	18516.37
505.17	18692.49
505.373	18717.07
505.576	18954.63
505.779	19360.13
505.982	19218.82
506.185	19917.18
506.387	19818.88
506.59	20066.68
506.793	20533.62
506.996	20203.89
507.198	20990.31
507.401	20834.67
507.604	20961.64
507.807	21526.88
508.009	21479.78
508.212	21629.28
508.415	21975.39
508.617	22376.79
508.82	22442.32
509.022	22247.77
509.225	22806.86
509.428	23128.39
509.63	23271.75
509.833	23423.3
510.035	23724.35
510.238	23654.72
510.44	24334.65
510.643	24582.45
510.845	24230.2
511.048	24432.95
511.25	25125.16
511.453	25147.69
511.655	25485.61
511.858	25588
512.06	25954.59
512.262	26362.14
512.465	26218.78
512.667	26753.3
512.87	26894.61
513.072	27080.97
513.274	27547.91
513.477	27801.86
513.679	27889.92
513.881	28285.18
514.084	28963.06
514.286	28657.91
514.488	28444.92
514.69	29481.19
514.893	29303.02
515.095	29548.78
515.297	30281.95
515.499	29778.15
515.701	30654.68
515.904	30695.64
516.106	31199.44
516.308	31383.76
516.51	31666.38
516.712	31709.38
516.914	32467.13
517.116	32528.57
517.318	32428.22
517.52	33001.65
517.722	32778.42
517.925	33271.98
518.127	33751.21
518.329	33869.99
518.531	33884.33
518.733	34631.83
518.935	34758.81
519.136	34990.23
519.338	35594.38
519.54	35315.86
519.742	35903.62
519.944	36270.21
520.146	36616.32
520.348	36597.88
520.55	36757.63
520.752	37132.4
520.954	37566.57
521.155	37593.2
521.357	38260.83
521.559	38529.12
521.761	38527.07
521.963	38604.89
522.164	38867.03
522.366	39053.4
522.568	39608.4
522.77	39680.08
522.971	39917.64
523.173	39997.51
523.375	40294.47
523.576	40237.12
523.778	40509.5
523.98	41078.84
524.181	41302.07
524.383	41379.89
524.584	41658.42
524.786	41967.66
524.988	41799.72
525.189	42682.4
525.391	42188.84
525.592	42321.96
525.794	42745.89
525.995	42530.85
526.197	42958.88
526.398	43071.51
526.6	43440.15
526.801	43296.79
527.003	43640.85
527.204	43679.76
527.406	44060.68
527.607	43737.1
527.808	44392.45
528.01	43165.72
528.211	44472.32
528.412	44988.41
528.614	44634.11
528.815	44861.44
529.016	45135.87
529.218	44509.19
529.419	45037.56
529.62	45520.88
529.822	45154.3
530.023	45056
530.224	45121.53
530.425	45158.39
530.626	45211.64
530.828	45139.96
531.029	45832.18
531.23	45158.39
531.431	45549.56
531.632	45901.81
531.833	46407.65
532.035	45811.7
532.236	46198.76
532.437	46104.56
532.638	46137.32
532.839	45860.85
533.04	46221.29
533.241	45697.01
533.442	46569.44
533.643	46229.48
533.844	45989.87
534.045	46096.36
534.246	46043.12
534.447	46073.84
534.648	45989.87
534.849	46499.81
535.05	45971.44
535.251	46333.93
535.451	45973.49
535.652	46383.08
535.853	46426.09
536.054	46366.7
536.255	46708.71
536.456	45801.46
536.657	46577.64
536.857	46137.32
537.058	46034.92
537.259	46727.14
537.46	46522.34
537.66	46340.07
537.861	46405.61
538.062	46352.36
538.263	46673.89
538.463	46114.79
538.664	46266.34
538.865	46170.09
539.065	46569.44
539.266	45780.98
539.466	46338.02
539.667	45973.49
539.868	46807.01
540.068	46370.79
540.269	45875.18
540.469	46264.3
540.67	46393.32
540.87	46018.54
541.071	46129.13
541.271	46551.01
541.472	46454.76
541.672	46077.93
541.873	46143.47
542.073	45508.6
542.274	46757.86
542.474	46266.34
542.675	45711.35
542.875	46383.08
543.075	46057.45
543.276	45760.5
543.476	46585.83
543.676	45883.37
543.877	46381.03
544.077	45889.52
544.277	46311.4
544.478	45967.34
544.678	46039.02
544.878	46323.69
545.078	46147.56
545.279	45877.23
545.479	45608.95
545.679	46327.78
545.879	46135.27
546.079	46020.59
546.28	45719.54
546.48	45787.12
546.68	45852.65
546.88	45656.05
547.08	45760.5
547.28	46045.16
547.48	45156.35
547.68	46372.84
547.88	45735.92
548.081	46186.47
548.281	45842.42
548.481	45637.62
548.681	45651.95
548.881	45748.21
549.081	46114.79
549.28	46133.23
549.48	45881.33
549.68	45520.88
549.88	46387.17
550.08	45539.32
550.28	46079.98
550.48	46022.64
550.68	45649.91
550.88	45975.53
551.08	45715.44
551.279	45889.52
551.479	45324.28
551.679	45711.35
551.879	45469.68
552.079	45565.94
552.278	45443.06
552.478	45678.58
552.678	45510.64
552.878	45735.92
553.077	45764.59
553.277	45180.92
553.477	46051.31
553.676	44906.49
553.876	45387.77
554.076	45324.28
554.275	45021.18
554.475	44554.24
554.674	45488.12
554.874	45504.5
555.074	44947.45
555.273	45371.38
555.473	45230.07
555.672	44896.25
555.872	45414.39
556.071	45082.62
556.271	45246.46
556.47	45092.86
556.67	44724.22
556.869	44980.22
557.068	45283.32
557.268	44419.08
557.467	44599.3
557.667	44785.66
557.866	44785.66
558.065	44652.55
558.265	44351.49
558.464	44367.88
558.663	44691.46
558.863	44214.28
559.062	44804.1
559.261	44062.73
559.461	44441.6
559.66	43374.61
559.859	44302.34
560.058	43726.86
560.258	43939.85
560.457	43704.34
560.656	44154.89
560.855	43624.47
561.054	44214.28
561.253	43505.68
561.453	43651.09
561.652	43993.1
561.851	44134.41
562.05	43505.68
562.249	43223.06
562.448	43438.1
562.647	43434
562.846	43712.53
563.045	43618.32
563.244	43073.56
563.443	43642.9
563.642	42510.37
563.841	42985.5
564.04	42797.09
564.239	42836
564.438	42473.51
564.637	42639.39
564.836	42657.82
565.035	42194.98
565.234	42369.06
565.432	42321.96
565.631	42473.51
565.83	42192.93
566.029	42035.24
566.228	41730.09
566.427	41850.92
566.625	41834.54
566.824	41408.56
567.023	41736.24
567.222	41150.52
567.42	41691.18
567.619	41480.24
567.818	41351.22
568.016	41599.02
568.215	41730.09
568.414	40740.93
568.612	41553.97
568.811	41044.02
569.01	41132.09
569.208	40204.36
569.407	40880.19
569.605	40638.53
569.804	40781.88
570.002	40265.8
570.201	40622.14
570.4	40527.94
570.598	40061
570.797	39966.79
570.995	40161.35
571.193	39741.52
571.392	40431.68
571.59	39702.6
571.789	39661.65
571.987	39647.31
572.186	39688.27
572.384	39217.24
572.582	39534.67
572.781	39534.67
572.979	38561.89
573.177	39149.65
573.376	39311.44
573.574	38803.55
573.772	39360.59
573.971	38547.55
574.169	38430.82
574.367	38449.25
574.565	38633.57
574.763	38482.02
574.962	38256.74
575.16	37920.87
575.358	38389.86
575.556	37642.35
575.754	38604.89
575.952	37488.75
576.151	37879.91
576.349	37222.51
576.547	37386.35
576.745	37570.67
576.943	37728.36
577.141	37038.2
577.339	37267.57
577.537	37099.64
577.735	37001.33
577.933	36812.92
578.131	36984.95
578.329	36747.39
578.527	36452.48
578.725	36681.85
578.923	36774.01
579.121	36202.63
579.319	36317.31
579.516	36364.42
579.714	36454.53
579.912	35846.28
580.11	36137.09
580.308	35936.39
580.506	36079.75
580.704	34887.83
580.901	35862.66
581.099	35688.59
581.297	35457.17
581.495	35260.56
581.692	35561.61
581.89	35229.84
582.088	35328.14
582.285	35418.25
582.483	35219.6
582.681	34726.04
582.878	34762.9
583.076	34392.22
583.274	35078.29
583.471	34877.59
583.669	34629.79
583.866	34384.03
584.064	34259.1
584.262	33806.5
584.459	34248.86
584.657	34207.9
584.854	34308.26
585.052	33712.3
585.249	34013.35
585.447	34154.66
585.644	33386.67
585.841	33583.27
586.039	33626.28
586.236	32991.41
586.434	33282.22
586.631	32872.63
586.828	33216.69
587.026	32989.36
587.223	32952.5
587.42	32712.89
587.618	32741.56
587.815	32467.13
588.012	32209.09
588.21	32385.21
588.407	32710.84
588.604	32690.36
588.801	32243.9
588.999	31903.94
589.196	31750.34
589.393	31926.47
589.59	31983.81
589.787	31535.31
589.984	31846.6
590.182	31574.22
590.379	31594.7
590.576	31217.87
590.773	31627.46
590.97	31008.98
591.167	31277.26
591.364	30826.71
591.561	31060.18
591.758	30820.56
591.955	30892.24
592.152	30798.04
592.349	30474.46
592.546	30896.34
592.743	30511.32
592.94	30109.92
593.137	30503.13
593.334	30490.84
593.531	29835.49
593.727	30347.48
593.924	30144.73
594.121	29862.11
594.318	29837.54
594.515	29483.24
594.712	30181.6
594.908	29649.13
595.105	29511.91
595.302	28999.92
595.499	29645.03
595.696	29550.82
595.892	29126.89
596.089	29270.25
596.286	28893.43
596.482	29026.54
596.679	28748.02
596.876	28856.56
597.072	28770.55
597.269	28481.78
597.466	28221.69
597.662	28414.2
597.859	28522.74
598.055	28260.6
598.252	28066.05
598.448	28301.56
598.645	27838.72
598.841	27922.69
599.038	27926.78
599.234	27805.95
599.431	27642.12
599.627	27445.51
599.824	27650.31
600.02	27511.05
600.217	27762.95
600.413	27515.14
600.609	27044.11
600.806	27111.69
601.002	27169.04
601.198	27177.23
601.395	26921.23
601.591	26808.59
601.787	26837.27
601.984	26888.46
602.18	26874.13
602.376	26562.84
602.572	26044.7
602.769	26163.48
602.965	26290.46
603.161	26259.74
603.357	26085.66
603.553	26143
603.75	26026.27
603.946	25889.06
604.142	25907.49
604.338	25700.64
604.534	25839.9
604.73	25551.14
604.926	25524.52
605.122	25534.76
605.318	25217.32
605.514	24918.32
605.71	25286.95
605.906	25166.12
606.102	24971.57
606.298	25260.33
606.494	25137.45
606.69	24852.78
606.886	24697.14
607.082	24611.12
607.278	24922.41
607.474	24355.13
607.67	24662.32
607.866	24430.9
608.062	24482.1
608.257	24521.01
608.453	24459.57
608.649	24510.77
608.845	24215.87
609.041	24209.72
609.236	24017.21
609.432	24135.99
609.628	24289.59
609.824	23972.16
610.019	23781.7
610.215	23845.18
610.411	23959.87
610.606	23767.36
610.802	23775.55
610.998	23447.88
611.193	23746.88
611.389	23548.23
611.584	23494.98
611.78	23101.77
611.976	23533.89
612.171	23509.32
612.367	23693.63
612.562	23169.35
612.758	23089.48
612.953	23345.48
613.149	23322.95
613.344	22894.93
613.539	23400.77
613.735	22989.13
613.93	22841.68
614.126	22972.75
614.321	22890.83
614.517	22849.87
614.712	22688.08
614.907	22720.85
615.103	22849.87
615.298	22696.27
615.493	22974.8
615.688	22382.93
615.884	22835.53
616.079	22231.38
616.274	22415.7
616.47	22229.34
616.665	22704.46
616.86	22110.55
617.055	22223.19
617.25	22114.65
617.445	22407.51
617.641	21649.76
617.836	22139.22
618.031	21817.69
618.226	22073.69
618.421	21778.78
618.616	22337.88
618.811	21571.94
619.006	21756.25
619.201	21459.3
619.396	21291.37
619.591	21094.76
619.786	21649.76
619.981	21342.56
620.176	21277.03
620.371	21078.38
620.566	20814.19
620.761	21066.09
620.956	21164.39
621.151	20494.71
621.346	20771.18
621.541	20345.2
621.735	20582.77
621.93	20296.05
622.125	20416.88
622.32	19990.91
622.515	20150.65
622.709	19706.24
622.904	19732.86
623.099	19622.27
623.294	20074.87
623.488	19528.06
623.683	19657.09
623.878	19227.01
624.072	19415.43
624.267	19585.41
624.462	19155.33
624.656	19046.79
624.851	18925.96
625.046	18794.89
625.24	18907.53
625.435	18551.18
625.629	18590.09
625.824	18534.8
626.018	18434.45
626.213	17994.14
626.407	18229.65
626.602	18012.57
626.796	17908.12
626.991	17856.92
627.185	17504.67
627.38	17703.32
627.574	17435.04
627.768	17471.9
627.963	17344.93
628.157	17064.36
628.352	17183.14
628.546	16972.2
628.74	17117.61
628.935	16832.94
629.129	16734.64
629.323	16830.89
629.517	16630.19
629.712	16630.19
629.906	16454.06
630.1	16370.1
630.294	16232.88
630.489	16077.24
630.683	16259.51
630.877	15854.01
631.071	15841.72
631.265	15856.06
631.459	15823.29
631.653	15579.58
631.848	15544.77
632.042	15319.49
632.236	15542.72
632.43	15399.36
632.624	15391.17
632.818	15272.39
633.012	14952.9
633.206	15112.64
633.4	15020.49
633.594	14830.02
633.788	14901.7
633.982	14739.91
634.176	14809.54
634.369	14498.25
634.563	14426.57
634.757	14438.86
634.951	14408.14
635.145	14340.56
635.339	14375.38
635.533	14211.54
635.726	14103
635.92	13928.92
636.114	14037.46
636.308	14033.36
636.501	13830.62
636.695	13988.31
636.889	13773.27
637.083	13758.94
637.276	13466.08
637.47	13445.6
637.664	13412.83
637.857	13509.08
638.051	13337.06
638.244	13130.21
638.438	13197.79
638.632	13134.31
638.825	12863.97
639.019	13079.01
639.212	12614.12
639.406	13003.24
639.599	12755.43
639.793	12579.31
639.986	12581.35
640.18	12665.32
640.373	12372.46
640.567	12286.45
640.76	12513.77
640.954	12362.22
641.147	12005.88
641.34	12165.62
641.534	12095.99
641.727	11899.38
641.92	12075.51
642.114	11790.84
642.307	11887.09
642.5	11880.95
642.694	11495.93
642.887	11497.98
643.08	11586.04
643.273	11514.36
643.467	11358.72
643.66	11246.08
643.853	11346.43
644.046	11182.59
644.239	11330.05
644.432	11129.34
644.626	11069.95
644.819	10922.5
645.012	11090.43
645.205	10813.96
645.398	11026.95
645.591	10707.46
645.784	10701.32
645.977	10637.83
646.17	10693.13
646.363	10517
646.556	10328.59
646.749	10437.13
646.942	10361.36
647.135	10301.97
647.328	10242.57
647.521	10402.32
647.714	10185.23
647.907	10242.57
648.099	10072.59
648.292	10117.65
648.485	10179.09
648.678	9839.12
648.871	9966.1
649.064	9724.44
649.256	9746.97
649.449	9691.67
649.642	9572.89
649.835	9443.87
650.027	9564.7
650.22	9460.25
650.413	9536.03
650.605	9366.04
650.798	9316.89
650.991	9038.37
651.183	9323.04
651.376	9030.18
651.568	9167.39
651.761	9126.43
651.954	8962.59
652.146	9009.7
652.339	9097.76
652.531	8901.15
652.724	8929.83
652.916	8686.12
653.109	8864.29
653.301	8778.28
653.494	8694.31
653.686	8684.07
653.879	8682.02
654.071	8366.63
654.263	8405.55
654.456	8380.97
654.648	8505.9
654.84	8165.93
655.033	8383.02
655.225	7967.28
655.417	8153.65
655.61	8471.08
655.802	8124.97
655.994	7975.47
656.186	8030.77
656.379	7969.33
656.571	7981.62
656.763	7952.95
656.955	7694.9
657.148	7744.05
657.34	7801.4
657.532	7664.18
657.724	7739.96
657.916	7809.59
658.108	7647.8
658.3	7518.78
658.492	7561.78
658.684	7471.67
658.876	7410.23
659.068	7426.62
659.26	7230.01
659.452	7377.47
659.644	7322.17
659.836	7350.84
660.028	7342.65
660.22	7117.37
660.412	7092.8
660.604	6994.5
660.796	7062.08
660.988	7113.28
661.18	7043.65
661.372	6971.97
661.563	6840.9
661.755	6789.7
661.947	6814.27
662.139	6619.72
662.331	6713.92
662.522	6718.02
662.714	6781.51
662.906	6621.77
663.097	6607.43
663.289	6679.11
663.481	6443.59
663.673	6523.46
663.864	6429.26
664.056	6459.98
664.247	6558.28
664.439	6408.78
664.631	6371.91
664.822	6285.9
665.014	6373.96
665.205	6294.09
665.397	6128.21
665.588	6130.25
665.78	5976.66
665.971	6165.07
666.163	6212.17
666.354	6068.81
666.546	6001.23
666.737	5978.7
666.929	5913.17
667.12	5952.08
667.311	5814.87
667.503	5767.76
667.694	5730.9
667.885	5853.78
668.077	5814.87
668.268	5560.92
668.459	5745.23
668.651	5634.64
668.842	5655.12
669.033	5493.33
669.224	5538.39
669.416	5605.97
669.607	5479
669.798	5419.61
669.989	5622.36
670.18	5263.96
670.371	5458.52
670.563	5425.75
670.754	5610.07
670.945	5372.5
671.136	5206.62
671.327	5331.55
671.518	5249.63
671.709	5079.65
671.9	5366.36
672.091	5184.09
672.282	5165.66
672.473	5104.22
672.664	5022.3
672.855	4991.58
673.046	5128.8
673.237	5016.16
673.428	5077.6
673.619	4991.58
673.809	4926.05
674	4854.37
674.191	4895.33
674.382	4665.96
674.573	4754.02
674.764	4756.07
674.954	4926.05
675.145	4704.87
675.336	4608.61
675.527	4772.45
675.717	4819.55
675.908	4764.26
676.099	4514.41
676.289	4571.75
676.48	4690.53
676.671	4428.39
676.861	4635.24
677.052	4543.08
677.243	4446.82
677.433	4450.92
677.624	4629.09
677.814	4520.55
678.005	4530.79
678.195	4344.42
678.386	4164.2
678.576	4162.16
678.767	4225.64
678.957	4323.94
679.148	4405.86
679.338	4301.42
679.529	4149.87
679.719	4094.57
679.909	4246.12
680.1	4291.18
680.29	4088.43
680.481	4108.91
680.671	4145.77
680.861	4096.62
681.052	4063.85
681.242	4108.91
681.432	4194.92
681.622	4119.15
681.813	3983.98
682.003	4080.24
682.193	3928.69
682.383	4031.09
682.573	3928.69
682.764	3943.02
682.954	3949.17
683.144	3924.59
683.334	3994.22
683.524	4014.7
683.714	3844.72
683.904	3865.2
684.094	3945.07
684.284	3828.34
684.474	3832.43
684.664	3887.73
684.854	3912.3
685.044	3875.44
685.234	3703.41
685.424	3598.96
685.614	3738.23
685.804	3803.76
685.994	3648.11
686.184	3613.3
686.374	3672.69
686.564	3641.97
686.753	3736.18
686.943	3535.48
687.133	3633.78
687.323	3670.64
687.513	3523.19
687.702	3558
687.892	3461.75
688.082	3400.31
688.272	3498.61
688.461	3426.93
688.651	3369.59
688.841	3349.11
689.03	3558
689.22	3304.06
689.41	3453.56
689.599	3363.45
689.789	3381.88
689.979	3299.96
690.168	3357.3
690.358	3259
690.547	3287.67
690.737	3302.01
690.926	3283.58
691.116	3179.13
691.305	3359.35
691.495	3230.33
691.684	3205.75
691.874	3283.58
692.063	3148.41
692.252	3148.41
692.442	3115.64
692.631	3154.55
692.82	3125.88
693.01	3168.89
693.199	3179.13
693.388	3003
693.578	2992.77
693.767	3084.92
693.956	3078.78
694.146	3134.07
694.335	3052.16
694.524	3037.82
694.713	2982.53
694.902	2851.46
695.092	2992.77
695.281	2990.72
695.47	2955.9
695.659	2980.48
695.848	2849.41
696.037	3052.16
696.226	2947.71
696.415	2937.47
696.604	2890.37
696.793	2867.84
696.982	2943.61
697.171	2953.85
697.36	2910.85
697.549	2964.09
697.738	2855.55
697.927	2779.78
698.116	2923.13
698.305	2857.6
698.494	2894.46
698.683	2781.82
698.872	2849.41
699.061	2710.15
699.25	2863.74
699.438	2845.31
699.627	2826.88
699.816	2701.95
700.005	2990.72
700.193	2783.87
700.382	2839.17
700.571	2808.45
700.76	2800.26
700.948	2835.07
701.137	2701.95
701.326	2785.92
701.514	2847.36
701.703	2691.71
701.892	2749.06
702.08	2804.35
702.269	2744.96
702.457	2644.61
702.646	2785.92
702.834	2708.1
703.023	2740.86
703.212	2681.47
703.4	2736.77
703.589	2773.63
703.777	2785.92
703.965	2708.1
704.154	2718.34
704.342	2714.24
704.531	2720.39
704.719	2660.99
704.907	2744.96
705.096	2687.62
705.284	2669.19
705.472	2525.83
705.661	2646.66
705.849	2689.67
706.037	2749.06
706.226	2677.38
706.414	2714.24
706.602	2626.18
706.79	2679.43
706.979	2568.84
707.167	2572.93
707.355	2642.56
707.543	2683.52
707.731	2648.71
707.919	2601.6
708.107	2452.1
708.296	2548.36
708.484	2599.56
708.672	2628.23
708.86	2427.53
709.048	2603.65
709.236	2611.84
709.424	2706.05
709.612	2593.41
709.8	2525.83
709.988	2593.41
710.176	2587.27
710.364	2484.87
710.551	2544.26
710.739	2552.45
710.927	2558.6
711.115	2519.68
711.303	2636.42
711.491	2536.07
711.679	2550.4
711.866	2513.54
712.054	2591.36
712.242	2568.84
712.43	2579.08
712.617	2437.77
712.805	2529.92
712.993	2566.79
713.181	2493.06
713.368	2546.31
713.556	2441.86
713.744	2556.55
713.931	2591.36
714.119	2425.48
714.306	2546.31
714.494	2617.99
714.682	2493.06
714.869	2433.67
715.057	2402.95
715.244	2427.53
715.432	2511.49
715.619	2536.07
715.807	2550.4
715.994	2493.06
716.182	2443.91
716.369	2480.77
716.556	2396.81
716.744	2456.2
716.931	2347.65
717.119	2411.14
717.306	2478.72
717.493	2370.18
717.681	2347.65
717.868	2402.95
718.055	2374.28
718.242	2517.64
718.43	2456.2
718.617	2374.28
718.804	2429.57
718.991	2542.21
719.179	2327.18
719.366	2390.66
719.553	2378.37
719.74	2480.77
719.927	2343.56
720.114	2314.89
720.301	2280.07
720.488	2364.04
720.676	2337.41
720.863	2429.57
721.05	2405
721.237	2431.62
721.424	2333.32
721.611	2300.55
721.798	2263.69
721.985	2353.8
722.172	2333.32
722.358	2286.22
722.545	2409.09
722.732	2310.79
722.919	2370.18
723.106	2253.45
723.293	2257.54
723.48	2413.19
723.667	2353.8
723.853	2271.88
724.04	2308.74
724.227	2247.3
724.414	2333.32
724.6	2263.69
724.787	2173.58
724.974	2232.97
725.161	2251.4
725.347	2263.69
725.534	2286.22
725.72	2329.22
725.907	2407.05
726.094	2235.02
726.28	2257.54
726.467	2132.62
726.653	2232.97
726.84	2249.35
727.027	2370.18
727.213	2228.87
727.4	2388.61
727.586	2284.17
727.773	2155.15
727.959	2341.51
728.145	2296.46
728.332	2087.56
728.518	2140.81
728.705	2118.28
728.891	2108.04
729.077	2310.79
729.264	2230.92
729.45	2302.6
729.636	2105.99
729.823	2204.3
730.009	2189.96
730.195	2288.26
730.382	2108.04
730.568	2087.56
730.754	2140.81
730.94	2140.81
731.126	2161.29
731.313	2181.77
731.499	2159.24
731.685	2194.06
731.871	2237.06
732.057	2163.34
732.243	2132.62
732.429	2036.36
732.615	2204.3
732.801	2163.34
732.987	2167.43
733.173	2118.28
733.359	2124.43
733.545	2124.43
733.731	2071.18
733.917	2044.56
734.103	1958.54
734.289	2101.9
734.475	2134.67
734.661	2132.62
734.847	2136.71
735.033	2200.2
735.219	2069.13
735.404	2052.75
735.59	2052.75
735.776	2062.99
735.962	2048.65
736.148	1962.64
736.333	2079.37
736.519	2054.8
736.705	2038.41
736.89	2046.6
737.076	1993.36
737.262	1919.63
737.447	2110.09
737.633	1913.49
737.819	2140.81
738.004	2026.12
738.19	2071.18
738.375	2042.51
738.561	2181.77
738.747	1933.97
738.932	1909.39
739.118	1974.92
739.303	1968.78
739.489	1938.06
739.674	1927.82
739.859	1976.97
740.045	1839.76
740.23	1976.97
740.416	1850
740.601	1960.59
740.786	1827.47
740.972	1878.67
741.157	1796.75
741.342	1864.33
741.528	1882.77
741.713	1968.78
741.898	1829.52
742.084	1841.81
742.269	1960.59
742.454	1858.19
742.639	1921.68
742.824	1847.95
743.01	1817.23
743.195	1831.57
743.38	1774.22
743.565	1792.66
743.75	1854.09
743.935	1792.66
744.12	1835.66
744.305	1774.22
744.49	1639.06
744.675	1675.92
744.86	1737.36
745.045	1682.07
745.23	1800.85
745.415	1757.84
745.6	1675.92
745.785	1741.46
745.97	1727.12
746.155	1725.07
746.34	1753.74
746.525	1624.72
746.71	1665.68
746.895	1596.05
747.079	1544.85
747.264	1673.87
747.449	1669.78
747.634	1616.53
747.819	1569.43
748.003	1514.13
748.188	1606.29
748.373	1608.34
748.557	1522.32
748.742	1563.28
748.927	1469.08
749.111	1477.27
749.296	1538.71
749.481	1520.28
749.665	1469.08
749.85	1548.95
750.034	1426.07
750.219	1501.84
750.404	1505.94
750.588	1565.33
750.773	1419.93
750.957	1452.69
751.141	1534.61
751.326	1378.97
751.51	1434.26
751.695	1479.32
751.879	1338.01
752.064	1436.31
752.248	1518.23
752.432	1424.02
752.617	1374.87
752.801	1440.4
752.985	1485.46
753.17	1374.87
753.354	1426.07
753.538	1305.24
753.722	1249.94
753.907	1245.85
754.091	1292.95
754.275	1260.18
754.459	1290.9
754.643	1192.6
754.828	1254.04
755.012	1348.25
755.196	1247.9
755.38	1231.51
755.564	1364.63
755.748	1208.98
755.932	1213.08
756.116	1272.47
756.3	1206.94
756.484	1208.98
756.668	1135.26
756.852	1176.22
757.036	1178.26
757.22	1079.96
757.404	1112.73
757.588	1133.21
757.772	1161.88
757.956	1176.22
758.14	1178.26
758.323	1084.06
758.507	1079.96
758.691	1153.69
758.875	1106.59
759.059	1149.59
759.242	1116.83
759.426	1125.02
759.61	1047.19
759.794	1098.39
759.977	1043.1
760.161	1084.06
760.345	1157.78
760.528	998.04
760.712	1061.53
760.895	1100.44
761.079	1067.67
761.263	1075.87
761.446	963.23
761.63	1030.81
761.813	1041.05
761.997	1059.48
762.18	1039
762.364	1036.95
762.547	979.61
762.731	1014.43
762.914	854.69
763.098	981.66
763.281	1096.35
763.464	975.52
763.648	985.76
763.831	989.85
764.015	989.85
764.198	916.12
764.381	993.95
764.564	944.8
764.748	985.76
764.931	944.8
765.114	918.17
765.297	989.85
765.481	901.79
765.664	907.93
765.847	932.51
766.03	1018.52
766.213	963.23
766.397	893.6
766.58	922.27
766.763	871.07
766.946	981.66
767.129	838.3
767.312	846.49
767.495	879.26
767.678	848.54
767.861	916.12
768.044	932.51
768.227	952.99
768.41	860.83
768.593	893.6
768.776	846.49
768.959	948.89
769.142	918.17
769.324	742.05
769.507	979.61
769.69	864.93
769.873	895.64
770.056	903.84
770.239	823.97
770.421	805.53
770.604	932.51
770.787	799.39
770.97	807.58
771.152	881.31
771.335	840.35
771.518	742.05
771.7	891.55
771.883	887.45
772.066	854.69
772.248	842.4
772.431	756.38
772.613	750.24
772.796	860.83
772.978	846.49
773.161	793.25
773.343	842.4
773.526	746.14
773.708	729.76
773.891	746.14
774.073	690.85
774.256	729.76
774.438	760.48
774.621	789.15
774.803	715.42
774.985	760.48
775.168	717.47
775.35	801.44
775.532	758.43
775.715	719.52
775.897	692.9
776.079	715.42
776.261	748.19
776.444	725.66
776.626	705.18
776.808	703.14
776.99	610.98
777.173	686.75
777.355	707.23
777.537	651.94
777.719	696.99
777.901	658.08
778.083	674.46
778.265	703.14
778.447	633.51
778.629	680.61
778.811	721.57
778.993	660.13
779.175	643.74
779.357	602.79
779.539	590.5
779.721	684.7
779.903	664.22
780.085	592.55
780.267	596.64
780.449	639.65
780.631	608.93
780.812	582.31
780.994	641.7
781.176	578.21
781.358	617.12
781.54	547.49
781.721	674.46
781.903	502.43
782.085	617.12
782.267	467.62
782.448	512.67
782.63	656.03
782.812	578.21
782.993	531.11
783.175	533.15
783.357	524.96
783.538	518.82
783.72	508.58
783.901	512.67
784.083	553.63
784.264	469.67
784.446	453.28
784.627	524.96
784.809	524.96
784.99	488.1
785.172	531.11
785.353	539.3
785.535	467.62
785.716	424.61
785.897	475.81
786.079	481.96
786.26	496.29
786.441	576.16
786.623	369.32
786.804	543.39
786.985	414.37
787.167	469.67
787.348	397.99
787.529	441
787.71	498.34
787.891	453.28
788.073	428.71
788.254	486.05
788.435	414.37
788.616	414.37
788.797	510.63
788.978	340.65
789.159	397.99
789.34	496.29
789.522	346.79
789.703	342.69
789.884	438.95
790.065	357.03
790.246	473.76
790.427	357.03
790.607	365.22
790.788	363.17
790.969	363.17
791.15	412.32
791.331	404.13
791.512	311.97
791.693	326.31
791.874	443.04
792.054	359.08
792.235	406.18
792.416	293.54
792.597	268.97
792.778	338.6
792.958	350.89
793.139	373.41
793.32	367.27
793.5	256.68
793.681	348.84
793.862	301.73
794.042	297.64
794.223	281.25
794.404	322.21
794.584	305.83
794.765	346.79
794.945	373.41
795.126	258.73
795.306	332.45
795.487	330.41
795.667	305.83
795.848	309.93
796.028	281.25
796.209	262.82
796.389	438.95
796.57	301.73
796.75	252.58
796.93	271.01
797.111	266.92
797.291	248.49
797.471	334.5
797.652	258.73
797.832	236.2
798.012	359.08
798.192	256.68
798.373	219.82
798.553	283.3
798.733	330.41
798.913	275.11
799.093	342.69
799.274	271.01
799.454	260.77
799.634	279.21
799.814	291.49
799.994	297.64
800.174	219.82
800.354	223.91
800.534	260.77
800.714	279.21
800.894	305.83
801.074	293.54
801.254	234.15
801.434	258.73
801.614	213.67
801.794	217.77
801.974	688.8
802.154	199.34
802.334	244.39
802.514	156.33
802.693	244.39
802.873	314.02
803.053	258.73
803.233	258.73
803.413	199.34
803.592	240.3
803.772	164.52
803.952	221.86
804.131	178.86
804.311	199.34
804.491	205.48
804.67	201.38
804.85	250.53
805.03	262.82
805.209	309.93
805.389	256.68
805.568	240.3
805.748	174.76
805.928	219.82
806.107	248.49
806.287	217.77
806.466	281.25
806.646	252.58
806.825	236.2
807.004	170.66
807.184	182.95
807.363	307.88
807.543	248.49
807.722	129.7
807.901	205.48
808.081	195.24
808.26	174.76
808.439	203.43
808.619	193.19
808.798	137.9
808.977	199.34
809.156	213.67
809.336	178.86
809.515	232.1
809.694	180.9
809.873	180.9
810.052	187.05
810.231	236.2
810.411	129.7
810.59	256.68
810.769	154.28
810.948	201.38
811.127	115.37
811.306	228.01
811.485	215.72
811.664	215.72
811.843	211.62
812.022	180.9
812.201	203.43
812.38	248.49
812.559	101.03
812.737	166.57
812.916	105.13
813.095	185
813.274	201.38
813.453	160.42
813.632	238.25
813.811	213.67
813.989	150.18
814.168	109.23
814.347	156.33
814.526	135.85
814.704	256.68
814.883	248.49
815.062	133.8
815.24	162.47
815.419	139.94
815.598	228.01
815.776	174.76
815.955	176.81
816.133	228.01
816.312	137.9
816.49	141.99
816.669	172.71
816.847	146.09
817.026	160.42
817.204	127.66
817.383	160.42
817.561	90.79
817.74	125.61
817.918	217.77
818.097	101.03
818.275	86.7
818.453	158.38
818.632	166.57
818.81	223.91
818.988	105.13
819.167	80.55
819.345	182.95
819.523	107.18
819.701	139.94
819.879	189.1
820.058	78.51
820.236	109.23
820.414	133.8
820.592	129.7
820.77	84.65
820.948	82.6
821.127	90.79
821.305	150.18
821.483	123.56
821.661	68.27
821.839	96.94
822.017	115.37
822.195	135.85
822.373	180.9
822.551	113.32
822.729	96.94
822.907	168.62
823.085	174.76
823.262	160.42
823.44	125.61
823.618	51.88
823.796	178.86
823.974	96.94
824.152	103.08
824.329	47.79
824.507	133.8
824.685	64.17
824.863	119.46
825.04	111.27
825.218	84.65
825.396	103.08
825.574	98.99
825.751	35.5
825.929	131.75
826.107	101.03
826.284	137.9
826.462	150.18
826.639	123.56
826.817	70.31
826.994	111.27
827.172	115.37
827.349	107.18
827.527	80.55
827.704	82.6
827.882	187.05
828.059	94.89
828.237	98.99
828.414	133.8
828.591	103.08
828.769	101.03
828.946	103.08
829.124	84.65
829.301	137.9
829.478	64.17
829.655	72.36
829.833	55.98
830.01	74.41
830.187	111.27
830.364	119.46
830.542	137.9
830.719	113.32
830.896	101.03
831.073	115.37
831.25	68.27
831.427	156.33
831.604	117.42
831.782	96.94
831.959	84.65
832.136	113.32
832.313	76.46
832.49	68.27
832.667	43.69
832.844	82.6
833.021	146.09
833.198	144.04
833.374	121.51
833.551	86.7
833.728	113.32
833.905	51.88
834.082	23.21
834.259	51.88
834.436	144.04
834.612	-21.84
834.789	103.08
834.966	45.74
835.143	117.42
835.319	74.41
835.496	84.65
835.673	51.88
835.85	70.31
836.026	92.84
836.203	139.94
836.38	31.4
836.556	98.99
836.733	55.98
836.909	172.71
837.086	23.21
837.262	84.65
837.439	2.73
837.616	43.69
837.792	94.89
837.968	92.84
838.145	82.6
838.321	35.5
838.498	90.79
838.674	94.89
838.851	-5.46
839.027	43.69
839.203	39.59
839.38	109.23
839.556	37.55
839.732	111.27
839.909	137.9
840.085	92.84
840.261	98.99
840.437	148.14
840.614	53.93
840.79	29.35
840.966	37.55
841.142	45.74
841.318	154.28
841.494	86.7
841.671	68.27
841.847	29.35
842.023	-13.65
842.199	62.12
842.375	92.84
842.551	15.02
842.727	51.88
842.903	88.75
843.079	25.26
843.255	82.6
843.431	31.4
843.607	90.79
843.783	27.31
843.959	133.8
844.134	31.4
844.31	31.4
844.486	-83.28
844.662	62.12
844.838	43.69
845.013	123.56
845.189	43.69
845.365	8.87
845.541	12.97
845.716	86.7
845.892	60.07
846.068	35.5
846.244	27.31
846.419	45.74
846.595	25.26
846.77	0.68
846.946	92.84
847.122	76.46
847.297	47.79
847.473	47.79
847.648	58.03
847.824	64.17
847.999	21.16
848.175	78.51
848.35	53.93
848.526	12.97
848.701	84.65
848.876	49.83
849.052	103.08
849.227	123.56
849.403	94.89
849.578	8.87
849.753	101.03
849.929	76.46
850.104	12.97
850.279	37.55
850.454	33.45
850.63	74.41
850.805	101.03
850.98	78.51
851.155	47.79
851.33	111.27
851.505	19.11
851.681	23.21
851.856	49.83
852.031	25.26
852.206	23.21
852.381	76.46
852.556	4.78
852.731	68.27
852.906	80.55
853.081	-1.37
853.256	-23.89
853.431	76.46
853.606	66.22
853.781	-5.46
853.956	-13.65
854.131	64.17
854.305	19.11
854.48	119.46
854.655	96.94
854.83	2.73
855.005	76.46
855.18	0.68
855.354	39.59
855.529	98.99
855.704	60.07
855.879	10.92
856.053	-38.23
856.228	45.74
856.403	33.45
856.577	53.93
856.752	70.31
856.926	86.7
857.101	101.03
857.276	43.69
857.45	90.79
857.625	84.65
857.799	55.98
857.974	80.55
858.148	2.73
858.323	29.35
858.497	27.31
858.672	-5.46
858.846	45.74
859.02	47.79
859.195	43.69
859.369	19.11
859.543	-32.08
859.718	39.59
859.892	2.73
860.066	-5.46
860.241	-9.56
860.415	4.78
860.589	23.21
860.763	0.68
860.938	76.46
861.112	84.65
861.286	10.92
861.46	53.93
861.634	41.64
861.808	88.75
861.982	58.03
862.157	10.92
862.331	53.93
862.505	39.59
862.679	53.93
862.853	35.5
863.027	10.92
863.201	109.23
863.375	-64.85
863.549	49.83
863.722	51.88
863.896	53.93
864.07	-13.65
864.244	125.61
864.418	41.64
864.592	45.74
864.766	0.68
864.939	66.22
865.113	43.69
865.287	2.73
865.461	45.74
865.634	60.07
865.808	-19.8
865.982	64.17
866.156	-34.13
866.329	-36.18
866.503	33.45
866.676	51.88
866.85	8.87
867.024	27.31
867.197	84.65
867.371	131.75
867.544	12.97
867.718	43.69
867.891	78.51
868.065	-17.75
868.238	47.79
868.412	80.55
868.585	2.73
868.759	10.92
868.932	-11.61
869.105	53.93
869.279	4.78
869.452	0.68
869.625	45.74
869.799	94.89
869.972	68.27
870.145	49.83
870.319	29.35
870.492	-17.75
870.665	2.73
870.838	103.08
871.011	-36.18
871.185	72.36
871.358	-1.37
871.531	49.83
871.704	66.22
871.877	101.03
872.05	-9.56
872.223	78.51
872.396	51.88
872.569	31.4
872.742	10.92
872.915	33.45
873.088	55.98
873.261	62.12
873.434	51.88
873.607	33.45
873.78	27.31
873.953	47.79
874.126	-9.56
874.299	62.12
874.471	72.36
874.644	10.92
874.817	45.74
874.99	15.02
875.163	-9.56
875.335	-5.46
875.508	37.55
875.681	101.03
875.853	64.17
876.026	8.87
876.199	-17.75
876.371	25.26
876.544	-1.37
876.717	45.74
876.889	43.69
877.062	-54.61
877.234	-30.04
877.407	-44.37
877.579	27.31
877.752	41.64
877.924	-46.42
878.097	41.64
878.269	70.31
878.442	86.7
878.614	76.46
878.786	70.31
878.959	-56.66
879.131	154.28
879.303	51.88
879.476	133.8
879.648	19.11
879.82	-7.51
879.993	17.07
880.165	27.31
880.337	37.55
880.509	2.73
880.681	-17.75
880.854	-30.04
881.026	74.41
881.198	94.89
881.37	27.31
881.542	10.92
881.714	12.97
881.886	68.27
882.058	39.59
882.23	29.35
882.402	-5.46
882.574	21.16
882.746	60.07
882.918	72.36
883.09	80.55
883.262	-77.14
883.434	66.22
883.606	45.74
883.778	-13.65
883.95	66.22
884.122	2.73
884.293	86.7
884.465	55.98
884.637	29.35
884.809	27.31
884.98	37.55
885.152	-3.41
885.324	6.83
885.496	33.45
885.667	19.11
885.839	-21.84
886.011	60.07
886.182	19.11
886.354	76.46
886.525	31.4
886.697	-27.99
886.869	39.59
887.04	-5.46
887.212	53.93
887.383	43.69
887.555	43.69
887.726	-11.61
887.897	15.02
888.069	25.26
888.24	58.03
888.412	45.74
888.583	21.16
888.754	4.78
888.926	10.92
889.097	2.73
889.268	35.5
889.44	-9.56
889.611	43.69
889.782	-25.94
889.953	29.35
890.125	-11.61
890.296	29.35
890.467	47.79
890.638	10.92
890.809	-30.04
890.98	70.31
891.151	37.55
891.323	8.87
891.494	10.92
891.665	-19.8
891.836	2.73
892.007	-21.84
892.178	-54.61
892.349	62.12
892.52	82.6
892.691	31.4
892.862	-17.75
893.032	21.16
893.203	-5.46
893.374	39.59
893.545	37.55
893.716	-11.61
893.887	31.4
894.057	39.59
894.228	86.7
894.399	-58.71
894.57	49.83
894.74	53.93
894.911	10.92
895.082	-9.56
895.253	-30.04
895.423	-5.46
895.594	92.84
895.764	60.07
895.935	0.68
896.106	76.46
896.276	27.31
896.447	84.65
896.617	8.87
896.788	17.07
896.958	29.35
897.129	-13.65
897.299	45.74
897.47	92.84
897.64	107.18
897.81	-42.32
897.981	-34.13
898.151	33.45
898.322	2.73
898.492	-11.61
898.662	12.97
898.832	6.83
899.003	39.59
899.173	8.87
899.343	60.07
899.513	-19.8
