Data from USB4F104151__6__13-10-09-068.txt Node

Date: Fri Mar 14 13:10:09 EDT 2025
User: louis
Spectrometer: USB4F10415
Trigger mode: 4
Integration Time (sec): 2.000000E-2
Scans to average: 1
Electric dark correction enabled: true
Nonlinearity correction enabled: false
Boxcar width: 0
XAxis mode: Wavelengths
Number of Pixels in Spectrum: 3648
>>>>>Begin Spectral Data<<<<<
178.204	-53.08
178.424	-53.08
178.644	-53.08
178.864	-94.04
179.084	-69.46
179.304	14.51
179.524	14.51
179.744	12.46
179.964	24.75
180.184	-16.21
180.404	-5.97
180.624	12.46
180.844	-14.17
181.064	-38.74
181.283	-22.36
181.503	-44.88
181.723	63.66
181.943	-63.32
182.163	82.09
182.383	53.42
182.602	34.99
182.822	92.33
183.042	106.67
183.262	26.79
183.482	-16.21
183.701	49.32
183.921	59.56
184.141	-24.4
184.361	80.04
184.58	45.23
184.8	84.14
185.02	51.37
185.239	121
185.459	51.37
185.679	67.75
185.898	37.03
186.118	86.19
186.338	24.75
186.557	118.95
186.777	6.31
186.997	-65.36
187.216	26.79
187.436	43.18
187.655	61.61
187.875	43.18
188.095	34.99
188.314	14.51
188.534	43.18
188.753	39.08
188.973	45.23
189.192	73.9
189.412	-5.97
189.631	-61.27
189.851	-1.88
190.07	51.37
190.29	43.18
190.509	12.46
190.729	8.36
190.948	98.47
191.168	80.04
191.387	102.57
191.607	47.27
191.826	10.41
192.045	26.79
192.265	71.85
192.484	71.85
192.704	24.75
192.923	75.95
193.142	92.33
193.362	57.51
193.581	80.04
193.8	41.13
194.02	114.86
194.239	139.43
194.458	100.52
194.678	-10.07
194.897	61.61
195.116	-38.74
195.335	51.37
195.555	10.41
195.774	67.75
195.993	30.89
196.212	22.7
196.432	51.37
196.651	65.71
196.87	32.94
197.089	75.95
197.308	75.95
197.528	30.89
197.747	-10.07
197.966	6.31
198.185	116.9
198.404	34.99
198.623	10.41
198.842	12.46
199.062	149.67
199.281	55.47
199.5	71.85
199.719	59.56
199.938	90.28
200.157	53.42
200.376	20.65
200.595	51.37
200.814	8.36
201.033	51.37
201.252	92.33
201.471	26.79
201.69	-3.93
201.909	28.84
202.128	51.37
202.347	18.6
202.566	0.17
202.785	-18.26
203.004	-34.64
203.223	73.9
203.442	51.37
203.661	67.75
203.879	6.31
204.098	51.37
204.317	0.17
204.536	-3.93
204.755	84.14
204.974	75.95
205.193	-40.79
205.411	131.24
205.63	-38.74
205.849	20.65
206.068	-38.74
206.287	53.42
206.505	57.51
206.724	18.6
206.943	37.03
207.162	39.08
207.381	-30.55
207.599	-3.93
207.818	18.6
208.037	14.51
208.255	14.51
208.474	14.51
208.693	55.47
208.911	12.46
209.13	69.8
209.349	121
209.567	24.75
209.786	133.29
210.005	49.32
210.223	37.03
210.442	20.65
210.661	26.79
210.879	57.51
211.098	-3.93
211.316	41.13
211.535	121
211.753	-1.88
211.972	-3.93
212.191	26.79
212.409	34.99
212.628	-3.93
212.846	-12.12
213.065	34.99
213.283	141.48
213.502	-5.97
213.72	-51.03
213.938	-20.31
214.157	-5.97
214.375	65.71
214.594	32.94
214.812	12.46
215.031	110.76
215.249	4.27
215.467	67.75
215.686	0.17
215.904	20.65
216.122	45.23
216.341	75.95
216.559	43.18
216.778	28.84
216.996	-3.93
217.214	53.42
217.432	-28.5
217.651	39.08
217.869	26.79
218.087	10.41
218.306	-55.12
218.524	6.31
218.742	-18.26
218.96	28.84
219.179	-26.45
219.397	45.23
219.615	69.8
219.833	69.8
220.051	-3.93
220.27	129.19
220.488	41.13
220.706	84.14
220.924	131.24
221.142	10.41
221.36	8.36
221.578	43.18
221.796	63.66
222.015	57.51
222.233	41.13
222.451	30.89
222.669	-36.69
222.887	41.13
223.105	-5.97
223.323	39.08
223.541	-10.07
223.759	28.84
223.977	32.94
224.195	28.84
224.413	32.94
224.631	51.37
224.849	84.14
225.067	96.43
225.285	116.9
225.503	-26.45
225.721	24.75
225.939	59.56
226.157	71.85
226.375	98.47
226.592	59.56
226.81	4.27
227.028	63.66
227.246	108.71
227.464	10.41
227.682	90.28
227.9	53.42
228.117	26.79
228.335	41.13
228.553	14.51
228.771	14.51
228.989	84.14
229.206	53.42
229.424	4.27
229.642	41.13
229.86	-5.97
230.077	69.8
230.295	116.9
230.513	34.99
230.731	-5.97
230.948	133.29
231.166	57.51
231.384	92.33
231.601	10.41
231.819	30.89
232.037	6.31
232.254	41.13
232.472	47.27
232.689	94.38
232.907	14.51
233.125	94.38
233.342	32.94
233.56	-12.12
233.777	-1.88
233.995	69.8
234.213	26.79
234.43	-10.07
234.648	-10.07
234.865	73.9
235.083	75.95
235.3	6.31
235.518	-5.97
235.735	75.95
235.953	75.95
236.17	73.9
236.388	41.13
236.605	16.55
236.822	77.99
237.04	26.79
237.257	55.47
237.475	14.51
237.692	94.38
237.909	49.32
238.127	-75.6
238.344	67.75
238.562	67.75
238.779	-1.88
238.996	-16.21
239.214	67.75
239.431	14.51
239.648	4.27
239.865	34.99
240.083	41.13
240.3	32.94
240.517	47.27
240.735	18.6
240.952	39.08
241.169	16.55
241.386	45.23
241.603	37.03
241.821	41.13
242.038	69.8
242.255	59.56
242.472	67.75
242.689	2.22
242.907	67.75
243.124	57.51
243.341	59.56
243.558	100.52
243.775	6.31
243.992	43.18
244.209	12.46
244.426	-24.4
244.643	30.89
244.86	41.13
245.078	-5.97
245.295	8.36
245.512	-34.64
245.729	-44.88
245.946	28.84
246.163	67.75
246.38	26.79
246.597	-26.45
246.814	28.84
247.031	6.31
247.248	39.08
247.464	22.7
247.681	32.94
247.898	61.61
248.115	84.14
248.332	-89.94
248.549	14.51
248.766	69.8
248.983	82.09
249.2	59.56
249.417	-18.26
249.633	2.22
249.85	53.42
250.067	18.6
250.284	67.75
250.501	24.75
250.717	41.13
250.934	0.17
251.151	65.71
251.368	43.18
251.585	57.51
251.801	26.79
252.018	26.79
252.235	26.79
252.451	-10.07
252.668	-18.26
252.885	34.99
253.102	55.47
253.318	43.18
253.535	24.75
253.752	67.75
253.968	-20.31
254.185	41.13
254.401	98.47
254.618	90.28
254.835	20.65
255.051	43.18
255.268	94.38
255.484	59.56
255.701	-48.98
255.917	86.19
256.134	43.18
256.351	61.61
256.567	-8.02
256.784	135.34
257	32.94
257.217	61.61
257.433	45.23
257.65	86.19
257.866	-3.93
258.082	18.6
258.299	-5.97
258.515	110.76
258.732	10.41
258.948	84.14
259.165	96.43
259.381	-10.07
259.597	82.09
259.814	59.56
260.03	55.47
260.246	53.42
260.463	84.14
260.679	90.28
260.895	24.75
261.112	34.99
261.328	12.46
261.544	-53.08
261.761	94.38
261.977	90.28
262.193	14.51
262.409	63.66
262.626	-12.12
262.842	20.65
263.058	51.37
263.274	26.79
263.49	18.6
263.707	26.79
263.923	18.6
264.139	65.71
264.355	-8.02
264.571	100.52
264.787	61.61
265.004	135.34
265.22	26.79
265.436	88.23
265.652	2.22
265.868	32.94
266.084	6.31
266.3	55.47
266.516	18.6
266.732	-1.88
266.948	28.84
267.164	18.6
267.38	32.94
267.596	34.99
267.812	84.14
268.028	18.6
268.244	16.55
268.46	61.61
268.676	12.46
268.892	41.13
269.108	55.47
269.324	20.65
269.54	71.85
269.756	20.65
269.972	55.47
270.188	43.18
270.403	-34.64
270.619	53.42
270.835	34.99
271.051	73.9
271.267	-8.02
271.483	28.84
271.698	20.65
271.914	-14.17
272.13	80.04
272.346	-14.17
272.562	55.47
272.777	30.89
272.993	-16.21
273.209	125.1
273.425	59.56
273.64	32.94
273.856	92.33
274.072	-12.12
274.287	41.13
274.503	18.6
274.719	51.37
274.934	92.33
275.15	4.27
275.366	-30.55
275.581	14.51
275.797	37.03
276.012	18.6
276.228	118.95
276.444	8.36
276.659	10.41
276.875	41.13
277.09	53.42
277.306	10.41
277.521	84.14
277.737	12.46
277.952	53.42
278.168	26.79
278.383	106.67
278.599	41.13
278.814	98.47
279.03	20.65
279.245	96.43
279.461	67.75
279.676	24.75
279.892	34.99
280.107	45.23
280.322	14.51
280.538	32.94
280.753	77.99
280.969	53.42
281.184	-44.88
281.399	80.04
281.615	-38.74
281.83	102.57
282.045	61.61
282.26	18.6
282.476	69.8
282.691	63.66
282.906	37.03
283.122	86.19
283.337	18.6
283.552	24.75
283.767	47.27
283.983	16.55
284.198	0.17
284.413	10.41
284.628	-22.36
284.843	-8.02
285.058	20.65
285.274	-53.08
285.489	-22.36
285.704	-3.93
285.919	98.47
286.134	20.65
286.349	20.65
286.564	-5.97
286.779	4.27
286.995	10.41
287.21	4.27
287.425	125.1
287.64	26.79
287.855	14.51
288.07	28.84
288.285	84.14
288.5	51.37
288.715	49.32
288.93	-10.07
289.145	57.51
289.36	30.89
289.575	34.99
289.79	24.75
290.004	-36.69
290.219	37.03
290.434	61.61
290.649	-36.69
290.864	-5.97
291.079	-10.07
291.294	61.61
291.509	12.46
291.724	67.75
291.938	-18.26
292.153	63.66
292.368	67.75
292.583	37.03
292.798	104.62
293.012	39.08
293.227	18.6
293.442	26.79
293.657	137.38
293.871	67.75
294.086	69.8
294.301	153.77
294.516	127.14
294.73	61.61
294.945	-30.55
295.16	-12.12
295.374	77.99
295.589	88.23
295.804	39.08
296.018	-3.93
296.233	22.7
296.447	116.9
296.662	24.75
296.877	118.95
297.091	45.23
297.306	18.6
297.52	14.51
297.735	80.04
297.949	-3.93
298.164	28.84
298.378	12.46
298.593	59.56
298.807	67.75
299.022	47.27
299.236	94.38
299.451	22.7
299.665	45.23
299.88	-8.02
300.094	92.33
300.309	-12.12
300.523	51.37
300.737	12.46
300.952	69.8
301.166	24.75
301.381	59.56
301.595	-10.07
301.809	45.23
302.024	6.31
302.238	20.65
302.452	100.52
302.667	28.84
302.881	49.32
303.095	73.9
303.309	106.67
303.524	16.55
303.738	100.52
303.952	26.79
304.166	47.27
304.381	41.13
304.595	84.14
304.809	34.99
305.023	-46.93
305.237	77.99
305.452	49.32
305.666	67.75
305.88	63.66
306.094	47.27
306.308	22.7
306.522	30.89
306.736	57.51
306.95	2.22
307.164	14.51
307.379	37.03
307.593	57.51
307.807	63.66
308.021	30.89
308.235	47.27
308.449	98.47
308.663	53.42
308.877	82.09
309.091	6.31
309.305	125.1
309.519	-89.94
309.733	98.47
309.947	-69.46
310.161	43.18
310.374	63.66
310.588	61.61
310.802	43.18
311.016	41.13
311.23	108.71
311.444	69.8
311.658	37.03
311.872	43.18
312.085	63.66
312.299	90.28
312.513	26.79
312.727	137.38
312.941	-22.36
313.154	-10.07
313.368	59.56
313.582	22.7
313.796	6.31
314.009	53.42
314.223	84.14
314.437	37.03
314.651	118.95
314.864	26.79
315.078	61.61
315.292	26.79
315.505	30.89
315.719	77.99
315.933	34.99
316.146	88.23
316.36	59.56
316.573	39.08
316.787	43.18
317.001	34.99
317.214	34.99
317.428	96.43
317.641	-1.88
317.855	34.99
318.068	28.84
318.282	26.79
318.495	77.99
318.709	22.7
318.922	16.55
319.136	61.61
319.349	92.33
319.563	51.37
319.776	26.79
319.99	67.75
320.203	-34.64
320.417	129.19
320.63	61.61
320.843	61.61
321.057	20.65
321.27	63.66
321.483	12.46
321.697	88.23
321.91	65.71
322.124	53.42
322.337	20.65
322.55	28.84
322.763	92.33
322.977	-5.97
323.19	-36.69
323.403	-55.12
323.617	53.42
323.83	47.27
324.043	34.99
324.256	127.14
324.469	-34.64
324.683	32.94
324.896	43.18
325.109	77.99
325.322	28.84
325.535	22.7
325.748	30.89
325.962	51.37
326.175	34.99
326.388	118.95
326.601	84.14
326.814	80.04
327.027	8.36
327.24	39.08
327.453	6.31
327.666	37.03
327.879	43.18
328.092	75.95
328.305	75.95
328.518	149.67
328.731	65.71
328.944	2.22
329.157	24.75
329.37	34.99
329.583	34.99
329.796	94.38
330.009	34.99
330.222	57.51
330.435	45.23
330.648	6.31
330.861	24.75
331.073	116.9
331.286	57.51
331.499	67.75
331.712	-14.17
331.925	32.94
332.138	45.23
332.35	57.51
332.563	151.72
332.776	10.41
332.989	2.22
333.202	67.75
333.414	43.18
333.627	80.04
333.84	43.18
334.053	51.37
334.265	34.99
334.478	18.6
334.691	88.23
334.903	4.27
335.116	63.66
335.329	43.18
335.541	30.89
335.754	80.04
335.966	94.38
336.179	-22.36
336.392	61.61
336.604	104.62
336.817	10.41
337.029	30.89
337.242	39.08
337.454	6.31
337.667	28.84
337.88	39.08
338.092	82.09
338.305	118.95
338.517	41.13
338.729	20.65
338.942	69.8
339.154	51.37
339.367	-44.88
339.579	59.56
339.792	43.18
340.004	123.05
340.217	18.6
340.429	28.84
340.641	53.42
340.854	-5.97
341.066	-36.69
341.278	2.22
341.491	141.48
341.703	24.75
341.915	45.23
342.128	51.37
342.34	30.89
342.552	69.8
342.764	106.67
342.977	100.52
343.189	39.08
343.401	59.56
343.613	4.27
343.826	28.84
344.038	-22.36
344.25	90.28
344.462	69.8
344.674	26.79
344.886	82.09
345.099	-14.17
345.311	-38.74
345.523	45.23
345.735	-10.07
345.947	59.56
346.159	55.47
346.371	30.89
346.583	10.41
346.795	43.18
347.007	18.6
347.219	176.3
347.431	82.09
347.643	108.71
347.855	26.79
348.067	63.66
348.279	67.75
348.491	12.46
348.703	20.65
348.915	-42.84
349.127	-63.32
349.339	14.51
349.551	10.41
349.763	55.47
349.975	22.7
350.187	137.38
350.399	94.38
350.61	47.27
350.822	4.27
351.034	75.95
351.246	63.66
351.458	22.7
351.669	39.08
351.881	116.9
352.093	51.37
352.305	80.04
352.517	34.99
352.728	73.9
352.94	43.18
353.152	55.47
353.363	30.89
353.575	-3.93
353.787	96.43
353.999	71.85
354.21	34.99
354.422	32.94
354.633	39.08
354.845	106.67
355.057	55.47
355.268	-5.97
355.48	53.42
355.692	63.66
355.903	4.27
356.115	32.94
356.326	-26.45
356.538	14.51
356.749	75.95
356.961	-24.4
357.172	-1.88
357.384	12.46
357.595	82.09
357.807	73.9
358.018	67.75
358.23	100.52
358.441	77.99
358.653	104.62
358.864	51.37
359.075	57.51
359.287	75.95
359.498	55.47
359.709	110.76
359.921	22.7
360.132	28.84
360.344	20.65
360.555	37.03
360.766	45.23
360.977	41.13
361.189	16.55
361.4	18.6
361.611	22.7
361.823	61.61
362.034	34.99
362.245	12.46
362.456	37.03
362.667	59.56
362.879	-10.07
363.09	108.71
363.301	32.94
363.512	22.7
363.723	28.84
363.935	55.47
364.146	86.19
364.357	94.38
364.568	26.79
364.779	-1.88
364.99	65.71
365.201	84.14
365.412	84.14
365.623	43.18
365.834	98.47
366.045	106.67
366.256	61.61
366.467	47.27
366.678	39.08
366.889	166.06
367.1	22.7
367.311	67.75
367.522	75.95
367.733	45.23
367.944	133.29
368.155	30.89
368.366	41.13
368.577	168.1
368.788	37.03
368.999	18.6
369.209	59.56
369.42	102.57
369.631	71.85
369.842	82.09
370.053	92.33
370.264	98.47
370.474	61.61
370.685	84.14
370.896	53.42
371.107	45.23
371.317	20.65
371.528	71.85
371.739	16.55
371.95	55.47
372.16	86.19
372.371	51.37
372.582	14.51
372.792	59.56
373.003	55.47
373.214	59.56
373.424	24.75
373.635	-3.93
373.846	59.56
374.056	26.79
374.267	26.79
374.477	2.22
374.688	69.8
374.898	47.27
375.109	59.56
375.319	28.84
375.53	18.6
375.74	84.14
375.951	14.51
376.161	88.23
376.372	10.41
376.582	28.84
376.793	51.37
377.003	65.71
377.214	-1.88
377.424	30.89
377.635	67.75
377.845	12.46
378.055	143.53
378.266	65.71
378.476	-26.45
378.686	49.32
378.897	-12.12
379.107	102.57
379.317	86.19
379.528	10.41
379.738	53.42
379.948	-57.17
380.158	-12.12
380.369	43.18
380.579	59.56
380.789	49.32
380.999	110.76
381.21	51.37
381.42	84.14
381.63	-10.07
381.84	63.66
382.05	22.7
382.261	104.62
382.471	112.81
382.681	59.56
382.891	77.99
383.101	127.14
383.311	22.7
383.521	51.37
383.731	53.42
383.941	96.43
384.151	71.85
384.361	112.81
384.571	26.79
384.781	108.71
384.991	123.05
385.201	125.1
385.411	61.61
385.621	161.96
385.831	39.08
386.041	55.47
386.251	51.37
386.461	92.33
386.671	32.94
386.881	55.47
387.091	26.79
387.301	-5.97
387.511	-67.41
387.72	94.38
387.93	43.18
388.14	55.47
388.35	69.8
388.56	51.37
388.769	77.99
388.979	82.09
389.189	34.99
389.399	47.27
389.609	30.89
389.818	149.67
390.028	77.99
390.238	45.23
390.447	18.6
390.657	39.08
390.867	61.61
391.076	98.47
391.286	65.71
391.496	84.14
391.705	57.51
391.915	100.52
392.125	61.61
392.334	65.71
392.544	61.61
392.753	100.52
392.963	80.04
393.172	55.47
393.382	69.8
393.591	34.99
393.801	34.99
394.01	125.1
394.22	92.33
394.429	45.23
394.639	61.61
394.848	108.71
395.058	49.32
395.267	71.85
395.477	102.57
395.686	92.33
395.895	84.14
396.105	161.96
396.314	188.58
396.524	47.27
396.733	151.72
396.942	53.42
397.152	77.99
397.361	82.09
397.57	92.33
397.78	84.14
397.989	129.19
398.198	127.14
398.407	61.61
398.617	30.89
398.826	75.95
399.035	127.14
399.244	118.95
399.453	100.52
399.663	84.14
399.872	137.38
400.081	67.75
400.29	34.99
400.499	98.47
400.708	166.06
400.917	67.75
401.127	96.43
401.336	69.8
401.545	153.77
401.754	71.85
401.963	88.23
402.172	127.14
402.381	94.38
402.59	98.47
402.799	22.7
403.008	73.9
403.217	65.71
403.426	110.76
403.635	96.43
403.844	53.42
404.053	96.43
404.262	110.76
404.471	217.26
404.68	82.09
404.888	174.25
405.097	69.8
405.306	166.06
405.515	168.1
405.724	145.58
405.933	196.78
406.142	108.71
406.35	207.02
406.559	84.14
406.768	125.1
406.977	155.82
407.185	161.96
407.394	143.53
407.603	65.71
407.812	192.68
408.02	196.78
408.229	192.68
408.438	180.39
408.646	143.53
408.855	192.68
409.064	188.58
409.272	231.59
409.481	258.21
409.69	243.88
409.898	141.48
410.107	295.08
410.315	305.32
410.524	153.77
410.733	295.08
410.941	207.02
411.15	286.89
411.358	256.17
411.567	286.89
411.775	311.46
411.984	252.07
412.192	379.04
412.401	338.09
412.609	372.9
412.818	426.15
413.026	362.66
413.234	379.04
413.443	358.57
413.651	454.82
413.86	442.53
414.068	393.38
414.276	450.72
414.485	395.43
414.693	530.59
414.901	538.79
415.11	520.35
415.318	495.78
415.526	559.27
415.734	561.31
415.943	575.65
416.151	575.65
416.359	577.7
416.567	612.51
416.776	622.75
416.984	678.05
417.192	737.44
417.4	702.62
417.608	678.05
417.817	843.93
418.025	839.84
418.233	948.38
418.441	850.08
418.649	907.42
418.857	895.13
419.065	1085.59
419.273	950.43
419.481	1005.72
419.689	1091.74
419.897	1063.07
420.105	1165.46
420.313	1058.97
420.521	1169.56
420.729	1235.1
420.937	1243.29
421.145	1300.63
421.353	1382.55
421.561	1427.6
421.769	1425.56
421.977	1450.13
422.185	1560.72
422.393	1634.45
422.601	1575.06
422.809	1708.18
423.017	1665.17
423.224	1699.98
423.432	1724.56
423.64	1740.94
423.848	2095.24
424.056	2001.04
424.263	2123.91
424.471	2166.92
424.679	2164.87
424.887	2209.93
425.094	2285.7
425.302	2435.21
425.51	2384.01
425.718	2316.42
425.925	2467.97
426.133	2529.41
426.341	2713.73
426.548	2855.04
426.756	2916.48
426.964	2924.67
427.171	3190.91
427.379	3149.95
427.586	3139.71
427.794	3377.27
428.001	3438.71
428.209	3641.46
428.417	3588.21
428.624	3813.49
428.832	3768.43
429.039	3676.27
429.247	3666.03
429.454	4077.68
429.662	4393.06
429.869	4061.29
430.076	4305
430.284	4239.47
430.491	4567.14
430.699	4741.22
430.906	4776.03
431.114	4782.18
431.321	5017.69
431.528	5089.37
431.736	5367.9
431.943	5566.55
432.15	5343.32
432.358	5533.78
432.565	5822.55
432.772	5830.74
432.979	6082.64
433.187	6096.97
433.394	6010.96
433.601	6568.01
433.808	6668.36
434.016	6717.51
434.223	6793.28
434.43	7319.61
434.637	7163.97
434.844	7747.64
435.052	7794.74
435.259	7798.84
435.466	8011.82
435.673	7827.51
435.88	8267.82
436.087	8687.65
436.294	8630.31
436.501	8405.03
436.708	8622.12
436.915	9007.14
437.122	9248.8
437.329	9439.26
437.537	9639.96
437.743	9775.13
437.95	9609.24
438.157	10207.25
438.364	10536.97
438.571	10598.41
438.778	10557.45
438.985	11597.82
439.192	11245.57
439.399	11528.19
439.606	11419.64
439.813	12099.57
440.02	12627.95
440.227	12412.91
440.433	12269.55
440.64	12543.98
440.847	12543.98
441.054	12806.12
441.261	13887.45
441.467	13367.26
441.674	13963.22
441.881	14522.32
442.088	14352.34
442.294	14249.94
442.501	14747.59
442.708	14964.68
442.914	15462.33
443.121	15964.09
443.328	15812.54
443.534	16859.05
443.741	16111.54
443.948	16031.67
444.154	17260.45
444.361	17106.85
444.568	17313.7
444.774	17293.22
444.981	17549.21
445.187	18071.45
445.394	18859.91
445.6	18628.49
445.807	20121.46
446.013	19416.96
446.22	19777.4
446.426	20717.42
446.633	20692.85
446.839	21589.86
447.046	20326.26
447.252	21747.55
447.459	21639.01
447.665	21774.17
447.871	22718.29
448.078	23564.1
448.284	22331.22
448.491	23127.88
448.697	24348.47
448.903	24424.25
449.11	24667.95
449.316	24500.02
449.522	24643.38
449.728	25159.47
449.935	25648.93
450.141	25446.18
450.347	26156.83
450.553	25794.34
450.76	25823.01
450.966	26793.75
451.172	25984.8
451.378	26892.05
451.584	26308.38
451.791	27105.04
451.997	27096.85
452.203	27567.88
452.409	27846.4
452.615	27301.64
452.821	26406.68
453.027	26087.2
453.233	27250.44
453.44	26275.61
453.646	26789.65
453.852	26892.05
454.058	27121.42
454.264	26629.91
454.47	27092.75
454.676	26201.88
454.882	27475.72
455.088	24864.56
455.294	25401.13
455.5	25702.18
455.705	25794.34
455.911	25003.82
456.117	24557.36
456.323	24272.7
456.529	22972.24
456.735	24231.74
456.941	23338.82
457.147	22728.53
457.352	22171.48
457.558	22218.58
457.764	22173.53
457.97	21878.62
458.176	21247.85
458.381	21268.33
458.587	19894.14
458.793	20424.56
458.999	19054.47
459.204	20549.49
459.41	19969.91
459.616	18745.23
459.821	18638.73
460.027	18558.86
460.233	18149.27
460.438	17432.48
460.644	17524.64
460.85	16521.13
461.055	16381.87
461.261	16451.5
461.466	15271.87
461.672	14872.52
461.878	16037.81
462.083	14688.2
462.289	14516.17
462.494	14317.52
462.7	13893.59
462.905	13307.87
463.111	14059.48
463.316	13770.71
463.522	13709.27
463.727	13486.04
463.932	13400.03
464.138	13342.69
464.343	13428.7
464.549	12939.24
464.754	13467.61
464.959	13332.45
465.165	13336.54
465.37	12748.78
465.575	12390.38
465.781	12804.07
465.986	12900.33
466.191	12541.93
466.397	12355.57
466.602	11739.13
466.807	12136.43
467.012	12130.29
467.218	11868.15
467.423	11898.87
467.628	12095.47
467.833	12388.33
468.038	12009.46
468.244	11491.32
468.449	12101.62
468.654	11751.42
468.859	11540.47
469.064	11655.16
469.269	11057.15
469.474	11282.43
469.679	11472.89
469.885	10967.04
470.09	11315.2
470.295	11120.64
470.5	11110.4
470.705	11069.44
470.91	10778.63
471.115	10776.58
471.32	10823.69
471.525	10792.97
471.73	10522.63
471.935	10319.89
472.139	10096.66
472.344	10340.36
472.549	10135.57
472.754	10129.42
472.959	9736.21
473.164	9574.42
473.369	9619.48
473.574	9742.36
473.778	9988.11
473.983	9693.21
474.188	9859.09
474.393	9189.41
474.598	9326.62
474.802	9226.27
475.007	9244.7
475.212	9087.01
475.417	8663.08
475.621	8810.53
475.826	8691.75
476.031	8589.35
476.235	8323.12
476.44	8595.5
476.645	8376.36
476.849	8482.86
477.054	8239.15
477.259	8261.68
477.463	8177.71
477.668	8128.56
477.872	8282.16
478.077	8040.5
478.282	7782.45
478.486	7663.67
478.691	7567.42
478.895	7647.29
479.1	7641.14
479.304	7577.66
479.509	7295.04
479.713	7469.11
479.918	7249.98
480.122	7309.37
480.326	7286.84
480.531	7282.75
480.735	7182.4
480.94	7190.59
481.144	7393.34
481.348	7010.37
481.553	7030.85
481.757	7100.48
481.961	7151.68
482.166	7067.71
482.37	7168.06
482.574	6965.31
482.778	6903.87
482.983	7209.02
483.187	7180.35
483.391	6955.07
483.595	7059.52
483.8	6991.94
484.004	6981.7
484.208	7006.27
484.412	6860.87
484.616	7159.87
484.821	6811.71
485.025	6936.64
485.229	7209.02
485.433	7084.09
485.637	6858.82
485.841	6895.68
486.045	6987.84
486.249	6910.02
486.453	6983.74
486.657	6969.41
486.861	7053.38
487.065	6697.03
487.269	6858.82
487.473	7022.66
487.677	7020.61
487.881	7299.13
488.085	7018.56
488.289	6981.7
488.493	7014.46
488.697	7094.33
488.901	6893.63
489.105	6950.98
489.309	7098.43
489.512	7235.64
489.716	7280.7
489.92	7053.38
490.124	7125.05
490.328	7344.19
490.531	6963.26
490.735	7256.12
490.939	7149.63
491.143	7217.21
491.346	7118.91
491.55	7284.8
491.754	7284.8
491.958	7415.87
492.161	7305.28
492.365	7477.3
492.569	7325.75
492.772	7469.11
492.976	7594.04
493.18	7555.13
493.383	7665.72
493.587	7751.73
493.79	7612.47
493.994	7622.71
494.197	7503.93
494.401	7663.67
494.605	7639.09
494.808	7782.45
495.012	7856.18
495.215	8026.16
495.419	8013.87
495.622	7997.49
495.825	8112.17
496.029	7997.49
496.232	8210.48
496.436	8200.24
496.639	8638.5
496.843	8353.84
497.046	8497.19
497.249	8693.8
497.453	8661.03
497.656	8515.62
497.859	8841.25
498.063	8945.7
498.266	8912.93
498.469	9072.67
498.673	9140.26
498.876	9300
499.079	9263.13
499.282	9367.58
499.485	9748.5
499.689	9687.06
499.892	9717.78
500.095	9594.9
500.298	10295.31
500.501	10065.94
500.705	10149.9
500.908	10213.39
501.111	10283.02
501.314	10522.63
501.517	10432.52
501.72	10825.73
501.923	10530.83
502.126	11030.53
502.329	11155.46
502.532	11243.52
502.735	11245.57
502.938	11264
503.141	11356.16
503.344	11626.49
503.547	11606.01
503.75	11945.97
503.953	12093.43
504.156	12103.67
504.359	12283.89
504.562	12193.78
504.765	12517.36
504.968	12683.24
505.17	12824.55
505.373	12759.02
505.576	13035.49
505.779	13127.65
505.982	13119.46
506.185	13674.46
506.387	13440.99
506.59	13780.95
506.793	14026.71
506.996	13901.78
507.198	14559.18
507.401	14004.18
507.604	14462.93
507.807	14749.64
508.009	14770.12
508.212	14876.62
508.415	15032.26
508.617	15374.27
508.82	15247.3
509.022	15212.48
509.225	15644.6
509.428	15904.7
509.63	15884.22
509.833	15765.43
510.035	16338.87
510.238	16310.19
510.44	16318.39
510.643	16805.8
510.845	16734.12
511.048	16877.48
511.25	17264.55
511.453	17065.89
511.655	17500.06
511.858	17346.47
512.06	17799.07
512.262	17874.84
512.465	18257.81
512.667	18544.53
512.87	18466.7
513.072	18462.61
513.274	18698.13
513.477	18939.79
513.679	19040.14
513.881	19509.12
514.084	19820.41
514.286	19662.72
514.488	19724.16
514.69	20068.22
514.893	20399.99
515.095	20285.3
515.297	20608.88
515.499	20232.05
515.701	20772.72
515.904	21063.53
516.106	21188.46
516.308	21491.55
516.51	22075.23
516.712	21481.31
516.914	21903.2
517.116	22251.35
517.318	22298.45
517.52	22587.22
517.722	22507.35
517.925	23064.39
518.127	23314.25
518.329	23439.17
518.531	23476.04
518.733	23902.01
518.935	23779.14
519.136	24133.43
519.338	24549.17
519.54	24211.26
519.742	24590.13
519.944	24747.83
520.146	25032.49
520.348	25421.61
520.55	25397.03
520.752	25585.44
520.954	26306.33
521.155	25962.27
521.357	26484.5
521.559	26261.27
521.761	26617.62
521.963	26447.64
522.164	27016.97
522.366	27109.13
522.568	27428.62
522.77	27051.79
522.971	27879.17
523.173	27387.66
523.375	27621.13
523.576	27676.42
523.778	27938.56
523.98	28342.01
524.181	28710.64
524.383	28522.23
524.584	29228.78
524.786	28714.74
524.988	28722.93
525.189	29460.2
525.391	29560.55
525.592	29495.02
525.794	29660.9
525.995	29460.2
526.197	29820.64
526.398	29988.58
526.6	30346.97
526.801	30127.84
527.003	30500.57
527.204	30320.35
527.406	30590.68
527.607	30480.09
527.808	31293.13
528.01	30703.32
528.211	30383.84
528.412	31119.06
528.614	31227.6
528.815	31096.53
529.016	31387.34
529.218	31184.59
529.419	31497.93
529.62	31262.41
529.822	31626.95
530.023	31721.16
530.224	31463.11
530.425	31502.03
530.626	31104.72
530.828	31518.41
531.029	32145.09
531.23	32009.92
531.431	31846.08
531.632	32028.35
531.833	32122.56
532.035	31977.15
532.236	31915.72
532.437	32143.04
532.638	32083.65
532.839	32245.44
533.04	32208.58
533.241	32255.68
533.442	32745.14
533.643	32222.91
533.844	31835.84
534.045	32138.94
534.246	32161.47
534.447	32278.21
534.648	32302.78
534.849	32542.39
535.05	32210.62
535.251	32517.82
535.451	32380.6
535.652	32724.66
535.853	32360.12
536.054	32218.82
536.255	32722.62
536.456	32245.44
536.657	32941.75
536.857	32511.67
537.058	32145.09
537.259	32435.9
537.46	32380.6
537.66	32138.94
537.861	32435.9
538.062	32407.23
538.263	32581.31
538.463	32632.5
538.664	32087.75
538.865	32671.42
539.065	32765.62
539.266	32270.01
539.466	32652.98
539.667	32130.75
539.868	32704.18
540.068	32532.15
540.269	32239.29
540.469	32757.43
540.67	32341.69
540.87	32689.85
541.071	32667.32
541.271	32800.44
541.472	32552.63
541.672	32698.04
541.873	32198.34
542.073	31889.09
542.274	32714.42
542.474	31983.3
542.675	32069.31
542.875	32730.81
543.075	32380.6
543.276	32358.08
543.476	32765.62
543.676	32087.75
543.877	32364.22
544.077	32519.87
544.277	32390.84
544.478	32231.1
544.678	32630.46
544.878	32712.38
545.078	32368.32
545.279	32050.88
545.479	32401.08
545.679	32343.74
545.879	32200.38
546.079	32433.85
546.28	32896.69
546.48	31991.49
546.68	32624.31
546.88	32159.42
547.08	32462.52
547.28	32368.32
547.48	31999.68
547.68	32784.05
547.88	32149.18
548.081	32181.95
548.281	32112.32
548.481	32046.79
548.681	32599.74
548.881	32284.35
549.081	32360.12
549.28	32024.26
549.48	32607.93
549.68	32227.01
549.88	32552.63
550.08	32057.03
550.28	32306.88
550.48	32005.83
550.68	32634.55
550.88	32050.88
551.08	32483
551.279	32208.58
551.479	32538.3
551.679	32351.93
551.879	32057.03
552.079	32044.74
552.278	31999.68
552.478	32108.22
552.678	32308.93
552.878	32425.66
553.077	32089.79
553.277	32003.78
553.477	32347.84
553.676	31987.39
553.876	32022.21
554.076	32110.27
554.275	32011.97
554.475	31473.35
554.674	31997.63
554.874	32208.58
555.074	32169.66
555.273	32290.49
555.473	32202.43
555.672	31452.87
555.872	31674.06
556.071	31706.82
556.271	31780.55
556.47	31477.45
556.67	31270.61
556.869	31393.48
557.068	31880.9
557.268	31035.09
557.467	31618.76
557.667	31454.92
557.866	31678.15
558.065	31723.21
558.265	31332.04
558.464	31203.02
558.663	31506.12
558.863	31004.37
559.062	31534.79
559.261	30865.11
559.461	31430.35
559.66	30775
559.859	31174.35
560.058	30901.97
560.258	30975.7
560.457	30910.16
560.656	31256.27
560.855	30889.68
561.054	30836.44
561.253	30824.15
561.453	30887.64
561.652	30971.6
561.851	31117.01
562.05	30654.17
562.249	30480.09
562.448	30791.38
562.647	30445.27
562.846	30482.14
563.045	30250.72
563.244	30303.96
563.443	30750.42
563.642	30007.01
563.841	30299.87
564.04	30000.86
564.239	30492.38
564.438	29935.33
564.637	30303.96
564.836	29820.64
565.035	29728.49
565.234	29871.84
565.432	29730.53
565.631	29499.11
565.83	29650.66
566.029	29683.43
566.228	29581.03
566.427	29406.95
566.625	29120.24
566.824	29023.98
567.023	29452.01
567.222	28765.94
567.42	29429.48
567.619	29001.46
567.818	28870.39
568.016	28890.87
568.215	28872.43
568.414	28835.57
568.612	29093.61
568.811	28684.02
569.01	28872.43
569.208	28219.13
569.407	28626.68
569.605	28471.03
569.804	28618.49
570.002	28002.05
570.201	28266.24
570.4	28417.79
570.598	27866.88
570.797	27768.58
570.995	27979.52
571.193	27551.49
571.392	27911.94
571.59	27492.1
571.789	27911.94
571.987	27483.91
572.186	27516.68
572.384	27578.12
572.582	27645.7
572.781	27508.49
572.979	27262.73
573.177	27422.47
573.376	27412.23
573.574	27176.72
573.772	27197.2
573.971	27047.69
574.169	26752.79
574.367	26701.59
574.565	26818.32
574.763	27000.59
574.962	26691.35
575.16	26251.03
575.358	26474.26
575.556	26330.9
575.754	26955.54
575.952	26285.85
576.151	26240.79
576.349	26228.51
576.547	26183.45
576.745	26054.43
576.943	25855.78
577.141	26074.91
577.339	25782.05
577.537	25823.01
577.735	25900.83
577.933	25458.47
578.131	25829.15
578.329	25630.5
578.527	25444.13
578.725	25278.25
578.923	25067.31
579.121	25280.3
579.319	25278.25
579.516	25304.87
579.714	25245.48
579.912	25118.51
580.11	24985.39
580.308	25055.02
580.506	24907.57
580.704	24293.18
580.901	24680.24
581.099	24721.2
581.297	24344.38
581.495	24690.48
581.692	24643.38
581.89	24108.86
582.088	24528.69
582.285	24121.15
582.483	24633.14
582.681	24495.92
582.878	24125.24
583.076	24045.37
583.274	23963.45
583.471	23842.62
583.669	23846.72
583.866	23748.42
584.064	23998.27
584.262	23492.42
584.459	23856.96
584.657	23385.93
584.854	23637.83
585.052	23054.15
585.249	23301.96
585.447	23570.24
585.644	22951.76
585.841	23097.16
586.039	23545.67
586.236	23160.65
586.434	23019.34
586.631	23062.35
586.828	22886.22
587.026	22726.48
587.223	22933.32
587.42	22691.66
587.618	22728.53
587.815	22318.93
588.012	22380.37
588.21	22343.51
588.407	22609.75
588.604	22439.76
588.801	22302.55
588.999	22257.5
589.196	21987.16
589.393	22142.81
589.59	21991.26
589.787	22044.51
589.984	21765.98
590.182	21841.76
590.379	21737.31
590.576	21696.35
590.773	21548.9
590.97	21434.21
591.167	21692.26
591.364	21526.37
591.561	21370.72
591.758	21143.4
591.955	21325.67
592.152	21538.66
592.349	21018.47
592.546	21358.44
592.743	21108.58
592.94	20580.21
593.137	21063.53
593.334	20713.33
593.531	20578.16
593.727	20848.49
593.924	20838.25
594.121	20344.69
594.318	20481.91
594.515	20262.77
594.712	20619.12
594.908	20440.95
595.105	20066.17
595.302	20184.95
595.499	20475.76
595.696	20211.57
595.892	19736.45
596.089	20238.2
596.286	19965.82
596.482	19885.95
596.679	19855.23
596.876	19736.45
597.072	19824.51
597.269	19849.08
597.466	19722.11
597.662	19427.2
597.859	19812.22
598.055	19455.87
598.252	19414.91
598.448	19447.68
598.645	19191.69
598.841	19240.84
599.038	19388.29
599.234	19160.97
599.431	18896.78
599.627	18956.17
599.824	19150.73
600.02	18947.98
600.217	18931.59
600.413	18773.9
600.609	18589.58
600.806	18610.06
601.002	18597.77
601.198	18417.55
601.395	18651.02
601.591	18581.39
601.787	18159.51
601.984	18306.96
602.18	18507.66
602.376	18169.75
602.572	18018.2
602.769	18292.63
602.965	18096.02
603.161	18040.73
603.357	17526.69
603.553	18053.02
603.75	17813.4
603.946	17868.7
604.142	17811.35
604.338	17516.45
604.534	17749.92
604.73	17594.27
604.926	17438.62
605.122	17758.11
605.318	17422.24
605.514	17315.75
605.71	17385.38
605.906	17153.96
606.102	17188.77
606.298	17239.97
606.494	16977.83
606.69	17022.89
606.886	17174.44
607.082	16848.81
607.278	17012.65
607.474	16762.79
607.67	16775.08
607.866	16736.17
608.062	16887.72
608.257	16988.07
608.453	16902.06
608.649	16687.02
608.845	16764.84
609.041	16541.61
609.236	16568.24
609.432	16803.75
609.628	16443.31
609.824	16723.88
610.019	16312.24
610.215	16412.59
610.411	16232.37
610.606	16138.16
610.802	16392.11
610.998	16211.89
611.193	16381.87
611.389	16082.87
611.584	16099.25
611.78	16025.53
611.976	16164.79
612.171	16199.6
612.367	15871.93
612.562	15957.94
612.758	16080.82
612.953	15761.34
613.149	16189.36
613.344	15845.3
613.539	16023.48
613.735	15792.06
613.93	15898.55
614.126	15599.55
614.321	15863.74
614.517	15634.36
614.712	15669.18
614.907	15521.73
615.103	15634.36
615.298	15425.47
615.493	15570.88
615.688	15151.04
615.884	15740.86
616.079	15335.36
616.274	15562.69
616.47	15595.45
616.665	15435.71
616.86	15298.5
617.055	15407.04
617.25	15288.26
617.445	15054.79
617.641	15165.38
617.836	15464.38
618.031	14882.76
618.226	15280.07
618.421	14993.35
618.616	15091.65
618.811	14714.83
619.006	15108.04
619.201	14692.3
619.396	14507.98
619.591	14356.43
619.786	14610.38
619.981	14280.66
620.176	14518.22
620.371	14288.85
620.566	14516.17
620.761	14419.92
620.956	14399.44
621.151	14010.32
621.346	13881.3
621.541	14063.57
621.735	13805.53
621.93	13795.29
622.125	13866.97
622.32	13768.66
622.515	13699.03
622.709	13717.47
622.904	13750.23
623.099	13711.32
623.294	13318.11
623.488	13103.07
623.683	13285.34
623.878	12931.05
624.072	13320.16
624.267	13174.75
624.462	13232.1
624.656	12883.94
624.851	13047.78
625.046	12759.02
625.24	12820.46
625.435	12642.28
625.629	12658.67
625.824	12445.68
626.018	12543.98
626.213	12359.66
626.407	12611.56
626.602	12177.39
626.796	12382.19
626.991	12134.39
627.185	11991.03
627.38	12140.53
627.574	12019.7
627.768	12013.56
627.963	11716.6
628.157	11808.76
628.352	11784.18
628.546	11530.23
628.74	11741.18
628.935	11556.86
629.129	11657.21
629.323	11345.92
629.517	11433.98
629.712	11395.07
629.906	11323.39
630.1	11145.22
630.294	11257.85
630.489	11012.1
630.683	11024.39
630.877	10846.21
631.071	10889.22
631.265	10938.37
631.459	10905.6
631.653	10850.31
631.848	10676.23
632.042	10594.31
632.236	10768.39
632.43	10565.64
632.624	10610.7
632.818	10389.52
633.012	10354.7
633.206	10319.89
633.4	10297.36
633.594	9990.16
633.788	10182.67
633.982	10371.08
634.176	10119.18
634.369	10119.18
634.563	9920.53
634.757	9998.35
634.951	9834.52
635.145	9775.13
635.339	9725.97
635.533	9756.69
635.726	9596.95
635.92	9687.06
636.114	9594.9
636.308	9392.16
636.501	9238.56
636.695	9359.39
636.889	9365.53
637.083	9394.2
637.276	9209.89
637.47	9349.15
637.664	9189.41
637.857	9087.01
638.051	9152.54
638.244	9066.53
638.438	8994.85
638.632	8978.47
638.825	8810.53
639.019	8812.58
639.212	8763.43
639.406	8759.33
639.599	8714.28
639.793	8792.1
639.986	8654.89
640.18	8656.93
640.373	8478.76
640.567	8433.71
640.76	8271.92
640.954	8243.24
641.147	8298.54
641.34	8196.14
641.534	8218.67
641.727	8108.08
641.92	8339.5
642.114	8103.98
642.307	8157.23
642.5	7968.82
642.694	7921.71
642.887	7966.77
643.08	7956.53
643.273	7964.72
643.467	7913.52
643.66	7544.89
643.853	7739.44
644.046	7522.36
644.239	7690.29
644.432	7686.2
644.626	7579.7
644.819	7651.38
645.012	7407.67
645.205	7495.74
645.398	7444.54
645.591	7276.6
645.784	7233.6
645.977	7276.6
646.17	7219.26
646.363	7200.83
646.556	7157.82
646.749	7112.77
646.942	7141.44
647.135	7057.47
647.328	7032.9
647.521	7016.51
647.714	6893.63
647.907	6963.26
648.099	6731.84
648.292	6824
648.485	6797.38
648.678	6797.38
648.871	6727.75
649.064	6694.98
649.256	6729.8
649.449	6580.29
649.642	6561.86
649.835	6447.18
650.027	6502.47
650.22	6541.38
650.413	6367.31
650.605	6496.33
650.798	6580.29
650.991	6393.93
651.183	6375.5
651.376	6346.83
651.568	6385.74
651.761	6412.36
651.954	6342.73
652.146	6277.19
652.339	6187.08
652.531	6035.53
652.724	6240.33
652.916	5988.43
653.109	5984.34
653.301	5943.38
653.494	5828.69
653.686	5859.41
653.879	6121.55
654.071	5703.76
654.263	5673.04
654.456	5785.68
654.648	5759.06
654.84	5611.61
655.033	5601.37
655.225	5677.14
655.417	5570.65
655.61	5607.51
655.802	5552.21
655.994	5441.62
656.186	5505.11
656.379	5556.31
656.571	5494.87
656.763	5425.24
656.955	5251.16
657.148	5337.18
657.34	5378.14
657.532	5357.66
657.724	5199.96
657.916	5191.77
658.108	5341.27
658.3	5187.68
658.492	5296.22
658.684	5120.09
658.876	5202.01
659.068	5109.85
659.26	5040.22
659.452	4903.01
659.644	4956.26
659.836	4984.93
660.028	5001.31
660.22	4823.14
660.412	4892.77
660.604	4616.29
660.796	4816.99
660.988	4808.8
661.18	4716.64
661.372	4843.62
661.563	4739.17
661.755	4749.41
661.947	4706.4
662.139	4788.32
662.331	4655.2
662.522	4485.22
662.714	4659.3
662.906	4608.1
663.097	4618.34
663.289	4526.18
663.481	4413.54
663.673	4339.82
663.864	4442.21
664.056	4411.5
664.247	4489.32
664.439	4286.57
664.631	4411.5
664.822	4466.79
665.014	4276.33
665.205	4208.75
665.397	4309.1
665.588	4180.07
665.78	4147.31
665.971	4116.59
666.163	4206.7
666.354	4061.29
666.546	4124.78
666.737	4175.98
666.929	3989.61
667.12	4034.67
667.311	4069.48
667.503	4008.05
667.694	3995.76
667.885	4022.38
668.077	4083.82
668.268	4028.53
668.459	4081.77
668.651	3885.17
668.842	3891.31
669.033	3827.82
669.224	3813.49
669.416	3913.84
669.607	3690.61
669.798	3772.53
669.989	3729.52
670.18	3729.52
670.371	3754.1
670.563	3747.95
670.754	3651.7
670.945	3637.36
671.136	3674.23
671.327	3735.67
671.518	3657.84
671.709	3522.68
671.9	3692.66
672.091	3610.74
672.282	3358.84
672.473	3444.85
672.664	3600.5
672.855	3518.58
673.046	3453.05
673.237	3371.13
673.428	3446.9
673.619	3504.25
673.809	3332.22
674	3342.46
674.191	3475.57
674.382	3367.03
674.573	3258.49
674.764	3350.65
674.954	3379.32
675.145	3352.7
675.336	3278.97
675.527	3211.39
675.717	3195
675.908	3143.8
676.099	3209.34
676.289	3207.29
676.48	3117.18
676.671	3129.47
676.861	3213.43
677.052	3121.28
677.243	3115.13
677.433	3076.22
677.624	3143.8
677.814	2986.11
678.005	3092.6
678.195	3051.64
678.386	3010.68
678.576	3025.02
678.767	2951.29
678.957	2971.77
679.148	2945.15
679.338	2900.09
679.529	2971.77
679.719	2912.38
679.909	2836.61
680.1	2959.49
680.29	2926.72
680.481	2865.28
680.671	2859.14
680.861	2867.33
681.052	2807.94
681.242	2820.22
681.432	2887.81
681.622	2857.09
681.813	2748.54
682.003	2642.05
682.193	2846.85
682.383	2715.78
682.573	2754.69
682.764	2691.2
682.954	2795.65
683.144	2683.01
683.334	2744.45
683.524	2680.96
683.714	2760.83
683.904	2742.4
684.094	2621.57
684.284	2689.15
684.474	2726.02
684.664	2531.46
684.854	2693.25
685.044	2560.13
685.234	2500.74
685.424	2584.71
685.614	2498.69
685.804	2586.76
685.994	2531.46
686.184	2566.28
686.374	2582.66
686.564	2508.93
686.753	2621.57
686.943	2404.49
687.133	2365.57
687.323	2404.49
687.513	2553.99
687.702	2437.25
687.892	2312.33
688.082	2408.58
688.272	2467.97
688.461	2271.37
688.651	2338.95
688.841	2336.9
689.03	2418.82
689.22	2318.47
689.41	2420.87
689.599	2418.82
689.789	2250.89
689.979	2304.14
690.168	2234.5
690.358	2402.44
690.547	2259.08
690.737	2279.56
690.926	2269.32
691.116	2164.87
691.305	2336.9
691.495	2232.46
691.684	2265.22
691.874	2173.07
692.063	2146.44
692.252	2166.92
692.442	2189.45
692.631	2103.43
692.82	2117.77
693.01	2173.07
693.199	2064.52
693.388	2080.91
693.578	2050.19
693.767	2191.5
693.956	2080.91
694.146	2082.95
694.335	2060.43
694.524	2173.07
694.713	2117.77
694.902	2123.91
695.092	2037.9
695.281	1955.98
695.47	2044.04
695.659	2017.42
695.848	2029.71
696.037	2074.76
696.226	2068.62
696.415	1994.89
696.604	2128.01
696.793	2023.56
696.982	1988.75
697.171	2015.37
697.36	1990.8
697.549	1951.88
697.738	1976.46
697.927	1976.46
698.116	2042
698.305	1968.27
698.494	1896.59
698.683	1976.46
698.872	1984.65
699.061	1853.58
699.25	1919.12
699.438	1935.5
699.627	2019.47
699.816	2085
700.005	1976.46
700.193	1822.86
700.382	2007.18
700.571	1902.73
700.76	1980.56
700.948	1955.98
701.137	1968.27
701.326	2001.04
701.514	1880.21
701.703	1876.11
701.892	2050.19
702.08	2107.53
702.269	1824.91
702.457	1958.03
702.646	1968.27
702.834	1998.99
703.023	2050.19
703.212	1960.08
703.4	1876.11
703.589	1872.01
703.777	1794.19
703.965	1919.12
704.154	2035.85
704.342	1876.11
704.531	1968.27
704.719	1863.82
704.907	1935.5
705.096	1831.05
705.284	1929.36
705.472	1808.53
705.661	1855.63
705.849	1935.5
706.037	1882.25
706.226	2001.04
706.414	1800.34
706.602	1888.4
706.79	1886.35
706.979	1859.73
707.167	1919.12
707.355	1841.29
707.543	1882.25
707.731	1919.12
707.919	1863.82
708.107	1808.53
708.296	1882.25
708.484	1919.12
708.672	1820.81
708.86	1888.4
709.048	1810.58
709.236	1855.63
709.424	1931.41
709.612	1925.26
709.8	1921.17
709.988	1878.16
710.176	1896.59
710.364	1923.21
710.551	1898.64
710.739	1919.12
710.927	1849.49
711.115	1829.01
711.303	1894.54
711.491	1888.4
711.679	1829.01
711.866	1814.67
712.054	1812.62
712.242	1820.81
712.43	1949.84
712.617	1874.06
712.805	1693.84
712.993	1765.52
713.181	1941.65
713.368	1812.62
713.556	1872.01
713.744	1720.46
713.931	1915.02
714.119	1788.05
714.306	1788.05
714.494	1808.53
714.682	1829.01
714.869	1863.82
715.057	1855.63
715.244	1818.77
715.432	1943.69
715.619	1831.05
715.807	1697.94
715.994	1794.19
716.182	1812.62
716.369	1763.47
716.556	1910.93
716.744	1808.53
716.931	1757.33
717.119	1933.45
717.306	1751.18
717.493	1898.64
717.681	1814.67
717.868	1804.43
718.055	1929.36
718.242	1880.21
718.43	1788.05
718.617	1912.97
718.804	1826.96
718.991	1878.16
719.179	1915.02
719.366	1867.92
719.553	1786
719.74	1861.77
719.927	1742.99
720.114	1824.91
720.301	1788.05
720.488	1751.18
720.676	1738.9
720.863	1900.69
721.05	1749.14
721.237	1826.96
721.424	1773.71
721.611	1822.86
721.798	1745.04
721.985	1824.91
722.172	1814.67
722.358	1802.38
722.545	1755.28
722.732	1779.86
722.919	1753.23
723.106	1855.63
723.293	1753.23
723.48	1693.84
723.667	1773.71
723.853	1765.52
724.04	1804.43
724.227	1753.23
724.414	1704.08
724.6	1755.28
724.787	1894.54
724.974	1792.14
725.161	1829.01
725.347	1867.92
725.534	1745.04
725.72	1822.86
725.907	1790.1
726.094	1781.9
726.28	1667.22
726.467	1689.74
726.653	1749.14
726.84	1736.85
727.027	1953.93
727.213	1796.24
727.4	1722.51
727.586	1661.07
727.773	1788.05
727.959	1779.86
728.145	1730.7
728.332	1722.51
728.518	1691.79
728.705	1734.8
728.891	1699.98
729.077	1679.51
729.264	1710.22
729.45	1722.51
729.636	1755.28
729.823	1765.52
730.009	1673.36
730.195	1763.47
730.382	1626.26
730.568	1683.6
730.754	1640.59
730.94	1724.56
731.126	1640.59
731.313	1716.37
731.499	1757.33
731.685	1786
731.871	1775.76
732.057	1681.55
732.243	1673.36
732.429	1761.42
732.615	1689.74
732.801	1677.46
732.987	1620.11
733.173	1636.5
733.359	1587.35
733.545	1693.84
733.731	1642.64
733.917	1587.35
734.103	1675.41
734.289	1665.17
734.475	1620.11
734.661	1716.37
734.847	1622.16
735.033	1702.03
735.219	1575.06
735.404	1532.05
735.59	1611.92
735.776	1665.17
735.962	1673.36
736.148	1665.17
736.333	1599.63
736.519	1626.26
736.705	1534.1
736.89	1616.02
737.076	1622.16
737.262	1548.44
737.447	1513.62
737.633	1487
737.819	1593.49
738.004	1560.72
738.19	1603.73
738.375	1587.35
738.561	1599.63
738.747	1513.62
738.932	1585.3
739.118	1495.19
739.303	1566.87
739.489	1558.67
739.674	1448.08
739.859	1435.8
740.045	1507.48
740.23	1511.57
740.416	1497.24
740.601	1630.35
740.786	1534.1
740.972	1527.96
741.157	1517.72
741.342	1501.33
741.528	1489.04
741.713	1530
741.898	1452.18
742.084	1505.43
742.269	1450.13
742.454	1427.6
742.639	1454.23
742.824	1491.09
743.01	1419.41
743.195	1478.8
743.38	1439.89
743.565	1364.12
743.75	1519.76
743.935	1353.88
744.12	1345.69
744.305	1362.07
744.49	1374.36
744.675	1239.19
744.86	1382.55
745.045	1386.65
745.23	1304.73
745.415	1296.53
745.6	1290.39
745.785	1349.78
745.97	1372.31
746.155	1271.96
746.34	1331.35
746.525	1376.41
746.71	1380.5
746.895	1192.09
747.079	1257.62
747.264	1267.86
747.449	1292.44
747.634	1271.96
747.819	1231
748.003	1259.67
748.188	1161.37
748.373	1282.2
748.557	1292.44
748.742	1231
748.927	1157.27
749.111	1175.7
749.296	1243.29
749.481	1253.53
749.665	1239.19
749.85	1144.99
750.034	1206.42
750.219	1161.37
750.404	1181.85
750.588	1212.57
750.773	1124.51
750.957	1181.85
751.141	1140.89
751.326	1153.18
751.51	1091.74
751.695	1099.93
751.879	1050.78
752.064	1175.7
752.248	1091.74
752.432	1061.02
752.617	1079.45
752.801	1112.22
752.985	1065.11
753.17	1149.08
753.354	1050.78
753.538	1022.11
753.722	1114.27
753.907	1085.59
754.091	919.71
754.275	1067.16
754.459	1056.92
754.643	1003.68
754.828	1009.82
755.012	1022.11
755.196	1001.63
755.38	1058.97
755.564	966.81
755.748	983.2
755.932	942.24
756.116	897.18
756.3	952.48
756.484	899.23
756.668	960.67
756.852	915.61
757.036	977.05
757.22	852.13
757.404	962.72
757.588	872.61
757.772	917.66
757.956	850.08
758.14	897.18
758.323	829.6
758.507	897.18
758.691	925.85
758.875	862.37
759.059	893.09
759.242	899.23
759.426	825.5
759.61	903.32
759.794	858.27
759.977	766.11
760.161	944.28
760.345	880.8
760.528	899.23
760.712	837.79
760.895	868.51
761.079	833.69
761.263	815.26
761.446	821.41
761.63	843.93
761.813	821.41
761.997	710.82
762.18	821.41
762.364	872.61
762.547	727.2
762.731	780.45
762.914	764.06
763.098	714.91
763.281	823.45
763.464	755.87
763.648	790.69
763.831	766.11
764.015	735.39
764.198	833.69
764.381	682.14
764.564	784.54
764.748	694.43
764.931	729.25
765.114	745.63
765.297	778.4
765.481	676
765.664	739.49
765.847	706.72
766.03	778.4
766.213	692.38
766.397	735.39
766.58	747.68
766.763	735.39
766.946	725.15
767.129	833.69
767.312	661.66
767.495	684.19
767.678	764.06
767.861	678.05
768.044	764.06
768.227	682.14
768.41	678.05
768.593	727.2
768.776	790.69
768.959	772.25
769.142	714.91
769.324	669.86
769.507	762.02
769.69	698.53
769.873	727.2
770.056	719.01
770.239	714.91
770.421	794.78
770.604	667.81
770.787	706.72
770.97	698.53
771.152	708.77
771.335	667.81
771.518	692.38
771.7	626.85
771.883	604.32
772.066	643.23
772.248	604.32
772.431	667.81
772.613	659.62
772.796	651.42
772.978	692.38
773.161	657.57
773.343	643.23
773.526	557.22
773.708	659.62
773.891	649.38
774.073	716.96
774.256	551.07
774.438	671.9
774.621	575.65
774.803	604.32
774.985	610.47
775.168	630.95
775.35	569.51
775.532	657.57
775.715	532.64
775.897	589.99
776.079	503.97
776.261	583.84
776.444	616.61
776.626	585.89
776.808	528.55
776.99	600.23
777.173	536.74
777.355	508.07
777.537	501.92
777.719	565.41
777.901	553.12
778.083	487.59
778.265	420
778.447	510.11
778.629	501.92
778.811	544.93
778.993	506.02
779.175	538.79
779.357	510.11
779.539	544.93
779.721	501.92
779.903	516.26
780.085	567.46
780.267	528.55
780.449	446.63
780.631	526.5
780.812	469.16
780.994	522.4
781.176	512.16
781.358	512.16
781.54	422.05
781.721	477.35
781.903	452.77
782.085	485.54
782.267	417.96
782.448	432.29
782.63	483.49
782.812	520.35
782.993	370.85
783.175	426.15
783.357	417.96
783.538	452.77
783.72	422.05
783.901	487.59
784.083	467.11
784.264	420
784.446	327.85
784.627	321.7
784.809	391.33
784.99	362.66
785.172	311.46
785.353	393.38
785.535	395.43
785.716	362.66
785.897	407.72
786.079	417.96
786.26	440.48
786.441	469.16
786.623	321.7
786.804	463.01
786.985	282.79
787.167	342.18
787.348	381.09
787.529	336.04
787.71	338.09
787.891	374.95
788.073	389.28
788.254	329.89
788.435	374.95
788.616	293.03
788.797	309.41
788.978	352.42
789.159	377
789.34	342.18
789.522	256.17
789.703	346.28
789.884	329.89
790.065	338.09
790.246	338.09
790.427	321.7
790.607	370.85
790.788	305.32
790.969	358.57
791.15	356.52
791.331	358.57
791.512	247.97
791.693	215.21
791.874	272.55
792.054	307.37
792.235	293.03
792.416	268.45
792.597	274.6
792.778	282.79
792.958	346.28
793.139	239.78
793.32	233.64
793.5	272.55
793.681	280.74
793.862	297.13
794.042	266.41
794.223	227.5
794.404	313.51
794.584	252.07
794.765	254.12
794.945	290.98
795.126	325.8
795.306	276.65
795.487	311.46
795.667	282.79
795.848	227.5
796.028	262.31
796.209	284.84
796.389	280.74
796.57	225.45
796.75	266.41
796.93	276.65
797.111	202.92
797.291	340.13
797.471	250.02
797.652	182.44
797.832	204.97
798.012	223.4
798.192	266.41
798.373	192.68
798.553	227.5
798.733	295.08
798.913	192.68
799.093	184.49
799.274	297.13
799.454	237.74
799.634	264.36
799.814	184.49
799.994	266.41
800.174	235.69
800.354	241.83
800.534	194.73
800.714	227.5
800.894	186.54
801.074	241.83
801.254	252.07
801.434	252.07
801.614	198.82
801.794	250.02
801.974	620.71
802.154	168.1
802.334	227.5
802.514	233.64
802.693	243.88
802.873	190.63
803.053	239.78
803.233	256.17
803.413	202.92
803.592	133.29
803.772	182.44
803.952	157.86
804.131	219.3
804.311	223.4
804.491	264.36
804.67	123.05
804.85	192.68
805.03	135.34
805.209	221.35
805.389	166.06
805.568	149.67
805.748	153.77
805.928	172.2
806.107	223.4
806.287	182.44
806.466	123.05
806.646	178.34
806.825	135.34
807.004	198.82
807.184	231.59
807.363	217.26
807.543	123.05
807.722	196.78
807.901	207.02
808.081	231.59
808.26	182.44
808.439	139.43
808.619	133.29
808.798	135.34
808.977	139.43
809.156	137.38
809.336	133.29
809.515	211.11
809.694	116.9
809.873	39.08
810.052	164.01
810.231	186.54
810.411	106.67
810.59	118.95
810.769	157.86
810.948	108.71
811.127	153.77
811.306	110.76
811.485	90.28
811.664	151.72
811.843	104.62
812.022	141.48
812.201	75.95
812.38	170.15
812.559	184.49
812.737	159.91
812.916	112.81
813.095	151.72
813.274	104.62
813.453	118.95
813.632	123.05
813.811	114.86
813.989	143.53
814.168	159.91
814.347	147.62
814.526	94.38
814.704	174.25
814.883	202.92
815.062	129.19
815.24	108.71
815.419	80.04
815.598	108.71
815.776	129.19
815.955	143.53
816.133	51.37
816.312	180.39
816.49	139.43
816.669	213.16
816.847	110.76
817.026	141.48
817.204	129.19
817.383	112.81
817.561	75.95
817.74	207.02
817.918	96.43
818.097	106.67
818.275	43.18
818.453	77.99
818.632	98.47
818.81	84.14
818.988	63.66
819.167	153.77
819.345	147.62
819.523	170.15
819.701	116.9
819.879	133.29
820.058	98.47
820.236	41.13
820.414	100.52
820.592	59.56
820.77	47.27
820.948	88.23
821.127	114.86
821.305	116.9
821.483	145.58
821.661	102.57
821.839	59.56
822.017	108.71
822.195	149.67
822.373	75.95
822.551	131.24
822.729	106.67
822.907	43.18
823.085	118.95
823.262	34.99
823.44	145.58
823.618	71.85
823.796	172.2
823.974	92.33
824.152	94.38
824.329	73.9
824.507	118.95
824.685	34.99
824.863	43.18
825.04	112.81
825.218	75.95
825.396	41.13
825.574	137.38
825.751	43.18
825.929	84.14
826.107	59.56
826.284	96.43
826.462	100.52
826.639	69.8
826.817	22.7
826.994	73.9
827.172	63.66
827.349	127.14
827.527	104.62
827.704	94.38
827.882	34.99
828.059	75.95
828.237	67.75
828.414	135.34
828.591	2.22
828.769	98.47
828.946	47.27
829.124	108.71
829.301	112.81
829.478	182.44
829.655	20.65
829.833	0.17
830.01	69.8
830.187	84.14
830.364	34.99
830.542	151.72
830.719	34.99
830.896	90.28
831.073	96.43
831.25	8.36
831.427	149.67
831.604	39.08
831.782	34.99
831.959	71.85
832.136	57.51
832.313	133.29
832.49	10.41
832.667	71.85
832.844	2.22
833.021	24.75
833.198	24.75
833.374	110.76
833.551	77.99
833.728	65.71
833.905	94.38
834.082	116.9
834.259	75.95
834.436	141.48
834.612	59.56
834.789	94.38
834.966	90.28
835.143	114.86
835.319	26.79
835.496	84.14
835.673	34.99
835.85	59.56
836.026	73.9
836.203	59.56
836.38	92.33
836.556	6.31
836.733	110.76
836.909	131.24
837.086	-38.74
837.262	45.23
837.439	88.23
837.616	14.51
837.792	30.89
837.968	94.38
838.145	98.47
838.321	104.62
838.498	57.51
838.674	88.23
838.851	47.27
839.027	-14.17
839.203	86.19
839.38	121
839.556	-14.17
839.732	96.43
839.909	26.79
840.085	123.05
840.261	55.47
840.437	51.37
840.614	14.51
840.79	108.71
840.966	47.27
841.142	34.99
841.318	59.56
841.494	84.14
841.671	34.99
841.847	108.71
842.023	53.42
842.199	53.42
842.375	110.76
842.551	61.61
842.727	53.42
842.903	125.1
843.079	20.65
843.255	84.14
843.431	47.27
843.607	41.13
843.783	14.51
843.959	137.38
844.134	28.84
844.31	63.66
844.486	92.33
844.662	114.86
844.838	10.41
845.013	63.66
845.189	18.6
845.365	86.19
845.541	22.7
845.716	41.13
845.892	43.18
846.068	63.66
846.244	45.23
846.419	34.99
846.595	57.51
846.77	14.51
846.946	98.47
847.122	133.29
847.297	51.37
847.473	59.56
847.648	30.89
847.824	63.66
847.999	16.55
848.175	2.22
848.35	-40.79
848.526	67.75
848.701	39.08
848.876	59.56
849.052	90.28
849.227	86.19
849.403	18.6
849.578	43.18
849.753	110.76
849.929	96.43
850.104	-14.17
850.279	26.79
850.454	96.43
850.63	100.52
850.805	118.95
850.98	104.62
851.155	71.85
851.33	41.13
851.505	-12.12
851.681	-44.88
851.856	112.81
852.031	96.43
852.206	96.43
852.381	-20.31
852.556	51.37
852.731	65.71
852.906	61.61
853.081	53.42
853.256	20.65
853.431	16.55
853.606	26.79
853.781	-24.4
853.956	39.08
854.131	80.04
854.305	88.23
854.48	34.99
854.655	43.18
854.83	96.43
855.005	51.37
855.18	41.13
855.354	61.61
855.529	26.79
855.704	-8.02
855.879	-14.17
856.053	51.37
856.228	75.95
856.403	2.22
856.577	84.14
856.752	-28.5
856.926	80.04
857.101	43.18
857.276	26.79
857.45	10.41
857.625	98.47
857.799	67.75
857.974	30.89
858.148	-20.31
858.323	34.99
858.497	-8.02
858.672	4.27
858.846	55.47
859.02	125.1
859.195	-26.45
859.369	43.18
859.543	-30.55
859.718	43.18
859.892	30.89
860.066	67.75
860.241	-48.98
860.415	104.62
860.589	82.09
860.763	20.65
860.938	30.89
861.112	77.99
861.286	2.22
861.46	135.34
861.634	-28.5
861.808	20.65
861.982	-10.07
862.157	67.75
862.331	-14.17
862.505	-51.03
862.679	-40.79
862.853	34.99
863.027	67.75
863.201	59.56
863.375	-71.51
863.549	18.6
863.722	34.99
863.896	6.31
864.07	26.79
864.244	65.71
864.418	-1.88
864.592	34.99
864.766	22.7
864.939	94.38
865.113	45.23
865.287	24.75
865.461	-12.12
865.634	39.08
865.808	-75.6
865.982	20.65
866.156	-3.93
866.329	-57.17
866.503	-30.55
866.676	10.41
866.85	-30.55
867.024	34.99
867.197	90.28
867.371	39.08
867.544	59.56
867.718	4.27
867.891	104.62
868.065	6.31
868.238	49.32
868.412	2.22
868.585	6.31
868.759	18.6
868.932	-30.55
869.105	37.03
869.279	-22.36
869.452	59.56
869.625	4.27
869.799	22.7
869.972	12.46
870.145	-42.84
870.319	-61.27
870.492	-22.36
870.665	51.37
870.838	14.51
871.011	41.13
871.185	16.55
871.358	22.7
871.531	75.95
871.704	-5.97
871.877	47.27
872.05	30.89
872.223	-32.6
872.396	41.13
872.569	-5.97
872.742	4.27
872.915	43.18
873.088	55.47
873.261	75.95
873.434	55.47
873.607	-46.93
873.78	61.61
873.953	-16.21
874.126	-28.5
874.299	30.89
874.471	-16.21
874.644	12.46
874.817	32.94
874.99	75.95
875.163	26.79
875.335	24.75
875.508	-3.93
875.681	77.99
875.853	30.89
876.026	6.31
876.199	-14.17
876.371	8.36
876.544	-16.21
876.717	71.85
876.889	10.41
877.062	63.66
877.234	49.32
877.407	39.08
877.579	28.84
877.752	8.36
877.924	28.84
878.097	55.47
878.269	32.94
878.442	-8.02
878.614	24.75
878.786	-3.93
878.959	55.47
879.131	80.04
879.303	32.94
879.476	-12.12
879.648	10.41
879.82	86.19
879.993	63.66
880.165	20.65
880.337	49.32
880.509	-8.02
880.681	-3.93
880.854	71.85
881.026	-40.79
881.198	43.18
881.37	34.99
881.542	65.71
881.714	4.27
881.886	-5.97
882.058	61.61
882.23	26.79
882.402	53.42
882.574	24.75
882.746	0.17
882.918	51.37
883.09	6.31
883.262	-53.08
883.434	-38.74
883.606	-26.45
883.778	-20.31
883.95	4.27
884.122	-57.17
884.293	37.03
884.465	43.18
884.637	18.6
884.809	-53.08
884.98	37.03
885.152	2.22
885.324	20.65
885.496	26.79
885.667	51.37
885.839	20.65
886.011	84.14
886.182	14.51
886.354	86.19
886.525	-1.88
886.697	32.94
886.869	20.65
887.04	32.94
887.212	75.95
887.383	4.27
887.555	2.22
887.726	18.6
887.897	53.42
888.069	37.03
888.24	37.03
888.412	61.61
888.583	2.22
888.754	-22.36
888.926	12.46
889.097	-28.5
889.268	-38.74
889.44	86.19
889.611	18.6
889.782	10.41
889.953	10.41
890.125	45.23
890.296	41.13
890.467	100.52
890.638	20.65
890.809	-34.64
890.98	53.42
891.151	63.66
891.323	80.04
891.494	80.04
891.665	43.18
891.836	8.36
892.007	-14.17
892.178	34.99
892.349	4.27
892.52	-18.26
892.691	39.08
892.862	84.14
893.032	-18.26
893.203	-3.93
893.374	24.75
893.545	94.38
893.716	-5.97
893.887	37.03
894.057	-46.93
894.228	43.18
894.399	14.51
894.57	32.94
894.74	-18.26
894.911	84.14
895.082	-10.07
895.253	55.47
895.423	59.56
895.594	4.27
895.764	-16.21
895.935	-61.27
896.106	41.13
896.276	-8.02
896.447	4.27
896.617	41.13
896.788	24.75
896.958	8.36
897.129	-30.55
897.299	61.61
897.47	75.95
897.64	102.57
897.81	0.17
897.981	8.36
898.151	-22.36
898.322	26.79
898.492	12.46
898.662	51.37
898.832	22.7
899.003	-1.88
899.173	26.79
899.343	10.41
899.513	26.79
