Data from USB4F104151__88__13-13-03-450.txt Node

Date: Fri Mar 14 13:13:03 EDT 2025
User: louis
Spectrometer: USB4F10415
Trigger mode: 4
Integration Time (sec): 2.000000E-2
Scans to average: 1
Electric dark correction enabled: true
Nonlinearity correction enabled: false
Boxcar width: 0
XAxis mode: Wavelengths
Number of Pixels in Spectrum: 3648
>>>>>Begin Spectral Data<<<<<
178.204	-27.99
178.424	-27.99
178.644	-27.99
178.864	-114
179.084	-101.72
179.304	-19.8
179.524	0.68
179.744	-15.7
179.964	-11.61
180.184	-38.23
180.404	68.27
180.624	4.78
180.844	17.07
181.064	-1.37
181.283	-1.37
181.503	-1.37
181.723	-1.37
181.943	-21.85
182.163	68.27
182.383	10.92
182.602	19.11
182.822	15.02
183.042	-23.89
183.262	15.02
183.482	60.07
183.701	25.26
183.921	19.11
184.141	6.83
184.361	55.98
184.58	43.69
184.8	33.45
185.02	-38.23
185.239	15.02
185.459	47.79
185.679	-17.75
185.898	-7.51
186.118	2.73
186.338	-7.51
186.557	-21.85
186.777	-13.65
186.997	-15.7
187.216	47.79
187.436	41.64
187.655	-21.85
187.875	33.45
188.095	-30.04
188.314	41.64
188.534	33.45
188.753	51.88
188.973	49.83
189.192	80.55
189.412	41.64
189.631	39.59
189.851	88.75
190.07	6.83
190.29	8.87
190.509	94.89
190.729	-64.85
190.948	70.31
191.168	115.37
191.387	25.26
191.607	35.5
191.826	-15.7
192.045	-13.65
192.265	2.73
192.484	19.11
192.704	127.66
192.923	19.11
193.142	123.56
193.362	-5.46
193.581	109.22
193.8	-5.46
194.02	58.03
194.239	78.51
194.458	6.83
194.678	51.88
194.897	-1.37
195.116	51.88
195.335	55.98
195.555	51.88
195.774	0.68
195.993	-9.56
196.212	82.6
196.432	-60.76
196.651	27.31
196.87	-23.89
197.089	15.02
197.308	68.27
197.528	66.22
197.747	-11.61
197.966	80.55
198.185	90.79
198.404	-25.94
198.623	0.68
198.842	-36.18
199.062	6.83
199.281	84.65
199.5	39.59
199.719	47.79
199.938	90.79
200.157	29.35
200.376	-68.95
200.595	-1.37
200.814	51.88
201.033	31.4
201.252	70.31
201.471	53.93
201.69	-15.7
201.909	21.16
202.128	64.17
202.347	39.59
202.566	21.16
202.785	-7.51
203.004	-32.08
203.223	51.88
203.442	-23.89
203.661	-1.37
203.879	15.02
204.098	68.27
204.317	31.4
204.536	-32.08
204.755	35.5
204.974	15.02
205.193	21.16
205.411	-1.37
205.63	53.93
205.849	-23.89
206.068	4.78
206.287	76.46
206.505	19.11
206.724	-17.75
206.943	-34.13
207.162	15.02
207.381	33.45
207.599	-21.85
207.818	2.73
208.037	37.55
208.255	15.02
208.474	10.92
208.693	-25.94
208.911	47.79
209.13	64.17
209.349	94.89
209.567	101.03
209.786	31.4
210.005	35.5
210.223	-23.89
210.442	-21.85
210.661	92.84
210.879	60.07
211.098	37.55
211.316	19.11
211.535	19.11
211.753	-7.51
211.972	64.17
212.191	2.73
212.409	4.78
212.628	21.16
212.846	-27.99
213.065	-11.61
213.283	47.79
213.502	37.55
213.72	37.55
213.938	27.31
214.157	49.83
214.375	64.17
214.594	15.02
214.812	-27.99
215.031	55.98
215.249	58.03
215.467	4.78
215.686	49.83
215.904	39.59
216.122	8.87
216.341	55.98
216.559	35.5
216.778	51.88
216.996	17.07
217.214	-13.65
217.432	17.07
217.651	39.59
217.869	64.17
218.087	27.31
218.306	17.07
218.524	45.74
218.742	41.64
218.96	39.59
219.179	-71
219.397	96.94
219.615	76.46
219.833	-25.94
220.051	-48.47
220.27	25.26
220.488	109.22
220.706	62.12
220.924	88.75
221.142	51.88
221.36	25.26
221.578	15.02
221.796	41.64
222.015	27.31
222.233	21.16
222.451	55.98
222.669	39.59
222.887	29.35
223.105	4.78
223.323	10.92
223.541	2.73
223.759	121.51
223.977	80.55
224.195	129.7
224.413	82.6
224.631	80.55
224.849	0.68
225.067	-13.65
225.285	12.97
225.503	23.21
225.721	41.64
225.939	15.02
226.157	25.26
226.375	84.65
226.592	47.79
226.81	80.55
227.028	8.87
227.246	47.79
227.464	60.07
227.682	49.83
227.9	2.73
228.117	72.36
228.335	23.21
228.553	70.31
228.771	-23.89
228.989	86.7
229.206	55.98
229.424	23.21
229.642	33.45
229.86	10.92
230.077	58.03
230.295	43.69
230.513	-5.46
230.731	25.26
230.948	51.88
231.166	15.02
231.384	25.26
231.601	-56.66
231.819	47.79
232.037	-21.85
232.254	25.26
232.472	-13.65
232.689	-17.75
232.907	2.73
233.125	17.07
233.342	51.88
233.56	-9.56
233.777	55.98
233.995	-15.7
234.213	72.36
234.43	62.12
234.648	21.16
234.865	33.45
235.083	105.13
235.3	35.5
235.518	96.94
235.735	-3.41
235.953	31.4
236.17	53.93
236.388	25.26
236.605	-3.41
236.822	47.79
237.04	66.22
237.257	15.02
237.475	-21.85
237.692	-19.8
237.909	12.97
238.127	4.78
238.344	23.21
238.562	-1.37
238.779	25.26
238.996	6.83
239.214	39.59
239.431	-1.37
239.648	39.59
239.865	35.5
240.083	76.46
240.3	12.97
240.517	76.46
240.735	4.78
240.952	39.59
241.169	64.17
241.386	27.31
241.603	37.55
241.821	-73.04
242.038	55.98
242.255	-44.37
242.472	-71
242.689	51.88
242.907	19.11
243.124	-11.61
243.341	25.26
243.558	0.68
243.775	15.02
243.992	19.11
244.209	23.21
244.426	51.88
244.643	58.03
244.86	60.07
245.078	64.17
245.295	37.55
245.512	19.11
245.729	53.93
245.946	19.11
246.163	47.79
246.38	41.64
246.597	-3.41
246.814	70.31
247.031	17.07
247.248	19.11
247.464	27.31
247.681	-13.65
247.898	0.68
248.115	-9.56
248.332	23.21
248.549	55.98
248.766	47.79
248.983	84.65
249.2	31.4
249.417	55.98
249.633	2.73
249.85	33.45
250.067	31.4
250.284	23.21
250.501	-15.7
250.717	76.46
250.934	-21.85
251.151	-9.56
251.368	39.59
251.585	15.02
251.801	31.4
252.018	-30.04
252.235	43.69
252.451	33.45
252.668	0.68
252.885	94.89
253.102	62.12
253.318	-7.51
253.535	0.68
253.752	-38.23
253.968	8.87
254.185	27.31
254.401	15.02
254.618	66.22
254.835	23.21
255.051	25.26
255.268	-34.13
255.484	19.11
255.701	-36.18
255.917	15.02
256.134	-60.76
256.351	15.02
256.567	-21.85
256.784	-52.56
257	-13.65
257.217	8.87
257.433	41.64
257.65	31.4
257.866	41.64
258.082	-40.28
258.299	-19.8
258.515	62.12
258.732	23.21
258.948	-21.85
259.165	78.51
259.381	4.78
259.597	41.64
259.814	0.68
260.03	60.07
260.246	-7.51
260.463	0.68
260.679	72.36
260.895	25.26
261.112	27.31
261.328	51.88
261.544	-7.51
261.761	82.6
261.977	55.98
262.193	8.87
262.409	0.68
262.626	19.11
262.842	-19.8
263.058	-27.99
263.274	84.65
263.49	33.45
263.707	80.55
263.923	19.11
264.139	-25.94
264.355	21.16
264.571	88.75
264.787	41.64
265.004	33.45
265.22	10.92
265.436	2.73
265.652	92.84
265.868	8.87
266.084	0.68
266.3	51.88
266.516	-3.41
266.732	90.79
266.948	23.21
267.164	6.83
267.38	39.59
267.596	-23.89
267.812	64.17
268.028	64.17
268.244	-27.99
268.46	68.27
268.676	31.4
268.892	-9.56
269.108	-9.56
269.324	88.75
269.54	53.93
269.756	17.07
269.972	-60.76
270.188	-1.37
270.403	25.26
270.619	78.51
270.835	39.59
271.051	74.41
271.267	23.21
271.483	-7.51
271.698	103.08
271.914	72.36
272.13	8.87
272.346	74.41
272.562	-66.9
272.777	4.78
272.993	74.41
273.209	-36.18
273.425	15.02
273.64	-32.08
273.856	51.88
274.072	6.83
274.287	2.73
274.503	31.4
274.719	105.13
274.934	62.12
275.15	-23.89
275.366	-40.28
275.581	-27.99
275.797	-9.56
276.012	-34.13
276.228	0.68
276.444	60.07
276.659	107.18
276.875	49.83
277.09	17.07
277.306	-15.7
277.521	88.75
277.737	-9.56
277.952	-9.56
278.168	12.97
278.383	74.41
278.599	80.55
278.814	-3.41
279.03	27.31
279.245	66.22
279.461	47.79
279.676	-15.7
279.892	31.4
280.107	19.11
280.322	33.45
280.538	88.75
280.753	-19.8
280.969	78.51
281.184	68.27
281.399	111.27
281.615	-30.04
281.83	31.4
282.045	8.87
282.26	84.65
282.476	68.27
282.691	47.79
282.906	27.31
283.122	25.26
283.337	-64.85
283.552	23.21
283.767	33.45
283.983	39.59
284.198	58.03
284.413	-11.61
284.628	19.11
284.843	-83.28
285.058	55.98
285.274	-21.85
285.489	8.87
285.704	82.6
285.919	33.45
286.134	-36.18
286.349	58.03
286.564	-34.13
286.779	55.98
286.995	101.03
287.21	-1.37
287.425	29.35
287.64	37.55
287.855	17.07
288.07	12.97
288.285	80.55
288.5	66.22
288.715	127.66
288.93	-27.99
289.145	51.88
289.36	72.36
289.575	4.78
289.79	35.5
290.004	33.45
290.219	15.02
290.434	0.68
290.649	-25.94
290.864	-19.8
291.079	-23.89
291.294	39.59
291.509	39.59
291.724	8.87
291.938	19.11
292.153	-40.28
292.368	23.21
292.583	49.83
292.798	2.73
293.012	23.21
293.227	31.4
293.442	88.75
293.657	101.03
293.871	21.16
294.086	37.55
294.301	-1.37
294.516	101.03
294.73	0.68
294.945	55.98
295.16	-7.51
295.374	78.51
295.589	51.88
295.804	25.26
296.018	47.79
296.233	27.31
296.447	70.31
296.662	27.31
296.877	8.87
297.091	115.37
297.306	-1.37
297.52	60.07
297.735	21.16
297.949	-32.08
298.164	76.46
298.378	51.88
298.593	80.55
298.807	-40.28
299.022	45.74
299.236	64.17
299.451	47.79
299.665	25.26
299.88	31.4
300.094	51.88
300.309	92.84
300.523	98.99
300.737	27.31
300.952	-9.56
301.166	96.94
301.381	-1.37
301.595	107.18
301.809	-7.51
302.024	12.97
302.238	-9.56
302.452	121.51
302.667	53.93
302.881	88.75
303.095	80.55
303.309	21.16
303.524	25.26
303.738	60.07
303.952	15.02
304.166	115.37
304.381	2.73
304.595	88.75
304.809	49.83
305.023	68.27
305.237	27.31
305.452	-21.85
305.666	-25.94
305.88	29.35
306.094	21.16
306.308	51.88
306.522	90.79
306.736	55.98
306.95	23.21
307.164	19.11
307.379	33.45
307.593	76.46
307.807	103.08
308.021	109.22
308.235	-36.18
308.449	-5.46
308.663	21.16
308.877	23.21
309.091	-36.18
309.305	23.21
309.519	-46.42
309.733	41.64
309.947	-50.52
310.161	55.98
310.374	78.51
310.588	27.31
310.802	-13.65
311.016	64.17
311.23	29.35
311.444	-9.56
311.658	15.02
311.872	33.45
312.085	29.35
312.299	-1.37
312.513	-30.04
312.727	21.16
312.941	23.21
313.154	27.31
313.368	78.51
313.582	-30.04
313.796	-13.65
314.009	-34.13
314.223	-9.56
314.437	-5.46
314.651	-38.23
314.864	25.26
315.078	15.02
315.292	-13.65
315.505	-34.13
315.719	8.87
315.933	47.79
316.146	60.07
316.36	2.73
316.573	49.83
316.787	96.94
317.001	23.21
317.214	53.93
317.428	10.92
317.641	-46.42
317.855	-34.13
318.068	62.12
318.282	60.07
318.495	162.47
318.709	31.4
318.922	-5.46
319.136	27.31
319.349	-13.65
319.563	53.93
319.776	41.64
319.99	8.87
320.203	41.64
320.417	37.55
320.63	-17.75
320.843	37.55
321.057	60.07
321.27	17.07
321.483	-7.51
321.697	25.26
321.91	94.89
322.124	74.41
322.337	33.45
322.55	-19.8
322.763	80.55
322.977	78.51
323.19	-19.8
323.403	74.41
323.617	55.98
323.83	25.26
324.043	78.51
324.256	15.02
324.469	19.11
324.683	72.36
324.896	-23.89
325.109	31.4
325.322	-34.13
325.535	-40.28
325.748	35.5
325.962	80.55
326.175	88.75
326.388	31.4
326.601	-23.89
326.814	29.35
327.027	21.16
327.24	33.45
327.453	27.31
327.666	33.45
327.879	101.03
328.092	45.74
328.305	47.79
328.518	-1.37
328.731	33.45
328.944	60.07
329.157	0.68
329.37	64.17
329.583	27.31
329.796	15.02
330.009	2.73
330.222	27.31
330.435	47.79
330.648	6.83
330.861	31.4
331.073	58.03
331.286	60.07
331.499	60.07
331.712	-5.46
331.925	25.26
332.138	33.45
332.35	49.83
332.563	-91.48
332.776	21.16
332.989	-9.56
333.202	105.13
333.414	47.79
333.627	35.5
333.84	39.59
334.053	29.35
334.265	-15.7
334.478	45.74
334.691	35.5
334.903	-15.7
335.116	72.36
335.329	96.94
335.541	12.97
335.754	80.55
335.966	64.17
336.179	2.73
336.392	-5.46
336.604	51.88
336.817	27.31
337.029	41.64
337.242	17.07
337.454	41.64
337.667	6.83
337.88	41.64
338.092	17.07
338.305	19.11
338.517	-19.8
338.729	-23.89
338.942	66.22
339.154	-17.75
339.367	21.16
339.579	58.03
339.792	55.98
340.004	90.79
340.217	19.11
340.429	25.26
340.641	58.03
340.854	8.87
341.066	-23.89
341.278	66.22
341.491	51.88
341.703	58.03
341.915	-27.99
342.128	66.22
342.34	25.26
342.552	8.87
342.764	25.26
342.977	-27.99
343.189	82.6
343.401	64.17
343.613	15.02
343.826	78.51
344.038	113.32
344.25	76.46
344.462	17.07
344.674	-25.94
344.886	-27.99
345.099	55.98
345.311	-32.08
345.523	-9.56
345.735	-11.61
345.947	25.26
346.159	35.5
346.371	0.68
346.583	-23.89
346.795	41.64
347.007	-30.04
347.219	53.93
347.431	84.65
347.643	80.55
347.855	-1.37
348.067	15.02
348.279	2.73
348.491	27.31
348.703	70.31
348.915	64.17
349.127	6.83
349.339	41.64
349.551	-1.37
349.763	43.69
349.975	88.75
350.187	58.03
350.399	92.84
350.61	-1.37
350.822	-36.18
351.034	88.75
351.246	-81.24
351.458	88.75
351.669	-13.65
351.881	41.64
352.093	2.73
352.305	27.31
352.517	60.07
352.728	88.75
352.94	27.31
353.152	96.94
353.363	80.55
353.575	-5.46
353.787	68.27
353.999	39.59
354.21	55.98
354.422	31.4
354.633	29.35
354.845	58.03
355.057	6.83
355.268	47.79
355.48	45.74
355.692	47.79
355.903	8.87
356.115	23.21
356.326	-30.04
356.538	27.31
356.749	4.78
356.961	47.79
357.172	72.36
357.384	2.73
357.595	66.22
357.807	12.97
358.018	-11.61
358.23	-73.04
358.441	55.98
358.653	107.18
358.864	6.83
359.075	2.73
359.287	137.9
359.498	60.07
359.709	84.65
359.921	-17.75
360.132	-15.7
360.344	-25.94
360.555	17.07
360.766	88.75
360.977	117.42
361.189	80.55
361.4	47.79
361.611	19.11
361.823	66.22
362.034	55.98
362.245	-23.89
362.456	-17.75
362.667	33.45
362.879	-13.65
363.09	-11.61
363.301	82.6
363.512	23.21
363.723	49.83
363.935	-38.23
364.146	15.02
364.357	96.94
364.568	23.21
364.779	33.45
364.99	25.26
365.201	2.73
365.412	43.69
365.623	-13.65
365.834	-38.23
366.045	70.31
366.256	86.7
366.467	12.97
366.678	47.79
366.889	92.84
367.1	2.73
367.311	-50.52
367.522	115.37
367.733	8.87
367.944	23.21
368.155	96.94
368.366	62.12
368.577	-30.04
368.788	74.41
368.999	58.03
369.209	39.59
369.42	98.99
369.631	55.98
369.842	17.07
370.053	-34.13
370.264	62.12
370.474	10.92
370.685	17.07
370.896	-34.13
371.107	35.5
371.317	31.4
371.528	25.26
371.739	58.03
371.95	31.4
372.16	-38.23
372.371	31.4
372.582	60.07
372.792	23.21
373.003	55.98
373.214	55.98
373.424	82.6
373.635	88.75
373.846	74.41
374.056	23.21
374.267	51.88
374.477	51.88
374.688	-38.23
374.898	-30.04
375.109	17.07
375.319	88.75
375.53	90.79
375.74	96.94
375.951	154.28
376.161	8.87
376.372	31.4
376.582	49.83
376.793	-7.51
377.003	-34.13
377.214	23.21
377.424	-1.37
377.635	53.93
377.845	-7.51
378.055	115.37
378.266	33.45
378.476	-30.04
378.686	152.23
378.897	10.92
379.107	-25.94
379.317	58.03
379.528	0.68
379.738	12.97
379.948	25.26
380.158	74.41
380.369	25.26
380.579	166.57
380.789	109.22
380.999	58.03
381.21	49.83
381.42	55.98
381.63	-58.71
381.84	23.21
382.05	66.22
382.261	35.5
382.471	84.65
382.681	21.16
382.891	72.36
383.101	31.4
383.311	12.97
383.521	37.55
383.731	84.65
383.941	76.46
384.151	39.59
384.361	23.21
384.571	74.41
384.781	68.27
384.991	43.69
385.201	88.75
385.411	37.55
385.621	21.16
385.831	-13.65
386.041	51.88
386.251	23.21
386.461	68.27
386.671	19.11
386.881	55.98
387.091	92.84
387.301	15.02
387.511	45.74
387.72	25.26
387.93	-13.65
388.14	96.94
388.35	109.22
388.56	19.11
388.769	119.46
388.979	90.79
389.189	51.88
389.399	45.74
389.609	23.21
389.818	19.11
390.028	64.17
390.238	6.83
390.447	-1.37
390.657	41.64
390.867	-54.61
391.076	-75.09
391.286	-48.47
391.496	72.36
391.705	19.11
391.915	123.56
392.125	-7.51
392.334	-25.94
392.544	39.59
392.753	49.83
392.963	23.21
393.172	27.31
393.382	-17.75
393.591	92.84
393.801	31.4
394.01	19.11
394.22	58.03
394.429	82.6
394.639	64.17
394.848	39.59
395.058	82.6
395.267	19.11
395.477	0.68
395.686	10.92
395.895	72.36
396.105	98.99
396.314	96.94
396.524	158.38
396.733	41.64
396.942	88.75
397.152	82.6
397.361	23.21
397.57	31.4
397.78	66.22
397.989	6.83
398.198	76.46
398.407	-23.89
398.617	55.98
398.826	74.41
399.035	53.93
399.244	58.03
399.453	98.99
399.663	10.92
399.872	58.03
400.081	78.51
400.29	96.94
400.499	78.51
400.708	107.18
400.917	74.41
401.127	115.37
401.336	70.31
401.545	154.28
401.754	70.31
401.963	72.36
402.172	-64.85
402.381	2.73
402.59	109.22
402.799	84.65
403.008	115.37
403.217	101.03
403.426	37.55
403.635	23.21
403.844	144.04
404.053	107.18
404.262	70.31
404.471	70.31
404.68	127.66
404.888	88.75
405.097	121.51
405.306	146.09
405.515	178.86
405.724	80.55
405.933	74.41
406.142	185
406.35	139.94
406.559	187.05
406.768	148.14
406.977	187.05
407.185	47.79
407.394	55.98
407.603	92.84
407.812	123.56
408.02	92.84
408.229	178.86
408.438	109.22
408.646	146.09
408.855	111.27
409.064	121.51
409.272	55.98
409.481	117.42
409.69	215.72
409.898	111.27
410.107	191.14
410.315	262.82
410.524	55.98
410.733	277.16
410.941	166.57
411.15	244.39
411.358	228.01
411.567	254.63
411.775	203.43
411.984	178.86
412.192	219.82
412.401	172.71
412.609	361.13
412.818	236.2
413.026	318.12
413.234	219.82
413.443	248.49
413.651	234.15
413.86	340.65
414.068	346.79
414.276	361.13
414.485	328.36
414.693	320.17
414.901	377.51
415.11	459.43
415.318	373.41
415.526	373.41
415.734	383.65
415.943	377.51
416.151	430.76
416.359	412.32
416.567	447.14
416.776	447.14
416.984	434.85
417.192	516.77
417.4	516.77
417.608	488.1
417.817	529.06
418.025	641.7
418.233	629.41
418.441	613.03
418.649	555.68
418.857	604.83
419.065	688.8
419.273	670.37
419.481	684.7
419.689	772.77
419.897	744.1
420.105	797.34
420.313	797.34
420.521	858.78
420.729	879.26
420.937	850.59
421.145	914.08
421.353	1018.52
421.561	940.7
421.769	959.13
421.977	1051.29
422.185	1063.58
422.393	1137.31
422.601	1172.12
422.809	1139.35
423.017	1200.79
423.224	1270.42
423.432	1303.19
423.64	1288.85
423.848	1383.06
424.056	1344.15
424.263	1493.65
424.471	1548.95
424.679	1481.36
424.887	1649.3
425.094	1643.15
425.302	1720.98
425.51	1620.63
425.718	1763.98
425.925	1747.6
426.133	1841.81
426.341	1915.53
426.548	2003.6
426.756	2067.08
426.964	1991.31
427.171	2185.87
427.379	2251.4
427.586	2241.16
427.794	2374.28
428.001	2472.58
428.209	2448.01
428.417	2581.12
428.624	2628.23
428.832	2673.28
429.039	2636.42
429.247	2613.89
429.454	2951.81
429.662	3211.9
429.869	2906.75
430.076	3201.66
430.284	3095.16
430.491	3109.5
430.699	3334.78
430.906	3322.49
431.114	3334.78
431.321	3541.62
431.528	3482.23
431.736	3857.01
431.943	4006.51
432.15	3875.44
432.358	3902.06
432.565	4055.66
432.772	4010.61
432.979	4412.01
433.187	4297.32
433.394	4364.9
433.601	4692.58
433.808	4743.78
434.016	4678.24
434.223	4856.42
434.43	5093.98
434.637	5110.36
434.844	5372.5
435.052	5593.69
435.259	5403.22
435.466	5483.09
435.673	5503.57
435.88	5841.49
436.087	6150.73
436.294	6175.31
436.501	6044.24
436.708	6353.48
436.915	6502.98
437.122	6638.15
437.329	6830.66
437.537	6683.2
437.743	6754.88
437.95	6996.54
438.157	7223.87
438.364	7399.99
438.571	7500.34
438.778	7365.18
438.985	8243.76
439.192	7830.07
439.399	8092.21
439.606	7711.28
439.813	8380.97
440.02	8972.83
440.227	8618.54
440.433	8573.48
440.64	8962.59
440.847	9069.09
441.054	9271.84
441.261	9726.49
441.467	9574.94
441.674	9908.76
441.881	9968.15
442.088	10138.13
442.294	9986.58
442.501	10492.43
442.708	10639.88
442.914	11072
443.121	11090.43
443.328	10824.2
443.534	11493.88
443.741	11608.57
443.948	11414.01
444.154	12130.8
444.361	12239.34
444.568	12251.63
444.774	12192.24
444.981	12466.67
445.187	12732.9
445.394	13031.91
445.6	13185.51
445.807	14453.2
446.013	13701.59
446.22	13826.52
446.426	14586.32
446.633	14721.48
446.839	15350.21
447.046	14475.73
447.252	15518.14
447.459	15475.13
447.665	15233.47
447.871	16263.6
448.078	16597.42
448.284	16032.18
448.491	16482.74
448.697	17023.4
448.903	17152.42
449.11	17463.71
449.316	17246.63
449.522	17639.84
449.728	17901.98
449.935	18069.91
450.141	18127.25
450.347	18846.09
450.553	17938.84
450.76	18184.6
450.966	18747.79
451.172	18547.09
451.378	19186.05
451.584	18995.59
451.791	19306.88
451.997	19315.08
452.203	19642.75
452.409	19448.19
452.615	19632.51
452.821	18557.33
453.027	18360.72
453.233	19638.65
453.44	18880.91
453.646	18909.58
453.852	19020.17
454.058	19526.02
454.264	18801.04
454.47	19327.36
454.676	18553.23
454.882	19519.87
455.088	17914.27
455.294	18049.43
455.5	18368.91
455.705	18803.08
455.911	17846.68
456.117	17643.93
456.323	17258.92
456.529	16161.2
456.735	16998.82
456.941	16615.85
457.147	16626.09
457.352	15892.92
457.558	15720.89
457.764	15874.49
457.97	15372.74
458.176	15192.51
458.381	15260.1
458.587	14346.7
458.793	14322.13
458.999	13541.85
459.204	14660.04
459.41	14125.52
459.616	13435.36
459.821	13259.23
460.027	13277.66
460.233	12886.5
460.438	12446.19
460.644	12575.21
460.85	11936.24
461.055	11860.47
461.261	11934.2
461.466	10781.19
461.672	10531.34
461.878	11352.57
462.083	10740.23
462.289	10189.33
462.494	10181.14
462.7	9867.8
462.905	9640.47
463.111	9900.56
463.316	9724.44
463.522	9398.81
463.727	9730.58
463.932	9581.08
464.138	9466.39
464.343	9716.25
464.549	9208.35
464.754	9538.07
464.959	9374.24
465.165	9488.92
465.37	9116.19
465.575	8675.88
465.781	9093.66
465.986	9167.39
466.191	8895.01
466.397	8659.49
466.602	8153.65
466.807	8509.99
467.012	8679.97
467.218	8473.13
467.423	8315.44
467.628	8471.08
467.833	8813.09
468.038	8464.94
468.244	8276.52
468.449	8698.41
468.654	8520.23
468.859	8208.94
469.064	8088.11
469.269	7920.18
469.474	7813.68
469.679	8245.8
469.885	7928.37
470.09	7928.37
470.295	7938.61
470.5	7625.27
470.705	7854.64
470.91	7692.85
471.115	7582.26
471.32	7828.02
471.525	7598.65
471.73	7672.37
471.935	7412.28
472.139	7119.42
472.344	7330.36
472.549	7121.47
472.754	7090.75
472.959	6922.82
473.164	6967.87
473.369	6666.82
473.574	7027.26
473.778	6623.81
473.983	6787.65
474.188	6898.24
474.393	6474.31
474.598	6636.1
474.802	6515.27
475.007	6500.94
475.212	6310.47
475.417	6240.84
475.621	6345.29
475.826	6369.87
476.031	6201.93
476.235	5968.46
476.44	6212.17
476.645	5997.14
476.849	6072.91
477.054	5935.7
477.259	5929.55
477.463	5737.04
477.668	5655.12
477.872	5843.54
478.077	5540.44
478.282	5519.96
478.486	5384.79
478.691	5450.33
478.895	5454.42
479.1	5440.09
479.304	5485.14
479.509	5247.58
479.713	5323.35
479.918	5374.55
480.122	5200.48
480.326	5329.5
480.531	5093.98
480.735	5200.48
480.94	5165.66
481.144	5388.89
481.348	5124.7
481.553	5282.39
481.757	4868.7
481.961	4913.76
482.166	5245.53
482.37	4880.99
482.574	5057.12
482.778	4936.29
482.983	5143.13
483.187	5022.3
483.391	5069.41
483.595	4913.76
483.8	4930.14
484.004	5057.12
484.208	5077.6
484.412	5053.02
484.616	4936.29
484.821	4846.18
485.025	4987.49
485.229	4954.72
485.433	4956.77
485.637	5001.82
485.841	4815.46
486.045	5024.35
486.249	5079.65
486.453	4905.57
486.657	4934.24
486.861	4864.61
487.065	4889.18
487.269	4858.46
487.473	4995.68
487.677	5106.27
487.881	5065.31
488.085	4999.77
488.289	5122.65
488.493	5075.55
488.697	5192.28
488.901	5093.98
489.105	4969.05
489.309	4981.34
489.512	4987.49
489.716	5118.56
489.92	5063.26
490.124	5081.69
490.328	5145.18
490.531	5110.36
490.735	5161.56
490.939	5093.98
491.143	5003.87
491.346	5192.28
491.55	5206.62
491.754	5229.15
491.958	5192.28
492.161	5245.53
492.365	5208.67
492.569	5231.19
492.772	5352.02
492.976	5372.5
493.18	5327.45
493.383	5423.7
493.587	5442.14
493.79	5456.47
493.994	5542.49
494.197	5311.07
494.401	5435.99
494.605	5569.11
494.808	5612.12
495.012	5634.64
495.215	5710.42
495.419	5595.73
495.622	5691.99
495.825	5737.04
496.029	5816.91
496.232	5917.26
496.436	5915.22
496.639	6111.82
496.843	6034
497.046	5978.7
497.249	6224.46
497.453	6115.92
497.656	6163.02
497.859	6285.9
498.063	6304.33
498.266	6447.69
498.469	6451.78
498.673	6539.85
498.876	6609.48
499.079	6795.84
499.282	6543.94
499.485	6734.4
499.689	7008.83
499.892	6965.82
500.095	6873.67
500.298	7193.15
500.501	7115.33
500.705	7277.12
500.908	7160.38
501.111	7455.29
501.314	7445.05
501.517	7451.19
501.72	7641.65
501.923	7684.66
502.126	7830.07
502.329	7930.42
502.532	8102.45
502.735	7899.7
502.938	8028.72
503.141	8337.96
503.344	8239.66
503.547	8157.74
503.75	8380.97
503.953	8434.22
504.156	8581.67
504.359	8729.13
504.562	8768.04
504.765	9122.34
504.968	9198.11
505.17	9230.88
505.373	9114.14
505.576	9306.65
505.779	9208.35
505.982	9447.96
506.185	9738.77
506.387	9763.35
506.59	9976.34
506.793	10002.96
506.996	10031.63
507.198	10293.77
507.401	10082.83
507.604	10195.47
507.807	10582.54
508.009	10793.48
508.212	10854.92
508.415	10818.05
508.617	10899.97
508.82	10799.62
509.022	10844.68
509.225	11086.34
509.428	11282.94
509.63	11549.18
509.833	11741.69
510.035	11926
510.238	11629.05
510.44	12024.31
510.643	12196.34
510.845	12216.82
511.048	12188.14
511.25	12501.48
511.453	12585.45
511.655	13062.63
511.858	12698.09
512.06	12972.52
512.262	12745.19
512.465	12845.54
512.667	13169.12
512.87	13351.39
513.072	13289.95
513.274	13564.38
513.477	13722.07
513.679	13902.29
513.881	13986.26
514.084	14170.58
514.286	14270.93
514.488	13978.07
514.69	14641.61
514.893	14541.26
515.095	14778.83
515.297	15131.08
515.499	15145.41
515.701	15284.67
515.904	15442.37
516.106	15399.36
516.308	15563.2
516.51	16030.13
516.712	15753.66
516.914	16228.79
517.116	16310.71
517.318	16396.72
517.52	16488.88
517.722	16869.8
517.925	16798.12
518.127	17031.59
518.329	16961.96
518.531	17293.73
518.733	17746.33
518.935	17725.85
519.136	17971.61
519.338	18110.87
519.54	18151.83
519.742	18205.08
519.944	18368.91
520.146	18798.99
520.348	18897.29
520.55	18674.06
520.752	18975.11
520.954	19392.9
521.155	19016.07
521.357	19419.52
521.559	19415.43
521.761	19896.7
521.963	19951.99
522.164	19919.23
522.366	20337.01
522.568	20142.46
522.77	20347.25
522.971	20812.14
523.173	20791.66
523.375	21014.89
523.576	20963.69
523.778	20990.31
523.98	21090.66
524.181	21254.5
524.383	21483.87
524.584	21846.37
524.786	21715.3
524.988	21707.1
525.189	22126.94
525.391	22368.6
525.592	22290.77
525.794	22548.82
525.995	22272.34
526.197	22616.4
526.398	22733.14
526.6	22966.6
526.801	23302.47
527.003	23159.11
527.204	22999.37
527.406	23300.42
527.607	23388.49
527.808	23578.95
528.01	23191.88
528.211	23515.46
528.412	24004.92
528.614	23748.93
528.815	23890.24
529.016	23896.38
529.218	23867.71
529.419	23920.96
529.62	24129.85
529.822	24058.17
530.023	24416.57
530.224	24484.15
530.425	24328.5
530.626	24148.28
530.828	24277.3
531.029	24758.58
531.23	24394.04
531.431	24443.19
531.632	24856.88
531.833	24779.06
532.035	24836.4
532.236	24889.65
532.437	24830.26
532.638	25002.29
532.839	24889.65
533.04	24994.09
533.241	24895.79
533.442	25356.58
533.643	25037.1
533.844	25260.33
534.045	25164.07
534.246	24744.24
534.447	25014.57
534.648	24826.16
534.849	25102.64
535.05	25071.92
535.251	25350.44
535.451	25119.02
535.652	25561.38
535.853	25418.02
536.054	25303.34
536.255	25354.54
536.456	25137.45
536.657	25624.87
536.857	25139.5
537.058	25243.95
537.259	25295.14
537.46	25305.38
537.66	25211.18
537.861	25418.02
538.062	25237.8
538.263	25438.5
538.463	25436.45
538.664	25385.26
538.865	25377.06
539.065	25377.06
539.266	25155.88
539.466	25360.68
539.667	25225.51
539.868	25467.17
540.068	25315.62
540.269	25577.76
540.469	25323.82
540.67	25233.71
540.87	25346.34
541.071	25354.54
541.271	25342.25
541.472	25422.12
541.672	24983.85
541.873	25262.38
542.073	24949.04
542.274	25749.79
542.474	25213.23
542.675	25282.86
542.875	25508.13
543.075	25200.94
543.276	24883.5
543.476	25717.03
543.676	25235.75
543.877	25215.27
544.077	25180.46
544.277	25344.3
544.478	25018.67
544.678	25434.41
544.878	25237.8
545.078	25563.43
545.279	25245.99
545.479	25053.48
545.679	25493.8
545.879	25385.26
546.079	25370.92
546.28	25293.1
546.48	25129.26
546.68	25395.5
546.88	25239.85
547.08	25114.92
547.28	25649.44
547.48	24955.18
547.68	25512.23
547.88	25039.15
548.081	25301.29
548.281	25276.71
548.481	25272.62
548.681	25280.81
548.881	25252.14
549.081	25260.33
549.28	25229.61
549.48	25336.1
549.68	25545
549.88	25528.61
550.08	25182.51
550.28	25368.87
550.48	25252.14
550.68	25313.58
550.88	25334.06
551.08	25045.29
551.279	25569.57
551.479	24813.87
551.679	25207.08
551.879	25217.32
552.079	25145.64
552.278	25170.22
552.478	25014.57
552.678	25016.62
552.878	25129.26
553.077	25133.36
553.277	24908.08
553.477	25256.23
553.676	25022.76
553.876	24807.73
554.076	25012.52
554.275	24779.06
554.475	24764.72
554.674	24967.47
554.874	25149.74
555.074	24713.52
555.273	24748.34
555.473	25043.24
555.672	24992.05
555.872	24791.34
556.071	24758.58
556.271	25030.96
556.47	24549.68
556.67	24512.82
556.869	24875.31
557.068	24789.3
557.268	24740.15
557.467	24637.75
557.667	24617.27
557.866	24525.11
558.065	24449.33
558.265	24219.96
558.464	24144.19
558.663	24424.76
558.863	24322.36
559.062	24670.51
559.261	24181.05
559.461	24351.03
559.66	23834.94
559.859	24213.82
560.058	24101.18
560.258	24047.93
560.457	23908.67
560.656	23931.2
560.855	23943.49
561.054	23925.05
561.253	23787.84
561.453	23923.01
561.652	23941.44
561.851	23783.74
562.05	23615.81
562.249	23550.28
562.448	24025.4
562.647	23693.63
562.846	23398.73
563.045	23443.78
563.244	23345.48
563.443	23583.04
563.642	23370.05
563.841	23466.31
564.04	23181.64
564.239	23345.48
564.438	23140.68
564.637	23085.39
564.836	22987.08
565.035	22817.1
565.234	22886.73
565.432	22567.25
565.631	22944.08
565.83	22499.67
566.029	22800.72
566.228	22497.62
566.427	22327.64
566.625	22147.42
566.824	22231.38
567.023	22264.15
567.222	21692.77
567.42	22237.53
567.619	22354.26
567.818	22153.56
568.016	21893.47
568.215	22174.04
568.414	21866.84
568.612	22022.49
568.811	21793.12
569.01	22004.06
569.208	21438.82
569.407	21905.76
569.605	21512.55
569.804	21817.69
570.002	21469.54
570.201	21418.34
570.4	21313.89
570.598	20975.98
570.797	21078.38
570.995	21193.06
571.193	20924.78
571.392	21164.39
571.59	20945.26
571.789	20830.57
571.987	20769.13
572.186	20625.78
572.384	21014.89
572.582	20789.61
572.781	20593.01
572.979	20453.75
573.177	20660.59
573.376	20347.25
573.574	20234.61
573.772	20308.34
573.971	20271.48
574.169	20101.5
574.367	19915.13
574.565	20042.1
574.763	20205.94
574.962	20060.54
575.16	19632.51
575.358	19954.04
575.556	19810.68
575.754	20085.11
575.952	19405.19
576.151	19583.36
576.349	19145.09
576.547	19630.46
576.745	19542.4
576.943	19489.15
577.141	19141
577.339	19251.59
577.537	19345.8
577.735	19282.31
577.933	19042.7
578.131	19005.83
578.329	18913.67
578.527	18921.87
578.725	18930.06
578.923	18604.43
579.121	18747.79
579.319	18743.69
579.516	18798.99
579.714	18751.88
579.912	18407.83
580.11	18352.53
580.308	18794.89
580.506	18360.72
580.704	18184.6
580.901	18213.27
581.099	18571.66
581.297	18332.05
581.495	18289.04
581.692	18379.15
581.89	18186.65
582.088	18233.75
582.285	18045.34
582.483	18016.66
582.681	18065.81
582.878	17703.32
583.076	17660.32
583.274	17875.35
583.471	17566.11
583.669	17648.03
583.866	17506.72
584.064	17619.36
584.262	17320.35
584.459	17469.86
584.657	17449.38
584.854	17586.59
585.052	17263.01
585.249	17242.53
585.447	17209.76
585.644	16996.78
585.841	17185.19
586.039	17107.37
586.236	17086.89
586.434	17129.89
586.631	16642.48
586.828	16767.4
587.026	16861.61
587.223	16769.45
587.42	16710.06
587.618	16400.82
587.815	16613.81
588.012	16568.75
588.21	16687.53
588.407	16519.6
588.604	16345.52
588.801	16300.47
588.999	16603.57
589.196	16234.93
589.393	16277.94
589.59	16349.62
589.787	16302.51
589.984	16120.24
590.182	16023.99
590.379	16073.14
590.576	15956.41
590.773	16067
590.97	15794.62
591.167	15776.19
591.364	15681.98
591.561	15731.13
591.758	15663.55
591.955	15600.06
592.152	15729.08
592.349	15518.14
592.546	15530.43
592.743	15395.26
592.94	15118.79
593.137	15307.2
593.334	15376.83
593.531	15374.78
593.727	15251.91
593.924	15407.55
594.121	15350.21
594.318	15135.17
594.515	14866.89
594.712	15176.13
594.908	14770.63
595.105	14934.47
595.302	14842.31
595.499	14809.54
595.696	14776.78
595.892	14657.99
596.089	14653.9
596.286	14916.04
596.482	14557.64
596.679	14664.14
596.876	14629.32
597.072	14662.09
597.269	14418.38
597.466	14350.8
597.662	14416.33
597.859	14596.56
598.055	14492.11
598.252	14289.36
598.448	14121.43
598.645	14205.39
598.841	13687.26
599.038	14010.84
599.234	14080.47
599.431	14117.33
599.627	14019.03
599.824	14014.93
600.02	13945.3
600.217	13703.64
600.413	13740.5
600.609	13775.32
600.806	13468.13
601.002	13871.57
601.198	13525.47
601.395	13744.6
601.591	13459.93
601.787	13724.12
601.984	13484.51
602.18	13545.95
602.376	13320.67
602.572	13335.01
602.769	13328.86
602.965	13107.68
603.161	13347.3
603.357	13318.62
603.553	13062.63
603.75	12941.8
603.946	13083.11
604.142	13036
604.338	12866.02
604.534	12917.22
604.73	12997.09
604.926	12872.17
605.122	12798.44
605.318	12642.79
605.514	12825.06
605.71	12663.27
605.906	12755.43
606.102	12794.34
606.298	12661.23
606.494	12438
606.69	12573.16
606.886	12382.7
607.082	12366.32
607.278	12487.15
607.474	12364.27
607.67	12433.9
607.866	12288.5
608.062	12419.57
608.257	12278.26
608.453	12157.43
608.649	12341.74
608.845	12145.14
609.041	12095.99
609.236	11966.96
609.432	12042.74
609.628	11993.59
609.824	12024.31
610.019	12044.79
610.215	11911.67
610.411	11807.22
610.606	11883
610.802	11768.31
610.998	11872.76
611.193	11805.17
611.389	11647.48
611.584	11764.22
611.78	11700.73
611.976	11659.77
612.171	11917.81
612.367	11553.27
612.562	11727.35
612.758	11596.28
612.953	11375.1
613.149	11780.6
613.344	11553.27
613.539	11577.85
613.735	11497.98
613.93	11602.43
614.126	11364.86
614.321	11364.86
614.517	11448.83
614.712	11323.9
614.907	11219.46
615.103	11391.48
615.298	11207.17
615.493	11377.15
615.688	11160.06
615.884	11303.42
616.079	11145.73
616.274	11315.71
616.47	11270.65
616.665	11235.84
616.86	10985.99
617.055	11121.15
617.25	11088.39
617.445	11043.33
617.641	11031.04
617.836	11164.16
618.031	10787.33
618.226	10920.45
618.421	10975.75
618.616	10926.6
618.811	10732.04
619.006	10781.19
619.201	10488.33
619.396	10549.77
619.591	10539.53
619.786	10541.58
619.981	10467.85
620.176	10680.84
620.371	10433.04
620.566	10351.12
620.761	10349.07
620.956	10408.46
621.151	10285.58
621.346	10263.05
621.541	10097.17
621.735	10310.16
621.93	10058.26
622.125	9982.48
622.32	9849.36
622.515	9972.24
622.709	9994.77
622.904	10025.49
623.099	9671.19
623.294	9730.58
623.488	9689.62
623.683	9781.78
623.878	9617.94
624.072	9648.66
624.267	9669.14
624.462	9357.85
624.656	9374.24
624.851	9386.52
625.046	9339.42
625.24	9247.26
625.435	9159.2
625.629	9167.39
625.824	9064.99
626.018	9099.81
626.213	9056.8
626.407	8954.4
626.602	8905.25
626.796	8710.69
626.991	8927.78
627.185	8870.44
627.38	8790.56
627.574	8716.84
627.768	8743.46
627.963	8626.73
628.157	8575.53
628.352	8522.28
628.546	8426.03
628.74	8546.86
628.935	8542.76
629.129	8325.68
629.323	8178.22
629.517	8208.94
629.712	7977.52
629.906	8229.42
630.1	8227.37
630.294	8018.48
630.489	8198.7
630.683	7991.86
630.877	8141.36
631.071	7817.78
631.265	7750.2
631.459	7705.14
631.653	7682.61
631.848	7815.73
632.042	7672.37
632.236	7639.61
632.43	7600.69
632.624	7481.91
632.818	7584.31
633.012	7395.9
633.206	7354.94
633.4	7512.63
633.594	7322.17
633.788	7307.84
633.982	7373.37
634.176	7414.33
634.369	7105.09
634.563	7232.06
634.757	7158.33
634.951	7328.31
635.145	7158.33
635.339	7279.16
635.533	6996.54
635.726	6969.92
635.92	7146.05
636.114	6820.42
636.308	6908.48
636.501	6849.09
636.695	6969.92
636.889	6711.88
637.083	6765.12
637.276	6664.77
637.47	6652.49
637.664	6568.52
637.857	6611.53
638.051	6646.34
638.244	6664.77
638.438	6451.78
638.632	6545.99
638.825	6357.58
639.019	6591.05
639.212	6476.36
639.406	6242.89
639.599	6378.06
639.793	6406.73
639.986	6283.85
640.18	6216.27
640.373	6257.23
640.567	6150.73
640.76	6197.84
640.954	5925.46
641.147	6038.09
641.34	5950.03
641.534	6093.39
641.727	5964.37
641.92	5960.27
642.114	6036.05
642.307	5847.63
642.5	5874.26
642.694	5593.69
642.887	5870.16
643.08	5806.67
643.273	5741.14
643.467	5663.32
643.66	5638.74
643.853	5681.75
644.046	5421.66
644.239	5503.57
644.432	5405.27
644.626	5489.24
644.819	5419.61
645.012	5356.12
645.205	5544.53
645.398	5298.78
645.591	5456.47
645.784	5405.27
645.977	5169.76
646.17	5292.63
646.363	5175.9
646.556	5139.04
646.749	5225.05
646.942	5091.93
647.135	5100.12
647.328	5085.79
647.521	4962.91
647.714	4901.47
647.907	5118.56
648.099	4934.24
648.292	4926.05
648.485	4854.37
648.678	4872.8
648.871	4686.44
649.064	4774.5
649.256	4883.04
649.449	4848.22
649.642	4721.25
649.835	4766.31
650.027	4786.79
650.22	4864.61
650.413	4598.37
650.605	4543.08
650.798	4538.98
650.991	4543.08
651.183	4657.76
651.376	4479.59
651.568	4528.74
651.761	4495.97
651.954	4409.96
652.146	4397.67
652.339	4389.48
652.531	4432.49
652.724	4360.81
652.916	4207.21
653.109	4133.48
653.301	4270.7
653.494	4303.46
653.686	4213.35
653.879	4311.66
654.071	4203.11
654.263	4268.65
654.456	4375.14
654.648	4262.51
654.84	4035.18
655.033	4024.94
655.225	4002.41
655.417	4047.47
655.61	4217.45
655.802	4113
655.994	4063.85
656.186	4057.71
656.379	3932.78
656.571	3900.02
656.763	3865.2
656.955	3828.34
657.148	3996.27
657.34	3992.17
657.532	3752.56
657.724	3838.58
657.916	3840.62
658.108	3689.07
658.3	3787.38
658.492	3863.15
658.684	3623.54
658.876	3750.51
659.068	3703.41
659.26	3605.11
659.452	3717.75
659.644	3601.01
659.836	3648.11
660.028	3529.33
660.22	3527.28
660.412	3580.53
660.604	3494.52
660.796	3451.51
660.988	3607.16
661.18	3623.54
661.372	3488.37
661.563	3469.94
661.755	3422.84
661.947	3441.27
662.139	3297.91
662.331	3504.76
662.522	3297.91
662.714	3400.31
662.906	3385.97
663.097	3256.95
663.289	3236.47
663.481	3228.28
663.673	3228.28
663.864	3220.09
664.056	3250.81
664.247	3154.55
664.439	3033.72
664.631	3179.13
664.822	3261.05
665.014	3140.22
665.205	3146.36
665.397	3185.27
665.588	3218.04
665.78	2998.91
665.971	3103.36
666.163	3093.12
666.354	3052.16
666.546	2812.54
666.737	3041.92
666.929	3000.96
667.12	2957.95
667.311	2937.47
667.503	2855.55
667.694	2914.94
667.885	2886.27
668.077	2933.37
668.268	2857.6
668.459	2857.6
668.651	2792.06
668.842	2863.74
669.033	2902.65
669.224	2851.46
669.416	2880.13
669.607	2757.25
669.798	2841.22
669.989	2892.41
670.18	2835.07
670.371	2634.37
670.563	2855.55
670.754	2587.27
670.945	2724.48
671.136	2632.32
671.327	2638.47
671.518	2663.04
671.709	2611.84
671.9	2726.53
672.091	2636.42
672.282	2663.04
672.473	2577.03
672.664	2560.64
672.855	2507.4
673.046	2656.9
673.237	2495.11
673.428	2480.77
673.619	2411.14
673.809	2513.54
674	2605.7
674.191	2538.12
674.382	2503.3
674.573	2529.92
674.764	2495.11
674.954	2554.5
675.145	2431.62
675.336	2468.48
675.527	2366.09
675.717	2394.76
675.908	2347.65
676.099	2357.89
676.289	2331.27
676.48	2355.85
676.671	2419.33
676.861	2415.24
677.052	2308.74
677.243	2294.41
677.433	2376.33
677.624	2378.37
677.814	2210.44
678.005	2253.45
678.195	2331.27
678.386	2300.55
678.576	2222.73
678.767	2216.58
678.957	2282.12
679.148	2327.18
679.338	2251.4
679.529	2275.98
679.719	2187.91
679.909	2224.78
680.1	2138.76
680.29	2220.68
680.481	2149
680.671	2157.19
680.861	2245.26
681.052	2165.39
681.242	2114.19
681.432	2216.58
681.622	2155.15
681.813	2187.91
682.003	2089.61
682.193	2120.33
682.383	2202.25
682.573	2103.95
682.764	2128.52
682.954	2142.86
683.144	2142.86
683.334	2151.05
683.524	2095.75
683.714	2165.39
683.904	2024.08
684.094	2099.85
684.284	1976.97
684.474	2185.87
684.664	2091.66
684.854	2128.52
685.044	2103.95
685.234	2071.18
685.424	2028.17
685.614	1979.02
685.804	1983.12
685.994	2120.33
686.184	2046.6
686.374	2011.79
686.564	1942.16
686.753	2044.56
686.943	1890.96
687.133	1874.57
687.323	1927.82
687.513	1909.39
687.702	1938.06
687.892	1972.88
688.082	1895.05
688.272	1923.73
688.461	1882.77
688.651	2022.03
688.841	1903.25
689.03	1839.76
689.22	1874.57
689.41	1829.52
689.599	1915.53
689.789	1847.95
689.979	1907.34
690.168	1837.71
690.358	1827.47
690.547	1866.38
690.737	1768.08
690.926	1768.08
691.116	1850
691.305	1813.13
691.495	1704.59
691.684	1649.3
691.874	1702.54
692.063	1741.46
692.252	1710.74
692.442	1806.99
692.631	1743.5
692.82	1763.98
693.01	1720.98
693.199	1786.51
693.388	1559.19
693.578	1763.98
693.767	1794.7
693.956	1739.41
694.146	1751.7
694.335	1778.32
694.524	1749.65
694.713	1852.05
694.902	1690.26
695.092	1725.07
695.281	1690.26
695.47	1708.69
695.659	1510.04
695.848	1634.96
696.037	1712.78
696.226	1596.05
696.415	1733.26
696.604	1720.98
696.793	1743.5
696.982	1610.39
697.171	1677.97
697.36	1671.83
697.549	1620.63
697.738	1696.4
697.927	1639.06
698.116	1653.39
698.305	1698.45
698.494	1589.91
698.683	1575.57
698.872	1567.38
699.061	1596.05
699.25	1651.35
699.438	1710.74
699.627	1669.78
699.816	1600.15
700.005	1737.36
700.193	1598.1
700.382	1626.77
700.571	1647.25
700.76	1677.97
700.948	1733.26
701.137	1563.28
701.326	1743.5
701.514	1774.22
701.703	1628.82
701.892	1653.39
702.08	1720.98
702.269	1637.01
702.457	1669.78
702.646	1696.4
702.834	1637.01
703.023	1643.15
703.212	1710.74
703.4	1540.76
703.589	1702.54
703.777	1704.59
703.965	1702.54
704.154	1612.43
704.342	1665.68
704.531	1665.68
704.719	1571.47
704.907	1716.88
705.096	1598.1
705.284	1749.65
705.472	1641.11
705.661	1706.64
705.849	1657.49
706.037	1702.54
706.226	1723.02
706.414	1643.15
706.602	1616.53
706.79	1733.26
706.979	1702.54
707.167	1671.83
707.355	1751.7
707.543	1700.5
707.731	1784.46
707.919	1761.94
708.107	1692.3
708.296	1712.78
708.484	1731.22
708.672	1763.98
708.86	1763.98
709.048	1766.03
709.236	1688.21
709.424	1628.82
709.612	1628.82
709.8	1698.45
709.988	1677.97
710.176	1608.34
710.364	1706.64
710.551	1757.84
710.739	1761.94
710.927	1716.88
711.115	1774.22
711.303	1763.98
711.491	1686.16
711.679	1712.78
711.866	1729.17
712.054	1743.5
712.242	1770.13
712.43	1680.02
712.617	1647.25
712.805	1649.3
712.993	1677.97
713.181	1659.54
713.368	1727.12
713.556	1729.17
713.744	1718.93
713.931	1751.7
714.119	1712.78
714.306	1637.01
714.494	1776.27
714.682	1825.42
714.869	1747.6
715.057	1755.79
715.244	1729.17
715.432	1813.13
715.619	1663.63
715.807	1720.98
715.994	1751.7
716.182	1772.18
716.369	1718.93
716.556	1850
716.744	1653.39
716.931	1661.59
717.119	1809.04
717.306	1831.57
717.493	1782.42
717.681	1847.95
717.868	1669.78
718.055	1696.4
718.242	1825.42
718.43	1864.33
718.617	1843.85
718.804	1794.7
718.991	1739.41
719.179	1729.17
719.366	1888.91
719.553	1802.9
719.74	1669.78
719.927	1680.02
720.114	1811.09
720.301	1643.15
720.488	1720.98
720.676	1690.26
720.863	1843.85
721.05	1753.74
721.237	1747.6
721.424	1598.1
721.611	1809.04
721.798	1776.27
721.985	1702.54
722.172	1735.31
722.358	1712.78
722.545	1819.28
722.732	1776.27
722.919	1815.18
723.106	1712.78
723.293	1770.13
723.48	1815.18
723.667	1616.53
723.853	1747.6
724.04	1735.31
724.227	1694.35
724.414	1743.5
724.6	1780.37
724.787	1696.4
724.974	1731.22
725.161	1794.7
725.347	1677.97
725.534	1753.74
725.72	1720.98
725.907	1761.94
726.094	1729.17
726.28	1649.3
726.467	1792.66
726.653	1702.54
726.84	1739.41
727.027	1753.74
727.213	1591.95
727.4	1772.18
727.586	1677.97
727.773	1708.69
727.959	1598.1
728.145	1800.85
728.332	1725.07
728.518	1702.54
728.705	1647.25
728.891	1669.78
729.077	1745.55
729.264	1604.24
729.45	1720.98
729.636	1776.27
729.823	1727.12
730.009	1606.29
730.195	1850
730.382	1737.36
730.568	1729.17
730.754	1725.07
730.94	1698.45
731.126	1575.57
731.313	1634.96
731.499	1667.73
731.685	1624.72
731.871	1694.35
732.057	1643.15
732.243	1792.66
732.429	1704.59
732.615	1704.59
732.801	1731.22
732.987	1698.45
733.173	1860.24
733.359	1811.09
733.545	1606.29
733.731	1694.35
733.917	1594
734.103	1694.35
734.289	1710.74
734.475	1743.5
734.661	1702.54
734.847	1643.15
735.033	1594
735.219	1677.97
735.404	1624.72
735.59	1688.21
735.776	1661.59
735.962	1667.73
736.148	1661.59
736.333	1608.34
736.519	1622.67
736.705	1626.77
736.89	1614.48
737.076	1591.95
737.262	1594
737.447	1614.48
737.633	1645.2
737.819	1575.57
738.004	1559.19
738.19	1596.05
738.375	1661.59
738.561	1585.81
738.747	1616.53
738.932	1565.33
739.118	1481.36
739.303	1526.42
739.489	1579.67
739.674	1493.65
739.859	1573.52
740.045	1483.41
740.23	1532.56
740.416	1630.87
740.601	1516.18
740.786	1598.1
740.972	1567.38
741.157	1538.71
741.342	1514.13
741.528	1505.94
741.713	1559.19
741.898	1471.12
742.084	1450.64
742.269	1540.76
742.454	1538.71
742.639	1493.65
742.824	1546.9
743.01	1438.36
743.195	1450.64
743.38	1534.61
743.565	1491.6
743.75	1389.21
743.935	1450.64
744.12	1456.79
744.305	1368.73
744.49	1393.3
744.675	1477.27
744.86	1467.03
745.045	1372.82
745.23	1309.33
745.415	1413.78
745.6	1407.64
745.785	1415.83
745.97	1464.98
746.155	1368.73
746.34	1417.88
746.525	1335.96
746.71	1440.4
746.895	1366.68
747.079	1276.57
747.264	1278.62
747.449	1282.71
747.634	1258.14
747.819	1270.42
748.003	1264.28
748.188	1299.09
748.373	1241.75
748.557	1256.09
748.742	1301.14
748.927	1245.85
749.111	1243.8
749.296	1331.86
749.481	1190.55
749.665	1299.09
749.85	1223.32
750.034	1180.31
750.219	1227.42
750.404	1204.89
750.588	1249.94
750.773	1161.88
750.957	1145.5
751.141	1079.96
751.326	1145.5
751.51	1200.79
751.695	1186.46
751.879	1170.07
752.064	1108.63
752.248	1069.72
752.432	1147.55
752.617	1135.26
752.801	1112.73
752.985	1073.82
753.17	1090.2
753.354	1110.68
753.538	1077.91
753.722	1024.67
753.907	1030.81
754.091	1004.19
754.275	957.08
754.459	1024.67
754.643	989.85
754.828	1026.71
755.012	1067.67
755.196	1002.14
755.38	1002.14
755.564	1024.67
755.748	1002.14
755.932	1059.48
756.116	979.61
756.3	950.94
756.484	965.28
756.668	1006.24
756.852	944.8
757.036	891.55
757.22	944.8
757.404	891.55
757.588	852.64
757.772	955.04
757.956	981.66
758.14	981.66
758.323	930.46
758.507	932.51
758.691	805.53
758.875	930.46
759.059	920.22
759.242	897.69
759.426	877.21
759.61	869.02
759.794	787.1
759.977	875.17
760.161	912.03
760.345	862.88
760.528	826.01
760.712	860.83
760.895	866.97
761.079	856.73
761.263	828.06
761.446	799.39
761.63	776.86
761.813	903.84
761.997	819.87
762.18	819.87
762.364	877.21
762.547	823.97
762.731	737.95
762.914	813.73
763.098	721.57
763.281	762.53
763.464	893.6
763.648	834.21
763.831	817.82
764.015	703.14
764.198	752.29
764.381	787.1
764.564	768.67
764.748	740
764.931	760.48
765.114	787.1
765.297	791.2
765.481	735.9
765.664	785.05
765.847	735.9
766.03	744.1
766.213	746.14
766.397	762.53
766.58	735.9
766.763	780.96
766.946	766.62
767.129	719.52
767.312	801.44
767.495	737.95
767.678	668.32
767.861	770.72
768.044	674.46
768.227	723.62
768.41	694.94
768.593	637.6
768.776	746.14
768.959	699.04
769.142	723.62
769.324	670.37
769.507	776.86
769.69	719.52
769.873	651.94
770.056	623.27
770.239	645.79
770.421	688.8
770.604	674.46
770.787	719.52
770.97	676.51
771.152	653.98
771.335	645.79
771.518	658.08
771.7	680.61
771.883	670.37
772.066	711.33
772.248	629.41
772.431	627.36
772.613	594.59
772.796	590.5
772.978	590.5
773.161	627.36
773.343	670.37
773.526	545.44
773.708	596.64
773.891	621.22
774.073	610.98
774.256	576.16
774.438	623.27
774.621	596.64
774.803	608.93
774.985	551.59
775.168	580.26
775.35	563.87
775.532	578.21
775.715	529.06
775.897	555.68
776.079	570.02
776.261	529.06
776.444	527.01
776.626	578.21
776.808	606.88
776.99	623.27
777.173	555.68
777.355	547.49
777.537	490.15
777.719	621.22
777.901	551.59
778.083	484
778.265	547.49
778.447	561.83
778.629	467.62
778.811	469.67
778.993	443.04
779.175	494.24
779.357	576.16
779.539	496.29
779.721	447.14
779.903	516.77
780.085	443.04
780.267	445.09
780.449	498.34
780.631	574.11
780.812	547.49
780.994	455.33
781.176	445.09
781.358	455.33
781.54	432.8
781.721	400.04
781.903	547.49
782.085	434.85
782.267	465.57
782.448	510.63
782.63	375.46
782.812	406.18
782.993	344.74
783.175	520.87
783.357	430.76
783.538	408.23
783.72	404.13
783.901	375.46
784.083	416.42
784.264	387.75
784.446	408.23
784.627	334.5
784.809	402.08
784.99	432.8
785.172	375.46
785.353	367.27
785.535	260.77
785.716	418.47
785.897	283.3
786.079	391.84
786.26	379.56
786.441	342.69
786.623	346.79
786.804	393.89
786.985	336.55
787.167	387.75
787.348	354.98
787.529	314.02
787.71	385.7
787.891	322.21
788.073	318.12
788.254	281.25
788.435	244.39
788.616	283.3
788.797	330.41
788.978	301.73
789.159	297.64
789.34	369.32
789.522	326.31
789.703	316.07
789.884	373.41
790.065	402.08
790.246	359.08
790.427	324.26
790.607	314.02
790.788	293.54
790.969	168.62
791.15	322.21
791.331	268.97
791.512	248.49
791.693	244.39
791.874	301.73
792.054	277.16
792.235	252.58
792.416	277.16
792.597	240.29
792.778	275.11
792.958	262.82
793.139	254.63
793.32	189.1
793.5	232.1
793.681	256.68
793.862	295.59
794.042	221.86
794.223	197.29
794.404	359.08
794.584	236.2
794.765	279.21
794.945	236.2
795.126	223.91
795.306	303.78
795.487	262.82
795.667	197.29
795.848	271.01
796.028	205.48
796.209	293.54
796.389	193.19
796.57	228.01
796.75	217.77
796.93	236.2
797.111	295.59
797.291	240.29
797.471	244.39
797.652	228.01
797.832	213.67
798.012	213.67
798.192	283.3
798.373	144.04
798.553	264.87
798.733	207.53
798.913	170.66
799.093	248.49
799.274	195.24
799.454	238.25
799.634	193.19
799.814	195.24
799.994	219.82
800.174	223.91
800.354	215.72
800.534	160.42
800.714	187.05
800.894	262.82
801.074	197.29
801.254	174.76
801.434	219.82
801.614	230.06
801.794	150.18
801.974	674.46
802.154	146.09
802.334	256.68
802.514	189.1
802.693	135.85
802.873	297.64
803.053	279.21
803.233	156.33
803.413	205.48
803.592	209.58
803.772	119.46
803.952	146.09
804.131	191.14
804.311	191.14
804.491	189.1
804.67	277.16
804.85	111.27
805.03	144.04
805.209	207.53
805.389	92.84
805.568	119.46
805.748	125.61
805.928	121.51
806.107	107.18
806.287	225.96
806.466	166.57
806.646	139.94
806.825	144.04
807.004	250.53
807.184	281.25
807.363	133.8
807.543	131.75
807.722	180.9
807.901	158.38
808.081	162.47
808.26	84.65
808.439	148.14
808.619	156.33
808.798	148.14
808.977	203.43
809.156	213.67
809.336	152.23
809.515	176.81
809.694	152.23
809.873	146.09
810.052	158.38
810.231	131.75
810.411	137.9
810.59	178.86
810.769	189.1
810.948	158.38
811.127	129.7
811.306	96.94
811.485	92.84
811.664	109.22
811.843	76.46
812.022	129.7
812.201	225.96
812.38	123.56
812.559	49.83
812.737	182.95
812.916	141.99
813.095	123.56
813.274	117.42
813.453	211.62
813.632	66.22
813.811	180.9
813.989	98.99
814.168	148.14
814.347	82.6
814.526	113.32
814.704	98.99
814.883	154.28
815.062	113.32
815.24	72.36
815.419	68.27
815.598	113.32
815.776	78.51
815.955	47.79
816.133	47.79
816.312	78.51
816.49	68.27
816.669	125.61
816.847	105.13
817.026	113.32
817.204	37.55
817.383	160.42
817.561	82.6
817.74	117.42
817.918	98.99
818.097	39.59
818.275	107.18
818.453	146.09
818.632	45.74
818.81	191.14
818.988	137.9
819.167	35.5
819.345	119.46
819.523	90.79
819.701	72.36
819.879	135.85
820.058	115.37
820.236	107.18
820.414	90.79
820.592	94.89
820.77	96.94
820.948	121.51
821.127	88.75
821.305	74.41
821.483	-9.56
821.661	88.75
821.839	111.27
822.017	68.27
822.195	10.92
822.373	58.03
822.551	94.89
822.729	82.6
822.907	68.27
823.085	92.84
823.262	117.42
823.44	123.56
823.618	105.13
823.796	39.59
823.974	80.55
824.152	146.09
824.329	55.98
824.507	60.07
824.685	115.37
824.863	101.03
825.04	82.6
825.218	131.75
825.396	68.27
825.574	90.79
825.751	98.99
825.929	76.46
826.107	109.22
826.284	76.46
826.462	150.18
826.639	58.03
826.817	33.45
826.994	90.79
827.172	45.74
827.349	92.84
827.527	127.66
827.704	72.36
827.882	76.46
828.059	58.03
828.237	35.5
828.414	78.51
828.591	37.55
828.769	27.31
828.946	70.31
829.124	101.03
829.301	80.55
829.478	66.22
829.655	80.55
829.833	31.4
830.01	17.07
830.187	35.5
830.364	84.65
830.542	111.27
830.719	39.59
830.896	121.51
831.073	101.03
831.25	101.03
831.427	113.32
831.604	47.79
831.782	-1.37
831.959	88.75
832.136	49.83
832.313	88.75
832.49	58.03
832.667	70.31
832.844	23.21
833.021	72.36
833.198	19.11
833.374	41.64
833.551	92.84
833.728	37.55
833.905	109.22
834.082	-3.41
834.259	98.99
834.436	162.47
834.612	39.59
834.789	19.11
834.966	19.11
835.143	58.03
835.319	-9.56
835.496	39.59
835.673	88.75
835.85	82.6
836.026	15.02
836.203	129.7
836.38	25.26
836.556	70.31
836.733	88.75
836.909	72.36
837.086	41.64
837.262	6.83
837.439	17.07
837.616	58.03
837.792	55.98
837.968	33.45
838.145	15.02
838.321	49.83
838.498	96.94
838.674	72.36
838.851	78.51
839.027	72.36
839.203	17.07
839.38	113.32
839.556	82.6
839.732	131.75
839.909	39.59
840.085	17.07
840.261	51.88
840.437	23.21
840.614	33.45
840.79	98.99
840.966	51.88
841.142	53.93
841.318	19.11
841.494	58.03
841.671	55.98
841.847	4.78
842.023	-7.51
842.199	47.79
842.375	66.22
842.551	90.79
842.727	84.65
842.903	68.27
843.079	-23.89
843.255	74.41
843.431	21.16
843.607	53.93
843.783	17.07
843.959	66.22
844.134	-17.75
844.31	41.64
844.486	55.98
844.662	80.55
844.838	-1.37
845.013	2.73
845.189	37.55
845.365	10.92
845.541	86.7
845.716	45.74
845.892	62.12
846.068	70.31
846.244	-50.52
846.419	-17.75
846.595	4.78
846.77	-32.08
846.946	31.4
847.122	47.79
847.297	80.55
847.473	0.68
847.648	51.88
847.824	62.12
847.999	-17.75
848.175	58.03
848.35	101.03
848.526	45.74
848.701	39.59
848.876	86.7
849.052	58.03
849.227	-7.51
849.403	41.64
849.578	23.21
849.753	133.8
849.929	41.64
850.104	-1.37
850.279	-3.41
850.454	-58.71
850.63	121.51
850.805	60.07
850.98	51.88
851.155	49.83
851.33	-36.18
851.505	27.31
851.681	76.46
851.856	49.83
852.031	-7.51
852.206	29.35
852.381	23.21
852.556	51.88
852.731	98.99
852.906	17.07
853.081	25.26
853.256	55.98
853.431	33.45
853.606	41.64
853.781	35.5
853.956	-13.65
854.131	41.64
854.305	21.16
854.48	55.98
854.655	43.69
854.83	-42.32
855.005	-27.99
855.18	45.74
855.354	31.4
855.529	105.13
855.704	-7.51
855.879	72.36
856.053	-11.61
856.228	-5.46
856.403	-5.46
856.577	55.98
856.752	-83.28
856.926	66.22
857.101	-13.65
857.276	6.83
857.45	6.83
857.625	-5.46
857.799	-30.04
857.974	80.55
858.148	33.45
858.323	47.79
858.497	47.79
858.672	-15.7
858.846	80.55
859.02	45.74
859.195	-17.75
859.369	45.74
859.543	74.41
859.718	-48.47
859.892	-23.89
860.066	-44.37
860.241	-60.76
860.415	-7.51
860.589	-15.7
860.763	10.92
860.938	37.55
861.112	105.13
861.286	-32.08
861.46	45.74
861.634	25.26
861.808	86.7
861.982	-9.56
862.157	51.88
862.331	58.03
862.505	-38.23
862.679	-52.56
862.853	-9.56
863.027	92.84
863.201	47.79
863.375	25.26
863.549	2.73
863.722	-56.66
863.896	47.79
864.07	25.26
864.244	-38.23
864.418	21.16
864.592	25.26
864.766	43.69
864.939	72.36
865.113	-9.56
865.287	15.02
865.461	-32.08
865.634	-17.75
865.808	21.16
865.982	31.4
866.156	33.45
866.329	19.11
866.503	53.93
866.676	-21.85
866.85	8.87
867.024	35.5
867.197	-11.61
867.371	25.26
867.544	27.31
867.718	35.5
867.891	-13.65
868.065	47.79
868.238	-15.7
868.412	55.98
868.585	8.87
868.759	-34.13
868.932	49.83
869.105	64.17
869.279	-23.89
869.452	15.02
869.625	-17.75
869.799	43.69
869.972	25.26
870.145	37.55
870.319	23.21
870.492	43.69
870.665	0.68
870.838	-25.94
871.011	-54.61
871.185	29.35
871.358	-36.18
871.531	-5.46
871.704	-5.46
871.877	19.11
872.05	-7.51
872.223	43.69
872.396	39.59
872.569	-5.46
872.742	6.83
872.915	60.07
873.088	-30.04
873.261	4.78
873.434	23.21
873.607	-1.37
873.78	80.55
873.953	4.78
874.126	-17.75
874.299	33.45
874.471	47.79
874.644	-15.7
874.817	-21.85
874.99	86.7
875.163	90.79
875.335	-13.65
875.508	-32.08
875.681	-27.99
875.853	64.17
876.026	-30.04
876.199	-30.04
876.371	19.11
876.544	-3.41
876.717	74.41
876.889	39.59
877.062	25.26
877.234	-13.65
877.407	55.98
877.579	-3.41
877.752	31.4
877.924	35.5
878.097	19.11
878.269	19.11
878.442	2.73
878.614	-34.13
878.786	74.41
878.959	-46.42
879.131	39.59
879.303	-42.32
879.476	-1.37
879.648	35.5
879.82	-5.46
879.993	17.07
880.165	21.16
880.337	68.27
880.509	47.79
880.681	-1.37
880.854	55.98
881.026	17.07
881.198	60.07
881.37	31.4
881.542	-19.8
881.714	-1.37
881.886	0.68
882.058	4.78
882.23	35.5
882.402	6.83
882.574	-9.56
882.746	10.92
882.918	-5.46
883.09	-7.51
883.262	-95.57
883.434	64.17
883.606	23.21
883.778	0.68
883.95	121.51
884.122	-52.56
884.293	-34.13
884.465	8.87
884.637	39.59
884.809	-25.94
884.98	58.03
885.152	19.11
885.324	17.07
885.496	53.93
885.667	12.97
885.839	-97.62
886.011	31.4
886.182	74.41
886.354	6.83
886.525	-7.51
886.697	76.46
886.869	21.16
887.04	-66.9
887.212	53.93
887.383	51.88
887.555	12.97
887.726	21.16
887.897	-23.89
888.069	10.92
888.24	12.97
888.412	-34.13
888.583	4.78
888.754	-13.65
888.926	-36.18
889.097	0.68
889.268	-42.32
889.44	60.07
889.611	-40.28
889.782	8.87
889.953	-25.94
890.125	31.4
890.296	6.83
890.467	-9.56
890.638	15.02
890.809	35.5
890.98	-15.7
891.151	-1.37
891.323	43.69
891.494	119.46
891.665	64.17
891.836	-5.46
892.007	10.92
892.178	80.55
892.349	-40.28
892.52	64.17
892.691	31.4
892.862	8.87
893.032	-17.75
893.203	-36.18
893.374	-91.48
893.545	55.98
893.716	2.73
893.887	15.02
894.057	33.45
894.228	6.83
894.399	-75.09
894.57	23.21
894.74	-21.85
894.911	39.59
895.082	8.87
895.253	17.07
895.423	17.07
895.594	-13.65
895.764	-38.23
895.935	-17.75
896.106	66.22
896.276	-46.42
896.447	-95.57
896.617	4.78
896.788	-3.41
896.958	-11.61
897.129	-21.85
897.299	-38.23
897.47	33.45
897.64	64.17
897.81	19.11
897.981	12.97
898.151	-42.32
898.322	47.79
898.492	-34.13
898.662	-5.46
898.832	19.11
899.003	25.26
899.173	92.84
899.343	23.21
899.513	8.87
