Data from USB4F104151__3__13-10-08-364.txt Node

Date: Fri Mar 14 13:10:08 EDT 2025
User: louis
Spectrometer: USB4F10415
Trigger mode: 4
Integration Time (sec): 2.000000E-2
Scans to average: 1
Electric dark correction enabled: true
Nonlinearity correction enabled: false
Boxcar width: 0
XAxis mode: Wavelengths
Number of Pixels in Spectrum: 3648
>>>>>Begin Spectral Data<<<<<
178.204	-99.67
178.424	-99.67
178.644	-99.67
178.864	-101.72
179.084	-126.29
179.304	-15.7
179.524	39.59
179.744	-13.65
179.964	-17.75
180.184	-64.85
180.404	31.4
180.624	-13.65
180.844	-11.61
181.064	-7.51
181.283	64.17
181.503	-27.99
181.723	37.55
181.943	6.83
182.163	29.35
182.383	41.64
182.602	0.68
182.822	10.92
183.042	64.17
183.262	8.87
183.482	-66.9
183.701	12.97
183.921	39.59
184.141	-38.23
184.361	-1.37
184.58	-9.56
184.8	98.99
185.02	19.11
185.239	74.41
185.459	25.26
185.679	-5.46
185.898	10.92
186.118	-5.46
186.338	53.93
186.557	31.4
186.777	39.59
186.997	-56.66
187.216	4.78
187.436	-21.84
187.655	-15.7
187.875	21.16
188.095	-34.13
188.314	25.26
188.534	19.11
188.753	76.46
188.973	23.21
189.192	29.35
189.412	-32.08
189.631	33.45
189.851	31.4
190.07	-48.47
190.29	-71
190.509	41.64
190.729	31.4
190.948	74.41
191.168	74.41
191.387	33.45
191.607	-25.94
191.826	-17.75
192.045	-34.13
192.265	39.59
192.484	19.11
192.704	17.07
192.923	23.21
193.142	101.03
193.362	19.11
193.581	15.02
193.8	25.26
194.02	31.4
194.239	12.97
194.458	6.83
194.678	31.4
194.897	27.31
195.116	10.92
195.335	2.73
195.555	58.03
195.774	41.64
195.993	8.87
196.212	62.12
196.432	49.83
196.651	-75.09
196.87	-27.99
197.089	51.88
197.308	43.69
197.528	-1.37
197.747	-7.51
197.966	47.79
198.185	-5.46
198.404	27.31
198.623	41.64
198.842	8.87
199.062	6.83
199.281	68.27
199.5	25.26
199.719	31.4
199.938	35.5
200.157	64.17
200.376	23.21
200.595	103.08
200.814	-25.94
201.033	33.45
201.252	29.35
201.471	12.97
201.69	49.83
201.909	115.37
202.128	-23.89
202.347	72.36
202.566	23.21
202.785	6.83
203.004	25.26
203.223	78.51
203.442	33.45
203.661	10.92
203.879	-1.37
204.098	41.64
204.317	2.73
204.536	96.94
204.755	64.17
204.974	41.64
205.193	23.21
205.411	101.03
205.63	6.83
205.849	29.35
206.068	15.02
206.287	55.98
206.505	49.83
206.724	-17.75
206.943	4.78
207.162	37.55
207.381	19.11
207.599	39.59
207.818	43.69
208.037	66.22
208.255	-9.56
208.474	23.21
208.693	84.65
208.911	64.17
209.13	-1.37
209.349	-11.61
209.567	51.88
209.786	41.64
210.005	27.31
210.223	107.18
210.442	8.87
210.661	12.97
210.879	84.65
211.098	15.02
211.316	15.02
211.535	0.68
211.753	123.56
211.972	12.97
212.191	12.97
212.409	33.45
212.628	-46.42
212.846	17.07
213.065	-11.61
213.283	51.88
213.502	-77.14
213.72	41.64
213.938	107.18
214.157	10.92
214.375	6.83
214.594	49.83
214.812	21.16
215.031	6.83
215.249	-9.56
215.467	55.98
215.686	-17.75
215.904	115.37
216.122	39.59
216.341	-34.13
216.559	43.69
216.778	29.35
216.996	58.03
217.214	72.36
217.432	10.92
217.651	-21.84
217.869	15.02
218.087	12.97
218.306	64.17
218.524	72.36
218.742	15.02
218.96	58.03
219.179	-25.94
219.397	6.83
219.615	-1.37
219.833	55.98
220.051	33.45
220.27	86.7
220.488	29.35
220.706	-3.41
220.924	43.69
221.142	51.88
221.36	23.21
221.578	-19.8
221.796	0.68
222.015	60.07
222.233	37.55
222.451	88.75
222.669	-75.09
222.887	8.87
223.105	-66.9
223.323	-5.46
223.541	-30.04
223.759	2.73
223.977	45.74
224.195	72.36
224.413	60.07
224.631	70.31
224.849	39.59
225.067	201.38
225.285	-9.56
225.503	-40.28
225.721	-32.08
225.939	21.16
226.157	-54.61
226.375	45.74
226.592	41.64
226.81	-21.84
227.028	15.02
227.246	105.13
227.464	66.22
227.682	43.69
227.9	-13.65
228.117	51.88
228.335	19.11
228.553	55.98
228.771	60.07
228.989	19.11
229.206	-25.94
229.424	19.11
229.642	10.92
229.86	-5.46
230.077	53.93
230.295	33.45
230.513	80.55
230.731	74.41
230.948	90.79
231.166	-44.37
231.384	-42.32
231.601	31.4
231.819	168.62
232.037	-9.56
232.254	47.79
232.472	-15.7
232.689	60.07
232.907	49.83
233.125	39.59
233.342	15.02
233.56	-27.99
233.777	4.78
233.995	-13.65
234.213	-5.46
234.43	0.68
234.648	39.59
234.865	15.02
235.083	31.4
235.3	51.88
235.518	68.27
235.735	-3.41
235.953	17.07
236.17	-13.65
236.388	-3.41
236.605	-17.75
236.822	45.74
237.04	49.83
237.257	117.42
237.475	-40.28
237.692	17.07
237.909	-46.42
238.127	-25.94
238.344	39.59
238.562	23.21
238.779	35.5
238.996	51.88
239.214	94.89
239.431	45.74
239.648	-34.13
239.865	55.98
240.083	76.46
240.3	47.79
240.517	4.78
240.735	49.83
240.952	47.79
241.169	35.5
241.386	64.17
241.603	15.02
241.821	-75.09
242.038	41.64
242.255	55.98
242.472	35.5
242.689	29.35
242.907	31.4
243.124	17.07
243.341	-38.23
243.558	-13.65
243.775	-42.32
243.992	15.02
244.209	45.74
244.426	70.31
244.643	6.83
244.86	-1.37
245.078	-34.13
245.295	-23.89
245.512	35.5
245.729	-46.42
245.946	-34.13
246.163	23.21
246.38	12.97
246.597	-13.65
246.814	76.46
247.031	80.55
247.248	129.7
247.464	6.83
247.681	6.83
247.898	6.83
248.115	47.79
248.332	10.92
248.549	64.17
248.766	-1.37
248.983	33.45
249.2	15.02
249.417	96.94
249.633	60.07
249.85	-32.08
250.067	66.22
250.284	27.31
250.501	-23.89
250.717	96.94
250.934	-1.37
251.151	17.07
251.368	23.21
251.585	25.26
251.801	8.87
252.018	-9.56
252.235	105.13
252.451	64.17
252.668	23.21
252.885	64.17
253.102	-17.75
253.318	86.7
253.535	39.59
253.752	-13.65
253.968	4.78
254.185	-23.89
254.401	8.87
254.618	-23.89
254.835	17.07
255.051	80.55
255.268	-50.52
255.484	37.55
255.701	10.92
255.917	31.4
256.134	-9.56
256.351	15.02
256.567	-1.37
256.784	82.6
257	-21.84
257.217	25.26
257.433	-15.7
257.65	39.59
257.866	139.94
258.082	-19.8
258.299	-1.37
258.515	-17.75
258.732	39.59
258.948	27.31
259.165	-19.8
259.381	23.21
259.597	55.98
259.814	-13.65
260.03	-15.7
260.246	51.88
260.463	0.68
260.679	72.36
260.895	33.45
261.112	-15.7
261.328	0.68
261.544	33.45
261.761	39.59
261.977	64.17
262.193	-34.13
262.409	33.45
262.626	21.16
262.842	0.68
263.058	29.35
263.274	-25.94
263.49	-21.84
263.707	19.11
263.923	-30.04
264.139	-34.13
264.355	35.5
264.571	86.7
264.787	98.99
265.004	43.69
265.22	-15.7
265.436	70.31
265.652	17.07
265.868	49.83
266.084	-9.56
266.3	96.94
266.516	23.21
266.732	-23.89
266.948	8.87
267.164	74.41
267.38	17.07
267.596	35.5
267.812	53.93
268.028	2.73
268.244	70.31
268.46	101.03
268.676	27.31
268.892	6.83
269.108	86.7
269.324	-13.65
269.54	39.59
269.756	0.68
269.972	31.4
270.188	92.84
270.403	-11.61
270.619	10.92
270.835	-15.7
271.051	96.94
271.267	-23.89
271.483	31.4
271.698	31.4
271.914	-23.89
272.13	0.68
272.346	31.4
272.562	-11.61
272.777	35.5
272.993	33.45
273.209	33.45
273.425	64.17
273.64	15.02
273.856	47.79
274.072	84.65
274.287	55.98
274.503	43.69
274.719	51.88
274.934	70.31
275.15	-27.99
275.366	2.73
275.581	-21.84
275.797	92.84
276.012	10.92
276.228	-17.75
276.444	45.74
276.659	92.84
276.875	-9.56
277.09	-5.46
277.306	4.78
277.521	53.93
277.737	4.78
277.952	72.36
278.168	0.68
278.383	27.31
278.599	-34.13
278.814	37.55
279.03	-50.52
279.245	15.02
279.461	70.31
279.676	107.18
279.892	-3.41
280.107	31.4
280.322	29.35
280.538	6.83
280.753	-42.32
280.969	12.97
281.184	76.46
281.399	-19.8
281.615	15.02
281.83	17.07
282.045	10.92
282.26	-34.13
282.476	41.64
282.691	37.55
282.906	82.6
283.122	39.59
283.337	10.92
283.552	4.78
283.767	-48.47
283.983	19.11
284.198	4.78
284.413	31.4
284.628	-32.08
284.843	51.88
285.058	51.88
285.274	49.83
285.489	68.27
285.704	8.87
285.919	25.26
286.134	39.59
286.349	21.16
286.564	6.83
286.779	58.03
286.995	33.45
287.21	-15.7
287.425	115.37
287.64	53.93
287.855	55.98
288.07	-17.75
288.285	74.41
288.5	107.18
288.715	-7.51
288.93	35.5
289.145	66.22
289.36	76.46
289.575	37.55
289.79	43.69
290.004	-23.89
290.219	-21.84
290.434	8.87
290.649	6.83
290.864	33.45
291.079	-17.75
291.294	-3.41
291.509	43.69
291.724	82.6
291.938	70.31
292.153	49.83
292.368	-32.08
292.583	76.46
292.798	-25.94
293.012	90.79
293.227	64.17
293.442	82.6
293.657	-42.32
293.871	64.17
294.086	64.17
294.301	23.21
294.516	-15.7
294.73	90.79
294.945	19.11
295.16	-23.89
295.374	53.93
295.589	101.03
295.804	43.69
296.018	-17.75
296.233	47.79
296.447	39.59
296.662	-34.13
296.877	43.69
297.091	29.35
297.306	8.87
297.52	0.68
297.735	43.69
297.949	33.45
298.164	-13.65
298.378	25.26
298.593	-17.75
298.807	-5.46
299.022	-5.46
299.236	109.23
299.451	17.07
299.665	35.5
299.88	51.88
300.094	-5.46
300.309	-5.46
300.523	55.98
300.737	51.88
300.952	-1.37
301.166	-81.24
301.381	23.21
301.595	-7.51
301.809	2.73
302.024	31.4
302.238	19.11
302.452	78.51
302.667	31.4
302.881	15.02
303.095	37.55
303.309	15.02
303.524	-54.61
303.738	72.36
303.952	-3.41
304.166	12.97
304.381	-9.56
304.595	82.6
304.809	17.07
305.023	31.4
305.237	62.12
305.452	19.11
305.666	88.75
305.88	17.07
306.094	148.14
306.308	39.59
306.522	43.69
306.736	55.98
306.95	74.41
307.164	33.45
307.379	33.45
307.593	76.46
307.807	47.79
308.021	96.94
308.235	23.21
308.449	-7.51
308.663	90.79
308.877	74.41
309.091	-17.75
309.305	51.88
309.519	12.97
309.733	49.83
309.947	-58.71
310.161	25.26
310.374	60.07
310.588	-9.56
310.802	-38.23
311.016	6.83
311.23	-7.51
311.444	-17.75
311.658	15.02
311.872	8.87
312.085	-13.65
312.299	88.75
312.513	25.26
312.727	0.68
312.941	-38.23
313.154	43.69
313.368	-13.65
313.582	58.03
313.796	37.55
314.009	27.31
314.223	66.22
314.437	55.98
314.651	60.07
314.864	37.55
315.078	-5.46
315.292	-11.61
315.505	-19.8
315.719	55.98
315.933	-27.99
316.146	0.68
316.36	-54.61
316.573	27.31
316.787	51.88
317.001	15.02
317.214	19.11
317.428	62.12
317.641	23.21
317.855	-13.65
318.068	19.11
318.282	6.83
318.495	35.5
318.709	31.4
318.922	19.11
319.136	119.46
319.349	-17.75
319.563	68.27
319.776	15.02
319.99	-11.61
320.203	31.4
320.417	80.55
320.63	70.31
320.843	55.98
321.057	8.87
321.27	51.88
321.483	25.26
321.697	98.99
321.91	29.35
322.124	-9.56
322.337	8.87
322.55	15.02
322.763	70.31
322.977	17.07
323.19	58.03
323.403	131.75
323.617	19.11
323.83	68.27
324.043	33.45
324.256	72.36
324.469	17.07
324.683	33.45
324.896	-7.51
325.109	27.31
325.322	-9.56
325.535	47.79
325.748	80.55
325.962	25.26
326.175	39.59
326.388	47.79
326.601	82.6
326.814	17.07
327.027	2.73
327.24	39.59
327.453	-1.37
327.666	51.88
327.879	31.4
328.092	72.36
328.305	35.5
328.518	101.03
328.731	-66.9
328.944	64.17
329.157	-52.56
329.37	31.4
329.583	41.64
329.796	17.07
330.009	-19.8
330.222	0.68
330.435	58.03
330.648	70.31
330.861	-9.56
331.073	-7.51
331.286	27.31
331.499	-1.37
331.712	-25.94
331.925	68.27
332.138	39.59
332.35	33.45
332.563	29.35
332.776	82.6
332.989	17.07
333.202	8.87
333.414	4.78
333.627	2.73
333.84	74.41
334.053	17.07
334.265	37.55
334.478	58.03
334.691	31.4
334.903	-3.41
335.116	39.59
335.329	15.02
335.541	45.74
335.754	86.7
335.966	47.79
336.179	15.02
336.392	39.59
336.604	19.11
336.817	49.83
337.029	39.59
337.242	-7.51
337.454	58.03
337.667	53.93
337.88	4.78
338.092	-21.84
338.305	10.92
338.517	-40.28
338.729	-34.13
338.942	-30.04
339.154	10.92
339.367	-25.94
339.579	12.97
339.792	-34.13
340.004	-1.37
340.217	19.11
340.429	60.07
340.641	25.26
340.854	92.84
341.066	10.92
341.278	98.99
341.491	121.51
341.703	15.02
341.915	-5.46
342.128	39.59
342.34	0.68
342.552	-21.84
342.764	27.31
342.977	19.11
343.189	33.45
343.401	68.27
343.613	58.03
343.826	43.69
344.038	0.68
344.25	-25.94
344.462	27.31
344.674	60.07
344.886	23.21
345.099	31.4
345.311	72.36
345.523	123.56
345.735	47.79
345.947	19.11
346.159	-32.08
346.371	133.8
346.583	-50.52
346.795	105.13
347.007	23.21
347.219	68.27
347.431	74.41
347.643	55.98
347.855	-30.04
348.067	-3.41
348.279	33.45
348.491	37.55
348.703	15.02
348.915	55.98
349.127	-54.61
349.339	-5.46
349.551	31.4
349.763	-13.65
349.975	17.07
350.187	23.21
350.399	31.4
350.61	39.59
350.822	-15.7
351.034	8.87
351.246	64.17
351.458	35.5
351.669	60.07
351.881	2.73
352.093	84.65
352.305	64.17
352.517	-38.23
352.728	68.27
352.94	76.46
353.152	74.41
353.363	-36.18
353.575	53.93
353.787	35.5
353.999	66.22
354.21	19.11
354.422	19.11
354.633	98.99
354.845	60.07
355.057	-11.61
355.268	-13.65
355.48	101.03
355.692	82.6
355.903	78.51
356.115	-25.94
356.326	-3.41
356.538	92.84
356.749	8.87
356.961	148.14
357.172	72.36
357.384	2.73
357.595	25.26
357.807	-15.7
358.018	-1.37
358.23	2.73
358.441	84.65
358.653	23.21
358.864	-34.13
359.075	10.92
359.287	55.98
359.498	37.55
359.709	-21.84
359.921	35.5
360.132	80.55
360.344	68.27
360.555	88.75
360.766	39.59
360.977	17.07
361.189	98.99
361.4	-5.46
361.611	82.6
361.823	-44.37
362.034	74.41
362.245	-9.56
362.456	17.07
362.667	70.31
362.879	6.83
363.09	-5.46
363.301	31.4
363.512	25.26
363.723	33.45
363.935	12.97
364.146	-7.51
364.357	29.35
364.568	37.55
364.779	45.74
364.99	58.03
365.201	-7.51
365.412	25.26
365.623	0.68
365.834	0.68
366.045	49.83
366.256	78.51
366.467	29.35
366.678	19.11
366.889	-13.65
367.1	17.07
367.311	33.45
367.522	33.45
367.733	41.64
367.944	51.88
368.155	-25.94
368.366	86.7
368.577	105.13
368.788	74.41
368.999	8.87
369.209	47.79
369.42	35.5
369.631	127.66
369.842	47.79
370.053	19.11
370.264	115.37
370.474	-25.94
370.685	68.27
370.896	12.97
371.107	72.36
371.317	92.84
371.528	-40.28
371.739	35.5
371.95	37.55
372.16	25.26
372.371	-48.47
372.582	33.45
372.792	0.68
373.003	66.22
373.214	68.27
373.424	55.98
373.635	-30.04
373.846	113.32
374.056	19.11
374.267	74.41
374.477	-19.8
374.688	-11.61
374.898	55.98
375.109	17.07
375.319	43.69
375.53	64.17
375.74	12.97
375.951	35.5
376.161	66.22
376.372	25.26
376.582	29.35
376.793	-11.61
377.003	64.17
377.214	33.45
377.424	74.41
377.635	96.94
377.845	-9.56
378.055	131.75
378.266	15.02
378.476	12.97
378.686	21.16
378.897	74.41
379.107	-15.7
379.317	96.94
379.528	-5.46
379.738	21.16
379.948	23.21
380.158	96.94
380.369	-5.46
380.579	2.73
380.789	72.36
380.999	45.74
381.21	64.17
381.42	55.98
381.63	33.45
381.84	53.93
382.05	45.74
382.261	66.22
382.471	76.46
382.681	-36.18
382.891	86.7
383.101	39.59
383.311	-17.75
383.521	-7.51
383.731	-15.7
383.941	70.31
384.151	41.64
384.361	82.6
384.571	84.65
384.781	39.59
384.991	-9.56
385.201	150.18
385.411	-3.41
385.621	64.17
385.831	109.23
386.041	4.78
386.251	68.27
386.461	29.35
386.671	47.79
386.881	103.08
387.091	74.41
387.301	125.61
387.511	-1.37
387.72	154.28
387.93	84.65
388.14	2.73
388.35	21.16
388.56	-5.46
388.769	27.31
388.979	94.89
389.189	2.73
389.399	39.59
389.609	2.73
389.818	35.5
390.028	6.83
390.238	68.27
390.447	35.5
390.657	74.41
390.867	21.16
391.076	-17.75
391.286	21.16
391.496	19.11
391.705	-15.7
391.915	29.35
392.125	35.5
392.334	62.12
392.544	66.22
392.753	60.07
392.963	37.55
393.172	19.11
393.382	19.11
393.591	-15.7
393.801	74.41
394.01	19.11
394.22	47.79
394.429	80.55
394.639	47.79
394.848	90.79
395.058	78.51
395.267	45.74
395.477	35.5
395.686	90.79
395.895	45.74
396.105	96.94
396.314	51.88
396.524	2.73
396.733	19.11
396.942	58.03
397.152	139.94
397.361	49.83
397.57	98.99
397.78	27.31
397.989	103.08
398.198	72.36
398.407	43.69
398.617	96.94
398.826	144.04
399.035	64.17
399.244	96.94
399.453	41.64
399.663	19.11
399.872	137.9
400.081	41.64
400.29	55.98
400.499	45.74
400.708	33.45
400.917	107.18
401.127	105.13
401.336	47.79
401.545	154.28
401.754	105.13
401.963	148.14
402.172	125.61
402.381	66.22
402.59	60.07
402.799	135.85
403.008	101.03
403.217	115.37
403.426	78.51
403.635	105.13
403.844	98.99
404.053	133.8
404.262	150.18
404.471	162.47
404.68	55.98
404.888	117.42
405.097	101.03
405.306	92.84
405.515	92.84
405.724	117.42
405.933	168.62
406.142	182.95
406.35	139.94
406.559	160.42
406.768	72.36
406.977	209.58
407.185	94.89
407.394	105.13
407.603	164.52
407.812	205.48
408.02	228.01
408.229	129.7
408.438	125.61
408.646	207.53
408.855	185
409.064	185
409.272	162.47
409.481	244.39
409.69	211.62
409.898	109.23
410.107	275.11
410.315	277.16
410.524	250.53
410.733	201.38
410.941	271.01
411.15	260.77
411.358	209.58
411.567	271.01
411.775	381.6
411.984	285.35
412.192	279.21
412.401	295.59
412.609	277.16
412.818	402.08
413.026	412.32
413.234	367.27
413.443	326.31
413.651	330.41
413.86	303.78
414.068	469.67
414.276	436.9
414.485	467.62
414.693	467.62
414.901	533.15
415.11	504.48
415.318	527.01
415.526	522.91
415.734	514.72
415.943	606.88
416.151	633.5
416.359	641.7
416.567	637.6
416.776	694.94
416.984	674.46
417.192	696.99
417.4	678.56
417.608	668.32
417.817	807.58
418.025	735.9
418.233	844.45
418.441	803.49
418.649	948.89
418.857	883.36
419.065	998.04
419.273	973.47
419.481	1004.19
419.689	1039
419.897	1143.45
420.105	1122.97
420.313	1120.92
420.521	1211.03
420.729	1172.12
420.937	1241.75
421.145	1186.46
421.353	1358.49
421.561	1442.45
421.769	1446.55
421.977	1565.33
422.185	1497.75
422.393	1507.99
422.601	1710.74
422.809	1718.93
423.017	1677.97
423.224	1669.78
423.432	1811.09
423.64	1931.92
423.848	1976.97
424.056	1991.31
424.263	2073.23
424.471	2026.12
424.679	2142.86
424.887	2247.3
425.094	2351.75
425.302	2259.59
425.51	2421.38
425.718	2493.06
425.925	2527.88
426.133	2636.42
426.341	2704
426.548	2826.88
426.756	2898.56
426.964	2933.37
427.171	3093.12
427.379	3152.51
427.586	3199.61
427.794	3287.67
428.001	3533.43
428.209	3564.15
428.417	3531.38
428.624	3676.79
428.832	3809.9
429.039	3713.65
429.247	3850.86
429.454	4166.25
429.662	4409.96
429.869	4180.59
430.076	4346.47
430.284	4162.16
430.491	4512.36
430.699	4622.95
430.906	4581.99
431.114	4688.48
431.321	4967.01
431.528	4967.01
431.736	5356.12
431.943	5605.97
432.15	5489.24
432.358	5438.04
432.565	5720.66
432.772	5786.19
432.979	6177.36
433.187	6175.31
433.394	6318.67
433.601	6654.53
433.808	6670.92
434.016	6613.57
434.223	6771.27
434.43	7340.6
434.637	7359.03
434.844	7621.17
435.052	7750.2
435.259	7793.2
435.466	7985.71
435.673	7692.85
435.88	8303.15
436.087	8792.61
436.294	8761.89
436.501	8446.51
436.708	8600.1
436.915	8927.78
437.122	9364
437.329	9259.55
437.537	9617.94
437.743	9859.6
437.95	9732.63
438.157	10203.66
438.364	10402.32
438.571	10719.75
438.778	10707.46
438.985	11545.08
439.192	11239.94
439.399	11672.06
439.606	11143.68
439.813	11921.91
440.02	12646.89
440.227	12212.72
440.433	12130.8
440.64	12573.16
440.847	12653.03
441.054	12933.61
441.261	13937.11
441.467	13322.72
441.674	13816.28
441.881	14150.1
442.088	14420.43
442.294	14371.28
442.501	14399.95
442.708	14858.7
442.914	15407.55
443.121	15851.96
443.328	15565.25
443.534	16644.52
443.741	16343.47
443.948	15983.03
444.154	17432.99
444.361	17070.5
444.568	17197.48
444.774	17222.05
444.981	17476
445.187	18086.29
445.394	18667.92
445.6	18672.01
445.807	20371.83
446.013	19472.77
446.22	19745.15
446.426	20726.13
446.633	20396.4
446.839	21698.91
447.046	20273.53
447.252	21504.35
447.459	21707.1
447.665	21641.57
447.871	22626.64
448.078	23515.46
448.284	22475.09
448.491	23109.96
448.697	24328.5
448.903	24496.44
449.11	24222.01
449.316	24443.19
449.522	24869.17
449.728	25186.6
449.935	25422.12
450.141	25792.8
450.347	26263.83
450.553	25305.38
450.76	25710.88
450.966	26507.54
451.172	26151.2
451.378	26972.43
451.584	26503.45
451.791	27060.49
451.997	27027.73
452.203	27533.57
452.409	27633.92
452.615	27304.2
452.821	26401.05
453.027	26001.69
453.233	27492.62
453.44	26417.43
453.646	26425.62
453.852	27089.17
454.058	27164.94
454.264	26366.23
454.47	27089.17
454.676	26456.34
454.882	27599.11
455.088	24926.51
455.294	25522.47
455.5	25678.11
455.705	25774.37
455.911	25010.48
456.117	24826.16
456.323	24439.09
456.529	22933.84
456.735	24047.93
456.941	23265.61
457.147	23325
457.352	22106.46
457.558	22417.75
457.764	22098.27
457.97	21907.8
458.176	21418.34
458.381	21242.21
458.587	20312.44
458.793	20081.02
458.999	18971.02
459.204	20605.3
459.41	19970.43
459.616	18672.01
459.821	18602.38
460.027	18643.34
460.233	18303.38
460.438	17334.69
460.644	17662.37
460.85	16961.96
461.055	16331.19
461.261	16384.43
461.466	15190.47
461.672	14916.04
461.878	15956.41
462.083	14758.35
462.289	14412.24
462.494	14561.74
462.7	13367.77
462.905	13461.98
463.111	13742.55
463.316	14078.42
463.522	13531.61
463.727	13670.87
463.932	13574.62
464.138	13289.95
464.343	13435.36
464.549	13003.24
464.754	13449.69
464.959	13330.91
465.165	13070.82
465.37	12583.4
465.575	12392.94
465.781	12847.59
465.986	13009.38
466.191	12476.91
466.397	12229.1
466.602	11465.21
466.807	12089.84
467.012	12108.27
467.218	12016.12
467.423	11985.4
467.628	11743.74
467.833	12474.86
468.038	11719.16
468.244	11459.07
468.449	11993.59
468.654	11723.26
468.859	11665.91
469.064	11688.44
469.269	10938.88
469.474	11235.84
469.679	11366.91
469.885	10955.27
470.09	11213.31
470.295	11278.85
470.5	10979.84
470.705	10885.64
470.91	10826.25
471.115	10689.03
471.32	10703.37
471.525	10961.41
471.73	10420.75
471.935	10347.02
472.139	10107.41
472.344	10299.92
472.549	9861.65
472.754	10005.01
472.959	9761.3
473.164	9548.31
473.369	9521.69
473.574	9798.17
473.778	9730.58
473.983	9533.98
474.188	9759.25
474.393	9181.73
474.598	9081.38
474.802	9130.53
475.007	9062.94
475.212	9218.59
475.417	8759.84
475.621	8776.23
475.826	8774.18
476.031	8677.93
476.235	8653.35
476.44	8696.36
476.645	8430.12
476.849	8559.14
477.054	8378.92
477.259	8020.53
477.463	8270.38
477.668	8079.92
477.872	7963.19
478.077	7975.47
478.282	7678.52
478.486	7660.09
478.691	7731.76
478.895	7635.51
479.1	7707.19
479.304	7533.11
479.509	7283.26
479.713	7567.93
479.918	7352.89
480.122	7205.44
480.326	7014.98
480.531	7373.37
480.735	7262.78
480.94	7158.33
481.144	7453.24
481.348	7182.91
481.553	7223.87
481.757	6912.58
481.961	7230.01
482.166	7193.15
482.37	7211.58
482.574	7162.43
482.778	6898.24
482.983	7197.24
483.187	7107.13
483.391	7070.27
483.595	6969.92
483.8	6806.08
484.004	6984.26
484.208	7076.41
484.412	7092.8
484.616	7060.03
484.821	7006.78
485.025	6945.34
485.229	7096.89
485.433	6890.05
485.637	6885.95
485.841	6842.95
486.045	6922.82
486.249	6869.57
486.453	6855.23
486.657	6937.15
486.861	7006.78
487.065	6789.7
487.269	7248.44
487.473	6881.86
487.677	7113.28
487.881	7076.41
488.085	6840.9
488.289	7174.72
488.493	6912.58
488.697	7041.6
488.901	6974.02
489.105	7283.26
489.309	7074.37
489.512	7180.86
489.716	7103.04
489.92	7064.13
490.124	7086.65
490.328	7039.55
490.531	7078.46
490.735	7264.83
490.939	7225.92
491.143	7154.24
491.346	7209.53
491.55	7373.37
491.754	7164.48
491.958	7215.68
492.161	7326.27
492.365	7389.75
492.569	7211.58
492.772	7469.62
492.976	7496.25
493.18	7445.05
493.383	7545.4
493.587	7735.86
493.79	7625.27
493.994	7529.02
494.197	7643.7
494.401	7678.52
494.605	7674.42
494.808	7809.59
495.012	7772.72
495.215	7823.92
495.419	7993.9
495.622	7875.12
495.825	8151.6
496.029	8100.4
496.232	8378.92
496.436	8127.02
496.639	8352.3
496.843	8346.16
497.046	8632.87
497.249	8630.82
497.453	8669.73
497.656	8704.55
497.859	8755.75
498.063	8938.02
498.266	8915.49
498.469	9093.66
498.673	9044.51
498.876	9390.62
499.079	9329.18
499.282	9472.54
499.485	9546.26
499.689	9761.3
499.892	9716.25
500.095	9781.78
500.298	10041.87
500.501	10031.63
500.705	9986.58
500.908	9976.34
501.111	10449.42
501.314	10406.41
501.517	10484.23
501.72	10904.07
501.923	10705.42
502.126	11022.85
502.329	11307.52
502.532	10979.84
502.735	11313.66
502.938	11102.72
503.141	11328
503.344	11698.68
503.547	11491.84
503.75	11805.17
503.953	11995.64
504.156	12204.53
504.359	12304.88
504.562	12417.52
504.765	12411.37
504.968	12628.46
505.17	12650.99
505.373	12827.11
505.576	12861.93
505.779	12947.94
505.982	13302.24
506.185	13412.83
506.387	13629.91
506.59	13691.35
506.793	13930.97
506.996	13797.85
507.198	14565.84
507.401	14162.39
507.604	14430.67
507.807	14662.09
508.009	14666.19
508.212	14860.74
508.415	15034.82
508.617	15436.22
508.82	15288.77
509.022	15235.52
509.225	15604.16
509.428	16071.09
509.63	15710.65
509.833	16114.1
510.035	16363.95
510.238	16349.62
510.44	16452.02
510.643	16742.83
510.845	16869.8
511.048	16761.26
511.25	17002.92
511.453	17148.33
511.655	17666.46
511.858	17443.23
512.06	17738.14
512.262	17928.6
512.465	17883.55
512.667	18260.37
512.87	18471.31
513.072	18600.33
513.274	18944.39
513.477	18880.91
513.679	19069.32
513.881	19239.3
514.084	19839.36
514.286	19620.22
514.488	19923.32
514.69	20226.42
514.893	20369.78
515.095	20312.44
515.297	20476.27
515.499	20603.25
515.701	21029.23
515.904	21356.9
516.106	21154.15
516.308	21481.83
516.51	21840.22
516.712	21561.7
516.914	22167.9
517.116	22137.18
517.318	22423.89
517.52	22497.62
517.722	22874.45
517.925	22829.39
518.127	23294.28
518.329	23361.86
518.531	23327.05
518.733	23886.14
518.935	23972.16
519.136	23925.05
519.338	24367.41
519.54	24324.41
519.742	24508.72
519.944	24873.26
520.146	24973.61
520.348	25303.34
520.55	25303.34
520.752	25444.65
520.954	25905.44
521.155	25831.71
521.357	26261.79
521.559	26493.21
521.761	26616.08
521.963	26657.04
522.164	27091.21
522.366	26741.01
522.568	27193.61
522.77	27105.55
522.971	27826.43
523.173	27914.5
523.375	28133.63
523.576	27912.45
523.778	28201.21
523.98	28147.97
524.181	28438.78
524.383	28395.77
524.584	29065.46
524.786	28938.48
524.988	29024.5
525.189	29063.41
525.391	29597.93
525.592	29468.9
525.794	29565.16
525.995	29399.27
526.197	29356.27
526.398	29692.13
526.6	30204.13
526.801	30212.32
527.003	30157.02
527.204	30279.9
527.406	30664.92
527.607	30697.69
527.808	31015.12
528.01	30134.49
528.211	30687.45
528.412	31066.32
528.614	31201.49
528.815	31293.65
529.016	31320.27
529.218	31264.97
529.419	31340.75
529.62	31271.12
529.822	31189.2
530.023	31236.3
530.224	31453.39
530.425	31652.04
530.626	31688.9
530.828	31555.79
531.029	31793.35
531.23	31881.41
531.431	31688.9
531.632	31924.42
531.833	31936.71
532.035	32104.64
532.236	32057.54
532.437	32063.68
532.638	31971.52
532.839	32211.14
533.04	32958.64
533.241	32045.25
533.442	32688.31
533.643	32383.16
533.844	32182.46
534.045	32909.49
534.246	32053.44
534.447	32561.34
534.648	32088.26
534.849	32487.61
535.05	32393.4
535.251	32608.44
535.451	32356.54
535.652	32536.76
535.853	32139.46
536.054	32743.61
536.255	32356.54
536.456	32198.85
536.657	32784.57
536.857	32440.51
537.058	32381.12
537.259	32704.7
537.46	32534.71
537.66	32661.69
537.861	32434.36
538.062	32417.98
538.263	32264.38
538.463	32493.75
538.664	32346.3
538.865	32487.61
539.065	32827.57
539.266	32182.46
539.466	32798.9
539.667	32157.89
539.868	32766.13
540.068	32733.37
540.269	32379.07
540.469	32755.89
540.67	32518.33
540.87	32358.59
541.071	32385.21
541.271	32522.43
541.472	32463.04
541.672	32211.14
541.873	32415.93
542.073	31938.76
542.274	32972.98
542.474	32164.03
542.675	32198.85
542.875	32559.29
543.075	32561.34
543.276	31918.28
543.476	32485.56
543.676	32227.52
543.877	32575.67
544.077	32417.98
544.277	32297.15
544.478	32428.22
544.678	32497.85
544.878	32710.84
545.078	32485.56
545.279	32262.33
545.479	32032.96
545.679	32434.36
545.879	32532.67
546.079	32184.51
546.28	32368.83
546.48	32127.17
546.68	32544.95
546.88	32522.43
547.08	32409.79
547.28	32219.33
547.48	31762.63
547.68	32307.39
547.88	32293.05
548.081	32475.32
548.281	32323.77
548.481	32143.55
548.681	32284.86
548.881	32420.03
549.081	32147.65
549.28	31944.9
549.48	32434.36
549.68	32260.29
549.88	32510.14
550.08	32053.44
550.28	32346.3
550.48	31951.04
550.68	32352.44
550.88	31832.26
551.08	32135.36
551.279	32397.5
551.479	31887.56
551.679	31996.1
551.879	31836.36
552.079	32473.28
552.278	31969.47
552.478	32176.32
552.678	31981.76
552.878	32475.32
553.077	31815.88
553.277	31756.49
553.477	32487.61
553.676	32264.38
553.876	32082.11
554.076	31807.69
554.275	31762.63
554.475	31967.43
554.674	32178.37
554.874	31797.45
555.074	31856.84
555.273	31955.14
555.473	32020.67
555.672	31680.71
555.872	31826.12
556.071	31873.22
556.271	31582.41
556.47	31549.64
556.67	31715.53
556.869	31760.58
557.068	31895.75
557.268	31537.35
557.467	31475.91
557.667	31774.92
557.866	31693
558.065	31152.34
558.265	31070.42
558.464	31207.63
558.663	31791.3
558.863	31115.47
559.062	32012.48
559.261	31201.49
559.461	31641.8
559.66	30963.92
559.859	31054.03
560.058	30861.52
560.258	31205.58
560.457	30419.16
560.656	31328.46
560.855	31103.18
561.054	31068.37
561.253	30509.27
561.453	30746.84
561.652	30914.77
561.851	30658.77
562.05	30685.4
562.249	30286.04
562.448	30740.69
562.647	30666.97
562.846	30367.96
563.045	30468.31
563.244	30316.76
563.443	30687.45
563.642	30054.62
563.841	30378.2
564.04	29946.08
564.239	30419.16
564.438	29812.96
564.637	30040.29
564.836	29987.04
565.035	29851.88
565.234	29548.78
565.432	29636.84
565.631	29614.31
565.83	29882.59
566.029	29280.49
566.228	29268.2
566.427	29331.69
566.625	29167.85
566.824	29122.8
567.023	29323.5
567.222	29350.12
567.42	29477.1
567.619	29096.17
567.818	29112.56
568.016	29212.91
568.215	28918
568.414	28934.39
568.612	28782.84
568.811	28709.11
569.01	28639.48
569.208	28305.66
569.407	28668.15
569.605	28231.93
569.804	28338.43
570.002	28264.7
570.201	28326.14
570.4	28098.81
570.598	27957.5
570.797	28231.93
570.995	27851.01
571.193	27980.03
571.392	28078.33
571.59	27504.9
571.789	27736.32
571.987	27521.29
572.186	27738.37
572.384	27611.4
572.582	27617.54
572.781	27648.26
572.979	27177.23
573.177	27451.66
573.376	27371.78
573.574	27050.25
573.772	27392.26
573.971	26843.41
574.169	26781.97
574.367	26652.95
574.565	26894.61
574.763	26880.27
574.962	26652.95
575.16	26507.54
575.358	26478.87
575.556	26138.91
575.754	26472.73
575.952	26247.45
576.151	26143
576.349	25874.72
576.547	26126.62
576.745	26212.63
576.943	26310.94
577.141	25964.83
577.339	26020.13
577.537	25796.9
577.735	25530.66
577.933	25731.36
578.131	25504.04
578.329	25583.91
578.527	25524.52
578.725	25387.3
578.923	25487.65
579.121	25399.59
579.319	25307.43
579.516	25178.41
579.714	25282.86
579.912	25033
580.11	24959.28
580.308	25260.33
580.506	24801.58
580.704	24758.58
580.901	24908.08
581.099	24738.1
581.297	24740.15
581.495	24299.83
581.692	24914.22
581.89	24088.89
582.088	24688.95
582.285	24455.48
582.483	24215.87
582.681	24168.76
582.878	24158.52
583.076	24090.94
583.274	24316.22
583.471	23574.85
583.669	23900.48
583.866	23419.21
584.064	23910.72
584.262	23376.2
584.459	23826.75
584.657	23497.03
584.854	23771.46
585.052	23300.42
585.249	23583.04
585.447	23298.38
585.644	23103.82
585.841	23306.57
586.039	23273.8
586.236	22989.13
586.434	23060.81
586.631	22950.22
586.828	22909.26
587.026	22716.75
587.223	22882.64
587.42	22563.15
587.618	22626.64
587.815	22346.07
588.012	22708.56
588.21	22124.89
588.407	22403.41
588.604	22288.73
588.801	21934.43
588.999	22241.62
589.196	22270.29
589.393	22358.36
589.59	22069.59
589.787	22040.92
589.984	21786.97
590.182	21727.58
590.379	21764.45
590.576	21696.86
590.773	21705.06
590.97	21469.54
591.167	21590.37
591.364	21453.16
591.561	21320.04
591.758	21045.61
591.955	21207.4
592.152	21377.38
592.349	20889.96
592.546	21209.45
592.743	21188.97
592.94	20539.76
593.137	21129.58
593.334	20851.05
593.531	20576.62
593.727	20969.83
593.924	20797.81
594.121	20466.03
594.318	20666.74
594.515	20359.54
594.712	20736.37
594.908	20296.05
595.105	20523.38
595.302	20134.26
595.499	20459.89
595.696	20068.73
595.892	19773.82
596.089	20205.94
596.286	19951.99
596.482	19978.62
596.679	19843.45
596.876	19863.93
597.072	19790.2
597.269	19898.75
597.466	19503.49
597.662	19505.54
597.859	19534.21
598.055	19450.24
598.252	19292.55
598.448	19323.27
598.645	19333.51
598.841	19011.98
599.038	19007.88
599.234	19274.12
599.431	19020.17
599.627	19020.17
599.824	18885
600.02	18743.69
600.217	19032.46
600.413	19040.65
600.609	18626.96
600.806	18694.54
601.002	18745.74
601.198	18442.64
601.395	18233.75
601.591	18456.98
601.787	18270.61
601.984	18205.08
602.18	18428.31
602.376	18340.24
602.572	17922.46
602.769	18235.8
602.965	18137.49
603.161	18024.86
603.357	17967.51
603.553	17793.44
603.75	18096.53
603.946	17719.71
604.142	17701.28
604.338	17658.27
604.534	17691.04
604.73	17541.53
604.926	17357.22
605.122	17465.76
605.318	17488.29
605.514	17334.69
605.71	17283.49
605.906	17152.42
606.102	17322.4
606.298	17205.67
606.494	17244.58
606.69	16941.48
606.886	17523.1
607.082	16861.61
607.278	17111.46
607.474	16857.51
607.67	16906.66
607.866	16648.62
608.062	16890.28
608.257	16728.49
608.453	16560.56
608.649	16794.03
608.845	16599.47
609.041	16578.99
609.236	16646.57
609.432	16415.15
609.628	16724.4
609.824	16515.5
610.019	16144.82
610.215	16355.76
610.411	16550.32
610.606	16294.32
610.802	16261.55
610.998	16173.49
611.193	16267.7
611.389	16073.14
611.584	16003.51
611.78	16060.85
611.976	16089.53
612.171	16093.62
612.367	16089.53
612.562	16140.72
612.758	15915.45
612.953	15952.31
613.149	15968.69
613.344	15905.21
613.539	15862.2
613.735	15630.78
613.93	15638.97
614.126	15700.41
614.321	15833.53
614.517	15544.77
614.712	15473.09
614.907	15632.83
615.103	15751.61
615.298	15405.5
615.493	15409.6
615.688	15284.67
615.884	15731.13
616.079	15430.08
616.274	15428.03
616.47	15538.62
616.665	15432.13
616.86	15415.74
617.055	15264.19
617.25	15368.64
617.445	15243.71
617.641	15075.78
617.836	15120.84
618.031	15165.89
618.226	14948.81
618.421	15022.53
618.616	15014.34
618.811	14844.36
619.006	15206.85
619.201	14514.64
619.396	14858.7
619.591	14477.77
619.786	14571.98
619.981	14557.64
620.176	14471.63
620.371	14332.37
620.566	14238.16
620.761	14473.68
620.956	14297.55
621.151	14270.93
621.346	14186.96
621.541	14111.19
621.735	14170.58
621.93	13978.07
622.125	13834.71
622.32	13490.65
622.515	13814.23
622.709	13580.76
622.904	13603.29
623.099	13525.47
623.294	13623.77
623.488	13160.93
623.683	13320.67
623.878	13158.88
624.072	13218.27
624.267	13283.81
624.462	13263.33
624.656	12993
624.851	12745.19
625.046	12958.18
625.24	12857.83
625.435	12519.92
625.629	12771.82
625.824	12470.76
626.018	12630.51
626.213	12319.21
626.407	12438
626.602	12130.8
626.796	12313.07
626.991	12155.38
627.185	11997.68
627.38	12032.5
627.574	11946.48
627.768	11928.05
627.963	11962.87
628.157	11784.69
628.352	11670.01
628.546	11506.17
628.74	11848.18
628.935	11631.1
629.129	11485.69
629.323	11481.6
629.517	11360.77
629.712	11274.75
629.906	11377.15
630.1	11254.27
630.294	11162.11
630.489	11149.82
630.683	10971.65
630.877	10889.73
631.071	10887.68
631.265	10885.64
631.459	10856.97
631.653	10746.37
631.848	10830.34
632.042	10531.34
632.236	10592.78
632.43	10437.13
632.624	10486.28
632.818	10459.66
633.012	10172.94
633.206	10394.12
633.4	10248.72
633.594	10152.46
633.788	10359.31
633.982	10316.3
634.176	10146.32
634.369	10066.45
634.563	9957.91
634.757	9781.78
634.951	10025.49
635.145	9910.8
635.339	9871.89
635.533	9699.86
635.726	9712.15
635.92	9632.28
636.114	9576.98
636.308	9570.84
636.501	9536.03
636.695	9493.02
636.889	9294.36
637.083	9329.18
637.276	9384.48
637.47	9173.53
637.664	8974.88
637.857	9134.62
638.051	9157.15
638.244	9024.03
638.438	8950.31
638.632	8993.31
638.825	8862.24
639.019	8722.98
639.212	8667.69
639.406	8884.77
639.599	8641.06
639.793	8682.02
639.986	8614.44
640.18	8342.06
640.373	8477.23
640.567	8471.08
640.76	8446.51
640.954	8393.26
641.147	8342.06
641.34	8192.56
641.534	8299.05
641.727	8350.25
641.92	8243.76
642.114	8004.14
642.307	8092.21
642.5	8106.54
642.694	7952.95
642.887	7850.55
643.08	7981.62
643.273	7987.76
643.467	7746.1
643.66	7846.45
643.853	7709.24
644.046	7490.1
644.239	7727.67
644.432	7483.96
644.626	7602.74
644.819	7625.27
645.012	7510.58
645.205	7588.41
645.398	7412.28
645.591	7287.36
645.784	7332.41
645.977	7332.41
646.17	7334.46
646.363	7234.11
646.556	7049.79
646.749	7080.51
646.942	7326.27
647.135	6951.49
647.328	7051.84
647.521	6896.19
647.714	6627.91
647.907	7039.55
648.099	6871.62
648.292	6908.48
648.485	6904.39
648.678	6801.99
648.871	6666.82
649.064	6660.68
649.256	6718.02
649.449	6642.25
649.642	6502.98
649.835	6470.22
650.027	6388.3
650.22	6412.87
650.413	6480.46
650.605	6410.82
650.798	6453.83
650.991	6361.67
651.183	6210.12
651.376	6232.65
651.568	6289.99
651.761	6195.79
651.954	6173.26
652.146	6122.06
652.339	6300.23
652.531	5943.89
652.724	6089.29
652.916	6048.33
653.109	5997.14
653.301	5956.18
653.494	6025.81
653.686	6109.77
653.879	5929.55
654.071	5726.8
654.263	5771.86
654.456	5864.02
654.648	5814.87
654.84	5714.52
655.033	5665.36
655.225	5608.02
655.417	5622.36
655.61	5569.11
655.802	5519.96
655.994	5546.58
656.186	5646.93
656.379	5419.61
656.571	5415.51
656.763	5347.93
656.955	5362.26
657.148	5450.33
657.34	5413.46
657.532	5268.06
657.724	5249.63
657.916	5227.1
658.108	5276.25
658.3	5167.71
658.492	5155.42
658.684	5059.17
658.876	5173.85
659.068	5096.03
659.26	5046.88
659.452	4973.15
659.644	5005.92
659.836	4954.72
660.028	4911.71
660.22	5003.87
660.412	4887.14
660.604	4840.03
660.796	4878.94
660.988	4803.17
661.18	4799.07
661.372	4631.14
661.563	4706.91
661.755	4592.23
661.947	4629.09
662.139	4704.87
662.331	4676.2
662.522	4569.7
662.714	4649.57
662.906	4631.14
663.097	4678.24
663.289	4606.56
663.481	4358.76
663.673	4381.29
663.864	4428.39
664.056	4246.12
664.247	4260.46
664.439	4205.16
664.631	4401.77
664.822	4276.84
665.014	4440.68
665.205	4338.28
665.397	4293.23
665.588	4147.82
665.78	4127.34
665.971	4129.39
666.163	4131.44
666.354	4096.62
666.546	4061.8
666.737	4037.23
666.929	4057.71
667.12	4096.62
667.311	4008.56
667.503	3992.17
667.694	4012.65
667.885	3924.59
668.077	4000.37
668.268	3994.22
668.459	3943.02
668.651	3734.13
668.842	3918.45
669.033	3766.9
669.224	3889.78
669.416	3938.93
669.607	3811.95
669.798	3711.6
669.989	3738.23
670.18	3693.17
670.371	3682.93
670.563	3717.75
670.754	3713.65
670.945	3635.83
671.136	3639.92
671.327	3596.92
671.518	3598.96
671.709	3537.52
671.9	3488.37
672.091	3570.29
672.282	3508.85
672.473	3439.22
672.664	3523.19
672.855	3418.74
673.046	3506.81
673.237	3510.9
673.428	3320.44
673.619	3457.65
673.809	3279.48
674	3392.12
674.191	3469.94
674.382	3271.29
674.573	3340.92
674.764	3261.05
674.954	3310.2
675.145	3234.43
675.336	3228.28
675.527	3248.76
675.717	3211.9
675.908	3259
676.099	3224.19
676.289	3125.88
676.48	3199.61
676.671	3193.47
676.861	3172.99
677.052	3115.64
677.243	3172.99
677.433	3033.72
677.624	3138.17
677.814	3097.21
678.005	2945.66
678.195	3013.24
678.386	2900.61
678.576	3031.68
678.767	2904.7
678.957	3062.4
679.148	2980.48
679.338	3056.25
679.529	3054.2
679.719	2908.8
679.909	2941.57
680.1	2902.65
680.29	2927.23
680.481	2937.47
680.671	2976.38
680.861	2935.42
681.052	2849.41
681.242	2792.06
681.432	2847.36
681.622	2820.74
681.813	2648.71
682.003	2673.28
682.193	2812.54
682.383	2820.74
682.573	2742.91
682.764	2663.04
682.954	2628.23
683.144	2695.81
683.334	2736.77
683.524	2677.38
683.714	2503.3
683.904	2568.84
684.094	2542.21
684.284	2558.6
684.474	2560.64
684.664	2558.6
684.854	2730.62
685.044	2523.78
685.234	2560.64
685.424	2491.01
685.614	2685.57
685.804	2587.27
685.994	2529.92
686.184	2450.05
686.374	2402.95
686.564	2513.54
686.753	2433.67
686.943	2366.09
687.133	2472.58
687.323	2390.66
687.513	2523.78
687.702	2431.62
687.892	2343.56
688.082	2329.22
688.272	2464.39
688.461	2464.39
688.651	2331.27
688.841	2431.62
689.03	2316.94
689.22	2380.42
689.41	2259.59
689.599	2296.46
689.789	2284.17
689.979	2269.83
690.168	2237.06
690.358	2230.92
690.547	2185.87
690.737	2216.58
690.926	2226.82
691.116	2118.28
691.305	2189.96
691.495	2122.38
691.684	2099.85
691.874	2226.82
692.063	2157.19
692.252	2167.43
692.442	2120.33
692.631	2054.8
692.82	2144.91
693.01	2081.42
693.199	2144.91
693.388	1993.36
693.578	2046.6
693.767	1985.16
693.956	2144.91
694.146	2140.81
694.335	2022.03
694.524	2101.9
694.713	2050.7
694.902	2001.55
695.092	2103.95
695.281	2046.6
695.47	1960.59
695.659	2001.55
695.848	2108.04
696.037	2132.62
696.226	2048.65
696.415	2077.32
696.604	1960.59
696.793	2048.65
696.982	1976.97
697.171	2028.17
697.36	1989.26
697.549	1909.39
697.738	1979.02
697.927	1952.4
698.116	2073.23
698.305	1944.21
698.494	1899.15
698.683	1886.86
698.872	1915.53
699.061	1888.91
699.25	1938.06
699.438	2007.69
699.627	1839.76
699.816	2007.69
700.005	1993.36
700.193	1831.57
700.382	1989.26
700.571	1931.92
700.76	1968.78
700.948	1970.83
701.137	2017.93
701.326	1837.71
701.514	1827.47
701.703	1931.92
701.892	1804.94
702.08	1940.11
702.269	1933.97
702.457	1915.53
702.646	1915.53
702.834	1972.88
703.023	1938.06
703.212	1948.3
703.4	1864.33
703.589	1948.3
703.777	1815.18
703.965	1782.42
704.154	1858.19
704.342	1759.89
704.531	1925.77
704.719	1944.21
704.907	1942.16
705.096	1731.22
705.284	1917.58
705.472	1845.9
705.661	1841.81
705.849	1923.73
706.037	1784.46
706.226	1956.49
706.414	1862.29
706.602	1776.27
706.79	1817.23
706.979	1964.68
707.167	1931.92
707.355	1942.16
707.543	1778.32
707.731	1940.11
707.919	1938.06
708.107	1786.51
708.296	1774.22
708.484	1833.61
708.672	1790.61
708.86	1866.38
709.048	1933.97
709.236	1960.59
709.424	1815.18
709.612	1958.54
709.8	1876.62
709.988	1956.49
710.176	1833.61
710.364	1907.34
710.551	1823.37
710.739	1843.85
710.927	1827.47
711.115	1884.81
711.303	1835.66
711.491	1917.58
711.679	1858.19
711.866	1837.71
712.054	1852.05
712.242	1899.15
712.43	1923.73
712.617	1952.4
712.805	1755.79
712.993	1868.43
713.181	1905.29
713.368	1860.24
713.556	1843.85
713.744	1790.61
713.931	1872.53
714.119	1856.14
714.306	1862.29
714.494	1860.24
714.682	1784.46
714.869	1850
715.057	1821.33
715.244	1784.46
715.432	1821.33
715.619	1876.62
715.807	1847.95
715.994	1784.46
716.182	1817.23
716.369	1766.03
716.556	1753.74
716.744	1827.47
716.931	1862.29
717.119	1843.85
717.306	1821.33
717.493	1907.34
717.681	1866.38
717.868	1823.37
718.055	1731.22
718.242	1819.28
718.43	1864.33
718.617	1825.42
718.804	1786.51
718.991	1763.98
719.179	1946.25
719.366	1870.48
719.553	1770.13
719.74	1806.99
719.927	1845.9
720.114	1745.55
720.301	1780.37
720.488	1757.84
720.676	1782.42
720.863	1817.23
721.05	1751.7
721.237	1768.08
721.424	1776.27
721.611	1784.46
721.798	1819.28
721.985	1868.43
722.172	1852.05
722.358	1739.41
722.545	1815.18
722.732	1720.98
722.919	1743.5
723.106	1741.46
723.293	1653.39
723.48	1741.46
723.667	1712.78
723.853	1729.17
724.04	1827.47
724.227	1763.98
724.414	1895.05
724.6	1743.5
724.787	1680.02
724.974	1839.76
725.161	1696.4
725.347	1680.02
725.534	1794.7
725.72	1811.09
725.907	1706.64
726.094	1856.14
726.28	1768.08
726.467	1718.93
726.653	1739.41
726.84	1845.9
727.027	1796.75
727.213	1753.74
727.4	1620.63
727.586	1796.75
727.773	1794.7
727.959	1669.78
728.145	1747.6
728.332	1794.7
728.518	1659.54
728.705	1751.7
728.891	1692.3
729.077	1653.39
729.264	1671.83
729.45	1735.31
729.636	1798.8
729.823	1626.77
730.009	1686.16
730.195	1651.35
730.382	1714.83
730.568	1653.39
730.754	1614.48
730.94	1716.88
731.126	1725.07
731.313	1671.83
731.499	1594
731.685	1637.01
731.871	1634.96
732.057	1671.83
732.243	1659.54
732.429	1673.87
732.615	1725.07
732.801	1596.05
732.987	1663.63
733.173	1596.05
733.359	1702.54
733.545	1661.59
733.731	1606.29
733.917	1602.19
734.103	1651.35
734.289	1657.49
734.475	1546.9
734.661	1620.63
734.847	1637.01
735.033	1528.47
735.219	1571.47
735.404	1583.76
735.59	1696.4
735.776	1551
735.962	1632.91
736.148	1606.29
736.333	1694.35
736.519	1540.76
736.705	1624.72
736.89	1551
737.076	1587.86
737.262	1456.79
737.447	1567.38
737.633	1565.33
737.819	1522.32
738.004	1610.39
738.19	1555.09
738.375	1524.37
738.561	1604.24
738.747	1497.75
738.932	1534.61
739.118	1628.82
739.303	1483.41
739.489	1594
739.674	1462.93
739.859	1571.47
740.045	1454.74
740.23	1444.5
740.416	1450.64
740.601	1485.46
740.786	1483.41
740.972	1485.46
741.157	1378.97
741.342	1399.45
741.528	1520.28
741.713	1415.83
741.898	1399.45
742.084	1473.17
742.269	1426.07
742.454	1456.79
742.639	1415.83
742.824	1342.1
743.01	1348.25
743.195	1407.64
743.38	1495.7
743.565	1417.88
743.75	1438.36
743.935	1348.25
744.12	1487.51
744.305	1421.97
744.49	1327.77
744.675	1335.96
744.86	1331.86
745.045	1317.53
745.23	1313.43
745.415	1444.5
745.6	1370.77
745.785	1366.68
745.97	1217.18
746.155	1319.57
746.34	1370.77
746.525	1301.14
746.71	1366.68
746.895	1225.37
747.079	1292.95
747.264	1309.33
747.449	1321.62
747.634	1231.51
747.819	1239.7
748.003	1213.08
748.188	1237.66
748.373	1325.72
748.557	1145.5
748.742	1190.55
748.927	1268.38
749.111	1266.33
749.296	1141.4
749.481	1202.84
749.665	1213.08
749.85	1133.21
750.034	1229.46
750.219	1114.78
750.404	1116.83
750.588	1198.74
750.773	1127.07
750.957	1024.67
751.141	1135.26
751.326	1145.5
751.51	1106.59
751.695	1180.31
751.879	1088.15
752.064	1100.44
752.248	1108.63
752.432	1067.67
752.617	1084.06
752.801	1104.54
752.985	1008.28
753.17	1084.06
753.354	1022.62
753.538	1039
753.722	981.66
753.907	942.75
754.091	1049.24
754.275	1032.86
754.459	996
754.643	1032.86
754.828	1016.48
755.012	1036.95
755.196	1028.76
755.38	973.47
755.564	946.84
755.748	1010.33
755.932	983.71
756.116	1014.43
756.3	907.93
756.484	887.45
756.668	891.55
756.852	942.75
757.036	952.99
757.22	932.51
757.404	881.31
757.588	842.4
757.772	842.4
757.956	891.55
758.14	848.54
758.323	916.12
758.507	905.88
758.691	903.84
758.875	916.12
759.059	901.79
759.242	909.98
759.426	809.63
759.61	891.55
759.794	817.82
759.977	838.3
760.161	934.56
760.345	819.87
760.528	803.49
760.712	850.59
760.895	795.29
761.079	860.83
761.263	764.58
761.446	787.1
761.63	821.92
761.813	838.3
761.997	866.97
762.18	801.44
762.364	807.58
762.547	764.58
762.731	752.29
762.914	819.87
763.098	862.88
763.281	760.48
763.464	723.62
763.648	807.58
763.831	817.82
764.015	750.24
764.198	799.39
764.381	762.53
764.564	809.63
764.748	686.75
764.931	746.14
765.114	686.75
765.297	799.39
765.481	662.18
765.664	703.14
765.847	668.32
766.03	742.05
766.213	641.7
766.397	742.05
766.58	764.58
766.763	733.86
766.946	674.46
767.129	707.23
767.312	744.1
767.495	676.51
767.678	639.65
767.861	748.19
768.044	674.46
768.227	729.76
768.41	647.84
768.593	754.34
768.776	703.14
768.959	666.27
769.142	674.46
769.324	670.37
769.507	690.85
769.69	664.22
769.873	615.07
770.056	690.85
770.239	653.98
770.421	672.42
770.604	643.74
770.787	737.95
770.97	735.9
771.152	584.35
771.335	672.42
771.518	670.37
771.7	711.33
771.883	658.08
772.066	645.79
772.248	631.46
772.431	664.22
772.613	586.4
772.796	637.6
772.978	596.64
773.161	664.22
773.343	656.03
773.526	522.91
773.708	637.6
773.891	637.6
774.073	610.98
774.256	664.22
774.438	639.65
774.621	588.45
774.803	596.64
774.985	543.39
775.168	596.64
775.35	623.27
775.532	608.93
775.715	547.49
775.897	608.93
776.079	588.45
776.261	606.88
776.444	598.69
776.626	588.45
776.808	574.11
776.99	539.3
777.173	547.49
777.355	537.25
777.537	522.91
777.719	533.15
777.901	547.49
778.083	481.96
778.265	473.76
778.447	580.26
778.629	500.39
778.811	547.49
778.993	535.2
779.175	574.11
779.357	426.66
779.539	500.39
779.721	475.81
779.903	561.83
780.085	469.67
780.267	473.76
780.449	500.39
780.631	461.48
780.812	492.2
780.994	410.28
781.176	545.44
781.358	467.62
781.54	492.2
781.721	531.11
781.903	463.52
782.085	387.75
782.267	449.19
782.448	432.8
782.63	400.04
782.812	486.05
782.993	447.14
783.175	420.52
783.357	453.28
783.538	361.13
783.72	494.24
783.901	500.39
784.083	455.33
784.264	500.39
784.446	375.46
784.627	383.65
784.809	416.42
784.99	406.18
785.172	340.65
785.353	320.17
785.535	377.51
785.716	375.46
785.897	402.08
786.079	352.93
786.26	303.78
786.441	322.21
786.623	326.31
786.804	354.98
786.985	379.56
787.167	416.42
787.348	373.41
787.529	277.16
787.71	369.32
787.891	359.08
788.073	385.7
788.254	322.21
788.435	291.49
788.616	324.26
788.797	305.83
788.978	311.97
789.159	328.36
789.34	309.93
789.522	279.21
789.703	305.83
789.884	381.6
790.065	295.59
790.246	367.27
790.427	264.87
790.607	268.97
790.788	336.55
790.969	373.41
791.15	225.96
791.331	279.21
791.512	336.55
791.693	283.3
791.874	246.44
792.054	289.45
792.235	371.37
792.416	232.1
792.597	248.49
792.778	287.4
792.958	293.54
793.139	203.43
793.32	185
793.5	326.31
793.681	264.87
793.862	293.54
794.042	248.49
794.223	252.58
794.404	242.34
794.584	238.25
794.765	238.25
794.945	301.73
795.126	271.01
795.306	326.31
795.487	191.14
795.667	252.58
795.848	246.44
796.028	223.91
796.209	141.99
796.389	268.97
796.57	168.62
796.75	223.91
796.93	193.19
797.111	228.01
797.291	197.29
797.471	207.53
797.652	172.71
797.832	187.05
798.012	252.58
798.192	205.48
798.373	131.75
798.553	195.24
798.733	131.75
798.913	121.51
799.093	285.35
799.274	318.12
799.454	170.66
799.634	203.43
799.814	228.01
799.994	223.91
800.174	213.67
800.354	189.1
800.534	105.13
800.714	242.34
800.894	146.09
801.074	160.42
801.254	211.62
801.434	195.24
801.614	174.76
801.794	156.33
801.974	658.08
802.154	172.71
802.334	170.66
802.514	201.38
802.693	168.62
802.873	182.95
803.053	209.58
803.233	240.3
803.413	207.53
803.592	105.13
803.772	131.75
803.952	244.39
804.131	172.71
804.311	195.24
804.491	207.53
804.67	154.28
804.85	103.08
805.03	185
805.209	164.52
805.389	213.67
805.568	156.33
805.748	125.61
805.928	146.09
806.107	115.37
806.287	172.71
806.466	141.99
806.646	172.71
806.825	129.7
807.004	193.19
807.184	234.15
807.363	121.51
807.543	162.47
807.722	107.18
807.901	225.96
808.081	55.98
808.26	127.66
808.439	148.14
808.619	141.99
808.798	191.14
808.977	150.18
809.156	148.14
809.336	185
809.515	123.56
809.694	189.1
809.873	168.62
810.052	125.61
810.231	178.86
810.411	164.52
810.59	182.95
810.769	121.51
810.948	129.7
811.127	154.28
811.306	70.31
811.485	94.89
811.664	137.9
811.843	76.46
812.022	115.37
812.201	107.18
812.38	139.94
812.559	66.22
812.737	189.1
812.916	107.18
813.095	178.86
813.274	148.14
813.453	109.23
813.632	146.09
813.811	246.44
813.989	135.85
814.168	39.59
814.347	105.13
814.526	64.17
814.704	180.9
814.883	146.09
815.062	123.56
815.24	154.28
815.419	125.61
815.598	88.75
815.776	74.41
815.955	127.66
816.133	84.65
816.312	55.98
816.49	139.94
816.669	246.44
816.847	86.7
817.026	62.12
817.204	55.98
817.383	86.7
817.561	127.66
817.74	131.75
817.918	55.98
818.097	86.7
818.275	94.89
818.453	111.27
818.632	148.14
818.81	43.69
818.988	125.61
819.167	133.8
819.345	51.88
819.523	80.55
819.701	82.6
819.879	92.84
820.058	70.31
820.236	111.27
820.414	113.32
820.592	121.51
820.77	86.7
820.948	80.55
821.127	107.18
821.305	62.12
821.483	39.59
821.661	105.13
821.839	47.79
822.017	90.79
822.195	66.22
822.373	76.46
822.551	119.46
822.729	137.9
822.907	31.4
823.085	111.27
823.262	98.99
823.44	51.88
823.618	39.59
823.796	187.05
823.974	125.61
824.152	62.12
824.329	94.89
824.507	92.84
824.685	51.88
824.863	25.26
825.04	60.07
825.218	115.37
825.396	150.18
825.574	92.84
825.751	72.36
825.929	43.69
826.107	66.22
826.284	109.23
826.462	101.03
826.639	47.79
826.817	-17.75
826.994	51.88
827.172	47.79
827.349	121.51
827.527	15.02
827.704	37.55
827.882	90.79
828.059	68.27
828.237	92.84
828.414	86.7
828.591	27.31
828.769	78.51
828.946	86.7
829.124	37.55
829.301	66.22
829.478	90.79
829.655	64.17
829.833	182.95
830.01	33.45
830.187	84.65
830.364	68.27
830.542	8.87
830.719	109.23
830.896	19.11
831.073	72.36
831.25	88.75
831.427	-9.56
831.604	41.64
831.782	55.98
831.959	53.93
832.136	23.21
832.313	51.88
832.49	109.23
832.667	74.41
832.844	66.22
833.021	92.84
833.198	39.59
833.374	47.79
833.551	45.74
833.728	68.27
833.905	60.07
834.082	0.68
834.259	47.79
834.436	90.79
834.612	47.79
834.789	103.08
834.966	55.98
835.143	60.07
835.319	12.97
835.496	139.94
835.673	-15.7
835.85	98.99
836.026	74.41
836.203	23.21
836.38	49.83
836.556	2.73
836.733	58.03
836.909	35.5
837.086	-11.61
837.262	51.88
837.439	92.84
837.616	-27.99
837.792	49.83
837.968	64.17
838.145	47.79
838.321	64.17
838.498	45.74
838.674	84.65
838.851	68.27
839.027	45.74
839.203	47.79
839.38	88.75
839.556	31.4
839.732	-23.89
839.909	39.59
840.085	8.87
840.261	62.12
840.437	-3.41
840.614	12.97
840.79	107.18
840.966	27.31
841.142	62.12
841.318	33.45
841.494	43.69
841.671	-9.56
841.847	17.07
842.023	29.35
842.199	51.88
842.375	123.56
842.551	37.55
842.727	27.31
842.903	51.88
843.079	29.35
843.255	78.51
843.431	47.79
843.607	70.31
843.783	25.26
843.959	-38.23
844.134	-13.65
844.31	37.55
844.486	10.92
844.662	66.22
844.838	15.02
845.013	33.45
845.189	68.27
845.365	60.07
845.541	-1.37
845.716	43.69
845.892	-38.23
846.068	17.07
846.244	33.45
846.419	51.88
846.595	68.27
846.77	10.92
846.946	39.59
847.122	-5.46
847.297	47.79
847.473	90.79
847.648	47.79
847.824	8.87
847.999	-17.75
848.175	51.88
848.35	80.55
848.526	41.64
848.701	-1.37
848.876	78.51
849.052	19.11
849.227	27.31
849.403	23.21
849.578	12.97
849.753	29.35
849.929	76.46
850.104	70.31
850.279	33.45
850.454	96.94
850.63	82.6
850.805	55.98
850.98	25.26
851.155	-25.94
851.33	-3.41
851.505	-23.89
851.681	96.94
851.856	55.98
852.031	101.03
852.206	58.03
852.381	-32.08
852.556	43.69
852.731	88.75
852.906	49.83
853.081	43.69
853.256	96.94
853.431	66.22
853.606	88.75
853.781	-50.52
853.956	55.98
854.131	76.46
854.305	4.78
854.48	-17.75
854.655	-9.56
854.83	45.74
855.005	6.83
855.18	80.55
855.354	-15.7
855.529	84.65
855.704	19.11
855.879	-25.94
856.053	60.07
856.228	-9.56
856.403	-32.08
856.577	33.45
856.752	17.07
856.926	-1.37
857.101	-25.94
857.276	35.5
857.45	53.93
857.625	19.11
857.799	64.17
857.974	98.99
858.148	-38.23
858.323	27.31
858.497	-30.04
858.672	47.79
858.846	47.79
859.02	96.94
859.195	15.02
859.369	2.73
859.543	-3.41
859.718	-34.13
859.892	29.35
860.066	-1.37
860.241	31.4
860.415	43.69
860.589	-15.7
860.763	37.55
860.938	-11.61
861.112	29.35
861.286	-66.9
861.46	31.4
861.634	55.98
861.808	123.56
861.982	-13.65
862.157	-17.75
862.331	-103.76
862.505	-9.56
862.679	25.26
862.853	6.83
863.027	19.11
863.201	127.66
863.375	47.79
863.549	35.5
863.722	86.7
863.896	35.5
864.07	23.21
864.244	49.83
864.418	43.69
864.592	55.98
864.766	-62.8
864.939	64.17
865.113	-30.04
865.287	15.02
865.461	8.87
865.634	68.27
865.808	2.73
865.982	-25.94
866.156	12.97
866.329	39.59
866.503	-1.37
866.676	0.68
866.85	25.26
867.024	12.97
867.197	37.55
867.371	19.11
867.544	-19.8
867.718	72.36
867.891	64.17
868.065	45.74
868.238	47.79
868.412	31.4
868.585	-42.32
868.759	-1.37
868.932	39.59
869.105	-1.37
869.279	-3.41
869.452	-1.37
869.625	27.31
869.799	2.73
869.972	-38.23
870.145	39.59
870.319	88.75
870.492	-7.51
870.665	12.97
870.838	45.74
871.011	-64.85
871.185	2.73
871.358	49.83
871.531	-19.8
871.704	-42.32
871.877	-50.52
872.05	27.31
872.223	-5.46
872.396	6.83
872.569	90.79
872.742	74.41
872.915	15.02
873.088	-77.14
873.261	-23.89
873.434	23.21
873.607	-11.61
873.78	51.88
873.953	6.83
874.126	39.59
874.299	-15.7
874.471	45.74
874.644	-15.7
874.817	23.21
874.99	82.6
875.163	64.17
875.335	-5.46
875.508	-60.76
875.681	19.11
875.853	-25.94
876.026	21.16
876.199	-36.18
876.371	-50.52
876.544	-54.61
876.717	33.45
876.889	49.83
877.062	-3.41
877.234	-42.32
877.407	23.21
877.579	-1.37
877.752	-7.51
877.924	62.12
878.097	31.4
878.269	84.65
878.442	53.93
878.614	-30.04
878.786	-1.37
878.959	66.22
879.131	-13.65
879.303	15.02
879.476	-40.28
879.648	-25.94
879.82	15.02
879.993	2.73
880.165	31.4
880.337	15.02
880.509	-7.51
880.681	60.07
880.854	-15.7
881.026	-7.51
881.198	76.46
881.37	-19.8
881.542	51.88
881.714	8.87
881.886	-13.65
882.058	-25.94
882.23	15.02
882.402	0.68
882.574	39.59
882.746	6.83
882.918	39.59
883.09	0.68
883.262	-23.89
883.434	33.45
883.606	-48.47
883.778	47.79
883.95	49.83
884.122	49.83
884.293	-42.32
884.465	-25.94
884.637	62.12
884.809	23.21
884.98	-34.13
885.152	41.64
885.324	35.5
885.496	-17.75
885.667	39.59
885.839	-9.56
886.011	6.83
886.182	55.98
886.354	21.16
886.525	37.55
886.697	41.64
886.869	19.11
887.04	60.07
887.212	29.35
887.383	47.79
887.555	-30.04
887.726	4.78
887.897	23.21
888.069	47.79
888.24	82.6
888.412	41.64
888.583	-56.66
888.754	-7.51
888.926	15.02
889.097	23.21
889.268	25.26
889.44	123.56
889.611	-15.7
889.782	33.45
889.953	29.35
890.125	47.79
890.296	-73.04
890.467	12.97
890.638	-5.46
890.809	47.79
890.98	47.79
891.151	35.5
891.323	29.35
891.494	53.93
891.665	-64.85
891.836	-9.56
892.007	-9.56
892.178	-1.37
892.349	6.83
892.52	8.87
892.691	29.35
892.862	39.59
893.032	-30.04
893.203	2.73
893.374	-40.28
893.545	55.98
893.716	-27.99
893.887	47.79
894.057	6.83
894.228	-1.37
894.399	76.46
894.57	35.5
894.74	45.74
894.911	-7.51
895.082	0.68
895.253	-1.37
895.423	80.55
895.594	37.55
895.764	27.31
895.935	-25.94
896.106	10.92
896.276	0.68
896.447	47.79
896.617	27.31
896.788	-36.18
896.958	60.07
897.129	-44.37
897.299	-46.42
897.47	-15.7
897.64	43.69
897.81	-58.71
897.981	27.31
898.151	-15.7
898.322	31.4
898.492	8.87
898.662	-42.32
898.832	72.36
899.003	27.31
899.173	-5.46
899.343	-13.65
899.513	51.88
