Data from USB4F104151__20__13-10-32-505.txt Node

Date: Fri Mar 14 13:10:32 EDT 2025
User: louis
Spectrometer: USB4F10415
Trigger mode: 4
Integration Time (sec): 2.000000E-2
Scans to average: 1
Electric dark correction enabled: true
Nonlinearity correction enabled: false
Boxcar width: 0
XAxis mode: Wavelengths
Number of Pixels in Spectrum: 3648
>>>>>Begin Spectral Data<<<<<
178.204	-56.15
178.424	-56.15
178.644	-56.15
178.864	-111.44
179.084	-156.5
179.304	-60.24
179.524	-27.48
179.744	17.58
179.964	25.77
180.184	5.29
180.404	-27.48
180.624	33.96
180.844	11.43
181.064	7.34
181.283	-4.95
181.503	17.58
181.723	1.19
181.943	-43.86
182.163	148.65
182.383	-11.09
182.602	-39.76
182.822	74.92
183.042	19.63
183.262	60.59
183.482	60.59
183.701	48.3
183.921	48.3
184.141	-86.87
184.361	3.24
184.58	-29.52
184.8	-27.48
185.02	-31.57
185.239	17.58
185.459	-29.52
185.679	-9.05
185.898	-21.33
186.118	70.83
186.338	-4.95
186.557	36.01
186.777	38.06
186.997	-4.95
187.216	13.48
187.436	64.68
187.655	83.11
187.875	-88.92
188.095	-62.29
188.314	5.29
188.534	70.83
188.753	95.4
188.973	-7
189.192	-4.95
189.412	7.34
189.631	74.92
189.851	27.82
190.07	3.24
190.29	-88.92
190.509	-15.19
190.729	68.78
190.948	19.63
191.168	74.92
191.387	13.48
191.607	-74.58
191.826	-45.91
192.045	23.72
192.265	-21.33
192.484	17.58
192.704	-7
192.923	-27.48
193.142	103.59
193.362	21.67
193.581	107.69
193.8	-9.05
194.02	25.77
194.239	9.39
194.458	19.63
194.678	-13.14
194.897	-29.52
195.116	95.4
195.335	50.35
195.555	21.67
195.774	42.15
195.993	-27.48
196.212	50.35
196.432	-52.05
196.651	1.19
196.87	-7
197.089	44.2
197.308	38.06
197.528	1.19
197.747	-9.05
197.966	60.59
198.185	48.3
198.404	-4.95
198.623	58.54
198.842	66.73
199.062	31.91
199.281	44.2
199.5	70.83
199.719	17.58
199.938	3.24
200.157	31.91
200.376	17.58
200.595	-29.52
200.814	46.25
201.033	-64.34
201.252	38.06
201.471	-21.33
201.69	91.31
201.909	38.06
202.128	27.82
202.347	11.43
202.566	-13.14
202.785	58.54
203.004	83.11
203.223	21.67
203.442	7.34
203.661	111.78
203.879	74.92
204.098	15.53
204.317	-29.52
204.536	74.92
204.755	44.2
204.974	25.77
205.193	13.48
205.411	91.31
205.63	48.3
205.849	38.06
206.068	79.02
206.287	81.07
206.505	-13.14
206.724	50.35
206.943	29.87
207.162	11.43
207.381	38.06
207.599	-15.19
207.818	56.49
208.037	-4.95
208.255	-72.53
208.474	50.35
208.693	38.06
208.911	-45.91
209.13	23.72
209.349	44.2
209.567	3.24
209.786	9.39
210.005	38.06
210.223	58.54
210.442	33.96
210.661	97.45
210.879	38.06
211.098	38.06
211.316	29.87
211.535	13.48
211.753	23.72
211.972	15.53
212.191	5.29
212.409	58.54
212.628	-11.09
212.846	-2.9
213.065	25.77
213.283	54.44
213.502	27.82
213.72	23.72
213.938	25.77
214.157	1.19
214.375	48.3
214.594	122.02
214.812	15.53
215.031	50.35
215.249	13.48
215.467	3.24
215.686	-2.9
215.904	25.77
216.122	-17.24
216.341	44.2
216.559	-2.9
216.778	68.78
216.996	44.2
217.214	15.53
217.432	79.02
217.651	-31.57
217.869	-39.76
218.087	50.35
218.306	-74.58
218.524	27.82
218.742	21.67
218.96	9.39
219.179	7.34
219.397	25.77
219.615	95.4
219.833	64.68
220.051	3.24
220.27	117.93
220.488	-11.09
220.706	68.78
220.924	33.96
221.142	62.63
221.36	19.63
221.578	25.77
221.796	-17.24
222.015	83.11
222.233	-13.14
222.451	68.78
222.669	36.01
222.887	23.72
223.105	17.58
223.323	27.82
223.541	-70.48
223.759	19.63
223.977	-17.24
224.195	25.77
224.413	19.63
224.631	48.3
224.849	44.2
225.067	29.87
225.285	-7
225.503	46.25
225.721	48.3
225.939	-15.19
226.157	19.63
226.375	66.73
226.592	-33.62
226.81	64.68
227.028	54.44
227.246	62.63
227.464	-47.96
227.682	48.3
227.9	-19.29
228.117	33.96
228.335	33.96
228.553	3.24
228.771	54.44
228.989	-37.72
229.206	95.4
229.424	68.78
229.642	60.59
229.86	-41.81
230.077	81.07
230.295	52.39
230.513	17.58
230.731	17.58
230.948	48.3
231.166	58.54
231.384	-19.29
231.601	-43.86
231.819	5.29
232.037	72.87
232.254	-56.15
232.472	31.91
232.689	-50
232.907	-23.38
233.125	-0.85
233.342	33.96
233.56	3.24
233.777	3.24
233.995	13.48
234.213	93.35
234.43	27.82
234.648	48.3
234.865	-13.14
235.083	9.39
235.3	-7
235.518	72.87
235.735	25.77
235.953	11.43
236.17	87.21
236.388	-64.34
236.605	-15.19
236.822	21.67
237.04	27.82
237.257	83.11
237.475	-17.24
237.692	-50
237.909	56.49
238.127	79.02
238.344	50.35
238.562	-84.82
238.779	-33.62
238.996	-56.15
239.214	23.72
239.431	38.06
239.648	50.35
239.865	13.48
240.083	81.07
240.3	-37.72
240.517	-101.2
240.735	48.3
240.952	3.24
241.169	-45.91
241.386	-4.95
241.603	-33.62
241.821	7.34
242.038	27.82
242.255	21.67
242.472	-31.57
242.689	62.63
242.907	36.01
243.124	-13.14
243.341	29.87
243.558	60.59
243.775	1.19
243.992	-21.33
244.209	17.58
244.426	70.83
244.643	44.2
244.86	-45.91
245.078	17.58
245.295	76.97
245.512	76.97
245.729	-99.16
245.946	-23.38
246.163	19.63
246.38	87.21
246.597	79.02
246.814	62.63
247.031	27.82
247.248	17.58
247.464	9.39
247.681	91.31
247.898	79.02
248.115	107.69
248.332	1.19
248.549	119.98
248.766	54.44
248.983	33.96
249.2	103.59
249.417	76.97
249.633	38.06
249.85	33.96
250.067	29.87
250.284	-7
250.501	3.24
250.717	27.82
250.934	1.19
251.151	74.92
251.368	72.87
251.585	60.59
251.801	15.53
252.018	-56.15
252.235	58.54
252.451	52.39
252.668	-31.57
252.885	74.92
253.102	40.11
253.318	-25.43
253.535	25.77
253.752	17.58
253.968	-35.67
254.185	52.39
254.401	81.07
254.618	62.63
254.835	11.43
255.051	83.11
255.268	89.26
255.484	1.19
255.701	-33.62
255.917	62.63
256.134	21.67
256.351	-19.29
256.567	-54.1
256.784	103.59
257	33.96
257.217	56.49
257.433	1.19
257.65	95.4
257.866	79.02
258.082	3.24
258.299	25.77
258.515	58.54
258.732	-23.38
258.948	5.29
259.165	31.91
259.381	21.67
259.597	3.24
259.814	19.63
260.03	56.49
260.246	31.91
260.463	54.44
260.679	52.39
260.895	33.96
261.112	1.19
261.328	15.53
261.544	9.39
261.761	107.69
261.977	-31.57
262.193	1.19
262.409	79.02
262.626	54.44
262.842	-19.29
263.058	-4.95
263.274	42.15
263.49	36.01
263.707	19.63
263.923	23.72
264.139	-35.67
264.355	15.53
264.571	15.53
264.787	44.2
265.004	9.39
265.22	-11.09
265.436	38.06
265.652	1.19
265.868	3.24
266.084	40.11
266.3	11.43
266.516	-23.38
266.732	-15.19
266.948	31.91
267.164	3.24
267.38	15.53
267.596	1.19
267.812	91.31
268.028	-4.95
268.244	68.78
268.46	29.87
268.676	-52.05
268.892	9.39
269.108	36.01
269.324	58.54
269.54	-62.29
269.756	46.25
269.972	46.25
270.188	25.77
270.403	-2.9
270.619	54.44
270.835	3.24
271.051	1.19
271.267	27.82
271.483	9.39
271.698	33.96
271.914	-21.33
272.13	9.39
272.346	58.54
272.562	3.24
272.777	52.39
272.993	31.91
273.209	-21.33
273.425	23.72
273.64	25.77
273.856	91.31
274.072	33.96
274.287	42.15
274.503	52.39
274.719	-17.24
274.934	15.53
275.15	-21.33
275.366	48.3
275.581	5.29
275.797	38.06
276.012	50.35
276.228	-31.57
276.444	-2.9
276.659	81.07
276.875	-37.72
277.09	17.58
277.306	25.77
277.521	21.67
277.737	31.91
277.952	81.07
278.168	33.96
278.383	70.83
278.599	-7
278.814	25.77
279.03	54.44
279.245	76.97
279.461	40.11
279.676	128.17
279.892	-11.09
280.107	-15.19
280.322	15.53
280.538	1.19
280.753	3.24
280.969	9.39
281.184	7.34
281.399	-2.9
281.615	27.82
281.83	54.44
282.045	50.35
282.26	1.19
282.476	-21.33
282.691	21.67
282.906	-33.62
283.122	36.01
283.337	-27.48
283.552	9.39
283.767	-35.67
283.983	15.53
284.198	58.54
284.413	23.72
284.628	-7
284.843	33.96
285.058	40.11
285.274	-4.95
285.489	-58.2
285.704	-21.33
285.919	21.67
286.134	17.58
286.349	-45.91
286.564	76.97
286.779	-17.24
286.995	13.48
287.21	-2.9
287.425	58.54
287.64	-4.95
287.855	-0.85
288.07	50.35
288.285	83.11
288.5	9.39
288.715	68.78
288.93	-19.29
289.145	11.43
289.36	68.78
289.575	42.15
289.79	15.53
290.004	17.58
290.219	13.48
290.434	-13.14
290.649	11.43
290.864	-0.85
291.079	15.53
291.294	7.34
291.509	-35.67
291.724	36.01
291.938	74.92
292.153	-21.33
292.368	66.73
292.583	58.54
292.798	74.92
293.012	3.24
293.227	21.67
293.442	97.45
293.657	5.29
293.871	130.22
294.086	87.21
294.301	165.03
294.516	-7
294.73	15.53
294.945	19.63
295.16	9.39
295.374	-15.19
295.589	-7
295.804	33.96
296.018	50.35
296.233	-29.52
296.447	23.72
296.662	-37.72
296.877	52.39
297.091	52.39
297.306	48.3
297.52	23.72
297.735	25.77
297.949	60.59
298.164	23.72
298.378	-54.1
298.593	44.2
298.807	27.82
299.022	38.06
299.236	-15.19
299.451	-58.2
299.665	5.29
299.88	50.35
300.094	40.11
300.309	15.53
300.523	-23.38
300.737	27.82
300.952	-84.82
301.166	40.11
301.381	-37.72
301.595	58.54
301.809	36.01
302.024	70.83
302.238	-23.38
302.452	124.07
302.667	17.58
302.881	-19.29
303.095	5.29
303.309	91.31
303.524	-15.19
303.738	52.39
303.952	36.01
304.166	58.54
304.381	-7
304.595	44.2
304.809	-19.29
305.023	70.83
305.237	17.58
305.452	-4.95
305.666	-21.33
305.88	44.2
306.094	62.63
306.308	-13.14
306.522	52.39
306.736	85.16
306.95	36.01
307.164	9.39
307.379	46.25
307.593	132.26
307.807	36.01
308.021	1.19
308.235	-25.43
308.449	3.24
308.663	-29.52
308.877	81.07
309.091	79.02
309.305	76.97
309.519	-39.76
309.733	50.35
309.947	-15.19
310.161	19.63
310.374	81.07
310.588	25.77
310.802	23.72
311.016	50.35
311.23	56.49
311.444	3.24
311.658	33.96
311.872	85.16
312.085	-2.9
312.299	27.82
312.513	64.68
312.727	60.59
312.941	-56.15
313.154	-9.05
313.368	5.29
313.582	-13.14
313.796	-4.95
314.009	19.63
314.223	68.78
314.437	21.67
314.651	17.58
314.864	-82.77
315.078	21.67
315.292	-15.19
315.505	-11.09
315.719	-45.91
315.933	113.83
316.146	11.43
316.36	-31.57
316.573	105.64
316.787	-15.19
317.001	-15.19
317.214	44.2
317.428	74.92
317.641	-19.29
317.855	68.78
318.068	-43.86
318.282	13.48
318.495	9.39
318.709	29.87
318.922	33.96
319.136	42.15
319.349	66.73
319.563	-52.05
319.776	44.2
319.99	-43.86
320.203	-13.14
320.417	25.77
320.63	23.72
320.843	19.63
321.057	36.01
321.27	17.58
321.483	-7
321.697	83.11
321.91	9.39
322.124	-13.14
322.337	-56.15
322.55	19.63
322.763	40.11
322.977	25.77
323.19	-11.09
323.403	-15.19
323.617	-0.85
323.83	93.35
324.043	11.43
324.256	23.72
324.469	-23.38
324.683	60.59
324.896	-60.24
325.109	-31.57
325.322	13.48
325.535	33.96
325.748	19.63
325.962	46.25
326.175	66.73
326.388	132.26
326.601	33.96
326.814	13.48
327.027	52.39
327.24	83.11
327.453	-7
327.666	19.63
327.879	31.91
328.092	103.59
328.305	9.39
328.518	60.59
328.731	58.54
328.944	31.91
329.157	13.48
329.37	1.19
329.583	111.78
329.796	46.25
330.009	44.2
330.222	83.11
330.435	66.73
330.648	29.87
330.861	-19.29
331.073	79.02
331.286	54.44
331.499	99.5
331.712	9.39
331.925	44.2
332.138	-21.33
332.35	130.22
332.563	52.39
332.776	-23.38
332.989	21.67
333.202	-2.9
333.414	13.48
333.627	-23.38
333.84	-19.29
334.053	21.67
334.265	19.63
334.478	36.01
334.691	-15.19
334.903	21.67
335.116	3.24
335.329	44.2
335.541	17.58
335.754	54.44
335.966	-35.67
336.179	83.11
336.392	91.31
336.604	-11.09
336.817	29.87
337.029	66.73
337.242	15.53
337.454	44.2
337.667	-15.19
337.88	-23.38
338.092	38.06
338.305	13.48
338.517	29.87
338.729	52.39
338.942	56.49
339.154	46.25
339.367	29.87
339.579	40.11
339.792	36.01
340.004	9.39
340.217	3.24
340.429	-13.14
340.641	54.44
340.854	46.25
341.066	-47.96
341.278	64.68
341.491	68.78
341.703	50.35
341.915	-45.91
342.128	29.87
342.34	58.54
342.552	9.39
342.764	1.19
342.977	76.97
343.189	44.2
343.401	-29.52
343.613	19.63
343.826	74.92
344.038	52.39
344.25	99.5
344.462	-25.43
344.674	50.35
344.886	58.54
345.099	79.02
345.311	56.49
345.523	23.72
345.735	-11.09
345.947	21.67
346.159	13.48
346.371	50.35
346.583	-35.67
346.795	99.5
347.007	56.49
347.219	40.11
347.431	-0.85
347.643	66.73
347.855	33.96
348.067	107.69
348.279	38.06
348.491	-29.52
348.703	3.24
348.915	66.73
349.127	-21.33
349.339	50.35
349.551	1.19
349.763	44.2
349.975	56.49
350.187	29.87
350.399	25.77
350.61	81.07
350.822	-35.67
351.034	40.11
351.246	-11.09
351.458	50.35
351.669	27.82
351.881	3.24
352.093	19.63
352.305	33.96
352.517	27.82
352.728	48.3
352.94	15.53
353.152	3.24
353.363	-29.52
353.575	29.87
353.787	44.2
353.999	83.11
354.21	-15.19
354.422	58.54
354.633	-7
354.845	21.67
355.057	83.11
355.268	60.59
355.48	66.73
355.692	50.35
355.903	23.72
356.115	19.63
356.326	89.26
356.538	107.69
356.749	119.98
356.961	27.82
357.172	119.98
357.384	-29.52
357.595	87.21
357.807	79.02
358.018	-9.05
358.23	52.39
358.441	72.87
358.653	9.39
358.864	29.87
359.075	-9.05
359.287	70.83
359.498	113.83
359.709	25.77
359.921	9.39
360.132	52.39
360.344	31.91
360.555	-29.52
360.766	21.67
360.977	42.15
361.189	101.55
361.4	17.58
361.611	81.07
361.823	113.83
362.034	66.73
362.245	27.82
362.456	-58.2
362.667	1.19
362.879	58.54
363.09	21.67
363.301	9.39
363.512	70.83
363.723	-31.57
363.935	-39.76
364.146	93.35
364.357	7.34
364.568	36.01
364.779	17.58
364.99	111.78
365.201	33.96
365.412	52.39
365.623	42.15
365.834	27.82
366.045	1.19
366.256	87.21
366.467	33.96
366.678	107.69
366.889	58.54
367.1	27.82
367.311	101.55
367.522	62.63
367.733	52.39
367.944	74.92
368.155	76.97
368.366	11.43
368.577	97.45
368.788	38.06
368.999	-0.85
369.209	64.68
369.42	54.44
369.631	122.02
369.842	13.48
370.053	17.58
370.264	31.91
370.474	21.67
370.685	83.11
370.896	11.43
371.107	33.96
371.317	15.53
371.528	29.87
371.739	83.11
371.95	50.35
372.16	74.92
372.371	-17.24
372.582	-54.1
372.792	9.39
373.003	48.3
373.214	1.19
373.424	54.44
373.635	1.19
373.846	33.96
374.056	50.35
374.267	89.26
374.477	46.25
374.688	-4.95
374.898	-37.72
375.109	29.87
375.319	72.87
375.53	54.44
375.74	81.07
375.951	29.87
376.161	79.02
376.372	87.21
376.582	40.11
376.793	70.83
377.003	50.35
377.214	-0.85
377.424	21.67
377.635	52.39
377.845	105.64
378.055	40.11
378.266	62.63
378.476	-19.29
378.686	1.19
378.897	76.97
379.107	7.34
379.317	50.35
379.528	33.96
379.738	83.11
379.948	81.07
380.158	29.87
380.369	38.06
380.579	25.77
380.789	46.25
380.999	42.15
381.21	27.82
381.42	83.11
381.63	36.01
381.84	101.55
382.05	9.39
382.261	99.5
382.471	76.97
382.681	33.96
382.891	99.5
383.101	42.15
383.311	27.82
383.521	5.29
383.731	74.92
383.941	70.83
384.151	-29.52
384.361	107.69
384.571	64.68
384.781	103.59
384.991	23.72
385.201	23.72
385.411	5.29
385.621	-2.9
385.831	83.11
386.041	68.78
386.251	-9.05
386.461	66.73
386.671	66.73
386.881	1.19
387.091	87.21
387.301	3.24
387.511	85.16
387.72	33.96
387.93	13.48
388.14	54.44
388.35	-2.9
388.56	33.96
388.769	68.78
388.979	11.43
389.189	13.48
389.399	29.87
389.609	66.73
389.818	93.35
390.028	36.01
390.238	76.97
390.447	-0.85
390.657	74.92
390.867	66.73
391.076	46.25
391.286	38.06
391.496	91.31
391.705	31.91
391.915	33.96
392.125	21.67
392.334	29.87
392.544	132.26
392.753	36.01
392.963	5.29
393.172	15.53
393.382	58.54
393.591	124.07
393.801	-7
394.01	-7
394.22	40.11
394.429	64.68
394.639	42.15
394.848	44.2
395.058	85.16
395.267	74.92
395.477	115.88
395.686	107.69
395.895	103.59
396.105	66.73
396.314	68.78
396.524	58.54
396.733	79.02
396.942	107.69
397.152	124.07
397.361	83.11
397.57	17.58
397.78	128.17
397.989	76.97
398.198	158.89
398.407	79.02
398.617	74.92
398.826	70.83
399.035	87.21
399.244	58.54
399.453	52.39
399.663	81.07
399.872	103.59
400.081	58.54
400.29	111.78
400.499	76.97
400.708	111.78
400.917	-23.38
401.127	152.74
401.336	68.78
401.545	99.5
401.754	115.88
401.963	109.74
402.172	87.21
402.381	79.02
402.59	36.01
402.799	183.46
403.008	138.41
403.217	140.46
403.426	76.97
403.635	134.31
403.844	107.69
404.053	146.6
404.262	101.55
404.471	146.6
404.68	148.65
404.888	117.93
405.097	144.55
405.306	136.36
405.515	150.7
405.724	54.44
405.933	111.78
406.142	181.42
406.35	148.65
406.559	119.98
406.768	189.61
406.977	236.71
407.185	191.66
407.394	134.31
407.603	117.93
407.812	212.14
408.02	197.8
408.229	199.85
408.438	238.76
408.646	169.13
408.855	124.07
409.064	228.52
409.272	152.74
409.481	302.25
409.69	238.76
409.898	220.33
410.107	261.29
410.315	271.53
410.524	205.99
410.733	218.28
410.941	283.81
411.15	281.77
411.358	335.01
411.567	263.33
411.775	296.1
411.984	306.34
412.192	400.55
412.401	328.87
412.609	367.78
412.818	418.98
413.026	455.84
413.234	429.22
413.443	394.4
413.651	378.02
413.86	492.71
414.068	500.9
414.276	468.13
414.485	459.94
414.693	609.44
414.901	568.48
415.11	582.82
415.318	615.59
415.526	599.2
415.734	683.17
415.943	621.73
416.151	648.35
416.359	789.66
416.567	732.32
416.776	697.5
416.984	795.81
417.192	816.29
417.4	836.77
417.608	736.42
417.817	910.49
418.025	965.79
418.233	933.02
418.441	1023.13
418.649	926.88
418.857	1002.65
419.065	1000.6
419.273	1029.27
419.481	1084.57
419.689	1160.34
419.897	1248.41
420.105	1211.54
420.313	1305.75
420.521	1279.13
420.729	1332.37
420.937	1402.01
421.145	1459.35
421.353	1492.12
421.561	1574.03
421.769	1623.19
421.977	1627.28
422.185	1709.2
422.393	1821.84
422.601	1827.98
422.809	1778.83
423.017	1746.06
423.224	1901.71
423.432	2061.45
423.64	2059.4
423.848	2253.96
424.056	2122.89
424.263	2352.26
424.471	2276.49
424.679	2378.89
424.887	2475.14
425.094	2544.77
425.302	2651.27
425.51	2694.27
425.718	2786.43
425.925	2729.09
426.133	3038.33
426.341	3165.31
426.548	3245.18
426.756	3171.45
426.964	3204.22
427.171	3441.78
427.379	3609.72
427.586	3626.1
427.794	3843.18
428.001	3892.34
428.209	4146.28
428.417	4066.41
428.624	4293.74
428.832	4263.02
429.039	4226.15
429.247	4252.78
429.454	4734.05
429.662	5151.84
429.869	4682.85
430.076	4869.22
430.284	4834.4
430.491	4973.66
430.699	5301.34
430.906	5243.99
431.114	5434.46
431.321	5483.61
431.528	5690.45
431.736	6057.04
431.943	6337.61
432.15	6212.68
432.358	6124.62
432.565	6566.98
432.772	6530.12
432.979	6980.67
433.187	6954.05
433.394	7107.65
433.601	7345.21
433.808	7695.41
434.016	7371.83
434.223	7791.67
434.43	8256.56
434.637	8219.69
434.844	8676.39
435.052	8743.97
435.259	8705.06
435.466	8997.92
435.673	8756.26
435.88	9483.29
436.087	9753.62
436.294	9810.96
436.501	9708.57
436.708	9661.46
436.915	10214.41
437.122	10585.1
437.329	10335.24
437.537	10880
437.743	11027.46
437.95	10912.77
438.157	11543.55
438.364	12000.24
438.571	11766.78
438.778	12141.55
438.985	13005.8
439.192	12557.29
439.399	13042.66
439.606	12665.83
439.813	13745.11
440.02	14261.2
440.227	14050.26
440.433	13917.14
440.64	14502.86
440.847	14308.3
441.054	14742.47
441.261	15621.05
441.467	15416.26
441.674	15721.4
441.881	16100.28
442.088	16118.71
442.294	16034.74
442.501	16683.95
442.708	16868.27
442.914	17527.71
443.121	18568.08
443.328	17935.26
443.534	18989.96
443.741	18719.63
443.948	18217.88
444.154	19745.66
444.361	19544.96
444.568	19542.91
444.774	19590.02
444.981	20018.04
445.187	20368.24
445.394	21449.57
445.6	21224.29
445.807	23069.51
446.013	22176.6
446.22	22610.77
446.426	23360.33
446.633	23728.96
446.839	24443.7
447.046	23475.01
447.252	24859.44
447.459	24720.18
447.665	24757.04
447.871	25867.04
448.078	27112.2
448.284	25842.46
448.491	26409.75
448.697	27435.78
448.903	28279.55
449.11	28087.04
449.316	27656.96
449.522	27925.25
449.728	28951.28
449.935	28963.57
450.141	28961.52
450.347	29723.37
450.553	28889.84
450.76	29623.01
450.966	30022.37
451.172	30139.1
451.378	30948.05
451.584	29737.7
451.791	30913.23
451.997	30704.34
452.203	31335.12
452.409	31294.16
452.615	31263.44
452.821	30221.02
453.027	29940.45
453.233	31214.29
453.44	30421.72
453.646	30444.25
453.852	30454.49
454.058	31310.54
454.264	30450.39
454.47	30898.9
454.676	29817.57
454.882	31058.64
455.088	28478.2
455.294	28908.27
455.5	29424.36
455.705	29776.61
455.911	28418.81
456.117	28066.56
456.323	27753.22
456.529	26344.22
456.735	27433.74
456.941	26751.76
457.147	26399.51
457.352	25584.42
457.558	25287.46
457.764	25389.86
457.97	24910.64
458.176	24214.33
458.381	24404.79
458.587	22909.77
458.793	22840.14
458.999	21842.78
459.204	23374.66
459.41	22940.49
459.616	21277.54
459.821	21183.34
460.027	21189.48
460.233	20444.02
460.438	19989.37
460.644	19927.93
460.85	18992.01
461.055	18471.82
461.261	18754.44
461.466	17386.4
461.672	16886.7
461.878	17771.42
462.083	16905.13
462.289	16489.39
462.494	16425.9
462.7	15602.62
462.905	15238.08
463.111	15657.92
463.316	15801.27
463.522	15401.92
463.727	15461.31
463.932	15422.4
464.138	15233.99
464.343	15373.25
464.549	14805.96
464.754	15295.43
464.959	15420.35
465.165	15164.36
465.37	14435.28
465.575	13804.5
465.781	14879.69
465.986	14617.55
466.191	14402.51
466.397	13943.77
466.602	13183.97
466.807	13847.51
467.012	13525.98
467.218	13732.83
467.423	13470.69
467.628	13659.1
467.833	14267.34
468.038	13724.63
468.244	13411.29
468.449	13839.32
468.654	13407.2
468.859	13239.26
469.064	13206.5
469.269	12698.6
469.474	12919.78
469.679	12985.32
469.885	12618.73
470.09	12878.82
470.295	12798.95
470.5	12483.56
470.705	12518.38
470.91	12131.31
471.115	12162.03
471.32	12387.31
471.525	12155.89
471.73	12129.27
471.935	11998.2
472.139	11430.91
472.344	11731.96
472.549	11662.33
472.754	11570.17
472.959	11314.17
473.164	11080.71
473.369	10933.25
473.574	11240.45
473.778	11172.86
473.983	11211.78
474.188	11088.9
474.393	10548.23
474.598	10587.15
474.802	10400.78
475.007	10390.54
475.212	10529.8
475.417	9972.75
475.621	9903.12
475.826	10157.07
476.031	9954.32
476.235	9679.89
476.44	9604.12
476.645	9651.22
476.849	9630.74
477.054	9526.3
477.259	9511.96
477.463	9364.51
477.668	8891.43
477.872	9286.68
478.077	9237.53
478.282	8936.48
478.486	8944.67
478.691	8670.25
478.895	8868.9
479.1	8635.43
479.304	8496.17
479.509	8373.29
479.713	8670.25
479.918	8285.23
480.122	8262.7
480.326	8438.83
480.531	8440.87
480.735	8246.32
480.94	8121.39
481.144	8455.21
481.348	8057.9
481.553	8197.17
481.757	7828.53
481.961	8221.74
482.166	8274.99
482.37	8148.01
482.574	8102.96
482.778	8121.39
482.983	8100.91
483.187	8053.81
483.391	8203.31
483.595	7937.07
483.8	7832.63
484.004	8119.34
484.208	8029.23
484.412	8070.19
484.616	8250.41
484.821	7965.75
485.025	7992.37
485.229	8178.73
485.433	8078.38
485.637	8078.38
485.841	8039.47
486.045	7957.55
486.249	7908.4
486.453	8059.95
486.657	7808.05
486.861	8156.21
487.065	7812.15
487.269	8131.63
487.473	7996.46
487.677	8008.75
487.881	8068.14
488.085	8105.01
488.289	8053.81
488.493	7973.94
488.697	8109.1
488.901	8031.28
489.105	7806
489.309	8000.56
489.512	8094.77
489.716	8193.07
489.92	8115.25
490.124	8064.05
490.328	8274.99
490.531	8182.83
490.735	8215.6
490.939	8315.95
491.143	8401.96
491.346	8332.33
491.55	8463.4
491.754	8377.39
491.958	8422.44
492.161	8410.15
492.365	8373.29
492.569	8414.25
492.772	8404.01
492.976	8569.9
493.18	8795.17
493.383	8610.86
493.587	8676.39
493.79	8911.91
493.994	8641.57
494.197	8979.49
494.401	8741.93
494.605	8987.68
494.808	9118.75
495.012	9083.94
495.215	9065.5
495.419	9235.49
495.622	9198.62
495.825	9436.19
496.029	9088.03
496.232	9430.04
496.436	9438.23
496.639	9647.13
496.843	9612.31
497.046	9614.36
497.249	10071.06
497.453	10054.67
497.656	9948.18
497.859	9974.8
498.063	10183.7
498.266	10421.26
498.469	10417.16
498.673	10302.48
498.876	10675.21
499.079	10652.68
499.282	10714.12
499.485	11133.95
499.689	11017.22
499.892	11201.54
500.095	11156.48
500.298	11473.92
500.501	11494.4
500.705	11707.38
500.908	11668.47
501.111	11822.07
501.314	11992.05
501.517	11949.04
501.72	12305.39
501.923	12268.53
502.126	12665.83
502.329	12579.82
502.532	12669.93
502.735	12903.4
502.938	13194.21
503.141	13093.86
503.344	13366.24
503.547	13358.05
503.75	13659.1
503.953	13962.2
504.156	13796.31
504.359	13892.57
504.562	14197.71
504.765	14455.76
504.968	14447.57
505.17	14685.13
505.373	14635.98
505.576	14736.33
505.779	14943.17
505.982	15201.22
506.185	15479.74
506.387	15659.96
506.59	15551.42
506.793	15987.64
506.996	16143.28
507.198	16266.16
507.401	16049.08
507.604	16475.06
507.807	16888.74
508.009	17005.48
508.212	17042.34
508.415	17058.73
508.617	17386.4
508.82	17476.51
509.022	17552.29
509.225	17996.7
509.428	18037.66
509.63	18154.39
509.833	18432.91
510.035	18641.81
510.238	18674.57
510.44	19008.39
510.643	19315.59
510.845	19182.47
511.048	19016.58
511.25	19784.57
511.453	19524.48
511.655	20355.96
511.858	19960.7
512.06	20351.86
512.262	20327.28
512.465	20421.49
512.667	20763.5
512.87	21308.26
513.072	21066.6
513.274	21582.69
513.477	21779.29
513.679	21795.68
513.881	21885.79
514.084	22219.61
514.286	22315.86
514.488	22553.43
514.69	23208.78
514.893	22950.73
515.095	23378.76
515.297	23423.81
515.499	23538.5
515.701	23522.12
515.904	24128.31
516.106	24144.7
516.308	24650.55
516.51	24785.71
516.712	24707.89
516.914	25369.38
517.116	25353
517.318	25574.18
517.52	25801.5
517.722	25795.36
517.925	25987.87
518.127	26573.59
518.329	26651.41
518.531	26477.33
518.733	27253.51
518.935	27073.29
519.136	27091.73
519.338	27689.73
519.54	27781.89
519.742	27867.91
519.944	28015.36
520.146	28728.05
520.348	28938.99
520.55	28918.51
520.752	28967.66
520.954	29639.4
521.155	29336.3
521.357	29848.29
521.559	29987.55
521.761	30444.25
521.963	30339.8
522.164	30352.09
522.366	30530.26
522.568	30964.43
522.77	30747.35
522.971	31486.67
523.173	30954.19
523.375	31468.23
523.576	31347.4
523.778	31800.01
523.98	32213.7
524.181	32373.44
524.383	32094.91
524.584	32649.91
524.786	32721.59
524.988	32817.85
525.189	33344.17
525.391	33575.59
525.592	33518.25
525.794	33596.07
525.995	33888.93
526.197	33657.51
526.398	33809.06
526.6	33936.04
526.801	33960.61
527.003	34218.66
527.204	34468.51
527.406	34730.65
527.607	34591.39
527.808	34806.42
528.01	34351.77
528.211	35003.03
528.412	35025.56
528.614	35185.3
528.815	35408.53
529.016	35515.02
529.218	35132.05
529.419	35250.83
529.62	35615.37
529.822	35474.06
530.023	35705.48
530.224	36096.64
530.425	35850.89
530.626	35402.38
530.828	35723.91
531.029	36459.13
531.23	36127.36
531.431	35930.76
531.632	36080.26
531.833	36291.2
532.035	36141.7
532.236	36457.09
532.437	36582.01
532.638	35943.05
532.839	36350.59
533.04	36631.16
533.241	36190.85
533.442	36797.05
533.643	36653.69
533.844	36360.83
534.045	36473.47
534.246	35973.77
534.447	36821.62
534.648	36364.93
534.849	36733.56
535.05	36487.81
535.251	36905.59
535.451	36409.98
535.652	36842.1
535.853	36561.53
536.054	36641.4
536.255	36592.25
536.456	36192.9
536.657	36739.71
536.857	36584.06
537.058	36717.18
537.259	36708.99
537.46	36663.93
537.66	36553.34
537.861	36350.59
538.062	36536.96
538.263	36530.81
538.463	36551.29
538.664	36326.02
538.865	36569.72
539.065	36557.44
539.266	36283.01
539.466	36702.84
539.667	36391.55
539.868	36854.39
540.068	36369.02
540.269	36172.42
540.469	36446.85
540.67	36506.24
540.87	36360.83
541.071	36586.11
541.271	36690.55
541.472	36639.36
541.672	36215.43
541.873	36225.67
542.073	36194.95
542.274	36889.21
542.474	36455.04
542.675	36283.01
542.875	36639.36
543.075	36209.28
543.276	35990.15
543.476	36690.55
543.676	36280.96
543.877	36694.65
544.077	36569.72
544.277	36301.44
544.478	36162.18
544.678	36432.51
544.878	36205.19
545.078	36229.76
545.279	36471.42
545.479	36502.14
545.679	36258.43
545.879	36184.71
546.079	36711.03
546.28	36369.02
546.48	35668.62
546.68	36391.55
546.88	36799.1
547.08	36487.81
547.28	36049.54
547.48	36164.23
547.68	36328.06
547.88	35897.99
548.081	36502.14
548.281	36086.4
548.481	35992.2
548.681	36485.76
548.881	36067.97
549.081	36014.73
549.28	36393.6
549.48	36483.71
549.68	36274.82
549.88	36708.99
550.08	36121.22
550.28	36213.38
550.48	35990.15
550.68	36541.05
550.88	35771.02
551.08	36100.74
551.279	35885.7
551.479	35994.25
551.679	36004.49
551.879	36137.6
552.079	36149.89
552.278	36186.75
552.478	36082.31
552.678	36000.39
552.878	36276.87
553.077	35449.49
553.277	35799.69
553.477	36352.64
553.676	35420.81
553.876	36088.45
554.076	35918.47
554.275	35705.48
554.475	35598.99
554.674	35732.11
554.874	35639.95
555.074	35267.22
555.273	35805.83
555.473	35564.17
555.672	35299.98
555.872	35304.08
556.071	35672.71
556.271	36153.99
556.47	35938.95
556.67	35017.36
556.869	35275.41
557.068	35281.55
557.268	35164.82
557.467	35066.52
557.667	35052.18
557.866	35205.78
558.065	34939.54
558.265	35314.32
558.464	34753.18
558.663	35201.68
558.863	34775.7
559.062	35404.43
559.261	34929.3
559.461	35369.61
559.66	34609.82
559.859	34556.57
560.058	34554.52
560.258	34972.31
560.457	34286.24
560.656	34673.31
560.855	34347.68
561.054	34697.88
561.253	34448.03
561.453	34488.99
561.652	34833.05
561.851	34618.01
562.05	34146.98
562.249	33864.36
562.448	34869.91
562.647	34464.41
562.846	34575
563.045	34597.53
563.244	33655.47
563.443	34388.64
563.642	33688.23
563.841	33788.58
564.04	33882.79
564.239	34046.63
564.438	33538.73
564.637	34022.05
564.836	33837.73
565.035	33252.02
565.234	33571.5
565.432	33260.21
565.631	33391.28
565.83	33209.01
566.029	32967.35
566.228	33125.04
566.427	33125.04
566.625	32893.62
566.824	32703.16
567.023	32830.13
567.222	32125.63
567.42	33178.29
567.619	32867
567.818	32617.14
568.016	32963.25
568.215	32666.3
568.414	32361.15
568.612	33161.9
568.811	32053.95
569.01	32539.32
569.208	32260.8
569.407	32379.58
569.605	31916.74
569.804	32225.98
570.002	32053.95
570.201	32127.68
570.4	31627.98
570.598	31636.17
570.797	31517.39
570.995	31707.85
571.193	31236.81
571.392	31644.36
571.59	31007.44
571.789	31439.56
571.987	31048.4
572.186	31595.21
572.384	31193.81
572.582	31306.44
572.781	31122.13
572.979	30821.08
573.177	31005.39
573.376	30780.12
573.574	30489.31
573.772	30763.73
573.971	30300.89
574.169	30335.71
574.367	30290.65
574.565	30362.33
574.763	30083.81
574.962	30491.35
575.16	29926.11
575.358	30022.37
575.556	29661.93
575.754	30077.66
575.952	29467.37
576.151	29833.96
576.349	29455.08
576.547	29801.19
576.745	29367.02
576.943	29516.52
577.141	29242.09
577.339	29410.03
577.537	29190.89
577.735	29238
577.933	29123.31
578.131	28904.18
578.329	29041.39
578.527	28723.96
578.725	29139.69
578.923	29403.88
579.121	28666.61
579.319	28721.91
579.516	28973.81
579.714	28658.42
579.912	28467.96
580.11	28275.45
580.308	28306.17
580.506	28173.05
580.704	27929.34
580.901	28179.2
581.099	28615.41
581.297	27943.68
581.495	27988.74
581.692	28105.47
581.89	27468.55
582.088	27835.14
582.285	27450.12
582.483	27910.91
582.681	27497.22
582.878	27663.11
583.076	27181.84
583.274	27171.6
583.471	27239.18
583.669	27529.99
583.866	26872.59
584.064	27159.31
584.262	26606.36
584.459	26813.2
584.657	27048.72
584.854	27005.71
585.052	26626.84
585.249	27101.97
585.447	26575.64
585.644	26225.43
585.841	26528.53
586.039	26802.96
586.236	26440.47
586.434	25924.38
586.631	26352.41
586.828	26444.57
587.026	25989.92
587.223	26264.35
587.42	25703.2
587.618	25926.43
587.815	25869.09
588.012	25576.23
588.21	25236.27
588.407	25805.6
588.604	25332.52
588.801	25330.47
588.999	25535.27
589.196	25377.58
589.393	25285.42
589.59	24953.65
589.787	24984.37
589.984	24953.65
590.182	24847.15
590.379	25082.67
590.576	24871.73
590.773	24253.24
590.97	24521.52
591.167	24881.97
591.364	24609.59
591.561	24478.52
591.758	24320.82
591.955	24316.73
592.152	24511.28
592.349	24142.65
592.546	24199.99
592.743	24261.43
592.94	24021.82
593.137	24105.79
593.334	24093.5
593.531	23784.26
593.727	23802.69
593.924	23659.33
594.121	23372.61
594.318	23913.28
594.515	23319.37
594.712	23671.62
594.908	22872.91
595.105	23495.49
595.302	22956.88
595.499	23354.18
595.696	22889.29
595.892	22911.82
596.089	23245.64
596.286	22838.09
596.482	23051.08
596.679	22760.27
596.876	23092.04
597.072	22922.06
597.269	22682.45
597.466	22547.28
597.662	22289.24
597.859	22285.14
598.055	22436.69
598.252	21988.19
598.448	22387.54
598.645	22211.42
598.841	22059.87
599.038	22170.46
599.234	22033.24
599.431	21760.86
599.627	22008.67
599.824	21728.1
600.02	21934.94
600.217	21850.97
600.413	21654.37
600.609	21511.01
600.806	21195.62
601.002	21531.49
601.198	21406.56
601.395	21103.46
601.591	21404.52
601.787	21062.51
601.984	21279.59
602.18	21119.85
602.376	20779.89
602.572	20968.3
602.769	20841.32
602.965	20487.03
603.161	20624.24
603.357	20632.43
603.553	20407.16
603.75	20720.49
603.946	20480.88
604.142	20317.04
604.338	20102.01
604.534	20192.12
604.73	20384.63
604.926	20046.71
605.122	20261.75
605.318	19889.02
605.514	19815.29
605.71	19934.07
605.906	19835.77
606.102	20001.66
606.298	19872.64
606.494	19803
606.69	19768.19
606.886	19936.12
607.082	19426.18
607.278	19868.54
607.474	19403.65
607.67	19678.08
607.866	19303.3
608.062	19499.91
608.257	19411.84
608.453	19231.62
608.649	19250.05
608.845	19254.15
609.041	19151.75
609.236	19256.2
609.432	18963.34
609.628	19063.69
609.824	18760.59
610.019	18826.12
610.215	18713.49
610.411	19241.86
610.606	18828.17
610.802	18686.86
610.998	18779.02
611.193	18748.3
611.389	18885.51
611.584	18504.59
611.78	18584.46
611.976	18578.32
612.171	18795.4
612.367	18580.37
612.562	18633.61
612.758	18176.92
612.953	18332.56
613.149	18514.83
613.344	18072.47
613.539	18551.7
613.735	18152.34
613.93	18105.24
614.126	18277.27
614.321	18404.24
614.517	18230.16
614.712	18060.18
614.907	17908.63
615.103	18070.42
615.298	17955.74
615.493	18238.36
615.688	17937.3
615.884	18121.62
616.079	17871.77
616.274	17843.1
616.47	17828.76
616.665	17857.43
616.86	17769.37
617.055	17806.23
617.25	17660.83
617.445	17656.73
617.641	17152.93
617.836	17662.88
618.031	17374.11
618.226	17492.9
618.421	17540
618.616	17744.8
618.811	17210.28
619.006	17292.19
619.201	17101.73
619.396	17111.97
619.591	16765.87
619.786	16888.74
619.981	16733.1
620.176	17005.48
620.371	16554.93
620.566	16657.32
620.761	16690.09
620.956	16729
621.151	16499.63
621.346	16452.53
621.541	16190.39
621.735	16491.44
621.93	16227.25
622.125	16102.32
622.32	16126.9
622.515	16135.09
622.709	15692.73
622.904	15940.54
623.099	15895.48
623.294	15811.51
623.488	15526.85
623.683	15500.22
623.878	15520.7
624.072	15563.71
624.267	15287.23
624.462	15233.99
624.656	15150.02
624.851	15111.11
625.046	15068.1
625.24	14941.13
625.435	14805.96
625.629	14721.99
625.824	14646.22
626.018	14707.66
626.213	14420.94
626.407	14412.75
626.602	14080.98
626.796	14529.48
626.991	14220.24
627.185	14048.21
627.38	14001.11
627.574	13798.36
627.768	13880.28
627.963	13798.36
628.157	13749.21
628.352	13628.38
628.546	13370.33
628.74	13652.95
628.935	13329.38
629.129	13306.85
629.323	13341.66
629.517	13179.87
629.712	13169.63
629.906	13100
630.1	13075.43
630.294	12893.16
630.489	12850.15
630.683	13073.38
630.877	12559.34
631.071	12643.31
631.265	12811.24
631.459	12475.37
631.653	12600.3
631.848	12469.23
632.042	12268.53
632.236	12252.14
632.43	12219.38
632.624	12407.79
632.818	12088.31
633.012	11994.1
633.206	11824.12
633.4	12043.25
633.594	11879.41
633.788	11928.56
633.982	11826.17
634.176	11832.31
634.369	11682.81
634.563	11865.08
634.757	11635.71
634.951	11457.53
635.145	11629.56
635.339	11371.52
635.533	11494.4
635.726	11367.42
635.92	11146.24
636.114	11062.27
636.308	11308.03
636.501	11015.17
636.695	10978.31
636.889	11021.31
637.083	10918.92
637.276	10634.25
637.47	10947.59
637.664	10796.04
637.857	10730.5
638.051	10677.26
638.244	10445.84
638.438	10746.89
638.632	10318.86
638.825	10376.2
639.019	10282
639.212	10128.4
639.406	10259.47
639.599	10376.2
639.793	10251.28
639.986	9802.77
640.18	9929.75
640.373	9968.66
640.567	9815.06
640.76	9866.26
640.954	9767.96
641.147	9841.68
641.34	9526.3
641.534	9704.47
641.727	9651.22
641.92	9524.25
642.114	9427.99
642.307	9475.1
642.5	9643.03
642.694	9321.5
642.887	9245.73
643.08	9444.38
643.273	9249.82
643.467	9135.14
643.66	9079.84
643.853	9159.71
644.046	8844.32
644.239	9075.74
644.432	8963.11
644.626	8793.12
644.819	8795.17
645.012	8913.95
645.205	8856.61
645.398	8754.21
645.591	8604.71
645.784	8647.72
645.977	8410.15
646.17	8502.31
646.363	8352.81
646.556	8385.58
646.749	8481.83
646.942	8338.48
647.135	8334.38
647.328	8348.72
647.521	8152.11
647.714	8027.18
647.907	8137.77
648.099	8215.6
648.292	8234.03
648.485	7849.01
648.678	7842.87
648.871	7806
649.064	7785.52
649.256	7971.89
649.449	8004.66
649.642	7742.52
649.835	7656.5
650.027	7605.3
650.22	7478.33
650.413	7642.17
650.605	7597.11
650.798	7359.55
650.991	7455.8
651.183	7349.31
651.376	7332.92
651.568	7425.08
651.761	7308.35
651.954	7377.98
652.146	7203.9
652.339	7334.97
652.531	7140.41
652.724	7199.8
652.916	6982.72
653.109	7064.64
653.301	7148.61
653.494	6976.58
653.686	6816.83
653.879	7019.58
654.071	6857.79
654.263	6814.79
654.456	6757.44
654.648	6779.97
654.84	6763.59
655.033	6773.83
655.225	6605.89
655.417	6712.39
655.61	6646.85
655.802	6487.11
655.994	6575.17
656.186	6487.11
656.379	6329.42
656.571	6507.59
656.763	6255.69
656.955	6345.8
657.148	6376.52
657.34	6460.49
657.532	6245.45
657.724	6179.92
657.916	6188.11
658.108	6200.4
658.3	6024.27
658.492	6005.84
658.684	6011.98
658.876	5997.65
659.068	5975.12
659.26	6003.79
659.452	5932.11
659.644	6046.8
659.836	5774.42
660.028	5801.04
660.22	5901.39
660.412	5772.37
660.604	5698.64
660.796	5784.66
660.988	5856.34
661.18	5692.5
661.372	5459.03
661.563	5678.16
661.755	5475.42
661.947	5676.12
662.139	5606.49
662.331	5350.49
662.522	5516.37
662.714	5385.3
662.906	5340.25
663.097	5409.88
663.289	5391.45
663.481	5379.16
663.673	5293.15
663.864	5276.76
664.056	5121.12
664.247	5305.43
664.439	5268.57
664.631	5125.21
664.822	5207.13
665.014	5213.28
665.205	5006.43
665.397	5100.64
665.588	5028.96
665.78	5014.62
665.971	4938.85
666.163	4828.26
666.354	4944.99
666.546	4895.84
666.737	4732
666.929	4928.61
667.12	4793.44
667.311	4738.15
667.503	4818.02
667.694	4723.81
667.885	4639.84
668.077	4672.61
668.268	4607.08
668.459	4811.87
668.651	4691.04
668.842	4514.92
669.033	4670.56
669.224	4555.88
669.416	4566.12
669.607	4416.62
669.798	4525.16
669.989	4422.76
670.18	4478.05
670.371	4355.18
670.563	4373.61
670.754	4379.75
670.945	4197.48
671.136	4295.79
671.327	4439.14
671.518	4351.08
671.709	4287.59
671.9	4387.94
672.091	4353.13
672.282	4181.1
672.473	4248.68
672.664	4236.39
672.855	4179.05
673.046	4220.01
673.237	4158.57
673.428	4058.22
673.619	4138.09
673.809	4056.17
674	4070.51
674.191	4076.65
674.382	3970.16
674.573	4062.32
674.764	4037.74
674.954	4041.84
675.145	3869.81
675.336	4011.12
675.527	3894.38
675.717	3949.68
675.908	3810.42
676.099	3935.34
676.289	3716.21
676.48	3921.01
676.671	3800.18
676.861	3802.22
677.052	3763.31
677.243	3703.92
677.433	3748.98
677.624	3777.65
677.814	3581.04
678.005	3669.11
678.195	3556.47
678.386	3626.1
678.576	3615.86
678.767	3638.39
678.957	3689.59
679.148	3769.46
679.338	3681.39
679.529	3535.99
679.719	3480.69
679.909	3470.45
680.1	3441.78
680.29	3501.17
680.481	3474.55
680.671	3474.55
680.861	3478.65
681.052	3456.12
681.242	3308.66
681.432	3396.73
681.622	3435.64
681.813	3409.01
682.003	3310.71
682.193	3384.44
682.383	3402.87
682.573	3263.61
682.764	3433.59
682.954	3314.81
683.144	3269.75
683.334	3286.14
683.524	3228.79
683.714	3279.99
683.904	3351.67
684.094	3128.44
684.284	3169.4
684.474	3159.16
684.664	3105.92
684.854	3249.27
685.044	3193.98
685.234	3083.39
685.424	3083.39
685.614	3249.27
685.804	3085.44
685.994	3071.1
686.184	3069.05
686.374	3112.06
686.564	3060.86
686.753	2987.13
686.943	2868.35
687.133	3026.04
687.323	2976.89
687.513	3058.81
687.702	3034.24
687.892	2989.18
688.082	2927.74
688.272	2882.69
688.461	2901.12
688.651	2972.8
688.841	2849.92
689.03	2991.23
689.22	2870.4
689.41	2796.67
689.599	2745.47
689.789	2776.19
689.979	2765.95
690.168	2727.04
690.358	2880.64
690.547	2704.51
690.737	2763.9
690.926	2798.72
691.116	2823.3
691.305	2727.04
691.495	2655.36
691.684	2778.24
691.874	2786.43
692.063	2714.75
692.252	2765.95
692.442	2622.59
692.631	2681.99
692.82	2641.03
693.01	2569.35
693.199	2567.3
693.388	2630.79
693.578	2514.05
693.767	2651.27
693.956	2534.53
694.146	2585.73
694.335	2606.21
694.524	2579.59
694.713	2483.33
694.902	2544.77
695.092	2567.3
695.281	2520.2
695.47	2557.06
695.659	2479.24
695.848	2555.01
696.037	2598.02
696.226	2518.15
696.415	2409.61
696.604	2417.8
696.793	2489.48
696.982	2475.14
697.171	2389.13
697.36	2442.37
697.549	2391.17
697.738	2557.06
697.927	2391.17
698.116	2450.57
698.305	2364.55
698.494	2323.59
698.683	2393.22
698.872	2436.23
699.061	2319.5
699.25	2342.02
699.438	2366.6
699.627	2327.69
699.816	2499.72
700.005	2274.44
700.193	2358.41
700.382	2419.85
700.571	2311.3
700.76	2296.97
700.948	2217.1
701.137	2331.78
701.326	2288.78
701.514	2331.78
701.703	2294.92
701.892	2337.93
702.08	2360.45
702.269	2290.82
702.457	2260.1
702.646	2352.26
702.834	2264.2
703.023	2380.93
703.212	2301.06
703.4	2290.82
703.589	2296.97
703.777	2243.72
703.965	2184.33
704.154	2258.06
704.342	2270.34
704.531	2258.06
704.719	2278.54
704.907	2360.45
705.096	2217.1
705.284	2249.86
705.472	2311.3
705.661	2213
705.849	2382.98
706.037	2270.34
706.226	2262.15
706.414	2311.3
706.602	2223.24
706.79	2262.15
706.979	2174.09
707.167	2100.36
707.355	2215.05
707.543	2135.18
707.731	2202.76
707.919	2247.82
708.107	2260.1
708.296	2165.9
708.484	2288.78
708.672	2202.76
708.86	2333.83
709.048	2118.79
709.236	2172.04
709.424	2231.43
709.612	2167.95
709.8	2237.58
709.988	2251.91
710.176	2245.77
710.364	2190.47
710.551	2278.54
710.739	2135.18
710.927	2116.75
711.115	2202.76
711.303	2086.03
711.491	2163.85
711.679	2169.99
711.866	2217.1
712.054	2129.03
712.242	2188.43
712.43	2247.82
712.617	2176.14
712.805	2155.66
712.993	2229.38
713.181	2178.19
713.368	2184.33
713.556	2122.89
713.744	2094.22
713.931	2180.23
714.119	2235.53
714.306	2151.56
714.494	2210.95
714.682	2081.93
714.869	2098.31
715.057	2227.34
715.244	2124.94
715.432	2116.75
715.619	2069.64
715.807	2180.23
715.994	2135.18
716.182	2206.86
716.369	2139.27
716.556	2184.33
716.744	2104.46
716.931	2073.74
717.119	2208.9
717.306	2137.23
717.493	2124.94
717.681	2088.07
717.868	2106.51
718.055	2026.64
718.242	2159.75
718.43	2135.18
718.617	2165.9
718.804	2153.61
718.991	2172.04
719.179	2114.7
719.366	2122.89
719.553	2141.32
719.74	2069.64
719.927	2026.64
720.114	2141.32
720.301	2006.16
720.488	2094.22
720.676	2116.75
720.863	2098.31
721.05	2174.09
721.237	2077.83
721.424	2174.09
721.611	2055.31
721.798	2110.6
721.985	2057.36
722.172	2077.83
722.358	2038.92
722.545	2116.75
722.732	2108.55
722.919	2098.31
723.106	2180.23
723.293	2090.12
723.48	2129.03
723.667	2032.78
723.853	2016.4
724.04	2163.85
724.227	2018.44
724.414	1977.48
724.6	2047.12
724.787	2114.7
724.974	2038.92
725.161	2055.31
725.347	2210.95
725.534	2032.78
725.72	2065.55
725.907	2088.07
726.094	2149.51
726.28	1946.76
726.467	2065.55
726.653	1936.53
726.84	1932.43
727.027	2057.36
727.213	2135.18
727.4	2010.25
727.586	2057.36
727.773	1950.86
727.959	1997.96
728.145	1977.48
728.332	2040.97
728.518	1967.24
728.705	2028.68
728.891	1969.29
729.077	2092.17
729.264	2045.07
729.45	2067.6
729.636	2090.12
729.823	2102.41
730.009	2086.03
730.195	2030.73
730.382	1942.67
730.568	1985.68
730.754	2008.2
730.94	1920.14
731.126	2120.84
731.313	2061.45
731.499	2088.07
731.685	1938.57
731.871	2045.07
732.057	1983.63
732.243	1985.68
732.429	2045.07
732.615	2012.3
732.801	1957
732.987	1971.34
733.173	2061.45
733.359	2012.3
733.545	2000.01
733.731	1946.76
733.917	2063.5
734.103	1965.2
734.289	2036.88
734.475	1926.29
734.661	2014.35
734.847	1987.72
735.033	2034.83
735.219	1928.33
735.404	2083.98
735.59	2032.78
735.776	1946.76
735.962	1938.57
736.148	2000.01
736.333	2049.16
736.519	1877.13
736.705	1952.91
736.89	1991.82
737.076	1916.05
737.262	1969.29
737.447	1944.72
737.633	1852.56
737.819	1961.1
738.004	1922.19
738.19	1834.13
738.375	1840.27
738.561	1893.52
738.747	1858.7
738.932	1840.27
739.118	1957
739.303	1860.75
739.489	1866.89
739.674	1877.13
739.859	1827.98
740.045	1903.76
740.23	1840.27
740.416	1875.09
740.601	1914
740.786	1830.03
740.972	1889.42
741.157	1873.04
741.342	1760.4
741.528	1791.12
741.713	1877.13
741.898	1739.92
742.084	1864.85
742.269	1793.17
742.454	1772.69
742.639	1782.93
742.824	1778.83
743.01	1846.41
743.195	1860.75
743.38	1703.06
743.565	1797.26
743.75	1801.36
743.935	1862.8
744.12	1741.97
744.305	1721.49
744.49	1631.38
744.675	1752.21
744.86	1748.11
745.045	1715.34
745.23	1731.73
745.415	1668.24
745.6	1713.3
745.785	1574.03
745.97	1594.51
746.155	1584.27
746.34	1707.15
746.525	1567.89
746.71	1715.34
746.895	1590.42
747.079	1641.62
747.264	1617.04
747.449	1643.67
747.634	1721.49
747.819	1582.23
748.003	1537.17
748.188	1522.84
748.373	1524.88
748.557	1541.27
748.742	1586.32
748.927	1592.47
749.111	1520.79
749.296	1547.41
749.481	1418.39
749.665	1516.69
749.85	1424.53
750.034	1490.07
750.219	1410.2
750.404	1479.83
750.588	1467.54
750.773	1397.91
750.957	1303.7
751.141	1387.67
751.326	1387.67
751.51	1299.61
751.695	1430.68
751.879	1336.47
752.064	1395.86
752.248	1338.52
752.432	1406.1
752.617	1328.28
752.801	1281.18
752.985	1297.56
753.17	1328.28
753.354	1277.08
753.538	1305.75
753.722	1236.12
753.907	1254.55
754.091	1197.21
754.275	1242.26
754.459	1322.13
754.643	1285.27
754.828	1172.63
755.012	1191.06
755.196	1197.21
755.38	1172.63
755.564	1164.44
755.748	1252.5
755.932	1162.39
756.116	1133.72
756.3	1207.45
756.484	1172.63
756.668	1238.17
756.852	1133.72
757.036	1076.38
757.22	1150.11
757.404	1221.78
757.588	1066.14
757.772	1135.77
757.956	1100.95
758.14	1105.05
758.323	1146.01
758.507	1197.21
758.691	1004.7
758.875	1127.58
759.059	1131.67
759.242	1094.81
759.426	1127.58
759.61	978.08
759.794	1033.37
759.977	998.56
760.161	1035.42
760.345	1000.6
760.528	1090.71
760.712	1051.8
760.895	1008.8
761.079	998.56
761.263	920.73
761.446	982.17
761.63	961.69
761.813	1055.9
761.997	955.55
762.18	1033.37
762.364	1068.19
762.547	922.78
762.731	908.44
762.914	928.92
763.098	902.3
763.281	963.74
763.464	887.97
763.648	902.3
763.831	953.5
764.015	967.84
764.198	935.07
764.381	885.92
764.564	885.92
764.748	861.34
764.931	867.49
765.114	918.68
765.297	867.49
765.481	861.34
765.664	867.49
765.847	875.68
766.03	855.2
766.213	885.92
766.397	906.4
766.58	865.44
766.763	943.26
766.946	910.49
767.129	828.57
767.312	826.53
767.495	935.07
767.678	877.73
767.861	855.2
768.044	867.49
768.227	797.85
768.41	814.24
768.593	902.3
768.776	795.81
768.959	838.81
769.142	873.63
769.324	797.85
769.507	853.15
769.69	797.85
769.873	824.48
770.056	797.85
770.239	783.52
770.421	787.61
770.604	799.9
770.787	812.19
770.97	877.73
771.152	810.14
771.335	769.18
771.518	844.96
771.7	799.9
771.883	771.23
772.066	847.01
772.248	765.09
772.431	797.85
772.613	830.62
772.796	769.18
772.978	771.23
773.161	812.19
773.343	703.65
773.526	728.22
773.708	779.42
773.891	738.46
774.073	707.74
774.256	804
774.438	763.04
774.621	607.39
774.803	707.74
774.985	664.74
775.168	668.83
775.35	705.7
775.532	713.89
775.715	724.13
775.897	672.93
776.079	654.5
776.261	672.93
776.444	607.39
776.626	787.61
776.808	607.39
776.99	511.14
777.173	609.44
777.355	634.02
777.537	595.11
777.719	685.22
777.901	644.26
778.083	560.29
778.265	582.82
778.447	552.1
778.629	634.02
778.811	607.39
778.993	601.25
779.175	593.06
779.357	548
779.539	552.1
779.721	517.28
779.903	625.83
780.085	623.78
780.267	601.25
780.449	615.59
780.631	574.63
780.812	527.52
780.994	502.95
781.176	482.47
781.358	554.15
781.54	472.23
781.721	535.71
781.903	527.52
782.085	410.79
782.267	525.47
782.448	543.91
782.63	517.28
782.812	509.09
782.993	498.85
783.175	425.12
783.357	531.62
783.538	500.9
783.72	492.71
783.901	459.94
784.083	412.84
784.264	517.28
784.446	369.83
784.627	470.18
784.809	435.36
784.99	470.18
785.172	474.28
785.353	437.41
785.535	488.61
785.716	443.56
785.897	431.27
786.079	445.6
786.26	378.02
786.441	363.69
786.623	468.13
786.804	441.51
786.985	390.31
787.167	443.56
787.348	349.35
787.529	435.36
787.71	445.6
787.891	386.21
788.073	386.21
788.254	429.22
788.435	287.91
788.616	380.07
788.797	357.54
788.978	357.54
789.159	384.16
789.34	369.83
789.522	289.96
789.703	347.3
789.884	386.21
790.065	361.64
790.246	335.01
790.427	322.73
790.607	382.12
790.788	296.1
790.969	384.16
791.15	396.45
791.331	263.33
791.512	267.43
791.693	265.38
791.874	296.1
792.054	378.02
792.235	402.6
792.416	281.77
792.597	306.34
792.778	287.91
792.958	339.11
793.139	375.97
793.32	341.16
793.5	269.48
793.681	271.53
793.862	279.72
794.042	335.01
794.223	220.33
794.404	330.92
794.584	289.96
794.765	300.2
794.945	287.91
795.126	289.96
795.306	332.97
795.487	275.62
795.667	246.95
795.848	240.81
796.028	156.84
796.209	298.15
796.389	287.91
796.57	289.96
796.75	265.38
796.93	216.23
797.111	214.18
797.291	253.09
797.471	316.58
797.652	251.05
797.832	185.51
798.012	306.34
798.192	205.99
798.373	287.91
798.553	208.04
798.733	115.88
798.913	287.91
799.093	246.95
799.274	169.13
799.454	220.33
799.634	269.48
799.814	259.24
799.994	316.58
800.174	279.72
800.354	181.42
800.534	292.01
800.714	261.29
800.894	199.85
801.074	146.6
801.254	263.33
801.434	271.53
801.614	230.57
801.794	271.53
801.974	672.93
802.154	140.46
802.334	283.81
802.514	162.98
802.693	205.99
802.873	232.62
803.053	283.81
803.233	216.23
803.413	218.28
803.592	183.46
803.772	136.36
803.952	185.51
804.131	191.66
804.311	228.52
804.491	240.81
804.67	240.81
804.85	169.13
805.03	234.66
805.209	238.76
805.389	195.75
805.568	189.61
805.748	191.66
805.928	142.5
806.107	218.28
806.287	126.12
806.466	189.61
806.646	173.22
806.825	91.31
807.004	189.61
807.184	134.31
807.363	236.71
807.543	193.7
807.722	117.93
807.901	138.41
808.081	191.66
808.26	173.22
808.439	173.22
808.619	142.5
808.798	189.61
808.977	169.13
809.156	167.08
809.336	193.7
809.515	173.22
809.694	119.98
809.873	167.08
810.052	203.94
810.231	201.9
810.411	175.27
810.59	236.71
810.769	208.04
810.948	152.74
811.127	189.61
811.306	222.38
811.485	111.78
811.664	173.22
811.843	189.61
812.022	132.26
812.201	91.31
812.38	119.98
812.559	107.69
812.737	132.26
812.916	83.11
813.095	154.79
813.274	128.17
813.453	232.62
813.632	107.69
813.811	158.89
813.989	68.78
814.168	201.9
814.347	117.93
814.526	136.36
814.704	197.8
814.883	117.93
815.062	115.88
815.24	117.93
815.419	128.17
815.598	124.07
815.776	140.46
815.955	93.35
816.133	111.78
816.312	205.99
816.49	162.98
816.669	91.31
816.847	136.36
817.026	124.07
817.204	52.39
817.383	165.03
817.561	156.84
817.74	152.74
817.918	183.46
818.097	117.93
818.275	76.97
818.453	107.69
818.632	134.31
818.81	185.51
818.988	177.32
819.167	148.65
819.345	83.11
819.523	33.96
819.701	54.44
819.879	101.55
820.058	126.12
820.236	122.02
820.414	76.97
820.592	74.92
820.77	173.22
820.948	95.4
821.127	138.41
821.305	76.97
821.483	58.54
821.661	140.46
821.839	107.69
822.017	74.92
822.195	136.36
822.373	148.65
822.551	52.39
822.729	109.74
822.907	76.97
823.085	74.92
823.262	48.3
823.44	160.94
823.618	91.31
823.796	111.78
823.974	52.39
824.152	68.78
824.329	23.72
824.507	132.26
824.685	126.12
824.863	103.59
825.04	60.59
825.218	76.97
825.396	95.4
825.574	58.54
825.751	87.21
825.929	85.16
826.107	70.83
826.284	144.55
826.462	95.4
826.639	60.59
826.817	56.49
826.994	33.96
827.172	29.87
827.349	138.41
827.527	42.15
827.704	107.69
827.882	56.49
828.059	97.45
828.237	81.07
828.414	138.41
828.591	40.11
828.769	95.4
828.946	56.49
829.124	99.5
829.301	27.82
829.478	54.44
829.655	76.97
829.833	111.78
830.01	29.87
830.187	64.68
830.364	103.59
830.542	140.46
830.719	115.88
830.896	185.51
831.073	36.01
831.25	93.35
831.427	87.21
831.604	68.78
831.782	13.48
831.959	42.15
832.136	83.11
832.313	44.2
832.49	25.77
832.667	119.98
832.844	11.43
833.021	36.01
833.198	52.39
833.374	97.45
833.551	42.15
833.728	40.11
833.905	111.78
834.082	38.06
834.259	107.69
834.436	83.11
834.612	89.26
834.789	113.83
834.966	87.21
835.143	33.96
835.319	11.43
835.496	56.49
835.673	134.31
835.85	132.26
836.026	54.44
836.203	85.16
836.38	97.45
836.556	109.74
836.733	93.35
836.909	44.2
837.086	36.01
837.262	-15.19
837.439	64.68
837.616	-2.9
837.792	33.96
837.968	-31.57
838.145	-0.85
838.321	83.11
838.498	79.02
838.674	109.74
838.851	60.59
839.027	15.53
839.203	79.02
839.38	66.73
839.556	25.77
839.732	119.98
839.909	19.63
840.085	87.21
840.261	-17.24
840.437	76.97
840.614	9.39
840.79	85.16
840.966	76.97
841.142	-19.29
841.318	33.96
841.494	54.44
841.671	74.92
841.847	62.63
842.023	40.11
842.199	50.35
842.375	-17.24
842.551	25.77
842.727	1.19
842.903	79.02
843.079	85.16
843.255	29.87
843.431	91.31
843.607	128.17
843.783	-19.29
843.959	76.97
844.134	42.15
844.31	56.49
844.486	29.87
844.662	15.53
844.838	44.2
845.013	13.48
845.189	23.72
845.365	21.67
845.541	7.34
845.716	17.58
845.892	23.72
846.068	54.44
846.244	29.87
846.419	62.63
846.595	11.43
846.77	-2.9
846.946	40.11
847.122	19.63
847.297	56.49
847.473	95.4
847.648	-17.24
847.824	-29.52
847.999	-11.09
848.175	54.44
848.35	25.77
848.526	62.63
848.701	50.35
848.876	-19.29
849.052	54.44
849.227	-4.95
849.403	62.63
849.578	-31.57
849.753	29.87
849.929	76.97
850.104	-13.14
850.279	36.01
850.454	99.5
850.63	70.83
850.805	29.87
850.98	-37.72
851.155	62.63
851.33	-25.43
851.505	36.01
851.681	74.92
851.856	68.78
852.031	31.91
852.206	25.77
852.381	9.39
852.556	13.48
852.731	33.96
852.906	50.35
853.081	-23.38
853.256	91.31
853.431	17.58
853.606	44.2
853.781	38.06
853.956	25.77
854.131	33.96
854.305	15.53
854.48	66.73
854.655	48.3
854.83	33.96
855.005	97.45
855.18	74.92
855.354	9.39
855.529	62.63
855.704	68.78
855.879	33.96
856.053	5.29
856.228	1.19
856.403	-4.95
856.577	3.24
856.752	-19.29
856.926	42.15
857.101	21.67
857.276	-13.14
857.45	103.59
857.625	74.92
857.799	-11.09
857.974	36.01
858.148	-82.77
858.323	68.78
858.497	-52.05
858.672	-17.24
858.846	21.67
859.02	13.48
859.195	52.39
859.369	-9.05
859.543	70.83
859.718	52.39
859.892	1.19
860.066	19.63
860.241	42.15
860.415	13.48
860.589	13.48
860.763	13.48
860.938	50.35
861.112	13.48
861.286	36.01
861.46	-7
861.634	50.35
861.808	-11.09
861.982	52.39
862.157	-21.33
862.331	-11.09
862.505	-35.67
862.679	38.06
862.853	17.58
863.027	31.91
863.201	93.35
863.375	40.11
863.549	29.87
863.722	3.24
863.896	83.11
864.07	-7
864.244	-17.24
864.418	1.19
864.592	-33.62
864.766	-17.24
864.939	-43.86
865.113	5.29
865.287	44.2
865.461	-23.38
865.634	50.35
865.808	-19.29
865.982	-29.52
866.156	66.73
866.329	-47.96
866.503	87.21
866.676	-7
866.85	-58.2
867.024	11.43
867.197	56.49
867.371	-29.52
867.544	-27.48
867.718	21.67
867.891	74.92
868.065	-2.9
868.238	40.11
868.412	68.78
868.585	-41.81
868.759	-19.29
868.932	33.96
869.105	9.39
869.279	-4.95
869.452	3.24
869.625	5.29
869.799	27.82
869.972	-21.33
870.145	-35.67
870.319	58.54
870.492	23.72
870.665	87.21
870.838	-21.33
871.011	-88.92
871.185	19.63
871.358	7.34
871.531	50.35
871.704	-19.29
871.877	36.01
872.05	11.43
872.223	-62.29
872.396	58.54
872.569	19.63
872.742	5.29
872.915	17.58
873.088	-50
873.261	19.63
873.434	-0.85
873.607	-88.92
873.78	38.06
873.953	-15.19
874.126	-15.19
874.299	-13.14
874.471	-35.67
874.644	29.87
874.817	58.54
874.99	81.07
875.163	-19.29
875.335	101.55
875.508	-11.09
875.681	-29.52
875.853	1.19
876.026	25.77
876.199	33.96
876.371	-33.62
876.544	-41.81
876.717	-2.9
876.889	-9.05
877.062	17.58
877.234	17.58
877.407	33.96
877.579	-27.48
877.752	36.01
877.924	-21.33
878.097	27.82
878.269	66.73
878.442	-15.19
878.614	27.82
878.786	19.63
878.959	15.53
879.131	31.91
879.303	46.25
879.476	-11.09
879.648	-33.62
879.82	-15.19
879.993	-19.29
880.165	58.54
880.337	-37.72
880.509	40.11
880.681	-7
880.854	-52.05
881.026	-31.57
881.198	40.11
881.37	21.67
881.542	9.39
881.714	-7
881.886	36.01
882.058	3.24
882.23	-72.53
882.402	-29.52
882.574	38.06
882.746	48.3
882.918	44.2
883.09	-23.38
883.262	27.82
883.434	52.39
883.606	-19.29
883.778	-23.38
883.95	21.67
884.122	-15.19
884.293	3.24
884.465	-7
884.637	17.58
884.809	7.34
884.98	27.82
885.152	19.63
885.324	11.43
885.496	1.19
885.667	21.67
885.839	-23.38
886.011	97.45
886.182	-25.43
886.354	83.11
886.525	50.35
886.697	68.78
886.869	9.39
887.04	72.87
887.212	48.3
887.383	21.67
887.555	38.06
887.726	-39.76
887.897	-35.67
888.069	-11.09
888.24	-4.95
888.412	31.91
888.583	29.87
888.754	-29.52
888.926	9.39
889.097	-23.38
889.268	-56.15
889.44	68.78
889.611	29.87
889.782	-84.82
889.953	-66.39
890.125	13.48
890.296	42.15
890.467	23.72
890.638	-13.14
890.809	-39.76
890.98	11.43
891.151	70.83
891.323	25.77
891.494	-35.67
891.665	-4.95
891.836	44.2
892.007	42.15
892.178	-31.57
892.349	-15.19
892.52	52.39
892.691	46.25
892.862	13.48
893.032	-13.14
893.203	17.58
893.374	-0.85
893.545	68.78
893.716	15.53
893.887	44.2
894.057	-17.24
894.228	-35.67
894.399	17.58
894.57	33.96
894.74	11.43
894.911	3.24
895.082	36.01
895.253	-50
895.423	-15.19
895.594	68.78
895.764	-13.14
895.935	-31.57
896.106	-39.76
896.276	13.48
896.447	52.39
896.617	-43.86
896.788	36.01
896.958	36.01
897.129	1.19
897.299	-60.24
897.47	-43.86
897.64	38.06
897.81	-13.14
897.981	85.16
898.151	-56.15
898.322	-27.48
898.492	25.77
898.662	17.58
898.832	-4.95
899.003	17.58
899.173	7.34
899.343	17.58
899.513	38.06
