Data from USB4F104151__35__13-11-00-003.txt Node

Date: Fri Mar 14 13:11:00 EDT 2025
User: louis
Spectrometer: USB4F10415
Trigger mode: 4
Integration Time (sec): 2.000000E-2
Scans to average: 1
Electric dark correction enabled: true
Nonlinearity correction enabled: false
Boxcar width: 0
XAxis mode: Wavelengths
Number of Pixels in Spectrum: 3648
>>>>>Begin Spectral Data<<<<<
178.204	-78.16
178.424	-78.16
178.644	-78.16
178.864	-67.92
179.084	-143.7
179.304	-6.49
179.524	42.67
179.744	9.9
179.964	-63.83
180.184	-16.73
180.404	26.28
180.624	16.04
180.844	-14.68
181.064	77.48
181.283	18.09
181.503	-98.64
181.723	9.9
181.943	-2.39
182.163	32.43
182.383	7.85
182.602	54.95
182.822	22.19
183.042	85.67
183.262	79.53
183.482	11.95
183.701	13.99
183.921	-20.82
184.141	-35.16
184.361	-2.39
184.58	54.95
184.8	16.04
185.02	69.29
185.239	-0.34
185.459	71.34
185.679	63.15
185.898	-24.92
186.118	79.53
186.338	30.38
186.557	42.67
186.777	1.71
186.997	-41.3
187.216	-53.59
187.436	79.53
187.655	13.99
187.875	61.1
188.095	18.09
188.314	61.1
188.534	38.57
188.753	-18.77
188.973	42.67
189.192	59.05
189.412	50.86
189.631	5.8
189.851	-59.73
190.07	63.15
190.29	16.04
190.509	22.19
190.729	26.28
190.948	38.57
191.168	165.54
191.387	77.48
191.607	20.14
191.826	24.23
192.045	20.14
192.265	-47.44
192.484	22.19
192.704	13.99
192.923	40.62
193.142	67.24
193.362	-0.34
193.581	130.73
193.8	83.63
194.02	28.33
194.239	-47.44
194.458	-0.34
194.678	-22.87
194.897	22.19
195.116	-35.16
195.335	1.71
195.555	54.95
195.774	-18.77
195.993	22.19
196.212	3.75
196.432	-16.73
196.651	1.71
196.87	-45.4
197.089	69.29
197.308	63.15
197.528	50.86
197.747	59.05
197.966	28.33
198.185	48.81
198.404	42.67
198.623	7.85
198.842	52.91
199.062	59.05
199.281	11.95
199.5	-10.58
199.719	38.57
199.938	26.28
200.157	9.9
200.376	48.81
200.595	48.81
200.814	13.99
201.033	-16.73
201.252	91.82
201.471	1.71
201.69	85.67
201.909	83.63
202.128	54.95
202.347	44.71
202.566	24.23
202.785	20.14
203.004	-22.87
203.223	50.86
203.442	-53.59
203.661	40.62
203.879	52.91
204.098	59.05
204.317	-14.68
204.536	110.25
204.755	18.09
204.974	52.91
205.193	81.58
205.411	175.78
205.63	52.91
205.849	42.67
206.068	32.43
206.287	-80.21
206.505	79.53
206.724	28.33
206.943	11.95
207.162	22.19
207.381	75.43
207.599	46.76
207.818	18.09
208.037	38.57
208.255	-6.49
208.474	28.33
208.693	38.57
208.911	16.04
209.13	38.57
209.349	67.24
209.567	-78.16
209.786	122.54
210.005	24.23
210.223	-18.77
210.442	-26.96
210.661	-10.58
210.879	120.49
211.098	59.05
211.316	20.14
211.535	79.53
211.753	22.19
211.972	28.33
212.191	13.99
212.409	-14.68
212.628	-31.06
212.846	-45.4
213.065	42.67
213.283	61.1
213.502	59.05
213.72	24.23
213.938	46.76
214.157	18.09
214.375	7.85
214.594	69.29
214.812	34.47
215.031	65.19
215.249	-29.01
215.467	11.95
215.686	-12.63
215.904	36.52
216.122	26.28
216.341	50.86
216.559	3.75
216.778	20.14
216.996	40.62
217.214	63.15
217.432	89.77
217.651	44.71
217.869	-22.87
218.087	5.8
218.306	-10.58
218.524	-8.53
218.742	40.62
218.96	69.29
219.179	59.05
219.397	34.47
219.615	20.14
219.833	67.24
220.051	44.71
220.27	28.33
220.488	-0.34
220.706	61.1
220.924	93.87
221.142	32.43
221.36	5.8
221.578	54.95
221.796	9.9
222.015	-59.73
222.233	-20.82
222.451	102.06
222.669	34.47
222.887	-10.58
223.105	87.72
223.323	-26.96
223.541	-24.92
223.759	30.38
223.977	28.33
224.195	40.62
224.413	-0.34
224.631	36.52
224.849	7.85
225.067	-4.44
225.285	-47.44
225.503	11.95
225.721	-0.34
225.939	22.19
226.157	34.47
226.375	73.39
226.592	-18.77
226.81	-37.2
227.028	91.82
227.246	28.33
227.464	-0.34
227.682	40.62
227.9	18.09
228.117	34.47
228.335	24.23
228.553	54.95
228.771	63.15
228.989	40.62
229.206	24.23
229.424	-22.87
229.642	-10.58
229.86	18.09
230.077	26.28
230.295	9.9
230.513	-10.58
230.731	20.14
230.948	30.38
231.166	93.87
231.384	65.19
231.601	-72.02
231.819	69.29
232.037	120.49
232.254	-6.49
232.472	67.24
232.689	-41.3
232.907	77.48
233.125	22.19
233.342	48.81
233.56	40.62
233.777	-10.58
233.995	24.23
234.213	42.67
234.43	81.58
234.648	116.39
234.865	28.33
235.083	26.28
235.3	22.19
235.518	46.76
235.735	3.75
235.953	63.15
236.17	-26.96
236.388	-22.87
236.605	1.71
236.822	13.99
237.04	34.47
237.257	11.95
237.475	-8.53
237.692	-35.16
237.909	54.95
238.127	-22.87
238.344	91.82
238.562	40.62
238.779	38.57
238.996	22.19
239.214	-2.39
239.431	100.01
239.648	18.09
239.865	63.15
240.083	59.05
240.3	-14.68
240.517	9.9
240.735	63.15
240.952	81.58
241.169	83.63
241.386	75.43
241.603	-24.92
241.821	34.47
242.038	22.19
242.255	50.86
242.472	1.71
242.689	57
242.907	-20.82
243.124	-20.82
243.341	44.71
243.558	83.63
243.775	-33.11
243.992	-69.97
244.209	108.2
244.426	20.14
244.643	11.95
244.86	-39.25
245.078	89.77
245.295	44.71
245.512	32.43
245.729	-39.25
245.946	114.34
246.163	38.57
246.38	11.95
246.597	-22.87
246.814	40.62
247.031	38.57
247.248	-18.77
247.464	79.53
247.681	106.15
247.898	-8.53
248.115	40.62
248.332	32.43
248.549	83.63
248.766	-0.34
248.983	61.1
249.2	-55.64
249.417	48.81
249.633	9.9
249.85	11.95
250.067	26.28
250.284	34.47
250.501	59.05
250.717	42.67
250.934	-24.92
251.151	11.95
251.368	79.53
251.585	57
251.801	34.47
252.018	-16.73
252.235	3.75
252.451	85.67
252.668	9.9
252.885	36.52
253.102	16.04
253.318	5.8
253.535	-47.44
253.752	30.38
253.968	46.76
254.185	104.11
254.401	42.67
254.618	40.62
254.835	52.91
255.051	38.57
255.268	67.24
255.484	-59.73
255.701	40.62
255.917	67.24
256.134	-37.2
256.351	-22.87
256.567	61.1
256.784	-4.44
257	-0.34
257.217	-14.68
257.433	46.76
257.65	-12.63
257.866	36.52
258.082	-88.4
258.299	9.9
258.515	42.67
258.732	34.47
258.948	-6.49
259.165	-41.3
259.381	73.39
259.597	44.71
259.814	16.04
260.03	40.62
260.246	5.8
260.463	-51.54
260.679	85.67
260.895	5.8
261.112	46.76
261.328	50.86
261.544	44.71
261.761	79.53
261.977	18.09
262.193	32.43
262.409	97.96
262.626	-14.68
262.842	22.19
263.058	36.52
263.274	83.63
263.49	-0.34
263.707	1.71
263.923	-22.87
264.139	9.9
264.355	42.67
264.571	9.9
264.787	67.24
265.004	22.19
265.22	11.95
265.436	-39.25
265.652	50.86
265.868	28.33
266.084	38.57
266.3	11.95
266.516	9.9
266.732	-12.63
266.948	-47.44
267.164	57
267.38	32.43
267.596	26.28
267.812	59.05
268.028	36.52
268.244	11.95
268.46	9.9
268.676	-6.49
268.892	67.24
269.108	44.71
269.324	28.33
269.54	65.19
269.756	57
269.972	44.71
270.188	-29.01
270.403	-2.39
270.619	63.15
270.835	-2.39
271.051	75.43
271.267	-12.63
271.483	18.09
271.698	67.24
271.914	50.86
272.13	-10.58
272.346	59.05
272.562	20.14
272.777	42.67
272.993	-24.92
273.209	11.95
273.425	59.05
273.64	-4.44
273.856	67.24
274.072	-49.49
274.287	13.99
274.503	20.14
274.719	32.43
274.934	-31.06
275.15	9.9
275.366	59.05
275.581	81.58
275.797	75.43
276.012	38.57
276.228	61.1
276.444	-16.73
276.659	1.71
276.875	50.86
277.09	-6.49
277.306	32.43
277.521	18.09
277.737	122.54
277.952	42.67
278.168	34.47
278.383	50.86
278.599	75.43
278.814	-14.68
279.03	-41.3
279.245	26.28
279.461	57
279.676	32.43
279.892	3.75
280.107	-74.07
280.322	-41.3
280.538	44.71
280.753	-12.63
280.969	61.1
281.184	34.47
281.399	85.67
281.615	63.15
281.83	63.15
282.045	93.87
282.26	-6.49
282.476	40.62
282.691	85.67
282.906	-4.44
283.122	30.38
283.337	-16.73
283.552	30.38
283.767	32.43
283.983	30.38
284.198	-35.16
284.413	44.71
284.628	34.47
284.843	136.87
285.058	42.67
285.274	52.91
285.489	73.39
285.704	63.15
285.919	-26.96
286.134	40.62
286.349	-45.4
286.564	9.9
286.779	65.19
286.995	69.29
287.21	-24.92
287.425	11.95
287.64	-10.58
287.855	-14.68
288.07	-29.01
288.285	67.24
288.5	40.62
288.715	54.95
288.93	38.57
289.145	1.71
289.36	63.15
289.575	24.23
289.79	40.62
290.004	46.76
290.219	26.28
290.434	-31.06
290.649	18.09
290.864	36.52
291.079	40.62
291.294	83.63
291.509	13.99
291.724	34.47
291.938	22.19
292.153	50.86
292.368	5.8
292.583	26.28
292.798	9.9
293.012	104.11
293.227	-33.11
293.442	9.9
293.657	34.47
293.871	46.76
294.086	42.67
294.301	108.2
294.516	5.8
294.73	-20.82
294.945	-82.26
295.16	30.38
295.374	-0.34
295.589	61.1
295.804	-29.01
296.018	9.9
296.233	30.38
296.447	20.14
296.662	-18.77
296.877	102.06
297.091	36.52
297.306	67.24
297.52	67.24
297.735	9.9
297.949	69.29
298.164	26.28
298.378	50.86
298.593	18.09
298.807	54.95
299.022	61.1
299.236	112.3
299.451	61.1
299.665	22.19
299.88	3.75
300.094	30.38
300.309	75.43
300.523	24.23
300.737	22.19
300.952	104.11
301.166	69.29
301.381	-20.82
301.595	85.67
301.809	-49.49
302.024	28.33
302.238	26.28
302.452	104.11
302.667	-12.63
302.881	77.48
303.095	26.28
303.309	42.67
303.524	34.47
303.738	16.04
303.952	26.28
304.166	32.43
304.381	100.01
304.595	79.53
304.809	18.09
305.023	28.33
305.237	59.05
305.452	-2.39
305.666	11.95
305.88	42.67
306.094	48.81
306.308	120.49
306.522	28.33
306.736	32.43
306.95	3.75
307.164	89.77
307.379	69.29
307.593	71.34
307.807	61.1
308.021	44.71
308.235	-31.06
308.449	1.71
308.663	22.19
308.877	157.35
309.091	1.71
309.305	93.87
309.519	38.57
309.733	100.01
309.947	-26.96
310.161	36.52
310.374	91.82
310.588	77.48
310.802	16.04
311.016	3.75
311.23	20.14
311.444	54.95
311.658	18.09
311.872	81.58
312.085	26.28
312.299	95.91
312.513	20.14
312.727	34.47
312.941	-20.82
313.154	71.34
313.368	22.19
313.582	54.95
313.796	57
314.009	9.9
314.223	7.85
314.437	50.86
314.651	-24.92
314.864	-6.49
315.078	34.47
315.292	-55.64
315.505	18.09
315.719	16.04
315.933	11.95
316.146	87.72
316.36	7.85
316.573	-43.35
316.787	38.57
317.001	-51.54
317.214	20.14
317.428	36.52
317.641	24.23
317.855	9.9
318.068	48.81
318.282	50.86
318.495	20.14
318.709	57
318.922	-45.4
319.136	46.76
319.349	32.43
319.563	16.04
319.776	132.78
319.99	-2.39
320.203	3.75
320.417	22.19
320.63	11.95
320.843	1.71
321.057	30.38
321.27	52.91
321.483	1.71
321.697	3.75
321.91	32.43
322.124	1.71
322.337	28.33
322.55	59.05
322.763	67.24
322.977	11.95
323.19	3.75
323.403	-6.49
323.617	73.39
323.83	79.53
324.043	36.52
324.256	83.63
324.469	59.05
324.683	61.1
324.896	28.33
325.109	-6.49
325.322	-4.44
325.535	50.86
325.748	28.33
325.962	-4.44
326.175	36.52
326.388	59.05
326.601	102.06
326.814	-4.44
327.027	44.71
327.24	63.15
327.453	22.19
327.666	52.91
327.879	85.67
328.092	77.48
328.305	59.05
328.518	11.95
328.731	61.1
328.944	36.52
329.157	28.33
329.37	-14.68
329.583	97.96
329.796	18.09
330.009	-10.58
330.222	59.05
330.435	-59.73
330.648	79.53
330.861	9.9
331.073	26.28
331.286	3.75
331.499	-39.25
331.712	42.67
331.925	24.23
332.138	28.33
332.35	65.19
332.563	34.47
332.776	46.76
332.989	9.9
333.202	89.77
333.414	50.86
333.627	26.28
333.84	-6.49
334.053	122.54
334.265	5.8
334.478	61.1
334.691	22.19
334.903	79.53
335.116	16.04
335.329	18.09
335.541	-10.58
335.754	71.34
335.966	-2.39
336.179	75.43
336.392	9.9
336.604	120.49
336.817	36.52
337.029	44.71
337.242	-37.2
337.454	93.87
337.667	-2.39
337.88	79.53
338.092	28.33
338.305	11.95
338.517	-22.87
338.729	44.71
338.942	9.9
339.154	59.05
339.367	38.57
339.579	-39.25
339.792	7.85
340.004	48.81
340.217	11.95
340.429	18.09
340.641	42.67
340.854	13.99
341.066	-31.06
341.278	34.47
341.491	32.43
341.703	1.71
341.915	20.14
342.128	93.87
342.34	50.86
342.552	34.47
342.764	30.38
342.977	-47.44
343.189	73.39
343.401	65.19
343.613	-20.82
343.826	3.75
344.038	42.67
344.25	91.82
344.462	61.1
344.674	-43.35
344.886	50.86
345.099	34.47
345.311	75.43
345.523	48.81
345.735	9.9
345.947	71.34
346.159	67.24
346.371	50.86
346.583	44.71
346.795	110.25
347.007	34.47
347.219	83.63
347.431	100.01
347.643	1.71
347.855	36.52
348.067	124.58
348.279	42.67
348.491	59.05
348.703	89.77
348.915	-76.12
349.127	40.62
349.339	-14.68
349.551	69.29
349.763	104.11
349.975	-2.39
350.187	85.67
350.399	34.47
350.61	3.75
350.822	22.19
351.034	63.15
351.246	-55.64
351.458	83.63
351.669	91.82
351.881	61.1
352.093	24.23
352.305	50.86
352.517	59.05
352.728	57
352.94	26.28
353.152	79.53
353.363	52.91
353.575	100.01
353.787	69.29
353.999	36.52
354.21	65.19
354.422	50.86
354.633	-33.11
354.845	11.95
355.057	-14.68
355.268	44.71
355.48	57
355.692	9.9
355.903	73.39
356.115	-8.53
356.326	28.33
356.538	93.87
356.749	67.24
356.961	36.52
357.172	-6.49
357.384	83.63
357.595	38.57
357.807	-4.44
358.018	48.81
358.23	7.85
358.441	40.62
358.653	44.71
358.864	48.81
359.075	-37.2
359.287	52.91
359.498	11.95
359.709	-20.82
359.921	59.05
360.132	34.47
360.344	-20.82
360.555	32.43
360.766	-26.96
360.977	-0.34
361.189	36.52
361.4	18.09
361.611	59.05
361.823	54.95
362.034	5.8
362.245	28.33
362.456	-4.44
362.667	44.71
362.879	36.52
363.09	-55.64
363.301	79.53
363.512	16.04
363.723	69.29
363.935	34.47
364.146	50.86
364.357	81.58
364.568	65.19
364.779	-8.53
364.99	87.72
365.201	-29.01
365.412	122.54
365.623	67.24
365.834	48.81
366.045	50.86
366.256	28.33
366.467	79.53
366.678	81.58
366.889	26.28
367.1	65.19
367.311	77.48
367.522	38.57
367.733	59.05
367.944	16.04
368.155	36.52
368.366	38.57
368.577	75.43
368.788	89.77
368.999	-39.25
369.209	44.71
369.42	108.2
369.631	83.63
369.842	42.67
370.053	1.71
370.264	81.58
370.474	61.1
370.685	20.14
370.896	85.67
371.107	46.76
371.317	110.25
371.528	34.47
371.739	59.05
371.95	87.72
372.16	104.11
372.371	46.76
372.582	52.91
372.792	36.52
373.003	79.53
373.214	28.33
373.424	50.86
373.635	-55.64
373.846	52.91
374.056	-4.44
374.267	69.29
374.477	61.1
374.688	1.71
374.898	89.77
375.109	77.48
375.319	16.04
375.53	89.77
375.74	26.28
375.951	102.06
376.161	-0.34
376.372	57
376.582	71.34
376.793	46.76
377.003	42.67
377.214	67.24
377.424	34.47
377.635	-16.73
377.845	63.15
378.055	93.87
378.266	18.09
378.476	61.1
378.686	63.15
378.897	67.24
379.107	145.06
379.317	75.43
379.528	42.67
379.738	67.24
379.948	83.63
380.158	36.52
380.369	95.91
380.579	-8.53
380.789	44.71
380.999	116.39
381.21	59.05
381.42	28.33
381.63	63.15
381.84	67.24
382.05	-41.3
382.261	40.62
382.471	-2.39
382.681	59.05
382.891	50.86
383.101	95.91
383.311	67.24
383.521	85.67
383.731	54.95
383.941	91.82
384.151	61.1
384.361	28.33
384.571	9.9
384.781	42.67
384.991	181.93
385.201	100.01
385.411	87.72
385.621	59.05
385.831	9.9
386.041	132.78
386.251	63.15
386.461	16.04
386.671	32.43
386.881	59.05
387.091	67.24
387.301	108.2
387.511	26.28
387.72	77.48
387.93	65.19
388.14	-39.25
388.35	30.38
388.56	79.53
388.769	30.38
388.979	91.82
389.189	20.14
389.399	52.91
389.609	34.47
389.818	112.3
390.028	44.71
390.238	106.15
390.447	73.39
390.657	83.63
390.867	83.63
391.076	42.67
391.286	42.67
391.496	34.47
391.705	132.78
391.915	52.91
392.125	126.63
392.334	18.09
392.544	52.91
392.753	67.24
392.963	-39.25
393.172	36.52
393.382	-0.34
393.591	28.33
393.801	77.48
394.01	75.43
394.22	26.28
394.429	36.52
394.639	42.67
394.848	54.95
395.058	122.54
395.267	93.87
395.477	151.21
395.686	100.01
395.895	128.68
396.105	120.49
396.314	85.67
396.524	110.25
396.733	61.1
396.942	120.49
397.152	44.71
397.361	124.58
397.57	42.67
397.78	46.76
397.989	32.43
398.198	124.58
398.407	79.53
398.617	83.63
398.826	71.34
399.035	69.29
399.244	85.67
399.453	75.43
399.663	36.52
399.872	167.59
400.081	18.09
400.29	128.68
400.499	77.48
400.708	110.25
400.917	108.2
401.127	75.43
401.336	79.53
401.545	126.63
401.754	159.4
401.963	67.24
402.172	46.76
402.381	34.47
402.59	89.77
402.799	143.02
403.008	59.05
403.217	59.05
403.426	79.53
403.635	50.86
403.844	100.01
404.053	149.16
404.262	83.63
404.471	153.26
404.68	167.59
404.888	108.2
405.097	100.01
405.306	171.69
405.515	50.86
405.724	124.58
405.933	138.92
406.142	157.35
406.35	100.01
406.559	206.5
406.768	138.92
406.977	194.22
407.185	138.92
407.394	153.26
407.603	161.45
407.812	151.21
408.02	245.41
408.229	171.69
408.438	186.02
408.646	110.25
408.855	132.78
409.064	175.78
409.272	210.6
409.481	253.61
409.69	259.75
409.898	200.36
410.107	290.47
410.315	212.65
410.524	173.74
410.733	239.27
410.941	245.41
411.15	274.09
411.358	272.04
411.567	323.24
411.775	269.99
411.984	263.85
412.192	259.75
412.401	319.14
412.609	394.92
412.818	413.35
413.026	411.3
413.234	405.16
413.443	358.05
413.651	394.92
413.86	370.34
414.068	413.35
414.276	456.36
414.485	495.27
414.693	427.68
414.901	456.36
415.11	542.37
415.318	575.14
415.526	542.37
415.734	577.19
415.943	544.42
416.151	618.15
416.359	618.15
416.567	552.61
416.776	620.19
416.984	624.29
417.192	773.79
417.4	683.68
417.608	667.3
417.817	781.98
418.025	788.13
418.233	915.1
418.441	788.13
418.649	890.53
418.857	908.96
419.065	915.1
419.273	876.19
419.481	976.54
419.689	1060.51
419.897	1066.65
420.105	1097.37
420.313	1193.62
420.521	1091.23
420.729	1246.87
420.937	1248.92
421.145	1267.35
421.353	1377.94
421.561	1349.27
421.769	1392.28
421.977	1402.52
422.185	1429.14
422.393	1545.88
422.601	1556.11
422.809	1689.23
423.017	1666.71
423.224	1697.42
423.432	1689.23
423.64	1840.78
423.848	2055.82
424.056	1932.94
424.263	2033.29
424.471	2072.2
424.679	2068.11
424.887	2203.27
425.094	2272.9
425.302	2213.51
425.51	2442.89
425.718	2471.56
425.925	2481.8
426.133	2580.1
426.341	2682.5
426.548	2821.76
426.756	2737.79
426.964	2891.39
427.171	3063.42
427.379	3016.32
427.586	3229.31
427.794	3245.69
428.001	3452.53
428.209	3526.26
428.417	3425.91
428.624	3763.83
428.832	3729.01
429.039	3765.87
429.247	3737.2
429.454	4081.26
429.662	4376.17
429.869	4105.84
430.076	4486.76
430.284	4329.06
430.491	4490.85
430.699	4669.03
430.906	4621.92
431.114	4701.79
431.321	4937.31
431.528	5056.09
431.736	5303.9
431.943	5488.21
432.15	5269.08
432.358	5391.96
432.565	5783.12
432.772	5781.07
432.979	5951.06
433.187	5994.06
433.394	6202.96
433.601	6592.07
433.808	6712.9
434.016	6469.19
434.223	6772.29
434.43	7253.56
434.637	7245.37
434.844	7530.04
435.052	7663.16
435.259	7583.29
435.466	7794.23
435.673	7509.56
435.88	8138.29
436.087	8609.32
436.294	8637.99
436.501	8400.43
436.708	8572.46
436.915	8867.36
437.122	9109.02
437.329	9104.93
437.537	9459.23
437.743	9827.86
437.95	9565.72
438.157	10145.3
438.364	10296.85
438.571	10325.52
438.778	10395.15
438.985	11392.51
439.192	11060.74
439.399	11382.27
439.606	11027.97
439.813	11955.7
440.02	12637.67
440.227	12228.08
440.433	12131.83
440.64	12588.52
440.847	12396.01
441.054	12670.44
441.261	13624.79
441.467	13456.86
441.674	13886.93
441.881	14106.07
442.088	14085.59
442.294	14198.23
442.501	14362.06
442.708	15044.04
442.914	15390.14
443.121	16018.87
443.328	15388.1
443.534	16850.35
443.741	16229.81
443.948	15930.81
444.154	17235.36
444.361	16844.2
444.568	17112.49
444.774	17309.09
444.981	17268.13
445.187	17946.01
445.394	18484.62
445.6	18435.47
445.807	20196.73
446.013	19441.03
446.22	19541.38
446.426	20477.3
446.633	20940.14
446.839	21454.18
447.046	20356.47
447.252	21884.25
447.459	22013.27
447.665	21689.7
447.871	22547.79
448.078	23573.83
448.284	22570.32
448.491	23139.66
448.697	24079.68
448.903	24360.25
449.11	24585.52
449.316	24073.53
449.522	24526.13
449.728	25285.93
449.935	25668.9
450.141	25345.32
450.347	25982.24
450.553	25384.23
450.76	25595.17
450.966	26420.5
451.172	26060.06
451.378	26950.93
451.584	26275.1
451.791	26998.03
451.997	27172.11
452.203	27536.65
452.409	27489.54
452.615	27469.06
452.821	26424.6
453.027	25888.03
453.233	27575.56
453.44	26285.34
453.646	27067.66
453.852	26963.22
454.058	27407.62
454.264	26500.37
454.47	27342.09
454.676	26455.32
454.882	27536.65
455.088	25378.09
455.294	25589.03
455.5	25916.7
455.705	25951.52
455.911	25191.72
456.117	24718.64
456.323	24386.87
456.529	22852.94
456.735	24100.15
456.941	23455.04
457.147	22744.4
457.352	22433.11
457.558	22127.96
457.764	22207.83
457.97	21790.05
458.176	21423.46
458.381	21316.97
458.587	20487.54
458.793	20256.12
458.999	19322.24
459.204	20790.64
459.41	20110.71
459.616	18716.05
459.821	19066.25
460.027	18851.21
460.233	18259.35
460.438	17378.72
460.644	17767.84
460.85	16752.04
461.055	16704.94
461.261	16520.62
461.466	15576.51
461.672	14970.31
461.878	15863.22
462.083	14728.65
462.289	14687.69
462.494	14427.6
462.7	13899.22
462.905	13415.9
463.111	13919.7
463.316	13784.54
463.522	13557.21
463.727	13837.78
463.932	13827.54
464.138	13577.69
464.343	13356.51
464.549	13071.84
464.754	13657.56
464.959	13340.13
465.165	13231.58
465.37	12762.6
465.575	12365.29
465.781	13002.21
465.986	12862.95
466.191	12717.54
466.397	12654.06
466.602	11785.72
466.807	12113.39
467.012	12166.64
467.218	12062.19
467.423	11943.41
467.628	11978.23
467.833	12633.58
468.038	11904.5
468.244	11617.79
468.449	12223.98
468.654	11873.78
468.859	11605.5
469.064	11585.02
469.269	11167.23
469.474	11372.03
469.679	11441.66
469.885	11118.08
470.09	11255.29
470.295	11345.41
470.5	11156.99
470.705	11187.71
470.91	10814.98
471.115	10804.74
471.32	10954.24
471.525	10833.41
471.73	10507.79
471.935	10630.66
472.139	10212.88
472.344	10380.81
472.549	10397.2
472.754	10331.66
472.959	9848.34
473.164	9410.08
473.369	9758.23
473.574	9891.35
473.778	10006.03
473.983	9881.11
474.188	9768.47
474.393	9203.23
474.598	9414.17
474.802	9231.9
475.007	9195.04
475.212	9162.27
475.417	8818.21
475.621	9051.68
475.826	8971.81
476.031	8742.44
476.235	8539.69
476.44	8820.26
476.645	8408.62
476.849	8465.96
477.054	8549.93
477.259	8207.92
477.463	8234.54
477.668	8042.03
477.872	8222.25
478.077	8164.91
478.282	7738.93
478.486	7781.94
478.691	7665.21
478.895	7712.31
479.1	7538.23
479.304	7773.75
479.509	7415.35
479.713	7700.02
479.918	7484.98
480.122	7362.11
480.326	7599.67
480.531	7505.46
480.735	7296.57
480.94	7355.96
481.144	7437.88
481.348	7247.42
481.553	7194.17
481.757	7206.46
481.961	7151.17
482.166	7333.43
482.37	7343.67
482.574	7239.23
482.778	7061.05
482.983	7276.09
483.187	7050.82
483.391	7218.75
483.595	7224.89
483.8	7153.21
484.004	7179.84
484.208	7325.24
484.412	7220.8
484.616	7122.49
484.821	7138.88
485.025	7026.24
485.229	7224.89
485.433	7067.2
485.637	6991.42
485.841	7102.01
486.045	7157.31
486.249	7130.69
486.453	7028.29
486.657	7020.1
486.861	7261.76
487.065	7059.01
487.269	7185.98
487.473	7124.54
487.677	7171.65
487.881	7261.76
488.085	7163.45
488.289	7040.58
488.493	7159.36
488.697	7165.5
488.901	7206.46
489.105	7185.98
489.309	7220.8
489.512	7343.67
489.716	7247.42
489.92	7241.28
490.124	7243.32
490.328	7530.04
490.531	7239.23
490.735	7460.41
490.939	7441.98
491.143	7341.63
491.346	7345.72
491.55	7390.78
491.754	7403.07
491.958	7499.32
492.161	7620.15
492.365	7550.52
492.569	7378.49
492.772	7382.59
492.976	7464.5
493.18	7532.09
493.383	7566.9
493.587	7695.93
493.79	7886.39
493.994	7550.52
494.197	7757.36
494.401	7761.46
494.605	7915.06
494.808	8087.09
495.012	8050.22
495.215	7996.98
495.419	8228.4
495.622	8220.21
495.825	8226.35
496.029	8291.88
496.232	8455.72
496.436	8244.78
496.639	8588.84
496.843	8435.24
497.046	8758.82
497.249	8949.28
497.453	8785.44
497.656	8924.71
497.859	8965.67
498.063	9104.93
498.266	9242.14
498.469	9403.93
498.673	9240.09
498.876	9410.08
499.079	9723.41
499.282	9506.33
499.485	9940.5
499.689	9721.37
499.892	9856.53
500.095	9750.04
500.298	10233.36
500.501	10372.62
500.705	10378.76
500.908	10364.43
501.111	10628.62
501.314	10874.37
501.517	10745.35
501.72	11058.69
501.923	10669.58
502.126	11077.12
502.329	11277.82
502.532	11625.98
502.735	11245.06
502.938	11711.99
503.141	11894.26
503.344	12076.53
503.547	11664.89
503.75	12217.84
503.953	12326.38
504.156	12518.89
504.359	12551.66
504.562	12598.76
504.765	12809.7
504.968	12973.54
505.17	12967.4
505.373	12987.88
505.576	13286.88
505.779	13463.01
505.982	13684.19
506.185	14128.6
506.387	13856.22
506.59	13954.52
506.793	14288.34
506.996	13985.24
507.198	14550.48
507.401	14728.65
507.604	14874.06
507.807	14986.69
508.009	15076.8
508.212	15152.58
508.415	15359.42
508.617	15781.31
508.82	15619.52
509.022	15578.56
509.225	15979.96
509.428	16158.13
509.63	16012.73
509.833	16362.93
510.035	16711.08
510.238	16582.06
510.44	16942.5
510.643	17257.89
510.845	17290.66
511.048	17218.98
511.25	17636.77
511.453	17679.77
511.655	18433.43
511.858	17991.06
512.06	18132.37
512.262	18501.01
512.465	18498.96
512.667	18720.14
512.87	18890.12
513.072	19094.92
513.274	19592.58
513.477	19692.93
513.679	19654.01
513.881	19897.72
514.084	20217.21
514.286	20462.96
514.488	20268.41
514.69	20829.55
514.893	20993.39
515.095	21032.3
515.297	21222.76
515.499	21503.33
515.701	21503.33
515.904	21683.55
516.106	21771.61
516.308	21962.08
516.51	22328.66
516.712	22295.89
516.914	22562.13
517.116	23098.7
517.318	23078.22
517.52	22930.76
517.722	23199.05
517.925	23344.45
518.127	23905.6
518.329	24251.7
518.531	23893.31
518.733	24532.28
518.935	24919.34
519.136	24589.62
519.338	25048.36
519.54	25310.5
519.742	25322.79
519.944	25572.64
520.146	26004.77
520.348	26088.73
520.55	26031.39
520.752	26565.91
520.954	26555.67
521.155	26543.38
521.357	27084.05
521.559	27299.08
521.761	27671.81
521.963	27499.78
522.164	27634.95
522.366	27845.89
522.568	27802.88
522.77	28220.67
522.971	28476.66
523.173	28308.73
523.375	28781.81
523.576	28798.2
523.778	28515.58
523.98	29480.17
524.181	29359.34
524.383	29676.77
524.584	29652.2
524.786	29709.54
524.988	29424.87
525.189	30059.74
525.391	30137.57
525.592	30426.33
525.794	30647.51
525.995	30483.67
526.197	30840.02
526.398	30663.89
526.6	31286.48
526.801	30835.92
527.003	31311.05
527.204	31212.75
527.406	31655.11
527.607	31386.83
527.808	31835.33
528.01	31554.76
528.211	31552.71
528.412	32322.75
528.614	32570.55
528.815	31837.38
529.016	32568.51
529.218	32029.89
529.419	32267.45
529.62	32400.57
529.822	32548.03
530.023	32519.35
530.224	32521.4
530.425	32738.49
530.626	32701.62
530.828	32302.27
531.029	33297.58
531.23	32736.44
531.431	32933.04
531.632	32883.89
531.833	33133.75
532.035	33207.47
532.236	33399.98
532.437	33318.06
532.638	33049.78
532.839	33082.55
533.04	33547.43
533.241	32916.66
533.442	33766.57
533.643	33111.22
533.844	33569.96
534.045	33647.79
534.246	32769.21
534.447	33760.42
534.648	33760.42
534.849	33324.21
535.05	32855.22
535.251	33352.88
535.451	33397.93
535.652	33295.53
535.853	33344.69
536.054	33694.89
536.255	33555.63
536.456	33408.17
536.657	34096.29
536.857	33332.4
537.058	33277.1
537.259	33514.67
537.46	33664.17
537.66	33414.32
537.861	33399.98
538.062	33496.24
538.263	33428.65
538.463	33299.63
538.664	33131.7
538.865	33643.69
539.065	33526.96
539.266	33399.98
539.466	33594.54
539.667	33184.94
539.868	33803.43
540.068	33299.63
540.269	33453.23
540.469	33576.11
540.67	33543.34
540.87	33287.34
541.071	33117.36
541.271	33481.9
541.472	33342.64
541.672	33447.08
541.873	33158.32
542.073	33133.75
542.274	33633.45
542.474	33330.35
542.675	33053.87
542.875	33494.19
543.075	33240.24
543.276	33086.64
543.476	33549.48
543.676	33162.42
543.877	33248.43
544.077	33412.27
544.277	33195.18
544.478	33172.66
544.678	33463.47
544.878	33166.51
545.078	33404.08
545.279	33080.5
545.479	33051.83
545.679	33395.89
545.879	33197.23
546.079	33158.32
546.28	33213.62
546.48	33039.54
546.68	33246.38
546.88	33451.18
547.08	33219.76
547.28	33074.35
547.48	32980.15
547.68	33553.58
547.88	32943.28
548.081	33279.15
548.281	32976.05
548.481	32971.96
548.681	33361.07
548.881	33100.98
549.081	32928.95
549.28	32941.24
549.48	33121.46
549.68	33029.3
549.88	33555.63
550.08	33301.68
550.28	33471.66
550.48	33033.39
550.68	33340.59
550.88	32920.76
551.08	32990.39
551.279	33049.78
551.479	32894.13
551.679	33399.98
551.879	32883.89
552.079	33225.9
552.278	32933.04
552.478	32904.37
552.678	33035.44
552.878	33129.65
553.077	32982.2
553.277	32898.23
553.477	33254.58
553.676	32539.83
553.876	33080.5
554.076	32820.41
554.275	32720.06
554.475	32851.13
554.674	33043.63
554.874	32588.99
555.074	32650.42
555.273	32771.25
555.473	32750.77
555.672	32525.5
555.872	32445.63
556.071	32607.42
556.271	32732.34
556.47	32965.81
556.67	32165.06
556.869	32494.78
557.068	32402.62
557.268	32378.04
557.467	32382.14
557.667	32486.59
557.866	32427.2
558.065	32361.66
558.265	31900.87
558.464	31945.92
558.663	32369.85
558.863	31935.68
559.062	32083.14
559.261	31917.25
559.461	32462.01
559.66	31767.75
559.859	31823.05
560.058	31356.11
560.258	31853.76
560.457	31612.1
560.656	31978.69
560.855	31438.03
561.054	31896.77
561.253	31415.5
561.453	31435.98
561.652	31614.15
561.851	31638.73
562.05	31175.89
562.249	31161.55
562.448	31368.4
562.647	30911.7
562.846	31507.66
563.045	31458.51
563.244	30901.46
563.443	31200.46
563.642	30874.84
563.841	31024.34
564.04	31053.01
564.239	30807.25
564.438	30541.02
564.637	30780.63
564.836	30792.92
565.035	30313.69
565.234	30842.07
565.432	30700.76
565.631	30403.8
565.83	30237.92
566.029	30414.04
566.228	30305.5
566.427	30016.74
566.625	30207.2
566.824	29777.12
567.023	29893.86
567.222	29508.84
567.42	30338.27
567.619	29875.43
567.818	29830.37
568.016	29957.35
568.215	29725.93
568.414	29422.83
568.612	29598.95
568.811	29222.12
569.01	29510.89
569.208	29357.29
569.407	29328.62
569.605	29113.58
569.804	29404.39
570.002	28599.54
570.201	29191.41
570.4	29082.86
570.598	29064.43
570.797	28570.87
570.995	28722.42
571.193	28321.02
571.392	28638.45
571.59	28790
571.789	28548.34
571.987	28523.77
572.186	28056.83
572.384	28241.15
572.582	28230.91
572.781	28290.3
572.979	27897.09
573.177	28013.82
573.376	28081.41
573.574	28026.11
573.772	27938.05
573.971	27632.9
574.169	27360.52
574.367	27307.27
574.565	28034.3
574.763	27665.67
574.962	27196.68
575.16	26967.31
575.358	27542.79
575.556	26948.88
575.754	27475.21
575.952	26946.83
576.151	27315.47
576.349	26873.1
576.547	26991.89
576.745	26750.23
576.943	26877.2
577.141	26739.99
577.339	26582.29
577.537	26557.72
577.735	26977.55
577.933	26533.14
578.131	26432.79
578.329	26371.35
578.527	26090.78
578.725	26504.47
578.923	26291.48
579.121	26076.44
579.319	26187.04
579.516	25935.13
579.714	25851.17
579.912	25820.45
580.11	25632.04
580.308	25767.2
580.506	25695.52
580.704	25292.07
580.901	25613.6
581.099	25672.99
581.297	25484.58
581.495	25240.87
581.692	25566.5
581.89	25439.53
582.088	25576.74
582.285	25003.31
582.483	25038.12
582.681	24864.05
582.878	24884.53
583.076	24866.1
583.274	24839.47
583.471	24595.76
583.669	24737.07
583.866	24464.69
584.064	24810.8
584.262	24257.85
584.459	24864.05
584.657	24464.69
584.854	24481.08
585.052	23790.91
585.249	24255.8
585.447	24077.63
585.644	23850.3
585.841	23823.68
586.039	24419.64
586.236	23684.42
586.434	23745.86
586.631	23549.25
586.828	23780.67
587.026	23878.97
587.223	23448.9
587.42	23379.27
587.618	23407.94
587.815	23197
588.012	23203.14
588.21	23285.06
588.407	23450.95
588.604	23080.27
588.801	22768.98
588.999	23039.31
589.196	23313.73
589.393	22930.76
589.59	22906.19
589.787	22699.34
589.984	22611.28
590.182	22529.36
590.379	22682.96
590.576	22412.63
590.773	22443.35
590.97	22152.54
591.167	22302.04
591.364	22232.41
591.561	22332.76
591.758	22046.04
591.955	22013.27
592.152	21996.89
592.349	21972.32
592.546	21867.87
592.743	21812.57
592.94	21419.36
593.137	21808.48
593.334	21740.89
593.531	21523.81
593.727	21456.23
593.924	21507.43
594.121	21456.23
594.318	21609.82
594.515	21169.51
594.712	21319.01
594.908	21144.94
595.105	20925.8
595.302	21144.94
595.499	21486.95
595.696	21030.25
595.892	20641.14
596.089	20903.28
596.286	20946.28
596.482	20551.03
596.679	20780.4
596.876	20710.77
597.072	20634.99
597.269	20389.24
597.466	20505.97
597.662	20233.59
597.859	20460.91
598.055	20157.82
598.252	20082.04
598.448	20178.29
598.645	20139.38
598.841	19821.95
599.038	20086.14
599.234	19993.98
599.431	19819.9
599.627	19740.03
599.824	19604.86
600.02	19553.66
600.217	19559.81
600.413	19658.11
600.609	19555.71
600.806	19533.18
601.002	19535.23
601.198	19205.51
601.395	19187.08
601.591	19045.77
601.787	19049.86
601.984	18965.9
602.18	19142.02
602.376	18953.61
602.572	18883.98
602.769	18771.34
602.965	18779.53
603.161	18781.58
603.357	18664.85
603.553	18503.06
603.75	18695.57
603.946	18464.14
604.142	18605.45
604.338	18165.14
604.534	18298.26
604.73	18070.93
604.926	18072.98
605.122	18328.98
605.318	18146.71
605.514	17935.77
605.71	17943.96
605.906	18062.74
606.102	17933.72
606.298	17980.82
606.494	17964.44
606.69	17653.15
606.886	17681.82
607.082	17434.02
607.278	17618.33
607.474	17622.43
607.67	17737.12
607.866	17284.51
608.062	17755.55
608.257	17212.84
608.453	17444.26
608.649	17450.4
608.845	17294.75
609.041	17474.98
609.236	17235.36
609.432	17241.51
609.628	17079.72
609.824	16967.08
610.019	17270.18
610.215	16774.57
610.411	17218.98
610.606	17116.58
610.802	17018.28
610.998	16889.26
611.193	16801.19
611.389	16696.75
611.584	16944.55
611.78	16565.68
611.976	16915.88
612.171	16840.11
612.367	16725.42
612.562	16680.36
612.758	16426.42
612.953	16467.38
613.149	16702.89
613.344	16557.49
613.539	16620.97
613.735	16618.93
613.93	16629.16
614.126	16459.18
614.321	16704.94
614.517	16332.21
614.712	16315.83
614.907	16436.66
615.103	16229.81
615.298	16397.74
615.493	16580.01
615.688	16059.83
615.884	16659.88
616.079	16053.69
616.274	16158.13
616.47	16248.24
616.665	16283.06
616.86	15945.14
617.055	16080.31
617.25	15955.38
617.445	16182.71
617.641	15887.8
617.836	15809.98
618.031	15416.77
618.226	15629.76
618.421	15683
618.616	15852.98
618.811	15402.43
619.006	15691.2
619.201	15640
619.396	15590.84
619.591	15363.52
619.786	15353.28
619.981	15064.52
620.176	15478.21
620.371	14972.36
620.566	15099.33
620.761	14822.86
620.956	15318.46
621.151	14779.85
621.346	14656.97
621.541	14702.03
621.735	14912.97
621.93	14398.93
622.125	14747.08
622.32	14095.83
622.515	14411.21
622.709	14560.72
622.904	14298.58
623.099	14360.02
623.294	14091.73
623.488	13985.24
623.683	14050.77
623.878	13675.99
624.072	13866.46
624.267	13721.05
624.462	13768.15
624.656	13389.28
624.851	13592.03
625.046	13657.56
625.24	13522.4
625.435	13284.83
625.629	13168.1
625.824	13077.99
626.018	13424.09
626.213	13030.88
626.407	13233.63
626.602	12787.18
626.796	12953.06
626.991	13002.21
627.185	12731.88
627.38	12721.64
627.574	12570.09
627.768	12504.56
627.963	12518.89
628.157	12506.6
628.352	12279.28
628.546	12213.74
628.74	12271.09
628.935	12092.91
629.129	11986.42
629.323	11961.84
629.517	12039.67
629.712	11922.93
629.906	11886.07
630.1	11617.79
630.294	11853.3
630.489	11535.87
630.683	11720.18
630.877	11441.66
631.071	11525.63
631.265	11539.96
631.459	11441.66
631.653	11312.64
631.848	11103.75
632.042	11130.37
632.236	11165.18
632.43	11070.98
632.624	11105.79
632.818	10968.58
633.012	10661.38
633.206	10888.71
633.4	10812.93
633.594	10821.13
633.788	10692.1
633.982	10716.68
634.176	10595.85
634.369	10448.4
634.563	10563.08
634.757	10343.95
634.951	10513.93
635.145	10356.24
635.339	10315.28
635.533	10241.55
635.726	10311.18
635.92	10104.34
636.114	9887.25
636.308	10075.66
636.501	10073.62
636.695	9903.64
636.889	9872.92
637.083	9709.08
637.276	9604.63
637.47	9874.96
637.664	9664.02
637.857	9666.07
638.051	9586.2
638.244	9610.78
638.438	9655.83
638.632	9508.38
638.825	9180.7
639.019	9512.47
639.212	9236
639.406	9088.54
639.599	9246.24
639.793	9340.44
639.986	9063.97
640.18	8918.56
640.373	8984.1
640.567	8961.57
640.76	8977.95
640.954	8959.52
641.147	8795.68
641.34	8832.55
641.534	8750.63
641.727	8627.75
641.92	8803.88
642.114	8642.09
642.307	8457.77
642.5	8443.43
642.694	8351.28
642.887	8349.23
643.08	8504.87
643.273	8353.32
643.467	8338.99
643.66	8336.94
643.853	8072.75
644.046	8025.65
644.239	8177.2
644.432	8128.05
644.626	8121.9
644.819	7857.71
645.012	7990.83
645.205	7902.77
645.398	7992.88
645.591	7915.06
645.784	7775.8
645.977	7695.93
646.17	7712.31
646.363	7577.14
646.556	7491.13
646.749	7562.81
646.942	7575.1
647.135	7538.23
647.328	7548.47
647.521	7392.83
647.714	7493.18
647.907	7423.55
648.099	7382.59
648.292	7284.28
648.485	7136.83
648.678	7235.13
648.871	7136.83
649.064	7028.29
649.256	7218.75
649.449	7243.32
649.642	7073.34
649.835	7013.95
650.027	6696.52
650.22	6893.12
650.413	6884.93
650.605	6727.24
650.798	6796.87
650.991	6817.35
651.183	6819.39
651.376	6655.56
651.568	6590.02
651.761	6760
651.954	6782.53
652.146	6626.89
652.339	6489.67
652.531	6448.71
652.724	6307.4
652.916	6411.85
653.109	6319.69
653.301	6252.11
653.494	6385.23
653.686	6182.48
653.879	6297.16
654.071	6219.34
654.263	6141.52
654.456	6116.94
654.648	6266.44
654.84	5998.16
655.033	6059.6
655.225	6121.04
655.417	6037.07
655.61	6024.78
655.802	6092.37
655.994	5932.62
656.186	5740.12
656.379	5910.1
656.571	5781.07
656.763	5883.47
656.955	5699.16
657.148	5717.59
657.34	5746.26
657.532	5756.5
657.724	5709.4
657.916	5607
658.108	5533.27
658.3	5449.3
658.492	5533.27
658.684	5490.26
658.876	5594.71
659.068	5428.82
659.26	5494.36
659.452	5576.28
659.644	5351
659.836	5172.83
660.028	5375.58
660.22	5156.44
660.412	5207.64
660.604	5211.74
660.796	5215.84
660.988	5201.5
661.18	5138.01
661.372	4998.75
661.563	5084.77
661.755	4914.78
661.947	5047.9
662.139	4965.98
662.331	5023.33
662.522	4806.24
662.714	4965.98
662.906	4808.29
663.097	4781.67
663.289	4783.71
663.481	4818.53
663.673	4769.38
663.864	4855.39
664.056	4875.87
664.247	4777.57
664.439	4746.85
664.631	4705.89
664.822	4603.49
665.014	4601.44
665.205	4703.84
665.397	4656.74
665.588	4609.64
665.78	4519.53
665.971	4617.83
666.163	4544.1
666.354	4560.49
666.546	4503.14
666.737	4396.65
666.929	4314.73
667.12	4380.26
667.311	4400.74
667.503	4230.76
667.694	4253.29
667.885	4359.78
668.077	4331.11
668.268	4150.89
668.459	4302.44
668.651	4359.78
668.842	4210.28
669.033	4071.02
669.224	4179.56
669.416	4175.47
669.607	4064.88
669.798	4214.38
669.989	4042.35
670.18	4068.97
670.371	3972.72
670.563	3919.47
670.754	4089.45
670.945	3942
671.136	4009.58
671.327	3925.61
671.518	3868.27
671.709	3898.99
671.9	3819.12
672.091	3851.89
672.282	3737.2
672.473	3778.16
672.664	3888.75
672.855	3622.52
673.046	3792.5
673.237	3825.26
673.428	3751.54
673.619	3706.48
673.809	3677.81
674	3731.06
674.191	3767.92
674.382	3692.15
674.573	3667.57
674.764	3737.2
674.954	3575.41
675.145	3565.17
675.336	3628.66
675.527	3532.4
675.717	3573.36
675.908	3327.61
676.099	3382.9
676.289	3493.49
676.48	3534.45
676.671	3440.25
676.861	3473.01
677.052	3440.25
677.243	3352.18
677.433	3430.01
677.624	3409.53
677.814	3434.1
678.005	3413.62
678.195	3384.95
678.386	3276.41
678.576	3286.65
678.767	3343.99
678.957	3413.62
679.148	3370.62
679.338	3335.8
679.529	3217.02
679.719	3204.73
679.909	3313.27
680.1	3253.88
680.29	3137.15
680.481	3204.73
680.671	3333.75
680.861	3118.72
681.052	3327.61
681.242	3106.43
681.432	3147.39
681.622	3169.91
681.813	3085.95
682.003	2911.87
682.193	3077.76
682.383	3001.98
682.573	3085.95
682.764	3077.76
682.954	2942.59
683.144	3088
683.334	3090.04
683.524	3133.05
683.714	3139.19
683.904	2915.97
684.094	2926.21
684.284	2926.21
684.474	2973.31
684.664	3057.28
684.854	2911.87
685.044	2875.01
685.234	2866.81
685.424	2907.77
685.614	2778.75
685.804	2842.24
685.994	2823.81
686.184	2952.83
686.374	2823.81
686.564	2832
686.753	2801.28
686.943	2774.66
687.133	2788.99
687.323	2737.79
687.513	2676.35
687.702	2715.27
687.892	2639.49
688.082	2651.78
688.272	2756.22
688.461	2715.27
688.651	2711.17
688.841	2680.45
689.03	2754.18
689.22	2698.88
689.41	2721.41
689.599	2606.72
689.789	2606.72
689.979	2649.73
690.168	2606.72
690.358	2557.57
690.547	2533
690.737	2539.14
690.926	2639.49
691.116	2561.67
691.305	2594.44
691.495	2524.8
691.684	2459.27
691.874	2553.48
692.063	2496.13
692.252	2485.89
692.442	2371.21
692.631	2557.57
692.82	2399.88
693.01	2526.85
693.199	2453.13
693.388	2457.22
693.578	2430.6
693.767	2385.54
693.956	2367.11
694.146	2428.55
694.335	2387.59
694.524	2350.73
694.713	2485.89
694.902	2348.68
695.092	2418.31
695.281	2158.22
695.47	2387.59
695.659	2262.66
695.848	2363.01
696.037	2356.87
696.226	2250.38
696.415	2256.52
696.604	2248.33
696.793	2326.15
696.982	2164.36
697.171	2256.52
697.36	2313.86
697.549	2256.52
697.738	2197.13
697.927	2262.66
698.116	2242.18
698.305	2328.2
698.494	2215.56
698.683	2256.52
698.872	2227.85
699.061	2178.7
699.25	2154.12
699.438	2238.09
699.627	2197.13
699.816	2305.67
700.005	2147.98
700.193	2223.75
700.382	2199.18
700.571	2102.92
700.76	2127.5
700.948	2139.79
701.137	2162.31
701.326	2137.74
701.514	2213.51
701.703	2125.45
701.892	2213.51
702.08	2143.88
702.269	2250.38
702.457	2190.99
702.646	2129.55
702.834	2174.6
703.023	2248.33
703.212	2139.79
703.4	2043.53
703.589	2080.39
703.777	2059.92
703.965	2094.73
704.154	2107.02
704.342	2029.2
704.531	2178.7
704.719	2123.4
704.907	2150.03
705.096	2074.25
705.284	2135.69
705.472	2160.27
705.661	2107.02
705.849	2133.64
706.037	2057.87
706.226	2166.41
706.414	2082.44
706.602	2049.68
706.79	2098.83
706.979	2037.39
707.167	2129.55
707.355	1980.04
707.543	2068.11
707.731	2180.75
707.919	2197.13
708.107	2010.76
708.296	2092.68
708.484	2033.29
708.672	2092.68
708.86	1996.43
709.048	2064.01
709.236	2133.64
709.424	2100.87
709.612	2045.58
709.8	1986.19
709.988	2141.83
710.176	2158.22
710.364	2117.26
710.551	2115.21
710.739	2082.44
710.927	2107.02
711.115	2068.11
711.303	2057.87
711.491	2090.63
711.679	2059.92
711.866	2107.02
712.054	2039.44
712.242	2162.31
712.43	2125.45
712.617	2074.25
712.805	2004.62
712.993	1973.9
713.181	2066.06
713.368	2125.45
713.556	2064.01
713.744	2084.49
713.931	2238.09
714.119	2119.31
714.306	2100.87
714.494	2129.55
714.682	2154.12
714.869	2016.91
715.057	2096.78
715.244	2006.67
715.432	2098.83
715.619	2115.21
715.807	1967.76
715.994	2082.44
716.182	1992.33
716.369	2006.67
716.556	2055.82
716.744	1992.33
716.931	1984.14
717.119	2014.86
717.306	2117.26
717.493	2000.52
717.681	1988.24
717.868	2004.62
718.055	2061.96
718.242	1992.33
718.43	2018.96
718.617	2135.69
718.804	2070.16
718.991	2090.63
719.179	1984.14
719.366	1963.66
719.553	1973.9
719.74	2104.97
719.927	2086.54
720.114	1978
720.301	2057.87
720.488	2107.02
720.676	2109.07
720.863	2029.2
721.05	1998.48
721.237	2072.2
721.424	2006.67
721.611	2125.45
721.798	2033.29
721.985	2057.87
722.172	2021
722.358	2064.01
722.545	2037.39
722.732	2041.48
722.919	2004.62
723.106	1902.22
723.293	2051.72
723.48	2033.29
723.667	2070.16
723.853	2125.45
724.04	2145.93
724.227	2018.96
724.414	2059.92
724.6	1894.03
724.787	2074.25
724.974	2008.72
725.161	2078.35
725.347	2061.96
725.534	2117.26
725.72	1951.37
725.907	2117.26
726.094	2094.73
726.28	2021
726.467	1990.28
726.653	1957.52
726.84	2041.48
727.027	2049.68
727.213	1990.28
727.4	2029.2
727.586	2080.39
727.773	2012.81
727.959	2051.72
728.145	2055.82
728.332	1986.19
728.518	1959.56
728.705	2057.87
728.891	1943.18
729.077	2006.67
729.264	2000.52
729.45	1984.14
729.636	2039.44
729.823	2041.48
730.009	1934.99
730.195	1996.43
730.382	1986.19
730.568	2082.44
730.754	1998.48
730.94	2084.49
731.126	2008.72
731.313	2092.68
731.499	2086.54
731.685	2070.16
731.871	2025.1
732.057	1969.8
732.243	1955.47
732.429	2010.76
732.615	2115.21
732.801	2008.72
732.987	2043.53
733.173	2027.15
733.359	1963.66
733.545	1959.56
733.731	1869.45
733.917	1951.37
734.103	1973.9
734.289	1951.37
734.475	1885.84
734.661	2053.77
734.847	1932.94
735.033	2029.2
735.219	1947.28
735.404	1978
735.59	2000.52
735.776	1973.9
735.962	1898.13
736.148	2025.1
736.333	1904.27
736.519	1951.37
736.705	1986.19
736.89	1928.85
737.076	2053.77
737.262	2021
737.447	1869.45
737.633	1932.94
737.819	1930.89
738.004	1910.41
738.19	1932.94
738.375	1928.85
738.561	1945.23
738.747	1926.8
738.932	1955.47
739.118	1949.32
739.303	1834.64
739.489	2018.96
739.674	1975.95
739.859	1896.08
740.045	1961.61
740.23	1863.31
740.416	1814.16
740.601	1920.65
740.786	1975.95
740.972	1799.82
741.157	1838.73
741.342	1814.16
741.528	1805.97
741.713	1857.17
741.898	1875.6
742.084	1859.21
742.269	1762.96
742.454	1822.35
742.639	1885.84
742.824	1914.51
743.01	1791.63
743.195	1781.39
743.38	1783.44
743.565	1912.46
743.75	1754.77
743.935	1683.09
744.12	1742.48
744.305	1631.89
744.49	1734.29
744.675	1752.72
744.86	1810.06
745.045	1765.01
745.23	1744.53
745.415	1713.81
745.6	1701.52
745.785	1730.19
745.97	1738.38
746.155	1592.98
746.34	1697.42
746.525	1638.03
746.71	1695.38
746.895	1592.98
747.079	1609.36
747.264	1631.89
747.449	1601.17
747.634	1601.17
747.819	1607.31
748.003	1609.36
748.188	1541.78
748.373	1605.27
748.557	1549.97
748.742	1574.55
748.927	1611.41
749.111	1468.05
749.296	1463.96
749.481	1537.68
749.665	1535.64
749.85	1517.2
750.034	1537.68
750.219	1506.96
750.404	1377.94
750.588	1429.14
750.773	1470.1
750.957	1478.29
751.141	1482.39
751.326	1474.2
751.51	1463.96
751.695	1504.92
751.879	1435.28
752.064	1496.72
752.248	1361.56
752.432	1371.8
752.617	1304.21
752.801	1377.94
752.985	1384.09
753.17	1431.19
753.354	1259.16
753.538	1373.85
753.722	1345.17
753.907	1265.3
754.091	1279.64
754.275	1296.02
754.459	1322.65
754.643	1306.26
754.828	1250.97
755.012	1228.44
755.196	1273.5
755.38	1275.54
755.564	1214.1
755.748	1175.19
755.932	1242.78
756.116	1234.58
756.3	1207.96
756.484	1224.34
756.668	1287.83
756.852	1185.43
757.036	1175.19
757.22	1146.52
757.404	1191.58
757.588	1150.62
757.772	1152.67
757.956	1074.84
758.14	1214.1
758.323	1046.17
758.507	1148.57
758.691	1054.36
758.875	1152.67
759.059	1152.67
759.242	1093.27
759.426	1111.71
759.61	1103.51
759.794	1117.85
759.977	1015.45
760.161	1099.42
760.345	1080.99
760.528	1074.84
760.712	1085.08
760.895	984.73
761.079	1005.21
761.263	1044.12
761.446	915.1
761.63	994.97
761.813	1060.51
761.997	978.59
762.18	1060.51
762.364	976.54
762.547	951.96
762.731	1001.12
762.914	1066.65
763.098	962.2
763.281	908.96
763.464	1025.69
763.648	1011.36
763.831	999.07
764.015	978.59
764.198	1050.27
764.381	968.35
764.564	976.54
764.748	945.82
764.931	906.91
765.114	921.24
765.297	958.11
765.481	888.48
765.664	915.1
765.847	882.33
766.03	945.82
766.213	900.76
766.397	872.09
766.58	890.53
766.763	870.05
766.946	816.8
767.129	896.67
767.312	839.33
767.495	878.24
767.678	857.76
767.861	954.01
768.044	923.29
768.227	810.65
768.41	915.1
768.593	761.5
768.776	890.53
768.959	847.52
769.142	863.9
769.324	800.41
769.507	917.15
769.69	831.13
769.873	929.44
770.056	822.94
770.239	818.85
770.421	794.27
770.604	786.08
770.787	845.47
770.97	874.14
771.152	894.62
771.335	870.05
771.518	872.09
771.7	808.61
771.883	806.56
772.066	741.02
772.248	747.17
772.431	765.6
772.613	853.66
772.796	794.27
772.978	820.89
773.161	775.84
773.343	710.3
773.526	822.94
773.708	755.36
773.891	710.3
774.073	806.56
774.256	669.34
774.438	730.78
774.621	712.35
774.803	714.4
774.985	712.35
775.168	728.74
775.35	730.78
775.532	777.89
775.715	724.64
775.897	743.07
776.079	612
776.261	689.82
776.444	659.1
776.626	667.3
776.808	675.49
776.99	630.43
777.173	691.87
777.355	648.86
777.537	683.68
777.719	693.92
777.901	560.8
778.083	659.1
778.265	702.11
778.447	630.43
778.629	642.72
778.811	689.82
778.993	661.15
779.175	652.96
779.357	595.62
779.539	552.61
779.721	511.65
779.903	640.67
780.085	583.33
780.267	630.43
780.449	550.56
780.631	612
780.812	593.57
780.994	585.38
781.176	540.32
781.358	485.03
781.54	511.65
781.721	568.99
781.903	632.48
782.085	489.12
782.267	575.14
782.448	562.85
782.63	509.6
782.812	568.99
782.993	532.13
783.175	513.7
783.357	493.22
783.538	433.83
783.72	464.55
783.901	538.27
784.083	505.51
784.264	439.97
784.446	536.23
784.627	472.74
784.809	448.16
784.99	497.32
785.172	448.16
785.353	450.21
785.535	525.99
785.716	372.39
785.897	370.34
786.079	386.72
786.26	399.01
786.441	411.3
786.623	394.92
786.804	495.27
786.985	427.68
787.167	353.96
787.348	382.63
787.529	452.26
787.71	452.26
787.891	421.54
788.073	427.68
788.254	378.53
788.435	396.96
788.616	368.29
788.797	396.96
788.978	429.73
789.159	446.12
789.34	358.05
789.522	399.01
789.703	327.33
789.884	353.96
790.065	327.33
790.246	376.48
790.427	325.29
790.607	401.06
790.788	429.73
790.969	394.92
791.15	366.25
791.331	272.04
791.512	276.13
791.693	341.67
791.874	374.44
792.054	405.16
792.235	423.59
792.416	351.91
792.597	411.3
792.778	390.82
792.958	263.85
793.139	308.9
793.32	321.19
793.5	306.85
793.681	364.2
793.862	339.62
794.042	315.05
794.223	317.09
794.404	261.8
794.584	296.61
794.765	290.47
794.945	294.57
795.126	349.86
795.306	345.77
795.487	296.61
795.667	347.81
795.848	263.85
796.028	218.79
796.209	292.52
796.389	308.9
796.57	226.98
796.75	200.36
796.93	284.33
797.111	313
797.291	259.75
797.471	235.18
797.652	267.94
797.832	186.02
798.012	308.9
798.192	241.32
798.373	112.3
798.553	261.8
798.733	335.53
798.913	222.89
799.093	198.31
799.274	249.51
799.454	243.37
799.634	208.55
799.814	282.28
799.994	235.18
800.174	337.57
800.354	202.41
800.534	257.7
800.714	251.56
800.894	210.6
801.074	231.08
801.254	171.69
801.434	202.41
801.614	231.08
801.794	233.13
801.974	685.73
802.154	190.12
802.334	278.18
802.514	190.12
802.693	255.65
802.873	200.36
803.053	329.38
803.233	159.4
803.413	190.12
803.592	214.7
803.772	149.16
803.952	173.74
804.131	198.31
804.311	218.79
804.491	231.08
804.67	192.17
804.85	235.18
805.03	233.13
805.209	212.65
805.389	229.03
805.568	157.35
805.748	155.3
805.928	231.08
806.107	229.03
806.287	198.31
806.466	212.65
806.646	190.12
806.825	161.45
807.004	222.89
807.184	226.98
807.363	177.83
807.543	267.94
807.722	132.78
807.901	206.5
808.081	206.5
808.26	120.49
808.439	157.35
808.619	159.4
808.798	192.17
808.977	161.45
809.156	196.26
809.336	128.68
809.515	210.6
809.694	222.89
809.873	169.64
810.052	177.83
810.231	265.89
810.411	159.4
810.59	149.16
810.769	136.87
810.948	169.64
811.127	134.82
811.306	167.59
811.485	145.06
811.664	186.02
811.843	231.08
812.022	165.54
812.201	132.78
812.38	167.59
812.559	169.64
812.737	212.65
812.916	124.58
813.095	149.16
813.274	134.82
813.453	177.83
813.632	145.06
813.811	155.3
813.989	138.92
814.168	138.92
814.347	97.96
814.526	132.78
814.704	167.59
814.883	194.22
815.062	147.11
815.24	104.11
815.419	132.78
815.598	116.39
815.776	106.15
815.955	95.91
816.133	116.39
816.312	136.87
816.49	116.39
816.669	190.12
816.847	110.25
817.026	126.63
817.204	120.49
817.383	95.91
817.561	83.63
817.74	65.19
817.918	91.82
818.097	59.05
818.275	69.29
818.453	112.3
818.632	145.06
818.81	175.78
818.988	118.44
819.167	77.48
819.345	151.21
819.523	79.53
819.701	155.3
819.879	61.1
820.058	136.87
820.236	198.31
820.414	69.29
820.592	65.19
820.77	124.58
820.948	118.44
821.127	83.63
821.305	132.78
821.483	147.11
821.661	124.58
821.839	118.44
822.017	151.21
822.195	145.06
822.373	97.96
822.551	95.91
822.729	169.64
822.907	151.21
823.085	128.68
823.262	120.49
823.44	108.2
823.618	118.44
823.796	81.58
823.974	153.26
824.152	153.26
824.329	77.48
824.507	89.77
824.685	120.49
824.863	67.24
825.04	75.43
825.218	128.68
825.396	87.72
825.574	48.81
825.751	134.82
825.929	44.71
826.107	87.72
826.284	118.44
826.462	57
826.639	73.39
826.817	91.82
826.994	75.43
827.172	11.95
827.349	143.02
827.527	124.58
827.704	149.16
827.882	69.29
828.059	85.67
828.237	48.81
828.414	128.68
828.591	85.67
828.769	100.01
828.946	-22.87
829.124	75.43
829.301	44.71
829.478	136.87
829.655	112.3
829.833	87.72
830.01	42.67
830.187	77.48
830.364	112.3
830.542	77.48
830.719	165.54
830.896	149.16
831.073	87.72
831.25	18.09
831.427	102.06
831.604	71.34
831.782	89.77
831.959	153.26
832.136	69.29
832.313	44.71
832.49	46.76
832.667	132.78
832.844	97.96
833.021	83.63
833.198	34.47
833.374	104.11
833.551	71.34
833.728	149.16
833.905	138.92
834.082	42.67
834.259	87.72
834.436	85.67
834.612	114.34
834.789	77.48
834.966	44.71
835.143	198.31
835.319	42.67
835.496	95.91
835.673	110.25
835.85	124.58
836.026	91.82
836.203	155.3
836.38	89.77
836.556	91.82
836.733	85.67
836.909	118.44
837.086	18.09
837.262	42.67
837.439	20.14
837.616	59.05
837.792	18.09
837.968	116.39
838.145	75.43
838.321	59.05
838.498	77.48
838.674	112.3
838.851	67.24
839.027	81.58
839.203	104.11
839.38	108.2
839.556	61.1
839.732	48.81
839.909	95.91
840.085	85.67
840.261	42.67
840.437	50.86
840.614	3.75
840.79	26.28
840.966	102.06
841.142	106.15
841.318	-18.77
841.494	108.2
841.671	67.24
841.847	22.19
842.023	40.62
842.199	26.28
842.375	42.67
842.551	3.75
842.727	26.28
842.903	143.02
843.079	5.8
843.255	95.91
843.431	149.16
843.607	9.9
843.783	69.29
843.959	118.44
844.134	61.1
844.31	108.2
844.486	50.86
844.662	85.67
844.838	-6.49
845.013	77.48
845.189	38.57
845.365	18.09
845.541	102.06
845.716	-67.92
845.892	30.38
846.068	5.8
846.244	48.81
846.419	110.25
846.595	-31.06
846.77	77.48
846.946	52.91
847.122	91.82
847.297	65.19
847.473	71.34
847.648	28.33
847.824	1.71
847.999	18.09
848.175	57
848.35	9.9
848.526	61.1
848.701	95.91
848.876	67.24
849.052	95.91
849.227	44.71
849.403	34.47
849.578	-6.49
849.753	-2.39
849.929	63.15
850.104	26.28
850.279	52.91
850.454	7.85
850.63	18.09
850.805	-4.44
850.98	32.43
851.155	54.95
851.33	50.86
851.505	61.1
851.681	30.38
851.856	22.19
852.031	36.52
852.206	46.76
852.381	26.28
852.556	77.48
852.731	28.33
852.906	16.04
853.081	22.19
853.256	-20.82
853.431	40.62
853.606	-14.68
853.781	16.04
853.956	38.57
854.131	30.38
854.305	-8.53
854.48	11.95
854.655	16.04
854.83	75.43
855.005	-2.39
855.18	-8.53
855.354	-2.39
855.529	-22.87
855.704	79.53
855.879	26.28
856.053	-14.68
856.228	73.39
856.403	-4.44
856.577	26.28
856.752	18.09
856.926	-14.68
857.101	28.33
857.276	30.38
857.45	9.9
857.625	61.1
857.799	85.67
857.974	18.09
858.148	-12.63
858.323	95.91
858.497	1.71
858.672	67.24
858.846	9.9
859.02	73.39
859.195	57
859.369	36.52
859.543	20.14
859.718	32.43
859.892	-2.39
860.066	95.91
860.241	7.85
860.415	28.33
860.589	75.43
860.763	40.62
860.938	-18.77
861.112	13.99
861.286	-4.44
861.46	34.47
861.634	-6.49
861.808	42.67
861.982	-16.73
862.157	-10.58
862.331	-22.87
862.505	81.58
862.679	-20.82
862.853	20.14
863.027	34.47
863.201	67.24
863.375	20.14
863.549	34.47
863.722	-18.77
863.896	18.09
864.07	36.52
864.244	36.52
864.418	-20.82
864.592	9.9
864.766	1.71
864.939	-39.25
865.113	-2.39
865.287	-20.82
865.461	-2.39
865.634	13.99
865.808	5.8
865.982	-31.06
866.156	7.85
866.329	-10.58
866.503	46.76
866.676	85.67
866.85	34.47
867.024	36.52
867.197	85.67
867.371	26.28
867.544	-20.82
867.718	1.71
867.891	-20.82
868.065	24.23
868.238	11.95
868.412	54.95
868.585	108.2
868.759	16.04
868.932	42.67
869.105	46.76
869.279	87.72
869.452	-33.11
869.625	-12.63
869.799	1.71
869.972	46.76
870.145	7.85
870.319	38.57
870.492	-10.58
870.665	7.85
870.838	57
871.011	-26.96
871.185	40.62
871.358	52.91
871.531	85.67
871.704	-2.39
871.877	81.58
872.05	30.38
872.223	-31.06
872.396	48.81
872.569	120.49
872.742	-65.88
872.915	22.19
873.088	-53.59
873.261	11.95
873.434	20.14
873.607	100.01
873.78	-29.01
873.953	-96.6
874.126	85.67
874.299	-39.25
874.471	-0.34
874.644	46.76
874.817	-78.16
874.99	85.67
875.163	11.95
875.335	-4.44
875.508	-0.34
875.681	34.47
875.853	22.19
876.026	75.43
876.199	42.67
876.371	20.14
876.544	22.19
876.717	32.43
876.889	22.19
877.062	5.8
877.234	7.85
877.407	-47.44
877.579	34.47
877.752	-22.87
877.924	22.19
878.097	-10.58
878.269	-29.01
878.442	1.71
878.614	81.58
878.786	69.29
878.959	-10.58
879.131	5.8
879.303	-29.01
879.476	-31.06
879.648	61.1
879.82	44.71
879.993	26.28
880.165	-26.96
880.337	32.43
880.509	-14.68
880.681	-47.44
880.854	-24.92
881.026	3.75
881.198	20.14
881.37	5.8
881.542	63.15
881.714	7.85
881.886	34.47
882.058	-63.83
882.23	46.76
882.402	-6.49
882.574	93.87
882.746	-16.73
882.918	-2.39
883.09	44.71
883.262	-4.44
883.434	20.14
883.606	75.43
883.778	34.47
883.95	50.86
884.122	13.99
884.293	59.05
884.465	-6.49
884.637	67.24
884.809	22.19
884.98	5.8
885.152	-18.77
885.324	20.14
885.496	36.52
885.667	34.47
885.839	-6.49
886.011	3.75
886.182	40.62
886.354	20.14
886.525	59.05
886.697	13.99
886.869	-12.63
887.04	-2.39
887.212	59.05
887.383	83.63
887.555	5.8
887.726	13.99
887.897	7.85
888.069	46.76
888.24	-14.68
888.412	26.28
888.583	13.99
888.754	-2.39
888.926	-12.63
889.097	-29.01
889.268	-6.49
889.44	87.72
889.611	-39.25
889.782	5.8
889.953	-26.96
890.125	22.19
890.296	28.33
890.467	38.57
890.638	-31.06
890.809	59.05
890.98	77.48
891.151	1.71
891.323	-43.35
891.494	-22.87
891.665	34.47
891.836	54.95
892.007	-6.49
892.178	-18.77
892.349	-18.77
892.52	-39.25
892.691	28.33
892.862	-26.96
893.032	16.04
893.203	44.71
893.374	34.47
893.545	7.85
893.716	-24.92
893.887	-8.53
894.057	-2.39
894.228	-45.4
894.399	28.33
894.57	1.71
894.74	-57.68
894.911	46.76
895.082	48.81
895.253	26.28
895.423	-41.3
895.594	28.33
895.764	-29.01
895.935	-22.87
896.106	13.99
896.276	46.76
896.447	-33.11
896.617	-59.73
896.788	-10.58
896.958	20.14
897.129	20.14
897.299	11.95
897.47	26.28
897.64	-33.11
897.81	-31.06
897.981	16.04
898.151	40.62
898.322	42.67
898.492	59.05
898.662	13.99
898.832	-67.92
899.003	3.75
899.173	20.14
899.343	-33.11
899.513	20.14
