Data from USB4F104151__19__13-10-32-146.txt Node

Date: Fri Mar 14 13:10:32 EDT 2025
User: louis
Spectrometer: USB4F10415
Trigger mode: 4
Integration Time (sec): 2.000000E-2
Scans to average: 1
Electric dark correction enabled: true
Nonlinearity correction enabled: false
Boxcar width: 0
XAxis mode: Wavelengths
Number of Pixels in Spectrum: 3648
>>>>>Begin Spectral Data<<<<<
178.204	-69.8
178.424	-69.8
178.644	-69.8
178.864	-145.58
179.084	-110.76
179.304	-18.6
179.524	5.97
179.744	20.31
179.964	67.41
180.184	61.27
180.404	18.26
180.624	-28.84
180.844	24.4
181.064	-12.46
181.283	-34.99
181.503	-57.51
181.723	-45.23
181.943	-110.76
182.163	42.84
182.383	18.26
182.602	-10.41
182.822	-2.22
183.042	100.18
183.262	18.26
183.482	12.12
183.701	34.64
183.921	28.5
184.141	-41.13
184.361	22.36
184.58	32.6
184.8	-2.22
185.02	53.08
185.239	-47.27
185.459	75.6
185.679	32.6
185.898	-14.51
186.118	85.84
186.338	59.22
186.557	91.99
186.777	-24.75
186.997	34.64
187.216	-28.84
187.436	83.8
187.655	-28.84
187.875	24.4
188.095	71.51
188.314	44.88
188.534	89.94
188.753	5.97
188.973	46.93
189.192	51.03
189.412	28.5
189.631	26.45
189.851	77.65
190.07	65.36
190.29	-92.33
190.509	46.93
190.729	20.31
190.948	-12.46
191.168	89.94
191.387	63.32
191.607	-67.75
191.826	106.32
192.045	59.22
192.265	75.6
192.484	-37.03
192.704	36.69
192.923	12.12
193.142	110.42
193.362	24.4
193.581	108.37
193.8	100.18
194.02	100.18
194.239	-10.41
194.458	100.18
194.678	48.98
194.897	28.5
195.116	59.22
195.335	42.84
195.555	-4.27
195.774	20.31
195.993	71.51
196.212	32.6
196.432	-2.22
196.651	59.22
196.87	22.36
197.089	44.88
197.308	-47.27
197.528	-0.17
197.747	-8.36
197.966	26.45
198.185	91.99
198.404	-6.31
198.623	89.94
198.842	59.22
199.062	48.98
199.281	44.88
199.5	67.41
199.719	12.12
199.938	36.69
200.157	118.61
200.376	24.4
200.595	22.36
200.814	67.41
201.033	34.64
201.252	16.21
201.471	34.64
201.69	-14.51
201.909	94.04
202.128	-34.99
202.347	61.27
202.566	71.51
202.785	-14.51
203.004	42.84
203.223	75.6
203.442	8.02
203.661	38.74
203.879	42.84
204.098	89.94
204.317	-30.89
204.536	5.97
204.755	20.31
204.974	-34.99
205.193	51.03
205.411	38.74
205.63	-4.27
205.849	42.84
206.068	26.45
206.287	8.02
206.505	83.8
206.724	77.65
206.943	14.17
207.162	12.12
207.381	32.6
207.599	71.51
207.818	-8.36
208.037	48.98
208.255	20.31
208.474	30.55
208.693	34.64
208.911	67.41
209.13	79.7
209.349	-20.65
209.567	24.4
209.786	75.6
210.005	40.79
210.223	18.26
210.442	-32.94
210.661	69.46
210.879	42.84
211.098	18.26
211.316	94.04
211.535	34.64
211.753	83.8
211.972	12.12
212.191	63.32
212.409	-6.31
212.628	28.5
212.846	5.97
213.065	94.04
213.283	12.12
213.502	-53.42
213.72	16.21
213.938	-37.03
214.157	-12.46
214.375	34.64
214.594	18.26
214.812	40.79
215.031	75.6
215.249	10.07
215.467	18.26
215.686	-20.65
215.904	51.03
216.122	42.84
216.341	28.5
216.559	12.12
216.778	128.85
216.996	10.07
217.214	59.22
217.432	59.22
217.651	24.4
217.869	10.07
218.087	-43.18
218.306	36.69
218.524	67.41
218.742	10.07
218.96	32.6
219.179	-63.66
219.397	8.02
219.615	-6.31
219.833	1.88
220.051	-8.36
220.27	36.69
220.488	34.64
220.706	24.4
220.924	1.88
221.142	28.5
221.36	-39.08
221.578	20.31
221.796	-12.46
222.015	28.5
222.233	26.45
222.451	112.47
222.669	10.07
222.887	42.84
223.105	53.08
223.323	3.93
223.541	-28.84
223.759	1.88
223.977	59.22
224.195	51.03
224.413	126.8
224.631	51.03
224.849	61.27
225.067	48.98
225.285	-4.27
225.503	-4.27
225.721	46.93
225.939	132.95
226.157	71.51
226.375	38.74
226.592	48.98
226.81	14.17
227.028	18.26
227.246	67.41
227.464	36.69
227.682	36.69
227.9	42.84
228.117	20.31
228.335	42.84
228.553	-2.22
228.771	-14.51
228.989	44.88
229.206	20.31
229.424	67.41
229.642	18.26
229.86	5.97
230.077	-18.6
230.295	28.5
230.513	8.02
230.731	-55.47
230.948	-8.36
231.166	28.5
231.384	-18.6
231.601	36.69
231.819	77.65
232.037	-0.17
232.254	12.12
232.472	55.12
232.689	38.74
232.907	34.64
233.125	-55.47
233.342	-30.89
233.56	48.98
233.777	10.07
233.995	14.17
234.213	89.94
234.43	38.74
234.648	16.21
234.865	10.07
235.083	40.79
235.3	-41.13
235.518	71.51
235.735	73.56
235.953	42.84
236.17	51.03
236.388	18.26
236.605	-14.51
236.822	46.93
237.04	71.51
237.257	77.65
237.475	69.46
237.692	114.52
237.909	-6.31
238.127	28.5
238.344	28.5
238.562	22.36
238.779	-12.46
238.996	3.93
239.214	-30.89
239.431	51.03
239.648	42.84
239.865	14.17
240.083	-0.17
240.3	44.88
240.517	59.22
240.735	14.17
240.952	81.75
241.169	24.4
241.386	38.74
241.603	3.93
241.821	-18.6
242.038	114.52
242.255	42.84
242.472	-12.46
242.689	53.08
242.907	91.99
243.124	-10.41
243.341	28.5
243.558	30.55
243.775	-8.36
243.992	-22.7
244.209	36.69
244.426	5.97
244.643	55.12
244.86	-14.51
245.078	120.66
245.295	61.27
245.512	53.08
245.729	12.12
245.946	77.65
246.163	-55.47
246.38	55.12
246.597	10.07
246.814	98.13
247.031	-14.51
247.248	8.02
247.464	32.6
247.681	89.94
247.898	26.45
248.115	59.22
248.332	83.8
248.549	14.17
248.766	16.21
248.983	106.32
249.2	-26.79
249.417	36.69
249.633	-4.27
249.85	10.07
250.067	18.26
250.284	91.99
250.501	18.26
250.717	83.8
250.934	-12.46
251.151	36.69
251.368	67.41
251.585	55.12
251.801	8.02
252.018	34.64
252.235	3.93
252.451	-47.27
252.668	-2.22
252.885	53.08
253.102	12.12
253.318	30.55
253.535	55.12
253.752	40.79
253.968	38.74
254.185	-4.27
254.401	46.93
254.618	44.88
254.835	48.98
255.051	18.26
255.268	28.5
255.484	24.4
255.701	53.08
255.917	18.26
256.134	83.8
256.351	57.17
256.567	10.07
256.784	1.88
257	-4.27
257.217	63.32
257.433	-20.65
257.65	87.89
257.866	124.76
258.082	30.55
258.299	-20.65
258.515	22.36
258.732	-73.9
258.948	59.22
259.165	-8.36
259.381	28.5
259.597	3.93
259.814	44.88
260.03	116.56
260.246	10.07
260.463	28.5
260.679	71.51
260.895	69.46
261.112	-6.31
261.328	59.22
261.544	8.02
261.761	96.08
261.977	32.6
262.193	51.03
262.409	51.03
262.626	-26.79
262.842	-4.27
263.058	1.88
263.274	61.27
263.49	85.84
263.707	18.26
263.923	26.45
264.139	-28.84
264.355	40.79
264.571	77.65
264.787	79.7
265.004	34.64
265.22	18.26
265.436	42.84
265.652	59.22
265.868	-14.51
266.084	42.84
266.3	16.21
266.516	8.02
266.732	40.79
266.948	63.32
267.164	24.4
267.38	30.55
267.596	77.65
267.812	53.08
268.028	59.22
268.244	-49.32
268.46	-0.17
268.676	75.6
268.892	16.21
269.108	1.88
269.324	18.26
269.54	-14.51
269.756	67.41
269.972	-65.71
270.188	-22.7
270.403	44.88
270.619	16.21
270.835	55.12
271.051	44.88
271.267	40.79
271.483	-28.84
271.698	46.93
271.914	-6.31
272.13	42.84
272.346	-12.46
272.562	22.36
272.777	100.18
272.993	28.5
273.209	14.17
273.425	94.04
273.64	20.31
273.856	-2.22
274.072	-2.22
274.287	51.03
274.503	59.22
274.719	1.88
274.934	77.65
275.15	-22.7
275.366	-24.75
275.581	-6.31
275.797	73.56
276.012	22.36
276.228	65.36
276.444	-12.46
276.659	44.88
276.875	-39.08
277.09	44.88
277.306	26.45
277.521	73.56
277.737	89.94
277.952	65.36
278.168	-30.89
278.383	48.98
278.599	-18.6
278.814	77.65
279.03	-6.31
279.245	40.79
279.461	75.6
279.676	102.23
279.892	26.45
280.107	-4.27
280.322	3.93
280.538	75.6
280.753	44.88
280.969	-26.79
281.184	3.93
281.399	42.84
281.615	32.6
281.83	-12.46
282.045	-8.36
282.26	-2.22
282.476	28.5
282.691	42.84
282.906	-34.99
283.122	22.36
283.337	-47.27
283.552	51.03
283.767	96.08
283.983	91.99
284.198	-18.6
284.413	57.17
284.628	-18.6
284.843	16.21
285.058	5.97
285.274	1.88
285.489	22.36
285.704	55.12
285.919	-20.65
286.134	-0.17
286.349	28.5
286.564	34.64
286.779	77.65
286.995	65.36
287.21	-8.36
287.425	67.41
287.64	32.6
287.855	46.93
288.07	10.07
288.285	30.55
288.5	91.99
288.715	55.12
288.93	-51.37
289.145	118.61
289.36	34.64
289.575	77.65
289.79	-30.89
290.004	79.7
290.219	14.17
290.434	-20.65
290.649	40.79
290.864	12.12
291.079	34.64
291.294	28.5
291.509	104.28
291.724	5.97
291.938	5.97
292.153	61.27
292.368	12.12
292.583	122.71
292.798	51.03
293.012	73.56
293.227	18.26
293.442	28.5
293.657	71.51
293.871	89.94
294.086	106.32
294.301	-6.31
294.516	65.36
294.73	110.42
294.945	71.51
295.16	-47.27
295.374	-4.27
295.589	12.12
295.804	14.17
296.018	10.07
296.233	24.4
296.447	59.22
296.662	22.36
296.877	59.22
297.091	83.8
297.306	55.12
297.52	16.21
297.735	63.32
297.949	42.84
298.164	61.27
298.378	-16.55
298.593	8.02
298.807	14.17
299.022	87.89
299.236	34.64
299.451	85.84
299.665	-34.99
299.88	36.69
300.094	100.18
300.309	36.69
300.523	59.22
300.737	36.69
300.952	10.07
301.166	42.84
301.381	-20.65
301.595	36.69
301.809	-34.99
302.024	85.84
302.238	38.74
302.452	32.6
302.667	26.45
302.881	85.84
303.095	22.36
303.309	-18.6
303.524	-26.79
303.738	22.36
303.952	75.6
304.166	67.41
304.381	1.88
304.595	69.46
304.809	-8.36
305.023	59.22
305.237	28.5
305.452	42.84
305.666	55.12
305.88	30.55
306.094	55.12
306.308	61.27
306.522	151.38
306.736	-4.27
306.95	79.7
307.164	63.32
307.379	18.26
307.593	87.89
307.807	61.27
308.021	38.74
308.235	61.27
308.449	94.04
308.663	-4.27
308.877	126.8
309.091	42.84
309.305	73.56
309.519	-20.65
309.733	75.6
309.947	-61.61
310.161	22.36
310.374	69.46
310.588	42.84
310.802	18.26
311.016	83.8
311.23	24.4
311.444	-28.84
311.658	53.08
311.872	-4.27
312.085	40.79
312.299	16.21
312.513	96.08
312.727	16.21
312.941	51.03
313.154	46.93
313.368	59.22
313.582	22.36
313.796	-20.65
314.009	69.46
314.223	71.51
314.437	16.21
314.651	132.95
314.864	1.88
315.078	42.84
315.292	10.07
315.505	14.17
315.719	20.31
315.933	8.02
316.146	-51.37
316.36	-14.51
316.573	28.5
316.787	-20.65
317.001	34.64
317.214	40.79
317.428	69.46
317.641	36.69
317.855	59.22
318.068	-24.75
318.282	14.17
318.495	63.32
318.709	57.17
318.922	-0.17
319.136	100.18
319.349	36.69
319.563	-8.36
319.776	-39.08
319.99	10.07
320.203	42.84
320.417	87.89
320.63	-53.42
320.843	59.22
321.057	18.26
321.27	38.74
321.483	118.61
321.697	75.6
321.91	-14.51
322.124	16.21
322.337	46.93
322.55	1.88
322.763	40.79
322.977	10.07
323.19	77.65
323.403	63.32
323.617	38.74
323.83	51.03
324.043	89.94
324.256	42.84
324.469	12.12
324.683	10.07
324.896	83.8
325.109	48.98
325.322	51.03
325.535	85.84
325.748	18.26
325.962	-16.55
326.175	87.89
326.388	26.45
326.601	42.84
326.814	42.84
327.027	3.93
327.24	59.22
327.453	34.64
327.666	110.42
327.879	-24.75
328.092	89.94
328.305	30.55
328.518	91.99
328.731	24.4
328.944	38.74
329.157	61.27
329.37	38.74
329.583	57.17
329.796	18.26
330.009	-6.31
330.222	83.8
330.435	3.93
330.648	-14.51
330.861	20.31
331.073	40.79
331.286	38.74
331.499	51.03
331.712	-6.31
331.925	26.45
332.138	53.08
332.35	100.18
332.563	-45.23
332.776	44.88
332.989	34.64
333.202	-6.31
333.414	75.6
333.627	59.22
333.84	10.07
334.053	-4.27
334.265	-8.36
334.478	3.93
334.691	-20.65
334.903	55.12
335.116	22.36
335.329	28.5
335.541	77.65
335.754	71.51
335.966	-4.27
336.179	14.17
336.392	51.03
336.604	73.56
336.817	-18.6
337.029	26.45
337.242	-18.6
337.454	73.56
337.667	-22.7
337.88	59.22
338.092	59.22
338.305	26.45
338.517	87.89
338.729	79.7
338.942	67.41
339.154	36.69
339.367	55.12
339.579	67.41
339.792	61.27
340.004	40.79
340.217	38.74
340.429	130.9
340.641	-30.89
340.854	10.07
341.066	-0.17
341.278	108.37
341.491	69.46
341.703	18.26
341.915	3.93
342.128	73.56
342.34	42.84
342.552	-6.31
342.764	26.45
342.977	38.74
343.189	30.55
343.401	94.04
343.613	-49.32
343.826	10.07
344.038	12.12
344.25	26.45
344.462	18.26
344.674	63.32
344.886	63.32
345.099	59.22
345.311	10.07
345.523	42.84
345.735	-55.47
345.947	46.93
346.159	57.17
346.371	51.03
346.583	3.93
346.795	46.93
347.007	-4.27
347.219	42.84
347.431	85.84
347.643	51.03
347.855	3.93
348.067	87.89
348.279	-30.89
348.491	55.12
348.703	10.07
348.915	24.4
349.127	-39.08
349.339	-20.65
349.551	18.26
349.763	73.56
349.975	20.31
350.187	34.64
350.399	-8.36
350.61	104.28
350.822	77.65
351.034	75.6
351.246	89.94
351.458	3.93
351.669	20.31
351.881	22.36
352.093	59.22
352.305	53.08
352.517	22.36
352.728	42.84
352.94	-0.17
353.152	75.6
353.363	28.5
353.575	51.03
353.787	63.32
353.999	34.64
354.21	67.41
354.422	-43.18
354.633	-12.46
354.845	38.74
355.057	-4.27
355.268	71.51
355.48	26.45
355.692	-14.51
355.903	38.74
356.115	3.93
356.326	57.17
356.538	53.08
356.749	79.7
356.961	44.88
357.172	30.55
357.384	63.32
357.595	46.93
357.807	79.7
358.018	12.12
358.23	73.56
358.441	91.99
358.653	69.46
358.864	51.03
359.075	16.21
359.287	22.36
359.498	63.32
359.709	18.26
359.921	-37.03
360.132	34.64
360.344	75.6
360.555	-10.41
360.766	-8.36
360.977	18.26
361.189	46.93
361.4	91.99
361.611	59.22
361.823	112.47
362.034	61.27
362.245	77.65
362.456	55.12
362.667	51.03
362.879	22.36
363.09	20.31
363.301	96.08
363.512	38.74
363.723	59.22
363.935	87.89
364.146	69.46
364.357	12.12
364.568	69.46
364.779	-39.08
364.99	65.36
365.201	-6.31
365.412	34.64
365.623	-0.17
365.834	42.84
366.045	22.36
366.256	73.56
366.467	79.7
366.678	57.17
366.889	77.65
367.1	71.51
367.311	75.6
367.522	67.41
367.733	-28.84
367.944	114.52
368.155	30.55
368.366	122.71
368.577	94.04
368.788	104.28
368.999	96.08
369.209	42.84
369.42	-57.51
369.631	145.24
369.842	87.89
370.053	46.93
370.264	10.07
370.474	14.17
370.685	100.18
370.896	34.64
371.107	137.04
371.317	53.08
371.528	53.08
371.739	32.6
371.95	-2.22
372.16	28.5
372.371	42.84
372.582	83.8
372.792	-18.6
373.003	26.45
373.214	-8.36
373.424	5.97
373.635	-2.22
373.846	94.04
374.056	75.6
374.267	55.12
374.477	59.22
374.688	32.6
374.898	77.65
375.109	116.56
375.319	57.17
375.53	-8.36
375.74	32.6
375.951	26.45
376.161	81.75
376.372	-4.27
376.582	71.51
376.793	51.03
377.003	30.55
377.214	-10.41
377.424	100.18
377.635	63.32
377.845	-20.65
378.055	69.46
378.266	16.21
378.476	61.27
378.686	34.64
378.897	87.89
379.107	26.45
379.317	36.69
379.528	3.93
379.738	57.17
379.948	-30.89
380.158	108.37
380.369	83.8
380.579	85.84
380.789	65.36
380.999	79.7
381.21	102.23
381.42	89.94
381.63	59.22
381.84	120.66
382.05	112.47
382.261	46.93
382.471	87.89
382.681	16.21
382.891	114.52
383.101	46.93
383.311	57.17
383.521	12.12
383.731	104.28
383.941	110.42
384.151	75.6
384.361	51.03
384.571	55.12
384.781	96.08
384.991	59.22
385.201	102.23
385.411	38.74
385.621	48.98
385.831	71.51
386.041	51.03
386.251	94.04
386.461	26.45
386.671	67.41
386.881	91.99
387.091	26.45
387.301	91.99
387.511	5.97
387.72	110.42
387.93	57.17
388.14	34.64
388.35	57.17
388.56	81.75
388.769	67.41
388.979	40.79
389.189	102.23
389.399	42.84
389.609	22.36
389.818	53.08
390.028	65.36
390.238	1.88
390.447	26.45
390.657	26.45
390.867	-37.03
391.076	77.65
391.286	3.93
391.496	34.64
391.705	83.8
391.915	100.18
392.125	100.18
392.334	22.36
392.544	98.13
392.753	53.08
392.963	30.55
393.172	130.9
393.382	65.36
393.591	110.42
393.801	63.32
394.01	137.04
394.22	14.17
394.429	96.08
394.639	67.41
394.848	141.14
395.058	61.27
395.267	55.12
395.477	102.23
395.686	67.41
395.895	48.98
396.105	143.19
396.314	98.13
396.524	116.56
396.733	83.8
396.942	122.71
397.152	46.93
397.361	118.61
397.57	122.71
397.78	112.47
397.989	151.38
398.198	132.95
398.407	87.89
398.617	24.4
398.826	59.22
399.035	116.56
399.244	83.8
399.453	30.55
399.663	91.99
399.872	149.33
400.081	89.94
400.29	143.19
400.499	106.32
400.708	145.24
400.917	110.42
401.127	87.89
401.336	122.71
401.545	126.8
401.754	94.04
401.963	108.37
402.172	71.51
402.381	87.89
402.59	81.75
402.799	69.46
403.008	190.29
403.217	108.37
403.426	89.94
403.635	126.8
403.844	141.14
404.053	157.52
404.262	143.19
404.471	132.95
404.68	53.08
404.888	225.11
405.097	165.71
405.306	153.43
405.515	210.77
405.724	153.43
405.933	147.28
406.142	114.52
406.35	139.09
406.559	178
406.768	208.72
406.977	261.97
407.185	231.25
407.394	231.25
407.603	198.48
407.812	259.92
408.02	188.24
408.229	249.68
408.438	118.61
408.646	182.1
408.855	227.15
409.064	237.39
409.272	186.19
409.481	149.33
409.69	223.06
409.898	251.73
410.107	259.92
410.315	274.26
410.524	284.5
410.733	274.26
410.941	257.87
411.15	268.11
411.358	307.02
411.567	380.75
411.775	325.46
411.984	362.32
412.192	368.46
412.401	376.66
412.609	343.89
412.818	325.46
413.026	388.94
413.234	386.9
413.443	386.9
413.651	456.53
413.86	446.29
414.068	505.68
414.276	587.6
414.485	456.53
414.693	679.75
414.901	507.73
415.11	585.55
415.318	577.36
415.526	642.89
415.734	603.98
415.943	646.99
416.151	704.33
416.359	655.18
416.567	776.01
416.776	726.86
416.984	788.3
417.192	786.25
417.4	792.39
417.608	776.01
417.817	808.78
418.025	925.51
418.233	948.04
418.441	872.26
418.649	986.95
418.857	1152.84
419.065	1087.3
419.273	1089.35
419.481	1193.8
419.689	1218.37
419.897	1197.89
420.105	1216.32
420.313	1288
420.521	1347.39
420.729	1275.71
420.937	1390.4
421.145	1439.55
421.353	1412.93
421.561	1615.68
421.769	1666.88
421.977	1732.41
422.185	1656.64
422.393	1791.8
422.601	1990.45
422.809	1820.47
423.017	1849.15
423.224	1935.16
423.432	1959.74
423.64	2090.81
423.848	2248.5
424.056	2189.11
424.263	2316.08
424.471	2336.56
424.679	2322.23
424.887	2436.91
425.094	2574.13
425.302	2608.94
425.51	2682.67
425.718	2811.69
425.925	2901.8
426.133	2950.95
426.341	3024.68
426.548	3161.89
426.756	3303.2
426.964	3217.19
427.171	3460.9
427.379	3589.92
427.586	3573.53
427.794	3817.24
428.001	3936.03
428.209	3985.18
428.417	4024.09
428.624	4312.85
428.832	4333.33
429.039	4220.69
429.247	4347.67
429.454	4622.09
429.662	4962.06
429.869	4833.04
430.076	5023.5
430.284	4763.4
430.491	5170.95
430.699	5385.99
430.906	5275.4
431.114	5445.38
431.321	5508.87
431.528	5760.77
431.736	6065.91
431.943	6461.17
432.15	6186.74
432.358	6371.06
432.565	6532.85
432.772	6764.27
432.979	6735.6
433.187	6993.64
433.394	7132.9
433.601	7444.2
433.808	7526.11
434.016	7382.76
434.223	7816.93
434.43	8396.5
434.637	8226.52
434.844	8666.83
435.052	8816.33
435.259	8830.67
435.466	9012.94
435.673	8824.53
435.88	9266.89
436.087	9825.98
436.294	9920.19
436.501	9496.26
436.708	9772.74
436.915	10000.06
437.122	10471.09
437.329	10583.73
437.537	10964.65
437.743	10913.45
437.95	11050.67
438.157	11472.55
438.364	11865.76
438.571	11966.11
438.778	11986.59
438.985	13129.36
439.192	12416.66
439.399	13035.15
439.606	12584.6
439.813	13534.85
440.02	14122.62
440.227	13946.5
440.433	13862.53
440.64	14143.1
440.847	14288.51
441.054	14552.7
441.261	15607.4
441.467	15629.93
441.674	15769.19
441.881	16115.3
442.088	15994.47
442.294	16236.13
442.501	16606.81
442.708	16789.08
442.914	17512.01
443.121	18525.75
443.328	17688.14
443.534	19408.43
443.741	18292.29
443.948	18228.8
444.154	19715.62
444.361	19818.02
444.568	19865.13
444.774	19727.91
444.981	19936.81
445.187	20784.66
445.394	21409.29
445.6	21296.66
445.807	22959.61
446.013	22021.64
446.22	22457.85
446.426	23432.69
446.633	23559.66
446.839	24286.69
447.046	23444.98
447.252	24462.82
447.459	24919.51
447.665	24483.3
447.871	25605.58
448.078	26932.67
448.284	25529.81
448.491	26265.03
448.697	27346.36
448.903	27950.51
449.11	27776.43
449.316	27592.11
449.522	28067.24
449.728	28777.89
449.935	29025.69
450.141	28892.57
450.347	29377.94
450.553	28863.9
450.76	29336.98
450.966	30262.66
451.172	29883.79
451.378	31004.03
451.584	30260.62
451.791	30819.71
451.997	30705.02
452.203	31116.67
452.409	31417.72
452.615	31217.02
452.821	30145.93
453.027	29429.14
453.233	31294.84
453.44	29912.46
453.646	30358.92
453.852	30573.95
454.058	31206.78
454.264	29666.7
454.47	31102.33
454.676	30131.59
454.882	31294.84
455.088	28401.06
455.294	28781.98
455.5	29549.97
455.705	29191.58
455.911	28468.64
456.117	28065.19
456.323	27502
456.529	26244.55
456.735	27080.12
456.941	26580.42
457.147	26160.58
457.352	25406.93
457.558	24937.94
457.764	25095.64
457.97	24915.42
458.176	24335.84
458.381	24186.34
458.587	22832.63
458.793	22791.67
458.999	21702.15
459.204	23512.56
459.41	22689.28
459.616	21267.98
459.821	21298.7
460.027	21138.96
460.233	20934.17
460.438	19899.94
460.644	20162.08
460.85	18970.16
461.055	18757.18
461.261	18740.79
461.466	17288.78
461.672	16721.49
461.878	17854.02
462.083	17036.88
462.289	16387.68
462.494	16283.23
462.7	15615.59
462.905	15361.64
463.111	15744.61
463.316	15951.46
463.522	15572.58
463.727	15494.76
463.932	15326.83
464.138	15457.9
464.343	15398.51
464.549	14806.64
464.754	15332.97
464.959	15298.16
465.165	15285.87
465.37	14392.95
465.575	14048.89
465.781	14741.11
465.986	14724.72
466.191	14100.09
466.397	13903.49
466.602	13158.03
466.807	13907.59
467.012	13604.49
467.218	13686.4
467.423	13594.25
467.628	13696.64
467.833	14179.96
468.038	13557.38
468.244	13321.87
468.449	13627.01
468.654	13424.26
468.859	13209.23
469.064	13190.8
469.269	12764.82
469.474	12670.61
469.679	13029.01
469.885	12592.79
470.09	12897.94
470.295	12764.82
470.5	12424.86
470.705	12494.49
470.91	12213.91
471.115	12299.93
471.32	12478.1
471.525	12408.47
471.73	11976.35
471.935	11978.4
472.139	11400.87
472.344	11796.13
472.549	11792.03
472.754	11302.57
472.959	11396.78
473.164	10727.09
473.369	10749.62
473.574	11237.03
473.778	11273.9
473.983	11146.92
474.188	10966.7
474.393	10864.3
474.598	10673.84
474.802	10329.78
475.007	10485.43
475.212	10352.31
475.417	9989.82
475.621	9938.62
475.826	10075.84
476.031	9825.98
476.235	9750.21
476.44	9907.9
476.645	9508.55
476.849	9717.44
477.054	9610.95
477.259	9400.01
477.463	9504.45
477.668	9170.63
477.872	9215.69
478.077	9162.44
478.282	8949.45
478.486	8894.16
478.691	8765.14
478.895	8640.21
479.1	8660.69
479.304	8705.74
479.509	8539.86
479.713	8646.35
479.918	8529.62
480.122	8169.18
480.326	8435.41
480.531	8300.25
480.735	8224.47
480.94	8130.27
481.144	8578.77
481.348	8150.74
481.553	8222.42
481.757	8208.09
481.961	8203.99
482.166	8433.36
482.37	8296.15
482.574	7997.15
482.778	8122.07
482.983	8021.72
483.187	7931.61
483.391	8066.78
483.595	8093.4
483.8	7886.56
484.004	7976.67
484.208	8062.68
484.412	7868.13
484.616	8038.11
484.821	7993.05
485.025	7884.51
485.229	8253.14
485.433	8089.31
485.637	8220.38
485.841	7937.76
486.045	7984.86
486.249	8083.16
486.453	7984.86
486.657	7845.6
486.861	8095.45
487.065	7700.19
487.269	8017.63
487.473	8048.35
487.677	8189.66
487.881	8105.69
488.085	8197.85
488.289	7980.76
488.493	8109.79
488.697	8300.25
488.901	8105.69
489.105	8025.82
489.309	8050.39
489.512	8244.95
489.716	8167.13
489.92	8244.95
490.124	8226.52
490.328	8353.49
490.531	8259.29
490.735	8328.92
490.939	8373.97
491.143	7976.67
491.346	8222.42
491.55	8435.41
491.754	8451.8
491.958	8480.47
492.161	8396.5
492.365	8287.96
492.569	8351.45
492.772	8410.84
492.976	8505.04
493.18	8468.18
493.383	8607.44
493.587	8750.8
493.79	8955.6
493.994	8730.32
494.197	8808.14
494.401	8955.6
494.605	8867.53
494.808	9062.09
495.012	9168.59
495.215	9111.24
495.419	9101
495.622	9182.92
495.825	9162.44
496.029	9178.83
496.232	9522.88
496.436	9473.73
496.639	9692.87
496.843	9615.04
497.046	9998.01
497.249	9909.95
497.453	9823.94
497.656	10057.4
497.859	10176.19
498.063	10196.67
498.266	10405.56
498.469	10495.67
498.673	10352.31
498.876	10649.27
499.079	10604.21
499.282	10837.68
499.485	11067.05
499.689	10948.27
499.892	11146.92
500.095	11140.78
500.298	11503.27
500.501	11396.78
500.705	11726.5
500.908	11761.31
501.111	11583.14
501.314	11974.3
501.517	12037.79
501.72	12203.68
501.923	12175
502.126	12381.85
502.329	12668.56
502.532	12881.55
502.735	12977.81
502.938	13135.5
503.141	13166.22
503.344	13407.88
503.547	13618.82
503.75	13717.12
503.953	13840
504.156	13846.15
504.359	13717.12
504.562	14153.34
504.765	14173.82
504.968	14614.13
505.17	14704.24
505.373	14814.84
505.576	14831.22
505.779	15074.93
505.982	15079.02
506.185	15576.68
506.387	15347.31
506.59	15613.54
506.793	16119.39
506.996	15914.59
507.198	16457.31
507.401	16199.26
507.604	16445.02
507.807	16875.09
508.009	16715.35
508.212	17094.22
508.415	17385.04
508.617	17213.01
508.82	17765.96
509.022	17221.2
509.225	17892.93
509.428	18110.02
509.63	18310.72
509.833	18351.68
510.035	18769.46
510.238	18669.11
510.44	18998.84
510.643	19148.34
510.845	19285.55
511.048	18992.69
511.25	19578.41
511.453	19764.78
511.655	20407.84
511.858	20436.51
512.06	20211.23
512.262	20540.96
512.465	20446.75
512.667	20712.99
512.87	20979.22
513.072	20858.39
513.274	21849.61
513.477	21636.62
513.679	21853.7
513.881	22246.91
514.084	22574.59
514.286	22160.9
514.488	22355.46
514.69	23025.14
514.893	23346.67
515.095	23191.03
515.297	23786.99
515.499	23471.6
515.701	23891.43
515.904	24079.85
516.106	24374.75
516.308	24757.72
516.51	24649.18
516.712	24532.45
516.914	24907.23
517.116	25288.15
517.318	25355.73
517.52	25566.67
517.722	25798.09
517.925	26142.15
518.127	26361.28
518.329	26633.66
518.531	26512.83
518.733	27391.41
518.935	27137.46
519.136	27264.44
519.338	27729.33
519.54	27764.14
519.742	27975.08
519.944	27934.12
520.146	28790.17
520.348	28663.2
520.55	28790.17
520.752	29173.14
520.954	29633.94
521.155	29388.18
521.357	29750.67
521.559	30252.42
521.761	30678.4
521.963	30160.27
522.164	30221.7
522.366	30588.29
522.568	30754.18
522.77	30971.26
522.971	31749.49
523.173	31546.74
523.375	31315.32
523.576	31300.98
523.778	31583.6
523.98	32234.86
524.181	32146.79
524.383	32183.66
524.584	32601.44
524.786	32736.61
524.988	32552.29
525.189	33273.18
525.391	33203.55
525.592	33353.05
525.794	33658.2
525.995	33819.99
526.197	33707.35
526.398	33807.7
526.6	33955.15
526.801	33998.16
527.003	34061.65
527.204	34544.97
527.406	34757.95
527.607	34348.36
527.808	34352.46
528.01	34303.31
528.211	34630.98
528.412	35550.52
528.614	34958.66
528.815	35267.9
529.016	35497.27
529.218	35030.33
529.419	35398.97
529.62	35601.72
529.822	35116.35
530.023	35624.25
530.224	35599.67
530.425	35603.77
530.626	35571
530.828	35407.16
531.029	36269.36
531.23	35808.56
531.431	35880.24
531.632	35900.72
531.833	36433.19
532.035	36185.39
532.236	36039.98
532.437	36351.27
532.638	35773.75
532.839	36281.64
533.04	36660.52
533.241	35933.49
533.442	36758.82
533.643	36715.81
533.844	36648.23
534.045	36384.04
534.246	36265.26
534.447	36521.26
534.648	36322.6
534.849	36605.22
535.05	36326.7
535.251	36322.6
535.451	36549.93
535.652	36724
535.853	36504.87
536.054	37072.16
536.255	36529.45
536.456	36388.14
536.657	36877.6
536.857	36799.78
537.058	36619.56
537.259	36910.37
537.46	36785.44
537.66	36515.11
537.861	36451.63
538.062	36003.12
538.263	36445.48
538.463	36887.84
538.664	36676.9
538.865	36187.44
539.065	36672.81
539.266	36447.53
539.466	36762.92
539.667	36371.75
539.868	36640.04
540.068	36674.85
540.269	36367.66
540.469	37135.65
540.67	36527.4
540.87	36539.69
541.071	36406.57
541.271	36427.05
541.472	36310.32
541.672	36758.82
541.873	36363.56
542.073	36298.03
542.274	36783.4
542.474	36105.52
542.675	36201.77
542.875	37076.26
543.075	36572.46
543.276	36183.34
543.476	36637.99
543.676	36470.06
543.877	36758.82
544.077	36619.56
544.277	36224.3
544.478	36332.84
544.678	36154.67
544.878	36674.85
545.078	36734.24
545.279	36042.03
545.479	36160.81
545.679	35966.26
545.879	36523.3
546.079	36539.69
546.28	36437.29
546.48	36050.22
546.68	36515.11
546.88	36635.94
547.08	36121.9
547.28	36160.81
547.48	36406.57
547.68	36228.4
547.88	36029.74
548.081	36228.4
548.281	36103.47
548.481	36248.88
548.681	36611.37
548.881	36433.19
549.081	36031.79
549.28	36060.46
549.48	36701.48
549.68	36304.17
549.88	36326.7
550.08	35931.44
550.28	36207.92
550.48	35794.23
550.68	36152.62
550.88	35587.38
551.08	36334.89
551.279	36551.98
551.479	35853.62
551.679	36392.23
551.879	35982.64
552.079	36295.98
552.278	35667.25
552.478	36130.09
552.678	35714.36
552.878	35824.95
553.077	35695.92
553.277	35853.62
553.477	36177.2
553.676	35845.43
553.876	35896.63
554.076	35652.92
554.275	35804.47
554.475	35364.15
554.674	36091.18
554.874	35726.64
555.074	35673.4
555.273	35493.18
555.473	35853.62
555.672	35710.26
555.872	35366.2
556.071	35603.77
556.271	35648.82
556.47	35718.45
556.67	34993.47
556.869	35683.64
557.068	35822.9
557.268	35368.25
557.467	35181.88
557.667	35272
557.866	35329.34
558.065	35116.35
558.265	35308.86
558.464	35050.81
558.663	35413.3
558.863	34846.02
559.062	35388.73
559.261	34907.46
559.461	35237.18
559.66	34395.46
559.859	35278.14
560.058	34614.6
560.258	34673.99
560.457	34444.62
560.656	34653.51
560.855	34522.44
561.054	34823.49
561.253	34452.81
561.453	34391.37
561.652	34553.16
561.851	34487.62
562.05	34458.95
562.249	34045.26
562.448	34927.94
562.647	34121.04
562.846	34184.52
563.045	34186.57
563.244	33688.92
563.443	34274.63
563.642	33693.01
563.841	33752.4
564.04	33357.14
564.239	34118.99
564.438	33267.03
564.637	33803.6
564.836	33762.64
565.035	33416.54
565.234	33516.89
565.432	33531.22
565.631	33320.28
565.83	33267.03
566.029	33125.72
566.228	33365.34
566.427	32892.26
566.625	32675.17
566.824	32752.99
567.023	33074.52
567.222	32947.55
567.42	33080.67
567.619	32861.54
567.818	32374.12
568.016	32560.48
568.215	32900.45
568.414	32630.12
568.612	32662.88
568.811	32392.55
569.01	32480.61
569.208	32099.69
569.407	32306.54
569.605	31976.81
569.804	31720.82
570.002	31960.43
570.201	31982.96
570.4	31761.78
570.598	31671.67
570.797	31536.5
570.995	31511.92
571.193	31098.23
571.392	31556.98
571.59	31604.08
571.789	31145.34
571.987	31382.9
572.186	31294.84
572.384	30858.62
572.582	31020.41
572.781	31608.18
572.979	30676.35
573.177	31065.47
573.376	30733.7
573.574	30297.48
573.772	30739.84
573.971	30567.81
574.169	30547.33
574.367	30416.26
574.565	30467.46
574.763	30295.43
574.962	30291.34
575.16	29932.94
575.358	29920.65
575.556	29887.89
575.754	29967.76
575.952	29994.38
576.151	30021
576.349	29810.06
576.547	29906.32
576.745	29336.98
576.943	29466
577.141	29685.14
577.339	29619.6
577.537	29234.58
577.735	29320.6
577.933	29068.7
578.131	29296.02
578.329	28714.4
578.527	28700.06
578.725	28974.49
578.923	28808.61
579.121	28767.65
579.319	28681.63
579.516	28507.55
579.714	28716.45
579.912	28470.69
580.11	28341.67
580.308	28683.68
580.506	28259.75
580.704	27999.66
580.901	28188.07
581.099	28372.39
581.297	28138.92
581.495	28083.62
581.692	28151.21
581.89	27319.73
582.088	27944.36
582.285	27614.64
582.483	27745.71
582.681	27522.48
582.878	27772.33
583.076	27194.81
583.274	27659.7
583.471	27299.25
583.669	27151.8
583.866	27233.72
584.064	27162.04
584.262	26842.56
584.459	27125.18
584.657	26701.25
584.854	26875.32
585.052	26576.32
585.249	27024.82
585.447	26580.42
585.644	26578.37
585.841	26901.95
586.039	26648
586.236	26310.08
586.434	26389.95
586.631	26131.91
586.828	26174.92
587.026	26133.96
587.223	25871.82
587.42	25591.25
587.618	25925.07
587.815	25744.84
588.012	25558.48
588.21	25767.37
588.407	25769.42
588.604	25681.36
588.801	25322.96
588.999	25490.9
589.196	25159.13
589.393	25298.39
589.59	25380.31
589.787	25193.94
589.984	24985.05
590.182	25021.91
590.379	25093.59
590.576	24737.24
590.773	24665.56
590.97	24614.37
591.167	24899.03
591.364	24749.53
591.561	24485.34
591.758	24323.55
591.955	24260.07
592.152	24448.48
592.349	24296.93
592.546	24366.56
592.743	24049.13
592.94	23758.31
593.137	23989.74
593.334	23821.8
593.531	23733.74
593.727	23868.91
593.924	23856.62
594.121	23582.19
594.318	23692.78
594.515	23391.73
594.712	23698.92
594.908	23516.65
595.105	23508.46
595.302	22988.28
595.499	23426.54
595.696	23111.16
595.892	22904.31
596.089	23096.82
596.286	23168.5
596.482	23064.05
596.679	22791.67
596.876	22844.92
597.072	22742.52
597.269	22457.85
597.466	22590.97
597.662	22165
597.859	22529.53
598.055	22517.25
598.252	22449.66
598.448	22165
598.645	22136.32
598.841	21984.77
599.038	21876.23
599.234	22095.36
599.431	21843.46
599.627	21839.37
599.824	21859.85
600.02	21726.73
600.217	21939.72
600.413	21444.11
600.609	21528.08
600.806	21294.61
601.002	21614.09
601.198	21300.75
601.395	21206.55
601.591	21452.3
601.787	21526.03
601.984	21052.95
602.18	21212.69
602.376	20874.77
602.572	20559.39
602.769	20639.26
602.965	20866.58
603.161	20772.38
603.357	20432.41
603.553	20676.12
603.75	20598.3
603.946	20442.65
604.142	20495.9
604.338	20053.54
604.534	20368.93
604.73	19951.14
604.926	19772.97
605.122	20133.41
605.318	19983.91
605.514	20135.46
605.71	19848.74
605.906	19955.24
606.102	19945
606.298	20018.72
606.494	19818.02
606.69	19514.92
606.886	19777.06
607.082	19334.7
607.278	19643.95
607.474	19285.55
607.67	19650.09
607.866	19373.61
608.062	19404.33
608.257	19400.24
608.453	19287.6
608.649	19447.34
608.845	19021.36
609.041	19189.3
609.236	19084.85
609.432	19158.58
609.628	18894.39
609.824	18835
610.019	18759.22
610.215	19101.23
610.411	18712.12
610.606	18478.65
610.802	18867.77
610.998	18703.93
611.193	18845.24
611.389	18617.91
611.584	18507.32
611.78	18511.42
611.976	18642.49
612.171	18482.75
612.367	18400.83
612.562	18380.35
612.758	18095.68
612.953	18183.74
613.149	18294.33
613.344	18097.73
613.539	18546.23
613.735	18415.16
613.93	18402.88
614.126	18441.79
614.321	18431.55
614.517	18296.38
614.712	18173.5
614.907	18032.19
615.103	18159.17
615.298	17743.43
615.493	18314.81
615.688	17681.99
615.884	18214.46
616.079	17737.29
616.274	17864.26
616.47	17671.75
616.665	17702.47
616.86	17714.76
617.055	17651.27
617.25	17706.57
617.445	17704.52
617.641	17247.82
617.836	17514.06
618.031	17333.84
618.226	17520.2
618.421	17147.47
618.616	17634.89
618.811	17165.9
619.006	17231.44
619.201	16920.15
619.396	17137.23
619.591	16881.24
619.786	16977.49
619.981	17006.16
620.176	16873.04
620.371	16807.51
620.566	16893.52
620.761	16893.52
620.956	16858.71
621.151	16393.82
621.346	16473.69
621.541	16289.37
621.735	16330.33
621.93	15887.97
622.125	15996.51
622.32	15851.11
622.515	16021.09
622.709	15685.22
622.904	15789.67
623.099	15660.65
623.294	15777.38
623.488	15339.12
623.683	15400.55
623.878	15308.4
624.072	15529.58
624.267	15181.42
624.462	14929.52
624.656	15081.07
624.851	15105.65
625.046	14900.85
625.24	14749.3
625.435	14552.7
625.629	14579.32
625.824	14591.61
626.018	14706.29
626.213	14536.31
626.407	14468.73
626.602	14102.14
626.796	14460.54
626.991	14358.14
627.185	14214.78
627.38	13926.02
627.574	13915.78
627.768	13827.71
627.963	13735.56
628.157	13684.36
628.352	13721.22
628.546	13475.46
628.74	13723.27
628.935	13510.28
629.129	13383.31
629.323	13358.73
629.517	13190.8
629.712	13127.31
629.906	13149.84
630.1	13008.53
630.294	12807.83
630.489	13139.6
630.683	13006.48
630.877	12807.83
631.071	12531.35
631.265	12660.37
631.459	12568.21
631.653	12445.34
631.848	12600.98
632.042	12508.82
632.236	12181.15
632.43	12332.7
632.624	12492.44
632.818	11968.16
633.012	11878.05
633.206	11925.15
633.4	11968.16
633.594	11910.82
633.788	12054.17
633.982	11759.27
634.176	11720.35
634.369	11542.18
634.563	11542.18
634.757	11572.9
634.951	11540.13
635.145	11341.48
635.339	11456.17
635.533	11259.56
635.726	11329.19
635.92	11022
636.114	11175.59
636.308	11026.09
636.501	11204.27
636.695	11079.34
636.889	11003.57
637.083	10710.71
637.276	10854.06
637.47	10710.71
637.664	10612.4
637.857	10856.11
638.051	10704.56
638.244	10380.98
638.438	10366.65
638.632	10471.09
638.825	10225.34
639.019	10290.87
639.212	10274.49
639.406	10309.3
639.599	10323.64
639.793	10284.73
639.986	10120.89
640.18	10090.17
640.373	10034.88
640.567	9938.62
640.76	9873.09
640.954	9854.65
641.147	9860.8
641.34	9715.39
641.534	9721.54
641.727	9768.64
641.92	9580.23
642.114	9430.73
642.307	9436.87
642.5	9627.33
642.694	9311.94
642.887	9400.01
643.08	9291.46
643.273	9189.07
643.467	9103.05
643.66	9191.11
643.853	9211.59
644.046	8988.36
644.239	8949.45
644.432	8935.12
644.626	8916.69
644.819	8926.93
645.012	8820.43
645.205	8634.07
645.398	8613.59
645.591	8627.92
645.784	8617.68
645.977	8523.48
646.17	8507.09
646.363	8410.84
646.556	8449.75
646.749	8548.05
646.942	8462.04
647.135	8335.06
647.328	8183.51
647.521	8167.13
647.714	8201.94
647.907	8160.98
648.099	7886.56
648.292	8128.22
648.485	8027.87
648.678	7849.69
648.871	7857.89
649.064	7816.93
649.256	7796.45
649.449	7806.69
649.642	7722.72
649.835	7749.34
650.027	7708.38
650.22	7651.04
650.413	7689.95
650.605	7714.53
650.798	7558.88
650.991	7329.51
651.183	7427.81
651.376	7341.8
651.568	7343.85
651.761	7481.06
651.954	7382.76
652.146	7257.83
652.339	7272.17
652.531	7153.38
652.724	7218.92
652.916	6919.92
653.109	7032.55
653.301	7120.62
653.494	7145.19
653.686	6860.52
653.879	6940.4
654.071	6858.48
654.263	6842.09
654.456	6842.09
654.648	6981.35
654.84	6895.34
655.033	6680.3
655.225	6723.31
655.417	6653.68
655.61	6616.82
655.802	6657.78
655.994	6645.49
656.186	6452.98
656.379	6620.91
656.571	6360.82
656.763	6233.85
656.955	6332.15
657.148	6522.61
657.34	6211.32
657.532	6149.88
657.724	6227.7
657.916	6186.74
658.108	6199.03
658.3	6184.69
658.492	6235.89
658.684	6147.83
658.876	6131.45
659.068	6033.15
659.26	6100.73
659.452	5889.79
659.644	5854.97
659.836	5973.75
660.028	6016.76
660.22	5764.86
660.412	5822.2
660.604	5693.18
660.796	5850.88
660.988	5664.51
661.18	5719.81
661.372	5598.98
661.563	5607.17
661.755	5662.46
661.947	5619.46
662.139	5512.96
662.331	5363.46
662.522	5494.53
662.714	5410.56
662.906	5435.14
663.097	5383.94
663.289	5238.53
663.481	5207.81
663.673	5390.08
663.864	5474.05
664.056	5195.53
664.247	5220.1
664.439	5158.66
664.631	5342.98
664.822	5134.09
665.014	5230.34
665.205	5060.36
665.397	5082.89
665.588	5078.79
665.78	5123.85
665.971	4990.73
666.163	5113.61
666.354	5013.26
666.546	4701.97
666.737	4949.77
666.929	4800.27
667.12	4919.05
667.311	4804.36
667.503	4818.7
667.694	4775.69
667.885	4697.87
668.077	4638.48
668.268	4566.8
668.459	4728.59
668.651	4587.28
668.842	4800.27
669.033	4513.55
669.224	4595.47
669.416	4554.51
669.607	4392.72
669.798	4560.66
669.989	4427.54
670.18	4448.02
670.371	4462.35
670.563	4445.97
670.754	4339.48
670.945	4392.72
671.136	4431.63
671.327	4294.42
671.518	4349.71
671.709	4271.89
671.9	4224.79
672.091	4241.17
672.282	4175.64
672.473	4245.27
672.664	4175.64
672.855	4187.93
673.046	4142.87
673.237	4134.68
673.428	4083.48
673.619	4265.75
673.809	4089.62
674	4165.4
674.191	3991.32
674.382	4036.38
674.573	3972.89
674.764	3835.67
674.954	4032.28
675.145	3991.32
675.336	3858.2
675.527	3796.76
675.717	3813.15
675.908	3901.21
676.099	3761.95
676.289	3663.65
676.48	3751.71
676.671	3858.2
676.861	3757.85
677.052	3723.04
677.243	3673.89
677.433	3776.28
677.624	3772.19
677.814	3600.16
678.005	3727.13
678.195	3761.95
678.386	3819.29
678.576	3548.96
678.767	3686.17
678.957	3585.82
679.148	3557.15
679.338	3702.56
679.529	3452.7
679.719	3802.91
679.909	3555.1
680.1	3655.45
680.29	3518.24
680.481	3456.8
680.671	3551.01
680.861	3516.19
681.052	3368.74
681.242	3354.4
681.432	3483.42
681.622	3352.35
681.813	3348.26
682.003	3352.35
682.193	3452.7
682.383	3364.64
682.573	3409.7
682.764	3311.39
682.954	3342.11
683.144	3325.73
683.334	3163.94
683.524	3290.92
683.714	3258.15
683.904	3215.14
684.094	3270.44
684.284	3272.48
684.474	3278.63
684.664	3108.65
684.854	3194.66
685.044	3278.63
685.234	3020.58
685.424	3155.75
685.614	3084.07
685.804	3155.75
685.994	3235.62
686.184	3178.28
686.374	3133.22
686.564	3034.92
686.753	3008.3
686.943	3118.89
687.133	3110.69
687.323	2979.62
687.513	3041.06
687.702	2967.34
687.892	2856.75
688.082	2991.91
688.272	2996.01
688.461	2979.62
688.651	2998.06
688.841	2885.42
689.03	2993.96
689.22	2887.47
689.41	2885.42
689.599	2885.42
689.789	2793.26
689.979	2936.62
690.168	2830.12
690.358	2744.11
690.547	2725.68
690.737	2795.31
690.926	2754.35
691.116	2670.38
691.305	2721.58
691.495	2697
691.684	2613.04
691.874	2729.77
692.063	2719.53
692.252	2770.73
692.442	2813.74
692.631	2676.52
692.82	2707.24
693.01	2672.43
693.199	2651.95
693.388	2633.52
693.578	2447.15
693.767	2596.65
693.956	2529.07
694.146	2580.27
694.335	2664.24
694.524	2524.97
694.713	2602.8
694.902	2529.07
695.092	2582.32
695.281	2584.37
695.47	2647.85
695.659	2592.56
695.848	2467.63
696.037	2600.75
696.226	2459.44
696.415	2484.02
696.604	2545.45
696.793	2453.3
696.982	2565.93
697.171	2443.06
697.36	2373.43
697.549	2447.15
697.738	2410.29
697.927	2377.52
698.116	2459.44
698.305	2389.81
698.494	2385.71
698.683	2436.91
698.872	2438.96
699.061	2490.16
699.25	2293.55
699.438	2352.95
699.627	2285.36
699.816	2408.24
700.005	2320.18
700.193	2420.53
700.382	2420.53
700.571	2340.66
700.76	2357.04
700.948	2385.71
701.137	2320.18
701.326	2273.07
701.514	2369.33
701.703	2256.69
701.892	2287.41
702.08	2404.14
702.269	2316.08
702.457	2287.41
702.646	2193.2
702.834	2189.11
703.023	2283.31
703.212	2246.45
703.4	2258.74
703.589	2383.66
703.777	2348.85
703.965	2301.75
704.154	2324.27
704.342	2240.31
704.531	2268.98
704.719	2234.16
704.907	2348.85
705.096	2158.39
705.284	2217.78
705.472	2232.12
705.661	2248.5
705.849	2281.27
706.037	2273.07
706.226	2189.11
706.414	2240.31
706.602	2275.12
706.79	2424.62
706.979	2219.83
707.167	2166.58
707.355	2258.74
707.543	2217.78
707.731	2273.07
707.919	2238.26
708.107	2211.64
708.296	2201.4
708.484	2318.13
708.672	2320.18
708.86	2232.12
709.048	2275.12
709.236	2221.88
709.424	2281.27
709.612	2289.46
709.8	2217.78
709.988	2172.72
710.176	2123.57
710.364	2266.93
710.551	2086.71
710.739	2240.31
710.927	2252.59
711.115	2238.26
711.303	2254.64
711.491	2129.72
711.679	2193.2
711.866	2230.07
712.054	2185.01
712.242	2213.68
712.43	2152.24
712.617	2248.5
712.805	2236.21
712.993	2156.34
713.181	2176.82
713.368	2162.48
713.556	2152.24
713.744	2062.13
713.931	2363.19
714.119	2096.95
714.306	2156.34
714.494	2256.69
714.682	2219.83
714.869	2176.82
715.057	2199.35
715.244	2168.63
715.432	2168.63
715.619	2070.33
715.807	2178.87
715.994	2176.82
716.182	2207.54
716.369	2111.29
716.556	2146.1
716.744	2199.35
716.931	2223.92
717.119	2154.29
717.306	2086.71
717.493	2142
717.681	2139.96
717.868	2178.87
718.055	2105.14
718.242	2115.38
718.43	2232.12
718.617	2156.34
718.804	2170.68
718.991	2201.4
719.179	2139.96
719.366	2078.52
719.553	2137.91
719.74	2107.19
719.927	2125.62
720.114	2166.58
720.301	2111.29
720.488	2111.29
720.676	2170.68
720.863	2029.37
721.05	2197.3
721.237	2156.34
721.424	2135.86
721.611	2096.95
721.798	2121.52
721.985	2008.89
722.172	2068.28
722.358	2109.24
722.545	2142
722.732	2125.62
722.919	2150.2
723.106	2049.85
723.293	2086.71
723.48	2068.28
723.667	2160.44
723.853	2176.82
724.04	2160.44
724.227	2086.71
724.414	2129.72
724.6	2139.96
724.787	2008.89
724.974	2207.54
725.161	2006.84
725.347	2045.75
725.534	2094.9
725.72	2131.76
725.907	2201.4
726.094	2142
726.28	1980.22
726.467	2080.57
726.653	2080.57
726.84	2142
727.027	2121.52
727.213	2062.13
727.4	1978.17
727.586	2094.9
727.773	2025.27
727.959	2010.93
728.145	1937.21
728.332	2142
728.518	1902.39
728.705	2043.7
728.891	2058.04
729.077	2090.81
729.264	2109.24
729.45	2008.89
729.636	2025.27
729.823	2172.72
730.009	1994.55
730.195	2107.19
730.382	2023.22
730.568	1951.54
730.754	2121.52
730.94	1980.22
731.126	1935.16
731.313	2090.81
731.499	2109.24
731.685	2060.09
731.871	2127.67
732.057	2090.81
732.243	2111.29
732.429	2125.62
732.615	1976.12
732.801	2066.23
732.987	2084.66
733.173	2064.18
733.359	2123.57
733.545	1959.74
733.731	1998.65
733.917	2023.22
734.103	1984.31
734.289	1980.22
734.475	1947.45
734.661	2074.42
734.847	1978.17
735.033	1951.54
735.219	2012.98
735.404	2049.85
735.59	1941.3
735.776	1896.25
735.962	2008.89
736.148	1959.74
736.333	2015.03
736.519	1896.25
736.705	1902.39
736.89	1924.92
737.076	1910.58
737.262	1886.01
737.447	1879.86
737.633	1873.72
737.819	2058.04
738.004	2006.84
738.19	1949.5
738.375	2039.61
738.561	1945.4
738.747	1871.67
738.932	1877.82
739.118	1902.39
739.303	1875.77
739.489	1861.43
739.674	1978.17
739.859	1855.29
740.045	2006.84
740.23	1937.21
740.416	1853.24
740.601	1855.29
740.786	1843
740.972	1877.82
741.157	1926.97
741.342	1836.86
741.528	1843
741.713	1865.53
741.898	1769.27
742.084	1738.55
742.269	1834.81
742.454	1785.66
742.639	1849.15
742.824	1769.27
743.01	1812.28
743.195	1845.05
743.38	1873.72
743.565	1763.13
743.75	1771.32
743.935	1822.52
744.12	1711.93
744.305	1775.42
744.49	1576.77
744.675	1634.11
744.86	1722.17
745.045	1744.7
745.23	1656.64
745.415	1611.58
745.6	1851.19
745.785	1681.21
745.97	1713.98
746.155	1709.88
746.34	1738.55
746.525	1683.26
746.71	1722.17
746.895	1607.48
747.079	1609.53
747.264	1515.33
747.449	1615.68
747.634	1662.78
747.819	1617.72
748.003	1552.19
748.188	1482.56
748.373	1552.19
748.557	1591.1
748.742	1539.9
748.927	1625.92
749.111	1419.07
749.296	1582.91
749.481	1527.61
749.665	1466.17
749.85	1453.89
750.034	1568.57
750.219	1331.01
750.404	1482.56
750.588	1511.23
750.773	1496.89
750.957	1462.08
751.141	1388.35
751.326	1455.94
751.51	1453.89
751.695	1492.8
751.879	1394.5
752.064	1394.5
752.248	1380.16
752.432	1388.35
752.617	1333.06
752.801	1390.4
752.985	1406.78
753.17	1376.06
753.354	1314.63
753.538	1410.88
753.722	1290.05
753.907	1234.75
754.091	1247.04
754.275	1349.44
754.459	1394.5
754.643	1201.99
754.828	1324.87
755.012	1314.63
755.196	1236.8
755.38	1183.56
755.564	1275.71
755.748	1222.47
755.932	1238.85
756.116	1257.28
756.3	1220.42
756.484	1197.89
756.668	1152.84
756.852	1206.08
757.036	1204.03
757.22	1115.97
757.404	1140.55
757.588	1115.97
757.772	1124.16
757.956	1142.6
758.14	1130.31
758.323	1120.07
758.507	1115.97
758.691	1158.98
758.875	1124.16
759.059	1099.59
759.242	1048.39
759.426	1054.53
759.61	1003.33
759.794	1048.39
759.977	1099.59
760.161	1115.97
760.345	1046.34
760.528	1118.02
760.712	976.71
760.895	1015.62
761.079	1052.49
761.263	995.14
761.446	1077.06
761.63	1042.25
761.813	1009.48
761.997	968.52
762.18	984.9
762.364	1044.29
762.547	945.99
762.731	937.8
762.914	905.03
763.098	853.83
763.281	935.75
763.464	943.94
763.648	1072.96
763.831	911.18
764.015	880.46
764.198	1005.38
764.381	884.55
764.564	945.99
764.748	962.37
764.931	993.09
765.114	905.03
765.297	864.07
765.481	870.22
765.664	874.31
765.847	862.02
766.03	829.26
766.213	890.7
766.397	945.99
766.58	907.08
766.763	890.7
766.946	833.35
767.129	905.03
767.312	853.83
767.495	907.08
767.678	862.02
767.861	894.79
768.044	859.98
768.227	902.98
768.41	866.12
768.593	890.7
768.776	796.49
768.959	851.78
769.142	937.8
769.324	771.91
769.507	870.22
769.69	771.91
769.873	800.59
770.056	896.84
770.239	864.07
770.421	827.21
770.604	812.87
770.787	845.64
770.97	816.97
771.152	927.56
771.335	784.2
771.518	821.06
771.7	880.46
771.883	857.93
772.066	782.15
772.248	780.11
772.431	782.15
772.613	788.3
772.796	733
772.978	802.63
773.161	800.59
773.343	657.23
773.526	773.96
773.708	722.76
773.891	755.53
774.073	708.43
774.256	737.1
774.438	778.06
774.621	671.56
774.803	671.56
774.985	667.47
775.168	730.95
775.35	722.76
775.532	704.33
775.715	630.6
775.897	694.09
776.079	692.04
776.261	790.35
776.444	657.23
776.626	620.36
776.808	728.91
776.99	657.23
777.173	591.69
777.355	653.13
777.537	595.79
777.719	640.84
777.901	642.89
778.083	706.38
778.265	571.21
778.447	698.19
778.629	595.79
778.811	628.56
778.993	657.23
779.175	601.93
779.357	583.5
779.539	530.25
779.721	532.3
779.903	571.21
780.085	601.93
780.267	589.64
780.449	511.82
780.631	542.54
780.812	569.16
780.994	540.49
781.176	567.12
781.358	628.56
781.54	554.83
781.721	538.45
781.903	612.17
782.085	501.58
782.267	649.04
782.448	526.16
782.63	548.68
782.812	491.34
782.993	481.1
783.175	483.15
783.357	520.01
783.538	558.92
783.72	438.09
783.901	534.35
784.083	427.85
784.264	421.71
784.446	440.14
784.627	460.62
784.809	462.67
784.99	481.1
785.172	399.18
785.353	503.63
785.535	431.95
785.716	436.05
785.897	427.85
786.079	434
786.26	405.33
786.441	450.38
786.623	370.51
786.804	536.4
786.985	384.85
787.167	429.9
787.348	395.09
787.529	436.05
787.71	466.77
787.891	423.76
788.073	382.8
788.254	321.36
788.435	427.85
788.616	477.01
788.797	419.66
788.978	339.79
789.159	378.7
789.34	333.65
789.522	325.46
789.703	331.6
789.884	415.57
790.065	354.13
790.246	423.76
790.427	374.61
790.607	372.56
790.788	372.56
790.969	317.26
791.15	307.02
791.331	368.46
791.512	309.07
791.693	319.31
791.874	401.23
792.054	341.84
792.235	329.55
792.416	431.95
792.597	280.4
792.778	339.79
792.958	317.26
793.139	393.04
793.32	315.22
793.5	333.65
793.681	325.46
793.862	298.83
794.042	304.98
794.223	194.39
794.404	333.65
794.584	302.93
794.765	321.36
794.945	317.26
795.126	286.54
795.306	360.27
795.487	302.93
795.667	282.45
795.848	300.88
796.028	327.5
796.209	313.17
796.389	298.83
796.57	237.39
796.75	264.02
796.93	333.65
797.111	218.96
797.291	272.21
797.471	284.5
797.652	282.45
797.832	266.07
798.012	345.94
798.192	311.12
798.373	241.49
798.553	280.4
798.733	255.83
798.913	257.87
799.093	231.25
799.274	184.15
799.454	280.4
799.634	208.72
799.814	315.22
799.994	239.44
800.174	243.54
800.354	194.39
800.534	319.31
800.714	274.26
800.894	268.11
801.074	235.35
801.254	311.12
801.434	239.44
801.614	208.72
801.794	233.3
801.974	653.13
802.154	208.72
802.334	249.68
802.514	198.48
802.693	302.93
802.873	173.91
803.053	241.49
803.233	239.44
803.413	223.06
803.592	200.53
803.772	225.11
803.952	239.44
804.131	180.05
804.311	231.25
804.491	155.47
804.67	165.71
804.85	202.58
805.03	208.72
805.209	350.03
805.389	290.64
805.568	153.43
805.748	157.52
805.928	241.49
806.107	237.39
806.287	214.87
806.466	272.21
806.646	122.71
806.825	161.62
807.004	196.43
807.184	169.81
807.363	188.24
807.543	186.19
807.722	225.11
807.901	223.06
808.081	229.2
808.26	145.24
808.439	190.29
808.619	161.62
808.798	145.24
808.977	204.63
809.156	130.9
809.336	169.81
809.515	173.91
809.694	132.95
809.873	153.43
810.052	157.52
810.231	212.82
810.411	143.19
810.59	206.67
810.769	210.77
810.948	182.1
811.127	178
811.306	175.95
811.485	59.22
811.664	190.29
811.843	175.95
812.022	202.58
812.201	163.67
812.38	159.57
812.559	268.11
812.737	227.15
812.916	132.95
813.095	98.13
813.274	159.57
813.453	118.61
813.632	153.43
813.811	210.77
813.989	102.23
814.168	143.19
814.347	149.33
814.526	102.23
814.704	141.14
814.883	173.91
815.062	145.24
815.24	173.91
815.419	169.81
815.598	161.62
815.776	116.56
815.955	120.66
816.133	112.47
816.312	151.38
816.49	104.28
816.669	145.24
816.847	143.19
817.026	102.23
817.204	83.8
817.383	175.95
817.561	114.52
817.74	157.52
817.918	89.94
818.097	155.47
818.275	102.23
818.453	63.32
818.632	63.32
818.81	206.67
818.988	151.38
819.167	149.33
819.345	122.71
819.523	130.9
819.701	167.76
819.879	100.18
820.058	120.66
820.236	202.58
820.414	173.91
820.592	126.8
820.77	130.9
820.948	137.04
821.127	128.85
821.305	81.75
821.483	77.65
821.661	94.04
821.839	112.47
822.017	130.9
822.195	165.71
822.373	135
822.551	108.37
822.729	102.23
822.907	149.33
823.085	159.57
823.262	157.52
823.44	149.33
823.618	79.7
823.796	91.99
823.974	112.47
824.152	108.37
824.329	26.45
824.507	53.08
824.685	100.18
824.863	55.12
825.04	110.42
825.218	137.04
825.396	14.17
825.574	108.37
825.751	173.91
825.929	130.9
826.107	116.56
826.284	65.36
826.462	114.52
826.639	108.37
826.817	67.41
826.994	112.47
827.172	118.61
827.349	137.04
827.527	171.86
827.704	40.79
827.882	79.7
828.059	94.04
828.237	67.41
828.414	159.57
828.591	83.8
828.769	83.8
828.946	98.13
829.124	94.04
829.301	141.14
829.478	71.51
829.655	163.67
829.833	135
830.01	-4.27
830.187	83.8
830.364	83.8
830.542	130.9
830.719	96.08
830.896	137.04
831.073	102.23
831.25	108.37
831.427	94.04
831.604	143.19
831.782	87.89
831.959	94.04
832.136	77.65
832.313	63.32
832.49	55.12
832.667	126.8
832.844	108.37
833.021	91.99
833.198	10.07
833.374	100.18
833.551	100.18
833.728	108.37
833.905	73.56
834.082	26.45
834.259	83.8
834.436	100.18
834.612	91.99
834.789	61.27
834.966	89.94
835.143	91.99
835.319	20.31
835.496	59.22
835.673	59.22
835.85	130.9
836.026	89.94
836.203	91.99
836.38	73.56
836.556	53.08
836.733	71.51
836.909	96.08
837.086	73.56
837.262	-0.17
837.439	85.84
837.616	100.18
837.792	67.41
837.968	28.5
838.145	-22.7
838.321	77.65
838.498	51.03
838.674	28.5
838.851	-14.51
839.027	100.18
839.203	-45.23
839.38	46.93
839.556	96.08
839.732	135
839.909	61.27
840.085	67.41
840.261	102.23
840.437	38.74
840.614	55.12
840.79	83.8
840.966	71.51
841.142	85.84
841.318	1.88
841.494	77.65
841.671	46.93
841.847	-2.22
842.023	51.03
842.199	57.17
842.375	79.7
842.551	12.12
842.727	91.99
842.903	-6.31
843.079	-12.46
843.255	83.8
843.431	85.84
843.607	114.52
843.783	-39.08
843.959	128.85
844.134	63.32
844.31	67.41
844.486	1.88
844.662	42.84
844.838	30.55
845.013	36.69
845.189	-10.41
845.365	85.84
845.541	16.21
845.716	91.99
845.892	28.5
846.068	10.07
846.244	10.07
846.419	42.84
846.595	63.32
846.77	-41.13
846.946	44.88
847.122	-16.55
847.297	10.07
847.473	102.23
847.648	-20.65
847.824	51.03
847.999	79.7
848.175	55.12
848.35	71.51
848.526	98.13
848.701	137.04
848.876	79.7
849.052	118.61
849.227	89.94
849.403	12.12
849.578	42.84
849.753	89.94
849.929	51.03
850.104	57.17
850.279	104.28
850.454	20.31
850.63	104.28
850.805	44.88
850.98	75.6
851.155	24.4
851.33	44.88
851.505	-69.8
851.681	10.07
851.856	48.98
852.031	26.45
852.206	12.12
852.381	22.36
852.556	44.88
852.731	83.8
852.906	91.99
853.081	28.5
853.256	5.97
853.431	53.08
853.606	-20.65
853.781	38.74
853.956	18.26
854.131	55.12
854.305	24.4
854.48	87.89
854.655	3.93
854.83	12.12
855.005	26.45
855.18	42.84
855.354	51.03
855.529	112.47
855.704	59.22
855.879	53.08
856.053	36.69
856.228	-10.41
856.403	-34.99
856.577	71.51
856.752	-39.08
856.926	61.27
857.101	46.93
857.276	30.55
857.45	8.02
857.625	94.04
857.799	38.74
857.974	22.36
858.148	30.55
858.323	100.18
858.497	44.88
858.672	36.69
858.846	59.22
859.02	85.84
859.195	1.88
859.369	-28.84
859.543	96.08
859.718	61.27
859.892	16.21
860.066	69.46
860.241	1.88
860.415	36.69
860.589	-8.36
860.763	-14.51
860.938	-10.41
861.112	91.99
861.286	1.88
861.46	63.32
861.634	-10.41
861.808	-4.27
861.982	79.7
862.157	36.69
862.331	28.5
862.505	-20.65
862.679	10.07
862.853	34.64
863.027	-18.6
863.201	26.45
863.375	-80.04
863.549	30.55
863.722	34.64
863.896	-2.22
864.07	59.22
864.244	46.93
864.418	79.7
864.592	1.88
864.766	51.03
864.939	24.4
865.113	1.88
865.287	42.84
865.461	20.31
865.634	83.8
865.808	16.21
865.982	-32.94
866.156	73.56
866.329	114.52
866.503	75.6
866.676	32.6
866.85	40.79
867.024	38.74
867.197	34.64
867.371	20.31
867.544	63.32
867.718	-14.51
867.891	42.84
868.065	3.93
868.238	79.7
868.412	59.22
868.585	65.36
868.759	10.07
868.932	16.21
869.105	-39.08
869.279	-26.79
869.452	34.64
869.625	67.41
869.799	46.93
869.972	-43.18
870.145	100.18
870.319	116.56
870.492	20.31
870.665	46.93
870.838	3.93
871.011	-71.85
871.185	-6.31
871.358	-28.84
871.531	3.93
871.704	-26.79
871.877	53.08
872.05	-57.51
872.223	-45.23
872.396	53.08
872.569	42.84
872.742	81.75
872.915	44.88
873.088	-12.46
873.261	-6.31
873.434	63.32
873.607	42.84
873.78	44.88
873.953	42.84
874.126	18.26
874.299	59.22
874.471	28.5
874.644	12.12
874.817	53.08
874.99	1.88
875.163	3.93
875.335	-14.51
875.508	40.79
875.681	42.84
875.853	8.02
876.026	-12.46
876.199	-14.51
876.371	55.12
876.544	36.69
876.717	42.84
876.889	20.31
877.062	83.8
877.234	63.32
877.407	-22.7
877.579	79.7
877.752	40.79
877.924	67.41
878.097	30.55
878.269	-4.27
878.442	42.84
878.614	10.07
878.786	71.51
878.959	-73.9
879.131	-14.51
879.303	-71.85
879.476	-22.7
879.648	-8.36
879.82	34.64
879.993	-18.6
880.165	1.88
880.337	-20.65
880.509	-32.94
880.681	14.17
880.854	30.55
881.026	5.97
881.198	22.36
881.37	53.08
881.542	8.02
881.714	83.8
881.886	-69.8
882.058	18.26
882.23	10.07
882.402	71.51
882.574	141.14
882.746	87.89
882.918	30.55
883.09	3.93
883.262	-4.27
883.434	10.07
883.606	-14.51
883.778	-80.04
883.95	51.03
884.122	12.12
884.293	44.88
884.465	-32.94
884.637	55.12
884.809	-4.27
884.98	42.84
885.152	5.97
885.324	12.12
885.496	-20.65
885.667	26.45
885.839	42.84
886.011	42.84
886.182	67.41
886.354	20.31
886.525	20.31
886.697	20.31
886.869	14.17
887.04	-18.6
887.212	34.64
887.383	32.6
887.555	-71.85
887.726	-51.37
887.897	57.17
888.069	10.07
888.24	10.07
888.412	-53.42
888.583	38.74
888.754	30.55
888.926	28.5
889.097	67.41
889.268	61.27
889.44	46.93
889.611	-6.31
889.782	10.07
889.953	-37.03
890.125	71.51
890.296	59.22
890.467	57.17
890.638	-12.46
890.809	26.45
890.98	30.55
891.151	28.5
891.323	1.88
891.494	20.31
891.665	22.36
891.836	79.7
892.007	-43.18
892.178	5.97
892.349	-49.32
892.52	12.12
892.691	42.84
892.862	-43.18
893.032	8.02
893.203	36.69
893.374	-26.79
893.545	-14.51
893.716	18.26
893.887	12.12
894.057	24.4
894.228	-12.46
894.399	30.55
894.57	57.17
894.74	38.74
894.911	73.56
895.082	5.97
895.253	12.12
895.423	20.31
895.594	83.8
895.764	24.4
895.935	16.21
896.106	12.12
896.276	-26.79
896.447	-14.51
896.617	10.07
896.788	-22.7
896.958	-61.61
897.129	28.5
897.299	1.88
897.47	73.56
897.64	36.69
897.81	18.26
897.981	34.64
898.151	-30.89
898.322	8.02
898.492	38.74
898.662	1.88
898.832	-22.7
899.003	51.03
899.173	83.8
899.343	30.55
899.513	-6.31
