Data from USB4F104151__4__13-10-08-389.txt Node

Date: Fri Mar 14 13:10:08 EDT 2025
User: louis
Spectrometer: USB4F10415
Trigger mode: 4
Integration Time (sec): 2.000000E-2
Scans to average: 1
Electric dark correction enabled: true
Nonlinearity correction enabled: false
Boxcar width: 0
XAxis mode: Wavelengths
Number of Pixels in Spectrum: 3648
>>>>>Begin Spectral Data<<<<<
178.204	-54.78
178.424	-54.78
178.644	-54.78
178.864	-60.93
179.084	-185.85
179.304	-15.87
179.524	27.14
179.744	-13.82
179.964	-52.74
180.184	66.05
180.404	-36.35
180.624	-46.59
180.844	-22.02
181.064	45.57
181.283	-60.93
181.503	4.61
181.723	104.96
181.943	-42.5
182.163	-5.63
182.383	-30.21
182.602	14.85
182.822	2.56
183.042	10.75
183.262	-34.3
183.482	59.9
183.701	-13.82
183.921	18.94
184.141	-24.06
184.361	-28.16
184.58	-34.3
184.8	8.7
185.02	4.61
185.239	96.77
185.459	55.81
185.679	59.9
185.898	-32.26
186.118	10.75
186.338	4.61
186.557	57.86
186.777	-44.54
186.997	51.71
187.216	-19.97
187.436	55.81
187.655	41.47
187.875	61.95
188.095	10.75
188.314	18.94
188.534	-56.83
188.753	8.7
188.973	41.47
189.192	96.77
189.412	20.99
189.631	37.38
189.851	68.09
190.07	10.75
190.29	-62.98
190.509	18.94
190.729	82.43
190.948	-42.5
191.168	92.67
191.387	59.9
191.607	8.7
191.826	20.99
192.045	-17.92
192.265	8.7
192.484	-46.59
192.704	78.33
192.923	-50.69
193.142	64
193.362	-28.16
193.581	-46.59
193.8	16.9
194.02	-32.26
194.239	66.05
194.458	35.33
194.678	51.71
194.897	18.94
195.116	45.57
195.335	-24.06
195.555	57.86
195.774	-60.93
195.993	-7.68
196.212	18.94
196.432	0.51
196.651	4.61
196.87	16.9
197.089	51.71
197.308	4.61
197.528	57.86
197.747	-44.54
197.966	51.71
198.185	23.04
198.404	-19.97
198.623	51.71
198.842	20.99
199.062	18.94
199.281	12.8
199.5	18.94
199.719	0.51
199.938	16.9
200.157	16.9
200.376	-11.78
200.595	59.9
200.814	23.04
201.033	-1.54
201.252	68.09
201.471	-30.21
201.69	59.9
201.909	53.76
202.128	14.85
202.347	35.33
202.566	-22.02
202.785	20.99
203.004	-44.54
203.223	86.53
203.442	-13.82
203.661	-19.97
203.879	-95.74
204.098	139.77
204.317	12.8
204.536	43.52
204.755	14.85
204.974	135.68
205.193	-44.54
205.411	117.25
205.63	0.51
205.849	-42.5
206.068	-3.58
206.287	25.09
206.505	41.47
206.724	49.66
206.943	4.61
207.162	-28.16
207.381	37.38
207.599	4.61
207.818	10.75
208.037	-11.78
208.255	-30.21
208.474	4.61
208.693	47.62
208.911	68.09
209.13	-1.54
209.349	14.85
209.567	-3.58
209.786	-28.16
210.005	-19.97
210.223	0.51
210.442	-13.82
210.661	47.62
210.879	2.56
211.098	12.8
211.316	-5.63
211.535	41.47
211.753	37.38
211.972	55.81
212.191	45.57
212.409	6.66
212.628	55.81
212.846	-34.3
213.065	-46.59
213.283	64
213.502	49.66
213.72	37.38
213.938	20.99
214.157	94.72
214.375	49.66
214.594	35.33
214.812	31.23
215.031	-22.02
215.249	61.95
215.467	-1.54
215.686	76.29
215.904	31.23
216.122	12.8
216.341	109.05
216.559	84.48
216.778	12.8
216.996	4.61
217.214	-36.35
217.432	-11.78
217.651	20.99
217.869	68.09
218.087	-38.4
218.306	10.75
218.524	12.8
218.742	12.8
218.96	25.09
219.179	-5.63
219.397	-15.87
219.615	6.66
219.833	18.94
220.051	-5.63
220.27	23.04
220.488	12.8
220.706	59.9
220.924	25.09
221.142	0.51
221.36	35.33
221.578	47.62
221.796	-3.58
222.015	16.9
222.233	70.14
222.451	27.14
222.669	-11.78
222.887	47.62
223.105	6.66
223.323	59.9
223.541	-13.82
223.759	2.56
223.977	-46.59
224.195	70.14
224.413	39.42
224.631	92.67
224.849	43.52
225.067	82.43
225.285	18.94
225.503	80.38
225.721	-7.68
225.939	23.04
226.157	20.99
226.375	166.4
226.592	16.9
226.81	47.62
227.028	-1.54
227.246	41.47
227.464	74.24
227.682	20.99
227.9	39.42
228.117	-9.73
228.335	4.61
228.553	-26.11
228.771	47.62
228.989	4.61
229.206	-26.11
229.424	61.95
229.642	20.99
229.86	-3.58
230.077	92.67
230.295	-11.78
230.513	-32.26
230.731	31.23
230.948	-7.68
231.166	80.38
231.384	-48.64
231.601	-9.73
231.819	10.75
232.037	-38.4
232.254	39.42
232.472	29.18
232.689	-5.63
232.907	27.14
233.125	-36.35
233.342	20.99
233.56	-52.74
233.777	10.75
233.995	-32.26
234.213	18.94
234.43	98.81
234.648	61.95
234.865	-22.02
235.083	59.9
235.3	0.51
235.518	29.18
235.735	47.62
235.953	-9.73
236.17	-13.82
236.388	29.18
236.605	4.61
236.822	-5.63
237.04	92.67
237.257	27.14
237.475	-5.63
237.692	-24.06
237.909	8.7
238.127	14.85
238.344	-9.73
238.562	47.62
238.779	23.04
238.996	33.28
239.214	35.33
239.431	35.33
239.648	-30.21
239.865	39.42
240.083	6.66
240.3	94.72
240.517	64
240.735	47.62
240.952	31.23
241.169	27.14
241.386	-44.54
241.603	41.47
241.821	-9.73
242.038	-44.54
242.255	18.94
242.472	-30.21
242.689	51.71
242.907	2.56
243.124	14.85
243.341	43.52
243.558	59.9
243.775	-13.82
243.992	-34.3
244.209	33.28
244.426	27.14
244.643	41.47
244.86	29.18
245.078	-11.78
245.295	-9.73
245.512	-3.58
245.729	-44.54
245.946	76.29
246.163	-34.3
246.38	27.14
246.597	27.14
246.814	23.04
247.031	53.76
247.248	53.76
247.464	6.66
247.681	14.85
247.898	29.18
248.115	8.7
248.332	47.62
248.549	20.99
248.766	47.62
248.983	76.29
249.2	-24.06
249.417	-5.63
249.633	6.66
249.85	20.99
250.067	-62.98
250.284	-1.54
250.501	18.94
250.717	51.71
250.934	68.09
251.151	-56.83
251.368	-19.97
251.585	16.9
251.801	72.19
252.018	-56.83
252.235	14.85
252.451	-1.54
252.668	39.42
252.885	100.86
253.102	33.28
253.318	-50.69
253.535	-3.58
253.752	-28.16
253.968	-28.16
254.185	20.99
254.401	-7.68
254.618	27.14
254.835	-30.21
255.051	82.43
255.268	45.57
255.484	-5.63
255.701	18.94
255.917	51.71
256.134	6.66
256.351	25.09
256.567	10.75
256.784	18.94
257	-13.82
257.217	10.75
257.433	6.66
257.65	23.04
257.866	-30.21
258.082	-5.63
258.299	-40.45
258.515	-42.5
258.732	-32.26
258.948	-28.16
259.165	66.05
259.381	-28.16
259.597	39.42
259.814	-11.78
260.03	80.38
260.246	150.01
260.463	45.57
260.679	41.47
260.895	-17.92
261.112	27.14
261.328	-17.92
261.544	-24.06
261.761	115.2
261.977	102.91
262.193	-9.73
262.409	59.9
262.626	-15.87
262.842	2.56
263.058	35.33
263.274	68.09
263.49	39.42
263.707	53.76
263.923	2.56
264.139	35.33
264.355	49.66
264.571	76.29
264.787	39.42
265.004	18.94
265.22	61.95
265.436	92.67
265.652	2.56
265.868	-1.54
266.084	-3.58
266.3	80.38
266.516	94.72
266.732	20.99
266.948	18.94
267.164	47.62
267.38	61.95
267.596	37.38
267.812	111.1
268.028	59.9
268.244	47.62
268.46	27.14
268.676	14.85
268.892	20.99
269.108	14.85
269.324	-5.63
269.54	-46.59
269.756	49.66
269.972	20.99
270.188	76.29
270.403	-24.06
270.619	20.99
270.835	70.14
271.051	-19.97
271.267	18.94
271.483	12.8
271.698	23.04
271.914	18.94
272.13	43.52
272.346	-3.58
272.562	43.52
272.777	82.43
272.993	55.81
273.209	64
273.425	-69.12
273.64	94.72
273.856	68.09
274.072	18.94
274.287	25.09
274.503	39.42
274.719	70.14
274.934	20.99
275.15	4.61
275.366	92.67
275.581	33.28
275.797	33.28
276.012	-19.97
276.228	20.99
276.444	39.42
276.659	6.66
276.875	8.7
277.09	43.52
277.306	-60.93
277.521	12.8
277.737	-24.06
277.952	70.14
278.168	20.99
278.383	59.9
278.599	-3.58
278.814	4.61
279.03	18.94
279.245	12.8
279.461	6.66
279.676	-9.73
279.892	18.94
280.107	-11.78
280.322	-56.83
280.538	29.18
280.753	57.86
280.969	0.51
281.184	27.14
281.399	-17.92
281.615	43.52
281.83	51.71
282.045	10.75
282.26	27.14
282.476	-22.02
282.691	72.19
282.906	-7.68
283.122	4.61
283.337	43.52
283.552	-36.35
283.767	18.94
283.983	135.68
284.198	-38.4
284.413	39.42
284.628	0.51
284.843	25.09
285.058	-13.82
285.274	-36.35
285.489	-5.63
285.704	35.33
285.919	41.47
286.134	76.29
286.349	70.14
286.564	31.23
286.779	49.66
286.995	-17.92
287.21	2.56
287.425	47.62
287.64	84.48
287.855	-26.11
288.07	-60.93
288.285	49.66
288.5	90.62
288.715	43.52
288.93	23.04
289.145	8.7
289.36	47.62
289.575	35.33
289.79	70.14
290.004	53.76
290.219	20.99
290.434	10.75
290.649	72.19
290.864	-22.02
291.079	-13.82
291.294	4.61
291.509	10.75
291.724	41.47
291.938	-5.63
292.153	47.62
292.368	53.76
292.583	104.96
292.798	-36.35
293.012	68.09
293.227	-42.5
293.442	-28.16
293.657	-13.82
293.871	37.38
294.086	4.61
294.301	51.71
294.516	96.77
294.73	59.9
294.945	20.99
295.16	4.61
295.374	76.29
295.589	20.99
295.804	37.38
296.018	-7.68
296.233	55.81
296.447	-1.54
296.662	51.71
296.877	35.33
297.091	-32.26
297.306	51.71
297.52	14.85
297.735	23.04
297.949	41.47
298.164	20.99
298.378	0.51
298.593	84.48
298.807	-38.4
299.022	0.51
299.236	107.01
299.451	6.66
299.665	-40.45
299.88	45.57
300.094	100.86
300.309	-15.87
300.523	64
300.737	23.04
300.952	-32.26
301.166	41.47
301.381	6.66
301.595	-22.02
301.809	82.43
302.024	27.14
302.238	-95.74
302.452	-7.68
302.667	-1.54
302.881	-7.68
303.095	20.99
303.309	51.71
303.524	55.81
303.738	76.29
303.952	12.8
304.166	49.66
304.381	-50.69
304.595	70.14
304.809	25.09
305.023	2.56
305.237	10.75
305.452	-13.82
305.666	43.52
305.88	47.62
306.094	72.19
306.308	10.75
306.522	33.28
306.736	18.94
306.95	18.94
307.164	-13.82
307.379	33.28
307.593	59.9
307.807	-1.54
308.021	14.85
308.235	-32.26
308.449	10.75
308.663	31.23
308.877	-5.63
309.091	-11.78
309.305	94.72
309.519	27.14
309.733	-7.68
309.947	-5.63
310.161	53.76
310.374	41.47
310.588	94.72
310.802	0.51
311.016	41.47
311.23	-36.35
311.444	0.51
311.658	-3.58
311.872	78.33
312.085	16.9
312.299	8.7
312.513	47.62
312.727	37.38
312.941	-13.82
313.154	2.56
313.368	8.7
313.582	8.7
313.796	-32.26
314.009	39.42
314.223	115.2
314.437	61.95
314.651	-1.54
314.864	14.85
315.078	14.85
315.292	12.8
315.505	96.77
315.719	92.67
315.933	-13.82
316.146	166.4
316.36	-5.63
316.573	59.9
316.787	57.86
317.001	59.9
317.214	-17.92
317.428	98.81
317.641	-30.21
317.855	4.61
318.068	76.29
318.282	33.28
318.495	18.94
318.709	49.66
318.922	25.09
319.136	53.76
319.349	49.66
319.563	45.57
319.776	29.18
319.99	92.67
320.203	70.14
320.417	41.47
320.63	37.38
320.843	59.9
321.057	12.8
321.27	68.09
321.483	66.05
321.697	59.9
321.91	31.23
322.124	-19.97
322.337	49.66
322.55	-17.92
322.763	76.29
322.977	39.42
323.19	-1.54
323.403	55.81
323.617	12.8
323.83	55.81
324.043	-1.54
324.256	-40.45
324.469	-13.82
324.683	39.42
324.896	14.85
325.109	70.14
325.322	-30.21
325.535	100.86
325.748	-9.73
325.962	49.66
326.175	53.76
326.388	84.48
326.601	12.8
326.814	39.42
327.027	53.76
327.24	76.29
327.453	43.52
327.666	-30.21
327.879	66.05
328.092	-3.58
328.305	4.61
328.518	74.24
328.731	-24.06
328.944	23.04
329.157	0.51
329.37	2.56
329.583	47.62
329.796	53.76
330.009	20.99
330.222	53.76
330.435	45.57
330.648	-1.54
330.861	39.42
331.073	96.77
331.286	66.05
331.499	0.51
331.712	-30.21
331.925	-71.17
332.138	18.94
332.35	100.86
332.563	45.57
332.776	35.33
332.989	57.86
333.202	66.05
333.414	49.66
333.627	-19.97
333.84	53.76
334.053	25.09
334.265	-58.88
334.478	102.91
334.691	18.94
334.903	96.77
335.116	-19.97
335.329	18.94
335.541	10.75
335.754	6.66
335.966	80.38
336.179	41.47
336.392	100.86
336.604	-38.4
336.817	43.52
337.029	102.91
337.242	14.85
337.454	78.33
337.667	57.86
337.88	4.61
338.092	47.62
338.305	20.99
338.517	-9.73
338.729	100.86
338.942	80.38
339.154	10.75
339.367	37.38
339.579	61.95
339.792	-15.87
340.004	90.62
340.217	59.9
340.429	41.47
340.641	-60.93
340.854	10.75
341.066	4.61
341.278	84.48
341.491	117.25
341.703	66.05
341.915	6.66
342.128	2.56
342.34	80.38
342.552	51.71
342.764	41.47
342.977	-62.98
343.189	-9.73
343.401	41.47
343.613	-9.73
343.826	47.62
344.038	-9.73
344.25	37.38
344.462	-11.78
344.674	14.85
344.886	61.95
345.099	29.18
345.311	35.33
345.523	-32.26
345.735	27.14
345.947	66.05
346.159	-15.87
346.371	94.72
346.583	35.33
346.795	72.19
347.007	-17.92
347.219	129.53
347.431	2.56
347.643	35.33
347.855	31.23
348.067	18.94
348.279	-56.83
348.491	6.66
348.703	41.47
348.915	0.51
349.127	35.33
349.339	-28.16
349.551	-48.64
349.763	35.33
349.975	-30.21
350.187	14.85
350.399	-5.63
350.61	14.85
350.822	-5.63
351.034	-9.73
351.246	72.19
351.458	-13.82
351.669	-3.58
351.881	72.19
352.093	35.33
352.305	35.33
352.517	-32.26
352.728	18.94
352.94	-3.58
353.152	-46.59
353.363	29.18
353.575	51.71
353.787	27.14
353.999	12.8
354.21	29.18
354.422	27.14
354.633	18.94
354.845	-30.21
355.057	25.09
355.268	68.09
355.48	43.52
355.692	-36.35
355.903	-30.21
356.115	27.14
356.326	23.04
356.538	78.33
356.749	90.62
356.961	59.9
357.172	23.04
357.384	-9.73
357.595	27.14
357.807	18.94
358.018	14.85
358.23	51.71
358.441	53.76
358.653	8.7
358.864	35.33
359.075	98.81
359.287	45.57
359.498	100.86
359.709	35.33
359.921	66.05
360.132	70.14
360.344	39.42
360.555	57.86
360.766	-9.73
360.977	-3.58
361.189	47.62
361.4	-38.4
361.611	37.38
361.823	61.95
362.034	23.04
362.245	37.38
362.456	-42.5
362.667	18.94
362.879	-38.4
363.09	14.85
363.301	-5.63
363.512	18.94
363.723	55.81
363.935	25.09
364.146	-5.63
364.357	39.42
364.568	49.66
364.779	12.8
364.99	37.38
365.201	27.14
365.412	64
365.623	35.33
365.834	90.62
366.045	119.29
366.256	92.67
366.467	27.14
366.678	59.9
366.889	16.9
367.1	133.63
367.311	35.33
367.522	12.8
367.733	29.18
367.944	72.19
368.155	86.53
368.366	84.48
368.577	76.29
368.788	37.38
368.999	-44.54
369.209	92.67
369.42	49.66
369.631	68.09
369.842	2.56
370.053	53.76
370.264	20.99
370.474	-26.11
370.685	27.14
370.896	41.47
371.107	88.57
371.317	78.33
371.528	66.05
371.739	41.47
371.95	-1.54
372.16	80.38
372.371	78.33
372.582	74.24
372.792	59.9
373.003	66.05
373.214	-24.06
373.424	117.25
373.635	47.62
373.846	76.29
374.056	47.62
374.267	2.56
374.477	74.24
374.688	51.71
374.898	84.48
375.109	82.43
375.319	35.33
375.53	47.62
375.74	39.42
375.951	55.81
376.161	10.75
376.372	51.71
376.582	51.71
376.793	55.81
377.003	16.9
377.214	-13.82
377.424	70.14
377.635	88.57
377.845	31.23
378.055	55.81
378.266	23.04
378.476	35.33
378.686	102.91
378.897	96.77
379.107	-5.63
379.317	-42.5
379.528	47.62
379.738	76.29
379.948	49.66
380.158	43.52
380.369	27.14
380.579	35.33
380.789	8.7
380.999	47.62
381.21	10.75
381.42	94.72
381.63	33.28
381.84	57.86
382.05	76.29
382.261	45.57
382.471	66.05
382.681	-1.54
382.891	8.7
383.101	20.99
383.311	57.86
383.521	61.95
383.731	43.52
383.941	72.19
384.151	59.9
384.361	59.9
384.571	51.71
384.781	29.18
384.991	88.57
385.201	123.39
385.411	78.33
385.621	27.14
385.831	43.52
386.041	84.48
386.251	41.47
386.461	8.7
386.671	39.42
386.881	84.48
387.091	-5.63
387.301	-19.97
387.511	20.99
387.72	53.76
387.93	6.66
388.14	-11.78
388.35	2.56
388.56	45.57
388.769	31.23
388.979	0.51
389.189	-13.82
389.399	70.14
389.609	59.9
389.818	43.52
390.028	45.57
390.238	55.81
390.447	80.38
390.657	96.77
390.867	64
391.076	-36.35
391.286	47.62
391.496	-7.68
391.705	43.52
391.915	119.29
392.125	55.81
392.334	20.99
392.544	66.05
392.753	51.71
392.963	72.19
393.172	72.19
393.382	31.23
393.591	90.62
393.801	-26.11
394.01	43.52
394.22	104.96
394.429	47.62
394.639	51.71
394.848	72.19
395.058	31.23
395.267	111.1
395.477	12.8
395.686	35.33
395.895	129.53
396.105	135.68
396.314	27.14
396.524	125.44
396.733	27.14
396.942	111.1
397.152	88.57
397.361	102.91
397.57	121.34
397.78	0.51
397.989	76.29
398.198	47.62
398.407	37.38
398.617	51.71
398.826	82.43
399.035	49.66
399.244	55.81
399.453	53.76
399.663	68.09
399.872	68.09
400.081	10.75
400.29	84.48
400.499	-1.54
400.708	51.71
400.917	16.9
401.127	68.09
401.336	59.9
401.545	201.21
401.754	61.95
401.963	88.57
402.172	113.15
402.381	92.67
402.59	111.1
402.799	158.21
403.008	86.53
403.217	115.2
403.426	127.49
403.635	123.39
403.844	84.48
404.053	64
404.262	-19.97
404.471	119.29
404.68	43.52
404.888	61.95
405.097	115.2
405.306	88.57
405.515	68.09
405.724	160.25
405.933	98.81
406.142	158.21
406.35	135.68
406.559	182.78
406.768	133.63
406.977	195.07
407.185	55.81
407.394	113.15
407.603	182.78
407.812	135.68
408.02	150.01
408.229	182.78
408.438	176.64
408.646	123.39
408.855	176.64
409.064	193.02
409.272	256.51
409.481	162.3
409.69	135.68
409.898	225.79
410.107	211.45
410.315	250.36
410.524	252.41
410.733	203.26
410.941	205.31
411.15	297.47
411.358	246.27
411.567	293.37
411.775	254.46
411.984	238.08
412.192	219.64
412.401	287.23
412.609	340.47
412.818	320
413.026	375.29
413.234	338.43
413.443	356.86
413.651	356.86
413.86	346.62
414.068	422.39
414.276	469.5
414.485	424.44
414.693	436.73
414.901	584.18
415.11	526.84
415.318	524.79
415.526	559.61
415.734	573.94
415.943	535.03
416.151	674.29
416.359	561.66
416.567	721.4
416.776	578.04
416.984	676.34
417.192	698.87
417.4	823.8
417.608	780.79
417.817	705.01
418.025	819.7
418.233	895.47
418.441	862.71
418.649	879.09
418.857	922.1
419.065	950.77
419.273	858.61
419.481	993.78
419.689	987.63
419.897	1075.7
420.105	1069.55
420.313	1094.13
420.521	1169.9
420.729	1165.81
420.937	1184.24
421.145	1282.54
421.353	1241.58
421.561	1419.75
421.769	1358.32
421.977	1485.29
422.185	1503.72
422.393	1599.98
422.601	1632.74
422.809	1675.75
423.017	1716.71
423.224	1706.47
423.432	1831.4
423.64	1765.86
423.848	1884.64
424.056	1952.23
424.263	1984.99
424.471	2150.88
424.679	2077.15
424.887	2279.9
425.094	2259.42
425.302	2292.19
425.51	2306.52
425.718	2478.55
425.925	2527.71
426.133	2705.88
426.341	2722.26
426.548	2849.24
426.756	2877.91
426.964	2853.33
427.171	2972.11
427.379	3049.94
427.586	3185.1
427.794	3183.06
428.001	3445.2
428.209	3566.03
428.417	3473.87
428.624	3764.68
428.832	3733.96
429.039	3781.06
429.247	3815.88
429.454	4114.88
429.662	4303.29
429.869	4161.98
430.076	4356.54
430.284	4221.38
430.491	4428.22
430.699	4704.7
430.906	4729.27
431.114	4858.29
431.321	4913.59
431.528	5210.54
431.736	5382.57
431.943	5583.27
432.15	5470.64
432.358	5568.94
432.565	5700.01
432.772	5796.26
432.979	6029.73
433.187	6123.94
433.394	6310.3
433.601	6640.03
433.808	6650.27
434.016	6764.95
434.223	6918.55
434.43	7330.19
434.637	7160.21
434.844	7549.32
435.052	7684.49
435.259	7573.9
435.466	7881.1
435.673	7768.46
435.88	8305.03
436.087	8628.6
436.294	8581.5
436.501	8589.69
436.708	8735.1
436.915	8952.18
437.122	9361.78
437.329	9421.17
437.537	9691.5
437.743	9736.56
437.95	9677.16
438.157	10193.25
438.364	10533.22
438.571	10412.39
438.778	10645.85
438.985	11557.2
439.192	10897.75
439.399	11497.81
439.606	11016.54
439.813	11735.37
440.02	12464.45
440.227	12116.3
440.433	12380.48
440.64	12812.6
440.847	12562.75
441.054	12775.74
441.261	13846.83
441.467	13535.54
441.674	13957.42
441.881	14258.47
442.088	14262.57
442.294	14360.87
442.501	14631.2
442.708	14922.01
442.914	15380.76
443.121	15921.42
443.328	15802.64
443.534	16689.41
443.741	16312.58
443.948	16163.08
444.154	17582.32
444.361	17180.92
444.568	17395.96
444.774	17412.34
444.981	17379.57
445.187	18010.35
445.394	19009.76
445.6	18598.12
445.807	19976.4
446.013	19579.09
446.22	19699.92
446.426	20449.48
446.633	20940.99
446.839	21405.88
447.046	20854.98
447.252	21596.34
447.459	21711.03
447.665	21717.17
447.871	22657.19
448.078	23564.44
448.284	22642.85
448.491	23251.1
448.697	24023.19
448.903	24627.34
449.11	24285.33
449.316	24248.46
449.522	24615.05
449.728	25393.28
449.935	25632.89
450.141	25319.55
450.347	26105.97
450.553	25358.46
450.76	25942.13
450.966	26304.62
451.172	26386.54
451.378	27191.39
451.584	26267.76
451.791	27056.23
451.997	26853.48
452.203	27314.27
452.409	27506.78
452.615	27715.67
452.821	26353.77
453.027	26212.46
453.233	27664.47
453.44	26556.52
453.646	26951.78
453.852	26849.38
454.058	27132
454.264	26466.41
454.47	27011.17
454.676	26447.98
454.882	27570.27
455.088	24539.27
455.294	25323.65
455.5	25704.57
455.705	25989.24
455.911	25020.55
456.117	24434.83
456.323	24492.17
456.529	23005.34
456.735	24019.09
456.941	23365.79
457.147	22732.97
457.352	22493.35
457.558	21987.5
457.764	22014.13
457.97	21561.53
458.176	21117.12
458.381	21309.63
458.587	20209.87
458.793	20412.62
458.999	19130.59
459.204	20328.65
459.41	19867.86
459.616	18426.09
459.821	18553.06
460.027	18841.82
460.233	18409.7
460.438	17307.9
460.644	17469.69
460.85	16613.63
461.055	16486.66
461.261	16271.62
461.466	15124.76
461.672	14684.45
461.878	15964.43
462.083	14788.89
462.289	14442.79
462.494	14332.2
462.7	13859.12
462.905	13300.02
463.111	13855.02
463.316	13836.59
463.522	13594.93
463.727	13898.03
463.932	13494.58
464.138	13732.14
464.343	13578.54
464.549	12994.87
464.754	13431.09
464.959	13334.84
465.165	13324.6
465.37	12773.69
465.575	12333.38
465.781	12843.32
465.986	12890.43
466.191	12452.16
466.397	12149.06
466.602	11790.67
466.807	12085.58
467.012	12306.76
467.218	12005.7
467.423	11958.6
467.628	11856.2
467.833	12308.8
468.038	11694.41
468.244	11604.3
468.449	12147.01
468.654	11620.69
468.859	11653.45
469.064	11602.25
469.269	11215.19
469.474	11254.1
469.679	11540.82
469.885	10907.99
470.09	11393.36
470.295	11032.92
470.5	10987.86
470.705	10797.4
470.91	10910.04
471.115	10531.17
471.32	11053.4
471.525	10873.18
471.73	10522.98
471.935	10367.33
472.139	10064.23
472.344	9963.88
472.549	10010.98
472.754	9990.5
472.959	9730.41
473.164	9466.22
473.369	9496.94
473.574	9888.11
473.778	9730.41
473.983	9718.12
474.188	9771.37
474.393	9009.53
474.598	9308.53
474.802	9097.59
475.007	9085.3
475.212	9091.45
475.417	8644.99
475.621	8647.04
475.826	8759.67
476.031	8561.02
476.235	8644.99
476.44	8427.9
476.645	8382.85
476.849	8395.14
477.054	8348.03
477.259	8253.83
477.463	8292.74
477.668	8147.33
477.872	8104.32
478.077	7872.9
478.282	7743.88
478.486	7784.84
478.691	7612.81
478.895	7455.12
479.1	7555.47
479.304	7537.04
479.509	7356.82
479.713	7371.15
479.918	7377.3
480.122	7256.47
480.326	7360.91
480.531	7399.82
480.735	7213.46
480.94	7039.38
481.144	7436.69
481.348	7170.45
481.553	6979.99
481.757	6926.74
481.961	7121.3
482.166	7180.69
482.37	7051.67
482.574	6973.85
482.778	7090.58
482.983	6975.89
483.187	7006.61
483.391	6867.35
483.595	6816.15
483.8	6914.45
484.004	6943.13
484.208	6934.93
484.412	7090.58
484.616	7051.67
484.821	7086.48
485.025	6799.77
485.229	7002.52
485.433	6953.37
485.637	7025.04
485.841	7080.34
486.045	7074.2
486.249	6969.75
486.453	6965.65
486.657	6887.83
486.861	6810.01
487.065	6879.64
487.269	7020.95
487.473	6805.91
487.677	6955.41
487.881	6963.61
488.085	7012.76
488.289	6971.8
488.493	6941.08
488.697	7141.78
488.901	6914.45
489.105	7145.87
489.309	7149.97
489.512	7260.56
489.716	6951.32
489.92	7053.72
490.124	7002.52
490.328	7137.68
490.531	7084.44
490.735	7188.88
490.939	7160.21
491.143	7188.88
491.346	7154.07
491.55	7289.23
491.754	7207.31
491.958	7455.12
492.161	7231.89
492.365	7408.01
492.569	7295.38
492.772	7221.65
492.976	7565.71
493.18	7629.2
493.383	7500.17
493.587	7610.76
493.79	7471.5
493.994	7362.96
494.197	7510.41
494.401	7641.48
494.605	7799.18
494.808	7801.22
495.012	7874.95
495.215	8063.36
495.419	7907.72
495.622	7956.87
495.825	7975.3
496.029	8032.65
496.232	8100.23
496.436	8352.13
496.639	8444.29
496.843	8255.87
497.046	8493.44
497.249	8710.52
497.453	8589.69
497.656	8755.58
497.859	8771.96
498.063	9021.81
498.266	8954.23
498.469	9097.59
498.673	8972.66
498.876	9193.84
499.079	9365.87
499.282	9437.55
499.485	9455.98
499.689	9607.53
499.892	9654.64
500.095	9533.81
500.298	9869.67
500.501	9791.85
500.705	10004.84
500.908	10097
501.111	10176.87
501.314	10381.67
501.517	10574.17
501.72	10705.24
501.923	10707.29
502.126	11067.74
502.329	11123.03
502.532	10965.34
502.735	11092.31
502.938	11295.06
503.141	11544.91
503.344	11929.93
503.547	11661.65
503.75	12007.75
503.953	11991.37
504.156	12169.54
504.359	12134.73
504.562	12472.64
504.765	12699.97
504.968	12587.33
505.17	12912.95
505.373	12728.64
505.576	13091.13
505.779	13148.47
505.982	13127.99
506.185	13611.31
506.387	13578.54
506.59	13990.19
506.793	13850.92
506.996	13785.39
507.198	14229.8
507.401	14172.46
507.604	14326.05
507.807	14547.23
508.009	14547.23
508.212	14772.51
508.415	15051.03
508.617	15585.55
508.82	15423.76
509.022	15249.69
509.225	15399.19
509.428	15814.93
509.63	15759.63
509.833	16064.78
510.035	16281.86
510.238	16384.26
510.44	16455.94
510.643	16763.14
510.845	16824.58
511.048	16814.34
511.25	17015.04
511.453	17301.75
511.655	17664.24
511.858	17522.93
512.06	17760.5
512.262	17961.2
512.465	17787.12
512.667	18278.63
512.87	18430.18
513.072	18469.09
513.274	18823.39
513.477	18870.5
513.679	19267.8
513.881	19200.22
514.084	19353.82
514.286	19226.84
514.488	19835.09
514.69	20060.37
514.893	20349.13
515.095	20373.71
515.297	20551.88
515.499	20818.11
515.701	20998.34
515.904	21094.59
516.106	21342.39
516.308	21618.87
516.51	21596.34
516.712	21516.47
516.914	22110.38
517.116	22448.3
517.318	22272.17
517.52	22622.37
517.722	22589.61
517.925	22626.47
518.127	23187.61
518.329	23367.84
518.531	23156.89
518.733	23928.98
518.935	23992.47
519.136	24064.14
519.338	24541.32
519.54	24414.35
519.742	24543.37
519.944	24778.89
520.146	25387.13
520.348	25243.77
520.55	25395.32
520.752	25657.46
520.954	25763.96
521.155	26038.39
521.357	26263.66
521.559	26290.29
521.761	26812.52
521.963	26699.88
522.164	27166.82
522.366	26882.15
522.568	27146.34
522.77	27117.67
522.971	27879.51
523.173	27754.58
523.375	27818.07
523.576	27832.41
523.778	28067.92
523.98	28340.3
524.181	28475.47
524.383	28395.6
524.584	29106.24
524.786	28837.96
524.988	28778.57
525.189	29356.1
525.391	29317.18
525.592	29528.13
525.794	29356.1
525.995	29515.84
526.197	29833.27
526.398	30146.61
526.6	30111.8
526.801	29984.82
527.003	30607.4
527.204	29995.06
527.406	30922.79
527.607	30539.82
527.808	30691.37
528.01	30167.09
528.211	30892.07
528.412	31365.15
528.614	31137.83
528.815	31135.78
529.016	31281.19
529.218	31424.54
529.419	31338.53
529.62	31324.19
529.822	31221.8
530.023	31500.32
530.224	31291.43
530.425	31623.2
530.626	31479.84
530.828	31348.77
531.029	32299.03
531.23	31674.4
531.431	31701.02
531.632	31969.3
531.833	32325.65
532.035	31916.06
532.236	32483.34
532.437	32268.31
532.638	31907.87
532.839	32151.57
533.04	32339.99
533.241	31936.54
533.442	32331.79
533.643	32374.8
533.844	32063.51
534.045	32401.43
534.246	32069.65
534.447	32389.14
534.648	32503.82
534.849	32471.06
535.05	32006.17
535.251	32360.47
535.451	32296.98
535.652	32362.51
535.853	32606.22
536.054	32339.99
536.255	32565.26
536.456	32413.71
536.657	32874.51
536.857	32440.34
537.058	32249.88
537.259	32661.52
537.46	32610.32
537.66	32555.02
537.861	32397.33
538.062	32286.74
538.263	32833.55
538.463	32473.1
538.664	32182.29
538.865	32421.91
539.065	32763.92
539.266	32350.23
539.466	33032.2
539.667	31862.81
539.868	33161.22
540.068	32727.05
540.269	32397.33
540.469	32919.56
540.67	32682
540.87	32481.3
541.071	32387.09
541.271	32747.53
541.472	32210.96
541.672	32569.36
541.873	32466.96
542.073	31868.95
542.274	32643.09
542.474	32557.07
542.675	32071.7
542.875	32651.28
543.075	32704.52
543.276	31821.85
543.476	32608.27
543.676	32581.65
543.877	32571.41
544.077	32426
544.277	32573.45
544.478	32436.24
544.678	32471.06
544.878	32192.53
545.078	32563.22
545.279	32438.29
545.479	32450.58
545.679	32256.02
545.879	32231.44
546.079	32448.53
546.28	32124.95
546.48	32163.86
546.68	32559.12
546.88	32403.47
547.08	32395.28
547.28	32133.14
547.48	31844.38
547.68	32272.4
547.88	31686.68
548.081	32178.2
548.281	32313.36
548.481	32450.58
548.681	32440.34
548.881	32368.66
549.081	32153.62
549.28	32114.71
549.48	31989.78
549.68	32172.05
549.88	32444.43
550.08	31911.96
550.28	32098.33
550.48	32387.09
550.68	32278.55
550.88	32321.55
551.08	31873.05
551.279	32231.44
551.479	32237.59
551.679	32235.54
551.879	32073.75
552.079	32434.19
552.278	32139.29
552.478	32550.93
552.678	31813.66
552.878	32198.68
553.077	31789.08
553.277	31916.06
553.477	32497.68
553.676	31975.45
553.876	32317.46
554.076	31895.58
554.275	31692.83
554.475	31705.12
554.674	32038.94
554.874	32057.37
555.074	31881.24
555.273	31926.3
555.473	31778.84
555.672	31715.36
555.872	31803.42
556.071	31832.09
556.271	32251.92
556.47	31557.66
556.67	31600.67
556.869	31619.1
557.068	31541.28
557.268	31182.88
557.467	31445.02
557.667	31488.03
557.866	31676.44
558.065	31324.19
558.265	31547.42
558.464	31490.08
558.663	31447.07
558.863	30941.22
559.062	31402.02
559.261	31135.78
559.461	31594.53
559.66	30847.02
559.859	31082.53
560.058	30728.24
560.258	31070.25
560.457	30879.78
560.656	31047.72
560.855	30705.71
561.054	31090.73
561.253	30797.87
561.453	30736.43
561.652	30482.48
561.851	30838.83
562.05	30474.29
562.249	30189.62
562.448	30769.19
562.647	30654.51
562.846	30545.97
563.045	30347.31
563.244	30169.14
563.443	30527.53
563.642	29909.05
563.841	30074.93
564.04	29904.95
564.239	30554.16
564.438	29841.46
564.637	29995.06
564.836	30111.8
565.035	29380.67
565.234	29794.36
565.432	29462.59
565.631	29397.06
565.83	29499.45
566.029	29595.71
566.228	29268.03
566.427	29526.08
566.625	29308.99
566.824	29104.2
567.023	29700.15
567.222	28551.24
567.42	29657.15
567.619	29208.64
567.818	29255.75
568.016	28792.9
568.215	29356.1
568.414	28559.44
568.612	29102.15
568.811	28827.72
569.01	28584.01
569.208	27895.89
569.407	28420.17
569.605	28143.7
569.804	28432.46
570.002	28151.89
570.201	28522.57
570.4	28239.95
570.598	27992.15
570.797	28117.07
570.995	28000.34
571.193	27607.13
571.392	28020.82
571.59	27807.83
571.789	27680.86
571.987	27674.71
572.186	27568.22
572.384	27672.67
572.582	27451.49
572.781	27478.11
572.979	27009.12
573.177	27621.47
573.376	27189.35
573.574	26912.87
573.772	26953.83
573.971	27160.67
574.169	26898.53
574.367	26976.36
574.565	26925.16
574.763	26691.69
574.962	26562.67
575.16	26439.79
575.358	26488.94
575.556	26112.11
575.754	26642.54
575.952	26241.14
576.151	26591.34
576.349	26083.44
576.547	26013.81
576.745	26243.18
576.943	26318.96
577.141	25852.02
577.339	25890.93
577.537	25630.84
577.735	25798.77
577.933	25532.54
578.131	25827.45
578.329	25174.14
578.527	25639.03
578.725	25583.74
578.923	25458.81
579.121	25348.22
579.319	25067.65
579.516	25135.23
579.714	25297.02
579.912	24854.66
580.11	24787.08
580.308	24782.98
580.506	24830.09
580.704	24516.75
580.901	24848.52
581.099	25124.99
581.297	24131.73
581.495	24543.37
581.692	24357
581.89	24359.05
582.088	24619.14
582.285	24074.38
582.483	24469.64
582.681	24246.41
582.878	23859.35
583.076	24275.09
583.274	23859.35
583.471	23627.93
583.669	23828.63
583.866	23677.08
584.064	23769.24
584.262	23443.61
584.459	23691.41
584.657	23468.19
584.854	23658.65
585.052	23326.88
585.249	23312.54
585.447	23472.28
585.644	23371.93
585.841	23474.33
586.039	23322.78
586.236	22884.51
586.434	23126.18
586.631	22925.47
586.828	22931.62
587.026	22460.59
587.223	22950.05
587.42	22646.95
587.618	22597.8
587.815	22427.82
588.012	22433.96
588.21	22429.87
588.407	22616.23
588.604	22169.77
588.801	22231.21
588.999	22421.67
589.196	22104.24
589.393	21999.79
589.59	22202.54
589.787	21960.88
589.984	21985.46
590.182	21495.99
590.379	21590.2
590.576	21629.11
590.773	21412.03
590.97	21625.01
591.167	21749.94
591.364	21186.75
591.561	21452.98
591.758	21121.21
591.955	21473.46
592.152	21188.8
592.349	20897.99
592.546	21067.97
592.743	21004.48
592.94	20881.6
593.137	20955.33
593.334	21098.69
593.531	20525.25
593.727	20660.42
593.924	20517.06
594.121	20703.43
594.318	20527.3
594.515	20041.93
594.712	20543.69
594.908	20267.21
595.105	20205.77
595.302	20058.32
595.499	20097.23
595.696	20310.22
595.892	19906.77
596.089	19986.64
596.286	20017.36
596.482	20080.85
596.679	19951.82
596.876	19945.68
597.072	19704.02
597.269	19695.83
597.466	19292.38
597.662	19597.52
597.859	19347.67
598.055	19394.78
598.252	19370.2
598.448	19392.73
598.645	19372.25
598.841	18931.94
599.038	19407.06
599.234	19149.02
599.431	18981.09
599.627	19058.91
599.824	18938.08
600.02	19001.57
600.217	19136.73
600.413	18706.66
600.609	18782.43
600.806	18643.17
601.002	18575.59
601.198	18538.73
601.395	18469.09
601.591	18383.08
601.787	18446.57
601.984	18342.12
602.18	18526.44
602.376	18315.5
602.572	18043.12
602.769	18172.14
602.965	18034.92
603.161	17889.52
603.357	17764.59
603.553	17881.33
603.75	17942.77
603.946	17658.1
604.142	17926.38
604.338	17639.67
604.534	17813.74
604.73	17441.01
604.926	17611
605.122	17637.62
605.318	17459.45
605.514	17371.38
605.71	17279.22
605.906	17248.5
606.102	17168.63
606.298	17387.77
606.494	16935.17
606.69	17191.16
606.886	17099
607.082	16879.87
607.278	17127.67
607.474	16840.96
607.67	16830.72
607.866	16767.23
608.062	16791.81
608.257	16650.5
608.453	16437.51
608.649	16759.04
608.845	16695.55
609.041	16656.64
609.236	16771.33
609.432	16447.75
609.628	16552.2
609.824	16374.02
610.019	16562.44
610.215	16507.14
610.411	16486.66
610.606	16447.75
610.802	16247.05
610.998	16386.31
611.193	16333.06
611.389	16212.23
611.584	16208.14
611.78	15900.94
611.976	16089.35
612.171	16042.25
612.367	16152.84
612.562	16075.02
612.758	15743.25
612.953	15859.98
613.149	16058.63
613.344	15534.35
613.539	16029.96
613.735	15898.89
613.93	15706.38
614.126	15628.56
614.321	15685.9
614.517	15517.97
614.712	15497.49
614.907	15702.29
615.103	15612.18
615.298	15210.78
615.493	15913.23
615.688	15284.5
615.884	15577.36
616.079	15286.55
616.274	15327.51
616.47	15288.6
616.665	15231.26
616.86	15323.41
617.055	15071.51
617.25	15233.3
617.445	15345.94
617.641	14807.33
617.836	15173.91
618.031	15124.76
618.226	15245.59
618.421	14899.48
618.616	15083.8
618.811	14588.19
619.006	14813.47
619.201	14627.1
619.396	14788.89
619.591	14526.75
619.786	14813.47
619.981	14442.79
620.176	14749.98
620.371	14461.22
620.566	14467.36
620.761	14231.85
620.956	14367.01
621.151	14127.4
621.346	14104.87
621.541	14160.17
621.735	14276.9
621.93	13617.46
622.125	13879.6
622.32	13586.74
622.515	13629.74
622.709	13701.42
622.904	13570.35
623.099	13744.43
623.294	13547.83
623.488	13441.33
623.683	13394.23
623.878	13138.23
624.072	13322.55
624.267	13101.37
624.462	12849.47
624.656	12818.75
624.851	12994.87
625.046	12663.1
625.24	12654.91
625.435	12601.66
625.629	12728.64
625.824	12640.58
626.018	12517.7
626.213	12362.05
626.407	12388.67
626.602	12181.83
626.796	12292.42
626.991	12280.13
627.185	12097.86
627.38	12095.82
627.574	11960.65
627.768	11938.12
627.963	11856.2
628.157	11680.08
628.352	11790.67
628.546	11524.43
628.74	11501.9
628.935	11407.7
629.129	11514.19
629.323	11313.49
629.517	11364.69
629.712	11526.48
629.906	11110.74
630.1	11168.09
630.294	10989.91
630.489	11254.1
630.683	11284.82
630.877	10799.45
631.071	10971.48
631.265	10910.04
631.459	10735.96
631.653	10785.12
631.848	10766.68
632.042	10486.11
632.236	10631.52
632.43	10303.84
632.624	10365.28
632.818	10422.62
633.012	10269.03
633.206	10195.3
633.4	10170.72
633.594	10162.53
633.788	10135.91
633.982	10092.9
634.176	10047.85
634.369	10137.96
634.563	9859.43
634.757	9800.04
634.951	10082.66
635.145	9947.5
635.339	9793.9
635.533	9744.75
635.726	9513.33
635.92	9611.63
636.114	9562.48
636.308	9699.69
636.501	9531.76
636.695	9578.86
636.889	9365.87
637.083	9232.76
637.276	9154.93
637.47	9247.09
637.664	9079.16
637.857	9292.15
638.051	9193.84
638.244	8769.91
638.438	9034.1
638.632	8845.69
638.825	8900.98
639.019	8780.15
639.212	8737.15
639.406	8870.26
639.599	8583.55
639.793	8587.64
639.986	8444.29
640.18	8522.11
640.373	8417.66
640.567	8505.73
640.76	8477.05
640.954	8161.67
641.147	8487.29
641.34	8378.75
641.534	8178.05
641.727	8309.12
641.92	8161.67
642.114	8145.28
642.307	8137.09
642.5	8075.65
642.694	7907.72
642.887	7866.76
643.08	8071.56
643.273	7950.73
643.467	7793.03
643.66	7747.98
643.853	7588.24
644.046	7655.82
644.239	7707.02
644.432	7590.28
644.626	7244.18
644.819	7590.28
645.012	7557.52
645.205	7471.5
645.398	7344.53
645.591	7369.1
645.784	7252.37
645.977	7244.18
646.17	7299.47
646.363	7109.01
646.556	7068.05
646.749	7180.69
646.942	7192.98
647.135	7018.9
647.328	7059.86
647.521	7039.38
647.714	6982.04
647.907	6908.31
648.099	6744.47
648.292	6924.69
648.485	6826.39
648.678	6699.42
648.871	6797.72
649.064	6590.88
649.256	6648.22
649.449	6570.4
649.642	6664.6
649.835	6486.43
650.027	6515.1
650.22	6449.57
650.413	6568.35
650.605	6287.78
650.798	6300.06
650.991	6291.87
651.183	6402.46
651.376	6302.11
651.568	6322.59
651.761	6042.02
651.954	6166.95
652.146	6101.41
652.339	6189.47
652.531	6033.83
652.724	5976.48
652.916	5992.87
653.109	6050.21
653.301	5947.81
653.494	6113.7
653.686	5757.35
653.879	5898.66
654.071	5804.46
654.263	5915.05
654.456	5728.68
654.648	5898.66
654.84	5720.49
655.033	5704.1
655.225	5751.21
655.417	5671.34
655.61	5648.81
655.802	5575.08
655.994	5560.75
656.186	5681.58
656.379	5546.41
656.571	5470.64
656.763	5403.05
656.955	5282.22
657.148	5419.44
657.34	5249.46
657.532	5102
657.724	5245.36
657.916	5288.37
658.108	5067.19
658.3	5108.15
658.492	5147.06
658.684	5040.56
658.876	5224.88
659.068	5147.06
659.26	4766.14
659.452	5122.48
659.644	4987.32
659.836	4917.68
660.028	4915.64
660.22	4893.11
660.412	4903.35
660.604	4827.57
660.796	4729.27
660.988	4843.96
661.18	4659.64
661.372	4731.32
661.563	4583.87
661.755	4716.98
661.947	4721.08
662.139	4647.35
662.331	4696.5
662.522	4569.53
662.714	4467.13
662.906	4377.02
663.097	4684.22
663.289	4397.5
663.481	4458.94
663.673	4592.06
663.864	4499.9
664.056	4379.07
664.247	4407.74
664.439	4452.8
664.631	4196.8
664.822	4479.42
665.014	4358.59
665.205	4233.66
665.397	4288.96
665.588	4204.99
665.78	4194.75
665.971	4104.64
666.163	4190.66
666.354	4084.16
666.546	4129.22
666.737	4022.72
666.929	4100.55
667.12	4090.31
667.311	3992
667.503	4059.59
667.694	3893.7
667.885	3903.94
668.077	3955.14
668.268	3764.68
668.459	3860.93
668.651	3893.7
668.842	3797.45
669.033	3801.54
669.224	3770.82
669.416	3742.15
669.607	3789.25
669.798	3680.71
669.989	3824.07
670.18	3707.34
670.371	3693
670.563	3502.54
670.754	3731.91
670.945	3658.18
671.136	3721.67
671.327	3705.29
671.518	3523.02
671.709	3561.93
671.9	3525.07
672.091	3492.3
672.282	3652.04
672.473	3506.63
672.664	3416.52
672.855	3531.21
673.046	3398.09
673.237	3461.58
673.428	3441.1
673.619	3338.7
673.809	3363.28
674	3226.06
674.191	3426.76
674.382	3424.72
674.573	3248.59
674.764	3344.84
674.954	3275.21
675.145	3209.68
675.336	3226.06
675.527	3127.76
675.717	3193.3
675.908	3189.2
676.099	3133.9
676.289	3168.72
676.48	3185.1
676.671	3109.33
676.861	3191.25
677.052	3092.94
677.243	3051.99
677.433	3142.1
677.624	3113.42
677.814	3101.14
678.005	3013.07
678.195	3068.37
678.386	2961.87
678.576	3138
678.767	2865.62
678.957	2877.91
679.148	3056.08
679.338	2943.44
679.529	2929.11
679.719	2908.63
679.909	2832.85
680.1	2795.99
680.29	2884.05
680.481	2761.17
680.671	2914.77
680.861	2795.99
681.052	2791.89
681.242	2714.07
681.432	2759.13
681.622	2781.65
681.813	2701.78
682.003	2740.69
682.193	2736.6
682.383	2732.5
682.573	2705.88
682.764	2685.4
682.954	2718.17
683.144	2738.65
683.334	2601.43
683.524	2662.87
683.714	2611.67
683.904	2646.49
684.094	2617.82
684.284	2611.67
684.474	2632.15
684.664	2640.34
684.854	2650.58
685.044	2486.75
685.234	2652.63
685.424	2517.47
685.614	2546.14
685.804	2548.19
685.994	2587.1
686.184	2517.47
686.374	2484.7
686.564	2425.31
686.753	2427.35
686.943	2525.66
687.133	2453.98
687.323	2492.89
687.513	2546.14
687.702	2419.16
687.892	2310.62
688.082	2355.68
688.272	2415.07
688.461	2290.14
688.651	2400.73
688.841	2265.57
689.03	2439.64
689.22	2458.07
689.41	2238.94
689.599	2384.35
689.789	2343.39
689.979	2386.4
690.168	2331.1
690.358	2312.67
690.547	2245.09
690.737	2310.62
690.926	2204.13
691.116	2179.55
691.305	2259.42
691.495	2159.07
691.684	2222.56
691.874	2275.81
692.063	2081.25
692.252	2146.78
692.442	1991.14
692.631	2193.89
692.82	2017.76
693.01	2148.83
693.199	2087.39
693.388	2097.63
693.578	2044.38
693.767	2134.5
693.956	2091.49
694.146	2107.87
694.335	2015.71
694.524	2109.92
694.713	2134.5
694.902	2087.39
695.092	1948.13
695.281	2087.39
695.47	1954.27
695.659	2034.14
695.848	2003.43
696.037	2005.47
696.226	2019.81
696.415	1929.7
696.604	2097.63
696.793	2036.19
696.982	2032.1
697.171	2114.02
697.36	1954.27
697.549	2083.3
697.738	1964.51
697.927	2001.38
698.116	1776.1
698.305	1984.99
698.494	2042.34
698.683	1948.13
698.872	1913.31
699.061	1952.23
699.25	1970.66
699.438	1997.28
699.627	2019.81
699.816	1927.65
700.005	1905.12
700.193	1858.02
700.382	1976.8
700.571	1911.27
700.76	1880.55
700.948	2034.14
701.137	1896.93
701.326	1911.27
701.514	1829.35
701.703	1935.84
701.892	1919.46
702.08	2028
702.269	1905.12
702.457	1833.44
702.646	2030.05
702.834	1886.69
703.023	1937.89
703.212	1888.74
703.4	1952.23
703.589	1806.82
703.777	1929.7
703.965	1868.26
704.154	1866.21
704.342	1944.03
704.531	1896.93
704.719	1941.99
704.907	1927.65
705.096	1804.77
705.284	1874.4
705.472	1948.13
705.661	1894.88
705.849	1921.51
706.037	1896.93
706.226	1888.74
706.414	1855.97
706.602	1823.2
706.79	1878.5
706.979	1862.12
707.167	1845.73
707.355	1839.59
707.543	1882.6
707.731	1923.55
707.919	1829.35
708.107	1903.07
708.296	1882.6
708.484	1763.81
708.672	1937.89
708.86	1890.79
709.048	1776.1
709.236	1952.23
709.424	1810.92
709.612	1741.29
709.8	1808.87
709.988	1925.6
710.176	1802.72
710.364	1933.79
710.551	1847.78
710.739	1843.68
710.927	1798.63
711.115	1741.29
711.303	1862.12
711.491	1827.3
711.679	1847.78
711.866	1909.22
712.054	1845.73
712.242	1741.29
712.43	1907.17
712.617	1882.6
712.805	1829.35
712.993	1761.77
713.181	1870.31
713.368	1845.73
713.556	1847.78
713.744	1829.35
713.931	1890.79
714.119	1921.51
714.306	1812.96
714.494	1870.31
714.682	1808.87
714.869	1845.73
715.057	1858.02
715.244	1788.39
715.432	1862.12
715.619	1735.14
715.807	1882.6
715.994	1735.14
716.182	1759.72
716.369	1794.53
716.556	1774.05
716.744	1806.82
716.931	1847.78
717.119	1741.29
717.306	1894.88
717.493	1845.73
717.681	1849.83
717.868	1876.45
718.055	1769.96
718.242	1845.73
718.43	1843.68
718.617	1751.53
718.804	1870.31
718.991	1819.11
719.179	1833.44
719.366	1872.36
719.553	1763.81
719.74	1796.58
719.927	1731.05
720.114	1800.68
720.301	1681.89
720.488	1825.25
720.676	1749.48
720.863	1731.05
721.05	1733.09
721.237	1837.54
721.424	1841.64
721.611	1733.09
721.798	1743.33
721.985	1786.34
722.172	1780.2
722.358	1763.81
722.545	1913.31
722.732	1815.01
722.919	1845.73
723.106	1810.92
723.293	1708.52
723.48	1749.48
723.667	1806.82
723.853	1653.22
724.04	1716.71
724.227	1837.54
724.414	1837.54
724.6	1823.2
724.787	1845.73
724.974	1708.52
725.161	1769.96
725.347	1714.66
725.534	1964.51
725.72	1669.61
725.907	1731.05
726.094	1751.53
726.28	1716.71
726.467	1704.42
726.653	1749.48
726.84	1739.24
727.027	1729
727.213	1690.09
727.4	1786.34
727.586	1741.29
727.773	1645.03
727.959	1722.85
728.145	1675.75
728.332	1702.37
728.518	1708.52
728.705	1823.2
728.891	1747.43
729.077	1614.31
729.264	1741.29
729.45	1720.81
729.636	1722.85
729.823	1638.89
730.009	1788.39
730.195	1737.19
730.382	1610.22
730.568	1690.09
730.754	1722.85
730.94	1690.09
731.126	1616.36
731.313	1716.71
731.499	1710.57
731.685	1679.85
731.871	1704.42
732.057	1722.85
732.243	1657.32
732.429	1665.51
732.615	1569.26
732.801	1657.32
732.987	1589.74
733.173	1630.7
733.359	1681.89
733.545	1636.84
733.731	1645.03
733.917	1651.17
734.103	1624.55
734.289	1681.89
734.475	1589.74
734.661	1583.59
734.847	1618.41
735.033	1677.8
735.219	1473
735.404	1669.61
735.59	1571.3
735.776	1599.98
735.962	1690.09
736.148	1653.22
736.333	1616.36
736.519	1622.5
736.705	1556.97
736.89	1577.45
737.076	1640.93
737.262	1554.92
737.447	1587.69
737.633	1585.64
737.819	1565.16
738.004	1599.98
738.19	1569.26
738.375	1516.01
738.561	1575.4
738.747	1499.63
738.932	1493.48
739.118	1540.58
739.303	1460.71
739.489	1546.73
739.674	1479.15
739.859	1456.62
740.045	1495.53
740.23	1563.11
740.416	1495.53
740.601	1401.32
740.786	1425.9
740.972	1520.1
741.157	1399.27
741.342	1429.99
741.528	1446.38
741.713	1509.86
741.898	1436.14
742.084	1436.14
742.269	1460.71
742.454	1509.86
742.639	1415.66
742.824	1391.08
743.01	1401.32
743.195	1389.03
743.38	1319.4
743.565	1407.47
743.75	1313.26
743.935	1432.04
744.12	1288.68
744.305	1397.23
744.49	1436.14
744.675	1337.84
744.86	1296.88
745.045	1296.88
745.23	1290.73
745.415	1286.64
745.6	1370.6
745.785	1321.45
745.97	1436.14
746.155	1311.21
746.34	1253.87
746.525	1354.22
746.71	1300.97
746.895	1200.62
747.079	1202.67
747.264	1180.14
747.449	1253.87
747.634	1280.49
747.819	1241.58
748.003	1233.39
748.188	1208.81
748.373	1223.15
748.557	1198.57
748.742	1143.28
748.927	1219.05
749.111	1192.43
749.296	1167.85
749.481	1210.86
749.665	1227.25
749.85	1178.09
750.034	1208.81
750.219	1194.48
750.404	1092.08
750.588	1167.85
750.773	1145.33
750.957	1151.47
751.141	1075.7
751.326	1120.75
751.51	1059.31
751.695	1044.98
751.879	1180.14
752.064	1071.6
752.248	1130.99
752.432	1075.7
752.617	1143.28
752.801	1030.64
752.985	1047.02
753.17	1012.21
753.354	1055.22
753.538	1034.74
753.722	1075.7
753.907	1116.65
754.091	942.58
754.275	993.78
754.459	1006.06
754.643	948.72
754.828	999.92
755.012	1010.16
755.196	924.15
755.38	940.53
755.564	1036.78
755.748	932.34
755.932	1044.98
756.116	920.05
756.3	991.73
756.484	958.96
756.668	864.75
756.852	846.32
757.036	944.63
757.22	791.03
757.404	922.1
757.588	920.05
757.772	852.47
757.956	944.63
758.14	920.05
758.323	809.46
758.507	915.95
758.691	834.04
758.875	854.51
759.059	825.84
759.242	842.23
759.426	864.75
759.61	764.4
759.794	831.99
759.977	952.82
760.161	864.75
760.345	834.04
760.528	850.42
760.712	831.99
760.895	911.86
761.079	791.03
761.263	834.04
761.446	741.88
761.63	690.68
761.813	768.5
761.997	805.36
762.18	752.12
762.364	680.44
762.547	717.3
762.731	741.88
762.914	821.75
763.098	770.55
763.281	748.02
763.464	743.92
763.648	752.12
763.831	739.83
764.015	776.69
764.198	788.98
764.381	803.32
764.564	754.16
764.748	795.12
764.931	795.12
765.114	688.63
765.297	758.26
765.481	676.34
765.664	813.56
765.847	705.01
766.03	756.21
766.213	727.54
766.397	741.88
766.58	698.87
766.763	782.84
766.946	655.86
767.129	731.64
767.312	717.3
767.495	651.77
767.678	688.63
767.861	723.44
768.044	659.96
768.227	717.3
768.41	756.21
768.593	748.02
768.776	731.64
768.959	688.63
769.142	707.06
769.324	731.64
769.507	625.14
769.69	582.14
769.873	604.66
770.056	700.92
770.239	711.16
770.421	649.72
770.604	709.11
770.787	723.44
770.97	707.06
771.152	608.76
771.335	662.01
771.518	657.91
771.7	674.29
771.883	627.19
772.066	567.8
772.248	750.07
772.431	645.62
772.613	692.73
772.796	621.05
772.978	645.62
773.161	645.62
773.343	604.66
773.526	563.7
773.708	575.99
773.891	471.54
774.073	547.32
774.256	571.9
774.438	637.43
774.621	487.93
774.803	612.85
774.985	604.66
775.168	657.91
775.35	535.03
775.532	649.72
775.715	555.51
775.897	551.42
776.079	575.99
776.261	676.34
776.444	543.22
776.626	549.37
776.808	604.66
776.99	604.66
777.173	633.33
777.355	559.61
777.537	528.89
777.719	526.84
777.901	584.18
778.083	535.03
778.265	446.97
778.447	563.7
778.629	451.07
778.811	494.07
778.993	455.16
779.175	510.46
779.357	506.36
779.539	430.59
779.721	535.03
779.903	432.63
780.085	477.69
780.267	479.74
780.449	504.31
780.631	496.12
780.812	528.89
780.994	516.6
781.176	399.87
781.358	451.07
781.54	446.97
781.721	512.5
781.903	492.02
782.085	440.83
782.267	500.22
782.448	424.44
782.63	537.08
782.812	496.12
782.993	379.39
783.175	432.63
783.357	446.97
783.538	420.35
783.72	416.25
783.901	403.96
784.083	436.73
784.264	414.2
784.446	354.81
784.627	391.67
784.809	436.73
784.99	408.06
785.172	303.61
785.353	295.42
785.535	309.76
785.716	303.61
785.897	344.57
786.079	453.11
786.26	371.19
786.441	414.2
786.623	375.29
786.804	332.28
786.985	350.71
787.167	406.01
787.348	305.66
787.529	348.67
787.71	424.44
787.891	358.91
788.073	358.91
788.254	320
788.435	291.32
788.616	328.19
788.797	291.32
788.978	348.67
789.159	334.33
789.34	274.94
789.522	238.08
789.703	299.52
789.884	344.57
790.065	297.47
790.246	330.23
790.427	342.52
790.607	272.89
790.788	313.85
790.969	281.08
791.15	315.9
791.331	287.23
791.512	297.47
791.693	346.62
791.874	309.76
792.054	299.52
792.235	281.08
792.416	303.61
792.597	188.93
792.778	285.18
792.958	256.51
793.139	299.52
793.32	221.69
793.5	268.8
793.681	283.13
793.862	180.73
794.042	256.51
794.223	264.7
794.404	313.85
794.584	252.41
794.765	227.84
794.945	164.35
795.126	311.8
795.306	279.04
795.487	170.49
795.667	231.93
795.848	240.12
796.028	178.69
796.209	217.6
796.389	289.28
796.57	236.03
796.75	252.41
796.93	276.99
797.111	223.74
797.291	190.97
797.471	145.92
797.652	207.36
797.832	162.3
798.012	211.45
798.192	201.21
798.373	178.69
798.553	199.16
798.733	317.95
798.913	205.31
799.093	178.69
799.274	240.12
799.454	244.22
799.634	248.32
799.814	158.21
799.994	231.93
800.174	264.7
800.354	221.69
800.534	162.3
800.714	236.03
800.894	127.49
801.074	178.69
801.254	190.97
801.434	190.97
801.614	223.74
801.794	172.54
801.974	616.95
802.154	160.25
802.334	217.6
802.514	207.36
802.693	109.05
802.873	193.02
803.053	240.12
803.233	213.5
803.413	174.59
803.592	188.93
803.772	147.97
803.952	197.12
804.131	86.53
804.311	223.74
804.491	217.6
804.67	188.93
804.85	139.77
805.03	174.59
805.209	133.63
805.389	141.82
805.568	96.77
805.748	127.49
805.928	100.86
806.107	180.73
806.287	150.01
806.466	193.02
806.646	211.45
806.825	135.68
807.004	145.92
807.184	231.93
807.363	84.48
807.543	182.78
807.722	182.78
807.901	174.59
808.081	193.02
808.26	76.29
808.439	160.25
808.619	158.21
808.798	135.68
808.977	184.83
809.156	147.97
809.336	180.73
809.515	190.97
809.694	176.64
809.873	96.77
810.052	203.26
810.231	127.49
810.411	150.01
810.59	193.02
810.769	133.63
810.948	152.06
811.127	131.58
811.306	125.44
811.485	94.72
811.664	211.45
811.843	115.2
812.022	100.86
812.201	145.92
812.38	80.38
812.559	154.11
812.737	147.97
812.916	113.15
813.095	104.96
813.274	129.53
813.453	107.01
813.632	156.16
813.811	168.45
813.989	18.94
814.168	115.2
814.347	70.14
814.526	51.71
814.704	160.25
814.883	160.25
815.062	92.67
815.24	94.72
815.419	70.14
815.598	84.48
815.776	100.86
815.955	117.25
816.133	35.33
816.312	137.73
816.49	123.39
816.669	125.44
816.847	119.29
817.026	133.63
817.204	59.9
817.383	115.2
817.561	74.24
817.74	82.43
817.918	129.53
818.097	88.57
818.275	92.67
818.453	209.4
818.632	86.53
818.81	150.01
818.988	141.82
819.167	88.57
819.345	117.25
819.523	41.47
819.701	47.62
819.879	131.58
820.058	45.57
820.236	113.15
820.414	14.85
820.592	152.06
820.77	174.59
820.948	82.43
821.127	55.81
821.305	141.82
821.483	88.57
821.661	57.86
821.839	78.33
822.017	76.29
822.195	68.09
822.373	45.57
822.551	123.39
822.729	131.58
822.907	57.86
823.085	113.15
823.262	78.33
823.44	68.09
823.618	61.95
823.796	35.33
823.974	53.76
824.152	119.29
824.329	86.53
824.507	143.87
824.685	84.48
824.863	37.38
825.04	96.77
825.218	70.14
825.396	131.58
825.574	135.68
825.751	57.86
825.929	123.39
826.107	64
826.284	51.71
826.462	68.09
826.639	35.33
826.817	39.42
826.994	111.1
827.172	55.81
827.349	129.53
827.527	78.33
827.704	70.14
827.882	2.56
828.059	88.57
828.237	107.01
828.414	129.53
828.591	25.09
828.769	45.57
828.946	-11.78
829.124	51.71
829.301	92.67
829.478	49.66
829.655	109.05
829.833	57.86
830.01	14.85
830.187	131.58
830.364	104.96
830.542	88.57
830.719	61.95
830.896	43.52
831.073	41.47
831.25	53.76
831.427	80.38
831.604	104.96
831.782	57.86
831.959	100.86
832.136	18.94
832.313	55.81
832.49	70.14
832.667	141.82
832.844	51.71
833.021	90.62
833.198	53.76
833.374	76.29
833.551	18.94
833.728	59.9
833.905	0.51
834.082	-1.54
834.259	109.05
834.436	94.72
834.612	86.53
834.789	82.43
834.966	80.38
835.143	12.8
835.319	100.86
835.496	29.18
835.673	12.8
835.85	92.67
836.026	119.29
836.203	31.23
836.38	-3.58
836.556	76.29
836.733	37.38
836.909	59.9
837.086	-17.92
837.262	25.09
837.439	78.33
837.616	68.09
837.792	8.7
837.968	82.43
838.145	18.94
838.321	86.53
838.498	33.28
838.674	70.14
838.851	129.53
839.027	98.81
839.203	20.99
839.38	25.09
839.556	35.33
839.732	37.38
839.909	51.71
840.085	59.9
840.261	10.75
840.437	33.28
840.614	6.66
840.79	20.99
840.966	107.01
841.142	16.9
841.318	-22.02
841.494	-1.54
841.671	43.52
841.847	107.01
842.023	111.1
842.199	78.33
842.375	37.38
842.551	-22.02
842.727	37.38
842.903	82.43
843.079	-13.82
843.255	25.09
843.431	-5.63
843.607	61.95
843.783	16.9
843.959	49.66
844.134	10.75
844.31	78.33
844.486	-28.16
844.662	76.29
844.838	80.38
845.013	51.71
845.189	64
845.365	27.14
845.541	47.62
845.716	-38.4
845.892	64
846.068	23.04
846.244	4.61
846.419	70.14
846.595	-1.54
846.77	59.9
846.946	115.2
847.122	-36.35
847.297	25.09
847.473	-3.58
847.648	51.71
847.824	55.81
847.999	-58.88
848.175	82.43
848.35	29.18
848.526	57.86
848.701	-11.78
848.876	23.04
849.052	80.38
849.227	76.29
849.403	-30.21
849.578	31.23
849.753	53.76
849.929	51.71
850.104	-3.58
850.279	94.72
850.454	102.91
850.63	33.28
850.805	16.9
850.98	43.52
851.155	27.14
851.33	-3.58
851.505	12.8
851.681	29.18
851.856	-30.21
852.031	-19.97
852.206	55.81
852.381	74.24
852.556	-13.82
852.731	37.38
852.906	45.57
853.081	-11.78
853.256	35.33
853.431	10.75
853.606	29.18
853.781	-11.78
853.956	33.28
854.131	-22.02
854.305	12.8
854.48	31.23
854.655	14.85
854.83	59.9
855.005	35.33
855.18	29.18
855.354	-26.11
855.529	45.57
855.704	49.66
855.879	43.52
856.053	51.71
856.228	-13.82
856.403	10.75
856.577	10.75
856.752	10.75
856.926	35.33
857.101	35.33
857.276	23.04
857.45	-11.78
857.625	23.04
857.799	-42.5
857.974	8.7
858.148	27.14
858.323	98.81
858.497	70.14
858.672	-1.54
858.846	-11.78
859.02	18.94
859.195	16.9
859.369	-5.63
859.543	18.94
859.718	84.48
859.892	68.09
860.066	35.33
860.241	0.51
860.415	-26.11
860.589	-26.11
860.763	37.38
860.938	86.53
861.112	31.23
861.286	6.66
861.46	2.56
861.634	57.86
861.808	2.56
861.982	-11.78
862.157	2.56
862.331	45.57
862.505	27.14
862.679	0.51
862.853	61.95
863.027	18.94
863.201	27.14
863.375	-13.82
863.549	64
863.722	-5.63
863.896	39.42
864.07	10.75
864.244	-1.54
864.418	-28.16
864.592	45.57
864.766	23.04
864.939	2.56
865.113	31.23
865.287	53.76
865.461	23.04
865.634	35.33
865.808	23.04
865.982	80.38
866.156	33.28
866.329	10.75
866.503	47.62
866.676	14.85
866.85	10.75
867.024	-1.54
867.197	39.42
867.371	12.8
867.544	-3.58
867.718	0.51
867.891	4.61
868.065	-17.92
868.238	6.66
868.412	35.33
868.585	-1.54
868.759	35.33
868.932	53.76
869.105	53.76
869.279	18.94
869.452	-38.4
869.625	8.7
869.799	16.9
869.972	-30.21
870.145	4.61
870.319	14.85
870.492	6.66
870.665	-40.45
870.838	47.62
871.011	-11.78
871.185	59.9
871.358	47.62
871.531	16.9
871.704	39.42
871.877	25.09
872.05	23.04
872.223	-17.92
872.396	-5.63
872.569	57.86
872.742	-34.3
872.915	2.56
873.088	-15.87
873.261	-26.11
873.434	20.99
873.607	-22.02
873.78	-67.07
873.953	29.18
874.126	53.76
874.299	45.57
874.471	-32.26
874.644	-32.26
874.817	-32.26
874.99	-11.78
875.163	-36.35
875.335	86.53
875.508	6.66
875.681	35.33
875.853	-5.63
876.026	27.14
876.199	31.23
876.371	-3.58
876.544	-69.12
876.717	-58.88
876.889	-11.78
877.062	51.71
877.234	-22.02
877.407	-3.58
877.579	-71.17
877.752	-11.78
877.924	12.8
878.097	18.94
878.269	8.7
878.442	-13.82
878.614	-79.36
878.786	-3.58
878.959	-24.06
879.131	68.09
879.303	20.99
879.476	64
879.648	-65.02
879.82	2.56
879.993	-65.02
880.165	43.52
880.337	61.95
880.509	-38.4
880.681	4.61
880.854	-54.78
881.026	57.86
881.198	-9.73
881.37	-26.11
881.542	12.8
881.714	-38.4
881.886	-13.82
882.058	-17.92
882.23	70.14
882.402	2.56
882.574	-22.02
882.746	12.8
882.918	-15.87
883.09	35.33
883.262	35.33
883.434	10.75
883.606	4.61
883.778	-40.45
883.95	59.9
884.122	-19.97
884.293	33.28
884.465	-15.87
884.637	-46.59
884.809	-30.21
884.98	27.14
885.152	29.18
885.324	-17.92
885.496	47.62
885.667	10.75
885.839	4.61
886.011	84.48
886.182	47.62
886.354	20.99
886.525	23.04
886.697	10.75
886.869	-30.21
887.04	4.61
887.212	68.09
887.383	18.94
887.555	6.66
887.726	29.18
887.897	37.38
888.069	92.67
888.24	-1.54
888.412	-17.92
888.583	12.8
888.754	-44.54
888.926	-26.11
889.097	-17.92
889.268	-67.07
889.44	0.51
889.611	-36.35
889.782	-17.92
889.953	25.09
890.125	27.14
890.296	64
890.467	-87.55
890.638	74.24
890.809	-11.78
890.98	-40.45
891.151	20.99
891.323	66.05
891.494	37.38
891.665	-58.88
891.836	-44.54
892.007	-32.26
892.178	12.8
892.349	-30.21
892.52	51.71
892.691	39.42
892.862	12.8
893.032	-11.78
893.203	-15.87
893.374	14.85
893.545	-44.54
893.716	-22.02
893.887	2.56
894.057	-22.02
894.228	-22.02
894.399	-26.11
894.57	55.81
894.74	-48.64
894.911	35.33
895.082	20.99
895.253	-26.11
895.423	6.66
895.594	10.75
895.764	4.61
895.935	-11.78
896.106	-9.73
896.276	-38.4
896.447	20.99
896.617	14.85
896.788	-17.92
896.958	-40.45
897.129	4.61
897.299	-60.93
897.47	-48.64
897.64	16.9
897.81	72.19
897.981	20.99
898.151	-71.17
898.322	-30.21
898.492	49.66
898.662	29.18
898.832	0.51
899.003	18.94
899.173	43.52
899.343	53.76
899.513	10.75
