Data from USB4F104151__21__13-10-32-885.txt Node

Date: Fri Mar 14 13:10:32 EDT 2025
User: louis
Spectrometer: USB4F10415
Trigger mode: 4
Integration Time (sec): 2.000000E-2
Scans to average: 1
Electric dark correction enabled: true
Nonlinearity correction enabled: false
Boxcar width: 0
XAxis mode: Wavelengths
Number of Pixels in Spectrum: 3648
>>>>>Begin Spectral Data<<<<<
178.204	-86.87
178.424	-86.87
178.644	-86.87
178.864	-160.59
179.084	-105.3
179.304	-45.91
179.524	31.91
179.744	-2.9
179.964	42.15
180.184	36.01
180.404	19.63
180.624	-13.14
180.844	11.43
181.064	-93.01
181.283	5.29
181.503	31.91
181.723	-23.38
181.943	-56.15
182.163	79.02
182.383	11.43
182.602	29.87
182.822	85.16
183.042	85.16
183.262	-19.29
183.482	-37.72
183.701	48.3
183.921	3.24
184.141	36.01
184.361	33.96
184.58	38.06
184.8	19.63
185.02	31.91
185.239	124.07
185.459	-43.86
185.679	79.02
185.898	58.54
186.118	79.02
186.338	15.53
186.557	40.11
186.777	56.49
186.997	29.87
187.216	9.39
187.436	58.54
187.655	11.43
187.875	150.7
188.095	50.35
188.314	117.93
188.534	68.78
188.753	25.77
188.973	-2.9
189.192	36.01
189.412	31.91
189.631	64.68
189.851	-27.48
190.07	52.39
190.29	17.58
190.509	62.63
190.729	27.82
190.948	48.3
191.168	97.45
191.387	27.82
191.607	-15.19
191.826	62.63
192.045	19.63
192.265	46.25
192.484	-9.05
192.704	13.48
192.923	-17.24
193.142	17.58
193.362	7.34
193.581	-21.33
193.8	52.39
194.02	83.11
194.239	-2.9
194.458	-19.29
194.678	48.3
194.897	38.06
195.116	1.19
195.335	-37.72
195.555	31.91
195.774	117.93
195.993	124.07
196.212	1.19
196.432	19.63
196.651	40.11
196.87	29.87
197.089	66.73
197.308	122.02
197.528	42.15
197.747	36.01
197.966	1.19
198.185	68.78
198.404	62.63
198.623	58.54
198.842	56.49
199.062	44.2
199.281	27.82
199.5	29.87
199.719	54.44
199.938	91.31
200.157	42.15
200.376	29.87
200.595	62.63
200.814	-27.48
201.033	74.92
201.252	87.21
201.471	87.21
201.69	60.59
201.909	44.2
202.128	31.91
202.347	60.59
202.566	-13.14
202.785	50.35
203.004	31.91
203.223	115.88
203.442	68.78
203.661	17.58
203.879	52.39
204.098	117.93
204.317	85.16
204.536	38.06
204.755	58.54
204.974	-4.95
205.193	-43.86
205.411	5.29
205.63	19.63
205.849	17.58
206.068	79.02
206.287	19.63
206.505	-0.85
206.724	72.87
206.943	-39.76
207.162	3.24
207.381	70.83
207.599	109.74
207.818	-2.9
208.037	-29.52
208.255	-52.05
208.474	33.96
208.693	64.68
208.911	52.39
209.13	70.83
209.349	-21.33
209.567	74.92
209.786	13.48
210.005	29.87
210.223	17.58
210.442	17.58
210.661	38.06
210.879	74.92
211.098	48.3
211.316	9.39
211.535	101.55
211.753	72.87
211.972	15.53
212.191	101.55
212.409	11.43
212.628	40.11
212.846	52.39
213.065	46.25
213.283	105.64
213.502	42.15
213.72	56.49
213.938	-19.29
214.157	38.06
214.375	29.87
214.594	60.59
214.812	-21.33
215.031	42.15
215.249	9.39
215.467	83.11
215.686	1.19
215.904	64.68
216.122	42.15
216.341	25.77
216.559	9.39
216.778	31.91
216.996	122.02
217.214	58.54
217.432	-13.14
217.651	11.43
217.869	42.15
218.087	29.87
218.306	-7
218.524	-15.19
218.742	9.39
218.96	23.72
219.179	50.35
219.397	-4.95
219.615	-9.05
219.833	27.82
220.051	29.87
220.27	119.98
220.488	117.93
220.706	89.26
220.924	19.63
221.142	-2.9
221.36	-2.9
221.578	58.54
221.796	1.19
222.015	-17.24
222.233	103.59
222.451	72.87
222.669	11.43
222.887	56.49
223.105	17.58
223.323	-17.24
223.541	48.3
223.759	74.92
223.977	25.77
224.195	66.73
224.413	83.11
224.631	50.35
224.849	21.67
225.067	74.92
225.285	50.35
225.503	95.4
225.721	33.96
225.939	31.91
226.157	56.49
226.375	144.55
226.592	36.01
226.81	52.39
227.028	72.87
227.246	50.35
227.464	60.59
227.682	54.44
227.9	-27.48
228.117	44.2
228.335	1.19
228.553	70.83
228.771	56.49
228.989	85.16
229.206	48.3
229.424	3.24
229.642	13.48
229.86	38.06
230.077	91.31
230.295	42.15
230.513	44.2
230.731	-2.9
230.948	72.87
231.166	138.41
231.384	17.58
231.601	-11.09
231.819	85.16
232.037	50.35
232.254	54.44
232.472	-27.48
232.689	81.07
232.907	33.96
233.125	11.43
233.342	64.68
233.56	46.25
233.777	19.63
233.995	40.11
234.213	64.68
234.43	38.06
234.648	42.15
234.865	23.72
235.083	27.82
235.3	83.11
235.518	11.43
235.735	85.16
235.953	42.15
236.17	15.53
236.388	38.06
236.605	-29.52
236.822	93.35
237.04	42.15
237.257	66.73
237.475	25.77
237.692	46.25
237.909	54.44
238.127	42.15
238.344	50.35
238.562	27.82
238.779	19.63
238.996	3.24
239.214	48.3
239.431	66.73
239.648	-27.48
239.865	50.35
240.083	3.24
240.3	46.25
240.517	48.3
240.735	-21.33
240.952	17.58
241.169	60.59
241.386	113.83
241.603	42.15
241.821	-82.77
242.038	115.88
242.255	56.49
242.472	42.15
242.689	-43.86
242.907	58.54
243.124	19.63
243.341	23.72
243.558	11.43
243.775	9.39
243.992	1.19
244.209	-13.14
244.426	74.92
244.643	19.63
244.86	33.96
245.078	74.92
245.295	66.73
245.512	40.11
245.729	-7
245.946	66.73
246.163	9.39
246.38	81.07
246.597	42.15
246.814	-15.19
247.031	107.69
247.248	87.21
247.464	46.25
247.681	70.83
247.898	-54.1
248.115	46.25
248.332	-19.29
248.549	40.11
248.766	68.78
248.983	42.15
249.2	3.24
249.417	52.39
249.633	-39.76
249.85	89.26
250.067	-7
250.284	25.77
250.501	54.44
250.717	128.17
250.934	-11.09
251.151	13.48
251.368	52.39
251.585	21.67
251.801	29.87
252.018	9.39
252.235	85.16
252.451	7.34
252.668	46.25
252.885	40.11
253.102	13.48
253.318	7.34
253.535	1.19
253.752	79.02
253.968	54.44
254.185	48.3
254.401	21.67
254.618	-13.14
254.835	40.11
255.051	36.01
255.268	36.01
255.484	40.11
255.701	38.06
255.917	58.54
256.134	25.77
256.351	21.67
256.567	-11.09
256.784	66.73
257	-17.24
257.217	105.64
257.433	11.43
257.65	58.54
257.866	117.93
258.082	9.39
258.299	1.19
258.515	36.01
258.732	-27.48
258.948	44.2
259.165	42.15
259.381	9.39
259.597	15.53
259.814	50.35
260.03	64.68
260.246	60.59
260.463	136.36
260.679	54.44
260.895	25.77
261.112	66.73
261.328	25.77
261.544	1.19
261.761	46.25
261.977	27.82
262.193	17.58
262.409	15.53
262.626	25.77
262.842	99.5
263.058	11.43
263.274	27.82
263.49	-29.52
263.707	93.35
263.923	33.96
264.139	42.15
264.355	31.91
264.571	40.11
264.787	48.3
265.004	-15.19
265.22	79.02
265.436	-2.9
265.652	11.43
265.868	15.53
266.084	66.73
266.3	38.06
266.516	19.63
266.732	113.83
266.948	19.63
267.164	93.35
267.38	-9.05
267.596	15.53
267.812	93.35
268.028	66.73
268.244	42.15
268.46	7.34
268.676	-2.9
268.892	21.67
269.108	74.92
269.324	25.77
269.54	54.44
269.756	25.77
269.972	3.24
270.188	-11.09
270.403	-86.87
270.619	-2.9
270.835	-2.9
271.051	42.15
271.267	3.24
271.483	-21.33
271.698	87.21
271.914	85.16
272.13	66.73
272.346	-19.29
272.562	36.01
272.777	74.92
272.993	25.77
273.209	95.4
273.425	60.59
273.64	-31.57
273.856	146.6
274.072	44.2
274.287	-23.38
274.503	25.77
274.719	66.73
274.934	62.63
275.15	21.67
275.366	81.07
275.581	9.39
275.797	9.39
276.012	-2.9
276.228	66.73
276.444	46.25
276.659	54.44
276.875	-27.48
277.09	85.16
277.306	19.63
277.521	68.78
277.737	7.34
277.952	85.16
278.168	29.87
278.383	29.87
278.599	9.39
278.814	54.44
279.03	17.58
279.245	107.69
279.461	11.43
279.676	3.24
279.892	-15.19
280.107	48.3
280.322	-4.95
280.538	3.24
280.753	19.63
280.969	60.59
281.184	60.59
281.399	79.02
281.615	25.77
281.83	93.35
282.045	50.35
282.26	29.87
282.476	36.01
282.691	25.77
282.906	60.59
283.122	36.01
283.337	36.01
283.552	74.92
283.767	56.49
283.983	81.07
284.198	-7
284.413	148.65
284.628	-4.95
284.843	17.58
285.058	29.87
285.274	68.78
285.489	-41.81
285.704	126.12
285.919	74.92
286.134	64.68
286.349	50.35
286.564	83.11
286.779	81.07
286.995	60.59
287.21	42.15
287.425	5.29
287.64	56.49
287.855	52.39
288.07	36.01
288.285	66.73
288.5	13.48
288.715	5.29
288.93	93.35
289.145	13.48
289.36	38.06
289.575	-13.14
289.79	99.5
290.004	-15.19
290.219	79.02
290.434	44.2
290.649	-33.62
290.864	36.01
291.079	-13.14
291.294	9.39
291.509	72.87
291.724	74.92
291.938	17.58
292.153	5.29
292.368	-27.48
292.583	11.43
292.798	7.34
293.012	54.44
293.227	9.39
293.442	-4.95
293.657	68.78
293.871	54.44
294.086	5.29
294.301	105.64
294.516	72.87
294.73	48.3
294.945	103.59
295.16	42.15
295.374	95.4
295.589	54.44
295.804	66.73
296.018	91.31
296.233	107.69
296.447	9.39
296.662	-23.38
296.877	48.3
297.091	119.98
297.306	17.58
297.52	19.63
297.735	99.5
297.949	-7
298.164	15.53
298.378	25.77
298.593	5.29
298.807	54.44
299.022	40.11
299.236	60.59
299.451	-2.9
299.665	44.2
299.88	-15.19
300.094	66.73
300.309	9.39
300.523	27.82
300.737	29.87
300.952	91.31
301.166	15.53
301.381	50.35
301.595	93.35
301.809	38.06
302.024	27.82
302.238	-4.95
302.452	64.68
302.667	44.2
302.881	126.12
303.095	93.35
303.309	44.2
303.524	3.24
303.738	72.87
303.952	29.87
304.166	74.92
304.381	-37.72
304.595	33.96
304.809	-2.9
305.023	68.78
305.237	54.44
305.452	-9.05
305.666	99.5
305.88	17.58
306.094	107.69
306.308	66.73
306.522	48.3
306.736	33.96
306.95	38.06
307.164	62.63
307.379	48.3
307.593	158.89
307.807	85.16
308.021	44.2
308.235	68.78
308.449	38.06
308.663	42.15
308.877	68.78
309.091	36.01
309.305	19.63
309.519	-23.38
309.733	42.15
309.947	-35.67
310.161	79.02
310.374	5.29
310.588	76.97
310.802	-72.53
311.016	-4.95
311.23	66.73
311.444	42.15
311.658	83.11
311.872	13.48
312.085	56.49
312.299	113.83
312.513	134.31
312.727	25.77
312.941	-13.14
313.154	60.59
313.368	60.59
313.582	122.02
313.796	25.77
314.009	81.07
314.223	54.44
314.437	68.78
314.651	-31.57
314.864	58.54
315.078	29.87
315.292	-23.38
315.505	38.06
315.719	74.92
315.933	44.2
316.146	42.15
316.36	130.22
316.573	-11.09
316.787	23.72
317.001	15.53
317.214	-23.38
317.428	33.96
317.641	64.68
317.855	46.25
318.068	36.01
318.282	25.77
318.495	44.2
318.709	33.96
318.922	95.4
319.136	91.31
319.349	5.29
319.563	103.59
319.776	107.69
319.99	-60.24
320.203	36.01
320.417	81.07
320.63	124.07
320.843	101.55
321.057	27.82
321.27	25.77
321.483	72.87
321.697	60.59
321.91	58.54
322.124	66.73
322.337	66.73
322.55	66.73
322.763	-9.05
322.977	44.2
323.19	-35.67
323.403	50.35
323.617	50.35
323.83	93.35
324.043	52.39
324.256	70.83
324.469	93.35
324.683	70.83
324.896	5.29
325.109	25.77
325.322	42.15
325.535	15.53
325.748	52.39
325.962	-4.95
326.175	40.11
326.388	9.39
326.601	52.39
326.814	56.49
327.027	103.59
327.24	33.96
327.453	44.2
327.666	50.35
327.879	74.92
328.092	29.87
328.305	66.73
328.518	19.63
328.731	-0.85
328.944	60.59
329.157	33.96
329.37	60.59
329.583	93.35
329.796	72.87
330.009	33.96
330.222	70.83
330.435	5.29
330.648	5.29
330.861	17.58
331.073	87.21
331.286	85.16
331.499	93.35
331.712	46.25
331.925	15.53
332.138	46.25
332.35	31.91
332.563	-23.38
332.776	76.97
332.989	81.07
333.202	97.45
333.414	1.19
333.627	109.74
333.84	-2.9
334.053	54.44
334.265	19.63
334.478	72.87
334.691	62.63
334.903	25.77
335.116	36.01
335.329	68.78
335.541	-13.14
335.754	150.7
335.966	40.11
336.179	58.54
336.392	85.16
336.604	58.54
336.817	42.15
337.029	9.39
337.242	7.34
337.454	70.83
337.667	17.58
337.88	5.29
338.092	46.25
338.305	60.59
338.517	7.34
338.729	48.3
338.942	81.07
339.154	50.35
339.367	-23.38
339.579	46.25
339.792	19.63
340.004	1.19
340.217	11.43
340.429	58.54
340.641	44.2
340.854	-27.48
341.066	44.2
341.278	132.26
341.491	70.83
341.703	68.78
341.915	79.02
342.128	81.07
342.34	85.16
342.552	-13.14
342.764	66.73
342.977	50.35
343.189	91.31
343.401	33.96
343.613	29.87
343.826	107.69
344.038	79.02
344.25	40.11
344.462	1.19
344.674	25.77
344.886	33.96
345.099	60.59
345.311	89.26
345.523	23.72
345.735	68.78
345.947	89.26
346.159	97.45
346.371	54.44
346.583	36.01
346.795	83.11
347.007	58.54
347.219	76.97
347.431	31.91
347.643	70.83
347.855	171.18
348.067	62.63
348.279	33.96
348.491	58.54
348.703	-23.38
348.915	19.63
349.127	50.35
349.339	50.35
349.551	-2.9
349.763	33.96
349.975	21.67
350.187	62.63
350.399	74.92
350.61	107.69
350.822	1.19
351.034	3.24
351.246	-2.9
351.458	74.92
351.669	17.58
351.881	93.35
352.093	156.84
352.305	99.5
352.517	15.53
352.728	17.58
352.94	46.25
353.152	74.92
353.363	-13.14
353.575	83.11
353.787	50.35
353.999	66.73
354.21	76.97
354.422	91.31
354.633	15.53
354.845	17.58
355.057	60.59
355.268	95.4
355.48	111.78
355.692	-2.9
355.903	58.54
356.115	58.54
356.326	9.39
356.538	52.39
356.749	72.87
356.961	101.55
357.172	85.16
357.384	29.87
357.595	126.12
357.807	93.35
358.018	33.96
358.23	-17.24
358.441	56.49
358.653	91.31
358.864	48.3
359.075	17.58
359.287	17.58
359.498	-19.29
359.709	27.82
359.921	31.91
360.132	1.19
360.344	-11.09
360.555	44.2
360.766	64.68
360.977	105.64
361.189	7.34
361.4	48.3
361.611	66.73
361.823	50.35
362.034	95.4
362.245	60.59
362.456	70.83
362.667	48.3
362.879	5.29
363.09	33.96
363.301	115.88
363.512	107.69
363.723	13.48
363.935	31.91
364.146	93.35
364.357	17.58
364.568	74.92
364.779	-11.09
364.99	-29.52
365.201	97.45
365.412	142.5
365.623	46.25
365.834	97.45
366.045	-11.09
366.256	60.59
366.467	27.82
366.678	62.63
366.889	83.11
367.1	68.78
367.311	95.4
367.522	17.58
367.733	44.2
367.944	11.43
368.155	124.07
368.366	107.69
368.577	93.35
368.788	91.31
368.999	64.68
369.209	85.16
369.42	99.5
369.631	156.84
369.842	74.92
370.053	40.11
370.264	38.06
370.474	1.19
370.685	-21.33
370.896	25.77
371.107	97.45
371.317	36.01
371.528	76.97
371.739	70.83
371.95	1.19
372.16	21.67
372.371	89.26
372.582	7.34
372.792	-2.9
373.003	85.16
373.214	97.45
373.424	23.72
373.635	-62.29
373.846	91.31
374.056	3.24
374.267	115.88
374.477	85.16
374.688	25.77
374.898	101.55
375.109	27.82
375.319	74.92
375.53	42.15
375.74	54.44
375.951	103.59
376.161	60.59
376.372	115.88
376.582	93.35
376.793	85.16
377.003	23.72
377.214	83.11
377.424	29.87
377.635	165.03
377.845	60.59
378.055	54.44
378.266	64.68
378.476	7.34
378.686	19.63
378.897	48.3
379.107	111.78
379.317	33.96
379.528	33.96
379.738	142.5
379.948	83.11
380.158	25.77
380.369	38.06
380.579	23.72
380.789	29.87
380.999	50.35
381.21	3.24
381.42	93.35
381.63	19.63
381.84	17.58
382.05	42.15
382.261	31.91
382.471	38.06
382.681	-13.14
382.891	101.55
383.101	89.26
383.311	85.16
383.521	68.78
383.731	83.11
383.941	115.88
384.151	72.87
384.361	29.87
384.571	107.69
384.781	74.92
384.991	109.74
385.201	89.26
385.411	74.92
385.621	58.54
385.831	128.17
386.041	66.73
386.251	42.15
386.461	58.54
386.671	38.06
386.881	58.54
387.091	93.35
387.301	44.2
387.511	-2.9
387.72	58.54
387.93	19.63
388.14	38.06
388.35	126.12
388.56	76.97
388.769	107.69
388.979	60.59
389.189	42.15
389.399	42.15
389.609	85.16
389.818	111.78
390.028	44.2
390.238	23.72
390.447	52.39
390.657	23.72
390.867	48.3
391.076	19.63
391.286	93.35
391.496	46.25
391.705	42.15
391.915	115.88
392.125	27.82
392.334	107.69
392.544	122.02
392.753	74.92
392.963	40.11
393.172	109.74
393.382	76.97
393.591	140.46
393.801	36.01
394.01	111.78
394.22	46.25
394.429	99.5
394.639	13.48
394.848	115.88
395.058	13.48
395.267	134.31
395.477	95.4
395.686	85.16
395.895	138.41
396.105	95.4
396.314	95.4
396.524	70.83
396.733	83.11
396.942	42.15
397.152	31.91
397.361	111.78
397.57	64.68
397.78	81.07
397.989	109.74
398.198	150.7
398.407	117.93
398.617	27.82
398.826	142.5
399.035	17.58
399.244	44.2
399.453	19.63
399.663	99.5
399.872	62.63
400.081	40.11
400.29	87.21
400.499	91.31
400.708	122.02
400.917	33.96
401.127	103.59
401.336	124.07
401.545	189.61
401.754	138.41
401.963	107.69
402.172	33.96
402.381	124.07
402.59	70.83
402.799	38.06
403.008	109.74
403.217	148.65
403.426	107.69
403.635	150.7
403.844	105.64
404.053	74.92
404.262	74.92
404.471	144.55
404.68	181.42
404.888	107.69
405.097	83.11
405.306	148.65
405.515	132.26
405.724	113.83
405.933	169.13
406.142	122.02
406.35	158.89
406.559	134.31
406.768	175.27
406.977	183.46
407.185	156.84
407.394	165.03
407.603	150.7
407.812	148.65
408.02	165.03
408.229	208.04
408.438	173.22
408.646	175.27
408.855	203.94
409.064	232.62
409.272	257.19
409.481	255.14
409.69	277.67
409.898	271.53
410.107	195.75
410.315	298.15
410.524	267.43
410.733	298.15
410.941	271.53
411.15	388.26
411.358	341.16
411.567	296.1
411.775	326.82
411.984	375.97
412.192	373.92
412.401	378.02
412.609	292.01
412.818	380.07
413.026	412.84
413.234	418.98
413.443	443.56
413.651	472.23
413.86	427.17
414.068	631.97
414.276	523.43
414.485	556.19
414.693	572.58
414.901	531.62
415.11	531.62
415.318	584.87
415.526	642.21
415.734	691.36
415.943	629.92
416.151	709.79
416.359	728.22
416.567	797.85
416.776	816.29
416.984	816.29
417.192	828.57
417.4	847.01
417.608	765.09
417.817	855.2
418.025	914.59
418.233	930.97
418.441	937.12
418.649	992.41
418.857	1129.63
419.065	1148.06
419.273	945.31
419.481	1121.43
419.689	1186.97
419.897	1287.32
420.105	1279.13
420.313	1328.28
420.521	1324.18
420.729	1451.16
420.937	1428.63
421.145	1514.64
421.353	1465.49
421.561	1518.74
421.769	1582.23
421.977	1688.72
422.185	1680.53
422.393	1815.69
422.601	1860.75
422.809	1969.29
423.017	1918.09
423.224	1940.62
423.432	2049.16
423.64	1907.85
423.848	2292.87
424.056	2260.1
424.263	2421.89
424.471	2382.98
424.679	2425.99
424.887	2425.99
425.094	2606.21
425.302	2618.5
425.51	2749.57
425.718	2790.53
425.925	2843.78
426.133	2942.08
426.341	3112.06
426.548	3300.47
426.756	3214.46
426.964	3261.56
427.171	3468.41
427.379	3591.28
427.586	3777.65
427.794	3718.26
428.001	3951.73
428.209	4015.21
428.417	3943.53
428.624	4476.01
428.832	4283.5
429.039	4205.67
429.247	4197.48
429.454	4656.23
429.662	5031.01
429.869	4623.46
430.076	5096.54
430.284	4838.5
430.491	5047.39
430.699	5385.3
430.906	5307.48
431.114	5450.84
431.321	5573.72
431.528	5774.42
431.736	6259.79
431.943	6464.58
432.15	6106.19
432.358	6300.75
432.565	6648.9
432.772	6550.6
432.979	7033.92
433.187	7244.86
433.394	7038.02
433.601	7513.14
433.808	7449.66
434.016	7382.07
434.223	7969.84
434.43	8268.84
434.637	8383.53
434.844	8578.09
435.052	8969.25
435.259	8676.39
435.466	8909.86
435.673	8873
435.88	9382.94
436.087	9667.61
436.294	10023.95
436.501	9731.09
436.708	9899.03
436.915	10073.1
437.122	10564.62
437.329	10613.77
437.537	10955.78
437.743	10990.59
437.95	11090.95
438.157	11668.47
438.364	11850.74
438.571	11893.75
438.778	12258.29
438.985	13192.16
439.192	12545
439.399	13013.99
439.606	12801
439.813	13380.57
440.02	14287.82
440.227	14203.86
440.433	14087.12
440.64	14466
440.847	14400.46
441.054	14648.27
441.261	15455.17
441.467	15266.75
441.674	15799.23
441.881	16346.03
442.088	16303.03
442.294	15969.21
442.501	16604.08
442.708	16786.35
442.914	17507.23
443.121	18008.98
443.328	17736.6
443.534	19088.26
443.741	18516.88
443.948	18394
444.154	19456.9
444.361	19598.21
444.568	19860.35
444.774	19704.7
444.981	19628.93
445.187	20464.5
445.394	21279.59
445.6	20980.59
445.807	22979.4
446.013	22332.25
446.22	22399.83
446.426	23581.51
446.633	23663.43
446.839	24709.94
447.046	23401.29
447.252	24765.23
447.459	24947.5
447.665	24449.85
447.871	25684.77
448.078	27026.19
448.284	25535.27
448.491	26393.37
448.697	27394.82
448.903	28140.29
449.11	27943.68
449.316	27710.21
449.522	28201.72
449.728	29006.58
449.935	28965.62
450.141	29266.67
450.347	29965.03
450.553	29012.72
450.76	29438.7
450.966	30188.25
451.172	30229.21
451.378	30698.2
451.584	29940.45
451.791	30798.55
451.997	30565.08
452.203	31322.83
452.409	31638.22
452.615	31572.68
452.821	30067.42
453.027	29299.44
453.233	31566.54
453.44	30284.51
453.646	30657.24
453.852	30577.37
454.058	31333.07
454.264	30153.44
454.47	30978.77
454.676	30147.29
454.882	31142.61
455.088	28281.6
455.294	28859.12
455.5	29344.49
455.705	29543.14
455.911	28406.52
456.117	27859.71
456.323	27339.53
456.529	26395.42
456.735	27431.69
456.941	26450.71
457.147	26352.41
457.352	25518.89
457.558	25252.65
457.764	25355.05
457.97	25004.85
458.176	24267.58
458.381	24376.12
458.587	23110.47
458.793	22983.5
458.999	21629.79
459.204	23534.4
459.41	22936.4
459.616	21336.93
459.821	21422.95
460.027	21355.36
460.233	21027.69
460.438	20214.65
460.644	20104.06
460.85	19080.07
461.055	18981.77
461.261	18824.08
461.466	17249.19
461.672	16780.2
461.878	18297.75
462.083	16604.08
462.289	16532.4
462.494	16366.51
462.7	15733.69
462.905	15360.96
463.111	15887.29
463.316	15885.24
463.522	15412.16
463.727	15422.4
463.932	15350.72
464.138	15340.48
464.343	15270.85
464.549	14728.14
464.754	15399.87
464.959	15270.85
465.165	15129.54
465.37	14492.62
465.575	14322.64
465.781	14937.03
465.986	14836.68
466.191	14119.89
466.397	13947.86
466.602	13198.31
466.807	13710.3
467.012	13741.02
467.218	13509.6
467.423	13634.52
467.628	13581.28
467.833	14171.09
468.038	13624.28
468.244	13046.76
468.449	13949.91
468.654	13474.78
468.859	13341.66
469.064	13161.44
469.269	12508.14
469.474	12927.97
469.679	13122.53
469.885	12444.65
470.09	12917.73
470.295	12762.09
470.5	12164.08
470.705	12471.28
470.91	12303.34
471.115	12229.62
471.32	12465.13
471.525	12274.67
471.73	11955.19
471.935	12039.15
472.139	11420.67
472.344	11572.22
472.549	11566.07
472.754	11541.5
472.959	11217.92
473.164	11207.68
473.369	11064.32
473.574	11240.45
473.778	11176.96
473.983	10892.29
474.188	11170.82
474.393	10574.86
474.598	10777.61
474.802	10263.57
475.007	10376.2
475.212	10382.35
475.417	10105.87
475.621	10181.65
475.826	9937.94
476.031	9933.84
476.235	9851.92
476.44	9942.03
476.645	9757.72
476.849	9763.86
477.054	9575.45
477.259	9206.81
477.463	9397.28
477.668	9104.42
477.872	9272.35
478.077	9042.98
478.282	9081.89
478.486	8946.72
478.691	8909.86
478.895	8676.39
479.1	8604.71
479.304	8645.67
479.509	8520.74
479.713	8639.53
479.918	8434.73
480.122	8430.63
480.326	8643.62
480.531	8477.74
480.735	8344.62
480.94	8277.04
481.144	8504.36
481.348	8217.65
481.553	8184.88
481.757	7816.24
481.961	8137.77
482.166	8272.94
482.37	7935.03
482.574	8049.71
482.778	7998.51
482.983	8320.04
483.187	7930.93
483.391	8234.03
483.595	8059.95
483.8	7971.89
484.004	8125.49
484.208	8143.92
484.412	8137.77
484.616	8133.68
484.821	8072.24
485.025	7939.12
485.229	8154.16
485.433	7869.49
485.637	8051.76
485.841	7926.83
486.045	7906.35
486.249	8125.49
486.453	8082.48
486.657	8231.98
486.861	8086.58
487.065	7947.31
487.269	7996.46
487.473	7851.06
487.677	7969.84
487.881	8219.69
488.085	8234.03
488.289	8055.86
488.493	8047.66
488.697	8133.68
488.901	8199.21
489.105	8062
489.309	8119.34
489.512	8309.8
489.716	7935.03
489.92	8246.32
490.124	8131.63
490.328	8373.29
490.531	8221.74
490.735	8252.46
490.939	8246.32
491.143	8215.6
491.346	8324.14
491.55	8430.63
491.754	8414.25
491.958	8422.44
492.161	8430.63
492.365	8379.43
492.569	8610.86
492.772	8494.12
492.976	8539.18
493.18	8522.79
493.383	8762.4
493.587	8760.36
493.79	8848.42
493.994	8676.39
494.197	8920.1
494.401	8977.44
494.605	8936.48
494.808	9169.95
495.012	9112.61
495.215	9413.66
495.419	9071.65
495.622	9004.07
495.825	9380.89
496.029	9151.52
496.232	9554.97
496.436	9348.12
496.639	9770.01
496.843	9589.78
497.046	9884.69
497.249	9835.54
497.453	9841.68
497.656	10243.09
497.859	10019.86
498.063	10138.64
498.266	10562.57
498.469	10245.13
498.673	10449.93
498.876	10714.12
499.079	10726.41
499.282	10781.7
499.485	10978.31
499.689	11103.23
499.892	11219.97
500.095	11248.64
500.298	11443.2
500.501	11305.98
500.705	11623.42
500.908	11949.04
501.111	11799.54
501.314	12137.46
501.517	12145.65
501.72	12276.72
501.923	12289.01
502.126	12393.45
502.329	12719.08
502.532	12686.31
502.735	12936.17
502.938	13218.78
503.141	13194.21
503.344	13419.49
503.547	13546.46
503.75	13411.29
503.953	13788.12
504.156	14050.26
504.359	13906.9
504.562	14314.45
504.765	14388.18
504.968	14476.24
505.17	14746.57
505.373	14732.23
505.576	15166.4
505.779	15264.71
505.982	15219.65
506.185	15641.53
506.387	15528.89
506.59	15526.85
506.793	15995.83
506.996	16100.28
507.198	16339.89
507.401	16362.42
507.604	16575.41
507.807	16729
508.009	16903.08
508.212	17111.97
508.415	17435.55
508.617	17415.07
508.82	17316.77
509.022	17611.68
509.225	17947.54
509.428	18054.04
509.63	18359.19
509.833	18469.78
510.035	18611.09
510.238	18471.82
510.44	19231.62
510.643	19305.35
510.845	19268.48
511.048	19377.03
511.25	19716.99
511.453	19731.33
511.655	20573.04
511.858	19981.18
512.06	20321.14
512.262	20712.3
512.465	20450.16
512.667	20857.71
512.87	21183.34
513.072	21164.9
513.274	21689.18
513.477	21519.2
513.679	21887.84
513.881	22328.15
514.084	22428.5
514.286	22453.08
514.488	22856.53
514.69	22932.3
514.893	23343.94
515.095	23073.61
515.297	23173.96
515.499	23558.98
515.701	24193.85
515.904	24191.8
516.106	24238.9
516.308	24441.65
516.51	24793.9
516.712	24906.54
516.914	25054
517.116	25287.46
517.318	25422.63
517.52	25744.16
517.722	25815.84
517.925	26100.51
518.127	26444.57
518.329	26864.4
518.531	26635.03
518.733	27267.85
518.935	27263.75
519.136	27403.02
519.338	27886.34
519.54	27695.88
519.742	28103.42
519.944	28109.57
520.146	28885.75
520.348	28775.16
520.55	28795.64
520.752	28975.86
520.954	29524.71
521.155	29418.22
521.357	29809.38
521.559	29954.79
521.761	30284.51
521.963	30180.06
522.164	30497.5
522.366	30698.2
522.568	30905.04
522.77	31015.63
522.971	31752.9
523.173	31169.23
523.375	31539.91
523.576	31759.05
523.778	31587.02
523.98	32287.42
524.181	32211.65
524.383	32428.73
524.584	32821.94
524.786	32955.06
524.988	32834.23
525.189	33163.95
525.391	33227.44
525.592	33854.12
525.794	33768.1
525.995	33460.91
526.197	33542.83
526.398	33956.52
526.6	34144.93
526.801	33933.99
527.003	34232.99
527.204	34122.4
527.406	34695.83
527.607	34663.07
527.808	35111.57
528.01	34237.09
528.211	34800.28
528.412	35469.97
528.614	35547.79
528.815	34947.73
529.016	35918.47
529.218	35506.83
529.419	35367.57
529.62	35353.23
529.822	35650.19
530.023	35863.18
530.224	35754.63
530.425	35156.63
530.626	35373.71
530.828	35261.07
531.029	36479.61
531.23	35654.28
531.431	36184.71
531.632	36131.46
531.833	36348.54
532.035	35773.06
532.236	36219.52
532.437	36291.2
532.638	36035.2
532.839	36618.88
533.04	36465.28
533.241	36037.25
533.442	36653.69
533.643	36065.92
533.844	36747.9
534.045	36493.95
534.246	36235.91
534.447	36489.85
534.648	36172.42
534.849	36747.9
535.05	36278.91
535.251	36332.16
535.451	36457.09
535.652	36756.09
535.853	36610.68
536.054	36412.03
536.255	36631.16
536.456	36487.81
536.657	37192.31
536.857	36672.12
537.058	36631.16
537.259	36995.7
537.46	36649.6
537.66	36739.71
537.861	36418.17
538.062	36840.06
538.263	36790.91
538.463	36489.85
538.664	36364.93
538.865	36811.38
539.065	36702.84
539.266	36582.01
539.466	36876.92
539.667	36225.67
539.868	36940.41
540.068	36770.43
540.269	36651.64
540.469	36934.26
540.67	36620.92
540.87	36149.89
541.071	36469.37
541.271	36952.69
541.472	36369.02
541.672	36080.26
541.873	35953.29
542.073	36012.68
542.274	36704.89
542.474	36422.27
542.675	35984.01
542.875	36608.64
543.075	36328.06
543.276	36174.47
543.476	37036.66
543.676	36399.74
543.877	36797.05
544.077	35977.86
544.277	36446.85
544.478	36520.57
544.678	36717.18
544.878	36489.85
545.078	36618.88
545.279	36389.5
545.479	36557.44
545.679	36893.3
545.879	36078.21
546.079	36579.96
546.28	36405.89
546.48	35764.87
546.68	36254.34
546.88	36313.73
547.08	36301.44
547.28	36065.92
547.48	36070.02
547.68	36215.43
547.88	36016.77
548.081	36235.91
548.281	36229.76
548.481	36262.53
548.681	36373.12
548.881	36459.13
549.081	36082.31
549.28	36100.74
549.48	36561.53
549.68	36170.37
549.88	36600.44
550.08	36334.21
550.28	36428.41
550.48	35885.7
550.68	36225.67
550.88	35875.46
551.08	36180.61
551.279	36098.69
551.479	35930.76
551.679	36366.98
551.879	35611.28
552.079	36358.78
552.278	36192.9
552.478	36522.62
552.678	35961.48
552.878	36430.46
553.077	35762.82
553.277	35992.2
553.477	36502.14
553.676	35920.52
553.876	36067.97
554.076	35488.4
554.275	35580.56
554.475	35435.15
554.674	35838.6
554.874	35908.23
555.074	35676.81
555.273	35916.42
555.473	35658.38
555.672	35531.4
555.872	35766.92
556.071	35799.69
556.271	35897.99
556.47	35555.98
556.67	35134.1
556.869	35093.14
557.068	35740.3
557.268	35271.31
557.467	35609.23
557.667	35322.51
557.866	35574.41
558.065	35322.51
558.265	35261.07
558.464	35207.83
558.663	35394.19
558.863	34863.77
559.062	35324.56
559.261	34759.32
559.461	35371.66
559.66	34839.19
559.859	35023.51
560.058	34683.55
560.258	34886.29
560.457	34488.99
560.656	34855.57
560.855	34914.97
561.054	35058.32
561.253	34652.83
561.453	34665.11
561.652	34708.12
561.851	34310.82
562.05	34241.18
562.249	34382.49
562.448	34280.1
562.647	34497.18
562.846	34235.04
563.045	34163.36
563.244	34089.63
563.443	34194.08
563.642	33786.54
563.841	34347.68
564.04	33798.82
564.239	33888.93
564.438	33473.2
564.637	33856.17
564.836	33501.87
565.035	33718.95
565.234	33688.23
565.432	33436.33
565.631	33573.55
565.83	33602.22
566.029	33125.04
566.228	33223.34
566.427	33090.23
566.625	32813.75
566.824	32778.93
567.023	33034.93
567.222	32158.4
567.42	33243.82
567.619	32594.62
567.818	32692.92
568.016	32455.36
568.215	32553.66
568.414	32543.42
568.612	32596.67
568.811	32340.67
569.01	32250.56
569.208	31896.26
569.407	32567.99
569.605	31591.11
569.804	32121.54
570.002	31759.05
570.201	32256.7
570.4	31859.4
570.598	31656.65
570.797	31740.61
570.995	31400.65
571.193	31091.41
571.392	31728.33
571.59	31308.49
571.789	31365.84
571.987	31611.59
572.186	31326.92
572.384	30724.82
572.582	30974.67
572.781	30790.36
572.979	30796.5
573.177	30929.62
573.376	30882.52
573.574	30831.32
573.772	30599.9
573.971	30571.22
574.169	30382.81
574.367	30452.44
574.565	30640.86
574.763	30368.48
574.962	30309.08
575.16	29663.97
575.358	30270.17
575.556	29602.53
575.754	30235.36
575.952	29745.89
576.151	30190.3
576.349	29580.01
576.547	29477.61
576.745	29879.01
576.943	30032.61
577.141	29743.84
577.339	29381.35
577.537	29295.34
577.735	29379.31
577.933	29160.17
578.131	29268.72
578.329	29104.88
578.527	28967.66
578.725	29002.48
578.923	28773.11
579.121	28744.44
579.319	28752.63
579.516	28838.64
579.714	28611.32
579.912	28642.04
580.11	28508.92
580.308	28639.99
580.506	28480.25
580.704	27886.34
580.901	28314.36
581.099	28287.74
581.297	28146.43
581.495	28156.67
581.692	27964.16
581.89	27806.47
582.088	27894.53
582.285	27552.52
582.483	27988.74
582.681	27378.44
582.878	27419.4
583.076	27093.77
583.274	27656.96
583.471	27347.72
583.669	27378.44
583.866	27570.95
584.064	27165.45
584.262	27120.4
584.459	27411.21
584.657	26630.93
584.854	27163.4
585.052	26790.67
585.249	26788.63
585.447	26649.36
585.644	26317.59
585.841	26766.1
586.039	26663.7
586.236	26346.26
586.434	26356.5
586.631	26106.65
586.828	26112.8
587.026	26329.88
587.223	25819.94
587.42	26043.17
587.618	26024.73
587.815	25871.14
588.012	25416.49
588.21	25500.45
588.407	25654.05
588.604	25418.53
588.801	25549.6
588.999	25461.54
589.196	25264.94
589.393	25406.25
589.59	25434.92
589.787	25025.32
589.984	24916.78
590.182	25097
590.379	24998.7
590.576	24859.44
590.773	24808.24
590.97	24777.52
591.167	24759.09
591.364	24507.19
591.561	24613.68
591.758	24306.49
591.955	24415.03
592.152	24329.02
592.349	24107.83
592.546	24505.14
592.743	24044.35
592.94	23909.18
593.137	23911.23
593.334	24267.58
593.531	23651.14
593.727	23970.62
593.924	23515.97
594.121	23534.4
594.318	23864.13
594.515	23432.01
594.712	23892.8
594.908	23659.33
595.105	23460.68
595.302	22993.74
595.499	23421.77
595.696	23163.72
595.892	23133
596.089	22952.78
596.286	22977.36
596.482	22838.09
596.679	22692.69
596.876	22643.54
597.072	22489.94
597.269	22602.58
597.466	22621.01
597.662	22436.69
597.859	22403.92
598.055	22332.25
598.252	22051.67
598.448	22238.04
598.645	22053.72
598.841	22004.57
599.038	22205.27
599.234	21969.76
599.431	21650.27
599.627	21730.14
599.824	21902.17
600.02	21764.96
600.217	21883.74
600.413	21521.25
600.609	21463.91
600.806	21447.52
601.002	21533.54
601.198	21269.35
601.395	21410.66
601.591	21039.98
601.787	21134.18
601.984	20763.5
602.18	21212.01
602.376	21095.27
602.572	20992.87
602.769	20769.65
602.965	20669.3
603.161	20947.82
603.357	20792.17
603.553	20659.06
603.75	20538.23
603.946	20464.5
604.142	20437.87
604.338	20243.32
604.534	20511.6
604.73	20132.73
604.926	20175.73
605.122	20210.55
605.318	20106.1
605.514	20267.89
605.71	19850.11
605.906	19927.93
606.102	19925.88
606.298	19960.7
606.494	19880.83
606.69	19899.26
606.886	19579.78
607.082	19508.1
607.278	19446.66
607.474	19331.97
607.67	19475.33
607.866	19264.39
608.062	19727.23
608.257	19555.2
608.453	19512.19
608.649	19153.8
608.845	19012.49
609.041	19303.3
609.236	19188.61
609.432	19032.97
609.628	18996.1
609.824	18791.31
610.019	19233.67
610.215	18772.88
610.411	19000.2
610.606	18932.62
610.802	18879.37
610.998	18733.96
611.193	18930.57
611.389	18793.36
611.584	18582.42
611.78	18432.91
611.976	18449.3
612.171	18844.56
612.367	18695.05
612.562	18721.68
612.758	18437.01
612.953	18260.88
613.149	18822.03
613.344	18422.67
613.539	18705.29
613.735	18400.15
613.93	18441.11
614.126	18140.05
614.321	18207.64
614.517	17904.54
614.712	18006.94
614.907	18178.97
615.103	18234.26
615.298	17892.25
615.493	18201.49
615.688	17773.47
615.884	18195.35
616.079	17933.21
616.274	18066.33
616.47	17820.57
616.665	17873.82
616.86	17269.67
617.055	17578.91
617.25	17519.52
617.445	17603.49
617.641	17296.29
617.836	17587.1
618.031	17433.5
618.226	17658.78
618.421	17505.18
618.616	17380.26
618.811	17013.67
619.006	17546.14
619.201	17007.53
619.396	17009.58
619.591	16524.21
619.786	16927.66
619.981	16802.73
620.176	16761.77
620.371	16419.76
620.566	16812.97
620.761	16374.7
620.956	16616.37
621.151	16497.58
621.346	16565.17
621.541	16073.65
621.735	16581.55
621.93	15952.82
622.125	16223.16
622.32	15901.62
622.515	15936.44
622.709	15756.22
622.904	15555.52
623.099	15516.61
623.294	15958.97
623.488	15426.5
623.683	15588.28
623.878	15215.55
624.072	15313.86
624.267	15356.86
624.462	15279.04
624.656	15137.73
624.851	15051.72
625.046	14848.97
625.24	14963.65
625.435	14851.02
625.629	14912.46
625.824	14705.61
626.018	14672.84
626.213	14216.15
626.407	14549.96
626.602	14101.46
626.796	14470.09
626.991	14408.65
627.185	14244.82
627.38	13919.19
627.574	14128.08
627.768	13945.81
627.963	13861.85
628.157	13736.92
628.352	13734.87
628.546	13499.36
628.74	13552.6
628.935	13296.61
629.129	13568.99
629.323	13130.72
629.517	13272.03
629.712	13149.15
629.906	13237.22
630.1	13003.75
630.294	12964.84
630.489	12932.07
630.683	12913.64
630.877	12690.41
631.071	12688.36
631.265	12762.09
631.459	12559.34
631.653	12516.33
631.848	12485.61
632.042	12504.04
632.236	12420.08
632.43	12223.47
632.624	12534.76
632.818	11910.13
633.012	11930.61
633.206	11885.56
633.4	12088.31
633.594	11846.65
633.788	11985.91
633.982	11877.37
634.176	11641.85
634.369	11521.02
634.563	11471.87
634.757	11480.06
634.951	11639.8
635.145	11594.75
635.339	11361.28
635.533	11265.02
635.726	11408.38
635.92	11146.24
636.114	11170.82
636.308	11027.46
636.501	11002.88
636.695	11097.09
636.889	10935.3
637.083	10605.58
637.276	10869.76
637.47	10886.15
637.664	10798.09
637.857	10832.9
638.051	10572.81
638.244	10585.1
638.438	10476.55
638.632	10435.6
638.825	10378.25
639.019	10292.24
639.212	10152.98
639.406	10109.97
639.599	10273.81
639.793	10089.49
639.986	10095.63
640.18	10136.59
640.373	9907.22
640.567	9901.08
640.76	9718.81
640.954	9823.25
641.147	9700.37
641.34	9692.18
641.534	9710.61
641.727	9585.69
641.92	9659.42
642.114	9528.35
642.307	9636.89
642.5	9436.19
642.694	9110.56
642.887	9284.64
643.08	9268.25
643.273	9237.53
643.467	9307.16
643.66	9184.29
643.853	9016.35
644.046	8967.2
644.239	9063.46
644.432	8913.95
644.626	8780.84
644.819	8977.44
645.012	8700.97
645.205	8901.67
645.398	8727.59
645.591	8541.22
645.784	8629.29
645.977	8541.22
646.17	8553.51
646.363	8567.85
646.556	8387.63
646.749	8340.52
646.942	8412.2
647.135	8205.36
647.328	8258.6
647.521	8352.81
647.714	8154.16
647.907	8172.59
648.099	7994.42
648.292	8199.21
648.485	8070.19
648.678	7896.11
648.871	7988.27
649.064	7887.92
649.256	8045.62
649.449	7679.03
649.642	7746.61
649.835	7824.44
650.027	7879.73
650.22	7656.5
650.413	7613.49
650.605	7463.99
650.798	7509.05
650.991	7513.14
651.183	7541.82
651.376	7511.1
651.568	7509.05
651.761	7367.74
651.954	7294.01
652.146	7435.32
652.339	7232.57
652.531	7230.52
652.724	6982.72
652.916	7121.98
653.109	7136.32
653.301	7154.75
653.494	7119.93
653.686	6835.27
653.879	6992.96
654.071	6972.48
654.263	6939.71
654.456	6843.46
654.648	6952
654.84	6614.09
655.033	6591.56
655.225	6745.16
655.417	6605.89
655.61	6745.16
655.802	6587.46
655.994	6474.82
656.186	6646.85
656.379	6458.44
656.571	6458.44
656.763	6302.79
656.955	6468.68
657.148	6257.74
657.34	6149.2
657.532	6310.99
657.724	6245.45
657.916	6243.4
658.108	6259.79
658.3	6186.06
658.492	6114.38
658.684	6169.68
658.876	6042.7
659.068	5850.19
659.26	6016.08
659.452	6030.41
659.644	5973.07
659.836	5897.3
660.028	5842
660.22	5819.47
660.412	5749.84
660.604	5741.65
660.796	5727.32
660.988	5712.98
661.18	5702.74
661.372	5596.25
661.563	5833.81
661.755	5682.26
661.947	5594.2
662.139	5397.59
662.331	5596.25
662.522	5465.18
662.714	5495.89
662.906	5471.32
663.097	5352.54
663.289	5448.79
663.481	5282.91
663.673	5405.78
663.864	5373.02
664.056	5270.62
664.247	5360.73
664.439	5104.73
664.631	5200.99
664.822	5137.5
665.014	5305.43
665.205	5018.72
665.397	5033.05
665.588	5049.44
665.78	4979.81
665.971	4969.57
666.163	4985.95
666.354	4891.74
666.546	4951.14
666.737	4682.85
666.929	4770.91
667.12	4858.98
667.311	4791.39
667.503	4820.07
667.694	4785.25
667.885	4770.91
668.077	4607.08
668.268	4672.61
668.459	4772.96
668.651	4555.88
668.842	4516.97
669.033	4615.27
669.224	4639.84
669.416	4516.97
669.607	4602.98
669.798	4588.64
669.989	4455.53
670.18	4531.3
670.371	4428.9
670.563	4365.42
670.754	4568.16
670.945	4359.27
671.136	4353.13
671.327	4258.92
671.518	4353.13
671.709	4283.5
671.9	4301.93
672.091	4230.25
672.282	4181.1
672.473	4154.48
672.664	4228.2
672.855	4164.72
673.046	4134
673.237	4156.52
673.428	4140.14
673.619	4174.95
673.809	4105.32
674	4088.94
674.191	4179.05
674.382	3974.25
674.573	4064.36
674.764	3957.87
674.954	4039.79
675.145	3937.39
675.336	3841.14
675.527	3837.04
675.717	3755.12
675.908	3937.39
676.099	3878
676.289	3773.55
676.48	3998.83
676.671	3789.94
676.861	3656.82
677.052	3798.13
677.243	3693.68
677.433	3691.63
677.624	3736.69
677.814	3607.67
678.005	3656.82
678.195	3765.36
678.386	3617.91
678.576	3566.71
678.767	3677.3
678.957	3732.59
679.148	3599.48
679.338	3509.37
679.529	3538.04
679.719	3648.63
679.909	3634.29
680.1	3593.33
680.29	3507.32
680.481	3413.11
680.671	3370.1
680.861	3460.21
681.052	3540.08
681.242	3337.34
681.432	3318.9
681.622	3404.92
681.813	3423.35
682.003	3296.38
682.193	3204.22
682.383	3351.67
682.573	3495.03
682.764	3265.66
682.954	3181.69
683.144	3314.81
683.334	3368.06
683.524	3304.57
683.714	3271.8
683.904	3253.37
684.094	3296.38
684.284	3253.37
684.474	3175.55
684.664	3224.7
684.854	3081.34
685.044	3114.11
685.234	3183.74
685.424	3130.49
685.614	3083.39
685.804	3161.21
685.994	3060.86
686.184	3138.68
686.374	2980.99
686.564	3034.24
686.753	2991.23
686.943	3067
687.133	3054.72
687.323	3107.96
687.513	3038.33
687.702	2894.97
687.892	3052.67
688.082	2874.49
688.272	2937.98
688.461	2935.93
688.651	2970.75
688.841	2909.31
689.03	2962.56
689.22	2843.78
689.41	2851.97
689.599	2894.97
689.789	2786.43
689.979	2831.49
690.168	2835.58
690.358	2786.43
690.547	2888.83
690.737	2722.95
690.926	2819.2
691.116	2741.38
691.305	2704.51
691.495	2700.42
691.684	2786.43
691.874	2712.71
692.063	2741.38
692.252	2702.47
692.442	2669.7
692.631	2679.94
692.82	2704.51
693.01	2571.4
693.199	2546.82
693.388	2618.5
693.578	2567.3
693.767	2585.73
693.956	2548.87
694.146	2587.78
694.335	2544.77
694.524	2483.33
694.713	2509.96
694.902	2425.99
695.092	2608.26
695.281	2485.38
695.47	2526.34
695.659	2516.1
695.848	2487.43
696.037	2540.68
696.226	2518.15
696.415	2403.46
696.604	2434.18
696.793	2450.57
696.982	2509.96
697.171	2444.42
697.36	2434.18
697.549	2452.61
697.738	2393.22
697.927	2366.6
698.116	2425.99
698.305	2391.17
698.494	2282.63
698.683	2387.08
698.872	2456.71
699.061	2350.21
699.25	2436.23
699.438	2284.68
699.627	2385.03
699.816	2442.37
700.005	2405.51
700.193	2393.22
700.382	2325.64
700.571	2313.35
700.76	2342.02
700.948	2253.96
701.137	2425.99
701.326	2286.73
701.514	2448.52
701.703	2196.62
701.892	2415.75
702.08	2405.51
702.269	2464.9
702.457	2335.88
702.646	2417.8
702.834	2290.82
703.023	2335.88
703.212	2294.92
703.4	2380.93
703.589	2237.58
703.777	2282.63
703.965	2272.39
704.154	2256.01
704.342	2256.01
704.531	2221.19
704.719	2286.73
704.907	2354.31
705.096	2213
705.284	2268.3
705.472	2296.97
705.661	2151.56
705.849	2307.21
706.037	2280.58
706.226	2229.38
706.414	2321.54
706.602	2266.25
706.79	2245.77
706.979	2182.28
707.167	2329.74
707.355	2204.81
707.543	2190.47
707.731	2245.77
707.919	2274.44
708.107	2159.75
708.296	2237.58
708.484	2180.23
708.672	2239.62
708.86	2165.9
709.048	2239.62
709.236	2213
709.424	2233.48
709.612	2122.89
709.8	2206.86
709.988	2241.67
710.176	2059.4
710.364	2243.72
710.551	2206.86
710.739	2204.81
710.927	2167.95
711.115	2245.77
711.303	2282.63
711.491	2165.9
711.679	2270.34
711.866	2182.28
712.054	2190.47
712.242	2186.38
712.43	2294.92
712.617	2131.08
712.805	2231.43
712.993	2210.95
713.181	2188.43
713.368	2233.48
713.556	2288.78
713.744	2110.6
713.931	2243.72
714.119	2276.49
714.306	2196.62
714.494	2192.52
714.682	2124.94
714.869	2188.43
715.057	2213
715.244	2233.48
715.432	2194.57
715.619	2180.23
715.807	2243.72
715.994	2213
716.182	2137.23
716.369	2092.17
716.556	2092.17
716.744	2129.03
716.931	2153.61
717.119	2225.29
717.306	2192.52
717.493	2075.79
717.681	2186.38
717.868	2077.83
718.055	2077.83
718.242	2067.6
718.43	2143.37
718.617	2206.86
718.804	2073.74
718.991	2133.13
719.179	2153.61
719.366	2102.41
719.553	2088.07
719.74	2118.79
719.927	2124.94
720.114	2147.47
720.301	2131.08
720.488	2204.81
720.676	2159.75
720.863	2051.21
721.05	2126.99
721.237	2122.89
721.424	2106.51
721.611	2188.43
721.798	2075.79
721.985	2047.12
722.172	2067.6
722.358	2176.14
722.545	2124.94
722.732	2112.65
722.919	2090.12
723.106	2114.7
723.293	2059.4
723.48	2116.75
723.667	2016.4
723.853	2059.4
724.04	2229.38
724.227	1944.72
724.414	1975.44
724.6	2124.94
724.787	2165.9
724.974	1897.61
725.161	2071.69
725.347	1936.53
725.534	2151.56
725.72	2073.74
725.907	2073.74
726.094	2053.26
726.28	2137.23
726.467	1993.87
726.653	2083.98
726.84	2143.37
727.027	2075.79
727.213	1881.23
727.4	2131.08
727.586	2026.64
727.773	2059.4
727.959	2002.06
728.145	2116.75
728.332	2010.25
728.518	2024.59
728.705	2002.06
728.891	2045.07
729.077	2043.02
729.264	2018.44
729.45	2024.59
729.636	2090.12
729.823	2004.11
730.009	1918.09
730.195	2026.64
730.382	2045.07
730.568	1981.58
730.754	2094.22
730.94	1961.1
731.126	2018.44
731.313	1934.48
731.499	1973.39
731.685	2000.01
731.871	2092.17
732.057	2118.79
732.243	2016.4
732.429	2049.16
732.615	2040.97
732.801	1987.72
732.987	1969.29
733.173	1967.24
733.359	1950.86
733.545	2036.88
733.731	2002.06
733.917	2038.92
734.103	1885.33
734.289	1895.57
734.475	1920.14
734.661	2083.98
734.847	2049.16
735.033	1961.1
735.219	1936.53
735.404	1971.34
735.59	1870.99
735.776	1905.81
735.962	1952.91
736.148	1959.05
736.333	1887.37
736.519	1893.52
736.705	2026.64
736.89	1821.84
737.076	1967.24
737.262	1918.09
737.447	1936.53
737.633	1850.51
737.819	2014.35
738.004	1836.17
738.19	1993.87
738.375	1852.56
738.561	1948.81
738.747	1868.94
738.932	1907.85
739.118	1914
739.303	1784.98
739.489	1879.18
739.674	1981.58
739.859	1848.46
740.045	1817.74
740.23	1952.91
740.416	1776.78
740.601	1879.18
740.786	1905.81
740.972	1907.85
741.157	1827.98
741.342	1772.69
741.528	1864.85
741.713	1813.65
741.898	1795.22
742.084	1897.61
742.269	1852.56
742.454	1793.17
742.639	1868.94
742.824	1713.3
743.01	1811.6
743.195	1756.3
743.38	1719.44
743.565	1778.83
743.75	1705.1
743.935	1780.88
744.12	1705.1
744.305	1707.15
744.49	1707.15
744.675	1684.62
744.86	1696.91
745.045	1719.44
745.23	1688.72
745.415	1651.86
745.6	1698.96
745.785	1629.33
745.97	1621.14
746.155	1744.02
746.34	1647.76
746.525	1582.23
746.71	1668.24
746.895	1637.52
747.079	1567.89
747.264	1647.76
747.449	1582.23
747.634	1741.97
747.819	1574.03
748.003	1545.36
748.188	1539.22
748.373	1551.51
748.557	1545.36
748.742	1418.39
748.927	1541.27
749.111	1578.13
749.296	1451.16
749.481	1545.36
749.665	1465.49
749.85	1465.49
750.034	1406.1
750.219	1467.54
750.404	1422.48
750.588	1428.63
750.773	1461.4
750.957	1467.54
751.141	1485.97
751.326	1457.3
751.51	1436.82
751.695	1344.66
751.879	1318.04
752.064	1508.5
752.248	1434.77
752.432	1461.4
752.617	1350.81
752.801	1334.42
752.985	1377.43
753.17	1395.86
753.354	1408.15
753.538	1322.13
753.722	1277.08
753.907	1252.5
754.091	1264.79
754.275	1295.51
754.459	1287.32
754.643	1229.98
754.828	1260.7
755.012	1252.5
755.196	1352.85
755.38	1248.41
755.564	1182.87
755.748	1193.11
755.932	1250.46
756.116	1229.98
756.3	1307.8
756.484	1117.34
756.668	1209.5
756.852	1078.43
757.036	1135.77
757.22	1197.21
757.404	1115.29
757.588	1111.19
757.772	1119.39
757.956	1051.8
758.14	1123.48
758.323	1182.87
758.507	1098.91
758.691	1059.99
758.875	1111.19
759.059	1019.04
759.242	1115.29
759.426	1049.75
759.61	1096.86
759.794	1035.42
759.977	1057.95
760.161	1041.56
760.345	1047.71
760.528	1059.99
760.712	1078.43
760.895	1041.56
761.079	928.92
761.263	1072.28
761.446	1045.66
761.63	986.27
761.813	1039.51
761.997	920.73
762.18	1008.8
762.364	953.5
762.547	961.69
762.731	914.59
762.914	922.78
763.098	945.31
763.281	984.22
763.464	937.12
763.648	994.46
763.831	959.64
764.015	959.64
764.198	978.08
764.381	984.22
764.564	869.53
764.748	910.49
764.931	902.3
765.114	959.64
765.297	877.73
765.481	816.29
765.664	830.62
765.847	853.15
766.03	926.88
766.213	918.68
766.397	894.11
766.58	853.15
766.763	914.59
766.946	894.11
767.129	902.3
767.312	828.57
767.495	873.63
767.678	894.11
767.861	947.36
768.044	847.01
768.227	967.84
768.41	943.26
768.593	830.62
768.776	744.61
768.959	849.05
769.142	902.3
769.324	877.73
769.507	781.47
769.69	791.71
769.873	842.91
770.056	820.38
770.239	812.19
770.421	808.09
770.604	793.76
770.787	826.53
770.97	783.52
771.152	777.37
771.335	734.37
771.518	728.22
771.7	787.61
771.883	840.86
772.066	760.99
772.248	767.13
772.431	720.03
772.613	885.92
772.796	722.08
772.978	806.05
773.161	734.37
773.343	779.42
773.526	758.94
773.708	693.41
773.891	689.31
774.073	658.59
774.256	652.45
774.438	687.26
774.621	711.84
774.803	701.6
774.985	677.02
775.168	771.23
775.35	715.94
775.532	736.42
775.715	683.17
775.897	693.41
776.079	681.12
776.261	765.09
776.444	674.98
776.626	650.4
776.808	568.48
776.99	648.35
777.173	605.35
777.355	736.42
777.537	740.51
777.719	681.12
777.901	607.39
778.083	631.97
778.265	572.58
778.447	615.59
778.629	613.54
778.811	593.06
778.993	652.45
779.175	672.93
779.357	601.25
779.539	666.78
779.721	605.35
779.903	617.63
780.085	556.19
780.267	558.24
780.449	593.06
780.631	562.34
780.812	609.44
780.994	574.63
781.176	527.52
781.358	525.47
781.54	615.59
781.721	504.99
781.903	580.77
782.085	607.39
782.267	560.29
782.448	478.37
782.63	459.94
782.812	560.29
782.993	525.47
783.175	509.09
783.357	482.47
783.538	525.47
783.72	568.48
783.901	511.14
784.083	447.65
784.264	494.76
784.446	384.16
784.627	445.6
784.809	455.84
784.99	466.08
785.172	554.15
785.353	480.42
785.535	459.94
785.716	435.36
785.897	455.84
786.079	371.88
786.26	455.84
786.441	410.79
786.623	449.7
786.804	447.65
786.985	404.64
787.167	427.17
787.348	408.74
787.529	523.43
787.71	531.62
787.891	441.51
788.073	386.21
788.254	410.79
788.435	427.17
788.616	390.31
788.797	369.83
788.978	388.26
789.159	365.73
789.34	421.03
789.522	386.21
789.703	363.69
789.884	357.54
790.065	396.45
790.246	394.4
790.427	302.25
790.607	437.41
790.788	320.68
790.969	312.49
791.15	378.02
791.331	345.25
791.512	361.64
791.693	369.83
791.874	384.16
792.054	369.83
792.235	310.44
792.416	353.45
792.597	318.63
792.778	314.53
792.958	361.64
793.139	298.15
793.32	357.54
793.5	308.39
793.681	349.35
793.862	310.44
794.042	306.34
794.223	226.47
794.404	326.82
794.584	326.82
794.765	300.2
794.945	380.07
795.126	302.25
795.306	271.53
795.487	314.53
795.667	324.77
795.848	373.92
796.028	304.29
796.209	281.77
796.389	322.73
796.57	373.92
796.75	230.57
796.93	273.57
797.111	277.67
797.291	353.45
797.471	232.62
797.652	265.38
797.832	281.77
798.012	191.66
798.192	201.9
798.373	275.62
798.553	240.81
798.733	259.24
798.913	230.57
799.093	249
799.274	265.38
799.454	261.29
799.634	283.81
799.814	267.43
799.994	259.24
800.174	308.39
800.354	285.86
800.534	193.7
800.714	191.66
800.894	249
801.074	265.38
801.254	259.24
801.434	183.46
801.614	175.27
801.794	205.99
801.974	744.61
802.154	226.47
802.334	251.05
802.514	130.22
802.693	275.62
802.873	230.57
803.053	359.59
803.233	265.38
803.413	212.14
803.592	154.79
803.772	257.19
803.952	162.98
804.131	183.46
804.311	240.81
804.491	251.05
804.67	191.66
804.85	212.14
805.03	246.95
805.209	296.1
805.389	171.18
805.568	281.77
805.748	117.93
805.928	134.31
806.107	210.09
806.287	298.15
806.466	156.84
806.646	179.37
806.825	253.09
807.004	165.03
807.184	218.28
807.363	271.53
807.543	148.65
807.722	171.18
807.901	150.7
808.081	167.08
808.26	142.5
808.439	191.66
808.619	144.55
808.798	203.94
808.977	138.41
809.156	265.38
809.336	218.28
809.515	197.8
809.694	156.84
809.873	171.18
810.052	175.27
810.231	251.05
810.411	156.84
810.59	191.66
810.769	160.94
810.948	169.13
811.127	109.74
811.306	132.26
811.485	154.79
811.664	126.12
811.843	156.84
812.022	191.66
812.201	150.7
812.38	189.61
812.559	201.9
812.737	205.99
812.916	142.5
813.095	144.55
813.274	197.8
813.453	99.5
813.632	148.65
813.811	187.56
813.989	148.65
814.168	144.55
814.347	76.97
814.526	148.65
814.704	162.98
814.883	93.35
815.062	140.46
815.24	181.42
815.419	158.89
815.598	146.6
815.776	52.39
815.955	152.74
816.133	64.68
816.312	122.02
816.49	179.37
816.669	210.09
816.847	158.89
817.026	87.21
817.204	89.26
817.383	156.84
817.561	162.98
817.74	167.08
817.918	148.65
818.097	91.31
818.275	111.78
818.453	91.31
818.632	214.18
818.81	167.08
818.988	150.7
819.167	79.02
819.345	154.79
819.523	140.46
819.701	113.83
819.879	103.59
820.058	208.04
820.236	140.46
820.414	134.31
820.592	124.07
820.77	126.12
820.948	91.31
821.127	95.4
821.305	81.07
821.483	111.78
821.661	132.26
821.839	64.68
822.017	101.55
822.195	167.08
822.373	93.35
822.551	91.31
822.729	234.66
822.907	105.64
823.085	154.79
823.262	97.45
823.44	97.45
823.618	85.16
823.796	142.5
823.974	113.83
824.152	148.65
824.329	134.31
824.507	56.49
824.685	93.35
824.863	109.74
825.04	109.74
825.218	181.42
825.396	126.12
825.574	44.2
825.751	167.08
825.929	156.84
826.107	46.25
826.284	152.74
826.462	175.27
826.639	76.97
826.817	76.97
826.994	64.68
827.172	89.26
827.349	146.6
827.527	103.59
827.704	93.35
827.882	126.12
828.059	58.54
828.237	130.22
828.414	126.12
828.591	-2.9
828.769	148.65
828.946	68.78
829.124	38.06
829.301	122.02
829.478	68.78
829.655	62.63
829.833	158.89
830.01	89.26
830.187	79.02
830.364	36.01
830.542	115.88
830.719	103.59
830.896	99.5
831.073	27.82
831.25	156.84
831.427	111.78
831.604	132.26
831.782	95.4
831.959	97.45
832.136	111.78
832.313	93.35
832.49	72.87
832.667	79.02
832.844	74.92
833.021	36.01
833.198	154.79
833.374	107.69
833.551	68.78
833.728	107.69
833.905	89.26
834.082	42.15
834.259	156.84
834.436	70.83
834.612	93.35
834.789	152.74
834.966	68.78
835.143	117.93
835.319	-2.9
835.496	81.07
835.673	50.35
835.85	97.45
836.026	68.78
836.203	105.64
836.38	36.01
836.556	66.73
836.733	21.67
836.909	154.79
837.086	19.63
837.262	74.92
837.439	87.21
837.616	60.59
837.792	76.97
837.968	62.63
838.145	9.39
838.321	115.88
838.498	64.68
838.674	158.89
838.851	107.69
839.027	66.73
839.203	60.59
839.38	5.29
839.556	124.07
839.732	136.36
839.909	27.82
840.085	9.39
840.261	25.77
840.437	122.02
840.614	66.73
840.79	126.12
840.966	19.63
841.142	27.82
841.318	1.19
841.494	36.01
841.671	52.39
841.847	74.92
842.023	66.73
842.199	113.83
842.375	21.67
842.551	23.72
842.727	58.54
842.903	9.39
843.079	-0.85
843.255	81.07
843.431	93.35
843.607	89.26
843.783	70.83
843.959	36.01
844.134	54.44
844.31	93.35
844.486	48.3
844.662	60.59
844.838	9.39
845.013	7.34
845.189	173.22
845.365	68.78
845.541	70.83
845.716	68.78
845.892	115.88
846.068	99.5
846.244	91.31
846.419	126.12
846.595	19.63
846.77	95.4
846.946	36.01
847.122	25.77
847.297	13.48
847.473	87.21
847.648	36.01
847.824	-15.19
847.999	9.39
848.175	83.11
848.35	1.19
848.526	5.29
848.701	95.4
848.876	25.77
849.052	50.35
849.227	25.77
849.403	124.07
849.578	62.63
849.753	-4.95
849.929	140.46
850.104	-37.72
850.279	-2.9
850.454	11.43
850.63	128.17
850.805	74.92
850.98	52.39
851.155	89.26
851.33	66.73
851.505	-15.19
851.681	40.11
851.856	13.48
852.031	52.39
852.206	68.78
852.381	-52.05
852.556	-11.09
852.731	38.06
852.906	40.11
853.081	50.35
853.256	113.83
853.431	107.69
853.606	33.96
853.781	-4.95
853.956	5.29
854.131	128.17
854.305	11.43
854.48	17.58
854.655	-9.05
854.83	-19.29
855.005	58.54
855.18	42.15
855.354	-31.57
855.529	62.63
855.704	-19.29
855.879	36.01
856.053	33.96
856.228	54.44
856.403	-15.19
856.577	36.01
856.752	-15.19
856.926	83.11
857.101	-37.72
857.276	62.63
857.45	40.11
857.625	99.5
857.799	54.44
857.974	-27.48
858.148	-9.05
858.323	46.25
858.497	3.24
858.672	91.31
858.846	31.91
859.02	70.83
859.195	27.82
859.369	-25.43
859.543	33.96
859.718	-13.14
859.892	27.82
860.066	-13.14
860.241	29.87
860.415	-7
860.589	40.11
860.763	-2.9
860.938	1.19
861.112	38.06
861.286	38.06
861.46	62.63
861.634	85.16
861.808	76.97
861.982	29.87
862.157	-35.67
862.331	5.29
862.505	36.01
862.679	-19.29
862.853	9.39
863.027	-70.48
863.201	115.88
863.375	11.43
863.549	1.19
863.722	-2.9
863.896	81.07
864.07	48.3
864.244	68.78
864.418	7.34
864.592	64.68
864.766	17.58
864.939	-2.9
865.113	38.06
865.287	66.73
865.461	-33.62
865.634	91.31
865.808	-9.05
865.982	44.2
866.156	-19.29
866.329	-31.57
866.503	40.11
866.676	50.35
866.85	50.35
867.024	9.39
867.197	79.02
867.371	17.58
867.544	66.73
867.718	-2.9
867.891	27.82
868.065	-25.43
868.238	27.82
868.412	107.69
868.585	40.11
868.759	-7
868.932	-13.14
869.105	15.53
869.279	-9.05
869.452	64.68
869.625	99.5
869.799	-9.05
869.972	-31.57
870.145	-23.38
870.319	91.31
870.492	31.91
870.665	54.44
870.838	-13.14
871.011	-4.95
871.185	9.39
871.358	50.35
871.531	76.97
871.704	50.35
871.877	42.15
872.05	42.15
872.223	1.19
872.396	42.15
872.569	79.02
872.742	-23.38
872.915	58.54
873.088	58.54
873.261	29.87
873.434	81.07
873.607	33.96
873.78	87.21
873.953	-0.85
874.126	52.39
874.299	74.92
874.471	50.35
874.644	25.77
874.817	111.78
874.99	91.31
875.163	-35.67
875.335	115.88
875.508	83.11
875.681	13.48
875.853	9.39
876.026	-37.72
876.199	27.82
876.371	29.87
876.544	15.53
876.717	19.63
876.889	-35.67
877.062	85.16
877.234	-21.33
877.407	62.63
877.579	36.01
877.752	42.15
877.924	-80.72
878.097	62.63
878.269	29.87
878.442	-2.9
878.614	25.77
878.786	48.3
878.959	-9.05
879.131	19.63
879.303	1.19
879.476	66.73
879.648	-33.62
879.82	-0.85
879.993	33.96
880.165	19.63
880.337	13.48
880.509	79.02
880.681	-74.58
880.854	-15.19
881.026	50.35
881.198	74.92
881.37	-9.05
881.542	-13.14
881.714	-15.19
881.886	-29.52
882.058	-13.14
882.23	-25.43
882.402	1.19
882.574	36.01
882.746	-93.01
882.918	13.48
883.09	29.87
883.262	-0.85
883.434	27.82
883.606	-7
883.778	-23.38
883.95	85.16
884.122	-0.85
884.293	70.83
884.465	33.96
884.637	85.16
884.809	42.15
884.98	70.83
885.152	3.24
885.324	9.39
885.496	50.35
885.667	-13.14
885.839	-7
886.011	83.11
886.182	-15.19
886.354	3.24
886.525	99.5
886.697	54.44
886.869	-78.68
887.04	-15.19
887.212	52.39
887.383	60.59
887.555	17.58
887.726	52.39
887.897	117.93
888.069	60.59
888.24	17.58
888.412	-47.96
888.583	23.72
888.754	-37.72
888.926	-9.05
889.097	-15.19
889.268	5.29
889.44	42.15
889.611	-45.91
889.782	13.48
889.953	68.78
890.125	27.82
890.296	13.48
890.467	-17.24
890.638	105.64
890.809	83.11
890.98	58.54
891.151	13.48
891.323	42.15
891.494	44.2
891.665	25.77
891.836	1.19
892.007	-21.33
892.178	-4.95
892.349	74.92
892.52	15.53
892.691	11.43
892.862	13.48
893.032	42.15
893.203	-43.86
893.374	33.96
893.545	66.73
893.716	-19.29
893.887	25.77
894.057	1.19
894.228	9.39
894.399	-11.09
894.57	38.06
894.74	9.39
894.911	-39.76
895.082	-37.72
895.253	66.73
895.423	-21.33
895.594	5.29
895.764	21.67
895.935	-15.19
896.106	27.82
896.276	46.25
896.447	50.35
896.617	-2.9
896.788	11.43
896.958	50.35
897.129	33.96
897.299	1.19
897.47	56.49
897.64	-7
897.81	11.43
897.981	29.87
898.151	60.59
898.322	97.45
898.492	-47.96
898.662	9.39
898.832	-23.38
899.003	60.59
899.173	-62.29
899.343	46.25
899.513	29.87
