Data from USB4F104151__2__13-10-07-988.txt Node

Date: Fri Mar 14 13:10:07 EDT 2025
User: louis
Spectrometer: USB4F10415
Trigger mode: 4
Integration Time (sec): 2.000000E-2
Scans to average: 1
Electric dark correction enabled: true
Nonlinearity correction enabled: false
Boxcar width: 0
XAxis mode: Wavelengths
Number of Pixels in Spectrum: 3648
>>>>>Begin Spectral Data<<<<<
178.204	-96.08
178.424	-96.08
178.644	-96.08
178.864	-67.41
179.084	-100.18
179.304	-16.21
179.524	2.22
179.744	39.08
179.964	6.31
180.184	-57.17
180.404	-12.12
180.624	47.27
180.844	26.79
181.064	-75.6
181.283	41.13
181.503	-14.17
181.723	12.46
181.943	-38.74
182.163	114.86
182.383	55.47
182.602	41.13
182.822	-22.36
183.042	47.27
183.262	6.31
183.482	82.09
183.701	51.37
183.921	63.66
184.141	-36.69
184.361	30.89
184.58	65.71
184.8	-16.21
185.02	49.32
185.239	55.47
185.459	80.04
185.679	94.38
185.898	-5.97
186.118	2.22
186.338	80.04
186.557	47.27
186.777	14.51
186.997	57.51
187.216	88.23
187.436	59.56
187.655	112.81
187.875	-10.07
188.095	4.27
188.314	32.94
188.534	69.8
188.753	-40.79
188.973	92.33
189.192	39.08
189.412	-24.4
189.631	47.27
189.851	26.79
190.07	71.85
190.29	-48.98
190.509	32.94
190.729	20.65
190.948	26.79
191.168	123.05
191.387	75.95
191.607	-16.21
191.826	-16.21
192.045	20.65
192.265	39.08
192.484	10.41
192.704	-36.69
192.923	39.08
193.142	161.96
193.362	22.7
193.581	0.17
193.8	41.13
194.02	123.05
194.239	20.65
194.458	22.7
194.678	53.42
194.897	90.28
195.116	18.6
195.335	-8.02
195.555	45.23
195.774	32.94
195.993	-16.21
196.212	-32.6
196.432	20.65
196.651	22.7
196.87	39.08
197.089	63.66
197.308	71.85
197.528	-8.02
197.747	-48.98
197.966	24.75
198.185	65.71
198.404	4.27
198.623	102.57
198.842	47.27
199.062	147.62
199.281	88.23
199.5	6.31
199.719	49.32
199.938	82.09
200.157	2.22
200.376	98.47
200.595	94.38
200.814	16.55
201.033	71.85
201.252	16.55
201.471	32.94
201.69	57.51
201.909	6.31
202.128	-16.21
202.347	88.23
202.566	63.66
202.785	37.03
203.004	-5.97
203.223	145.58
203.442	-10.07
203.661	41.13
203.879	53.42
204.098	26.79
204.317	39.08
204.536	57.51
204.755	24.75
204.974	39.08
205.193	18.6
205.411	55.47
205.63	108.71
205.849	41.13
206.068	18.6
206.287	34.99
206.505	104.62
206.724	20.65
206.943	45.23
207.162	-14.17
207.381	80.04
207.599	37.03
207.818	-1.88
208.037	84.14
208.255	37.03
208.474	47.27
208.693	125.1
208.911	34.99
209.13	-8.02
209.349	67.75
209.567	55.47
209.786	45.23
210.005	20.65
210.223	-5.97
210.442	-24.4
210.661	16.55
210.879	18.6
211.098	-1.88
211.316	65.71
211.535	20.65
211.753	-55.12
211.972	67.75
212.191	20.65
212.409	-26.45
212.628	37.03
212.846	-8.02
213.065	-55.12
213.283	106.67
213.502	-32.6
213.72	4.27
213.938	14.51
214.157	88.23
214.375	20.65
214.594	61.61
214.812	14.51
215.031	41.13
215.249	-8.02
215.467	20.65
215.686	6.31
215.904	63.66
216.122	-24.4
216.341	75.95
216.559	20.65
216.778	100.52
216.996	4.27
217.214	39.08
217.432	4.27
217.651	-32.6
217.869	20.65
218.087	34.99
218.306	-3.93
218.524	102.57
218.742	18.6
218.96	71.85
219.179	-3.93
219.397	18.6
219.615	73.9
219.833	57.51
220.051	24.75
220.27	121
220.488	106.67
220.706	12.46
220.924	51.37
221.142	2.22
221.36	8.36
221.578	61.61
221.796	22.7
222.015	6.31
222.233	61.61
222.451	39.08
222.669	59.56
222.887	-10.07
223.105	-20.31
223.323	-8.02
223.541	12.46
223.759	80.04
223.977	-5.97
224.195	94.38
224.413	84.14
224.631	34.99
224.849	82.09
225.067	75.95
225.285	8.36
225.503	24.75
225.721	-20.31
225.939	108.71
226.157	28.84
226.375	155.82
226.592	96.43
226.81	71.85
227.028	55.47
227.246	77.99
227.464	-28.5
227.682	100.52
227.9	65.71
228.117	39.08
228.335	32.94
228.553	22.7
228.771	-30.55
228.989	82.09
229.206	28.84
229.424	-34.64
229.642	-57.17
229.86	30.89
230.077	32.94
230.295	12.46
230.513	49.32
230.731	26.79
230.948	8.36
231.166	77.99
231.384	-30.55
231.601	-8.02
231.819	82.09
232.037	57.51
232.254	86.19
232.472	47.27
232.689	51.37
232.907	92.33
233.125	104.62
233.342	16.55
233.56	2.22
233.777	39.08
233.995	6.31
234.213	63.66
234.43	34.99
234.648	86.19
234.865	100.52
235.083	118.95
235.3	41.13
235.518	47.27
235.735	-14.17
235.953	-1.88
236.17	28.84
236.388	14.51
236.605	-1.88
236.822	88.23
237.04	57.51
237.257	30.89
237.475	39.08
237.692	10.41
237.909	-1.88
238.127	-40.79
238.344	39.08
238.562	16.55
238.779	94.38
238.996	-75.6
239.214	45.23
239.431	-36.69
239.648	57.51
239.865	41.13
240.083	69.8
240.3	12.46
240.517	-5.97
240.735	69.8
240.952	147.62
241.169	77.99
241.386	55.47
241.603	14.51
241.821	75.95
242.038	39.08
242.255	63.66
242.472	47.27
242.689	53.42
242.907	98.47
243.124	77.99
243.341	92.33
243.558	-14.17
243.775	-1.88
243.992	24.75
244.209	20.65
244.426	116.9
244.643	57.51
244.86	34.99
245.078	30.89
245.295	4.27
245.512	28.84
245.729	12.46
245.946	63.66
246.163	110.76
246.38	18.6
246.597	12.46
246.814	34.99
247.031	82.09
247.248	-3.93
247.464	55.47
247.681	65.71
247.898	30.89
248.115	159.91
248.332	20.65
248.549	45.23
248.766	139.43
248.983	14.51
249.2	43.18
249.417	43.18
249.633	20.65
249.85	108.71
250.067	26.79
250.284	51.37
250.501	55.47
250.717	84.14
250.934	-51.03
251.151	10.41
251.368	80.04
251.585	98.47
251.801	14.51
252.018	18.6
252.235	14.51
252.451	82.09
252.668	39.08
252.885	80.04
253.102	77.99
253.318	41.13
253.535	-24.4
253.752	4.27
253.968	82.09
254.185	71.85
254.401	14.51
254.618	82.09
254.835	30.89
255.051	6.31
255.268	55.47
255.484	-14.17
255.701	-32.6
255.917	112.81
256.134	71.85
256.351	34.99
256.567	45.23
256.784	55.47
257	39.08
257.217	106.67
257.433	47.27
257.65	18.6
257.866	88.23
258.082	0.17
258.299	6.31
258.515	49.32
258.732	77.99
258.948	-16.21
259.165	69.8
259.381	39.08
259.597	34.99
259.814	55.47
260.03	104.62
260.246	28.84
260.463	0.17
260.679	67.75
260.895	26.79
261.112	18.6
261.328	63.66
261.544	57.51
261.761	116.9
261.977	-3.93
262.193	71.85
262.409	65.71
262.626	43.18
262.842	41.13
263.058	-51.03
263.274	41.13
263.49	65.71
263.707	157.86
263.923	110.76
264.139	26.79
264.355	39.08
264.571	73.9
264.787	28.84
265.004	86.19
265.22	-34.64
265.436	24.75
265.652	2.22
265.868	-14.17
266.084	47.27
266.3	55.47
266.516	47.27
266.732	84.14
266.948	0.17
267.164	24.75
267.38	0.17
267.596	39.08
267.812	71.85
268.028	-18.26
268.244	8.36
268.46	47.27
268.676	100.52
268.892	26.79
269.108	47.27
269.324	49.32
269.54	65.71
269.756	32.94
269.972	104.62
270.188	20.65
270.403	26.79
270.619	30.89
270.835	32.94
271.051	80.04
271.267	12.46
271.483	32.94
271.698	69.8
271.914	69.8
272.13	10.41
272.346	30.89
272.562	45.23
272.777	88.23
272.993	37.03
273.209	-1.88
273.425	51.37
273.64	57.51
273.856	22.7
274.072	30.89
274.287	32.94
274.503	39.08
274.719	88.23
274.934	30.89
275.15	39.08
275.366	55.47
275.581	14.51
275.797	63.66
276.012	45.23
276.228	96.43
276.444	-30.55
276.659	53.42
276.875	10.41
277.09	86.19
277.306	-1.88
277.521	10.41
277.737	43.18
277.952	12.46
278.168	53.42
278.383	43.18
278.599	6.31
278.814	43.18
279.03	26.79
279.245	18.6
279.461	51.37
279.676	28.84
279.892	-30.55
280.107	22.7
280.322	24.75
280.538	24.75
280.753	39.08
280.969	84.14
281.184	10.41
281.399	57.51
281.615	47.27
281.83	-18.26
282.045	22.7
282.26	67.75
282.476	22.7
282.691	2.22
282.906	59.56
283.122	106.67
283.337	37.03
283.552	112.81
283.767	34.99
283.983	114.86
284.198	55.47
284.413	-14.17
284.628	14.51
284.843	88.23
285.058	65.71
285.274	45.23
285.489	0.17
285.704	96.43
285.919	57.51
286.134	37.03
286.349	43.18
286.564	-24.4
286.779	12.46
286.995	61.61
287.21	6.31
287.425	98.47
287.64	-16.21
287.855	49.32
288.07	84.14
288.285	102.57
288.5	-5.97
288.715	55.47
288.93	32.94
289.145	22.7
289.36	82.09
289.575	39.08
289.79	37.03
290.004	-10.07
290.219	-30.55
290.434	34.99
290.649	34.99
290.864	18.6
291.079	45.23
291.294	98.47
291.509	-1.88
291.724	-26.45
291.938	-8.02
292.153	45.23
292.368	18.6
292.583	47.27
292.798	47.27
293.012	82.09
293.227	37.03
293.442	63.66
293.657	32.94
293.871	100.52
294.086	80.04
294.301	80.04
294.516	63.66
294.73	41.13
294.945	63.66
295.16	73.9
295.374	129.19
295.589	51.37
295.804	28.84
296.018	39.08
296.233	73.9
296.447	43.18
296.662	63.66
296.877	106.67
297.091	30.89
297.306	65.71
297.52	-18.26
297.735	51.37
297.949	45.23
298.164	69.8
298.378	51.37
298.593	45.23
298.807	63.66
299.022	6.31
299.236	88.23
299.451	22.7
299.665	176.3
299.88	0.17
300.094	71.85
300.309	-30.55
300.523	55.47
300.737	37.03
300.952	121
301.166	127.14
301.381	-26.45
301.595	-22.36
301.809	108.71
302.024	112.81
302.238	6.31
302.452	108.71
302.667	55.47
302.881	80.04
303.095	43.18
303.309	6.31
303.524	49.32
303.738	10.41
303.952	-55.12
304.166	43.18
304.381	18.6
304.595	96.43
304.809	45.23
305.023	26.79
305.237	14.51
305.452	8.36
305.666	45.23
305.88	37.03
306.094	39.08
306.308	75.95
306.522	47.27
306.736	73.9
306.95	-34.64
307.164	30.89
307.379	59.56
307.593	106.67
307.807	51.37
308.021	-67.41
308.235	-20.31
308.449	-10.07
308.663	-22.36
308.877	41.13
309.091	30.89
309.305	112.81
309.519	-12.12
309.733	112.81
309.947	14.51
310.161	47.27
310.374	112.81
310.588	92.33
310.802	88.23
311.016	104.62
311.23	71.85
311.444	-3.93
311.658	34.99
311.872	84.14
312.085	10.41
312.299	77.99
312.513	139.43
312.727	-51.03
312.941	57.51
313.154	53.42
313.368	-40.79
313.582	90.28
313.796	28.84
314.009	61.61
314.223	14.51
314.437	118.95
314.651	96.43
314.864	65.71
315.078	-24.4
315.292	24.75
315.505	-1.88
315.719	22.7
315.933	39.08
316.146	-59.22
316.36	2.22
316.573	77.99
316.787	71.85
317.001	61.61
317.214	41.13
317.428	65.71
317.641	-8.02
317.855	75.95
318.068	57.51
318.282	77.99
318.495	39.08
318.709	16.55
318.922	-32.6
319.136	53.42
319.349	77.99
319.563	12.46
319.776	61.61
319.99	32.94
320.203	18.6
320.417	14.51
320.63	47.27
320.843	82.09
321.057	57.51
321.27	43.18
321.483	41.13
321.697	53.42
321.91	59.56
322.124	16.55
322.337	16.55
322.55	8.36
322.763	69.8
322.977	16.55
323.19	24.75
323.403	28.84
323.617	14.51
323.83	30.89
324.043	14.51
324.256	114.86
324.469	34.99
324.683	96.43
324.896	96.43
325.109	22.7
325.322	16.55
325.535	45.23
325.748	67.75
325.962	32.94
326.175	14.51
326.388	-3.93
326.601	-8.02
326.814	8.36
327.027	4.27
327.24	41.13
327.453	-18.26
327.666	10.41
327.879	75.95
328.092	104.62
328.305	39.08
328.518	43.18
328.731	-26.45
328.944	61.61
329.157	82.09
329.37	53.42
329.583	51.37
329.796	49.32
330.009	71.85
330.222	55.47
330.435	51.37
330.648	-24.4
330.861	53.42
331.073	53.42
331.286	41.13
331.499	90.28
331.712	30.89
331.925	49.32
332.138	20.65
332.35	88.23
332.563	53.42
332.776	10.41
332.989	-26.45
333.202	80.04
333.414	41.13
333.627	67.75
333.84	6.31
334.053	41.13
334.265	-28.5
334.478	20.65
334.691	49.32
334.903	6.31
335.116	16.55
335.329	69.8
335.541	104.62
335.754	73.9
335.966	34.99
336.179	-26.45
336.392	14.51
336.604	6.31
336.817	59.56
337.029	67.75
337.242	32.94
337.454	47.27
337.667	37.03
337.88	41.13
338.092	133.29
338.305	80.04
338.517	-18.26
338.729	39.08
338.942	59.56
339.154	-22.36
339.367	88.23
339.579	75.95
339.792	32.94
340.004	69.8
340.217	98.47
340.429	-32.6
340.641	63.66
340.854	49.32
341.066	37.03
341.278	43.18
341.491	53.42
341.703	57.51
341.915	57.51
342.128	39.08
342.34	37.03
342.552	41.13
342.764	67.75
342.977	-1.88
343.189	14.51
343.401	51.37
343.613	51.37
343.826	41.13
344.038	-26.45
344.25	16.55
344.462	-5.97
344.674	88.23
344.886	-8.02
345.099	102.57
345.311	18.6
345.523	71.85
345.735	6.31
345.947	14.51
346.159	55.47
346.371	41.13
346.583	-1.88
346.795	71.85
347.007	90.28
347.219	127.14
347.431	43.18
347.643	88.23
347.855	61.61
348.067	164.01
348.279	16.55
348.491	69.8
348.703	37.03
348.915	86.19
349.127	10.41
349.339	92.33
349.551	45.23
349.763	94.38
349.975	47.27
350.187	-32.6
350.399	90.28
350.61	82.09
350.822	57.51
351.034	131.24
351.246	80.04
351.458	92.33
351.669	123.05
351.881	65.71
352.093	53.42
352.305	77.99
352.517	145.58
352.728	47.27
352.94	75.95
353.152	-40.79
353.363	63.66
353.575	75.95
353.787	84.14
353.999	71.85
354.21	92.33
354.422	-1.88
354.633	-12.12
354.845	-14.17
355.057	26.79
355.268	67.75
355.48	-42.84
355.692	4.27
355.903	41.13
356.115	-28.5
356.326	51.37
356.538	135.34
356.749	-40.79
356.961	108.71
357.172	92.33
357.384	2.22
357.595	94.38
357.807	57.51
358.018	96.43
358.23	20.65
358.441	14.51
358.653	131.24
358.864	30.89
359.075	69.8
359.287	57.51
359.498	34.99
359.709	49.32
359.921	0.17
360.132	18.6
360.344	90.28
360.555	18.6
360.766	47.27
360.977	55.47
361.189	86.19
361.4	71.85
361.611	80.04
361.823	51.37
362.034	63.66
362.245	47.27
362.456	57.51
362.667	47.27
362.879	73.9
363.09	49.32
363.301	59.56
363.512	22.7
363.723	-28.5
363.935	14.51
364.146	63.66
364.357	182.44
364.568	6.31
364.779	30.89
364.99	90.28
365.201	30.89
365.412	41.13
365.623	51.37
365.834	12.46
366.045	84.14
366.256	8.36
366.467	57.51
366.678	16.55
366.889	51.37
367.1	24.75
367.311	14.51
367.522	12.46
367.733	90.28
367.944	133.29
368.155	10.41
368.366	49.32
368.577	166.06
368.788	-14.17
368.999	8.36
369.209	26.79
369.42	139.43
369.631	63.66
369.842	57.51
370.053	106.67
370.264	4.27
370.474	90.28
370.685	112.81
370.896	-24.4
371.107	4.27
371.317	63.66
371.528	121
371.739	71.85
371.95	104.62
372.16	94.38
372.371	71.85
372.582	77.99
372.792	0.17
373.003	49.32
373.214	67.75
373.424	57.51
373.635	26.79
373.846	77.99
374.056	84.14
374.267	80.04
374.477	100.52
374.688	34.99
374.898	10.41
375.109	4.27
375.319	-5.97
375.53	63.66
375.74	112.81
375.951	112.81
376.161	104.62
376.372	28.84
376.582	121
376.793	80.04
377.003	80.04
377.214	32.94
377.424	2.22
377.635	94.38
377.845	57.51
378.055	69.8
378.266	71.85
378.476	63.66
378.686	47.27
378.897	71.85
379.107	59.56
379.317	0.17
379.528	88.23
379.738	121
379.948	84.14
380.158	63.66
380.369	102.57
380.579	8.36
380.789	88.23
380.999	73.9
381.21	47.27
381.42	114.86
381.63	39.08
381.84	77.99
382.05	131.24
382.261	65.71
382.471	49.32
382.681	2.22
382.891	65.71
383.101	39.08
383.311	69.8
383.521	47.27
383.731	102.57
383.941	178.34
384.151	55.47
384.361	71.85
384.571	75.95
384.781	22.7
384.991	90.28
385.201	123.05
385.411	123.05
385.621	114.86
385.831	43.18
386.041	-1.88
386.251	110.76
386.461	84.14
386.671	41.13
386.881	-10.07
387.091	47.27
387.301	116.9
387.511	57.51
387.72	100.52
387.93	39.08
388.14	-40.79
388.35	94.38
388.56	18.6
388.769	94.38
388.979	112.81
389.189	39.08
389.399	129.19
389.609	114.86
389.818	51.37
390.028	151.72
390.238	88.23
390.447	94.38
390.657	45.23
390.867	94.38
391.076	80.04
391.286	41.13
391.496	55.47
391.705	51.37
391.915	47.27
392.125	63.66
392.334	88.23
392.544	65.71
392.753	63.66
392.963	67.75
393.172	94.38
393.382	96.43
393.591	80.04
393.801	96.43
394.01	41.13
394.22	55.47
394.429	67.75
394.639	94.38
394.848	80.04
395.058	147.62
395.267	82.09
395.477	86.19
395.686	139.43
395.895	86.19
396.105	168.1
396.314	67.75
396.524	82.09
396.733	98.47
396.942	57.51
397.152	73.9
397.361	-5.97
397.57	14.51
397.78	116.9
397.989	102.57
398.198	121
398.407	186.54
398.617	88.23
398.826	104.62
399.035	67.75
399.244	118.95
399.453	88.23
399.663	41.13
399.872	145.58
400.081	43.18
400.29	98.47
400.499	90.28
400.708	88.23
400.917	57.51
401.127	90.28
401.336	24.75
401.545	149.67
401.754	118.95
401.963	88.23
402.172	106.67
402.381	139.43
402.59	121
402.799	121
403.008	157.86
403.217	112.81
403.426	161.96
403.635	75.95
403.844	125.1
404.053	90.28
404.262	166.06
404.471	112.81
404.68	127.14
404.888	98.47
405.097	127.14
405.306	153.77
405.515	180.39
405.724	129.19
405.933	51.37
406.142	116.9
406.35	166.06
406.559	211.11
406.768	114.86
406.977	127.14
407.185	202.92
407.394	278.69
407.603	211.11
407.812	229.54
408.02	155.82
408.229	204.97
408.438	192.68
408.646	227.5
408.855	180.39
409.064	190.63
409.272	178.34
409.481	252.07
409.69	110.76
409.898	231.59
410.107	219.3
410.315	198.82
410.524	276.65
410.733	323.75
410.941	231.59
411.15	268.45
411.358	333.99
411.567	358.57
411.775	344.23
411.984	274.6
412.192	344.23
412.401	325.8
412.609	299.17
412.818	387.24
413.026	409.76
413.234	377
413.443	374.95
413.651	460.96
413.86	362.66
414.068	450.72
414.276	510.11
414.485	434.34
414.693	532.64
414.901	493.73
415.11	606.37
415.318	616.61
415.526	549.03
415.734	557.22
415.943	637.09
416.151	587.94
416.359	663.71
416.567	594.08
416.776	682.14
416.984	729.25
417.192	741.54
417.4	694.43
417.608	755.87
417.817	833.69
418.025	837.79
418.233	891.04
418.441	848.03
418.649	909.47
418.857	936.09
419.065	868.51
419.273	893.09
419.481	1030.3
419.689	1054.87
419.897	1046.68
420.105	1194.14
420.313	1167.51
420.521	1136.79
420.729	1300.63
420.937	1140.89
421.145	1357.97
421.353	1284.25
421.561	1446.04
421.769	1407.13
421.977	1482.9
422.185	1568.91
422.393	1667.22
422.601	1759.38
422.809	1732.75
423.017	1796.24
423.224	1734.8
423.432	1853.58
423.64	1820.81
423.848	1931.41
424.056	1945.74
424.263	2089.1
424.471	2062.48
424.679	2173.07
424.887	2197.64
425.094	2336.9
425.302	2273.42
425.51	2324.62
425.718	2453.64
425.925	2588.8
426.133	2496.64
426.341	2822.27
426.548	2949.25
426.756	2826.37
426.964	2883.71
427.171	2920.57
427.379	3156.09
427.586	3201.15
427.794	3321.98
428.001	3440.76
428.209	3483.77
428.417	3518.58
428.624	3930.22
428.832	3852.4
429.039	3756.15
429.247	3717.23
429.454	4276.33
429.662	4452.45
429.869	4204.65
430.076	4282.47
430.284	4356.2
430.491	4348.01
430.699	4608.1
430.906	4708.45
431.114	4814.95
431.321	4896.86
431.528	5138.52
431.736	5312.6
431.943	5648.47
432.15	5472.34
432.358	5408.86
432.565	5644.37
432.772	5617.75
432.979	6037.58
433.187	6291.53
433.394	6217.8
433.601	6592.58
433.808	6731.84
434.016	6654.02
434.223	6774.85
434.43	7381.05
434.637	7133.25
434.844	7635
435.052	7852.08
435.259	7774.26
435.466	7837.75
435.673	7659.57
435.88	8376.36
436.087	8665.13
436.294	8591.4
436.501	8445.99
436.708	8450.09
436.915	8900.64
437.122	9256.99
437.329	9197.6
437.537	9658.39
437.743	9818.13
437.95	9820.18
438.157	10172.43
438.364	10696.71
438.571	10598.41
438.778	10582.03
438.985	11608.06
439.192	11118.59
439.399	11370.49
439.606	11182.08
439.813	11859.96
440.02	12613.61
440.227	12392.43
440.433	12154.87
440.64	12670.95
440.847	12562.41
441.054	12830.69
441.261	13664.22
441.467	13582.3
441.674	13772.76
441.881	14284.75
442.088	14507.98
442.294	14104.53
442.501	14319.57
442.708	14946.25
442.914	15482.81
443.121	15890.36
443.328	15329.22
443.534	16789.42
443.741	16500.65
443.948	16046.01
444.154	17184.68
444.361	17190.82
444.568	17123.24
444.774	17039.27
444.981	17414.05
445.187	17735.58
445.394	18851.72
445.6	18384.79
445.807	20313.97
446.013	19527.55
446.22	19761.02
446.426	20619.12
446.633	20578.16
446.839	21395.3
447.046	20375.41
447.252	21669.73
447.459	21765.98
447.665	21372.77
447.871	22503.25
448.078	23549.76
448.284	22591.31
448.491	23050.06
448.697	23967.55
448.903	24573.75
449.11	24495.92
449.316	24330.04
449.522	24768.3
449.728	25542.44
449.935	25362.22
450.141	25591.59
450.347	26228.51
450.553	25270.06
450.76	25536.29
450.966	26431.26
451.172	26347.29
451.378	26836.75
451.584	26545.94
451.791	27096.85
451.997	26978.06
452.203	27174.67
452.409	27221.77
452.615	27049.74
452.821	26187.55
453.027	25718.56
453.233	27336.46
453.44	26484.5
453.646	26435.35
453.852	26517.27
454.058	27189
454.264	26414.87
454.47	27090.7
454.676	26482.45
454.882	27490.06
455.088	25034.54
455.294	25317.16
455.5	25755.43
455.705	26113.82
455.911	25235.24
456.117	24500.02
456.323	24491.83
456.529	23220.04
456.735	23861.05
456.941	23293.77
457.147	23228.23
457.352	21987.16
457.558	21862.24
457.764	22214.49
457.97	21661.54
458.176	21225.32
458.381	21485.41
458.587	20211.57
458.793	19677.05
458.999	18917.26
459.204	20567.92
459.41	19965.82
459.616	18716.56
459.821	18788.24
460.027	18675.6
460.233	18053.02
460.438	17305.51
460.644	17495.97
460.85	16727.98
461.055	16187.32
461.261	16582.57
461.466	15292.35
461.672	14835.66
461.878	15962.04
462.083	14917.58
462.289	14282.7
462.494	14153.68
462.7	13776.86
462.905	13228
463.111	13834.2
463.316	13895.64
463.522	13477.85
463.727	13443.04
463.932	13508.57
464.138	13414.37
464.343	13238.24
464.549	12908.52
464.754	13453.28
464.959	13252.58
465.165	13402.08
465.37	12660.71
465.575	12224.5
465.781	12902.37
465.986	12885.99
466.191	12357.61
466.397	12083.19
466.602	11442.17
466.807	11933.68
467.012	11876.34
467.218	11980.79
467.423	11933.68
467.628	12050.42
467.833	12410.86
468.038	11931.64
468.244	11649.02
468.449	11888.63
468.654	11741.18
468.859	11718.65
469.064	11388.92
469.269	11198.46
469.474	11188.22
469.679	11307.01
469.885	10999.81
470.09	11204.61
470.295	11048.96
470.5	10870.79
470.705	11061.25
470.91	10721.29
471.115	10584.07
471.32	10932.23
471.525	10526.73
471.73	10600.46
471.935	10420.24
472.139	10270.73
472.344	10164.24
472.549	10186.77
472.754	9846.8
472.959	9803.8
473.164	9539.61
473.369	9566.23
473.574	9863.19
473.778	9787.41
473.983	9582.62
474.188	9650.2
474.393	9099.3
474.598	9314.33
474.802	9089.06
475.007	9252.89
475.212	9224.22
475.417	8742.95
475.621	8753.19
475.826	8742.95
476.031	8597.54
476.235	8673.32
476.44	8656.93
476.645	8421.42
476.849	8331.31
477.054	8108.08
477.259	7931.95
477.463	8146.99
477.668	7952.43
477.872	8210.48
478.077	8218.67
478.282	7747.64
478.486	7768.12
478.691	7561.27
478.895	7569.46
479.1	7456.82
479.304	7383.1
479.509	7221.31
479.713	7469.11
479.918	7133.25
480.122	7168.06
480.326	7331.9
480.531	7452.73
480.735	7274.56
480.94	7127.1
481.144	7258.17
481.348	7077.95
481.553	7209.02
481.757	7116.86
481.961	7157.82
482.166	7108.67
482.37	7100.48
482.574	6936.64
482.778	6961.22
482.983	7026.75
483.187	7020.61
483.391	7137.34
483.595	7049.28
483.8	6914.11
484.004	7096.38
484.208	6993.98
484.412	7151.68
484.616	6996.03
484.821	7002.18
485.025	7065.66
485.229	7069.76
485.433	6924.35
485.637	7043.14
485.841	6871.11
486.045	6893.63
486.249	7100.48
486.453	6817.86
486.657	7018.56
486.861	7010.37
487.065	6873.15
487.269	7024.7
487.473	6885.44
487.677	6959.17
487.881	7063.61
488.085	6895.68
488.289	7073.85
488.493	6864.96
488.697	6869.06
488.901	7067.71
489.105	6955.07
489.309	7200.83
489.512	7166.01
489.716	7061.57
489.92	7100.48
490.124	7024.7
490.328	7192.64
490.531	6981.7
490.735	7020.61
490.939	7262.27
491.143	7274.56
491.346	7022.66
491.55	7286.84
491.754	7241.79
491.958	7272.51
492.161	7276.6
492.365	7303.23
492.569	7276.6
492.772	7467.06
492.976	7370.81
493.18	7362.62
493.383	7510.07
493.587	7499.83
493.79	7567.42
493.994	7481.4
494.197	7559.22
494.401	7757.88
494.605	7684.15
494.808	7897.14
495.012	7759.92
495.215	7944.24
495.419	8163.37
495.622	7790.64
495.825	8071.22
496.029	8112.17
496.232	8114.22
496.436	8257.58
496.639	8525.86
496.843	8392.75
497.046	8425.51
497.249	8554.54
497.453	8714.28
497.656	8773.67
497.859	8747.05
498.063	8820.77
498.266	8871.97
498.469	8986.66
498.673	9017.38
498.876	9148.45
499.079	9205.79
499.282	9084.96
499.485	9465.88
499.689	9476.12
499.892	9855
500.095	9576.47
500.298	10188.82
500.501	9719.83
500.705	10074.13
500.908	10364.94
501.111	10242.06
501.314	10354.7
501.517	10393.61
501.72	10610.7
501.923	10633.22
502.126	10977.28
502.329	11132.93
502.532	11153.41
502.735	11137.02
502.938	11333.63
503.141	11425.79
503.344	11673.59
503.547	11862.01
503.75	11862.01
503.953	12001.27
504.156	12144.63
504.359	12263.41
504.562	12410.86
504.765	12437.48
504.968	12632.04
505.17	12840.93
505.373	12625.9
505.576	12849.13
505.779	13137.89
505.982	13201.38
506.185	13729.75
506.387	13473.76
506.59	13541.34
506.793	13995.99
506.996	13676.51
507.198	14213.07
507.401	14170.07
507.604	14299.09
507.807	14538.7
508.009	14833.61
508.212	14860.23
508.415	14940.1
508.617	14979.01
508.82	15054.79
509.022	15056.84
509.225	15660.99
509.428	15685.56
509.63	15945.66
509.833	16046.01
510.035	16132.02
510.238	15953.85
510.44	16232.37
510.643	16840.62
510.845	16543.66
511.048	16590.77
511.25	17194.92
511.453	17057.7
511.655	17678.24
511.858	17670.05
512.06	17817.5
512.262	18034.58
512.465	17895.32
512.667	18302.87
512.87	18483.09
513.072	18431.89
513.274	18790.28
513.477	18962.31
513.679	18864.01
513.881	19189.64
514.084	19457.92
514.286	19464.07
514.488	19539.84
514.69	20012.92
514.893	20373.36
515.095	20199.29
515.297	20189.05
515.499	20651.89
515.701	20725.61
515.904	20954.99
516.106	21118.82
516.308	21235.56
516.51	21671.78
516.712	21792.61
516.914	22005.59
517.116	22226.78
517.318	22554.45
517.52	22411.09
517.722	22720.34
517.925	22624.08
518.127	22835.02
518.329	23172.94
518.531	23179.08
518.733	23908.16
518.935	23863.1
519.136	23734.08
519.338	24053.56
519.54	24172.35
519.742	24334.14
519.944	24430.39
520.146	25239.34
520.348	25163.56
520.55	25257.77
520.752	25225
520.954	26054.43
521.155	25745.19
521.357	26173.21
521.559	26158.88
521.761	26724.11
521.963	26330.9
522.164	26330.9
522.366	27041.55
522.568	27039.5
522.77	27244.3
522.971	27760.39
523.173	27567.88
523.375	27653.89
523.576	27883.27
523.778	27713.28
523.98	28268.28
524.181	28743.41
524.383	28356.35
524.584	28665.59
524.786	28862.19
524.988	28880.63
525.189	28950.26
525.391	29204.21
525.592	29388.52
525.794	29472.49
525.995	29671.14
526.197	29728.49
526.398	29751.01
526.6	29857.51
526.801	30291.68
527.003	30170.85
527.204	30226.14
527.406	30455.51
527.607	30490.33
527.808	30969.55
528.01	30353.12
528.211	30514.91
528.412	31301.33
528.614	31127.25
528.815	31151.82
529.016	31725.25
529.218	31162.06
529.419	31209.17
529.62	31051.47
529.822	31168.21
530.023	31364.81
530.224	31434.44
530.425	31487.69
530.626	31112.91
530.828	31168.21
531.029	32153.28
531.23	31420.11
531.431	31700.68
531.632	32061.12
531.833	32007.87
532.035	31676.1
532.236	31968.96
532.437	31887.04
532.638	32030.4
532.839	32218.82
533.04	32270.01
533.241	31889.09
533.442	32399.04
533.643	31817.41
533.844	31901.38
534.045	32116.42
534.246	32143.04
534.447	32179.9
534.648	32202.43
534.849	32216.77
535.05	31856.32
535.251	32272.06
535.451	32106.18
535.652	32210.62
535.853	32216.77
536.054	32642.74
536.255	32251.58
536.456	32290.49
536.657	32655.03
536.857	32372.41
537.058	32120.51
537.259	32534.2
537.46	32376.51
537.66	32593.59
537.861	32386.75
538.062	32460.48
538.263	32386.75
538.463	32300.73
538.664	32327.36
538.865	32489.15
539.065	32648.89
539.266	32184
539.466	32683.7
539.667	32093.89
539.868	32620.22
540.068	32382.65
540.269	31780.55
540.469	32554.68
540.67	32134.85
540.87	32583.35
541.071	32286.4
541.271	32280.25
541.472	32245.44
541.672	32267.97
541.873	31946.44
542.073	32057.03
542.274	32329.41
542.474	31989.44
542.675	32130.75
542.875	32327.36
543.075	32253.63
543.276	32120.51
543.476	32749.24
543.676	32196.29
543.877	32605.88
544.077	32247.49
544.277	32399.04
544.478	32126.66
544.678	32401.08
544.878	31991.49
545.078	32345.79
545.279	31915.72
545.479	32530.11
545.679	32353.98
545.879	32175.81
546.079	32216.77
546.28	31993.54
546.48	32263.87
546.68	32184
546.88	32360.12
547.08	32126.66
547.28	31966.91
547.48	32044.74
547.68	32022.21
547.88	31852.23
548.081	32544.44
548.281	32282.3
548.481	31923.91
548.681	32528.06
548.881	32175.81
549.081	32016.07
549.28	32042.69
549.48	32214.72
549.68	32200.38
549.88	32380.6
550.08	32028.35
550.28	31981.25
550.48	31837.89
550.68	32100.03
550.88	32046.79
551.08	32067.27
551.279	31925.96
551.479	31618.76
551.679	31952.58
551.879	32147.14
552.079	32108.22
552.278	31971.01
552.478	32251.58
552.678	31999.68
552.878	32188.1
553.077	31987.39
553.277	31876.8
553.477	32112.32
553.676	31958.72
553.876	32253.63
554.076	31688.39
554.275	31610.57
554.475	31874.76
554.674	31954.63
554.874	31700.68
555.074	31774.41
555.273	31497.93
555.473	31940.29
555.672	31551.18
555.872	31999.68
556.071	31682.25
556.271	31882.95
556.47	31559.37
556.67	31424.2
556.869	31557.32
557.068	31536.84
557.268	31475.4
557.467	31508.17
557.667	31358.67
557.866	31465.16
558.065	31274.7
558.265	31463.11
558.464	31076.05
558.663	31592.14
558.863	31041.23
559.062	31465.16
559.261	31129.3
559.461	31235.79
559.66	30508.76
559.859	30973.65
560.058	30932.69
560.258	30901.97
560.457	30725.85
560.656	31028.95
560.855	30799.57
561.054	30901.97
561.253	30598.87
561.453	30555.86
561.652	30783.19
561.851	30494.43
562.05	30447.32
562.249	30185.18
562.448	30639.83
562.647	30375.64
562.846	30109.41
563.045	30445.27
563.244	30068.45
563.443	30392.03
563.642	29890.27
563.841	30103.26
564.04	29851.36
564.239	30150.37
564.438	29748.96
564.637	29816.55
564.836	30146.27
565.035	29488.87
565.234	29431.53
565.432	29345.51
565.631	29738.72
565.83	29669.09
566.029	29259.5
566.228	29273.84
566.427	29234.92
566.625	29370.09
566.824	29015.79
567.023	29198.06
567.222	28518.14
567.42	28931.83
567.619	28903.15
567.818	28741.36
568.016	28710.64
568.215	29034.22
568.414	28878.58
568.612	28995.31
568.811	28350.2
569.01	28815.09
569.208	28466.94
569.407	28880.63
569.605	28235.52
569.804	28319.48
570.002	28159.74
570.201	28178.17
570.4	27782.91
570.598	28405.5
570.797	28057.34
570.995	27858.69
571.193	27639.56
571.392	27766.53
571.59	27645.7
571.789	27586.31
571.987	27635.46
572.186	27475.72
572.384	27275.02
572.582	27475.72
572.781	27756.29
572.979	26949.39
573.177	27275.02
573.376	27240.2
573.574	26822.42
573.772	26892.05
573.971	27102.99
574.169	27102.99
574.367	26785.55
574.565	26656.53
574.763	26496.79
574.962	26615.57
575.16	26238.75
575.358	26504.98
575.556	25970.46
575.754	26208.03
575.952	26083.1
576.151	26380.06
576.349	25919.26
576.547	25739.04
576.745	25806.62
576.943	25970.46
577.141	25962.27
577.339	25800.48
577.537	25620.26
577.735	25894.69
577.933	25562.92
578.131	25853.73
578.329	25448.23
578.527	25270.06
578.725	25329.45
578.923	25558.82
579.121	25038.64
579.319	25347.88
579.516	25167.66
579.714	25098.03
579.912	24663.86
580.11	24635.19
580.308	24964.91
580.506	24870.7
580.704	24338.23
580.901	24545.08
581.099	24882.99
581.297	24469.3
581.495	24506.16
581.692	24706.87
581.89	24270.65
582.088	24553.27
582.285	24180.54
582.483	24414.01
582.681	23996.22
582.878	24254.26
583.076	23902.01
583.274	24016.7
583.471	23662.4
583.669	23736.13
583.866	23695.17
584.064	23820.1
584.262	23615.3
584.459	23603.01
584.657	23473.99
584.854	23928.64
585.052	23199.56
585.249	23168.84
585.447	23539.52
585.644	22916.94
585.841	22882.13
586.039	23166.79
586.236	22853.45
586.434	22898.51
586.631	22673.23
586.828	22861.65
587.026	22908.75
587.223	22697.81
587.42	22450
587.618	22488.92
587.815	22384.47
588.012	22296.41
588.21	22380.37
588.407	22138.71
588.604	22368.09
588.801	22067.03
588.999	22085.47
589.196	22148.95
589.393	21933.92
589.59	21653.34
589.787	21927.77
589.984	21849.95
590.182	21475.17
590.379	21718.88
590.576	21256.04
590.773	21548.9
590.97	21227.37
591.167	21423.97
591.364	21184.36
591.561	21184.36
591.758	21112.68
591.955	20922.22
592.152	21446.5
592.349	20825.96
592.546	21008.23
592.743	20983.66
592.94	20985.71
593.137	20756.33
593.334	21131.11
593.531	20541.3
593.727	20746.09
593.924	20649.84
594.121	20453.23
594.318	20774.77
594.515	20084.6
594.712	20756.33
594.908	20250.49
595.105	20346.74
595.302	20227.96
595.499	20533.11
595.696	19943.29
595.892	20141.94
596.089	20111.22
596.286	20033.4
596.482	19941.24
596.679	19619.71
596.876	19732.35
597.072	19822.46
597.269	19806.08
597.466	19443.59
597.662	19478.4
597.859	19472.26
598.055	19388.29
598.252	19339.14
598.448	19359.62
598.645	19109.77
598.841	19017.61
599.038	19077
599.234	19115.91
599.431	18931.59
599.627	18913.16
599.824	18925.45
600.02	18845.58
600.217	18782.09
600.413	18657.17
600.609	18694.03
600.806	18778
601.002	18585.49
601.198	18446.23
601.395	18376.59
601.591	18460.56
601.787	18483.09
601.984	18030.49
602.18	18190.23
602.376	18266
602.572	18347.92
602.769	18118.55
602.965	18012.06
603.161	18073.49
603.357	17797.02
603.553	17991.58
603.75	17725.34
603.946	17541.02
604.142	17821.59
604.338	17266.6
604.534	17506.21
604.73	17422.24
604.926	17315.75
605.122	17545.12
605.318	17498.02
605.514	17278.88
605.71	17057.7
605.906	17135.53
606.102	17239.97
606.298	17092.52
606.494	17192.87
606.69	17110.95
606.886	16947.11
607.082	16664.49
607.278	17131.43
607.474	16676.78
607.67	17086.37
607.866	16545.71
608.062	16791.47
608.257	16517.04
608.453	16613.29
608.649	16631.72
608.845	16433.07
609.041	16506.8
609.236	16613.29
609.432	16519.09
609.628	16361.39
609.824	16529.33
610.019	16316.34
610.215	16340.91
610.411	16529.33
610.606	16129.97
610.802	16256.95
610.998	16302
611.193	16205.75
611.389	15962.04
611.584	15771.58
611.78	15959.99
611.976	16236.47
612.171	16066.49
612.367	15955.9
612.562	15947.7
612.758	15783.87
612.953	15648.7
613.149	15787.96
613.344	15757.24
613.539	16091.06
613.735	15814.59
613.93	15654.84
614.126	15656.89
614.321	16095.16
614.517	15503.29
614.712	15560.64
614.907	15636.41
615.103	15710.14
615.298	15396.8
615.493	15480.77
615.688	15298.5
615.884	15755.19
616.079	15357.89
616.274	15577.02
616.47	15124.42
616.665	15312.83
616.86	15232.96
617.055	15351.74
617.25	15099.84
617.445	15105.99
617.641	14913.48
617.836	15087.56
618.031	15017.93
618.226	15042.5
618.421	14901.19
618.616	15007.69
618.811	14774.22
619.006	15069.12
619.201	14594
619.396	14901.19
619.591	14505.93
619.786	14573.52
619.981	14516.17
620.176	14464.97
620.371	14204.88
620.566	14194.64
620.761	14159.83
620.956	14350.29
621.151	14204.88
621.346	14016.47
621.541	13832.15
621.735	14178.26
621.93	13592.54
622.125	13731.8
622.32	13580.25
622.515	13774.81
622.709	13559.77
622.904	13416.41
623.099	13436.89
623.294	13174.75
623.488	13397.98
623.683	13058.02
623.878	13160.42
624.072	13019.11
624.267	13137.89
624.462	12826.6
624.656	12828.65
624.851	13076.45
625.046	12722.15
625.24	12781.54
625.435	12478.44
625.629	12689.39
625.824	12425.2
626.018	12435.44
626.213	12314.61
626.407	12371.95
626.602	12011.51
626.796	12181.49
626.991	12034.04
627.185	12175.34
627.38	12068.85
627.574	11935.73
627.768	11917.3
627.963	11909.11
628.157	11814.9
628.352	11874.29
628.546	11466.75
628.74	11825.14
628.935	11487.23
629.129	11472.89
629.323	11329.53
629.517	11370.49
629.712	11190.27
629.906	11233.28
630.1	11190.27
630.294	11190.27
630.489	10860.55
630.683	11110.4
630.877	10745.86
631.071	10870.79
631.265	10835.97
631.459	10694.66
631.653	10831.88
631.848	10774.53
632.042	10444.81
632.236	10483.72
632.43	10401.8
632.624	10371.08
632.818	10397.71
633.012	10366.99
633.206	10229.77
633.4	10197.01
633.594	10156.05
633.788	10067.99
633.982	10207.25
634.176	9912.34
634.369	10137.62
634.563	9766.93
634.757	10033.17
634.951	9773.08
635.145	9797.65
635.339	9658.39
635.533	9615.38
635.726	9465.88
635.92	9512.99
636.114	9572.38
636.308	9461.79
636.501	9568.28
636.695	9355.29
636.889	9168.93
637.083	9146.4
637.276	9164.83
637.47	9371.68
637.664	9201.69
637.857	9021.47
638.051	9195.55
638.244	8779.81
638.438	9037.86
638.632	8947.75
638.825	8869.92
639.019	8763.43
639.212	8706.09
639.406	8886.31
639.599	8771.62
639.793	8632.36
639.986	8755.24
640.18	8656.93
640.373	8482.86
640.567	8476.71
640.76	8546.34
640.954	8382.51
641.147	8228.91
641.34	8276.01
641.534	8218.67
641.727	8321.07
641.92	8282.16
642.114	8134.7
642.307	7837.75
642.5	8048.69
642.694	8040.5
642.887	7888.95
643.08	7886.9
643.273	7884.85
643.467	7813.17
643.66	7641.14
643.853	7657.53
644.046	7731.25
644.239	7770.16
644.432	7737.4
644.626	7591.99
644.819	7499.83
645.012	7559.22
645.205	7561.27
645.398	7198.78
645.591	7284.8
645.784	7217.21
645.977	7266.36
646.17	7358.52
646.363	7092.29
646.556	7006.27
646.749	7172.16
646.942	7170.11
647.135	7161.92
647.328	6985.79
647.521	7053.38
647.714	6840.39
647.907	7063.61
648.099	6668.36
648.292	6889.54
648.485	6963.26
648.678	6783.04
648.871	6787.14
649.064	6658.12
649.256	6555.72
649.449	6514.76
649.642	6348.87
649.835	6662.21
650.027	6561.86
650.22	6531.14
650.413	6512.71
650.605	6465.61
650.798	6209.61
650.991	6248.52
651.183	6201.42
651.376	6189.13
651.568	6234.19
651.761	6121.55
651.954	6019.15
652.146	6195.28
652.339	6223.95
652.531	6152.27
652.724	6090.83
652.916	6086.73
653.109	6027.34
653.301	5970
653.494	5949.52
653.686	5847.12
653.879	6008.91
654.071	5734.48
654.263	5820.5
654.456	5666.9
654.648	5953.62
654.84	5595.22
655.033	5572.69
655.225	5609.56
655.417	5515.35
655.61	5677.14
655.802	5556.31
655.994	5476.44
656.186	5488.73
656.379	5488.73
656.571	5476.44
656.763	5449.82
656.955	5384.28
657.148	5310.55
657.34	5273.69
657.532	5281.88
657.724	5202.01
657.916	5259.35
658.108	5144.67
658.3	5347.42
658.492	5242.97
658.684	5228.63
658.876	4827.23
659.068	4991.07
659.26	4925.54
659.452	5011.55
659.644	5068.89
659.836	5021.79
660.028	5077.09
660.22	4946.02
660.412	4790.37
660.604	4831.33
660.796	4913.25
660.988	4853.86
661.18	4792.42
661.372	4716.64
661.563	4706.4
661.755	4628.58
661.947	4694.12
662.139	4690.02
662.331	4546.66
662.522	4733.03
662.714	4612.2
662.906	4636.77
663.097	4474.98
663.289	4626.53
663.481	4472.93
663.673	4450.41
663.864	4491.37
664.056	4425.83
664.247	4460.65
664.439	4259.95
664.631	4388.97
664.822	4253.8
665.014	4329.58
665.205	4257.9
665.397	4348.01
665.588	4237.42
665.78	4309.1
665.971	4290.67
666.163	4175.98
666.354	4167.79
666.546	4214.89
666.737	4061.29
666.929	4085.87
667.12	4075.63
667.311	3983.47
667.503	3950.7
667.694	3973.23
667.885	3887.22
668.077	3874.93
668.268	3829.87
668.459	4008.05
668.651	3827.82
668.842	3848.3
669.033	3823.73
669.224	3838.06
669.416	3907.7
669.607	3713.14
669.798	3743.86
669.989	3844.21
670.18	3764.34
670.371	3616.88
670.563	3604.6
670.754	3725.43
670.945	3573.88
671.136	3629.17
671.327	3586.16
671.518	3602.55
671.709	3557.49
671.9	3627.12
672.091	3635.32
672.282	3506.29
672.473	3446.9
672.664	3489.91
672.855	3496.05
673.046	3551.35
673.237	3391.61
673.428	3369.08
673.619	3379.32
673.809	3405.94
674	3401.85
674.191	3410.04
674.382	3276.92
674.573	3430.52
674.764	3119.23
674.954	3291.26
675.145	3168.38
675.336	3176.57
675.527	3381.37
675.717	3324.02
675.908	3141.75
676.099	3231.87
676.289	3197.05
676.48	3065.98
676.671	3250.3
676.861	3164.28
677.052	3223.67
677.243	3033.21
677.433	3090.56
677.624	2957.44
677.814	3106.94
678.005	3121.28
678.195	2900.09
678.386	3063.93
678.576	2967.68
678.767	3053.69
678.957	3020.92
679.148	2982.01
679.338	2965.63
679.529	3115.13
679.719	2902.14
679.909	2879.61
680.1	2947.2
680.29	3037.31
680.481	2715.78
680.671	2799.74
680.861	2764.93
681.052	2910.33
681.242	2783.36
681.432	2891.9
681.622	2961.53
681.813	2779.26
682.003	2744.45
682.193	2693.25
682.383	2832.51
682.573	2650.24
682.764	2709.63
682.954	2558.08
683.144	2775.17
683.334	2556.04
683.524	2695.3
683.714	2717.83
683.904	2646.15
684.094	2689.15
684.284	2633.86
684.474	2623.62
684.664	2644.1
684.854	2668.67
685.044	2652.29
685.234	2441.35
685.424	2629.76
685.614	2529.41
685.804	2537.6
685.994	2537.6
686.184	2461.83
686.374	2558.08
686.564	2424.97
686.753	2508.93
686.943	2373.77
687.133	2551.94
687.323	2353.29
687.513	2422.92
687.702	2300.04
687.892	2422.92
688.082	2478.21
688.272	2459.78
688.461	2449.54
688.651	2457.73
688.841	2263.18
689.03	2263.18
689.22	2349.19
689.41	2279.56
689.599	2312.33
689.789	2261.13
689.979	2418.82
690.168	2259.08
690.358	2277.51
690.547	2193.55
690.737	2246.79
690.926	2295.94
691.116	2269.32
691.305	2246.79
691.495	2152.59
691.684	2119.82
691.874	2195.59
692.063	2173.07
692.252	2171.02
692.442	2166.92
692.631	2062.48
692.82	2146.44
693.01	2109.58
693.199	2205.83
693.388	2037.9
693.578	2132.11
693.767	1994.89
693.956	2175.11
694.146	2056.33
694.335	2080.91
694.524	2068.62
694.713	2097.29
694.902	2046.09
695.092	2099.34
695.281	2097.29
695.47	1988.75
695.659	2021.52
695.848	2039.95
696.037	2039.95
696.226	2048.14
696.415	2085
696.604	2072.72
696.793	2054.28
696.982	2097.29
697.171	2054.28
697.36	2089.1
697.549	1964.17
697.738	1925.26
697.927	2070.67
698.116	1968.27
698.305	2060.43
698.494	1960.08
698.683	1980.56
698.872	2005.13
699.061	2033.8
699.25	1884.3
699.438	1845.39
699.627	1964.17
699.816	1960.08
700.005	1894.54
700.193	2021.52
700.382	2029.71
700.571	1982.6
700.76	1958.03
700.948	1972.36
701.137	1910.93
701.326	1939.6
701.514	1915.02
701.703	1874.06
701.892	1894.54
702.08	1976.46
702.269	1902.73
702.457	1988.75
702.646	1923.21
702.834	1886.35
703.023	1931.41
703.212	1841.29
703.4	1943.69
703.589	1933.45
703.777	1833.1
703.965	1923.21
704.154	1876.11
704.342	1869.97
704.531	1857.68
704.719	1904.78
704.907	1972.36
705.096	1958.03
705.284	1943.69
705.472	1867.92
705.661	1886.35
705.849	1876.11
706.037	1863.82
706.226	1857.68
706.414	1859.73
706.602	1878.16
706.79	1829.01
706.979	1955.98
707.167	1892.49
707.355	1917.07
707.543	1980.56
707.731	1872.01
707.919	1826.96
708.107	1874.06
708.296	1880.21
708.484	1806.48
708.672	1763.47
708.86	1933.45
709.048	1878.16
709.236	1855.63
709.424	1945.74
709.612	1857.68
709.8	1742.99
709.988	1824.91
710.176	1857.68
710.364	1824.91
710.551	1837.2
710.739	1818.77
710.927	1902.73
711.115	1845.39
711.303	1833.1
711.491	1800.34
711.679	1855.63
711.866	1906.83
712.054	1925.26
712.242	1822.86
712.43	1939.6
712.617	1814.67
712.805	1888.4
712.993	1792.14
713.181	1769.62
713.368	1810.58
713.556	1867.92
713.744	1861.77
713.931	1912.97
714.119	1775.76
714.306	1851.53
714.494	1843.34
714.682	1783.95
714.869	1816.72
715.057	1833.1
715.244	1767.57
715.432	1824.91
715.619	1833.1
715.807	1923.21
715.994	1833.1
716.182	1865.87
716.369	1826.96
716.556	1775.76
716.744	1794.19
716.931	1730.7
717.119	1857.68
717.306	1837.2
717.493	1923.21
717.681	1773.71
717.868	1865.87
718.055	1890.45
718.242	1786
718.43	1794.19
718.617	1761.42
718.804	1867.92
718.991	1843.34
719.179	1734.8
719.366	1773.71
719.553	1814.67
719.74	1847.44
719.927	1775.76
720.114	1859.73
720.301	1804.43
720.488	1816.72
720.676	1865.87
720.863	1790.1
721.05	1831.05
721.237	1841.29
721.424	1915.02
721.611	1710.22
721.798	1835.15
721.985	1755.28
722.172	1841.29
722.358	1779.86
722.545	1745.04
722.732	1814.67
722.919	1767.57
723.106	1800.34
723.293	1779.86
723.48	1712.27
723.667	1783.95
723.853	1734.8
724.04	1802.38
724.227	1724.56
724.414	1771.66
724.6	1718.42
724.787	1753.23
724.974	1728.66
725.161	1810.58
725.347	1687.7
725.534	1712.27
725.72	1783.95
725.907	1867.92
726.094	1742.99
726.28	1702.03
726.467	1722.51
726.653	1798.29
726.84	1775.76
727.027	1843.34
727.213	1689.74
727.4	1734.8
727.586	1693.84
727.773	1706.13
727.959	1749.14
728.145	1767.57
728.332	1642.64
728.518	1642.64
728.705	1773.71
728.891	1763.47
729.077	1702.03
729.264	1671.31
729.45	1771.66
729.636	1718.42
729.823	1579.15
730.009	1753.23
730.195	1761.42
730.382	1755.28
730.568	1650.83
730.754	1679.51
730.94	1702.03
731.126	1699.98
731.313	1642.64
731.499	1640.59
731.685	1665.17
731.871	1673.36
732.057	1654.93
732.243	1706.13
732.429	1589.39
732.615	1667.22
732.801	1742.99
732.987	1630.35
733.173	1671.31
733.359	1646.74
733.545	1622.16
733.731	1564.82
733.917	1699.98
734.103	1693.84
734.289	1673.36
734.475	1689.74
734.661	1603.73
734.847	1599.63
735.033	1616.02
735.219	1759.38
735.404	1589.39
735.59	1554.58
735.776	1570.96
735.962	1628.31
736.148	1542.29
736.333	1663.12
736.519	1712.27
736.705	1656.98
736.89	1689.74
737.076	1591.44
737.262	1573.01
737.447	1560.72
737.633	1513.62
737.819	1542.29
738.004	1558.67
738.19	1534.1
738.375	1517.72
738.561	1542.29
738.747	1585.3
738.932	1570.96
739.118	1443.99
739.303	1462.42
739.489	1509.52
739.674	1413.27
739.859	1527.96
740.045	1550.48
740.23	1532.05
740.416	1505.43
740.601	1462.42
740.786	1515.67
740.972	1525.91
741.157	1505.43
741.342	1464.47
741.528	1562.77
741.713	1394.84
741.898	1421.46
742.084	1382.55
742.269	1460.37
742.454	1480.85
742.639	1378.45
742.824	1497.24
743.01	1480.85
743.195	1505.43
743.38	1460.37
743.565	1427.6
743.75	1435.8
743.935	1431.7
744.12	1431.7
744.305	1368.21
744.49	1341.59
744.675	1374.36
744.86	1276.06
745.045	1341.59
745.23	1329.3
745.415	1351.83
745.6	1345.69
745.785	1288.34
745.97	1370.26
746.155	1341.59
746.34	1341.59
746.525	1249.43
746.71	1325.21
746.895	1255.58
747.079	1202.33
747.264	1331.35
747.449	1290.39
747.634	1304.73
747.819	1183.9
748.003	1200.28
748.188	1302.68
748.373	1271.96
748.557	1247.38
748.742	1325.21
748.927	1212.57
749.111	1179.8
749.296	1220.76
749.481	1187.99
749.665	1282.2
749.85	1218.71
750.034	1249.43
750.219	1231
750.404	1104.03
750.588	1132.7
750.773	1157.27
750.957	1185.94
751.141	1185.94
751.326	1142.94
751.51	1091.74
751.695	1091.74
751.879	1087.64
752.064	1067.16
752.248	1136.79
752.432	1083.55
752.617	1112.22
752.801	1202.33
752.985	1179.8
753.17	1018.01
753.354	1108.12
753.538	999.58
753.722	987.29
753.907	1026.2
754.091	997.53
754.275	1065.11
754.459	991.39
754.643	1052.83
754.828	946.33
755.012	946.33
755.196	899.23
755.38	1093.79
755.564	981.15
755.748	876.7
755.932	932
756.116	983.2
756.3	950.43
756.484	882.85
756.668	893.09
756.852	1001.63
757.036	895.13
757.22	989.34
757.404	891.04
757.588	966.81
757.772	1026.2
757.956	899.23
758.14	1001.63
758.323	815.26
758.507	932
758.691	899.23
758.875	880.8
759.059	891.04
759.242	905.37
759.426	835.74
759.61	819.36
759.794	909.47
759.977	948.38
760.161	843.93
760.345	819.36
760.528	958.62
760.712	841.89
760.895	811.17
761.079	891.04
761.263	784.54
761.446	751.78
761.63	794.78
761.813	823.45
761.997	815.26
762.18	770.21
762.364	809.12
762.547	819.36
762.731	794.78
762.914	745.63
763.098	739.49
763.281	762.02
763.464	817.31
763.648	825.5
763.831	733.34
764.015	809.12
764.198	759.97
764.381	790.69
764.564	735.39
764.748	759.97
764.931	796.83
765.114	764.06
765.297	823.45
765.481	759.97
765.664	737.44
765.847	739.49
766.03	772.25
766.213	692.38
766.397	710.82
766.58	682.14
766.763	737.44
766.946	745.63
767.129	678.05
767.312	788.64
767.495	768.16
767.678	768.16
767.861	759.97
768.044	694.43
768.227	743.58
768.41	624.8
768.593	667.81
768.776	751.78
768.959	628.9
769.142	698.53
769.324	688.29
769.507	708.77
769.69	624.8
769.873	694.43
770.056	680.1
770.239	690.34
770.421	708.77
770.604	661.66
770.787	647.33
770.97	692.38
771.152	612.51
771.335	743.58
771.518	676
771.7	678.05
771.883	749.73
772.066	727.2
772.248	735.39
772.431	653.47
772.613	710.82
772.796	686.24
772.978	608.42
773.161	583.84
773.343	624.8
773.526	594.08
773.708	565.41
773.891	557.22
774.073	614.56
774.256	690.34
774.438	766.11
774.621	557.22
774.803	589.99
774.985	546.98
775.168	581.79
775.35	538.79
775.532	598.18
775.715	544.93
775.897	518.31
776.079	655.52
776.261	596.13
776.444	549.03
776.626	592.03
776.808	452.77
776.99	546.98
777.173	563.36
777.355	516.26
777.537	503.97
777.719	637.09
777.901	508.07
778.083	534.69
778.265	530.59
778.447	549.03
778.629	522.4
778.811	501.92
778.993	499.88
779.175	473.25
779.357	477.35
779.539	544.93
779.721	479.4
779.903	497.83
780.085	497.83
780.267	522.4
780.449	567.46
780.631	506.02
780.812	563.36
780.994	483.49
781.176	477.35
781.358	430.24
781.54	403.62
781.721	407.72
781.903	532.64
782.085	446.63
782.267	471.2
782.448	448.68
782.63	381.09
782.812	510.11
782.993	495.78
783.175	452.77
783.357	409.76
783.538	463.01
783.72	501.92
783.901	428.2
784.083	389.28
784.264	389.28
784.446	358.57
784.627	415.91
784.809	448.68
784.99	385.19
785.172	428.2
785.353	428.2
785.535	358.57
785.716	368.81
785.897	344.23
786.079	385.19
786.26	424.1
786.441	440.48
786.623	329.89
786.804	346.28
786.985	395.43
787.167	325.8
787.348	360.61
787.529	399.52
787.71	352.42
787.891	415.91
788.073	364.71
788.254	303.27
788.435	366.76
788.616	323.75
788.797	284.84
788.978	319.65
789.159	405.67
789.34	258.21
789.522	311.46
789.703	286.89
789.884	299.17
790.065	309.41
790.246	366.76
790.427	374.95
790.607	362.66
790.788	309.41
790.969	215.21
791.15	389.28
791.331	329.89
791.512	331.94
791.693	280.74
791.874	307.37
792.054	293.03
792.235	260.26
792.416	346.28
792.597	327.85
792.778	272.55
792.958	327.85
793.139	323.75
793.32	319.65
793.5	252.07
793.681	280.74
793.862	258.21
794.042	229.54
794.223	215.21
794.404	301.22
794.584	241.83
794.765	274.6
794.945	198.82
795.126	213.16
795.306	350.37
795.487	286.89
795.667	280.74
795.848	319.65
796.028	301.22
796.209	225.45
796.389	295.08
796.57	252.07
796.75	204.97
796.93	325.8
797.111	213.16
797.291	250.02
797.471	256.17
797.652	243.88
797.832	262.31
798.012	276.65
798.192	204.97
798.373	229.54
798.553	276.65
798.733	266.41
798.913	221.35
799.093	170.15
799.274	196.78
799.454	348.33
799.634	223.4
799.814	268.45
799.994	209.06
800.174	348.33
800.354	204.97
800.534	202.92
800.714	178.34
800.894	225.45
801.074	180.39
801.254	194.73
801.434	258.21
801.614	204.97
801.794	129.19
801.974	708.77
802.154	188.58
802.334	202.92
802.514	239.78
802.693	161.96
802.873	225.45
803.053	168.1
803.233	139.43
803.413	219.3
803.592	211.11
803.772	161.96
803.952	164.01
804.131	180.39
804.311	180.39
804.491	174.25
804.67	194.73
804.85	229.54
805.03	202.92
805.209	194.73
805.389	227.5
805.568	147.62
805.748	184.49
805.928	178.34
806.107	112.81
806.287	176.3
806.466	121
806.646	239.78
806.825	182.44
807.004	207.02
807.184	186.54
807.363	166.06
807.543	194.73
807.722	176.3
807.901	166.06
808.081	247.97
808.26	161.96
808.439	110.76
808.619	258.21
808.798	170.15
808.977	166.06
809.156	161.96
809.336	164.01
809.515	276.65
809.694	106.67
809.873	186.54
810.052	170.15
810.231	153.77
810.411	207.02
810.59	116.9
810.769	145.58
810.948	194.73
811.127	94.38
811.306	106.67
811.485	86.19
811.664	225.45
811.843	147.62
812.022	135.34
812.201	155.82
812.38	176.3
812.559	153.77
812.737	129.19
812.916	155.82
813.095	139.43
813.274	166.06
813.453	141.48
813.632	172.2
813.811	131.24
813.989	118.95
814.168	155.82
814.347	55.47
814.526	219.3
814.704	149.67
814.883	147.62
815.062	41.13
815.24	161.96
815.419	170.15
815.598	147.62
815.776	98.47
815.955	137.38
816.133	86.19
816.312	151.72
816.49	143.53
816.669	137.38
816.847	141.48
817.026	143.53
817.204	94.38
817.383	227.5
817.561	168.1
817.74	151.72
817.918	207.02
818.097	141.48
818.275	104.62
818.453	121
818.632	145.58
818.81	123.05
818.988	141.48
819.167	63.66
819.345	100.52
819.523	61.61
819.701	100.52
819.879	96.43
820.058	137.38
820.236	104.62
820.414	106.67
820.592	135.34
820.77	110.76
820.948	112.81
821.127	143.53
821.305	151.72
821.483	110.76
821.661	90.28
821.839	129.19
822.017	129.19
822.195	106.67
822.373	133.29
822.551	131.24
822.729	159.91
822.907	37.03
823.085	143.53
823.262	137.38
823.44	4.27
823.618	157.86
823.796	88.23
823.974	96.43
824.152	129.19
824.329	43.18
824.507	65.71
824.685	98.47
824.863	71.85
825.04	14.51
825.218	114.86
825.396	131.24
825.574	10.41
825.751	86.19
825.929	151.72
826.107	96.43
826.284	125.1
826.462	98.47
826.639	178.34
826.817	65.71
826.994	114.86
827.172	57.51
827.349	77.99
827.527	67.75
827.704	121
827.882	82.09
828.059	73.9
828.237	67.75
828.414	149.67
828.591	100.52
828.769	90.28
828.946	57.51
829.124	4.27
829.301	59.56
829.478	114.86
829.655	92.33
829.833	73.9
830.01	80.04
830.187	106.67
830.364	39.08
830.542	90.28
830.719	184.49
830.896	100.52
831.073	88.23
831.25	143.53
831.427	71.85
831.604	102.57
831.782	80.04
831.959	133.29
832.136	49.32
832.313	55.47
832.49	47.27
832.667	82.09
832.844	71.85
833.021	41.13
833.198	106.67
833.374	104.62
833.551	47.27
833.728	84.14
833.905	102.57
834.082	112.81
834.259	100.52
834.436	114.86
834.612	67.75
834.789	161.96
834.966	106.67
835.143	63.66
835.319	88.23
835.496	47.27
835.673	127.14
835.85	88.23
836.026	96.43
836.203	131.24
836.38	49.32
836.556	198.82
836.733	61.61
836.909	123.05
837.086	63.66
837.262	6.31
837.439	104.62
837.616	22.7
837.792	75.95
837.968	12.46
838.145	61.61
838.321	71.85
838.498	92.33
838.674	43.18
838.851	22.7
839.027	135.34
839.203	63.66
839.38	73.9
839.556	110.76
839.732	84.14
839.909	32.94
840.085	53.42
840.261	96.43
840.437	41.13
840.614	32.94
840.79	80.04
840.966	-30.55
841.142	80.04
841.318	57.51
841.494	94.38
841.671	96.43
841.847	73.9
842.023	-3.93
842.199	98.47
842.375	57.51
842.551	121
842.727	71.85
842.903	82.09
843.079	26.79
843.255	135.34
843.431	45.23
843.607	63.66
843.783	-28.5
843.959	106.67
844.134	53.42
844.31	114.86
844.486	69.8
844.662	49.32
844.838	-22.36
845.013	69.8
845.189	59.56
845.365	-8.02
845.541	-24.4
845.716	106.67
845.892	16.55
846.068	51.37
846.244	-8.02
846.419	43.18
846.595	59.56
846.77	67.75
846.946	121
847.122	106.67
847.297	69.8
847.473	100.52
847.648	77.99
847.824	30.89
847.999	43.18
848.175	-5.97
848.35	129.19
848.526	26.79
848.701	90.28
848.876	-28.5
849.052	90.28
849.227	-18.26
849.403	61.61
849.578	14.51
849.753	75.95
849.929	16.55
850.104	55.47
850.279	53.42
850.454	49.32
850.63	75.95
850.805	12.46
850.98	86.19
851.155	61.61
851.33	57.51
851.505	-38.74
851.681	82.09
851.856	43.18
852.031	-1.88
852.206	34.99
852.381	80.04
852.556	16.55
852.731	92.33
852.906	86.19
853.081	30.89
853.256	104.62
853.431	-1.88
853.606	4.27
853.781	41.13
853.956	71.85
854.131	30.89
854.305	10.41
854.48	112.81
854.655	96.43
854.83	-18.26
855.005	55.47
855.18	129.19
855.354	41.13
855.529	77.99
855.704	34.99
855.879	90.28
856.053	71.85
856.228	77.99
856.403	6.31
856.577	63.66
856.752	69.8
856.926	55.47
857.101	-3.93
857.276	34.99
857.45	0.17
857.625	102.57
857.799	37.03
857.974	108.71
858.148	12.46
858.323	0.17
858.497	71.85
858.672	2.22
858.846	-5.97
859.02	84.14
859.195	4.27
859.369	71.85
859.543	71.85
859.718	110.76
859.892	84.14
860.066	8.36
860.241	37.03
860.415	39.08
860.589	73.9
860.763	-22.36
860.938	-5.97
861.112	55.47
861.286	55.47
861.46	-1.88
861.634	-26.45
861.808	73.9
861.982	4.27
862.157	-48.98
862.331	49.32
862.505	8.36
862.679	14.51
862.853	59.56
863.027	-46.93
863.201	37.03
863.375	14.51
863.549	77.99
863.722	-8.02
863.896	174.25
864.07	26.79
864.244	94.38
864.418	37.03
864.592	22.7
864.766	-20.31
864.939	53.42
865.113	100.52
865.287	14.51
865.461	10.41
865.634	80.04
865.808	30.89
865.982	30.89
866.156	84.14
866.329	55.47
866.503	67.75
866.676	73.9
866.85	22.7
867.024	-20.31
867.197	6.31
867.371	49.32
867.544	53.42
867.718	-28.5
867.891	110.76
868.065	65.71
868.238	4.27
868.412	166.06
868.585	34.99
868.759	-14.17
868.932	-38.74
869.105	59.56
869.279	37.03
869.452	-30.55
869.625	90.28
869.799	-10.07
869.972	2.22
870.145	57.51
870.319	-22.36
870.492	55.47
870.665	39.08
870.838	-10.07
871.011	6.31
871.185	22.7
871.358	71.85
871.531	24.75
871.704	53.42
871.877	24.75
872.05	45.23
872.223	4.27
872.396	51.37
872.569	47.27
872.742	47.27
872.915	65.71
873.088	32.94
873.261	30.89
873.434	-18.26
873.607	-10.07
873.78	59.56
873.953	4.27
874.126	30.89
874.299	57.51
874.471	-55.12
874.644	22.7
874.817	57.51
874.99	59.56
875.163	4.27
875.335	57.51
875.508	-1.88
875.681	-10.07
875.853	30.89
876.026	0.17
876.199	88.23
876.371	-3.93
876.544	106.67
876.717	-51.03
876.889	-3.93
877.062	18.6
877.234	22.7
877.407	30.89
877.579	22.7
877.752	10.41
877.924	30.89
878.097	41.13
878.269	18.6
878.442	8.36
878.614	34.99
878.786	28.84
878.959	39.08
879.131	6.31
879.303	55.47
879.476	53.42
879.648	39.08
879.82	-53.08
879.993	90.28
880.165	2.22
880.337	41.13
880.509	67.75
880.681	-5.97
880.854	2.22
881.026	47.27
881.198	22.7
881.37	8.36
881.542	-16.21
881.714	20.65
881.886	22.7
882.058	12.46
882.23	100.52
882.402	37.03
882.574	39.08
882.746	49.32
882.918	80.04
883.09	34.99
883.262	-14.17
883.434	65.71
883.606	4.27
883.778	49.32
883.95	71.85
884.122	-12.12
884.293	22.7
884.465	47.27
884.637	55.47
884.809	24.75
884.98	100.52
885.152	61.61
885.324	43.18
885.496	-30.55
885.667	18.6
885.839	4.27
886.011	100.52
886.182	-26.45
886.354	32.94
886.525	2.22
886.697	51.37
886.869	-18.26
887.04	-1.88
887.212	84.14
887.383	12.46
887.555	71.85
887.726	51.37
887.897	-8.02
888.069	114.86
888.24	61.61
888.412	30.89
888.583	53.42
888.754	24.75
888.926	-85.84
889.097	-8.02
889.268	65.71
889.44	39.08
889.611	-38.74
889.782	-26.45
889.953	22.7
890.125	-1.88
890.296	6.31
890.467	82.09
890.638	45.23
890.809	4.27
890.98	-42.84
891.151	63.66
891.323	2.22
891.494	22.7
891.665	49.32
891.836	55.47
892.007	24.75
892.178	67.75
892.349	102.57
892.52	-14.17
892.691	30.89
892.862	37.03
893.032	80.04
893.203	-24.4
893.374	57.51
893.545	55.47
893.716	-10.07
893.887	63.66
894.057	67.75
894.228	4.27
894.399	-42.84
894.57	-51.03
894.74	63.66
894.911	55.47
895.082	71.85
895.253	12.46
895.423	121
895.594	14.51
895.764	39.08
895.935	47.27
896.106	10.41
896.276	43.18
896.447	57.51
896.617	-44.88
896.788	-1.88
896.958	57.51
897.129	22.7
897.299	0.17
897.47	65.71
897.64	108.71
897.81	24.75
897.981	-3.93
898.151	-12.12
898.322	14.51
898.492	59.56
898.662	10.41
898.832	45.23
899.003	20.65
899.173	-10.07
899.343	80.04
899.513	49.32
