Data from USB4F104151__0__13-10-07-769.txt Node

Date: Fri Mar 14 13:10:07 EDT 2025
User: louis
Spectrometer: USB4F10415
Trigger mode: 4
Integration Time (sec): 2.000000E-2
Scans to average: 1
Electric dark correction enabled: true
Nonlinearity correction enabled: false
Boxcar width: 0
XAxis mode: Wavelengths
Number of Pixels in Spectrum: 3648
>>>>>Begin Spectral Data<<<<<
178.204	-110.08
178.424	-110.08
178.644	-110.08
178.864	-17.92
179.084	-108.03
179.304	-26.11
179.524	23.04
179.744	-40.45
179.964	61.95
180.184	-40.45
180.404	4.61
180.624	-24.06
180.844	16.9
181.064	-3.58
181.283	4.61
181.503	-9.73
181.723	33.28
181.943	-26.11
182.163	25.09
182.383	-38.4
182.602	98.81
182.822	86.53
183.042	41.47
183.262	20.99
183.482	-11.78
183.701	84.48
183.921	51.71
184.141	16.9
184.361	53.76
184.58	33.28
184.8	23.04
185.02	-28.16
185.239	66.05
185.459	18.94
185.679	100.86
185.898	53.76
186.118	64
186.338	-5.63
186.557	55.81
186.777	23.04
186.997	104.96
187.216	74.24
187.436	96.77
187.655	43.52
187.875	78.33
188.095	-22.02
188.314	31.23
188.534	25.09
188.753	-5.63
188.973	86.53
189.192	119.29
189.412	84.48
189.631	-34.3
189.851	-5.63
190.07	72.19
190.29	16.9
190.509	61.95
190.729	18.94
190.948	121.34
191.168	80.38
191.387	96.77
191.607	16.9
191.826	61.95
192.045	23.04
192.265	41.47
192.484	33.28
192.704	61.95
192.923	49.66
193.142	78.33
193.362	6.66
193.581	59.9
193.8	33.28
194.02	66.05
194.239	29.18
194.458	78.33
194.678	51.71
194.897	47.62
195.116	119.29
195.335	86.53
195.555	47.62
195.774	59.9
195.993	76.29
196.212	-13.82
196.432	20.99
196.651	86.53
196.87	-15.87
197.089	111.1
197.308	4.61
197.528	78.33
197.747	-83.45
197.966	-3.58
198.185	72.19
198.404	27.14
198.623	45.57
198.842	160.25
199.062	29.18
199.281	102.91
199.5	59.9
199.719	-3.58
199.938	33.28
200.157	96.77
200.376	55.81
200.595	8.7
200.814	72.19
201.033	18.94
201.252	70.14
201.471	41.47
201.69	80.38
201.909	70.14
202.128	115.2
202.347	29.18
202.566	6.66
202.785	35.33
203.004	20.99
203.223	131.58
203.442	20.99
203.661	12.8
203.879	37.38
204.098	61.95
204.317	4.61
204.536	0.51
204.755	94.72
204.974	27.14
205.193	25.09
205.411	147.97
205.63	35.33
205.849	6.66
206.068	33.28
206.287	25.09
206.505	64
206.724	20.99
206.943	88.57
207.162	51.71
207.381	98.81
207.599	61.95
207.818	8.7
208.037	37.38
208.255	131.58
208.474	18.94
208.693	41.47
208.911	-11.78
209.13	31.23
209.349	49.66
209.567	53.76
209.786	25.09
210.005	61.95
210.223	25.09
210.442	64
210.661	74.24
210.879	59.9
211.098	90.62
211.316	23.04
211.535	84.48
211.753	45.57
211.972	64
212.191	51.71
212.409	94.72
212.628	84.48
212.846	-9.73
213.065	74.24
213.283	182.78
213.502	57.86
213.72	-11.78
213.938	115.2
214.157	123.39
214.375	39.42
214.594	-15.87
214.812	41.47
215.031	16.9
215.249	29.18
215.467	2.56
215.686	133.63
215.904	98.81
216.122	-28.16
216.341	64
216.559	-11.78
216.778	137.73
216.996	90.62
217.214	113.15
217.432	57.86
217.651	12.8
217.869	74.24
218.087	47.62
218.306	-75.26
218.524	107.01
218.742	12.8
218.96	78.33
219.179	-17.92
219.397	78.33
219.615	39.42
219.833	6.66
220.051	100.86
220.27	31.23
220.488	68.09
220.706	64
220.924	68.09
221.142	96.77
221.36	33.28
221.578	39.42
221.796	43.52
222.015	41.47
222.233	82.43
222.451	27.14
222.669	6.66
222.887	39.42
223.105	29.18
223.323	6.66
223.541	72.19
223.759	76.29
223.977	20.99
224.195	74.24
224.413	102.91
224.631	-13.82
224.849	-28.16
225.067	-19.97
225.285	-11.78
225.503	111.1
225.721	10.75
225.939	18.94
226.157	-69.12
226.375	100.86
226.592	-30.21
226.81	33.28
227.028	53.76
227.246	-17.92
227.464	8.7
227.682	86.53
227.9	55.81
228.117	139.77
228.335	8.7
228.553	86.53
228.771	109.05
228.989	96.77
229.206	23.04
229.424	35.33
229.642	4.61
229.86	2.56
230.077	23.04
230.295	23.04
230.513	39.42
230.731	160.25
230.948	45.57
231.166	57.86
231.384	68.09
231.601	80.38
231.819	88.57
232.037	74.24
232.254	29.18
232.472	23.04
232.689	23.04
232.907	25.09
233.125	29.18
233.342	47.62
233.56	-73.21
233.777	-17.92
233.995	121.34
234.213	119.29
234.43	86.53
234.648	90.62
234.865	102.91
235.083	90.62
235.3	90.62
235.518	18.94
235.735	61.95
235.953	86.53
236.17	78.33
236.388	94.72
236.605	53.76
236.822	92.67
237.04	51.71
237.257	43.52
237.475	25.09
237.692	96.77
237.909	53.76
238.127	37.38
238.344	55.81
238.562	49.66
238.779	41.47
238.996	4.61
239.214	14.85
239.431	96.77
239.648	8.7
239.865	31.23
240.083	0.51
240.3	78.33
240.517	37.38
240.735	41.47
240.952	55.81
241.169	66.05
241.386	94.72
241.603	27.14
241.821	74.24
242.038	84.48
242.255	78.33
242.472	-42.5
242.689	41.47
242.907	170.49
243.124	86.53
243.341	49.66
243.558	47.62
243.775	29.18
243.992	47.62
244.209	104.96
244.426	80.38
244.643	88.57
244.86	45.57
245.078	39.42
245.295	86.53
245.512	68.09
245.729	43.52
245.946	39.42
246.163	27.14
246.38	100.86
246.597	88.57
246.814	70.14
247.031	53.76
247.248	70.14
247.464	47.62
247.681	55.81
247.898	92.67
248.115	20.99
248.332	-67.07
248.549	45.57
248.766	98.81
248.983	47.62
249.2	74.24
249.417	72.19
249.633	37.38
249.85	66.05
250.067	20.99
250.284	66.05
250.501	109.05
250.717	41.47
250.934	-52.74
251.151	8.7
251.368	27.14
251.585	49.66
251.801	123.39
252.018	37.38
252.235	137.73
252.451	84.48
252.668	-1.54
252.885	-5.63
253.102	-38.4
253.318	-9.73
253.535	-30.21
253.752	20.99
253.968	37.38
254.185	37.38
254.401	66.05
254.618	115.2
254.835	-52.74
255.051	152.06
255.268	96.77
255.484	14.85
255.701	64
255.917	160.25
256.134	70.14
256.351	41.47
256.567	-19.97
256.784	119.29
257	-28.16
257.217	121.34
257.433	74.24
257.65	49.66
257.866	88.57
258.082	45.57
258.299	14.85
258.515	64
258.732	57.86
258.948	12.8
259.165	8.7
259.381	37.38
259.597	47.62
259.814	66.05
260.03	8.7
260.246	-19.97
260.463	53.76
260.679	31.23
260.895	12.8
261.112	107.01
261.328	-44.54
261.544	-11.78
261.761	82.43
261.977	-19.97
262.193	-7.68
262.409	8.7
262.626	78.33
262.842	61.95
263.058	33.28
263.274	111.1
263.49	90.62
263.707	64
263.923	2.56
264.139	10.75
264.355	59.9
264.571	90.62
264.787	20.99
265.004	72.19
265.22	18.94
265.436	41.47
265.652	37.38
265.868	158.21
266.084	39.42
266.3	76.29
266.516	72.19
266.732	39.42
266.948	57.86
267.164	107.01
267.38	92.67
267.596	66.05
267.812	102.91
268.028	88.57
268.244	45.57
268.46	-19.97
268.676	-22.02
268.892	-54.78
269.108	-38.4
269.324	-22.02
269.54	-3.58
269.756	133.63
269.972	6.66
270.188	35.33
270.403	33.28
270.619	0.51
270.835	37.38
271.051	61.95
271.267	-24.06
271.483	129.53
271.698	84.48
271.914	76.29
272.13	45.57
272.346	61.95
272.562	29.18
272.777	84.48
272.993	12.8
273.209	53.76
273.425	31.23
273.64	8.7
273.856	100.86
274.072	64
274.287	70.14
274.503	76.29
274.719	68.09
274.934	72.19
275.15	-30.21
275.366	57.86
275.581	-44.54
275.797	18.94
276.012	31.23
276.228	-32.26
276.444	-3.58
276.659	49.66
276.875	-1.54
277.09	92.67
277.306	49.66
277.521	64
277.737	35.33
277.952	119.29
278.168	94.72
278.383	47.62
278.599	-3.58
278.814	-30.21
279.03	23.04
279.245	78.33
279.461	-17.92
279.676	27.14
279.892	-1.54
280.107	80.38
280.322	12.8
280.538	33.28
280.753	49.66
280.969	29.18
281.184	72.19
281.399	64
281.615	25.09
281.83	107.01
282.045	70.14
282.26	53.76
282.476	25.09
282.691	45.57
282.906	41.47
283.122	4.61
283.337	70.14
283.552	39.42
283.767	31.23
283.983	139.77
284.198	41.47
284.413	35.33
284.628	4.61
284.843	8.7
285.058	86.53
285.274	29.18
285.489	4.61
285.704	12.8
285.919	39.42
286.134	70.14
286.349	96.77
286.564	86.53
286.779	80.38
286.995	41.47
287.21	-28.16
287.425	47.62
287.64	-30.21
287.855	29.18
288.07	64
288.285	33.28
288.5	102.91
288.715	131.58
288.93	51.71
289.145	43.52
289.36	31.23
289.575	72.19
289.79	78.33
290.004	8.7
290.219	70.14
290.434	45.57
290.649	74.24
290.864	-50.69
291.079	-15.87
291.294	82.43
291.509	20.99
291.724	-15.87
291.938	-38.4
292.153	131.58
292.368	-15.87
292.583	39.42
292.798	74.24
293.012	-46.59
293.227	37.38
293.442	23.04
293.657	35.33
293.871	47.62
294.086	-1.54
294.301	115.2
294.516	57.86
294.73	47.62
294.945	12.8
295.16	57.86
295.374	64
295.589	41.47
295.804	10.75
296.018	49.66
296.233	66.05
296.447	31.23
296.662	18.94
296.877	166.4
297.091	37.38
297.306	104.96
297.52	20.99
297.735	35.33
297.949	45.57
298.164	53.76
298.378	-7.68
298.593	14.85
298.807	39.42
299.022	-5.63
299.236	113.15
299.451	100.86
299.665	-22.02
299.88	84.48
300.094	66.05
300.309	55.81
300.523	72.19
300.737	96.77
300.952	57.86
301.166	94.72
301.381	80.38
301.595	-11.78
301.809	37.38
302.024	18.94
302.238	35.33
302.452	90.62
302.667	31.23
302.881	6.66
303.095	14.85
303.309	18.94
303.524	37.38
303.738	53.76
303.952	29.18
304.166	135.68
304.381	6.66
304.595	61.95
304.809	47.62
305.023	88.57
305.237	76.29
305.452	119.29
305.666	49.66
305.88	61.95
306.094	45.57
306.308	47.62
306.522	70.14
306.736	78.33
306.95	14.85
307.164	59.9
307.379	31.23
307.593	80.38
307.807	37.38
308.021	84.48
308.235	70.14
308.449	16.9
308.663	27.14
308.877	96.77
309.091	43.52
309.305	121.34
309.519	-11.78
309.733	66.05
309.947	51.71
310.161	20.99
310.374	55.81
310.588	4.61
310.802	43.52
311.016	-9.73
311.23	33.28
311.444	78.33
311.658	80.38
311.872	-1.54
312.085	72.19
312.299	88.57
312.513	43.52
312.727	6.66
312.941	66.05
313.154	2.56
313.368	51.71
313.582	20.99
313.796	27.14
314.009	31.23
314.223	37.38
314.437	96.77
314.651	86.53
314.864	45.57
315.078	74.24
315.292	-58.88
315.505	4.61
315.719	82.43
315.933	-11.78
316.146	80.38
316.36	-52.74
316.573	61.95
316.787	107.01
317.001	82.43
317.214	27.14
317.428	12.8
317.641	80.38
317.855	102.91
318.068	64
318.282	45.57
318.495	6.66
318.709	53.76
318.922	29.18
319.136	51.71
319.349	86.53
319.563	2.56
319.776	43.52
319.99	49.66
320.203	70.14
320.417	-5.63
320.63	94.72
320.843	96.77
321.057	49.66
321.27	37.38
321.483	72.19
321.697	37.38
321.91	92.67
322.124	88.57
322.337	66.05
322.55	-28.16
322.763	84.48
322.977	4.61
323.19	80.38
323.403	66.05
323.617	96.77
323.83	20.99
324.043	39.42
324.256	14.85
324.469	4.61
324.683	70.14
324.896	37.38
325.109	102.91
325.322	18.94
325.535	82.43
325.748	29.18
325.962	45.57
326.175	70.14
326.388	-13.82
326.601	55.81
326.814	61.95
327.027	12.8
327.24	147.97
327.453	8.7
327.666	139.77
327.879	45.57
328.092	33.28
328.305	74.24
328.518	92.67
328.731	39.42
328.944	111.1
329.157	94.72
329.37	45.57
329.583	86.53
329.796	64
330.009	12.8
330.222	43.52
330.435	53.76
330.648	57.86
330.861	45.57
331.073	80.38
331.286	23.04
331.499	92.67
331.712	8.7
331.925	-1.54
332.138	4.61
332.35	53.76
332.563	111.1
332.776	41.47
332.989	57.86
333.202	23.04
333.414	-13.82
333.627	41.47
333.84	29.18
334.053	43.52
334.265	4.61
334.478	29.18
334.691	39.42
334.903	16.9
335.116	66.05
335.329	37.38
335.541	121.34
335.754	86.53
335.966	43.52
336.179	80.38
336.392	59.9
336.604	43.52
336.817	49.66
337.029	59.9
337.242	23.04
337.454	37.38
337.667	66.05
337.88	123.39
338.092	201.21
338.305	45.57
338.517	37.38
338.729	66.05
338.942	66.05
339.154	53.76
339.367	104.96
339.579	80.38
339.792	61.95
340.004	141.82
340.217	-13.82
340.429	41.47
340.641	12.8
340.854	61.95
341.066	20.99
341.278	57.86
341.491	59.9
341.703	47.62
341.915	133.63
342.128	72.19
342.34	53.76
342.552	37.38
342.764	86.53
342.977	29.18
343.189	107.01
343.401	-5.63
343.613	31.23
343.826	41.47
344.038	49.66
344.25	113.15
344.462	20.99
344.674	72.19
344.886	96.77
345.099	76.29
345.311	4.61
345.523	107.01
345.735	61.95
345.947	68.09
346.159	80.38
346.371	37.38
346.583	61.95
346.795	70.14
347.007	27.14
347.219	31.23
347.431	92.67
347.643	37.38
347.855	39.42
348.067	8.7
348.279	80.38
348.491	37.38
348.703	61.95
348.915	94.72
349.127	74.24
349.339	35.33
349.551	29.18
349.763	107.01
349.975	45.57
350.187	94.72
350.399	76.29
350.61	68.09
350.822	113.15
351.034	55.81
351.246	18.94
351.458	45.57
351.669	31.23
351.881	90.62
352.093	18.94
352.305	41.47
352.517	102.91
352.728	184.83
352.94	2.56
353.152	6.66
353.363	-42.5
353.575	43.52
353.787	96.77
353.999	49.66
354.21	70.14
354.422	31.23
354.633	12.8
354.845	107.01
355.057	53.76
355.268	23.04
355.48	80.38
355.692	55.81
355.903	-1.54
356.115	70.14
356.326	88.57
356.538	123.39
356.749	94.72
356.961	80.38
357.172	23.04
357.384	16.9
357.595	12.8
357.807	-1.54
358.018	37.38
358.23	27.14
358.441	133.63
358.653	70.14
358.864	-9.73
359.075	47.62
359.287	92.67
359.498	90.62
359.709	139.77
359.921	66.05
360.132	55.81
360.344	72.19
360.555	47.62
360.766	78.33
360.977	0.51
361.189	64
361.4	74.24
361.611	-15.87
361.823	68.09
362.034	80.38
362.245	74.24
362.456	18.94
362.667	94.72
362.879	61.95
363.09	-11.78
363.301	45.57
363.512	2.56
363.723	29.18
363.935	92.67
364.146	80.38
364.357	47.62
364.568	90.62
364.779	31.23
364.99	94.72
365.201	111.1
365.412	20.99
365.623	29.18
365.834	66.05
366.045	90.62
366.256	72.19
366.467	29.18
366.678	74.24
366.889	113.15
367.1	53.76
367.311	64
367.522	80.38
367.733	55.81
367.944	59.9
368.155	2.56
368.366	23.04
368.577	129.53
368.788	135.68
368.999	18.94
369.209	49.66
369.42	74.24
369.631	123.39
369.842	121.34
370.053	111.1
370.264	127.49
370.474	31.23
370.685	119.29
370.896	115.2
371.107	90.62
371.317	18.94
371.528	51.71
371.739	76.29
371.95	59.9
372.16	45.57
372.371	-26.11
372.582	23.04
372.792	27.14
373.003	57.86
373.214	92.67
373.424	92.67
373.635	76.29
373.846	102.91
374.056	27.14
374.267	16.9
374.477	16.9
374.688	51.71
374.898	61.95
375.109	70.14
375.319	57.86
375.53	115.2
375.74	111.1
375.951	88.57
376.161	39.42
376.372	78.33
376.582	70.14
376.793	88.57
377.003	76.29
377.214	104.96
377.424	47.62
377.635	49.66
377.845	74.24
378.055	94.72
378.266	-13.82
378.476	70.14
378.686	29.18
378.897	135.68
379.107	64
379.317	143.87
379.528	20.99
379.738	86.53
379.948	135.68
380.158	176.64
380.369	59.9
380.579	68.09
380.789	78.33
380.999	94.72
381.21	23.04
381.42	164.35
381.63	70.14
381.84	33.28
382.05	86.53
382.261	92.67
382.471	68.09
382.681	96.77
382.891	74.24
383.101	119.29
383.311	16.9
383.521	64
383.731	104.96
383.941	111.1
384.151	102.91
384.361	68.09
384.571	-1.54
384.781	59.9
384.991	190.97
385.201	104.96
385.411	86.53
385.621	121.34
385.831	53.76
386.041	107.01
386.251	115.2
386.461	29.18
386.671	-28.16
386.881	90.62
387.091	92.67
387.301	104.96
387.511	12.8
387.72	39.42
387.93	57.86
388.14	-26.11
388.35	29.18
388.56	39.42
388.769	45.57
388.979	131.58
389.189	37.38
389.399	37.38
389.609	41.47
389.818	68.09
390.028	57.86
390.238	64
390.447	119.29
390.657	25.09
390.867	37.38
391.076	35.33
391.286	107.01
391.496	84.48
391.705	72.19
391.915	121.34
392.125	135.68
392.334	102.91
392.544	141.82
392.753	64
392.963	100.86
393.172	86.53
393.382	115.2
393.591	86.53
393.801	121.34
394.01	143.87
394.22	31.23
394.429	41.47
394.639	57.86
394.848	70.14
395.058	96.77
395.267	37.38
395.477	139.77
395.686	88.57
395.895	90.62
396.105	158.21
396.314	47.62
396.524	100.86
396.733	123.39
396.942	20.99
397.152	100.86
397.361	102.91
397.57	45.57
397.78	125.44
397.989	113.15
398.198	160.25
398.407	64
398.617	39.42
398.826	51.71
399.035	139.77
399.244	178.69
399.453	102.91
399.663	104.96
399.872	49.66
400.081	109.05
400.29	39.42
400.499	-19.97
400.708	111.1
400.917	119.29
401.127	20.99
401.336	64
401.545	139.77
401.754	111.1
401.963	53.76
402.172	125.44
402.381	121.34
402.59	84.48
402.799	119.29
403.008	180.73
403.217	152.06
403.426	100.86
403.635	111.1
403.844	84.48
404.053	123.39
404.262	57.86
404.471	178.69
404.68	92.67
404.888	152.06
405.097	143.87
405.306	139.77
405.515	107.01
405.724	154.11
405.933	168.45
406.142	113.15
406.35	168.45
406.559	156.16
406.768	121.34
406.977	225.79
407.185	137.73
407.394	203.26
407.603	111.1
407.812	182.78
408.02	209.4
408.229	195.07
408.438	227.84
408.646	158.21
408.855	231.93
409.064	219.64
409.272	205.31
409.481	276.99
409.69	246.27
409.898	188.93
410.107	242.17
410.315	240.12
410.524	260.6
410.733	297.47
410.941	201.21
411.15	281.08
411.358	295.42
411.567	430.59
411.775	305.66
411.984	416.25
412.192	322.04
412.401	348.67
412.609	397.82
412.818	342.52
413.026	449.02
413.234	442.87
413.443	360.95
413.651	496.12
413.86	438.78
414.068	496.12
414.276	475.64
414.485	440.83
414.693	455.16
414.901	553.46
415.11	612.85
415.318	555.51
415.526	487.93
415.734	676.34
415.943	614.9
416.151	684.53
416.359	653.81
416.567	666.1
416.776	748.02
416.984	686.58
417.192	770.55
417.4	786.93
417.608	717.3
417.817	907.76
418.025	825.84
418.233	909.81
418.441	897.52
418.649	926.19
418.857	901.62
419.065	911.86
419.273	922.1
419.481	1022.45
419.689	1110.51
419.897	1040.88
420.105	1051.12
420.313	1235.44
420.521	1100.27
420.729	1303.02
420.937	1237.49
421.145	1364.46
421.353	1335.79
421.561	1423.85
421.769	1501.67
421.977	1528.3
422.185	1507.82
422.393	1602.02
422.601	1671.65
422.809	1739.24
423.017	1647.08
423.224	1847.78
423.432	1941.99
423.64	1835.49
423.848	2083.3
424.056	1970.66
424.263	2025.95
424.471	2095.58
424.679	2171.36
424.887	2259.42
425.094	2384.35
425.302	2306.52
425.51	2378.2
425.718	2462.17
425.925	2472.41
426.133	2683.35
426.341	2859.48
426.548	2922.96
426.756	2963.92
426.964	2699.73
427.171	2996.69
427.379	3060.18
427.586	3138
427.794	3289.55
428.001	3486.15
428.209	3430.86
428.417	3639.75
428.624	3805.64
428.832	3822.02
429.039	3635.66
429.247	3819.97
429.454	4118.98
429.662	4485.56
429.869	4096.45
430.076	4422.08
430.284	4329.92
430.491	4510.14
430.699	4733.37
430.906	4567.48
431.114	4678.07
431.321	5175.73
431.528	4936.12
431.736	5386.67
431.943	5624.23
432.15	5392.81
432.358	5476.78
432.565	5695.91
432.772	5716.39
432.979	6164.9
433.187	6199.71
433.394	6205.86
433.601	6680.99
433.808	6715.8
434.016	6515.1
434.223	6664.6
434.43	7246.23
434.637	7174.55
434.844	7621
435.052	7854.47
435.259	7803.27
435.466	7704.97
435.673	7750.03
435.88	8231.3
436.087	8728.95
436.294	8714.62
436.501	8475.01
436.708	8622.46
436.915	8853.88
437.122	9306.48
437.329	9359.73
437.537	9683.31
437.743	9738.6
437.95	9564.53
438.157	10082.66
438.364	10445.15
438.571	10316.13
438.778	10445.15
438.985	11469.14
439.192	10981.72
439.399	11299.16
439.606	11184.47
439.813	11782.48
440.02	12462.4
440.227	12294.47
440.433	12218.69
440.64	12599.62
440.847	12484.93
441.054	12794.17
441.261	13635.89
441.467	13615.41
441.674	13834.54
441.881	14088.49
442.088	14317.86
442.294	14190.89
442.501	14745.89
442.708	14508.32
442.914	15520.02
443.121	16181.51
443.328	15468.82
443.534	16787.71
443.741	16093.45
443.948	15962.38
444.154	17195.26
444.361	17350.9
444.568	17268.98
444.774	17082.62
444.981	17348.86
445.187	17832.18
445.394	18774.24
445.6	18524.39
445.807	20140.24
446.013	19267.8
446.22	19642.58
446.426	20527.3
446.633	20709.57
446.839	21534.9
447.046	20525.25
447.252	21874.87
447.459	22073.52
447.665	21952.69
447.871	22661.29
448.078	23752.85
448.284	22622.37
448.491	23230.62
448.697	23971.99
448.903	24645.77
449.11	24387.72
449.316	24219.79
449.522	24651.91
449.728	25342.08
449.935	25618.55
450.141	25673.85
450.347	25903.22
450.553	25362.56
450.76	25690.23
450.966	26501.23
451.172	26148.98
451.378	26972.26
451.584	26421.36
451.791	26925.16
451.997	26871.91
452.203	27359.33
452.409	27297.89
452.615	27687
452.821	26425.45
453.027	26005.62
453.233	27385.95
453.44	26640.49
453.646	26888.29
453.852	26812.52
454.058	27275.36
454.264	26173.55
454.47	27177.06
454.676	26179.7
454.882	26955.88
455.088	24762.5
455.294	25669.75
455.5	25663.61
455.705	25827.45
455.911	25014.4
456.117	24582.28
456.323	24230.03
456.529	22882.47
456.735	24109.2
456.941	23414.94
457.147	22935.71
457.352	22446.25
457.558	22098.09
457.764	22352.04
457.97	21684.41
458.176	21307.58
458.381	21215.42
458.587	20113.61
458.793	20195.53
458.999	19224.79
459.204	20508.87
459.41	19816.66
459.616	18751.71
459.821	18614.5
460.027	18436.33
460.233	18184.43
460.438	17492.21
460.644	17471.73
460.85	16818.43
461.055	16490.76
461.261	16355.59
461.466	15214.87
461.672	14719.26
461.878	15675.66
462.083	14846.24
462.289	14391.59
462.494	14192.94
462.7	13740.33
462.905	13261.11
463.111	13537.59
463.316	13488.43
463.522	13369.65
463.727	13345.08
463.932	13611.31
464.138	13623.6
464.343	13416.76
464.549	13263.16
464.754	13365.56
464.959	13234.49
465.165	13209.91
465.37	12742.97
465.575	12163.4
465.781	12808.51
465.986	13025.59
466.191	12476.74
466.397	12239.17
466.602	11587.92
466.807	12163.4
467.012	11866.44
467.218	12020.04
467.423	11655.5
467.628	12046.66
467.833	12198.21
468.038	11798.86
468.244	11594.06
468.449	11923.79
468.654	11592.02
468.859	11573.58
469.064	11737.42
469.269	11137.37
469.474	11045.21
469.679	11460.95
469.885	11000.15
470.09	11088.21
470.295	11319.64
470.5	10809.69
470.705	11055.45
470.91	10723.68
471.115	10754.4
471.32	10791.26
471.525	10668.38
471.73	10568.03
471.935	10457.44
472.139	9984.36
472.344	10332.51
472.549	10025.32
472.754	9986.41
472.959	9732.46
473.164	9503.09
473.369	9597.29
473.574	9859.43
473.778	9658.73
473.983	9765.23
474.188	9515.37
474.393	9175.41
474.598	9060.73
474.802	9105.78
475.007	9130.36
475.212	9167.22
475.417	8726.91
475.621	8755.58
475.826	8782.2
476.031	8485.25
476.235	8468.86
476.44	8606.08
476.645	8317.31
476.849	8327.55
477.054	8354.18
477.259	8225.15
477.463	8241.54
477.668	8044.93
477.872	7895.43
478.077	7901.58
478.282	7553.42
478.486	7778.7
478.691	7598.48
478.895	7645.58
479.1	7410.06
479.304	7741.83
479.509	7348.62
479.713	7485.84
479.918	7235.99
480.122	7207.31
480.326	7272.85
480.531	7475.6
480.735	7115.16
480.94	7141.78
481.144	7455.12
481.348	7027.09
481.553	6992.28
481.757	6990.23
481.961	7182.74
482.166	7106.96
482.37	7219.6
482.574	7008.66
482.778	6939.03
482.983	7213.46
483.187	6949.27
483.391	7135.64
483.595	7004.57
483.8	7049.62
484.004	7137.68
484.208	7190.93
484.412	6951.32
484.616	6973.85
484.821	7111.06
485.025	6883.73
485.229	7047.57
485.433	6900.12
485.637	7027.09
485.841	6992.28
486.045	6885.78
486.249	6881.69
486.453	6900.12
486.657	7016.85
486.861	7111.06
487.065	6713.75
487.269	6994.33
487.473	6908.31
487.677	6996.37
487.881	7133.59
488.085	6945.17
488.289	7012.76
488.493	6865.3
488.697	7139.73
488.901	6984.09
489.105	7000.47
489.309	7033.24
489.512	7098.77
489.716	7059.86
489.92	6930.84
490.124	7068.05
490.328	7252.37
490.531	6969.75
490.735	7158.16
490.939	7197.07
491.143	7080.34
491.346	7188.88
491.55	7483.79
491.754	7303.57
491.958	7344.53
492.161	7381.39
492.365	7346.58
492.569	7385.49
492.772	7375.25
492.976	7319.95
493.18	7668.11
493.383	7418.25
493.587	7614.86
493.79	7664.01
493.994	7502.22
494.197	7670.15
494.401	7754.12
494.605	7682.44
494.808	7868.81
495.012	7807.37
495.215	8020.36
495.419	8225.15
495.622	7846.28
495.825	8012.17
496.029	8081.8
496.232	8268.16
496.436	8049.03
496.639	8358.27
496.843	8444.29
497.046	8587.64
497.249	8509.82
497.453	8722.81
497.656	8653.18
497.859	8776.06
498.063	8845.69
498.266	9044.34
498.469	8808.83
498.673	9056.63
498.876	9236.85
499.079	9324.91
499.282	9077.11
499.485	9591.15
499.689	9562.48
499.892	9662.83
500.095	9853.29
500.298	9904.49
500.501	10125.67
500.705	10111.33
500.908	9984.36
501.111	10385.76
501.314	10359.14
501.517	10412.39
501.72	10654.05
501.923	10590.56
502.126	10883.42
502.329	11100.5
502.532	11194.71
502.735	11116.89
502.938	11383.12
503.141	11546.96
503.344	11585.87
503.547	11647.31
503.75	11710.8
503.953	12151.11
504.156	12104.01
504.359	12138.82
504.562	12407.11
504.765	12370.24
504.968	12550.46
505.17	12845.37
505.373	12839.23
505.576	12890.43
505.779	13107.51
505.982	13177.14
506.185	13478.19
506.387	13214.01
506.59	13574.45
506.793	14123.3
506.996	13719.85
507.198	14340.39
507.401	14426.4
507.604	14407.97
507.807	14700.83
508.009	14668.06
508.212	14795.04
508.415	15022.36
508.617	15057.18
508.82	15347.99
509.022	15397.14
509.225	15399.19
509.428	15313.17
509.63	15716.62
509.833	15612.18
510.035	16371.97
510.238	16208.14
510.44	16388.36
510.643	16689.41
510.845	17025.28
511.048	16793.86
511.25	17256.7
511.453	17101.05
511.655	17674.48
511.858	17649.91
512.06	17787.12
512.262	17938.67
512.465	18010.35
512.667	18209
512.87	18467.05
513.072	18739.43
513.274	18858.21
513.477	19017.95
513.679	19046.62
513.881	19542.23
514.084	19304.67
514.286	19658.96
514.488	19640.53
514.69	20302.03
514.893	20037.84
515.095	20316.36
515.297	20537.54
515.499	20547.78
515.701	20984
515.904	21065.92
516.106	21328.06
516.308	21371.07
516.51	21786.8
516.712	21403.83
516.914	21985.46
517.116	22319.28
517.318	22393
517.52	22272.17
517.722	22812.84
517.925	23001.25
518.127	23193.76
518.329	23238.81
518.531	22948
518.733	23629.98
518.935	23818.39
519.136	23722.13
519.338	24178.83
519.54	24227.98
519.742	24463.5
519.944	24514.7
520.146	25129.09
520.348	25227.39
520.55	25254.01
520.752	25239.68
520.954	25950.32
521.155	25753.72
521.357	25909.36
521.559	26124.4
521.761	26779.75
521.963	26699.88
522.164	27035.75
522.366	26777.7
522.568	27080.8
522.77	27433.05
522.971	27570.27
523.173	27408.48
523.375	28018.77
523.576	27668.57
523.778	28002.39
523.98	28209.23
524.181	28229.71
524.383	28461.13
524.584	28651.59
524.786	28680.27
524.988	28938.31
525.189	29384.77
525.391	28737.61
525.592	29042.76
525.794	29419.58
525.995	29399.1
526.197	29669.44
526.398	29511.74
526.6	29741.11
526.801	29837.37
527.003	30511.15
527.204	30380.08
527.406	30457.9
527.607	30498.86
527.808	30838.83
528.01	30378.03
528.211	30505.01
528.412	31088.68
528.614	30769.19
528.815	30832.68
529.016	31449.12
529.218	31150.12
529.419	31416.35
529.62	31363.11
529.822	31514.66
530.023	31608.86
530.224	31393.82
530.425	31619.1
530.626	31045.67
530.828	31295.52
531.029	31766.56
531.23	31514.66
531.431	31371.3
531.632	31891.48
531.833	31993.88
532.035	31922.2
532.236	32073.75
532.437	31981.59
532.638	32030.74
532.839	32045.08
533.04	31850.52
533.241	32104.47
533.442	32335.89
533.643	32256.02
533.844	32323.6
534.045	32229.4
534.246	32102.42
534.447	32276.5
534.648	32094.23
534.849	32391.19
535.05	32073.75
535.251	32385.04
535.451	32333.84
535.652	32272.4
535.853	32127
536.054	32606.22
536.255	32380.95
536.456	32081.94
536.657	32862.22
536.857	32378.9
537.058	32403.47
537.259	32561.17
537.46	32702.48
537.66	32464.91
537.861	32329.75
538.062	32266.26
538.263	32518.16
538.463	32512.02
538.664	32210.96
538.865	32325.65
539.065	32620.56
539.266	32292.88
539.466	32606.22
539.667	32227.35
539.868	32712.72
540.068	32262.16
540.269	32102.42
540.469	32503.82
540.67	32217.11
540.87	32215.06
541.071	32344.08
541.271	32671.76
541.472	32045.08
541.672	32258.07
541.873	32225.3
542.073	32032.79
542.274	32759.82
542.474	32155.67
542.675	32290.84
542.875	32469.01
543.075	32370.71
543.276	32133.14
543.476	32686.09
543.676	32432.15
543.877	32215.06
544.077	32213.01
544.277	32595.98
544.478	32170.01
544.678	32354.32
544.878	32344.08
545.078	32399.38
545.279	31946.78
545.479	32006.17
545.679	32331.79
545.879	32540.69
546.079	32172.05
546.28	32088.09
546.48	31850.52
546.68	32407.57
546.88	32405.52
547.08	31967.26
547.28	32092.18
547.48	31948.82
547.68	32055.32
547.88	32051.22
548.081	32305.17
548.281	32118.81
548.481	31774.75
548.681	32401.43
548.881	32110.61
549.081	32362.51
549.28	32002.07
549.48	32100.37
549.68	32247.83
549.88	32389.14
550.08	31959.06
550.28	32026.65
550.48	32024.6
550.68	32352.27
550.88	31764.51
551.08	32016.41
551.279	31858.71
551.479	31555.61
551.679	32253.97
551.879	32266.26
552.079	32251.92
552.278	32051.22
552.478	31709.21
552.678	32104.47
552.878	32098.33
553.077	32129.05
553.277	31784.99
553.477	32243.73
553.676	31993.88
553.876	31848.47
554.076	31940.63
554.275	31883.29
554.475	31356.96
554.674	31653.92
554.874	31776.8
555.074	31701.02
555.273	32057.37
555.473	32204.82
555.672	31682.59
555.872	31514.66
556.071	31600.67
556.271	32133.14
556.47	31580.19
556.67	31229.99
556.869	31297.57
557.068	31805.47
557.268	31572
557.467	31649.82
557.667	31463.46
557.866	31311.91
558.065	31559.71
558.265	31033.38
558.464	31436.83
558.663	31535.13
558.863	30898.22
559.062	31735.84
559.261	30916.65
559.461	31287.33
559.66	30998.57
559.859	30892.07
560.058	30679.08
560.258	31197.22
560.457	30480.43
560.656	30953.51
560.855	30650.41
561.054	30902.31
561.253	30443.57
561.453	30804.01
561.652	30752.81
561.851	30529.58
562.05	30332.98
562.249	30244.91
562.448	31098.92
562.647	30355.5
562.846	30261.3
563.045	30459.95
563.244	30029.88
563.443	30490.67
563.642	29837.37
563.841	30208.05
564.04	29859.9
564.239	30091.32
564.438	29876.28
564.637	30007.35
564.836	29853.75
565.035	29681.72
565.234	30083.12
565.432	29458.49
565.631	29317.18
565.83	29622.33
566.029	29403.2
566.228	29454.4
566.427	29448.25
566.625	29202.5
566.824	29044.8
567.023	29370.43
567.222	28866.63
567.42	29202.5
567.619	29220.93
567.818	28905.54
568.016	28641.35
568.215	28774.47
568.414	28659.79
568.612	29009.99
568.811	28737.61
569.01	28616.78
569.208	28074.07
569.407	28774.47
569.605	28045.4
569.804	28432.46
570.002	28188.75
570.201	28459.09
570.4	27977.81
570.598	27875.41
570.797	28231.76
570.995	28035.16
571.193	27535.45
571.392	27811.93
571.59	27502.68
571.789	27666.52
571.987	27531.36
572.186	27529.31
572.384	27297.89
572.582	27273.31
572.781	27461.72
572.979	26673.26
573.177	27052.13
573.376	27148.39
573.574	26925.16
573.772	27236.45
573.971	26798.18
574.169	26759.27
574.367	26740.84
574.565	26853.48
574.763	26386.54
574.962	26722.41
575.16	26255.47
575.358	26355.82
575.556	26353.77
575.754	26427.5
575.952	26128.5
576.151	26056.82
576.349	25993.33
576.547	26003.57
576.745	26062.96
576.943	26224.75
577.141	25960.56
577.339	25821.3
577.537	25499.77
577.735	25284.73
577.933	25294.97
578.131	25536.63
578.329	25419.9
578.527	25475.2
578.725	25548.92
578.923	25471.1
579.121	24989.83
579.319	25096.32
579.516	25233.53
579.714	24877.19
579.912	24993.92
580.11	24387.72
580.308	24930.44
580.506	24725.64
580.704	24754.31
580.901	24754.31
581.099	24844.42
581.297	24307.85
581.495	24180.88
581.692	24565.9
581.89	24117.39
582.088	24359.05
582.285	23908.5
582.483	24465.55
582.681	23955.6
582.878	23961.75
583.076	23980.18
583.274	23689.37
583.471	23558.3
583.669	24004.75
583.866	23580.82
584.064	23888.02
584.262	23629.98
584.459	23662.74
584.657	23531.67
584.854	23687.32
585.052	23046.3
585.249	23011.49
585.447	23404.7
585.644	23015.58
585.841	23244.96
586.039	23142.56
586.236	22671.53
586.434	22696.1
586.631	22778.02
586.828	22921.38
587.026	22884.51
587.223	22706.34
587.42	22649
587.618	22780.07
587.815	22231.21
588.012	22247.6
588.21	22425.77
588.407	22177.97
588.604	22122.67
588.801	22098.09
588.999	21973.17
589.196	22098.09
589.393	22143.15
589.59	22091.95
589.787	21864.63
589.984	21688.5
590.182	21463.22
590.379	21772.47
590.576	21651.64
590.773	21907.63
590.97	21326.01
591.167	21481.66
591.364	21141.69
591.561	21260.48
591.758	21158.08
591.955	21240
592.152	21328.06
592.349	21041.34
592.546	21201.08
592.743	21303.48
592.94	20793.54
593.137	20979.9
593.334	20877.51
593.531	20578.5
593.727	20586.69
593.924	20525.25
594.121	20312.27
594.318	20949.18
594.515	20351.18
594.712	20396.23
594.908	20148.43
595.105	20502.73
595.302	20250.83
595.499	20273.35
595.696	20207.82
595.892	19833.04
596.089	19902.67
596.286	20007.12
596.482	19697.88
596.679	19482.84
596.876	19820.75
597.072	19337.43
597.269	19906.77
597.466	19552.47
597.662	19288.28
597.859	19634.39
598.055	19613.91
598.252	19351.77
598.448	19185.88
598.645	19034.33
598.841	18768.1
599.038	18819.3
599.234	19093.72
599.431	18903.26
599.627	19026.14
599.824	19112.16
600.02	18776.29
600.217	18878.69
600.413	18581.73
600.609	18696.42
600.806	18866.4
601.002	18702.56
601.198	18555.11
601.395	18125.04
601.591	18452.71
601.787	18305.26
601.984	18286.82
602.18	18352.36
602.376	18096.36
602.572	18147.56
602.769	18032.88
602.965	17807.6
603.161	17864.94
603.357	17977.58
603.553	17789.17
603.75	17938.67
603.946	17600.76
604.142	17602.8
604.338	17637.62
604.534	17658.1
604.73	17709.3
604.926	17506.55
605.122	17561.84
605.318	17580.28
605.514	17547.51
605.71	17041.66
605.906	17404.15
606.102	17350.9
606.298	17078.52
606.494	17199.35
606.69	17168.63
606.886	17105.15
607.082	17010.94
607.278	17115.39
607.474	16929.02
607.67	16896.25
607.866	16507.14
608.062	16789.76
608.257	16699.65
608.453	16787.71
608.649	16701.7
608.845	16601.35
609.041	16460.04
609.236	16834.82
609.432	16460.04
609.628	16611.59
609.824	16294.15
610.019	16439.56
610.215	16490.76
610.411	16423.17
610.606	16367.88
610.802	16056.59
610.998	16079.11
611.193	16355.59
611.389	16029.96
611.584	15968.52
611.78	15866.13
611.976	15851.79
612.171	16011.53
612.367	16138.51
612.562	16027.92
612.758	15569.17
612.953	15653.14
613.149	15902.99
613.344	15763.73
613.539	16013.58
613.735	15751.44
613.93	15931.66
614.126	15745.3
614.321	15788.3
614.517	15612.18
614.712	15556.88
614.907	15474.96
615.103	15724.82
615.298	15323.41
615.493	15511.83
615.688	15192.34
615.884	15757.58
616.079	15251.74
616.274	15290.65
616.47	15061.27
616.665	15464.72
616.86	15257.88
617.055	15350.04
617.25	15167.77
617.445	15323.41
617.641	14903.58
617.836	14975.26
618.031	14856.48
618.226	14989.6
618.421	14846.24
618.616	15038.75
618.811	14754.08
619.006	14950.68
619.201	14704.93
619.396	14862.62
619.591	14311.72
619.786	14737.7
619.981	14506.27
620.176	14582.05
620.371	14270.76
620.566	14186.79
620.761	14211.37
620.956	14489.89
621.151	14022.95
621.346	14340.39
621.541	13615.41
621.735	13963.56
621.93	14031.15
622.125	13693.23
622.32	13689.14
622.515	13560.11
622.709	13539.63
622.904	13486.39
623.099	13410.61
623.294	13578.54
623.488	13291.83
623.683	13220.15
623.878	13064.5
624.072	13173.05
624.267	12939.58
624.462	12939.58
624.656	12800.32
624.851	12828.99
625.046	12757.31
625.24	12759.36
625.435	12527.94
625.629	12568.9
625.824	12560.7
626.018	12519.74
626.213	12243.27
626.407	12273.99
626.602	12308.8
626.796	12132.68
626.991	12267.84
627.185	11901.26
627.38	12022.09
627.574	11925.83
627.768	12120.39
627.963	11739.47
628.157	11645.26
628.352	11807.05
628.546	11508.05
628.74	11557.2
628.935	11430.23
629.129	11391.31
629.323	11405.65
629.517	11219.28
629.712	11327.83
629.906	11131.22
630.1	10883.42
630.294	11133.27
630.489	10957.14
630.683	11102.55
630.877	11051.35
631.071	10817.88
631.265	10914.14
631.459	10803.55
631.653	10549.6
631.848	10690.91
632.042	10365.28
632.236	10756.44
632.43	10492.26
632.624	10402.15
632.818	10387.81
633.012	10129.77
633.206	10088.81
633.4	10275.17
633.594	10017.13
633.788	10189.16
633.982	10078.57
634.176	10037.61
634.369	10049.89
634.563	9884.01
634.757	9685.36
634.951	9773.42
635.145	9802.09
635.339	9947.5
635.533	9800.04
635.726	9437.55
635.92	9634.16
636.114	9548.14
636.308	9656.68
636.501	9550.19
636.695	9431.41
636.889	9380.21
637.083	9070.97
637.276	9349.49
637.47	9103.73
637.664	9222.52
637.857	9091.45
638.051	9171.32
638.244	8855.93
638.438	8966.52
638.632	8782.2
638.825	8894.84
639.019	9048.44
639.212	8599.93
639.406	8786.3
639.599	8530.3
639.793	8583.55
639.986	8550.78
640.18	8702.33
640.373	8681.85
640.567	8386.94
640.76	8452.48
640.954	8409.47
641.147	8192.39
641.34	8225.15
641.534	8262.02
641.727	8262.02
641.92	8198.53
642.114	8206.72
642.307	8212.87
642.5	7950.73
642.694	8057.22
642.887	8016.26
643.08	8149.38
643.273	8061.32
643.467	7661.96
643.66	7647.63
643.853	7766.41
644.046	7702.92
644.239	7641.48
644.432	7623.05
644.626	7537.04
644.819	7676.3
645.012	7612.81
645.205	7401.87
645.398	7512.46
645.591	7459.21
645.784	7385.49
645.977	7188.88
646.17	7354.77
646.363	7082.39
646.556	6986.13
646.749	7082.39
646.942	7176.59
647.135	7029.14
647.328	6902.17
647.521	6926.74
647.714	7098.77
647.907	7018.9
648.099	6945.17
648.292	6893.97
648.485	6816.15
648.678	6814.1
648.871	6719.9
649.064	6697.37
649.256	6685.08
649.449	6697.37
649.642	6701.47
649.835	6576.54
650.027	6295.97
650.22	6476.19
650.413	6373.79
650.605	6439.33
650.798	6252.96
650.991	6255.01
651.183	6353.31
651.376	6160.8
651.568	6384.03
651.761	6164.9
651.954	6199.71
652.146	6080.93
652.339	6128.03
652.531	6164.9
652.724	6162.85
652.916	5878.18
653.109	5931.43
653.301	5894.57
653.494	5816.74
653.686	5763.5
653.879	5816.74
654.071	5726.63
654.263	5859.75
654.456	5788.07
654.648	5650.86
654.84	5603.75
655.033	5675.43
655.225	5798.31
655.417	5673.39
655.61	5628.33
655.802	5568.94
655.994	5560.75
656.186	5452.2
656.379	5513.64
656.571	5366.19
656.763	5308.85
656.955	5476.78
657.148	5298.61
657.34	5286.32
657.532	5286.32
657.724	5237.17
657.916	5134.77
658.108	5185.97
658.3	5147.06
658.492	5110.19
658.684	5005.75
658.876	5147.06
659.068	5087.67
659.26	4884.92
659.452	4972.98
659.644	4964.79
659.836	4983.22
660.028	5157.3
660.22	4850.1
660.412	4985.27
660.604	4934.07
660.796	4889.01
660.988	4813.24
661.18	4667.83
661.372	4622.78
661.563	4790.71
661.755	4782.52
661.947	4811.19
662.139	4661.69
662.331	4698.55
662.522	4555.19
662.714	4641.21
662.906	4581.82
663.097	4430.27
663.289	4551.1
663.481	4422.08
663.673	4471.23
663.864	4530.62
664.056	4354.49
664.247	4477.37
664.439	4420.03
664.631	4305.34
664.822	4303.29
665.014	4358.59
665.205	4307.39
665.397	4200.9
665.588	4268.48
665.78	4248
665.971	4188.61
666.163	4184.51
666.354	4116.93
666.546	4073.92
666.737	4002.24
666.929	3951.04
667.12	4008.39
667.311	4090.31
667.503	3918.28
667.694	4041.15
667.885	3776.97
668.077	4014.53
668.268	3840.45
668.459	3887.56
668.651	3893.7
668.842	3928.52
669.033	4010.43
669.224	3832.26
669.416	3895.75
669.607	3813.83
669.798	3682.76
669.989	3836.36
670.18	3654.09
670.371	3758.53
670.563	3645.9
670.754	3768.77
670.945	3723.72
671.136	3658.18
671.327	3586.51
671.518	3488.2
671.709	3666.38
671.9	3715.53
672.091	3529.16
672.282	3627.46
672.473	3443.15
672.664	3600.84
672.855	3447.24
673.046	3434.96
673.237	3443.15
673.428	3353.04
673.619	3391.95
673.809	3373.52
674	3383.76
674.191	3451.34
674.382	3412.43
674.573	3258.83
674.764	3338.7
674.954	3312.08
675.145	3342.8
675.336	3240.4
675.527	3279.31
675.717	3219.92
675.908	3260.88
676.099	3260.88
676.289	3283.41
676.48	3101.14
676.671	3045.84
676.861	3150.29
677.052	3084.75
677.243	3113.42
677.433	3117.52
677.624	3023.31
677.814	3107.28
678.005	3033.55
678.195	2875.86
678.386	2941.4
678.576	3002.83
678.767	3129.81
678.957	2996.69
679.148	3025.36
679.338	2916.82
679.529	2986.45
679.719	2795.99
679.909	2812.37
680.1	2922.96
680.29	2830.8
680.481	2763.22
680.671	2847.19
680.861	2830.8
681.052	2875.86
681.242	2830.8
681.432	2701.78
681.622	2726.36
681.813	2740.69
682.003	2740.69
682.193	2716.12
682.383	2656.73
682.573	2757.08
682.764	2716.12
682.954	2734.55
683.144	2673.11
683.334	2701.78
683.524	2552.28
683.714	2730.45
683.904	2490.84
684.094	2679.26
684.284	2587.1
684.474	2689.49
684.664	2542.04
684.854	2628.06
685.044	2609.62
685.234	2550.23
685.424	2562.52
685.614	2644.44
685.804	2560.47
685.994	2421.21
686.184	2562.52
686.374	2400.73
686.564	2423.26
686.753	2458.07
686.943	2351.58
687.133	2365.92
687.323	2306.52
687.513	2449.88
687.702	2435.55
687.892	2353.63
688.082	2284
688.272	2347.48
688.461	2363.87
688.651	2351.58
688.841	2310.62
689.03	2347.48
689.22	2372.06
689.41	2335.2
689.599	2376.16
689.789	2347.48
689.979	2355.68
690.168	2404.83
690.358	2253.28
690.547	2269.66
690.737	2269.66
690.926	2400.73
691.116	2191.84
691.305	2202.08
691.495	2208.22
691.684	2314.72
691.874	2234.85
692.063	2167.26
692.252	2193.89
692.442	2161.12
692.631	2230.75
692.82	2171.36
693.01	1995.23
693.199	2122.21
693.388	2111.97
693.578	2060.77
693.767	2148.83
693.956	2077.15
694.146	2085.34
694.335	2126.3
694.524	2134.5
694.713	2085.34
694.902	1964.51
695.092	2089.44
695.281	1964.51
695.47	2075.1
695.659	2021.86
695.848	2036.19
696.037	2101.73
696.226	2048.48
696.415	1933.79
696.604	2142.69
696.793	2011.62
696.982	1974.75
697.171	2028
697.36	1997.28
697.549	2009.57
697.738	1995.23
697.927	1937.89
698.116	1935.84
698.305	2034.14
698.494	1966.56
698.683	2044.38
698.872	1991.14
699.061	2023.91
699.25	1993.19
699.438	1919.46
699.627	1907.17
699.816	2056.67
700.005	1948.13
700.193	1946.08
700.382	2054.62
700.571	1851.88
700.76	1870.31
700.948	2013.67
701.137	1919.46
701.326	1960.42
701.514	1962.47
701.703	1888.74
701.892	1849.83
702.08	1941.99
702.269	1954.27
702.457	1886.69
702.646	1860.07
702.834	1855.97
703.023	1954.27
703.212	1847.78
703.4	1911.27
703.589	1858.02
703.777	1954.27
703.965	1921.51
704.154	1929.7
704.342	1937.89
704.531	1851.88
704.719	1935.84
704.907	1880.55
705.096	1888.74
705.284	1833.44
705.472	1976.8
705.661	1841.64
705.849	1888.74
706.037	1919.46
706.226	1931.75
706.414	1970.66
706.602	1880.55
706.79	1968.61
706.979	1950.18
707.167	1923.55
707.355	1870.31
707.543	1913.31
707.731	1909.22
707.919	1933.79
708.107	1954.27
708.296	1866.21
708.484	1790.44
708.672	1866.21
708.86	1905.12
709.048	1866.21
709.236	1851.88
709.424	1956.32
709.612	2032.1
709.8	1864.16
709.988	1835.49
710.176	1886.69
710.364	1960.42
710.551	1868.26
710.739	1929.7
710.927	1921.51
711.115	1872.36
711.303	1919.46
711.491	1933.79
711.679	1880.55
711.866	1864.16
712.054	1882.6
712.242	1866.21
712.43	1896.93
712.617	1915.36
712.805	1944.03
712.993	1946.08
713.181	1837.54
713.368	1806.82
713.556	1941.99
713.744	1784.29
713.931	1907.17
714.119	1890.79
714.306	1833.44
714.494	1944.03
714.682	1876.45
714.869	1894.88
715.057	1948.13
715.244	1849.83
715.432	1802.72
715.619	1829.35
715.807	1890.79
715.994	1855.97
716.182	1855.97
716.369	1878.5
716.556	1921.51
716.744	1767.91
716.931	1776.1
717.119	1862.12
717.306	1829.35
717.493	1831.4
717.681	1837.54
717.868	1849.83
718.055	1874.4
718.242	1769.96
718.43	1825.25
718.617	1806.82
718.804	1851.88
718.991	1817.06
719.179	1909.22
719.366	1849.83
719.553	1837.54
719.74	1729
719.927	1866.21
720.114	1812.96
720.301	1841.64
720.488	1675.75
720.676	1759.72
720.863	1874.4
721.05	1798.63
721.237	1765.86
721.424	1917.41
721.611	1884.64
721.798	1767.91
721.985	1610.22
722.172	1759.72
722.358	1833.44
722.545	1745.38
722.732	1774.05
722.919	1757.67
723.106	1804.77
723.293	1825.25
723.48	1800.68
723.667	1757.67
723.853	1800.68
724.04	1673.7
724.227	1864.16
724.414	1767.91
724.6	1649.13
724.787	1743.33
724.974	1827.3
725.161	1860.07
725.347	1710.57
725.534	1782.24
725.72	1667.56
725.907	1800.68
726.094	1794.53
726.28	1778.15
726.467	1759.72
726.653	1763.81
726.84	1688.04
727.027	1757.67
727.213	1669.61
727.4	1749.48
727.586	1735.14
727.773	1667.56
727.959	1714.66
728.145	1671.65
728.332	1702.37
728.518	1776.1
728.705	1743.33
728.891	1634.79
729.077	1675.75
729.264	1739.24
729.45	1651.17
729.636	1716.71
729.823	1702.37
730.009	1683.94
730.195	1757.67
730.382	1829.35
730.568	1817.06
730.754	1767.91
730.94	1741.29
731.126	1624.55
731.313	1745.38
731.499	1604.07
731.685	1618.41
731.871	1716.71
732.057	1688.04
732.243	1659.37
732.429	1673.7
732.615	1747.43
732.801	1712.61
732.987	1638.89
733.173	1716.71
733.359	1626.6
733.545	1731.05
733.731	1608.17
733.917	1618.41
734.103	1677.8
734.289	1642.98
734.475	1585.64
734.661	1698.28
734.847	1628.65
735.033	1657.32
735.219	1595.88
735.404	1511.91
735.59	1499.63
735.776	1546.73
735.962	1642.98
736.148	1671.65
736.333	1599.98
736.519	1511.91
736.705	1614.31
736.89	1655.27
737.076	1530.34
737.262	1599.98
737.447	1628.65
737.633	1548.78
737.819	1497.58
738.004	1532.39
738.19	1497.58
738.375	1473
738.561	1585.64
738.747	1579.5
738.932	1483.24
739.118	1597.93
739.303	1602.02
739.489	1511.91
739.674	1561.06
739.859	1473
740.045	1585.64
740.23	1548.78
740.416	1513.96
740.601	1497.58
740.786	1499.63
740.972	1458.67
741.157	1532.39
741.342	1563.11
741.528	1389.03
741.713	1501.67
741.898	1446.38
742.084	1552.87
742.269	1446.38
742.454	1405.42
742.639	1483.24
742.824	1407.47
743.01	1452.52
743.195	1413.61
743.38	1360.36
743.565	1456.62
743.75	1548.78
743.935	1360.36
744.12	1364.46
744.305	1454.57
744.49	1432.04
744.675	1376.75
744.86	1446.38
745.045	1397.23
745.23	1407.47
745.415	1384.94
745.6	1307.12
745.785	1270.25
745.97	1380.84
746.155	1278.44
746.34	1368.56
746.525	1245.68
746.71	1378.79
746.895	1274.35
747.079	1262.06
747.264	1221.1
747.449	1225.2
747.634	1288.68
747.819	1368.56
748.003	1284.59
748.188	1198.57
748.373	1350.12
748.557	1251.82
748.742	1194.48
748.927	1327.6
749.111	1280.49
749.296	1198.57
749.481	1237.49
749.665	1120.75
749.85	1233.39
750.034	1233.39
750.219	1221.1
750.404	1249.77
750.588	1188.33
750.773	1180.14
750.957	1147.37
751.141	1122.8
751.326	1100.27
751.51	1116.65
751.695	1174
751.879	1065.46
752.064	1120.75
752.248	1049.07
752.432	1090.03
752.617	1040.88
752.801	1130.99
752.985	1079.79
753.17	1077.74
753.354	1139.18
753.538	1026.54
753.722	1061.36
753.907	1038.83
754.091	969.2
754.275	1110.51
754.459	1040.88
754.643	1055.22
754.828	1022.45
755.012	1073.65
755.196	987.63
755.38	1032.69
755.564	987.63
755.748	981.49
755.932	989.68
756.116	922.1
756.3	1044.98
756.484	995.82
756.668	999.92
756.852	913.91
757.036	956.91
757.22	999.92
757.404	1008.11
757.588	944.63
757.772	907.76
757.956	856.56
758.14	987.63
758.323	899.57
758.507	809.46
758.691	913.91
758.875	903.67
759.059	881.14
759.242	940.53
759.426	881.14
759.61	868.85
759.794	872.95
759.977	803.32
760.161	864.75
760.345	836.08
760.528	889.33
760.712	924.15
760.895	858.61
761.079	854.51
761.263	815.6
761.446	848.37
761.63	782.84
761.813	864.75
761.997	831.99
762.18	807.41
762.364	864.75
762.547	784.88
762.731	877.04
762.914	698.87
763.098	735.73
763.281	825.84
763.464	713.21
763.648	854.51
763.831	721.4
764.015	803.32
764.198	846.32
764.381	748.02
764.564	721.4
764.748	780.79
764.931	786.93
765.114	752.12
765.297	872.95
765.481	735.73
765.664	805.36
765.847	743.92
766.03	719.35
766.213	680.44
766.397	764.4
766.58	711.16
766.763	698.87
766.946	834.04
767.129	739.83
767.312	698.87
767.495	733.68
767.678	754.16
767.861	772.6
768.044	668.15
768.227	696.82
768.41	655.86
768.593	815.6
768.776	733.68
768.959	692.73
769.142	731.64
769.324	655.86
769.507	645.62
769.69	655.86
769.873	739.83
770.056	745.97
770.239	791.03
770.421	754.16
770.604	733.68
770.787	598.52
770.97	719.35
771.152	655.86
771.335	659.96
771.518	696.82
771.7	592.37
771.883	670.2
772.066	721.4
772.248	692.73
772.431	657.91
772.613	657.91
772.796	627.19
772.978	649.72
773.161	680.44
773.343	606.71
773.526	641.53
773.708	637.43
773.891	621.05
774.073	600.57
774.256	547.32
774.438	612.85
774.621	711.16
774.803	651.77
774.985	522.74
775.168	571.9
775.35	659.96
775.532	649.72
775.715	578.04
775.897	623.09
776.079	659.96
776.261	567.8
776.444	561.66
776.626	608.76
776.808	578.04
776.99	545.27
777.173	635.38
777.355	502.26
777.537	549.37
777.719	582.14
777.901	510.46
778.083	549.37
778.265	487.93
778.447	545.27
778.629	508.41
778.811	541.18
778.993	465.4
779.175	586.23
779.357	541.18
779.539	539.13
779.721	510.46
779.903	502.26
780.085	504.31
780.267	373.24
780.449	545.27
780.631	535.03
780.812	580.09
780.994	539.13
781.176	436.73
781.358	489.98
781.54	500.22
781.721	471.54
781.903	528.89
782.085	489.98
782.267	485.88
782.448	414.2
782.63	436.73
782.812	422.39
782.993	479.74
783.175	477.69
783.357	473.59
783.538	432.63
783.72	410.11
783.901	438.78
784.083	420.35
784.264	399.87
784.446	401.91
784.627	358.91
784.809	487.93
784.99	399.87
785.172	403.96
785.353	442.87
785.535	453.11
785.716	432.63
785.897	408.06
786.079	432.63
786.26	365.05
786.441	463.35
786.623	338.43
786.804	406.01
786.985	354.81
787.167	383.48
787.348	320
787.529	414.2
787.71	434.68
787.891	391.67
788.073	326.14
788.254	287.23
788.435	369.15
788.616	309.76
788.797	328.19
788.978	328.19
789.159	336.38
789.34	385.53
789.522	289.28
789.703	301.56
789.884	336.38
790.065	301.56
790.246	408.06
790.427	297.47
790.607	344.57
790.788	320
790.969	324.09
791.15	285.18
791.331	266.75
791.512	293.37
791.693	299.52
791.874	356.86
792.054	317.95
792.235	303.61
792.416	338.43
792.597	307.71
792.778	387.58
792.958	356.86
793.139	295.42
793.32	324.09
793.5	317.95
793.681	369.15
793.862	287.23
794.042	336.38
794.223	233.98
794.404	264.7
794.584	309.76
794.765	315.9
794.945	332.28
795.126	285.18
795.306	266.75
795.487	127.49
795.667	305.66
795.848	233.98
796.028	242.17
796.209	283.13
796.389	303.61
796.57	207.36
796.75	199.16
796.93	254.46
797.111	311.8
797.291	186.88
797.471	254.46
797.652	231.93
797.832	334.33
798.012	289.28
798.192	246.27
798.373	236.03
798.553	221.69
798.733	207.36
798.913	160.25
799.093	211.45
799.274	248.32
799.454	268.8
799.634	217.6
799.814	264.7
799.994	201.21
800.174	168.45
800.354	256.51
800.534	182.78
800.714	217.6
800.894	182.78
801.074	199.16
801.254	168.45
801.434	133.63
801.614	221.69
801.794	180.73
801.974	721.4
802.154	152.06
802.334	248.32
802.514	111.1
802.693	180.73
802.873	229.88
803.053	225.79
803.233	203.26
803.413	246.27
803.592	160.25
803.772	203.26
803.952	223.74
804.131	197.12
804.311	188.93
804.491	236.03
804.67	188.93
804.85	168.45
805.03	258.56
805.209	227.84
805.389	168.45
805.568	236.03
805.748	195.07
805.928	160.25
806.107	184.83
806.287	250.36
806.466	193.02
806.646	127.49
806.825	150.01
807.004	82.43
807.184	107.01
807.363	186.88
807.543	195.07
807.722	152.06
807.901	127.49
808.081	162.3
808.26	145.92
808.439	182.78
808.619	229.88
808.798	240.12
808.977	168.45
809.156	160.25
809.336	90.62
809.515	168.45
809.694	82.43
809.873	219.64
810.052	201.21
810.231	145.92
810.411	135.68
810.59	178.69
810.769	256.51
810.948	162.3
811.127	180.73
811.306	61.95
811.485	117.25
811.664	240.12
811.843	117.25
812.022	143.87
812.201	156.16
812.38	113.15
812.559	152.06
812.737	135.68
812.916	74.24
813.095	154.11
813.274	139.77
813.453	211.45
813.632	180.73
813.811	178.69
813.989	55.81
814.168	133.63
814.347	88.57
814.526	107.01
814.704	107.01
814.883	246.27
815.062	84.48
815.24	168.45
815.419	113.15
815.598	162.3
815.776	147.97
815.955	160.25
816.133	139.77
816.312	123.39
816.49	88.57
816.669	139.77
816.847	107.01
817.026	193.02
817.204	113.15
817.383	84.48
817.561	111.1
817.74	123.39
817.918	145.92
818.097	107.01
818.275	135.68
818.453	135.68
818.632	174.59
818.81	98.81
818.988	211.45
819.167	135.68
819.345	135.68
819.523	74.24
819.701	143.87
819.879	137.73
820.058	170.49
820.236	147.97
820.414	109.05
820.592	37.38
820.77	145.92
820.948	74.24
821.127	88.57
821.305	141.82
821.483	78.33
821.661	164.35
821.839	127.49
822.017	72.19
822.195	121.34
822.373	117.25
822.551	133.63
822.729	109.05
822.907	141.82
823.085	145.92
823.262	137.73
823.44	78.33
823.618	102.91
823.796	119.29
823.974	139.77
824.152	115.2
824.329	64
824.507	92.67
824.685	143.87
824.863	121.34
825.04	170.49
825.218	88.57
825.396	98.81
825.574	94.72
825.751	121.34
825.929	135.68
826.107	133.63
826.284	61.95
826.462	147.97
826.639	61.95
826.817	-5.63
826.994	111.1
827.172	88.57
827.349	141.82
827.527	152.06
827.704	113.15
827.882	127.49
828.059	86.53
828.237	88.57
828.414	66.05
828.591	74.24
828.769	143.87
828.946	160.25
829.124	104.96
829.301	88.57
829.478	111.1
829.655	76.29
829.833	100.86
830.01	39.42
830.187	86.53
830.364	41.47
830.542	104.96
830.719	72.19
830.896	64
831.073	80.38
831.25	94.72
831.427	25.09
831.604	109.05
831.782	96.77
831.959	115.2
832.136	39.42
832.313	80.38
832.49	96.77
832.667	123.39
832.844	107.01
833.021	133.63
833.198	113.15
833.374	127.49
833.551	27.14
833.728	64
833.905	121.34
834.082	-3.58
834.259	27.14
834.436	141.82
834.612	59.9
834.789	111.1
834.966	111.1
835.143	121.34
835.319	66.05
835.496	88.57
835.673	109.05
835.85	64
836.026	129.53
836.203	115.2
836.38	141.82
836.556	104.96
836.733	82.43
836.909	135.68
837.086	33.28
837.262	39.42
837.439	45.57
837.616	70.14
837.792	68.09
837.968	92.67
838.145	55.81
838.321	98.81
838.498	88.57
838.674	45.57
838.851	59.9
839.027	80.38
839.203	10.75
839.38	72.19
839.556	117.25
839.732	80.38
839.909	72.19
840.085	109.05
840.261	53.76
840.437	123.39
840.614	27.14
840.79	74.24
840.966	16.9
841.142	100.86
841.318	45.57
841.494	88.57
841.671	113.15
841.847	53.76
842.023	14.85
842.199	4.61
842.375	115.2
842.551	129.53
842.727	16.9
842.903	29.18
843.079	35.33
843.255	96.77
843.431	86.53
843.607	80.38
843.783	-9.73
843.959	117.25
844.134	70.14
844.31	135.68
844.486	29.18
844.662	49.66
844.838	74.24
845.013	53.76
845.189	72.19
845.365	41.47
845.541	143.87
845.716	20.99
845.892	43.52
846.068	49.66
846.244	143.87
846.419	94.72
846.595	-44.54
846.77	94.72
846.946	37.38
847.122	-5.63
847.297	33.28
847.473	111.1
847.648	12.8
847.824	74.24
847.999	47.62
848.175	14.85
848.35	80.38
848.526	53.76
848.701	80.38
848.876	59.9
849.052	66.05
849.227	29.18
849.403	57.86
849.578	6.66
849.753	168.45
849.929	92.67
850.104	68.09
850.279	47.62
850.454	102.91
850.63	41.47
850.805	20.99
850.98	37.38
851.155	125.44
851.33	51.71
851.505	-1.54
851.681	113.15
851.856	-30.21
852.031	23.04
852.206	12.8
852.381	-26.11
852.556	53.76
852.731	119.29
852.906	72.19
853.081	82.43
853.256	8.7
853.431	27.14
853.606	80.38
853.781	90.62
853.956	14.85
854.131	31.23
854.305	61.95
854.48	35.33
854.655	115.2
854.83	16.9
855.005	25.09
855.18	66.05
855.354	0.51
855.529	98.81
855.704	43.52
855.879	27.14
856.053	88.57
856.228	29.18
856.403	4.61
856.577	27.14
856.752	39.42
856.926	31.23
857.101	98.81
857.276	90.62
857.45	45.57
857.625	121.34
857.799	70.14
857.974	57.86
858.148	135.68
858.323	39.42
858.497	55.81
858.672	20.99
858.846	35.33
859.02	127.49
859.195	25.09
859.369	86.53
859.543	14.85
859.718	61.95
859.892	8.7
860.066	2.56
860.241	27.14
860.415	27.14
860.589	61.95
860.763	86.53
860.938	82.43
861.112	43.52
861.286	90.62
861.46	-7.68
861.634	41.47
861.808	72.19
861.982	31.23
862.157	14.85
862.331	86.53
862.505	-15.87
862.679	43.52
862.853	20.99
863.027	2.56
863.201	59.9
863.375	68.09
863.549	47.62
863.722	25.09
863.896	88.57
864.07	-5.63
864.244	53.76
864.418	51.71
864.592	41.47
864.766	68.09
864.939	51.71
865.113	8.7
865.287	43.52
865.461	4.61
865.634	78.33
865.808	-58.88
865.982	68.09
866.156	4.61
866.329	23.04
866.503	16.9
866.676	45.57
866.85	43.52
867.024	33.28
867.197	4.61
867.371	55.81
867.544	78.33
867.718	64
867.891	29.18
868.065	53.76
868.238	72.19
868.412	78.33
868.585	64
868.759	23.04
868.932	33.28
869.105	-7.68
869.279	12.8
869.452	57.86
869.625	78.33
869.799	18.94
869.972	66.05
870.145	-46.59
870.319	-7.68
870.492	20.99
870.665	55.81
870.838	20.99
871.011	45.57
871.185	16.9
871.358	-19.97
871.531	70.14
871.704	-1.54
871.877	92.67
872.05	80.38
872.223	104.96
872.396	78.33
872.569	4.61
872.742	23.04
872.915	23.04
873.088	2.56
873.261	2.56
873.434	4.61
873.607	14.85
873.78	31.23
873.953	25.09
874.126	12.8
874.299	53.76
874.471	16.9
874.644	2.56
874.817	-42.5
874.99	47.62
875.163	8.7
875.335	33.28
875.508	-17.92
875.681	53.76
875.853	59.9
876.026	-17.92
876.199	43.52
876.371	39.42
876.544	31.23
876.717	72.19
876.889	-15.87
877.062	86.53
877.234	-7.68
877.407	-17.92
877.579	12.8
877.752	64
877.924	96.77
878.097	80.38
878.269	94.72
878.442	-17.92
878.614	66.05
878.786	16.9
878.959	29.18
879.131	45.57
879.303	39.42
879.476	82.43
879.648	14.85
879.82	37.38
879.993	39.42
880.165	104.96
880.337	29.18
880.509	-11.78
880.681	8.7
880.854	10.75
881.026	-60.93
881.198	104.96
881.37	-7.68
881.542	12.8
881.714	64
881.886	55.81
882.058	-40.45
882.23	31.23
882.402	2.56
882.574	64
882.746	74.24
882.918	127.49
883.09	61.95
883.262	29.18
883.434	57.86
883.606	61.95
883.778	55.81
883.95	47.62
884.122	-7.68
884.293	53.76
884.465	61.95
884.637	53.76
884.809	-17.92
884.98	37.38
885.152	66.05
885.324	8.7
885.496	20.99
885.667	31.23
885.839	37.38
886.011	37.38
886.182	33.28
886.354	47.62
886.525	45.57
886.697	51.71
886.869	10.75
887.04	39.42
887.212	53.76
887.383	53.76
887.555	-34.3
887.726	25.09
887.897	25.09
888.069	14.85
888.24	59.9
888.412	16.9
888.583	76.29
888.754	-3.58
888.926	-5.63
889.097	61.95
889.268	10.75
889.44	12.8
889.611	0.51
889.782	47.62
889.953	-26.11
890.125	43.52
890.296	4.61
890.467	47.62
890.638	53.76
890.809	31.23
890.98	10.75
891.151	37.38
891.323	88.57
891.494	8.7
891.665	84.48
891.836	-40.45
892.007	0.51
892.178	27.14
892.349	16.9
892.52	66.05
892.691	41.47
892.862	43.52
893.032	76.29
893.203	-3.58
893.374	72.19
893.545	78.33
893.716	31.23
893.887	-17.92
894.057	-3.58
894.228	6.66
894.399	39.42
894.57	57.86
894.74	-11.78
894.911	0.51
895.082	-15.87
895.253	78.33
895.423	94.72
895.594	94.72
895.764	72.19
895.935	-1.54
896.106	82.43
896.276	39.42
896.447	90.62
896.617	33.28
896.788	10.75
896.958	39.42
897.129	-46.59
897.299	12.8
897.47	119.29
897.64	66.05
897.81	-11.78
897.981	-13.82
898.151	53.76
898.322	68.09
898.492	-58.88
898.662	-9.73
898.832	78.33
899.003	51.71
899.173	-15.87
899.343	14.85
899.513	88.57
