Data from USB4F104151__75__13-12-21-754.txt Node

Date: Fri Mar 14 13:12:21 EDT 2025
User: louis
Spectrometer: USB4F10415
Trigger mode: 4
Integration Time (sec): 2.000000E-2
Scans to average: 1
Electric dark correction enabled: true
Nonlinearity correction enabled: false
Boxcar width: 0
XAxis mode: Wavelengths
Number of Pixels in Spectrum: 3648
>>>>>Begin Spectral Data<<<<<
178.204	-89.6
178.424	-89.6
178.644	-89.6
178.864	-81.41
179.084	-85.5
179.304	-30.21
179.524	-30.21
179.744	-1.54
179.964	49.66
180.184	16.9
180.404	29.18
180.624	-3.58
180.844	-62.98
181.064	-40.45
181.283	6.66
181.503	-9.73
181.723	76.29
181.943	-34.3
182.163	29.18
182.383	86.53
182.602	16.9
182.822	35.33
183.042	-34.3
183.262	-5.63
183.482	82.43
183.701	-17.92
183.921	25.09
184.141	86.53
184.361	92.67
184.58	49.66
184.8	-17.92
185.02	41.47
185.239	37.38
185.459	29.18
185.679	23.04
185.898	4.61
186.118	55.81
186.338	-1.54
186.557	10.75
186.777	27.14
186.997	29.18
187.216	20.99
187.436	12.8
187.655	51.71
187.875	18.94
188.095	43.52
188.314	61.95
188.534	8.7
188.753	-30.21
188.973	68.09
189.192	66.05
189.412	2.56
189.631	35.33
189.851	43.52
190.07	33.28
190.29	76.29
190.509	8.7
190.729	-9.73
190.948	72.19
191.168	96.77
191.387	113.15
191.607	61.95
191.826	-22.02
192.045	61.95
192.265	23.04
192.484	16.9
192.704	-1.54
192.923	39.42
193.142	72.19
193.362	35.33
193.581	84.48
193.8	66.05
194.02	47.62
194.239	-15.87
194.458	-5.63
194.678	92.67
194.897	23.04
195.116	61.95
195.335	66.05
195.555	47.62
195.774	59.9
195.993	41.47
196.212	55.81
196.432	29.18
196.651	78.33
196.87	18.94
197.089	55.81
197.308	53.76
197.528	59.9
197.747	-83.45
197.966	53.76
198.185	37.38
198.404	35.33
198.623	35.33
198.842	84.48
199.062	2.56
199.281	66.05
199.5	39.42
199.719	100.86
199.938	10.75
200.157	61.95
200.376	8.7
200.595	53.76
200.814	23.04
201.033	10.75
201.252	43.52
201.471	41.47
201.69	-11.78
201.909	16.9
202.128	64
202.347	68.09
202.566	41.47
202.785	31.23
203.004	-3.58
203.223	68.09
203.442	37.38
203.661	4.61
203.879	29.18
204.098	23.04
204.317	16.9
204.536	47.62
204.755	-5.63
204.974	41.47
205.193	119.29
205.411	59.9
205.63	57.86
205.849	0.51
206.068	29.18
206.287	8.7
206.505	-19.97
206.724	-17.92
206.943	-17.92
207.162	37.38
207.381	125.44
207.599	76.29
207.818	23.04
208.037	18.94
208.255	53.76
208.474	8.7
208.693	49.66
208.911	23.04
209.13	-26.11
209.349	23.04
209.567	51.71
209.786	27.14
210.005	55.81
210.223	64
210.442	-75.26
210.661	47.62
210.879	-13.82
211.098	16.9
211.316	18.94
211.535	35.33
211.753	27.14
211.972	16.9
212.191	51.71
212.409	109.05
212.628	57.86
212.846	4.61
213.065	20.99
213.283	61.95
213.502	59.9
213.72	-62.98
213.938	51.71
214.157	8.7
214.375	80.38
214.594	-32.26
214.812	6.66
215.031	12.8
215.249	74.24
215.467	43.52
215.686	-30.21
215.904	76.29
216.122	4.61
216.341	25.09
216.559	92.67
216.778	12.8
216.996	51.71
217.214	18.94
217.432	-19.97
217.651	20.99
217.869	29.18
218.087	35.33
218.306	18.94
218.524	31.23
218.742	39.42
218.96	53.76
219.179	39.42
219.397	20.99
219.615	70.14
219.833	18.94
220.051	8.7
220.27	90.62
220.488	43.52
220.706	2.56
220.924	27.14
221.142	33.28
221.36	31.23
221.578	10.75
221.796	-26.11
222.015	55.81
222.233	59.9
222.451	23.04
222.669	31.23
222.887	64
223.105	14.85
223.323	47.62
223.541	23.04
223.759	53.76
223.977	45.57
224.195	51.71
224.413	-30.21
224.631	111.1
224.849	49.66
225.067	131.58
225.285	20.99
225.503	27.14
225.721	2.56
225.939	76.29
226.157	66.05
226.375	55.81
226.592	68.09
226.81	37.38
227.028	70.14
227.246	51.71
227.464	27.14
227.682	18.94
227.9	82.43
228.117	59.9
228.335	10.75
228.553	0.51
228.771	25.09
228.989	51.71
229.206	86.53
229.424	68.09
229.642	43.52
229.86	-7.68
230.077	35.33
230.295	43.52
230.513	72.19
230.731	-30.21
230.948	6.66
231.166	66.05
231.384	76.29
231.601	-65.02
231.819	70.14
232.037	4.61
232.254	20.99
232.472	20.99
232.689	-15.87
232.907	37.38
233.125	84.48
233.342	23.04
233.56	-48.64
233.777	66.05
233.995	78.33
234.213	35.33
234.43	76.29
234.648	76.29
234.865	35.33
235.083	45.57
235.3	59.9
235.518	25.09
235.735	59.9
235.953	47.62
236.17	35.33
236.388	86.53
236.605	-5.63
236.822	92.67
237.04	100.86
237.257	84.48
237.475	-17.92
237.692	82.43
237.909	72.19
238.127	-13.82
238.344	117.25
238.562	-30.21
238.779	4.61
238.996	-13.82
239.214	102.91
239.431	72.19
239.648	-42.5
239.865	41.47
240.083	70.14
240.3	-44.54
240.517	-67.07
240.735	43.52
240.952	18.94
241.169	41.47
241.386	14.85
241.603	18.94
241.821	0.51
242.038	68.09
242.255	12.8
242.472	119.29
242.689	10.75
242.907	47.62
243.124	59.9
243.341	23.04
243.558	-15.87
243.775	2.56
243.992	35.33
244.209	51.71
244.426	113.15
244.643	41.47
244.86	-42.5
245.078	18.94
245.295	61.95
245.512	43.52
245.729	-26.11
245.946	14.85
246.163	88.57
246.38	59.9
246.597	78.33
246.814	35.33
247.031	23.04
247.248	41.47
247.464	61.95
247.681	47.62
247.898	51.71
248.115	-5.63
248.332	10.75
248.549	61.95
248.766	49.66
248.983	39.42
249.2	16.9
249.417	68.09
249.633	43.52
249.85	80.38
250.067	55.81
250.284	23.04
250.501	51.71
250.717	2.56
250.934	12.8
251.151	29.18
251.368	27.14
251.585	117.25
251.801	61.95
252.018	-54.78
252.235	80.38
252.451	-5.63
252.668	27.14
252.885	100.86
253.102	-28.16
253.318	29.18
253.535	16.9
253.752	59.9
253.968	33.28
254.185	-36.35
254.401	86.53
254.618	76.29
254.835	59.9
255.051	84.48
255.268	35.33
255.484	25.09
255.701	39.42
255.917	20.99
256.134	72.19
256.351	-24.06
256.567	37.38
256.784	39.42
257	41.47
257.217	41.47
257.433	111.1
257.65	66.05
257.866	51.71
258.082	25.09
258.299	70.14
258.515	10.75
258.732	-62.98
258.948	35.33
259.165	61.95
259.381	-50.69
259.597	31.23
259.814	64
260.03	53.76
260.246	-34.3
260.463	27.14
260.679	68.09
260.895	35.33
261.112	-7.68
261.328	-9.73
261.544	68.09
261.761	55.81
261.977	45.57
262.193	-30.21
262.409	78.33
262.626	39.42
262.842	61.95
263.058	66.05
263.274	37.38
263.49	33.28
263.707	31.23
263.923	64
264.139	59.9
264.355	72.19
264.571	-26.11
264.787	-26.11
265.004	23.04
265.22	39.42
265.436	4.61
265.652	4.61
265.868	18.94
266.084	59.9
266.3	61.95
266.516	14.85
266.732	-54.78
266.948	47.62
267.164	80.38
267.38	39.42
267.596	39.42
267.812	100.86
268.028	-67.07
268.244	45.57
268.46	8.7
268.676	-9.73
268.892	25.09
269.108	51.71
269.324	80.38
269.54	35.33
269.756	37.38
269.972	-15.87
270.188	-9.73
270.403	53.76
270.619	59.9
270.835	16.9
271.051	59.9
271.267	51.71
271.483	-30.21
271.698	27.14
271.914	49.66
272.13	61.95
272.346	43.52
272.562	68.09
272.777	61.95
272.993	35.33
273.209	20.99
273.425	61.95
273.64	82.43
273.856	37.38
274.072	64
274.287	129.53
274.503	61.95
274.719	10.75
274.934	31.23
275.15	61.95
275.366	10.75
275.581	10.75
275.797	78.33
276.012	-50.69
276.228	31.23
276.444	20.99
276.659	72.19
276.875	10.75
277.09	2.56
277.306	16.9
277.521	143.87
277.737	43.52
277.952	98.81
278.168	43.52
278.383	-28.16
278.599	59.9
278.814	51.71
279.03	88.57
279.245	88.57
279.461	25.09
279.676	33.28
279.892	31.23
280.107	57.86
280.322	-26.11
280.538	35.33
280.753	-5.63
280.969	47.62
281.184	6.66
281.399	107.01
281.615	78.33
281.83	76.29
282.045	-52.74
282.26	80.38
282.476	51.71
282.691	47.62
282.906	-19.97
283.122	20.99
283.337	49.66
283.552	66.05
283.767	45.57
283.983	88.57
284.198	10.75
284.413	57.86
284.628	29.18
284.843	55.81
285.058	68.09
285.274	43.52
285.489	-95.74
285.704	27.14
285.919	41.47
286.134	-9.73
286.349	129.53
286.564	2.56
286.779	59.9
286.995	51.71
287.21	31.23
287.425	2.56
287.64	39.42
287.855	39.42
288.07	-32.26
288.285	80.38
288.5	35.33
288.715	68.09
288.93	47.62
289.145	70.14
289.36	-22.02
289.575	-5.63
289.79	23.04
290.004	12.8
290.219	35.33
290.434	45.57
290.649	-22.02
290.864	31.23
291.079	18.94
291.294	8.7
291.509	-38.4
291.724	10.75
291.938	-17.92
292.153	-13.82
292.368	72.19
292.583	-19.97
292.798	88.57
293.012	16.9
293.227	10.75
293.442	-30.21
293.657	70.14
293.871	59.9
294.086	43.52
294.301	76.29
294.516	20.99
294.73	37.38
294.945	-28.16
295.16	12.8
295.374	35.33
295.589	113.15
295.804	31.23
296.018	-26.11
296.233	-40.45
296.447	2.56
296.662	74.24
296.877	35.33
297.091	55.81
297.306	27.14
297.52	6.66
297.735	18.94
297.949	72.19
298.164	41.47
298.378	4.61
298.593	-5.63
298.807	61.95
299.022	-17.92
299.236	107.01
299.451	23.04
299.665	-19.97
299.88	70.14
300.094	55.81
300.309	-5.63
300.523	8.7
300.737	12.8
300.952	113.15
301.166	127.49
301.381	6.66
301.595	66.05
301.809	-22.02
302.024	29.18
302.238	68.09
302.452	39.42
302.667	78.33
302.881	8.7
303.095	-1.54
303.309	66.05
303.524	-22.02
303.738	35.33
303.952	25.09
304.166	8.7
304.381	0.51
304.595	47.62
304.809	45.57
305.023	20.99
305.237	0.51
305.452	14.85
305.666	76.29
305.88	80.38
306.094	55.81
306.308	104.96
306.522	94.72
306.736	23.04
306.95	113.15
307.164	4.61
307.379	4.61
307.593	84.48
307.807	49.66
308.021	-9.73
308.235	0.51
308.449	-46.59
308.663	57.86
308.877	121.34
309.091	27.14
309.305	51.71
309.519	-9.73
309.733	12.8
309.947	8.7
310.161	43.52
310.374	45.57
310.588	31.23
310.802	-22.02
311.016	45.57
311.23	-1.54
311.444	-17.92
311.658	-71.17
311.872	113.15
312.085	-13.82
312.299	29.18
312.513	18.94
312.727	100.86
312.941	-30.21
313.154	27.14
313.368	23.04
313.582	66.05
313.796	23.04
314.009	41.47
314.223	100.86
314.437	59.9
314.651	107.01
314.864	20.99
315.078	23.04
315.292	51.71
315.505	55.81
315.719	-38.4
315.933	51.71
316.146	12.8
316.36	-1.54
316.573	78.33
316.787	2.56
317.001	25.09
317.214	-3.58
317.428	25.09
317.641	51.71
317.855	27.14
318.068	80.38
318.282	29.18
318.495	45.57
318.709	115.2
318.922	-5.63
319.136	84.48
319.349	27.14
319.563	-13.82
319.776	86.53
319.99	33.28
320.203	10.75
320.417	51.71
320.63	6.66
320.843	100.86
321.057	74.24
321.27	10.75
321.483	51.71
321.697	68.09
321.91	115.2
322.124	47.62
322.337	74.24
322.55	115.2
322.763	109.05
322.977	6.66
323.19	68.09
323.403	-5.63
323.617	-13.82
323.83	43.52
324.043	88.57
324.256	-30.21
324.469	-38.4
324.683	2.56
324.896	27.14
325.109	64
325.322	107.01
325.535	43.52
325.748	18.94
325.962	14.85
326.175	16.9
326.388	31.23
326.601	10.75
326.814	23.04
327.027	27.14
327.24	143.87
327.453	-87.55
327.666	59.9
327.879	84.48
328.092	-30.21
328.305	25.09
328.518	45.57
328.731	-15.87
328.944	18.94
329.157	35.33
329.37	35.33
329.583	92.67
329.796	43.52
330.009	55.81
330.222	127.49
330.435	59.9
330.648	61.95
330.861	55.81
331.073	10.75
331.286	43.52
331.499	55.81
331.712	2.56
331.925	39.42
332.138	64
332.35	47.62
332.563	76.29
332.776	12.8
332.989	12.8
333.202	64
333.414	-3.58
333.627	29.18
333.84	49.66
334.053	84.48
334.265	70.14
334.478	61.95
334.691	-1.54
334.903	53.76
335.116	-5.63
335.329	86.53
335.541	-13.82
335.754	20.99
335.966	29.18
336.179	80.38
336.392	-11.78
336.604	68.09
336.817	107.01
337.029	-9.73
337.242	35.33
337.454	14.85
337.667	59.9
337.88	53.76
338.092	29.18
338.305	37.38
338.517	-75.26
338.729	90.62
338.942	-73.21
339.154	18.94
339.367	-17.92
339.579	10.75
339.792	20.99
340.004	61.95
340.217	-30.21
340.429	35.33
340.641	25.09
340.854	18.94
341.066	35.33
341.278	-5.63
341.491	57.86
341.703	64
341.915	-1.54
342.128	31.23
342.34	29.18
342.552	-7.68
342.764	117.25
342.977	14.85
343.189	33.28
343.401	27.14
343.613	2.56
343.826	102.91
344.038	-13.82
344.25	94.72
344.462	23.04
344.674	37.38
344.886	20.99
345.099	43.52
345.311	61.95
345.523	72.19
345.735	12.8
345.947	-17.92
346.159	45.57
346.371	66.05
346.583	90.62
346.795	150.01
347.007	-22.02
347.219	92.67
347.431	27.14
347.643	137.73
347.855	-40.45
348.067	141.82
348.279	78.33
348.491	8.7
348.703	25.09
348.915	31.23
349.127	57.86
349.339	33.28
349.551	37.38
349.763	25.09
349.975	55.81
350.187	64
350.399	78.33
350.61	72.19
350.822	47.62
351.034	84.48
351.246	37.38
351.458	47.62
351.669	80.38
351.881	-1.54
352.093	68.09
352.305	55.81
352.517	117.25
352.728	84.48
352.94	43.52
353.152	88.57
353.363	74.24
353.575	107.01
353.787	39.42
353.999	57.86
354.21	33.28
354.422	98.81
354.633	35.33
354.845	68.09
355.057	47.62
355.268	-9.73
355.48	70.14
355.692	84.48
355.903	57.86
356.115	-9.73
356.326	29.18
356.538	80.38
356.749	94.72
356.961	152.06
357.172	2.56
357.384	2.56
357.595	12.8
357.807	53.76
358.018	-22.02
358.23	12.8
358.441	113.15
358.653	43.52
358.864	-99.84
359.075	8.7
359.287	92.67
359.498	66.05
359.709	55.81
359.921	-46.59
360.132	0.51
360.344	53.76
360.555	14.85
360.766	78.33
360.977	4.61
361.189	49.66
361.4	47.62
361.611	109.05
361.823	55.81
362.034	10.75
362.245	18.94
362.456	64
362.667	123.39
362.879	43.52
363.09	61.95
363.301	61.95
363.512	4.61
363.723	57.86
363.935	47.62
364.146	76.29
364.357	-28.16
364.568	74.24
364.779	20.99
364.99	53.76
365.201	70.14
365.412	141.82
365.623	4.61
365.834	82.43
366.045	86.53
366.256	109.05
366.467	90.62
366.678	35.33
366.889	113.15
367.1	47.62
367.311	25.09
367.522	35.33
367.733	74.24
367.944	35.33
368.155	25.09
368.366	78.33
368.577	160.25
368.788	76.29
368.999	51.71
369.209	68.09
369.42	109.05
369.631	41.47
369.842	70.14
370.053	-9.73
370.264	51.71
370.474	14.85
370.685	55.81
370.896	113.15
371.107	43.52
371.317	10.75
371.528	12.8
371.739	49.66
371.95	88.57
372.16	96.77
372.371	160.25
372.582	2.56
372.792	27.14
373.003	80.38
373.214	53.76
373.424	27.14
373.635	-26.11
373.846	86.53
374.056	31.23
374.267	84.48
374.477	35.33
374.688	4.61
374.898	2.56
375.109	119.29
375.319	76.29
375.53	45.57
375.74	150.01
375.951	25.09
376.161	70.14
376.372	76.29
376.582	29.18
376.793	72.19
377.003	-7.68
377.214	-24.06
377.424	135.68
377.635	80.38
377.845	41.47
378.055	68.09
378.266	70.14
378.476	47.62
378.686	84.48
378.897	0.51
379.107	23.04
379.317	61.95
379.528	2.56
379.738	18.94
379.948	45.57
380.158	100.86
380.369	88.57
380.579	127.49
380.789	86.53
380.999	84.48
381.21	70.14
381.42	31.23
381.63	10.75
381.84	84.48
382.05	55.81
382.261	102.91
382.471	76.29
382.681	6.66
382.891	90.62
383.101	20.99
383.311	12.8
383.521	88.57
383.731	98.81
383.941	135.68
384.151	84.48
384.361	10.75
384.571	43.52
384.781	76.29
384.991	84.48
385.201	33.28
385.411	76.29
385.621	49.66
385.831	96.77
386.041	10.75
386.251	29.18
386.461	51.71
386.671	33.28
386.881	72.19
387.091	53.76
387.301	84.48
387.511	29.18
387.72	-3.58
387.93	61.95
388.14	20.99
388.35	51.71
388.56	76.29
388.769	59.9
388.979	94.72
389.189	86.53
389.399	27.14
389.609	111.1
389.818	-28.16
390.028	25.09
390.238	64
390.447	51.71
390.657	76.29
390.867	78.33
391.076	80.38
391.286	61.95
391.496	92.67
391.705	100.86
391.915	29.18
392.125	117.25
392.334	102.91
392.544	88.57
392.753	76.29
392.963	27.14
393.172	127.49
393.382	45.57
393.591	107.01
393.801	64
394.01	184.83
394.22	37.38
394.429	102.91
394.639	20.99
394.848	178.69
395.058	131.58
395.267	117.25
395.477	86.53
395.686	74.24
395.895	84.48
396.105	133.63
396.314	137.73
396.524	68.09
396.733	41.47
396.942	125.44
397.152	70.14
397.361	125.44
397.57	18.94
397.78	121.34
397.989	160.25
398.198	154.11
398.407	121.34
398.617	47.62
398.826	111.1
399.035	76.29
399.244	66.05
399.453	64
399.663	107.01
399.872	86.53
400.081	61.95
400.29	84.48
400.499	111.1
400.708	113.15
400.917	51.71
401.127	80.38
401.336	70.14
401.545	113.15
401.754	117.25
401.963	121.34
402.172	104.96
402.381	145.92
402.59	135.68
402.799	109.05
403.008	72.19
403.217	145.92
403.426	129.53
403.635	86.53
403.844	102.91
404.053	145.92
404.262	170.49
404.471	133.63
404.68	104.96
404.888	98.81
405.097	86.53
405.306	168.45
405.515	127.49
405.724	125.44
405.933	82.43
406.142	145.92
406.35	119.29
406.559	78.33
406.768	164.35
406.977	199.16
407.185	123.39
407.394	219.64
407.603	166.4
407.812	209.4
408.02	137.73
408.229	258.56
408.438	223.74
408.646	174.59
408.855	248.32
409.064	229.88
409.272	233.98
409.481	256.51
409.69	225.79
409.898	186.88
410.107	217.6
410.315	311.8
410.524	305.66
410.733	272.89
410.941	244.22
411.15	324.09
411.358	352.76
411.567	338.43
411.775	315.9
411.984	346.62
412.192	399.87
412.401	387.58
412.609	416.25
412.818	412.15
413.026	371.19
413.234	346.62
413.443	494.07
413.651	406.01
413.86	530.94
414.068	551.42
414.276	518.65
414.485	524.79
414.693	600.57
414.901	584.18
415.11	604.66
415.318	629.24
415.526	621.05
415.734	684.53
415.943	598.52
416.151	645.62
416.359	705.01
416.567	758.26
416.776	754.16
416.984	739.83
417.192	807.41
417.4	877.04
417.608	848.37
417.817	805.36
418.025	918
418.233	989.68
418.441	987.63
418.649	907.76
418.857	1087.98
419.065	1165.81
419.273	975.35
419.481	1212.91
419.689	1165.81
419.897	1176.05
420.105	1288.68
420.313	1264.11
420.521	1429.99
420.729	1438.19
420.937	1413.61
421.145	1436.14
421.353	1536.49
421.561	1677.8
421.769	1630.7
421.977	1675.75
422.185	1640.93
422.393	1831.4
422.601	1962.47
422.809	1778.15
423.017	1919.46
423.224	1946.08
423.432	2042.34
423.64	2085.34
423.848	2253.28
424.056	2284
424.263	2382.3
424.471	2441.69
424.679	2413.02
424.887	2707.93
425.094	2599.38
425.302	2671.06
425.51	2675.16
425.718	2658.78
425.925	2875.86
426.133	2927.06
426.341	3027.41
426.548	3228.11
426.756	3207.63
426.964	3287.5
427.171	3424.72
427.379	3649.99
427.586	3500.49
427.794	3838.41
428.001	3914.18
428.209	4022.72
428.417	3977.67
428.624	4366.78
428.832	4305.34
429.039	4272.57
429.247	4254.14
429.454	4671.93
429.662	5048.75
429.869	4764.09
430.076	4966.84
430.284	4833.72
430.491	5093.81
430.699	5470.64
430.906	5527.98
431.114	5478.83
431.321	5671.34
431.528	5863.85
431.736	6113.7
431.943	6283.68
432.15	6240.67
432.358	6224.29
432.565	6513.05
432.772	6502.81
432.979	6953.37
433.187	7113.11
433.394	7055.76
433.601	7555.47
433.808	7758.22
434.016	7565.71
434.223	7758.22
434.43	8532.35
434.637	8221.06
434.844	8769.91
435.052	8948.09
435.259	8989.05
435.466	8839.55
435.673	8829.31
435.88	9355.63
436.087	9728.36
436.294	9988.46
436.501	9881.96
436.708	9992.55
436.915	10240.36
437.122	10658.14
437.329	10738.01
437.537	11065.69
437.743	11266.39
437.95	11252.05
438.157	11616.59
438.364	11923.79
438.571	11831.63
438.778	12120.39
438.985	12968.25
439.192	12456.26
439.399	13087.03
439.606	12783.93
439.813	13691.18
440.02	14584.1
440.227	13947.18
440.433	13873.45
440.64	14584.1
440.847	14227.75
441.054	14512.42
441.261	15667.47
441.467	15626.51
441.674	15849.74
441.881	16341.25
442.088	16294.15
442.294	16122.12
442.501	16582.91
442.708	17015.04
442.914	17561.84
443.121	18305.26
443.328	17754.35
443.534	19232.99
443.741	18647.27
443.948	18465
444.154	19935.44
444.361	19503.32
444.568	19642.58
444.774	19613.91
444.981	19945.68
445.187	20345.03
445.394	21407.93
445.6	21156.03
445.807	23242.91
446.013	22114.48
446.22	22481.06
446.426	23558.3
446.633	23414.94
446.839	24727.69
447.046	23474.33
447.252	24850.56
447.459	24850.56
447.665	25131.14
447.871	26181.74
448.078	26775.66
448.284	25663.61
448.491	26374.25
448.697	27490.4
448.903	28166.23
449.11	28026.96
449.316	27865.17
449.522	28256.34
449.728	29132.87
449.935	28960.84
450.141	29356.1
450.347	29757.5
450.553	29079.62
450.76	29294.66
450.966	30216.24
451.172	29984.82
451.378	30752.81
451.584	30093.36
451.791	30840.87
451.997	30861.35
452.203	31545.37
452.409	31512.61
452.615	31543.33
452.821	30052.41
453.027	29745.21
453.233	31651.87
453.44	30132.28
453.646	30677.04
453.852	30879.78
454.058	31379.49
454.264	30025.78
454.47	30877.74
454.676	30373.94
454.882	30873.64
455.088	28676.17
455.294	29220.93
455.5	29233.22
455.705	29765.69
455.911	28381.26
456.117	28039.25
456.323	27678.81
456.529	26257.52
456.735	27222.11
456.941	26695.78
457.147	26218.61
457.352	25350.27
457.558	25034.88
457.764	25135.23
457.97	24961.16
458.176	24369.29
458.381	24225.93
458.587	22759.59
458.793	23441.56
458.999	22042.8
459.204	23320.73
459.41	22751.4
459.616	21354.68
459.821	20973.76
460.027	21194.94
460.233	20723.91
460.438	19912.91
460.644	20052.17
460.85	19192.03
461.055	19089.63
461.261	18989.28
461.466	17635.57
461.672	16705.79
461.878	17979.63
462.083	16869.63
462.289	16574.72
462.494	16212.23
462.7	15755.54
462.905	15388.95
463.111	15722.77
463.316	15894.8
463.522	15536.4
463.727	15350.04
463.932	15569.17
464.138	15225.11
464.343	15391
464.549	14856.48
464.754	15292.69
464.959	15364.37
465.165	14965.02
465.37	14446.88
465.575	14070.06
465.781	14549.28
465.986	14659.87
466.191	14131.5
466.397	13738.29
466.602	13355.32
466.807	13736.24
467.012	14047.53
467.218	13666.61
467.423	13453.62
467.628	13416.76
467.833	14281
468.038	13623.6
468.244	13386.04
468.449	13797.68
468.654	13254.97
468.859	13242.68
469.064	13252.92
469.269	12863.8
469.474	12890.43
469.679	13093.18
469.885	12704.06
470.09	13066.55
470.295	12693.82
470.5	12736.83
470.705	12425.54
470.91	12202.31
471.115	12142.92
471.32	12314.95
471.525	12284.23
471.73	11901.26
471.935	11897.16
472.139	11579.73
472.344	11493.71
472.549	11639.12
472.754	11362.64
472.959	11231.57
473.164	10879.32
473.369	10895.71
473.574	11288.92
473.778	10942.81
473.983	11114.84
474.188	11096.41
474.393	10445.15
474.598	10740.06
474.802	10416.48
475.007	10297.7
475.212	10486.11
475.417	10041.7
475.621	9982.31
475.826	10105.19
476.031	9765.23
476.235	9621.87
476.44	9851.24
476.645	9617.77
476.849	9558.38
477.054	9425.26
477.259	9320.82
477.463	9314.67
477.668	9199.99
477.872	9363.83
478.077	9009.53
478.282	8876.41
478.486	8802.68
478.691	8692.09
478.895	8677.76
479.1	8638.84
479.304	8614.27
479.509	8425.86
479.713	8622.46
479.918	8333.7
480.122	8237.44
480.326	8452.48
480.531	8528.25
480.735	8180.1
480.94	8223.11
481.144	8452.48
481.348	7977.35
481.553	8102.28
481.757	8065.41
481.961	8317.31
482.166	8171.91
482.37	8081.8
482.574	7883.14
482.778	7907.72
482.983	8210.82
483.187	8008.07
483.391	8192.39
483.595	7881.1
483.8	7784.84
484.004	8087.94
484.208	8223.11
484.412	7917.96
484.616	7887.24
484.821	7893.38
485.025	7891.34
485.229	8018.31
485.433	8173.96
485.637	7950.73
485.841	8085.89
486.045	7903.62
486.249	7901.58
486.453	7848.33
486.657	8012.17
486.861	8069.51
487.065	7790.99
487.269	8118.66
487.473	7745.93
487.677	8104.32
487.881	8128.9
488.085	8069.51
488.289	7848.33
488.493	7956.87
488.697	7985.54
488.901	8124.8
489.105	8100.23
489.309	8153.48
489.512	8042.89
489.716	8034.69
489.92	7983.49
490.124	8110.47
490.328	8173.96
490.531	8116.61
490.735	8163.72
490.939	8311.17
491.143	8169.86
491.346	8112.52
491.55	8317.31
491.754	8487.29
491.958	8337.79
492.161	8493.44
492.365	8358.27
492.569	8440.19
492.772	8305.03
492.976	8329.6
493.18	8515.97
493.383	8653.18
493.587	8673.66
493.79	8864.12
493.994	8587.64
494.197	8724.86
494.401	8784.25
494.605	8847.74
494.808	9073.01
495.012	9075.06
495.215	9062.77
495.419	9167.22
495.622	8845.69
495.825	9247.09
496.029	9392.5
496.232	9394.54
496.436	9378.16
496.639	9515.37
496.843	9433.46
497.046	9757.04
497.249	9845.1
497.453	9916.78
497.656	9951.59
497.859	10066.28
498.063	10127.72
498.266	10230.12
498.469	10097
498.673	10316.13
498.876	10604.89
499.079	10506.59
499.282	10525.02
499.485	10987.86
499.689	10836.31
499.892	11077.97
500.095	11159.89
500.298	11530.58
500.501	11344.21
500.705	11493.71
500.908	11678.03
501.111	11856.2
501.314	11895.11
501.517	12130.63
501.72	12183.88
501.923	12128.58
502.126	12482.88
502.329	12644.67
502.532	12482.88
502.735	13001.02
502.938	13025.59
503.141	13095.22
503.344	13281.59
503.547	13330.74
503.75	13553.97
503.953	13895.98
504.156	13814.06
504.359	13994.28
504.562	14108.97
504.765	14027.05
504.968	14455.08
505.17	14467.36
505.373	14600.48
505.576	14606.63
505.779	14868.77
505.982	15098.14
506.185	15479.06
506.387	15499.54
506.59	15620.37
506.793	15622.42
506.996	15812.88
507.198	16058.63
507.401	16126.22
507.604	16351.49
507.807	16435.46
508.009	16761.09
508.212	16869.63
508.415	16926.97
508.617	17101.05
508.82	17453.3
509.022	17508.6
509.225	17725.68
509.428	17828.08
509.63	18290.92
509.833	17918.19
510.035	18598.12
510.238	18280.68
510.44	18358.5
510.643	19155.16
510.845	18854.11
511.048	18811.1
511.25	19405.02
511.453	19568.85
511.655	20064.46
511.858	19810.51
512.06	19988.69
512.262	20500.68
512.465	19992.78
512.667	20510.92
512.87	20660.42
513.072	20918.46
513.274	21485.75
513.477	21283
513.679	21559.48
513.881	21848.24
514.084	22091.95
514.286	22016.18
514.488	22214.83
514.69	22775.97
514.893	22831.27
515.095	22841.51
515.297	23324.83
515.499	23402.65
515.701	23429.27
515.904	23791.76
516.106	23943.31
516.308	24227.98
516.51	24402.06
516.712	24758.41
516.914	24823.94
517.116	24909.96
517.318	25135.23
517.52	25469.05
517.722	25366.65
517.925	25643.13
518.127	26148.98
518.329	26407.02
518.531	26275.95
518.733	26703.98
518.935	26906.73
519.136	26585.19
519.338	27373.66
519.54	27240.54
519.742	27476.06
519.944	27910.23
520.146	28362.83
520.348	28227.67
520.55	28493.9
520.752	28637.26
520.954	28944.45
521.155	28985.41
521.357	29409.34
521.559	29472.83
521.761	29726.78
521.963	29882.42
522.164	29726.78
522.366	30115.89
522.568	30613.55
522.77	30638.12
522.971	30881.83
523.173	31019.05
523.375	31166.5
523.576	30840.87
523.778	31311.91
523.98	31625.25
524.181	31750.17
524.383	31985.69
524.584	32335.89
524.786	32612.37
524.988	32337.94
525.189	32825.36
525.391	33003.53
525.592	32948.23
525.794	33296.39
525.995	33402.88
526.197	33007.62
526.398	33269.76
526.6	33683.45
526.801	33802.24
527.003	34039.8
527.204	33953.79
527.406	34211.83
527.607	34166.77
527.808	34320.37
528.01	33587.2
528.211	34162.68
528.412	34797.55
528.614	34750.45
528.815	34858.99
529.016	35246.05
529.218	34729.97
529.419	34738.16
529.62	35293.16
529.822	35229.67
530.023	34760.69
530.224	35186.66
530.425	34983.91
530.626	35125.22
530.828	35190.76
531.029	35526.63
531.23	35264.49
531.431	35096.55
531.632	35350.5
531.833	35532.77
532.035	35799.01
532.236	35495.91
532.437	35938.27
532.638	35641.31
532.839	35878.88
533.04	36009.95
533.241	35966.94
533.442	36517.84
533.643	35770.33
533.844	35983.32
534.045	36042.71
534.246	35667.94
534.447	36222.94
534.648	35514.34
534.849	36124.63
535.05	36005.85
535.251	35768.29
535.451	36087.77
535.652	36122.58
535.853	35989.47
536.054	36147.16
536.255	36237.27
536.456	35672.03
536.657	36364.25
536.857	36184.02
537.058	35651.55
537.259	36231.13
537.46	36157.4
537.66	36007.9
537.861	35948.51
538.062	35778.53
538.263	36347.86
538.463	35774.43
538.664	35833.82
538.865	35895.26
539.065	36360.15
539.266	35604.45
539.466	36128.73
539.667	35745.76
539.868	36587.47
540.068	35925.98
540.269	35825.63
540.469	36341.72
540.67	35860.44
540.87	35835.87
541.071	36188.12
541.271	36229.08
541.472	36124.63
541.672	35510.24
541.873	35831.77
542.073	35465.19
542.274	36247.51
542.474	36089.82
542.675	35684.32
542.875	35676.13
543.075	35977.18
543.276	35205.09
543.476	36306.9
543.676	35493.86
543.877	36018.14
544.077	36036.57
544.277	35964.89
544.478	35356.64
544.678	35954.65
544.878	35655.65
545.078	35876.83
545.279	35401.7
545.479	35768.29
545.679	35923.93
545.879	35962.84
546.079	35538.91
546.28	35561.44
546.48	35264.49
546.68	35694.56
546.88	35743.71
547.08	35682.27
547.28	35518.43
547.48	35082.22
547.68	35649.5
547.88	35270.63
548.081	36071.39
548.281	35452.9
548.481	35299.3
548.681	35590.11
548.881	35530.72
549.081	35366.88
549.28	35315.69
549.48	35776.48
549.68	35510.24
549.88	35989.47
550.08	35147.75
550.28	35788.77
550.48	35444.71
550.68	35690.46
550.88	35207.14
551.08	35110.89
551.279	35293.16
551.479	35086.31
551.679	35506.15
551.879	35301.35
552.079	35692.51
552.278	35055.59
552.478	35534.82
552.678	35178.47
552.878	35373.03
553.077	35366.88
553.277	34553.84
553.477	35293.16
553.676	34947.05
553.876	35235.81
554.076	35209.19
554.275	34990.06
554.475	34680.81
554.674	35143.66
554.874	35051.5
555.074	35203.05
555.273	34969.58
555.473	35031.02
555.672	34678.77
555.872	35031.02
556.071	34916.33
556.271	34897.9
556.47	34797.55
556.67	34881.52
556.869	34631.66
557.068	34932.71
557.268	34555.89
557.467	35209.19
557.667	34402.29
557.866	34207.73
558.065	34684.91
558.265	34842.6
558.464	34576.37
558.663	34914.28
558.863	33671.17
559.062	34875.37
559.261	34023.42
559.461	34572.27
559.66	33882.11
559.859	34289.65
560.058	34160.63
560.258	34095.1
560.457	33732.61
560.656	34015.22
560.855	33908.73
561.054	33986.55
561.253	33785.85
561.453	33787.9
561.652	34029.56
561.851	33697.79
562.05	33323.01
562.249	33388.55
562.448	34060.28
562.647	33591.3
562.846	33181.7
563.045	33499.14
563.244	33116.17
563.443	33554.43
563.642	32935.95
563.841	33212.42
564.04	33079.3
564.239	33175.56
564.438	32882.7
564.637	33034.25
564.836	33019.91
565.035	32563.22
565.234	32516.11
565.432	32473.1
565.631	32604.17
565.83	32614.41
566.029	32516.11
566.228	32712.72
566.427	32288.79
566.625	32112.66
566.824	31850.52
567.023	32426
567.222	31817.75
567.42	32147.48
567.619	31825.95
567.818	31670.3
568.016	31553.57
568.215	32000.02
568.414	31606.81
568.612	31946.78
568.811	31473.7
569.01	31592.48
569.208	30988.33
569.407	31557.66
569.605	31225.89
569.804	31666.2
570.002	31279.14
570.201	31543.33
570.4	30947.37
570.598	30601.26
570.797	30728.24
570.995	31111.21
571.193	30265.39
571.392	30855.21
571.59	30531.63
571.789	30654.51
571.987	30230.58
572.186	30496.81
572.384	29902.9
572.582	30756.91
572.781	30396.46
572.979	29925.43
573.177	30246.96
573.376	30591.02
573.574	29489.21
573.772	29966.39
573.971	29683.77
574.169	29716.54
574.367	29358.14
574.565	29634.62
574.763	29374.53
574.962	29798.46
575.16	28923.97
575.358	29550.65
575.556	28946.5
575.754	29390.91
575.952	28913.73
576.151	29093.96
576.349	29005.89
576.547	28684.36
576.745	28835.91
576.943	28958.79
577.141	28495.95
577.339	28999.75
577.537	28946.5
577.735	28676.17
577.933	28168.27
578.131	28565.58
578.329	28407.89
578.527	28264.53
578.725	28586.06
578.923	28059.73
579.121	28158.03
579.319	27803.74
579.516	28209.23
579.714	28168.27
579.912	27787.35
580.11	27865.17
580.308	27635.8
580.506	27402.33
580.704	27367.52
580.901	27426.91
581.099	27727.96
581.297	26843.24
581.495	27078.75
581.692	27494.49
581.89	27189.35
582.088	27367.52
582.285	26925.16
582.483	27201.63
582.681	27154.53
582.878	27019.36
583.076	26740.84
583.274	26685.54
583.471	26568.81
583.669	26744.94
583.866	26390.64
584.064	26417.26
584.262	26241.14
584.459	26505.32
584.657	25821.3
584.854	26372.21
585.052	25712.76
585.249	25766.01
585.447	26093.68
585.644	25641.08
585.841	25852.02
586.039	25954.42
586.236	25350.27
586.434	25120.9
586.631	25528.44
586.828	25481.34
587.026	25419.9
587.223	25165.95
587.42	25186.43
587.618	25239.68
587.815	25026.69
588.012	25049.22
588.21	25006.21
588.407	25383.04
588.604	24504.46
588.801	24666.25
588.999	24588.42
589.196	24365.2
589.393	24719.49
589.59	24590.47
589.787	24586.38
589.984	24148.11
590.182	23775.38
590.379	24318.09
590.576	24094.86
590.773	24113.3
590.97	23920.79
591.167	24211.6
591.364	23984.27
591.561	23992.47
591.758	23500.95
591.955	23529.62
592.152	23840.92
592.349	23599.26
592.546	23527.58
592.743	23359.64
592.94	22909.09
593.137	23400.6
593.334	23302.3
593.531	22960.29
593.727	23179.42
593.924	23046.3
594.121	22735.01
594.318	23232.67
594.515	22632.61
594.712	22982.82
594.908	22692.01
595.105	22864.04
595.302	22456.49
595.499	22704.29
595.696	22440.11
595.892	22106.29
596.089	22700.2
596.286	22319.28
596.482	22157.49
596.679	22257.84
596.876	22233.26
597.072	21809.33
597.269	22055.09
597.466	21919.92
597.662	21881.01
597.859	21549.24
598.055	21745.84
598.252	21827.76
598.448	21891.25
598.645	21463.22
598.841	21285.05
599.038	21422.27
599.234	21457.08
599.431	21254.33
599.627	21078.21
599.824	21588.15
600.02	21278.91
600.217	21063.87
600.413	21094.59
600.609	20938.94
600.806	20668.61
601.002	20963.52
601.198	20693.19
601.395	20455.62
601.591	20492.49
601.787	20928.7
601.984	20447.43
602.18	20666.56
602.376	20381.9
602.572	20177.1
602.769	20629.7
602.965	20052.17
603.161	19951.82
603.357	19976.4
603.553	19646.68
603.75	19914.96
603.946	19757.27
604.142	19828.95
604.338	19372.25
604.534	19734.74
604.73	19517.65
604.926	19484.89
605.122	19581.14
605.318	19536.09
605.514	19343.58
605.71	19476.69
605.906	19380.44
606.102	19368.15
606.298	19462.36
606.494	19075.29
606.69	19179.74
606.886	19032.29
607.082	18815.2
607.278	19046.62
607.474	18673.89
607.67	18884.83
607.866	18731.23
608.062	18983.13
608.257	18710.75
608.453	18583.78
608.649	18745.57
608.845	18348.26
609.041	18712.8
609.236	18706.66
609.432	18229.48
609.628	18589.92
609.824	18350.31
610.019	18198.76
610.215	18329.83
610.411	18393.32
610.606	18258.15
610.802	18387.18
610.998	18147.56
611.193	18057.45
611.389	18170.09
611.584	18163.95
611.78	17893.61
611.976	18016.49
612.171	18065.64
612.367	17887.47
612.562	17828.08
612.758	17713.39
612.953	17723.63
613.149	17858.8
613.344	17486.07
613.539	17936.62
613.735	17645.81
613.93	17692.91
614.126	17787.12
614.321	17719.54
614.517	17252.6
614.712	17488.12
614.907	17408.25
615.103	17600.76
615.298	17451.25
615.493	17457.4
615.688	17111.29
615.884	17623.28
616.079	17142.01
616.274	17248.5
616.47	17078.52
616.665	17160.44
616.86	17027.32
617.055	16988.41
617.25	17004.8
617.445	17248.5
617.641	16894.21
617.836	16994.56
618.031	16642.31
618.226	16804.1
618.421	16709.89
618.616	16806.14
618.811	16501
619.006	16763.14
619.201	16115.98
619.396	16517.38
619.591	16265.48
619.786	16455.94
619.981	16283.91
620.176	16349.45
620.371	15962.38
620.566	16267.53
620.761	15874.32
620.956	16181.51
621.151	15728.91
621.346	16011.53
621.541	15735.06
621.735	15816.97
621.93	15337.75
622.125	15304.98
622.32	15239.45
622.515	15415.57
622.709	15395.09
622.904	15186.2
623.099	14897.44
623.294	15190.3
623.488	14901.53
623.683	14858.53
623.878	14846.24
624.072	14682.4
624.267	14688.54
624.462	14586.15
624.656	14338.34
624.851	14512.42
625.046	14596.39
625.24	14344.49
625.435	14084.39
625.629	14139.69
625.824	14008.62
626.018	14133.54
626.213	13709.61
626.407	13801.77
626.602	13730.09
626.796	13781.29
626.991	14049.58
627.185	13664.56
627.38	13564.21
627.574	13388.08
627.768	13410.61
627.963	13257.01
628.157	13218.1
628.352	13060.41
628.546	13050.17
628.74	13412.66
628.935	12978.49
629.129	12855.61
629.323	12818.75
629.517	12859.71
629.712	12560.7
629.906	12570.94
630.1	12429.63
630.294	12341.57
630.489	12306.76
630.683	12441.92
630.877	12112.2
631.071	12206.41
631.265	12235.08
631.459	12087.62
631.653	12069.19
631.848	11958.6
632.042	11911.5
632.236	11841.87
632.43	11675.98
632.624	11753.8
632.818	11690.32
633.012	11471.18
633.206	11612.49
633.4	11579.73
633.594	11168.09
633.788	11278.68
633.982	11399.51
634.176	11352.4
634.369	11219.28
634.563	11180.37
634.757	11034.97
634.951	11016.54
635.145	10889.56
635.339	11123.03
635.533	10989.91
635.726	11184.47
635.92	10783.07
636.114	10613.09
636.308	10695
636.501	10713.44
636.695	10582.37
636.889	10359.14
637.083	10588.51
637.276	10283.36
637.47	10320.23
637.664	10346.85
637.857	10144.1
638.051	10191.2
638.244	10099.05
638.438	10127.72
638.632	10092.9
638.825	9859.43
639.019	10029.41
639.212	9736.56
639.406	9943.4
639.599	9757.04
639.793	9836.91
639.986	9705.84
640.18	9703.79
640.373	9595.25
640.567	9472.37
640.76	9552.24
640.954	9769.32
641.147	9281.91
641.34	9230.71
641.534	9341.3
641.727	9167.22
641.92	9339.25
642.114	9032.05
642.307	9091.45
642.5	9040.25
642.694	8882.55
642.887	8980.85
643.08	9148.79
643.273	8739.19
643.467	8872.31
643.66	8675.71
643.853	8696.19
644.046	8505.73
644.239	8597.88
644.432	8472.96
644.626	8599.93
644.819	8442.24
645.012	8423.81
645.205	8458.62
645.398	8528.25
645.591	8290.69
645.784	8272.26
645.977	8282.5
646.17	8450.43
646.363	8130.95
646.556	8071.56
646.749	7991.69
646.942	8118.66
647.135	8042.89
647.328	7989.64
647.521	7852.42
647.714	7733.64
647.907	7932.29
648.099	7793.03
648.292	7809.42
648.485	7633.29
648.678	7539.08
648.871	7709.07
649.064	7422.35
649.256	7385.49
649.449	7414.16
649.642	7453.07
649.835	7446.93
650.027	7242.13
650.22	7557.52
650.413	7266.71
650.605	7317.9
650.798	7272.85
650.991	7301.52
651.183	7070.1
651.376	7129.49
651.568	7049.62
651.761	7147.92
651.954	7008.66
652.146	7086.48
652.339	6961.56
652.531	6904.21
652.724	6717.85
652.916	6764.95
653.109	6805.91
653.301	6758.81
653.494	6758.81
653.686	6633.88
653.879	6713.75
654.071	6539.68
654.263	6582.68
654.456	6640.03
654.648	6422.94
654.84	6601.12
655.033	6422.94
655.225	6369.69
655.417	6365.6
655.61	6314.4
655.802	6418.85
655.994	6117.79
656.186	6226.34
656.379	5943.72
656.571	6416.8
656.763	6160.8
656.955	6085.03
657.148	6203.81
657.34	6058.4
657.532	5923.24
657.724	6070.69
657.916	6019.49
658.108	5921.19
658.3	5769.64
658.492	5876.13
658.684	5640.62
658.876	5818.79
659.068	5720.49
659.26	5644.71
659.452	5777.83
659.644	5738.92
659.836	5753.26
660.028	5611.95
660.22	5388.72
660.412	5517.74
660.604	5661.1
660.796	5327.28
660.988	5509.55
661.18	5386.67
661.372	5515.69
661.563	5493.16
661.755	5517.74
661.947	5274.03
662.139	5265.84
662.331	5331.37
662.522	5347.76
662.714	5396.91
662.906	5235.12
663.097	5216.69
663.289	5181.87
663.481	5128.63
663.673	5091.76
663.864	5093.81
664.056	5038.52
664.247	5056.95
664.439	4872.63
664.631	4975.03
664.822	4975.03
665.014	4923.83
665.205	4895.16
665.397	4837.81
665.588	4983.22
665.78	4825.53
665.971	4784.57
666.163	4895.16
666.354	4686.26
666.546	4712.89
666.737	4759.99
666.929	4678.07
667.12	4716.98
667.311	4551.1
667.503	4612.54
667.694	4569.53
667.885	4524.47
668.077	4547
668.268	4450.75
668.459	4477.37
668.651	4434.36
668.842	4448.7
669.033	4245.95
669.224	4370.88
669.416	4334.01
669.607	4299.2
669.798	4127.17
669.989	4178.37
670.18	4276.67
670.371	4071.87
670.563	4028.87
670.754	4147.65
670.945	4274.62
671.136	4196.8
671.327	4145.6
671.518	4153.79
671.709	4133.31
671.9	4258.24
672.091	4147.65
672.282	4010.43
672.473	4125.12
672.664	3916.23
672.855	3959.24
673.046	3893.7
673.237	4061.63
673.428	3930.56
673.619	3908.04
673.809	3934.66
674	3879.36
674.191	3809.73
674.382	3742.15
674.573	3783.11
674.764	3783.11
674.954	3830.21
675.145	3764.68
675.336	3824.07
675.527	3781.06
675.717	3830.21
675.908	3713.48
676.099	3744.2
676.289	3789.25
676.48	3643.85
676.671	3697.1
676.861	3637.7
677.052	3639.75
677.243	3674.57
677.433	3514.83
677.624	3645.9
677.814	3656.14
678.005	3664.33
678.195	3400.14
678.386	3613.13
678.576	3545.55
678.767	3406.28
678.957	3402.19
679.148	3439.05
679.338	3475.91
679.529	3348.94
679.719	3430.86
679.909	3426.76
680.1	3316.17
680.29	3396.04
680.481	3488.2
680.671	3305.93
680.861	3410.38
681.052	3357.13
681.242	3316.17
681.432	3408.33
681.622	3303.89
681.813	3230.16
682.003	3250.64
682.193	3174.86
682.383	3269.07
682.573	3230.16
682.764	3183.06
682.954	3197.39
683.144	3195.34
683.334	3162.58
683.524	3099.09
683.714	3164.62
683.904	3074.51
684.094	3148.24
684.284	3117.52
684.474	3166.67
684.664	3160.53
684.854	3013.07
685.044	3111.38
685.234	2959.83
685.424	3017.17
685.614	2998.74
685.804	3011.03
685.994	3066.32
686.184	3033.55
686.374	3015.12
686.564	3068.37
686.753	2927.06
686.943	2898.39
687.133	2894.29
687.323	2947.54
687.513	2953.68
687.702	2873.81
687.892	2812.37
688.082	2920.92
688.272	2869.72
688.461	2841.04
688.651	2812.37
688.841	2777.56
689.03	2746.84
689.22	2699.73
689.41	2720.21
689.599	2783.7
689.789	2836.95
689.979	2652.63
690.168	2771.41
690.358	2738.65
690.547	2798.04
690.737	2757.08
690.926	2718.17
691.116	2695.64
691.305	2705.88
691.495	2673.11
691.684	2560.47
691.874	2712.02
692.063	2574.81
692.252	2650.58
692.442	2599.38
692.631	2550.23
692.82	2562.52
693.01	2535.9
693.199	2662.87
693.388	2486.75
693.578	2636.25
693.767	2529.75
693.956	2470.36
694.146	2517.47
694.335	2466.27
694.524	2505.18
694.713	2503.13
694.902	2347.48
695.092	2392.54
695.281	2435.55
695.47	2398.68
695.659	2400.73
695.848	2406.88
696.037	2417.12
696.226	2386.4
696.415	2435.55
696.604	2513.37
696.793	2501.08
696.982	2408.92
697.171	2386.4
697.36	2320.86
697.549	2451.93
697.738	2384.35
697.927	2398.68
698.116	2300.38
698.305	2431.45
698.494	2310.62
698.683	2370.01
698.872	2505.18
699.061	2324.96
699.25	2312.67
699.438	2269.66
699.627	2292.19
699.816	2367.96
700.005	2361.82
700.193	2318.81
700.382	2365.92
700.571	2320.86
700.76	2363.87
700.948	2308.57
701.137	2331.1
701.326	2232.8
701.514	2200.03
701.703	2267.61
701.892	2437.59
702.08	2214.37
702.269	2302.43
702.457	2165.21
702.646	2310.62
702.834	2116.06
703.023	2173.41
703.212	2220.51
703.4	2261.47
703.589	2230.75
703.777	2316.76
703.965	2247.13
704.154	2329.05
704.342	2185.69
704.531	2189.79
704.719	2138.59
704.907	2349.53
705.096	2232.8
705.284	2183.65
705.472	2138.59
705.661	2050.53
705.849	2247.13
706.037	2075.1
706.226	2290.14
706.414	2271.71
706.602	2218.46
706.79	2279.9
706.979	2085.34
707.167	2304.48
707.355	2122.21
707.543	2175.45
707.731	2222.56
707.919	2191.84
708.107	2013.67
708.296	2101.73
708.484	2068.96
708.672	2144.74
708.86	2224.61
709.048	2197.98
709.236	2204.13
709.424	2163.17
709.612	2277.85
709.8	2167.26
709.988	2238.94
710.176	2228.7
710.364	2193.89
710.551	2202.08
710.739	2042.34
710.927	2144.74
711.115	2218.46
711.303	2222.56
711.491	2195.93
711.679	2214.37
711.866	2220.51
712.054	2208.22
712.242	2226.65
712.43	2101.73
712.617	2167.26
712.805	2140.64
712.993	2222.56
713.181	2148.83
713.368	2185.69
713.556	2109.92
713.744	2165.21
713.931	2114.02
714.119	2052.58
714.306	2161.12
714.494	2095.58
714.682	2169.31
714.869	2118.11
715.057	2165.21
715.244	2183.65
715.432	2206.17
715.619	2140.64
715.807	2167.26
715.994	2122.21
716.182	2193.89
716.369	2247.13
716.556	2263.52
716.744	2111.97
716.931	1958.37
717.119	2277.85
717.306	2062.82
717.493	2189.79
717.681	2200.03
717.868	2093.54
718.055	2171.36
718.242	2208.22
718.43	2177.5
718.617	2109.92
718.804	2134.5
718.991	2189.79
719.179	2238.94
719.366	2191.84
719.553	2093.54
719.74	2124.26
719.927	2185.69
720.114	2021.86
720.301	2093.54
720.488	2083.3
720.676	2077.15
720.863	2200.03
721.05	2111.97
721.237	2177.5
721.424	2066.91
721.611	2206.17
721.798	2066.91
721.985	2154.98
722.172	2210.27
722.358	2183.65
722.545	2175.45
722.732	2095.58
722.919	2138.59
723.106	2126.3
723.293	2111.97
723.48	2062.82
723.667	2134.5
723.853	2240.99
724.04	2122.21
724.227	2071.01
724.414	2169.31
724.6	2224.61
724.787	2144.74
724.974	2197.98
725.161	2236.89
725.347	2118.11
725.534	2177.5
725.72	2175.45
725.907	2009.57
726.094	2202.08
726.28	2017.76
726.467	2171.36
726.653	2216.41
726.84	2181.6
727.027	2284
727.213	2189.79
727.4	2161.12
727.586	2050.53
727.773	2185.69
727.959	2132.45
728.145	2216.41
728.332	2152.93
728.518	2105.82
728.705	2247.13
728.891	2046.43
729.077	2130.4
729.264	2148.83
729.45	2120.16
729.636	2181.6
729.823	2173.41
730.009	2097.63
730.195	2191.84
730.382	2134.5
730.568	2142.69
730.754	2091.49
730.94	2109.92
731.126	2163.17
731.313	2296.28
731.499	2093.54
731.685	2148.83
731.871	2240.99
732.057	2226.65
732.243	2157.02
732.429	2085.34
732.615	2222.56
732.801	2167.26
732.987	2107.87
733.173	2157.02
733.359	2030.05
733.545	2075.1
733.731	2251.23
733.917	2218.46
734.103	2120.16
734.289	2193.89
734.475	2021.86
734.661	2181.6
734.847	2148.83
735.033	2165.21
735.219	2050.53
735.404	2095.58
735.59	2150.88
735.776	2066.91
735.962	2122.21
736.148	2111.97
736.333	2140.64
736.519	2185.69
736.705	2054.62
736.89	2130.4
737.076	2181.6
737.262	1972.71
737.447	2159.07
737.633	2107.87
737.819	2066.91
738.004	1972.71
738.19	2101.73
738.375	2038.24
738.561	2161.12
738.747	2068.96
738.932	1972.71
739.118	2150.88
739.303	1964.51
739.489	2103.78
739.674	2050.53
739.859	2023.91
740.045	2120.16
740.23	1909.22
740.416	1964.51
740.601	2046.43
740.786	1993.19
740.972	1853.92
741.157	2066.91
741.342	2054.62
741.528	1972.71
741.713	1999.33
741.898	2001.38
742.084	1888.74
742.269	2040.29
742.454	2132.45
742.639	2021.86
742.824	1993.19
743.01	1964.51
743.195	2046.43
743.38	1989.09
743.565	1923.55
743.75	1984.99
743.935	1806.82
744.12	1944.03
744.305	1939.94
744.49	1905.12
744.675	1849.83
744.86	1894.88
745.045	1952.23
745.23	1933.79
745.415	1800.68
745.6	1776.1
745.785	1843.68
745.97	1849.83
746.155	1845.73
746.34	1888.74
746.525	1804.77
746.71	1870.31
746.895	1890.79
747.079	1782.24
747.264	1841.64
747.449	1808.87
747.634	1837.54
747.819	1759.72
748.003	1696.23
748.188	1651.17
748.373	1794.53
748.557	1737.19
748.742	1667.56
748.927	1694.18
749.111	1632.74
749.296	1675.75
749.481	1675.75
749.665	1604.07
749.85	1612.26
750.034	1780.2
750.219	1624.55
750.404	1640.93
750.588	1552.87
750.773	1552.87
750.957	1726.95
751.141	1518.06
751.326	1653.22
751.51	1532.39
751.695	1591.78
751.879	1599.98
752.064	1563.11
752.248	1546.73
752.432	1470.95
752.617	1497.58
752.801	1454.57
752.985	1544.68
753.17	1489.39
753.354	1442.28
753.538	1440.23
753.722	1466.86
753.907	1307.12
754.091	1327.6
754.275	1374.7
754.459	1395.18
754.643	1386.99
754.828	1333.74
755.012	1378.79
755.196	1219.05
755.38	1425.9
755.564	1319.4
755.748	1352.17
755.932	1350.12
756.116	1331.69
756.3	1321.45
756.484	1315.31
756.668	1372.65
756.852	1206.77
757.036	1325.55
757.22	1284.59
757.404	1161.71
757.588	1249.77
757.772	1333.74
757.956	1200.62
758.14	1190.38
758.323	1223.15
758.507	1196.53
758.691	1169.9
758.875	1180.14
759.059	1182.19
759.242	1214.96
759.426	1169.9
759.61	1202.67
759.794	1288.68
759.977	1108.46
760.161	1157.61
760.345	1157.61
760.528	1210.86
760.712	1124.85
760.895	1174
761.079	1145.33
761.263	1112.56
761.446	1104.37
761.63	1096.18
761.813	1102.32
761.997	1137.13
762.18	1147.37
762.364	1061.36
762.547	1085.94
762.731	1061.36
762.914	1063.41
763.098	1110.51
763.281	1157.61
763.464	1042.93
763.648	1001.97
763.831	1044.98
764.015	1010.16
764.198	1135.09
764.381	1047.02
764.564	1102.32
764.748	911.86
764.931	1051.12
765.114	1004.02
765.297	977.39
765.481	1028.59
765.664	1026.54
765.847	948.72
766.03	973.3
766.213	967.15
766.397	973.3
766.58	926.19
766.763	1065.46
766.946	1010.16
767.129	926.19
767.312	985.58
767.495	942.58
767.678	961.01
767.861	952.82
768.044	915.95
768.227	977.39
768.41	969.2
768.593	1006.06
768.776	936.43
768.959	981.49
769.142	979.44
769.324	907.76
769.507	911.86
769.69	838.13
769.873	924.15
770.056	928.24
770.239	879.09
770.421	881.14
770.604	877.04
770.787	907.76
770.97	838.13
771.152	934.39
771.335	887.28
771.518	852.47
771.7	895.47
771.883	856.56
772.066	856.56
772.248	819.7
772.431	922.1
772.613	825.84
772.796	834.04
772.978	874.99
773.161	920.05
773.343	899.57
773.526	827.89
773.708	741.88
773.891	780.79
774.073	780.79
774.256	782.84
774.438	829.94
774.621	707.06
774.803	817.65
774.985	723.44
775.168	784.88
775.35	756.21
775.532	784.88
775.715	815.6
775.897	756.21
776.079	684.53
776.261	778.74
776.444	745.97
776.626	805.36
776.808	715.25
776.99	702.97
777.173	694.77
777.355	664.05
777.537	721.4
777.719	662.01
777.901	684.53
778.083	758.26
778.265	592.37
778.447	686.58
778.629	692.73
778.811	698.87
778.993	707.06
779.175	715.25
779.357	756.21
779.539	608.76
779.721	600.57
779.903	633.33
780.085	633.33
780.267	651.77
780.449	592.37
780.631	625.14
780.812	629.24
780.994	610.81
781.176	565.75
781.358	627.19
781.54	614.9
781.721	719.35
781.903	610.81
782.085	602.61
782.267	616.95
782.448	586.23
782.63	592.37
782.812	522.74
782.993	578.04
783.175	631.29
783.357	571.9
783.538	545.27
783.72	518.65
783.901	520.7
784.083	526.84
784.264	506.36
784.446	467.45
784.627	559.61
784.809	592.37
784.99	487.93
785.172	469.5
785.353	363
785.535	496.12
785.716	512.5
785.897	483.83
786.079	487.93
786.26	469.5
786.441	461.3
786.623	412.15
786.804	418.3
786.985	481.78
787.167	467.45
787.348	399.87
787.529	420.35
787.71	512.5
787.891	459.26
788.073	408.06
788.254	440.83
788.435	436.73
788.616	444.92
788.797	389.63
788.978	381.43
789.159	395.77
789.34	373.24
789.522	356.86
789.703	412.15
789.884	465.4
790.065	422.39
790.246	436.73
790.427	371.19
790.607	403.96
790.788	330.23
790.969	420.35
791.15	383.48
791.331	344.57
791.512	389.63
791.693	317.95
791.874	465.4
792.054	428.54
792.235	432.63
792.416	367.1
792.597	332.28
792.778	363
792.958	320
793.139	330.23
793.32	412.15
793.5	250.36
793.681	317.95
793.862	334.33
794.042	381.43
794.223	281.08
794.404	403.96
794.584	281.08
794.765	313.85
794.945	385.53
795.126	348.67
795.306	297.47
795.487	344.57
795.667	313.85
795.848	299.52
796.028	373.24
796.209	240.12
796.389	387.58
796.57	231.93
796.75	268.8
796.93	332.28
797.111	274.94
797.291	348.67
797.471	330.23
797.652	338.43
797.832	287.23
798.012	274.94
798.192	348.67
798.373	205.31
798.553	332.28
798.733	330.23
798.913	264.7
799.093	285.18
799.274	350.71
799.454	305.66
799.634	264.7
799.814	281.08
799.994	276.99
800.174	281.08
800.354	258.56
800.534	256.51
800.714	266.75
800.894	272.89
801.074	272.89
801.254	264.7
801.434	233.98
801.614	281.08
801.794	242.17
801.974	686.58
802.154	209.4
802.334	313.85
802.514	197.12
802.693	217.6
802.873	266.75
803.053	199.16
803.233	231.93
803.413	258.56
803.592	252.41
803.772	209.4
803.952	281.08
804.131	203.26
804.311	250.36
804.491	240.12
804.67	168.45
804.85	199.16
805.03	246.27
805.209	313.85
805.389	231.93
805.568	186.88
805.748	223.74
805.928	233.98
806.107	256.51
806.287	244.22
806.466	254.46
806.646	145.92
806.825	260.6
807.004	195.07
807.184	219.64
807.363	178.69
807.543	291.32
807.722	225.79
807.901	221.69
808.081	289.28
808.26	182.78
808.439	217.6
808.619	207.36
808.798	158.21
808.977	160.25
809.156	231.93
809.336	240.12
809.515	219.64
809.694	207.36
809.873	184.83
810.052	260.6
810.231	207.36
810.411	240.12
810.59	211.45
810.769	113.15
810.948	207.36
811.127	92.67
811.306	223.74
811.485	164.35
811.664	190.97
811.843	141.82
812.022	176.64
812.201	248.32
812.38	156.16
812.559	129.53
812.737	154.11
812.916	111.1
813.095	133.63
813.274	133.63
813.453	80.38
813.632	68.09
813.811	184.83
813.989	111.1
814.168	180.73
814.347	160.25
814.526	117.25
814.704	178.69
814.883	193.02
815.062	154.11
815.24	190.97
815.419	164.35
815.598	147.97
815.776	215.55
815.955	170.49
816.133	115.2
816.312	176.64
816.49	197.12
816.669	186.88
816.847	186.88
817.026	125.44
817.204	125.44
817.383	133.63
817.561	90.62
817.74	182.78
817.918	180.73
818.097	150.01
818.275	162.3
818.453	127.49
818.632	147.97
818.81	96.77
818.988	33.28
819.167	86.53
819.345	131.58
819.523	115.2
819.701	213.5
819.879	207.36
820.058	94.72
820.236	123.39
820.414	127.49
820.592	164.35
820.77	121.34
820.948	137.73
821.127	96.77
821.305	195.07
821.483	119.29
821.661	141.82
821.839	158.21
822.017	117.25
822.195	109.05
822.373	207.36
822.551	135.68
822.729	111.1
822.907	141.82
823.085	82.43
823.262	133.63
823.44	68.09
823.618	41.47
823.796	92.67
823.974	90.62
824.152	170.49
824.329	70.14
824.507	168.45
824.685	150.01
824.863	76.29
825.04	107.01
825.218	111.1
825.396	168.45
825.574	96.77
825.751	131.58
825.929	129.53
826.107	70.14
826.284	70.14
826.462	109.05
826.639	125.44
826.817	53.76
826.994	31.23
827.172	76.29
827.349	150.01
827.527	156.16
827.704	82.43
827.882	135.68
828.059	145.92
828.237	76.29
828.414	104.96
828.591	119.29
828.769	123.39
828.946	14.85
829.124	98.81
829.301	143.87
829.478	68.09
829.655	158.21
829.833	29.18
830.01	94.72
830.187	68.09
830.364	107.01
830.542	133.63
830.719	117.25
830.896	107.01
831.073	111.1
831.25	98.81
831.427	141.82
831.604	72.19
831.782	74.24
831.959	125.44
832.136	119.29
832.313	84.48
832.49	78.33
832.667	51.71
832.844	84.48
833.021	107.01
833.198	68.09
833.374	129.53
833.551	94.72
833.728	27.14
833.905	102.91
834.082	109.05
834.259	117.25
834.436	80.38
834.612	135.68
834.789	104.96
834.966	51.71
835.143	141.82
835.319	203.26
835.496	109.05
835.673	20.99
835.85	98.81
836.026	43.52
836.203	139.77
836.38	82.43
836.556	129.53
836.733	16.9
836.909	117.25
837.086	43.52
837.262	78.33
837.439	29.18
837.616	84.48
837.792	147.97
837.968	59.9
838.145	59.9
838.321	27.14
838.498	129.53
838.674	90.62
838.851	117.25
839.027	84.48
839.203	55.81
839.38	35.33
839.556	2.56
839.732	92.67
839.909	66.05
840.085	49.66
840.261	68.09
840.437	90.62
840.614	55.81
840.79	102.91
840.966	43.52
841.142	18.94
841.318	94.72
841.494	70.14
841.671	94.72
841.847	47.62
842.023	47.62
842.199	35.33
842.375	51.71
842.551	25.09
842.727	18.94
842.903	170.49
843.079	39.42
843.255	104.96
843.431	27.14
843.607	31.23
843.783	55.81
843.959	68.09
844.134	39.42
844.31	39.42
844.486	16.9
844.662	121.34
844.838	35.33
845.013	20.99
845.189	68.09
845.365	86.53
845.541	51.71
845.716	59.9
845.892	47.62
846.068	84.48
846.244	-7.68
846.419	47.62
846.595	41.47
846.77	27.14
846.946	39.42
847.122	29.18
847.297	37.38
847.473	78.33
847.648	2.56
847.824	66.05
847.999	2.56
848.175	14.85
848.35	27.14
848.526	84.48
848.701	84.48
848.876	78.33
849.052	43.52
849.227	29.18
849.403	-26.11
849.578	29.18
849.753	45.57
849.929	53.76
850.104	92.67
850.279	45.57
850.454	29.18
850.63	31.23
850.805	59.9
850.98	51.71
851.155	33.28
851.33	51.71
851.505	2.56
851.681	74.24
851.856	0.51
852.031	117.25
852.206	45.57
852.381	86.53
852.556	76.29
852.731	53.76
852.906	49.66
853.081	70.14
853.256	117.25
853.431	-13.82
853.606	8.7
853.781	94.72
853.956	-32.26
854.131	109.05
854.305	20.99
854.48	-5.63
854.655	55.81
854.83	37.38
855.005	-42.5
855.18	94.72
855.354	20.99
855.529	119.29
855.704	16.9
855.879	59.9
856.053	8.7
856.228	86.53
856.403	0.51
856.577	70.14
856.752	43.52
856.926	-26.11
857.101	117.25
857.276	29.18
857.45	70.14
857.625	43.52
857.799	4.61
857.974	78.33
858.148	-24.06
858.323	49.66
858.497	-26.11
858.672	4.61
858.846	-13.82
859.02	14.85
859.195	-19.97
859.369	76.29
859.543	-36.35
859.718	23.04
859.892	-5.63
860.066	39.42
860.241	61.95
860.415	74.24
860.589	-3.58
860.763	88.57
860.938	-28.16
861.112	74.24
861.286	4.61
861.46	47.62
861.634	74.24
861.808	45.57
861.982	-19.97
862.157	39.42
862.331	12.8
862.505	-28.16
862.679	29.18
862.853	-15.87
863.027	-13.82
863.201	74.24
863.375	-28.16
863.549	-7.68
863.722	47.62
863.896	-28.16
864.07	47.62
864.244	29.18
864.418	18.94
864.592	53.76
864.766	20.99
864.939	10.75
865.113	-9.73
865.287	109.05
865.461	18.94
865.634	70.14
865.808	-28.16
865.982	29.18
866.156	35.33
866.329	14.85
866.503	80.38
866.676	39.42
866.85	12.8
867.024	-1.54
867.197	43.52
867.371	111.1
867.544	53.76
867.718	-13.82
867.891	-42.5
868.065	-22.02
868.238	29.18
868.412	43.52
868.585	45.57
868.759	29.18
868.932	0.51
869.105	35.33
869.279	27.14
869.452	-52.74
869.625	16.9
869.799	35.33
869.972	-58.88
870.145	70.14
870.319	-22.02
870.492	-32.26
870.665	-3.58
870.838	74.24
871.011	35.33
871.185	59.9
871.358	82.43
871.531	6.66
871.704	25.09
871.877	47.62
872.05	-17.92
872.223	74.24
872.396	59.9
872.569	33.28
872.742	-26.11
872.915	6.66
873.088	-32.26
873.261	27.14
873.434	18.94
873.607	37.38
873.78	92.67
873.953	64
874.126	55.81
874.299	61.95
874.471	18.94
874.644	84.48
874.817	18.94
874.99	133.63
875.163	51.71
875.335	107.01
875.508	53.76
875.681	78.33
875.853	12.8
876.026	33.28
876.199	80.38
876.371	-11.78
876.544	6.66
876.717	35.33
876.889	-22.02
877.062	53.76
877.234	23.04
877.407	70.14
877.579	18.94
877.752	37.38
877.924	104.96
878.097	35.33
878.269	55.81
878.442	53.76
878.614	-30.21
878.786	0.51
878.959	68.09
879.131	20.99
879.303	-44.54
879.476	23.04
879.648	39.42
879.82	-36.35
879.993	12.8
880.165	-28.16
880.337	-36.35
880.509	70.14
880.681	8.7
880.854	-26.11
881.026	14.85
881.198	117.25
881.37	-40.45
881.542	-30.21
881.714	-32.26
881.886	-75.26
882.058	12.8
882.23	37.38
882.402	-13.82
882.574	57.86
882.746	64
882.918	18.94
883.09	-15.87
883.262	31.23
883.434	59.9
883.606	-46.59
883.778	-3.58
883.95	102.91
884.122	27.14
884.293	33.28
884.465	-19.97
884.637	31.23
884.809	-26.11
884.98	109.05
885.152	41.47
885.324	27.14
885.496	33.28
885.667	10.75
885.839	70.14
886.011	-24.06
886.182	10.75
886.354	23.04
886.525	47.62
886.697	29.18
886.869	53.76
887.04	92.67
887.212	51.71
887.383	78.33
887.555	20.99
887.726	61.95
887.897	-13.82
888.069	64
888.24	-11.78
888.412	92.67
888.583	49.66
888.754	96.77
888.926	-13.82
889.097	10.75
889.268	-56.83
889.44	39.42
889.611	-87.55
889.782	53.76
889.953	53.76
890.125	125.44
890.296	-15.87
890.467	51.71
890.638	-9.73
890.809	-42.5
890.98	-13.82
891.151	35.33
891.323	76.29
891.494	55.81
891.665	70.14
891.836	-3.58
892.007	-7.68
892.178	12.8
892.349	39.42
892.52	53.76
892.691	14.85
892.862	29.18
893.032	-11.78
893.203	-19.97
893.374	113.15
893.545	45.57
893.716	29.18
893.887	14.85
894.057	29.18
894.228	111.1
894.399	16.9
894.57	47.62
894.74	20.99
894.911	43.52
895.082	6.66
895.253	33.28
895.423	-17.92
895.594	61.95
895.764	70.14
895.935	-9.73
896.106	29.18
896.276	45.57
896.447	70.14
896.617	4.61
896.788	37.38
896.958	47.62
897.129	94.72
897.299	43.52
897.47	-11.78
897.64	96.77
897.81	-3.58
897.981	-42.5
898.151	45.57
898.322	29.18
898.492	59.9
898.662	57.86
898.832	-1.54
899.003	18.94
899.173	-52.74
899.343	20.99
899.513	16.9
