Data from USB4F104151__46__13-11-15-181.txt Node

Date: Fri Mar 14 13:11:15 EDT 2025
User: louis
Spectrometer: USB4F10415
Trigger mode: 4
Integration Time (sec): 2.000000E-2
Scans to average: 1
Electric dark correction enabled: true
Nonlinearity correction enabled: false
Boxcar width: 0
XAxis mode: Wavelengths
Number of Pixels in Spectrum: 3648
>>>>>Begin Spectral Data<<<<<
178.204	-86.7
178.424	-86.7
178.644	-86.7
178.864	-107.18
179.084	-105.13
179.304	30.04
179.524	-12.97
179.744	-33.45
179.964	68.95
180.184	-82.6
180.404	-0.68
180.624	-17.07
180.844	23.89
181.064	52.56
181.283	-0.68
181.503	-66.22
181.723	38.23
181.943	7.51
182.163	40.28
182.383	27.99
182.602	23.89
182.822	46.42
183.042	27.99
183.262	-35.5
183.482	-35.5
183.701	13.65
183.921	-2.73
184.141	-51.88
184.361	-23.21
184.58	9.56
184.8	-19.11
185.02	17.75
185.239	-17.07
185.459	52.56
185.679	89.43
185.898	-19.11
186.118	15.7
186.338	30.04
186.557	-6.83
186.777	-0.68
186.997	9.56
187.216	17.75
187.436	-2.73
187.655	15.7
187.875	46.42
188.095	5.46
188.314	1.37
188.534	68.95
188.753	15.7
188.973	5.46
189.192	114
189.412	7.51
189.631	5.46
189.851	-17.07
190.07	5.46
190.29	1.37
190.509	30.04
190.729	42.32
190.948	25.94
191.168	54.61
191.387	56.66
191.607	-4.78
191.826	34.13
192.045	42.32
192.265	-43.69
192.484	38.23
192.704	36.18
192.923	-37.55
193.142	50.52
193.362	46.42
193.581	87.38
193.8	58.71
194.02	7.51
194.239	-8.87
194.458	32.08
194.678	48.47
194.897	42.32
195.116	38.23
195.335	17.75
195.555	-31.4
195.774	44.37
195.993	46.42
196.212	32.08
196.432	19.8
196.651	13.65
196.87	-35.5
197.089	25.94
197.308	19.8
197.528	124.24
197.747	-31.4
197.966	38.23
198.185	48.47
198.404	17.75
198.623	-4.78
198.842	62.8
199.062	34.13
199.281	34.13
199.5	-2.73
199.719	-12.97
199.938	48.47
200.157	44.37
200.376	-15.02
200.595	30.04
200.814	-37.55
201.033	60.76
201.252	32.08
201.471	-19.11
201.69	-10.92
201.909	-17.07
202.128	25.94
202.347	-0.68
202.566	-23.21
202.785	-74.41
203.004	27.99
203.223	54.61
203.442	1.37
203.661	30.04
203.879	27.99
204.098	-25.26
204.317	-64.17
204.536	38.23
204.755	58.71
204.974	30.04
205.193	30.04
205.411	89.43
205.63	32.08
205.849	-25.26
206.068	44.37
206.287	68.95
206.505	15.7
206.724	46.42
206.943	-47.79
207.162	5.46
207.381	34.13
207.599	30.04
207.818	64.85
208.037	-49.83
208.255	15.7
208.474	46.42
208.693	42.32
208.911	13.65
209.13	44.37
209.349	32.08
209.567	-19.11
209.786	95.57
210.005	52.56
210.223	-21.16
210.442	5.46
210.661	-0.68
210.879	1.37
211.098	-29.35
211.316	71
211.535	17.75
211.753	-15.02
211.972	15.7
212.191	11.61
212.409	3.41
212.628	109.91
212.846	-37.55
213.065	15.7
213.283	81.24
213.502	-21.16
213.72	52.56
213.938	30.04
214.157	71
214.375	34.13
214.594	-8.87
214.812	50.52
215.031	50.52
215.249	-0.68
215.467	34.13
215.686	30.04
215.904	52.56
216.122	9.56
216.341	85.33
216.559	-12.97
216.778	17.75
216.996	1.37
217.214	36.18
217.432	15.7
217.651	-19.11
217.869	9.56
218.087	21.84
218.306	32.08
218.524	-2.73
218.742	-2.73
218.96	30.04
219.179	5.46
219.397	91.48
219.615	25.94
219.833	23.89
220.051	-17.07
220.27	75.09
220.488	3.41
220.706	66.9
220.924	-23.21
221.142	30.04
221.36	-15.02
221.578	-33.45
221.796	32.08
222.015	81.24
222.233	19.8
222.451	44.37
222.669	-49.83
222.887	27.99
223.105	-74.41
223.323	1.37
223.541	-101.03
223.759	-6.83
223.977	54.61
224.195	42.32
224.413	9.56
224.631	60.76
224.849	34.13
225.067	87.38
225.285	-2.73
225.503	5.46
225.721	-88.75
225.939	17.75
226.157	75.09
226.375	81.24
226.592	-58.03
226.81	-27.31
227.028	42.32
227.246	13.65
227.464	-4.78
227.682	89.43
227.9	34.13
228.117	32.08
228.335	42.32
228.553	54.61
228.771	79.19
228.989	36.18
229.206	13.65
229.424	-80.55
229.642	64.85
229.86	15.7
230.077	46.42
230.295	7.51
230.513	42.32
230.731	-2.73
230.948	17.75
231.166	152.91
231.384	56.66
231.601	30.04
231.819	34.13
232.037	23.89
232.254	-0.68
232.472	-49.83
232.689	-10.92
232.907	83.28
233.125	5.46
233.342	5.46
233.56	-35.5
233.777	62.8
233.995	5.46
234.213	34.13
234.43	60.76
234.648	7.51
234.865	15.7
235.083	62.8
235.3	-17.07
235.518	32.08
235.735	95.57
235.953	3.41
236.17	30.04
236.388	36.18
236.605	1.37
236.822	81.24
237.04	50.52
237.257	-4.78
237.475	52.56
237.692	-37.55
237.909	34.13
238.127	73.04
238.344	-31.4
238.562	44.37
238.779	-17.07
238.996	-43.69
239.214	-2.73
239.431	32.08
239.648	21.84
239.865	-19.11
240.083	75.09
240.3	81.24
240.517	-39.59
240.735	50.52
240.952	-29.35
241.169	50.52
241.386	54.61
241.603	3.41
241.821	-66.22
242.038	48.47
242.255	-23.21
242.472	-35.5
242.689	44.37
242.907	19.8
243.124	42.32
243.341	-6.83
243.558	62.8
243.775	-0.68
243.992	-27.31
244.209	34.13
244.426	-35.5
244.643	56.66
244.86	99.67
245.078	40.28
245.295	32.08
245.512	32.08
245.729	-43.69
245.946	13.65
246.163	3.41
246.38	46.42
246.597	64.85
246.814	21.84
247.031	-23.21
247.248	48.47
247.464	30.04
247.681	71
247.898	52.56
248.115	11.61
248.332	-21.16
248.549	38.23
248.766	89.43
248.983	11.61
249.2	-31.4
249.417	40.28
249.633	11.61
249.85	-19.11
250.067	17.75
250.284	50.52
250.501	34.13
250.717	44.37
250.934	-23.21
251.151	32.08
251.368	56.66
251.585	-6.83
251.801	-60.07
252.018	25.94
252.235	15.7
252.451	1.37
252.668	-17.07
252.885	-0.68
253.102	71
253.318	32.08
253.535	-51.88
253.752	-29.35
253.968	27.99
254.185	7.51
254.401	34.13
254.618	-19.11
254.835	3.41
255.051	87.38
255.268	27.99
255.484	56.66
255.701	25.94
255.917	40.28
256.134	-21.16
256.351	21.84
256.567	-43.69
256.784	13.65
257	32.08
257.217	27.99
257.433	9.56
257.65	58.71
257.866	36.18
258.082	3.41
258.299	-35.5
258.515	42.32
258.732	-72.36
258.948	-2.73
259.165	-27.31
259.381	30.04
259.597	-23.21
259.814	15.7
260.03	30.04
260.246	64.85
260.463	54.61
260.679	34.13
260.895	9.56
261.112	-27.31
261.328	-6.83
261.544	56.66
261.761	75.09
261.977	42.32
262.193	-35.5
262.409	25.94
262.626	-4.78
262.842	21.84
263.058	27.99
263.274	-17.07
263.49	-8.87
263.707	-35.5
263.923	17.75
264.139	-47.79
264.355	48.47
264.571	30.04
264.787	48.47
265.004	105.81
265.22	-2.73
265.436	46.42
265.652	11.61
265.868	-8.87
266.084	21.84
266.3	21.84
266.516	30.04
266.732	62.8
266.948	111.96
267.164	48.47
267.38	11.61
267.596	-12.97
267.812	17.75
268.028	23.89
268.244	3.41
268.46	15.7
268.676	5.46
268.892	7.51
269.108	-15.02
269.324	-0.68
269.54	25.94
269.756	21.84
269.972	34.13
270.188	36.18
270.403	7.51
270.619	-6.83
270.835	60.76
271.051	54.61
271.267	-21.16
271.483	-58.03
271.698	-49.83
271.914	34.13
272.13	5.46
272.346	-10.92
272.562	73.04
272.777	3.41
272.993	9.56
273.209	-23.21
273.425	23.89
273.64	54.61
273.856	-39.59
274.072	-10.92
274.287	-12.97
274.503	97.62
274.719	-17.07
274.934	30.04
275.15	3.41
275.366	-35.5
275.581	42.32
275.797	-17.07
276.012	36.18
276.228	-19.11
276.444	-51.88
276.659	71
276.875	5.46
277.09	-17.07
277.306	66.9
277.521	19.8
277.737	36.18
277.952	-35.5
278.168	-12.97
278.383	-2.73
278.599	-4.78
278.814	48.47
279.03	-27.31
279.245	-12.97
279.461	-17.07
279.676	3.41
279.892	56.66
280.107	34.13
280.322	-86.7
280.538	52.56
280.753	5.46
280.969	83.28
281.184	9.56
281.399	30.04
281.615	-8.87
281.83	19.8
282.045	-53.93
282.26	-58.03
282.476	-37.55
282.691	21.84
282.906	5.46
283.122	25.94
283.337	-2.73
283.552	85.33
283.767	68.95
283.983	81.24
284.198	5.46
284.413	68.95
284.628	15.7
284.843	17.75
285.058	79.19
285.274	5.46
285.489	-0.68
285.704	40.28
285.919	46.42
286.134	9.56
286.349	62.8
286.564	95.57
286.779	48.47
286.995	13.65
287.21	-37.55
287.425	71
287.64	30.04
287.855	44.37
288.07	15.7
288.285	15.7
288.5	71
288.715	-19.11
288.93	-29.35
289.145	73.04
289.36	-58.03
289.575	25.94
289.79	-6.83
290.004	-41.64
290.219	71
290.434	7.51
290.649	-15.02
290.864	-33.45
291.079	15.7
291.294	58.71
291.509	56.66
291.724	5.46
291.938	13.65
292.153	-8.87
292.368	9.56
292.583	7.51
292.798	62.8
293.012	19.8
293.227	-10.92
293.442	19.8
293.657	46.42
293.871	-8.87
294.086	5.46
294.301	60.76
294.516	-19.11
294.73	62.8
294.945	50.52
295.16	-27.31
295.374	32.08
295.589	-0.68
295.804	17.75
296.018	-0.68
296.233	89.43
296.447	85.33
296.662	21.84
296.877	77.14
297.091	17.75
297.306	71
297.52	-15.02
297.735	-31.4
297.949	79.19
298.164	-53.93
298.378	-31.4
298.593	34.13
298.807	71
299.022	46.42
299.236	44.37
299.451	7.51
299.665	23.89
299.88	30.04
300.094	-33.45
300.309	73.04
300.523	38.23
300.737	-12.97
300.952	77.14
301.166	52.56
301.381	-2.73
301.595	-29.35
301.809	42.32
302.024	23.89
302.238	-53.93
302.452	-10.92
302.667	15.7
302.881	142.68
303.095	21.84
303.309	124.24
303.524	1.37
303.738	85.33
303.952	27.99
304.166	38.23
304.381	-66.22
304.595	21.84
304.809	-39.59
305.023	62.8
305.237	48.47
305.452	75.09
305.666	52.56
305.88	-10.92
306.094	3.41
306.308	17.75
306.522	3.41
306.736	7.51
306.95	-35.5
307.164	-33.45
307.379	91.48
307.593	36.18
307.807	13.65
308.021	66.9
308.235	13.65
308.449	62.8
308.663	-29.35
308.877	134.48
309.091	38.23
309.305	46.42
309.519	32.08
309.733	30.04
309.947	81.24
310.161	-8.87
310.374	87.38
310.588	13.65
310.802	75.09
311.016	44.37
311.23	56.66
311.444	19.8
311.658	-19.11
311.872	-2.73
312.085	54.61
312.299	21.84
312.513	50.52
312.727	9.56
312.941	-12.97
313.154	38.23
313.368	-21.16
313.582	30.04
313.796	62.8
314.009	-4.78
314.223	42.32
314.437	40.28
314.651	-31.4
314.864	-6.83
315.078	-23.21
315.292	66.9
315.505	30.04
315.719	-4.78
315.933	-43.69
316.146	68.95
316.36	79.19
316.573	40.28
316.787	9.56
317.001	89.43
317.214	11.61
317.428	97.62
317.641	50.52
317.855	-19.11
318.068	-8.87
318.282	-0.68
318.495	5.46
318.709	21.84
318.922	-43.69
319.136	99.67
319.349	38.23
319.563	-60.07
319.776	17.75
319.99	-25.26
320.203	-0.68
320.417	105.81
320.63	42.32
320.843	60.76
321.057	64.85
321.27	7.51
321.483	11.61
321.697	50.52
321.91	-39.59
322.124	13.65
322.337	54.61
322.55	75.09
322.763	1.37
322.977	21.84
323.19	-29.35
323.403	-19.11
323.617	-35.5
323.83	50.52
324.043	9.56
324.256	58.71
324.469	-23.21
324.683	54.61
324.896	-4.78
325.109	17.75
325.322	-31.4
325.535	95.57
325.748	38.23
325.962	5.46
326.175	-27.31
326.388	25.94
326.601	-4.78
326.814	7.51
327.027	23.89
327.24	32.08
327.453	-33.45
327.666	21.84
327.879	62.8
328.092	52.56
328.305	11.61
328.518	19.8
328.731	-84.65
328.944	40.28
329.157	40.28
329.37	-19.11
329.583	42.32
329.796	25.94
330.009	-15.02
330.222	30.04
330.435	95.57
330.648	25.94
330.861	25.94
331.073	105.81
331.286	58.71
331.499	50.52
331.712	-37.55
331.925	-19.11
332.138	9.56
332.35	3.41
332.563	38.23
332.776	-2.73
332.989	-47.79
333.202	58.71
333.414	75.09
333.627	36.18
333.84	68.95
334.053	30.04
334.265	79.19
334.478	54.61
334.691	44.37
334.903	60.76
335.116	87.38
335.329	17.75
335.541	46.42
335.754	17.75
335.966	95.57
336.179	58.71
336.392	13.65
336.604	13.65
336.817	79.19
337.029	68.95
337.242	-6.83
337.454	-19.11
337.667	-60.07
337.88	66.9
338.092	46.42
338.305	34.13
338.517	34.13
338.729	44.37
338.942	52.56
339.154	5.46
339.367	25.94
339.579	89.43
339.792	-55.98
340.004	83.28
340.217	-19.11
340.429	64.85
340.641	-6.83
340.854	62.8
341.066	-0.68
341.278	66.9
341.491	30.04
341.703	25.94
341.915	-17.07
342.128	3.41
342.34	40.28
342.552	42.32
342.764	-2.73
342.977	66.9
343.189	5.46
343.401	23.89
343.613	42.32
343.826	-31.4
344.038	9.56
344.25	71
344.462	-2.73
344.674	-2.73
344.886	15.7
345.099	-27.31
345.311	15.7
345.523	40.28
345.735	44.37
345.947	-29.35
346.159	25.94
346.371	13.65
346.583	-23.21
346.795	42.32
347.007	118.1
347.219	93.52
347.431	-2.73
347.643	126.29
347.855	15.7
348.067	-23.21
348.279	7.51
348.491	38.23
348.703	27.99
348.915	9.56
349.127	-62.12
349.339	21.84
349.551	-10.92
349.763	56.66
349.975	32.08
350.187	75.09
350.399	71
350.61	36.18
350.822	-4.78
351.034	32.08
351.246	56.66
351.458	81.24
351.669	-15.02
351.881	-31.4
352.093	13.65
352.305	71
352.517	1.37
352.728	36.18
352.94	-10.92
353.152	34.13
353.363	-0.68
353.575	71
353.787	75.09
353.999	38.23
354.21	64.85
354.422	50.52
354.633	-37.55
354.845	19.8
355.057	52.56
355.268	-10.92
355.48	-0.68
355.692	68.95
355.903	-15.02
356.115	46.42
356.326	34.13
356.538	44.37
356.749	60.76
356.961	34.13
357.172	60.76
357.384	42.32
357.595	140.63
357.807	46.42
358.018	19.8
358.23	79.19
358.441	75.09
358.653	75.09
358.864	77.14
359.075	54.61
359.287	54.61
359.498	97.62
359.709	25.94
359.921	-55.98
360.132	-4.78
360.344	32.08
360.555	91.48
360.766	34.13
360.977	-0.68
361.189	64.85
361.4	19.8
361.611	68.95
361.823	48.47
362.034	48.47
362.245	-10.92
362.456	38.23
362.667	5.46
362.879	83.28
363.09	19.8
363.301	34.13
363.512	99.67
363.723	5.46
363.935	54.61
364.146	75.09
364.357	46.42
364.568	-33.45
364.779	30.04
364.99	48.47
365.201	-4.78
365.412	122.2
365.623	-29.35
365.834	21.84
366.045	-0.68
366.256	36.18
366.467	114
366.678	15.7
366.889	5.46
367.1	54.61
367.311	17.75
367.522	56.66
367.733	93.52
367.944	54.61
368.155	42.32
368.366	23.89
368.577	34.13
368.788	-2.73
368.999	38.23
369.209	71
369.42	13.65
369.631	89.43
369.842	58.71
370.053	-53.93
370.264	111.96
370.474	-19.11
370.685	15.7
370.896	15.7
371.107	-21.16
371.317	83.28
371.528	21.84
371.739	46.42
371.95	17.75
372.16	64.85
372.371	23.89
372.582	77.14
372.792	21.84
373.003	-19.11
373.214	30.04
373.424	79.19
373.635	36.18
373.846	71
374.056	25.94
374.267	19.8
374.477	-12.97
374.688	38.23
374.898	32.08
375.109	44.37
375.319	32.08
375.53	54.61
375.74	23.89
375.951	62.8
376.161	27.99
376.372	54.61
376.582	15.7
376.793	32.08
377.003	73.04
377.214	77.14
377.424	38.23
377.635	48.47
377.845	66.9
378.055	52.56
378.266	79.19
378.476	32.08
378.686	11.61
378.897	62.8
379.107	81.24
379.317	-23.21
379.528	-33.45
379.738	-10.92
379.948	-121.51
380.158	56.66
380.369	23.89
380.579	81.24
380.789	40.28
380.999	75.09
381.21	38.23
381.42	124.24
381.63	83.28
381.84	13.65
382.05	5.46
382.261	40.28
382.471	81.24
382.681	-4.78
382.891	77.14
383.101	109.91
383.311	25.94
383.521	71
383.731	46.42
383.941	32.08
384.151	-8.87
384.361	-41.64
384.571	54.61
384.781	17.75
384.991	50.52
385.201	40.28
385.411	77.14
385.621	-49.83
385.831	-25.26
386.041	46.42
386.251	50.52
386.461	38.23
386.671	58.71
386.881	66.9
387.091	109.91
387.301	89.43
387.511	85.33
387.72	38.23
387.93	-19.11
388.14	23.89
388.35	64.85
388.56	54.61
388.769	50.52
388.979	52.56
389.189	-27.31
389.399	66.9
389.609	64.85
389.818	75.09
390.028	40.28
390.238	91.48
390.447	58.71
390.657	30.04
390.867	13.65
391.076	13.65
391.286	77.14
391.496	5.46
391.705	-0.68
391.915	42.32
392.125	54.61
392.334	58.71
392.544	54.61
392.753	103.76
392.963	54.61
393.172	79.19
393.382	91.48
393.591	56.66
393.801	52.56
394.01	48.47
394.22	64.85
394.429	-33.45
394.639	32.08
394.848	79.19
395.058	15.7
395.267	101.72
395.477	126.29
395.686	85.33
395.895	5.46
396.105	126.29
396.314	60.76
396.524	11.61
396.733	87.38
396.942	81.24
397.152	95.57
397.361	128.34
397.57	89.43
397.78	58.71
397.989	34.13
398.198	56.66
398.407	87.38
398.617	97.62
398.826	25.94
399.035	-33.45
399.244	87.38
399.453	97.62
399.663	126.29
399.872	73.04
400.081	56.66
400.29	64.85
400.499	68.95
400.708	58.71
400.917	64.85
401.127	85.33
401.336	68.95
401.545	77.14
401.754	44.37
401.963	126.29
402.172	62.8
402.381	58.71
402.59	75.09
402.799	136.53
403.008	103.76
403.217	111.96
403.426	111.96
403.635	83.28
403.844	101.72
404.053	185.68
404.262	134.48
404.471	118.1
404.68	95.57
404.888	140.63
405.097	71
405.306	73.04
405.515	95.57
405.724	114
405.933	173.39
406.142	128.34
406.35	202.07
406.559	212.31
406.768	204.11
406.977	212.31
407.185	128.34
407.394	204.11
407.603	122.2
407.812	83.28
408.02	212.31
408.229	169.3
408.438	255.31
408.646	95.57
408.855	159.06
409.064	255.31
409.272	138.58
409.481	218.45
409.69	220.5
409.898	306.51
410.107	187.73
410.315	318.8
410.524	220.5
410.733	191.83
410.941	267.6
411.15	335.18
411.358	273.75
411.567	349.52
411.775	279.89
411.984	286.03
412.192	380.24
412.401	312.66
412.609	400.72
412.818	441.68
413.026	488.78
413.234	410.96
413.443	365.9
413.651	390.48
413.86	374.1
414.068	447.82
414.276	415.05
414.485	447.82
414.693	521.55
414.901	480.59
415.11	501.07
415.318	408.91
415.526	560.46
415.734	648.52
415.943	509.26
416.151	705.87
416.359	548.17
416.567	701.77
416.776	685.39
416.984	761.16
417.192	769.35
417.4	738.63
417.608	701.77
417.817	677.19
418.025	881.99
418.233	824.65
418.441	845.13
418.649	894.28
418.857	970.05
419.065	982.34
419.273	978.25
419.481	943.43
419.689	1066.31
419.897	1201.47
420.105	1236.29
420.313	1084.74
420.521	1217.86
420.729	1226.05
420.937	1209.67
421.145	1324.35
421.353	1396.03
421.561	1496.38
421.769	1529.15
421.977	1555.77
422.185	1514.81
422.393	1701.18
422.601	1686.84
422.809	1676.6
423.017	1793.34
423.224	1735.99
423.432	1899.83
423.64	1940.79
423.848	2065.72
424.056	2108.73
424.263	2059.57
424.471	2225.46
424.679	2231.6
424.887	2245.94
425.094	2417.97
425.302	2512.17
425.51	2549.04
425.718	2643.24
425.925	2700.59
426.133	2821.42
426.341	2776.36
426.548	2796.84
426.756	2919.72
426.964	2923.82
427.171	3155.24
427.379	3300.64
427.586	3263.78
427.794	3339.55
428.001	3585.31
428.209	3652.89
428.417	3749.15
428.624	3890.46
428.832	3876.12
429.039	4011.29
429.247	3945.75
429.454	4205.85
429.662	4513.04
429.869	4324.63
430.076	4525.33
430.284	4490.51
430.491	4619.53
430.699	4936.97
430.906	4857.1
431.114	5135.62
431.321	5158.15
431.528	5385.48
431.736	5586.18
431.943	5944.57
432.15	5688.57
432.358	5696.77
432.565	6149.37
432.772	5901.56
432.979	6214.9
433.187	6364.4
433.394	6464.75
433.601	6890.73
433.808	6855.92
434.016	6956.27
434.223	7228.65
434.43	7705.82
434.637	7535.84
434.844	7988.44
435.052	7967.96
435.259	8197.34
435.466	8234.2
435.673	8074.46
435.88	8506.58
436.087	9270.47
436.294	9041.1
436.501	8678.61
436.708	9063.63
436.915	9364.68
437.122	9774.27
437.329	9624.77
437.537	9940.16
437.743	10261.69
437.95	10169.53
438.157	10556.6
438.364	11060.4
438.571	11091.12
438.778	11111.6
438.985	12170.4
439.192	11625.64
439.399	11951.26
439.606	11728.03
439.813	12371.1
440.02	13255.82
440.227	12809.36
440.433	12723.35
440.64	13196.43
440.847	13046.93
441.054	13640.84
441.261	14259.32
441.467	14269.56
441.674	14410.87
441.881	14980.21
442.088	14781.56
442.294	14840.95
442.501	15154.29
442.708	15600.74
442.914	16290.91
443.121	16923.73
443.328	16421.98
443.534	17474.63
443.741	17128.53
443.948	16714.84
444.154	18236.48
444.361	18050.11
444.568	18183.23
444.774	18109.5
444.981	18627.64
445.187	19192.88
445.394	19926.05
445.6	19375.15
445.807	20902.93
446.013	20614.17
446.22	20929.56
446.426	21902.34
446.633	21890.06
446.839	22637.56
447.046	21634.06
447.252	22936.57
447.459	22789.11
447.665	22891.51
447.871	24005.61
448.078	24837.08
448.284	23645.16
448.491	24368.1
448.697	25404.37
448.903	25899.98
449.11	25869.26
449.316	25355.22
449.522	25908.17
449.728	26821.56
449.935	27085.75
450.141	27110.33
450.347	27841.45
450.553	26813.37
450.76	27419.57
450.966	28277.67
451.172	27687.85
451.378	28492.71
451.584	28105.64
451.791	28730.27
451.997	28527.52
452.203	29107.1
452.409	29174.68
452.615	29244.31
452.821	28199.85
453.027	27538.35
453.233	29289.37
453.44	28142.5
453.646	28484.51
453.852	28548
454.058	29107.1
454.264	27855.79
454.47	28855.2
454.676	28007.34
454.882	28810.14
455.088	26594.24
455.294	27278.26
455.5	27614.13
455.705	27567.02
455.911	26602.43
456.117	26368.96
456.323	25785.29
456.529	24427.49
456.735	25703.37
456.941	24933.34
457.147	24179.68
457.352	23798.76
457.558	23213.04
457.764	23663.6
457.97	22920.18
458.176	22678.52
458.381	22658.04
458.587	21476.37
458.793	21621.77
458.999	20464.67
459.204	21937.16
459.41	21249.04
459.616	20096.03
459.821	19792.94
460.027	20118.56
460.233	19504.17
460.438	18469.95
460.644	18689.08
460.85	17759.3
461.055	17495.11
461.261	17556.55
461.466	16135.26
461.672	15977.57
461.878	16983.12
462.083	15725.67
462.289	15242.35
462.494	15146.09
462.7	14541.94
462.905	14218.36
463.111	14689.4
463.316	14824.56
463.522	14503.03
463.727	14388.35
463.932	14441.59
464.138	14363.77
464.343	14271.61
464.549	13845.63
464.754	14457.98
464.959	14304.38
465.165	14244.99
465.37	13546.63
465.575	13061.26
465.781	13675.65
465.986	13608.07
466.191	13325.45
466.397	13151.37
466.602	12123.29
466.807	12938.38
467.012	13018.25
467.218	12991.63
467.423	12539.03
467.628	12670.1
467.833	13325.45
468.038	12700.82
468.244	12536.98
468.449	13151.37
468.654	12385.43
468.859	12412.06
469.064	12315.8
469.269	11750.56
469.474	11926.69
469.679	12254.36
469.885	11752.61
470.09	12000.41
470.295	11965.6
470.5	11664.55
470.705	11801.76
470.91	11547.81
471.115	11441.32
471.32	11594.92
471.525	11357.35
471.73	11177.13
471.935	11240.62
472.139	10892.46
472.344	10919.09
472.549	10810.54
472.754	10785.97
472.959	10568.88
473.164	10192.06
473.369	10083.52
473.574	10615.99
473.778	10478.77
473.983	10437.81
474.188	10546.36
474.393	9987.26
474.598	9852.09
474.802	9917.63
475.007	9696.45
475.212	9690.31
475.417	9272.52
475.621	9311.43
475.826	9376.97
476.031	9123.02
476.235	9012.43
476.44	9374.92
476.645	9020.62
476.849	9041.1
477.054	8905.93
477.259	8840.4
477.463	8838.35
477.668	8527.06
477.872	8969.42
478.077	8631.51
478.282	8326.36
478.486	8260.82
478.691	8148.18
478.895	8307.93
479.1	8109.27
479.304	8082.65
479.509	8150.23
479.713	8019.16
479.918	7959.77
480.122	7597.28
480.326	7961.82
480.531	7734.5
480.735	7754.97
480.94	7535.84
481.144	7976.16
481.348	7554.27
481.553	7910.62
481.757	7531.75
481.961	7623.9
482.166	7716.06
482.37	7458.02
482.574	7519.46
482.778	7644.38
482.983	7666.91
483.187	7709.92
483.391	7572.71
483.595	7587.04
483.8	7558.37
484.004	7593.19
484.208	7597.28
484.412	7572.71
484.616	7496.93
484.821	7546.08
485.025	7447.78
485.229	7482.6
485.433	7501.03
485.637	7527.65
485.841	7228.65
486.045	7515.36
486.249	7546.08
486.453	7492.83
486.657	7451.88
486.861	7478.5
487.065	7359.72
487.269	7441.64
487.473	7425.25
487.677	7578.85
487.881	7517.41
488.085	7636.19
488.289	7488.74
488.493	7546.08
488.697	7568.61
488.901	7681.25
489.105	7632.1
489.309	7771.36
489.512	7619.81
489.716	7531.75
489.92	7611.62
490.124	7636.19
490.328	7771.36
490.531	7609.57
490.735	7677.15
490.939	7806.17
491.143	7683.3
491.346	7771.36
491.55	7761.12
491.754	7982.3
491.958	7738.59
492.161	7955.68
492.365	8049.88
492.569	8008.92
492.772	7898.33
492.976	8041.69
493.18	7918.81
493.383	8297.69
493.587	8352.98
493.79	8123.61
493.994	8129.75
494.197	8316.12
494.401	8395.99
494.605	8449.24
494.808	8498.39
495.012	8518.87
495.215	8561.87
495.419	8629.46
495.622	8740.05
495.825	8740.05
496.029	8641.75
496.232	8795.34
496.436	8977.61
496.639	9051.34
496.843	8836.3
497.046	9301.19
497.249	9419.97
497.453	9483.46
497.656	9487.56
497.859	9518.28
498.063	9708.74
498.266	9864.38
498.469	9751.74
498.673	9737.41
498.876	9950.4
499.079	10165.43
499.282	10351.8
499.485	10384.57
499.689	10390.71
499.892	10550.45
500.095	10403
500.298	10828.98
500.501	10667.19
500.705	11136.17
500.908	11168.94
501.111	11371.69
501.314	11474.09
501.517	11551.91
501.72	11711.65
501.923	11615.4
502.126	11961.5
502.329	11836.58
502.532	12145.82
502.735	12205.21
502.938	12459.16
503.141	12549.27
503.344	12598.42
503.547	12596.37
503.75	12952.72
503.953	13178
504.156	13339.79
504.359	13364.36
504.562	13474.95
504.765	13462.66
504.968	13786.24
505.17	14062.72
505.373	13972.61
505.576	14259.32
505.779	14498.94
505.982	14449.78
506.185	14933.11
506.387	14685.3
506.59	14924.91
506.793	15103.09
506.996	15346.8
507.198	15725.67
507.401	15676.52
507.604	15854.69
507.807	16127.07
508.009	16325.72
508.212	16297.05
508.415	16645.21
508.617	16821.33
508.82	16766.04
509.022	16831.57
509.225	17347.66
509.428	17232.97
509.63	17380.43
509.833	17570.89
510.035	17861.7
510.238	18119.74
510.44	18107.46
510.643	18392.12
510.845	18627.64
511.048	18504.76
511.25	18992.18
511.453	18990.13
511.655	19713.06
511.858	19518.51
512.06	19776.55
512.262	19856.42
512.465	19919.91
512.667	20139.04
512.87	20352.03
513.072	20436
513.274	20890.65
513.477	20788.25
513.679	21267.47
513.881	21431.31
514.084	21857.29
514.286	21818.38
514.488	21799.94
514.69	22596.6
514.893	22338.56
515.095	22782.97
515.297	22651.9
515.499	22762.49
515.701	23405.55
515.904	23378.93
516.106	23626.73
516.308	23987.18
516.51	24249.32
516.712	24251.36
516.914	24519.65
517.116	24710.11
517.318	24941.53
517.52	25291.73
517.722	25138.13
517.925	25512.91
518.127	25957.32
518.329	25945.03
518.531	26026.95
518.733	26534.85
518.935	26659.77
519.136	26792.89
519.338	26989.5
519.54	27108.28
519.742	28060.59
519.944	27872.17
520.146	27775.92
520.348	28117.93
520.55	28267.43
520.752	28558.24
520.954	28869.53
521.155	29092.76
521.357	29305.75
521.559	29600.66
521.761	30051.21
521.963	30094.22
522.164	30483.33
522.366	30382.98
522.568	30432.13
522.77	30724.99
522.971	31292.28
523.173	31140.73
523.375	31335.29
523.576	31286.14
523.778	31513.46
523.98	31865.71
524.181	31984.49
524.383	32217.96
524.584	32576.36
524.786	32295.78
524.988	32205.67
525.189	32953.18
525.391	33215.32
525.592	33211.23
525.794	33448.79
525.995	33422.17
526.197	33518.42
526.398	33952.59
526.6	33835.86
526.801	34054.99
527.003	34378.57
527.204	34063.18
527.406	34569.03
527.607	34462.54
527.808	34591.56
528.01	34327.37
528.211	34853.7
528.412	35240.76
528.614	35035.97
528.815	35408.7
529.016	35662.65
529.218	35179.32
529.419	35470.14
529.62	35578.68
529.822	35810.1
530.023	35324.73
530.224	35605.3
530.425	36086.57
530.626	35318.59
530.828	35625.78
531.029	36428.59
531.23	35990.32
531.431	35877.68
531.632	36234.03
531.833	36277.04
532.035	35937.07
532.236	36168.49
532.437	36344.62
532.638	36188.97
532.839	36418.35
533.04	36365.1
533.241	36817.7
533.442	36934.43
533.643	36428.59
533.844	36664.1
534.045	37006.11
534.246	36086.57
534.447	36610.85
534.648	36389.67
534.849	36477.74
535.05	36655.91
535.251	36901.67
535.451	36432.68
535.652	36844.32
535.853	36823.84
536.054	36850.47
536.255	37030.69
536.456	36473.64
536.657	36692.77
536.857	36750.12
537.058	36756.26
537.259	36913.95
537.46	36905.76
537.66	36803.36
537.861	36680.49
538.062	36737.83
538.263	36731.68
538.463	36598.57
538.664	36655.91
538.865	36653.86
539.065	37327.64
539.266	36592.42
539.466	37321.5
539.667	36559.66
539.868	37274.4
540.068	36932.39
540.269	36395.82
540.469	36918.05
540.67	36633.38
540.87	36907.81
541.071	36608.81
541.271	36918.05
541.472	36635.43
541.672	36328.24
541.873	36852.51
542.073	36234.03
542.274	37114.65
542.474	36422.44
542.675	36315.95
542.875	37059.36
543.075	36395.82
543.276	36207.4
543.476	37059.36
543.676	36256.56
543.877	36604.71
544.077	36655.91
544.277	36635.43
544.478	36512.55
544.678	36948.77
544.878	36303.66
545.078	36588.33
545.279	36299.56
545.479	36051.76
545.679	36805.41
545.879	36707.11
546.079	36395.82
546.28	36365.1
546.48	36340.52
546.68	36854.56
546.88	36545.32
547.08	36563.75
547.28	36387.63
547.48	36522.79
547.68	36516.65
547.88	36100.91
548.081	36643.62
548.281	36670.25
548.481	36119.34
548.681	36680.49
548.881	36520.74
549.081	36367.15
549.28	35955.5
549.48	36404.01
549.68	36127.53
549.88	36840.23
550.08	36127.53
550.28	36377.39
550.48	36434.73
550.68	36717.35
550.88	36145.97
551.08	36074.29
551.279	36297.52
551.479	35879.73
551.679	36447.02
551.879	36055.86
552.079	36539.18
552.278	36166.45
552.478	36338.47
552.678	36180.78
552.878	36512.55
553.077	36139.82
553.277	35738.42
553.477	36688.68
553.676	36080.43
553.876	36162.35
554.076	35930.93
554.275	35963.7
554.475	35623.73
554.674	35896.11
554.874	36078.38
555.074	35777.33
555.273	36000.56
555.473	36447.02
555.672	35908.4
555.872	35674.93
556.071	35550.01
556.271	35816.24
556.47	35597.11
556.67	35255.1
556.869	35623.73
557.068	35646.26
557.268	35152.7
557.467	35461.94
557.667	35420.98
557.866	35251
558.065	35193.66
558.265	35093.31
558.464	35156.8
558.663	35707.7
558.863	35142.46
559.062	35443.51
559.261	34792.26
559.461	35441.46
559.66	34804.55
559.859	35234.62
560.058	34759.49
560.258	34941.76
560.457	34661.19
560.656	35021.63
560.855	34310.99
561.054	34751.3
561.253	34634.56
561.453	34454.34
561.652	34427.72
561.851	34859.84
562.05	34726.72
562.249	34292.55
562.448	34775.87
562.647	33993.55
562.846	34122.57
563.045	34243.4
563.244	33688.4
563.443	34173.77
563.642	33725.27
563.841	33833.81
564.04	33844.05
564.239	33903.44
564.438	33121.12
564.637	33592.15
564.836	33641.3
565.035	33131.36
565.234	33450.84
565.432	33370.97
565.631	33270.62
565.83	33239.9
566.029	33100.64
566.228	33217.37
566.427	33080.16
566.625	32826.21
566.824	32670.56
567.023	33200.99
567.222	32228.2
567.42	33289.05
567.619	32744.29
567.818	32287.59
568.016	32379.75
568.215	32531.3
568.414	32492.39
568.612	32306.02
568.811	32267.11
569.01	32113.52
569.208	32054.12
569.407	31994.73
569.605	31650.67
569.804	31937.39
570.002	31462.26
570.201	31789.94
570.4	31566.71
570.598	31329.14
570.797	31064.96
570.995	31329.14
571.193	31069.05
571.392	31574.9
571.59	30899.07
571.789	31161.21
571.987	31005.56
572.186	30692.22
572.384	30792.58
572.582	31107.96
572.781	30974.84
572.979	30583.68
573.177	30598.02
573.376	30434.18
573.574	29973.39
573.772	30305.16
573.971	30206.86
574.169	29942.67
574.367	29879.18
574.565	29946.76
574.763	30126.99
574.962	29801.36
575.16	29686.67
575.358	29834.13
575.556	29451.16
575.754	29490.07
575.952	29303.7
576.151	29381.53
576.349	29467.54
576.547	29115.29
576.745	28951.45
576.943	28869.53
577.141	29160.34
577.339	29037.47
577.537	28658.59
577.735	28996.51
577.933	28435.36
578.131	28582.82
578.329	28621.73
578.527	28294.05
578.725	28249
578.923	28494.75
579.121	27880.36
579.319	28103.59
579.516	28408.74
579.714	28224.42
579.912	27898.8
580.11	27734.96
580.308	28148.65
580.506	27810.73
580.704	27376.56
580.901	27564.98
581.099	28074.92
581.297	27237.3
581.495	27175.86
581.692	27591.6
581.89	27268.02
582.088	27415.47
582.285	27356.08
582.483	27259.83
582.681	26997.69
582.878	26805.18
583.076	26614.72
583.274	26776.51
583.471	26493.89
583.669	26831.8
583.866	26457.03
584.064	26651.58
584.262	25926.6
584.459	26323.91
584.657	26260.42
584.854	26500.03
585.052	25748.43
585.249	26225.61
585.447	25910.22
585.644	25865.16
585.841	25885.64
586.039	26190.79
586.236	25801.68
586.434	25975.75
586.631	25396.18
586.828	25629.65
587.026	25877.45
587.223	25105.37
587.42	25435.09
587.618	25566.16
587.815	25031.64
588.012	24875.99
588.21	24972.25
588.407	25170.9
588.604	24851.42
588.801	24622.05
588.999	24851.42
589.196	24718.3
589.393	24632.29
589.59	24576.99
589.787	24468.45
589.984	24247.27
590.182	24093.67
590.379	24511.46
590.576	24296.42
590.773	24351.71
590.97	23725.04
591.167	24122.34
591.364	23852.01
591.561	23815.15
591.758	23641.07
591.955	23737.32
592.152	23837.67
592.349	23524.33
592.546	23487.47
592.743	23542.77
592.94	23194.61
593.137	23380.98
593.334	23350.26
593.531	23028.73
593.727	23380.98
593.924	23172.08
594.121	23254
594.318	23098.36
594.515	22770.68
594.712	22778.87
594.908	22746.11
595.105	22682.62
595.302	22500.35
595.499	22692.86
595.696	22361.09
595.892	22543.36
596.089	22516.73
596.286	22377.47
596.482	22209.54
596.679	22412.29
596.876	22201.35
597.072	22043.65
597.269	22062.08
597.466	21691.4
597.662	21806.09
597.859	21836.81
598.055	21787.66
598.252	21668.87
598.448	21558.28
598.645	21484.56
598.841	21283.86
599.038	21476.37
599.234	21304.34
599.431	21036.05
599.627	20947.99
599.824	21353.49
600.02	20898.84
600.217	21296.14
600.413	21021.72
600.609	20657.18
600.806	20765.72
601.002	20892.69
601.198	20708.38
601.395	20372.51
601.591	20737.05
601.787	20487.2
601.984	20245.54
602.18	20503.58
602.376	20329.5
602.572	20300.83
602.769	20173.86
602.965	19997.73
603.161	20108.32
603.357	20180
603.553	19881
603.75	20063.27
603.946	19901.48
604.142	19797.03
604.338	19610.67
604.534	19944.49
604.73	19366.96
604.926	19393.58
605.122	19784.74
605.318	19399.73
605.514	19274.8
605.71	19127.35
605.906	19389.49
606.102	19221.55
606.298	19375.15
606.494	19448.88
606.69	19090.48
606.886	18971.7
607.082	18515
607.278	19160.11
607.474	18828.34
607.67	18764.85
607.866	18799.67
608.062	18916.4
608.257	18586.68
608.453	18652.22
608.649	18852.92
608.845	18486.33
609.041	18310.21
609.236	18586.68
609.432	18226.24
609.628	18383.93
609.824	18177.09
610.019	18310.21
610.215	18132.03
610.411	18297.92
610.606	18318.4
610.802	18297.92
610.998	18226.24
611.193	17984.58
611.389	17763.4
611.584	18109.5
611.78	17794.12
611.976	17800.26
612.171	17910.85
612.367	18117.7
612.562	17873.99
612.758	17546.31
612.953	17683.53
613.149	17818.69
613.344	17650.76
613.539	17540.17
613.735	17581.13
613.93	17671.24
614.126	17318.99
614.321	17624.14
614.517	17454.15
614.712	17294.41
614.907	17366.09
615.103	17409.1
615.298	17378.38
615.493	17347.66
615.688	16968.79
615.884	17491.02
616.079	16766.04
616.274	17288.27
616.47	16985.17
616.665	17167.44
616.86	16913.49
617.055	16872.53
617.25	16913.49
617.445	17163.34
617.641	17058.9
617.836	17005.65
618.031	16790.61
618.226	16868.44
618.421	16618.58
618.616	16591.96
618.811	16364.64
619.006	16839.76
619.201	16456.79
619.396	16358.49
619.591	16446.55
619.786	16444.51
619.981	16258.14
620.176	16211.04
620.371	16065.63
620.566	16022.62
620.761	15864.93
620.956	15776.87
621.151	15967.33
621.346	15778.92
621.541	15572.07
621.735	15617.13
621.93	15481.96
622.125	15783.01
622.32	15354.99
622.515	15211.63
622.709	15244.4
622.904	15449.19
623.099	14969.97
623.294	14863.47
623.488	14984.3
623.683	14951.54
623.878	14640.25
624.072	14662.77
624.267	14709.88
624.462	14492.79
624.656	14378.11
624.851	14390.39
625.046	14474.36
625.24	14451.83
625.435	13945.98
625.629	14085.25
625.824	13993.09
626.018	14111.87
626.213	13712.52
626.407	13835.39
626.602	13808.77
626.796	13628.55
626.991	13763.72
627.185	13505.67
627.38	13266.06
627.574	13333.64
627.768	13261.96
627.963	13040.78
628.157	12967.06
628.352	13122.7
628.546	12889.23
628.74	13167.76
628.935	12768.4
629.129	12907.66
629.323	12780.69
629.517	12666
629.712	12639.38
629.906	12514.45
630.1	12354.71
630.294	12342.42
630.489	12383.38
630.683	12154.01
630.877	12436.63
631.071	12229.79
631.265	12178.59
631.459	11932.83
631.653	12043.42
631.848	11812
632.042	11818.14
632.236	11979.93
632.43	11637.92
632.624	11625.64
632.818	11760.8
633.012	11568.29
633.206	11482.28
633.4	11465.89
633.594	11314.34
633.788	11189.42
633.982	11275.43
634.176	11062.44
634.369	11130.03
634.563	11101.36
634.757	11011.25
634.951	10929.33
635.145	11115.69
635.339	10966.19
635.533	10790.06
635.726	10654.9
635.92	10538.16
636.114	10822.83
636.308	10523.83
636.501	10405.05
636.695	10665.14
636.889	10503.35
637.083	10425.53
637.276	10452.15
637.47	10212.54
637.664	10005.69
637.857	10339.51
638.051	10187.96
638.244	10075.32
638.438	9934.01
638.632	9880.77
638.825	9649.35
639.019	9804.99
639.212	9852.09
639.406	9905.34
639.599	9665.73
639.793	9618.63
639.986	9489.6
640.18	9622.72
640.373	9540.8
640.567	9387.21
640.76	9436.36
640.954	9200.84
641.147	9307.34
641.34	9139.4
641.534	9206.98
641.727	9321.67
641.92	9225.42
642.114	8961.23
642.307	9000.14
642.5	9016.52
642.694	8637.65
642.887	8891.6
643.08	8885.45
643.273	8901.84
643.467	8608.98
643.66	8475.86
643.853	8590.55
644.046	8643.79
644.239	8568.02
644.432	8479.96
644.626	8537.3
644.819	8299.73
645.012	8379.61
645.205	8332.5
645.398	8285.4
645.591	8152.28
645.784	8047.83
645.977	8299.73
646.17	8090.84
646.363	7877.85
646.556	7974.11
646.749	8068.31
646.942	8125.66
647.135	7922.91
647.328	7861.47
647.521	7808.22
647.714	7711.97
647.907	7832.8
648.099	7599.33
648.292	7767.26
648.485	7693.54
648.678	7580.9
648.871	7584.99
649.064	7521.51
649.256	7451.88
649.449	7433.44
649.642	7331.05
649.835	7357.67
650.027	7351.53
650.22	7175.4
650.413	7187.69
650.605	7027.95
650.798	7060.71
650.991	7083.24
651.183	7027.95
651.376	6939.88
651.568	6788.33
651.761	6862.06
651.954	6929.64
652.146	6737.13
652.339	6792.43
652.531	6845.68
652.724	6821.1
652.916	6636.78
653.109	6579.44
653.301	6554.87
653.494	6616.3
653.686	6550.77
653.879	6558.96
654.071	6429.94
654.263	6417.65
654.456	6489.33
654.648	6491.38
654.84	6255.86
655.033	6403.32
655.225	6251.77
655.417	6143.22
655.61	6345.97
655.802	6075.64
655.994	6100.22
656.186	6276.34
656.379	6159.61
656.571	6096.12
656.763	5932.28
656.955	5874.94
657.148	6077.69
657.34	5850.36
657.532	5729.53
657.724	5928.19
657.916	5889.28
658.108	5858.56
658.3	5733.63
658.492	5764.35
658.684	5709.05
658.876	5694.72
659.068	5567.74
659.26	5520.64
659.452	5518.59
659.644	5555.46
659.836	5500.16
660.028	5586.18
660.22	5537.02
660.412	5342.47
660.604	5405.95
660.796	5522.69
660.988	5356.8
661.18	5295.36
661.372	5293.32
661.563	5266.69
661.755	5336.32
661.947	5178.63
662.139	5260.55
662.331	5219.59
662.522	5141.77
662.714	5166.34
662.906	5168.39
663.097	5129.48
663.289	5059.85
663.481	4996.36
663.673	5154.05
663.864	4953.35
664.056	4957.45
664.247	5004.55
664.439	4797.71
664.631	4701.45
664.822	4934.92
665.014	4891.91
665.205	4756.75
665.397	4642.06
665.588	4777.23
665.78	4601.1
665.971	4758.8
666.163	4568.34
666.354	4723.98
666.546	4615.44
666.737	4652.3
666.929	4564.24
667.12	4457.75
667.311	4652.3
667.503	4478.22
667.694	4386.07
667.885	4470.03
668.077	4488.46
668.268	4338.96
668.459	4396.31
668.651	4257.04
668.842	4424.98
669.033	4242.71
669.224	4207.89
669.416	4240.66
669.607	4431.12
669.798	4377.87
669.989	4193.56
670.18	4224.28
670.371	4099.35
670.563	4230.42
670.754	4205.85
670.945	4107.54
671.136	4240.66
671.327	4011.29
671.518	4078.87
671.709	4154.65
671.9	4197.65
672.091	4085.01
672.282	4017.43
672.473	3892.51
672.664	4074.78
672.855	3962.14
673.046	3988.76
673.237	3822.88
673.428	3761.44
673.619	3855.64
673.809	3851.55
674	3904.79
674.191	3786.01
674.382	3720.48
674.573	3874.07
674.764	3829.02
674.954	3779.87
675.145	3652.89
675.336	3814.68
675.527	3685.66
675.717	3771.68
675.908	3749.15
676.099	3585.31
676.289	3630.37
676.48	3777.82
676.671	3597.6
676.861	3650.85
677.052	3601.69
677.243	3503.39
677.433	3464.48
677.624	3525.92
677.814	3417.38
678.005	3470.62
678.195	3573.02
678.386	3568.93
678.576	3534.11
678.767	3388.71
678.957	3534.11
679.148	3495.2
679.338	3474.72
679.529	3435.81
679.719	3308.83
679.909	3351.84
680.1	3411.23
680.29	3296.55
680.481	3314.98
680.671	3276.07
680.861	3302.69
681.052	3386.66
681.242	3233.06
681.432	3284.26
681.622	3253.54
681.813	3177.76
682.003	3347.75
682.193	3194.15
682.383	3188
682.573	3185.96
682.764	3247.4
682.954	3198.24
683.144	3243.3
683.334	3175.72
683.524	3093.8
683.714	3145
683.904	3095.85
684.094	3110.18
684.284	3177.76
684.474	3101.99
684.664	3071.27
684.854	3233.06
685.044	3073.32
685.234	2989.35
685.424	3061.03
685.614	3018.02
685.804	3075.37
685.994	3048.74
686.184	3022.12
686.374	3056.93
686.564	3067.17
686.753	3034.41
686.943	3077.41
687.133	3044.65
687.323	3007.78
687.513	2964.78
687.702	2983.21
687.892	3071.27
688.082	2966.82
688.272	3030.31
688.461	2866.47
688.651	3038.5
688.841	2909.48
689.03	2874.67
689.22	2848.04
689.41	2962.73
689.599	2800.94
689.789	2874.67
689.979	2845.99
690.168	2823.47
690.358	2653.48
690.547	2757.93
690.737	2774.31
690.926	2708.78
691.116	2751.79
691.305	2774.31
691.495	2698.54
691.684	2807.08
691.874	2757.93
692.063	2649.39
692.252	2796.84
692.442	2751.79
692.631	2749.74
692.82	2698.54
693.01	2606.38
693.199	2637.1
693.388	2555.18
693.578	2702.64
693.767	2665.77
693.956	2542.89
694.146	2596.14
694.335	2628.91
694.524	2635.05
694.713	2686.25
694.902	2555.18
695.092	2594.09
695.281	2633.01
695.47	2618.67
695.659	2557.23
695.848	2594.09
696.037	2579.76
696.226	2553.13
696.415	2346.29
696.604	2512.17
696.793	2503.98
696.982	2559.28
697.171	2544.94
697.36	2542.89
697.549	2401.58
697.738	2460.98
697.927	2450.74
698.116	2481.46
698.305	2401.58
698.494	2411.82
698.683	2381.1
698.872	2438.45
699.061	2489.65
699.25	2395.44
699.438	2446.64
699.627	2569.52
699.816	2401.58
700.005	2334
700.193	2463.02
700.382	2411.82
700.571	2391.34
700.76	2305.33
700.948	2405.68
701.137	2463.02
701.326	2323.76
701.514	2252.08
701.703	2385.2
701.892	2399.54
702.08	2420.02
702.269	2381.1
702.457	2352.43
702.646	2420.02
702.834	2377.01
703.023	2442.54
703.212	2315.57
703.4	2323.76
703.589	2413.87
703.777	2483.5
703.965	2344.24
704.154	2358.58
704.342	2307.38
704.531	2424.11
704.719	2319.67
704.907	2323.76
705.096	2297.14
705.284	2354.48
705.472	2381.1
705.661	2460.98
705.849	2329.91
706.037	2401.58
706.226	2442.54
706.414	2303.28
706.602	2268.47
706.79	2219.32
706.979	2301.23
707.167	2290.99
707.355	2426.16
707.543	2342.19
707.731	2258.23
707.919	2278.71
708.107	2250.03
708.296	2354.48
708.484	2284.85
708.672	2342.19
708.86	2309.43
709.048	2284.85
709.236	2334
709.424	2262.32
709.612	2334
709.8	2213.17
709.988	2354.48
710.176	2428.21
710.364	2368.82
710.551	2364.72
710.739	2383.15
710.927	2301.23
711.115	2319.67
711.303	2383.15
711.491	2438.45
711.679	2297.14
711.866	2393.39
712.054	2372.91
712.242	2391.34
712.43	2395.44
712.617	2424.11
712.805	2268.47
712.993	2268.47
713.181	2284.85
713.368	2344.24
713.556	2276.66
713.744	2217.27
713.931	2323.76
714.119	2276.66
714.306	2211.12
714.494	2176.31
714.682	2313.52
714.869	2145.59
715.057	2344.24
715.244	2194.74
715.432	2299.19
715.619	2348.34
715.807	2299.19
715.994	2278.71
716.182	2309.43
716.369	2204.98
716.556	2301.23
716.744	2282.8
716.931	2303.28
717.119	2299.19
717.306	2444.59
717.493	2374.96
717.681	2364.72
717.868	2282.8
718.055	2313.52
718.242	2348.34
718.43	2270.51
718.617	2108.73
718.804	2180.4
718.991	2299.19
719.179	2307.38
719.366	2229.56
719.553	2290.99
719.74	2184.5
719.927	2344.24
720.114	2217.27
720.301	2184.5
720.488	2159.92
720.676	2250.03
720.863	2282.8
721.05	2297.14
721.237	2184.5
721.424	2336.05
721.611	2239.8
721.798	2194.74
721.985	2184.5
722.172	2235.7
722.358	2231.6
722.545	2338.1
722.732	2129.2
722.919	2227.51
723.106	2319.67
723.293	2186.55
723.48	2307.38
723.667	2178.36
723.853	2258.23
724.04	2250.03
724.227	2276.66
724.414	2327.86
724.6	2129.2
724.787	2153.78
724.974	2383.15
725.161	2188.6
725.347	2139.44
725.534	2282.8
725.72	2168.12
725.907	2219.32
726.094	2364.72
726.28	2198.84
726.467	2311.47
726.653	2247.99
726.84	2252.08
727.027	2268.47
727.213	2217.27
727.4	2237.75
727.586	2233.65
727.773	2338.1
727.959	2202.93
728.145	2123.06
728.332	2219.32
728.518	2229.56
728.705	2194.74
728.891	2155.83
729.077	2323.76
729.264	2182.45
729.45	2247.99
729.636	2325.81
729.823	2176.31
730.009	2297.14
730.195	2204.98
730.382	2204.98
730.568	2188.6
730.754	2161.97
730.94	2340.15
731.126	2102.58
731.313	2264.37
731.499	2200.88
731.685	2190.64
731.871	2110.77
732.057	2157.88
732.243	2250.03
732.429	2202.93
732.615	2190.64
732.801	2172.21
732.987	2207.03
733.173	2161.97
733.359	2284.85
733.545	2164.02
733.731	2176.31
733.917	2190.64
734.103	2039.09
734.289	2188.6
734.475	2207.03
734.661	2225.46
734.847	2186.55
735.033	2147.64
735.219	2194.74
735.404	2166.07
735.59	2194.74
735.776	2088.25
735.962	2295.09
736.148	2139.44
736.333	2094.39
736.519	2131.25
736.705	2184.5
736.89	2151.73
737.076	2229.56
737.262	2147.64
737.447	2059.57
737.633	2106.68
737.819	2094.39
738.004	2088.25
738.19	2096.44
738.375	2012.47
738.561	2116.92
738.747	2135.35
738.932	2096.44
739.118	2073.91
739.303	2110.77
739.489	2018.61
739.674	2016.57
739.859	2067.77
740.045	1963.32
740.23	2047.29
740.416	2004.28
740.601	2055.48
740.786	2041.14
740.972	1977.66
741.157	2073.91
741.342	1994.04
741.528	2043.19
741.713	2053.43
741.898	2028.85
742.084	2055.48
742.269	1946.94
742.454	1959.22
742.639	2149.68
742.824	1914.17
743.01	1948.98
743.195	1897.78
743.38	1852.73
743.565	1873.21
743.75	2065.72
743.935	1922.36
744.12	2067.77
744.305	1807.67
744.49	1883.45
744.675	1908.02
744.86	1905.98
745.045	1883.45
745.23	1953.08
745.415	1944.89
745.6	1867.06
745.785	1854.78
745.97	1709.37
746.155	1656.12
746.34	1905.98
746.525	1889.59
746.71	1860.92
746.895	1768.76
747.079	1750.33
747.264	1826.11
747.449	1774.91
747.634	1834.3
747.819	1707.32
748.003	1801.53
748.188	1631.55
748.373	1705.28
748.557	1715.52
748.742	1598.78
748.927	1752.38
749.111	1625.4
749.296	1727.8
749.481	1568.06
749.665	1754.43
749.85	1690.94
750.034	1707.32
750.219	1547.58
750.404	1670.46
750.588	1639.74
750.773	1512.77
750.957	1635.64
751.141	1600.83
751.326	1531.2
751.51	1533.25
751.695	1514.81
751.879	1523.01
752.064	1502.53
752.248	1422.66
752.432	1537.34
752.617	1572.16
752.801	1490.24
752.985	1477.95
753.17	1533.25
753.354	1500.48
753.538	1492.29
753.722	1422.66
753.907	1527.1
754.091	1467.71
754.275	1488.19
754.459	1373.5
754.643	1320.26
754.828	1381.7
755.012	1326.4
755.196	1322.31
755.38	1316.16
755.564	1334.59
755.748	1262.91
755.932	1258.82
756.116	1318.21
756.3	1322.31
756.484	1285.44
756.668	1273.15
756.852	1258.82
757.036	1320.26
757.22	1246.53
757.404	1232.19
757.588	1152.32
757.772	1152.32
757.956	1267.01
758.14	1293.63
758.323	1058.12
758.507	1217.86
758.691	1250.63
758.875	1129.8
759.059	1189.19
759.242	1127.75
759.426	1209.67
759.61	1097.03
759.794	1174.85
759.977	1178.95
760.161	1234.24
760.345	1187.14
760.528	1111.36
760.712	1127.75
760.895	1037.64
761.079	1047.88
761.263	1064.26
761.446	1080.64
761.63	1084.74
761.813	1015.11
761.997	1027.4
762.18	1142.08
762.364	1047.88
762.547	1008.97
762.731	1125.7
762.914	1051.97
763.098	996.68
763.281	1049.93
763.464	1094.98
763.648	1066.31
763.831	1064.26
764.015	906.57
764.198	992.58
764.381	998.73
764.564	984.39
764.748	949.57
764.931	1029.45
765.114	1006.92
765.297	927.05
765.481	1002.82
765.664	1004.87
765.847	965.96
766.03	1037.64
766.213	945.48
766.397	961.86
766.58	992.58
766.763	992.58
766.946	927.05
767.129	988.49
767.312	896.33
767.495	914.76
767.678	984.39
767.861	951.62
768.044	922.95
768.227	931.14
768.41	867.66
768.593	873.8
768.776	820.55
768.959	828.74
769.142	970.05
769.324	896.33
769.507	904.52
769.69	847.18
769.873	800.07
770.056	877.9
770.239	787.79
770.421	861.51
770.604	959.81
770.787	873.8
770.97	881.99
771.152	800.07
771.335	808.26
771.518	851.27
771.7	888.14
771.883	914.76
772.066	775.5
772.248	757.07
772.431	867.66
772.613	847.18
772.796	709.96
772.978	757.07
773.161	820.55
773.343	777.55
773.526	759.11
773.708	734.54
773.891	732.49
774.073	767.31
774.256	765.26
774.438	795.98
774.621	775.5
774.803	783.69
774.985	681.29
775.168	818.5
775.35	728.39
775.532	689.48
775.715	730.44
775.897	755.02
776.079	654.67
776.261	671.05
776.444	664.91
776.626	703.82
776.808	693.58
776.99	587.08
777.173	634.19
777.355	671.05
777.537	767.31
777.719	660.81
777.901	673.1
778.083	683.34
778.265	623.95
778.447	701.77
778.629	671.05
778.811	634.19
778.993	636.24
779.175	646.48
779.357	693.58
779.539	591.18
779.721	628.04
779.903	652.62
780.085	609.61
780.267	623.95
780.449	644.43
780.631	591.18
780.812	628.04
780.994	580.94
781.176	519.5
781.358	642.38
781.54	628.04
781.721	529.74
781.903	552.27
782.085	521.55
782.267	509.26
782.448	509.26
782.63	513.36
782.812	578.89
782.993	511.31
783.175	533.84
783.357	466.25
783.538	562.51
783.72	595.28
783.901	613.71
784.083	546.12
784.264	589.13
784.446	496.97
784.627	419.15
784.809	468.3
784.99	484.69
785.172	468.3
785.353	488.78
785.535	456.01
785.716	523.6
785.897	445.77
786.079	562.51
786.26	458.06
786.441	525.65
786.623	402.77
786.804	517.45
786.985	474.45
787.167	433.49
787.348	339.28
787.529	406.86
787.71	417.1
787.891	404.82
788.073	423.25
788.254	462.16
788.435	410.96
788.616	402.77
788.797	351.57
788.978	437.58
789.159	396.62
789.34	453.97
789.522	400.72
789.703	337.23
789.884	406.86
790.065	421.2
790.246	419.15
790.427	296.27
790.607	363.86
790.788	437.58
790.969	343.38
791.15	316.75
791.331	345.42
791.512	390.48
791.693	392.53
791.874	335.18
792.054	458.06
792.235	337.23
792.416	318.8
792.597	271.7
792.778	353.62
792.958	365.9
793.139	283.98
793.32	279.89
793.5	365.9
793.681	376.14
793.862	320.85
794.042	286.03
794.223	365.9
794.404	275.79
794.584	228.69
794.765	351.57
794.945	265.55
795.126	406.86
795.306	286.03
795.487	226.64
795.667	353.62
795.848	269.65
796.028	310.61
796.209	318.8
796.389	261.46
796.57	283.98
796.75	222.55
796.93	251.22
797.111	294.22
797.291	286.03
797.471	286.03
797.652	288.08
797.832	257.36
798.012	283.98
798.192	281.94
798.373	259.41
798.553	275.79
798.733	259.41
798.913	214.35
799.093	251.22
799.274	275.79
799.454	253.27
799.634	275.79
799.814	247.12
799.994	261.46
800.174	269.65
800.354	277.84
800.534	234.83
800.714	249.17
800.894	228.69
801.074	238.93
801.254	202.07
801.434	326.99
801.614	230.74
801.794	220.5
801.974	818.5
802.154	154.96
802.334	269.65
802.514	206.16
802.693	238.93
802.873	204.11
803.053	193.87
803.233	218.45
803.413	224.59
803.592	210.26
803.772	234.83
803.952	243.03
804.131	171.35
804.311	265.55
804.491	228.69
804.67	193.87
804.85	283.98
805.03	200.02
805.209	245.07
805.389	136.53
805.568	232.79
805.748	154.96
805.928	195.92
806.107	230.74
806.287	226.64
806.466	193.87
806.646	214.35
806.825	163.15
807.004	132.44
807.184	154.96
807.363	234.83
807.543	218.45
807.722	138.58
807.901	236.88
808.081	240.98
808.26	169.3
808.439	257.36
808.619	210.26
808.798	122.2
808.977	159.06
809.156	114
809.336	128.34
809.515	220.5
809.694	187.73
809.873	159.06
810.052	193.87
810.231	210.26
810.411	195.92
810.59	116.05
810.769	159.06
810.948	152.91
811.127	179.54
811.306	99.67
811.485	140.63
811.664	179.54
811.843	189.78
812.022	157.01
812.201	140.63
812.38	204.11
812.559	140.63
812.737	122.2
812.916	23.89
813.095	107.86
813.274	197.97
813.453	136.53
813.632	150.87
813.811	167.25
813.989	120.15
814.168	128.34
814.347	148.82
814.526	206.16
814.704	111.96
814.883	144.72
815.062	77.14
815.24	187.73
815.419	140.63
815.598	62.8
815.776	58.71
815.955	218.45
816.133	89.43
816.312	75.09
816.49	259.41
816.669	111.96
816.847	181.59
817.026	226.64
817.204	66.9
817.383	134.48
817.561	87.38
817.74	103.76
817.918	124.24
818.097	163.15
818.275	111.96
818.453	124.24
818.632	173.39
818.81	159.06
818.988	30.04
819.167	140.63
819.345	120.15
819.523	114
819.701	132.44
819.879	116.05
820.058	81.24
820.236	95.57
820.414	146.77
820.592	66.9
820.77	42.32
820.948	48.47
821.127	54.61
821.305	23.89
821.483	93.52
821.661	159.06
821.839	187.73
822.017	103.76
822.195	89.43
822.373	103.76
822.551	97.62
822.729	77.14
822.907	124.24
823.085	118.1
823.262	159.06
823.44	81.24
823.618	95.57
823.796	46.42
823.974	87.38
824.152	114
824.329	73.04
824.507	81.24
824.685	81.24
824.863	91.48
825.04	144.72
825.218	87.38
825.396	32.08
825.574	87.38
825.751	83.28
825.929	68.95
826.107	95.57
826.284	52.56
826.462	66.9
826.639	71
826.817	105.81
826.994	56.66
827.172	71
827.349	111.96
827.527	58.71
827.704	111.96
827.882	50.52
828.059	111.96
828.237	60.76
828.414	161.11
828.591	25.94
828.769	17.75
828.946	27.99
829.124	99.67
829.301	64.85
829.478	75.09
829.655	132.44
829.833	64.85
830.01	62.8
830.187	79.19
830.364	44.37
830.542	54.61
830.719	169.3
830.896	109.91
831.073	124.24
831.25	140.63
831.427	163.15
831.604	73.04
831.782	5.46
831.959	56.66
832.136	64.85
832.313	83.28
832.49	46.42
832.667	103.76
832.844	62.8
833.021	54.61
833.198	118.1
833.374	140.63
833.551	91.48
833.728	44.37
833.905	42.32
834.082	87.38
834.259	15.7
834.436	111.96
834.612	23.89
834.789	99.67
834.966	91.48
835.143	54.61
835.319	54.61
835.496	87.38
835.673	-0.68
835.85	56.66
836.026	46.42
836.203	71
836.38	7.51
836.556	56.66
836.733	27.99
836.909	73.04
837.086	54.61
837.262	58.71
837.439	75.09
837.616	40.28
837.792	25.94
837.968	120.15
838.145	60.76
838.321	81.24
838.498	23.89
838.674	30.04
838.851	13.65
839.027	21.84
839.203	54.61
839.38	128.34
839.556	9.56
839.732	62.8
839.909	32.08
840.085	32.08
840.261	40.28
840.437	38.23
840.614	68.95
840.79	32.08
840.966	62.8
841.142	132.44
841.318	140.63
841.494	62.8
841.671	68.95
841.847	21.84
842.023	25.94
842.199	15.7
842.375	77.14
842.551	25.94
842.727	75.09
842.903	116.05
843.079	-37.55
843.255	48.47
843.431	15.7
843.607	79.19
843.783	5.46
843.959	21.84
844.134	46.42
844.31	93.52
844.486	23.89
844.662	-2.73
844.838	107.86
845.013	77.14
845.189	30.04
845.365	73.04
845.541	134.48
845.716	81.24
845.892	40.28
846.068	95.57
846.244	32.08
846.419	13.65
846.595	7.51
846.77	38.23
846.946	40.28
847.122	75.09
847.297	19.8
847.473	89.43
847.648	122.2
847.824	3.41
847.999	-27.31
848.175	87.38
848.35	95.57
848.526	9.56
848.701	99.67
848.876	9.56
849.052	62.8
849.227	38.23
849.403	-98.99
849.578	11.61
849.753	73.04
849.929	79.19
850.104	27.99
850.279	87.38
850.454	-0.68
850.63	95.57
850.805	38.23
850.98	81.24
851.155	3.41
851.33	5.46
851.505	64.85
851.681	-6.83
851.856	99.67
852.031	46.42
852.206	5.46
852.381	1.37
852.556	34.13
852.731	73.04
852.906	79.19
853.081	19.8
853.256	71
853.431	71
853.606	-25.26
853.781	-4.78
853.956	25.94
854.131	-10.92
854.305	89.43
854.48	60.76
854.655	-10.92
854.83	-10.92
855.005	44.37
855.18	40.28
855.354	5.46
855.529	95.57
855.704	34.13
855.879	93.52
856.053	79.19
856.228	9.56
856.403	-25.26
856.577	34.13
856.752	19.8
856.926	1.37
857.101	50.52
857.276	-31.4
857.45	-51.88
857.625	60.76
857.799	-23.21
857.974	30.04
858.148	-19.11
858.323	27.99
858.497	-15.02
858.672	-35.5
858.846	3.41
859.02	60.76
859.195	-17.07
859.369	-4.78
859.543	5.46
859.718	36.18
859.892	1.37
860.066	87.38
860.241	-10.92
860.415	48.47
860.589	30.04
860.763	-35.5
860.938	-4.78
861.112	38.23
861.286	15.7
861.46	85.33
861.634	25.94
861.808	44.37
861.982	17.75
862.157	13.65
862.331	15.7
862.505	5.46
862.679	-6.83
862.853	1.37
863.027	-41.64
863.201	38.23
863.375	-6.83
863.549	13.65
863.722	46.42
863.896	50.52
864.07	-49.83
864.244	36.18
864.418	9.56
864.592	13.65
864.766	-17.07
864.939	-23.21
865.113	-86.7
865.287	23.89
865.461	-4.78
865.634	-6.83
865.808	-58.03
865.982	15.7
866.156	-25.26
866.329	-10.92
866.503	91.48
866.676	46.42
866.85	-23.21
867.024	-4.78
867.197	71
867.371	107.86
867.544	-15.02
867.718	40.28
867.891	62.8
868.065	-8.87
868.238	30.04
868.412	-19.11
868.585	111.96
868.759	9.56
868.932	-12.97
869.105	-2.73
869.279	87.38
869.452	-10.92
869.625	-43.69
869.799	30.04
869.972	-41.64
870.145	62.8
870.319	3.41
870.492	36.18
870.665	9.56
870.838	15.7
871.011	54.61
871.185	13.65
871.358	13.65
871.531	13.65
871.704	-17.07
871.877	-4.78
872.05	-8.87
872.223	-19.11
872.396	25.94
872.569	97.62
872.742	-2.73
872.915	17.75
873.088	11.61
873.261	60.76
873.434	-35.5
873.607	38.23
873.78	27.99
873.953	7.51
874.126	-10.92
874.299	-27.31
874.471	40.28
874.644	7.51
874.817	-47.79
874.99	27.99
875.163	-27.31
875.335	9.56
875.508	1.37
875.681	32.08
875.853	15.7
876.026	62.8
876.199	-2.73
876.371	30.04
876.544	-10.92
876.717	36.18
876.889	-4.78
877.062	23.89
877.234	-84.65
877.407	21.84
877.579	-43.69
877.752	48.47
877.924	-35.5
878.097	1.37
878.269	-8.87
878.442	-6.83
878.614	34.13
878.786	-27.31
878.959	-41.64
879.131	-25.26
879.303	5.46
879.476	79.19
879.648	-2.73
879.82	-23.21
879.993	-10.92
880.165	-60.07
880.337	-33.45
880.509	46.42
880.681	30.04
880.854	38.23
881.026	-35.5
881.198	101.72
881.37	68.95
881.542	15.7
881.714	38.23
881.886	21.84
882.058	-31.4
882.23	-6.83
882.402	-88.75
882.574	5.46
882.746	56.66
882.918	42.32
883.09	9.56
883.262	81.24
883.434	7.51
883.606	-21.16
883.778	21.84
883.95	34.13
884.122	-55.98
884.293	11.61
884.465	40.28
884.637	21.84
884.809	-62.12
884.98	-19.11
885.152	-35.5
885.324	42.32
885.496	-55.98
885.667	23.89
885.839	-37.55
886.011	64.85
886.182	-17.07
886.354	-19.11
886.525	15.7
886.697	17.75
886.869	-74.41
887.04	-8.87
887.212	19.8
887.383	13.65
887.555	11.61
887.726	56.66
887.897	-55.98
888.069	-8.87
888.24	7.51
888.412	75.09
888.583	-37.55
888.754	-2.73
888.926	27.99
889.097	64.85
889.268	-29.35
889.44	-27.31
889.611	-2.73
889.782	27.99
889.953	38.23
890.125	38.23
890.296	-41.64
890.467	-76.46
890.638	1.37
890.809	50.52
890.98	21.84
891.151	40.28
891.323	-0.68
891.494	36.18
891.665	-6.83
891.836	77.14
892.007	34.13
892.178	-19.11
892.349	-45.74
892.52	-2.73
892.691	-12.97
892.862	-8.87
893.032	7.51
893.203	-105.13
893.374	-0.68
893.545	-2.73
893.716	-66.22
893.887	-43.69
894.057	23.89
894.228	-60.07
894.399	27.99
894.57	30.04
894.74	17.75
894.911	5.46
895.082	-12.97
895.253	-6.83
895.423	38.23
895.594	87.38
895.764	1.37
895.935	7.51
896.106	7.51
896.276	-41.64
896.447	-41.64
896.617	7.51
896.788	11.61
896.958	-19.11
897.129	17.75
897.299	1.37
897.47	21.84
897.64	46.42
897.81	-45.74
897.981	25.94
898.151	-66.22
898.322	71
898.492	23.89
898.662	79.19
898.832	-12.97
899.003	73.04
899.173	5.46
899.343	-90.79
899.513	-8.87
