Data from USB4F104151__101__13-22-06-861.txt Node

Date: Fri Mar 14 13:22:06 EDT 2025
User: louis
Spectrometer: USB4F10415
Trigger mode: 4
Integration Time (sec): 3.000000E-2
Scans to average: 1
Electric dark correction enabled: true
Nonlinearity correction enabled: false
Boxcar width: 0
XAxis mode: Wavelengths
Number of Pixels in Spectrum: 3648
>>>>>Begin Spectral Data<<<<<
178.204	-117.76
178.424	-117.76
178.644	-117.76
178.864	-189.44
179.084	-136.19
179.304	-46.08
179.524	-50.18
179.744	-23.55
179.964	56.32
180.184	3.07
180.404	11.26
180.624	5.12
180.844	-9.22
181.064	11.26
181.283	-1.02
181.503	33.79
181.723	9.22
181.943	7.17
182.163	95.23
182.383	25.6
182.602	64.51
182.822	-48.13
183.042	60.42
183.262	7.17
183.482	80.89
183.701	39.94
183.921	31.74
184.141	-29.7
184.361	23.55
184.58	23.55
184.8	50.18
185.02	7.17
185.239	58.37
185.459	-44.03
185.679	93.18
185.898	-9.22
186.118	7.17
186.338	1.02
186.557	35.84
186.777	7.17
186.997	13.31
187.216	-27.65
187.436	78.85
187.655	107.52
187.875	87.04
188.095	19.46
188.314	1.02
188.534	82.94
188.753	-19.46
188.973	33.79
189.192	64.51
189.412	7.17
189.631	50.18
189.851	-21.5
190.07	7.17
190.29	-62.46
190.509	50.18
190.729	54.27
190.948	56.32
191.168	152.57
191.387	31.74
191.607	60.42
191.826	72.7
192.045	-37.89
192.265	-13.31
192.484	62.46
192.704	-5.12
192.923	5.12
193.142	76.8
193.362	15.36
193.581	111.61
193.8	48.13
194.02	48.13
194.239	-5.12
194.458	7.17
194.678	60.42
194.897	58.37
195.116	-37.89
195.335	37.89
195.555	31.74
195.774	66.56
195.993	80.89
196.212	15.36
196.432	3.07
196.651	-13.31
196.87	27.65
197.089	103.42
197.308	23.55
197.528	-7.17
197.747	9.22
197.966	113.66
198.185	11.26
198.404	-5.12
198.623	7.17
198.842	5.12
199.062	44.03
199.281	27.65
199.5	44.03
199.719	68.61
199.938	-9.22
200.157	60.42
200.376	3.07
200.595	1.02
200.814	-9.22
201.033	17.41
201.252	11.26
201.471	-66.56
201.69	54.27
201.909	58.37
202.128	11.26
202.347	-5.12
202.566	44.03
202.785	-41.98
203.004	-41.98
203.223	60.42
203.442	5.12
203.661	-74.75
203.879	-21.5
204.098	19.46
204.317	1.02
204.536	48.13
204.755	-17.41
204.974	125.95
205.193	3.07
205.411	121.85
205.63	5.12
205.849	76.8
206.068	9.22
206.287	29.7
206.505	7.17
206.724	-58.37
206.943	19.46
207.162	-15.36
207.381	64.51
207.599	15.36
207.818	7.17
208.037	-37.89
208.255	11.26
208.474	21.5
208.693	1.02
208.911	82.94
209.13	31.74
209.349	54.27
209.567	23.55
209.786	89.09
210.005	158.72
210.223	33.79
210.442	19.46
210.661	23.55
210.879	33.79
211.098	13.31
211.316	21.5
211.535	48.13
211.753	58.37
211.972	7.17
212.191	-13.31
212.409	-48.13
212.628	-15.36
212.846	-9.22
213.065	35.84
213.283	37.89
213.502	13.31
213.72	-17.41
213.938	-27.65
214.157	107.52
214.375	33.79
214.594	1.02
214.812	15.36
215.031	-9.22
215.249	19.46
215.467	64.51
215.686	-29.7
215.904	82.94
216.122	7.17
216.341	27.65
216.559	11.26
216.778	148.48
216.996	39.94
217.214	62.46
217.432	-33.79
217.651	97.28
217.869	-31.74
218.087	33.79
218.306	-1.02
218.524	15.36
218.742	-11.26
218.96	25.6
219.179	23.55
219.397	-23.55
219.615	72.7
219.833	72.7
220.051	9.22
220.27	123.9
220.488	-3.07
220.706	44.03
220.924	27.65
221.142	-27.65
221.36	-23.55
221.578	31.74
221.796	-78.85
222.015	35.84
222.233	74.75
222.451	46.08
222.669	-39.94
222.887	87.04
223.105	15.36
223.323	-21.5
223.541	13.31
223.759	1.02
223.977	-72.7
224.195	80.89
224.413	23.55
224.631	-23.55
224.849	39.94
225.067	105.47
225.285	-46.08
225.503	-23.55
225.721	-125.95
225.939	35.84
226.157	-41.98
226.375	99.33
226.592	19.46
226.81	25.6
227.028	-25.6
227.246	-1.02
227.464	60.42
227.682	-25.6
227.9	29.7
228.117	-7.17
228.335	-23.55
228.553	46.08
228.771	19.46
228.989	15.36
229.206	-21.5
229.424	60.42
229.642	21.5
229.86	1.02
230.077	50.18
230.295	72.7
230.513	27.65
230.731	39.94
230.948	72.7
231.166	87.04
231.384	9.22
231.601	-37.89
231.819	31.74
232.037	-35.84
232.254	11.26
232.472	64.51
232.689	-19.46
232.907	13.31
233.125	25.6
233.342	35.84
233.56	-9.22
233.777	-25.6
233.995	23.55
234.213	52.22
234.43	125.95
234.648	15.36
234.865	-17.41
235.083	19.46
235.3	66.56
235.518	-37.89
235.735	17.41
235.953	27.65
236.17	25.6
236.388	-5.12
236.605	1.02
236.822	62.46
237.04	15.36
237.257	-80.89
237.475	-64.51
237.692	50.18
237.909	109.57
238.127	15.36
238.344	74.75
238.562	39.94
238.779	-1.02
238.996	11.26
239.214	-17.41
239.431	93.18
239.648	-23.55
239.865	78.85
240.083	23.55
240.3	17.41
240.517	1.02
240.735	41.98
240.952	78.85
241.169	105.47
241.386	23.55
241.603	5.12
241.821	54.27
242.038	9.22
242.255	-29.7
242.472	-115.71
242.689	48.13
242.907	-13.31
243.124	-3.07
243.341	58.37
243.558	-5.12
243.775	13.31
243.992	1.02
244.209	60.42
244.426	76.8
244.643	11.26
244.86	1.02
245.078	1.02
245.295	66.56
245.512	64.51
245.729	33.79
245.946	11.26
246.163	-15.36
246.38	15.36
246.597	-39.94
246.814	-25.6
247.031	27.65
247.248	11.26
247.464	11.26
247.681	70.65
247.898	-9.22
248.115	15.36
248.332	84.99
248.549	-7.17
248.766	58.37
248.983	19.46
249.2	23.55
249.417	27.65
249.633	23.55
249.85	68.61
250.067	74.75
250.284	-9.22
250.501	-1.02
250.717	-31.74
250.934	-9.22
251.151	-1.02
251.368	33.79
251.585	31.74
251.801	82.94
252.018	-62.46
252.235	37.89
252.451	33.79
252.668	9.22
252.885	9.22
253.102	41.98
253.318	5.12
253.535	-21.5
253.752	-33.79
253.968	54.27
254.185	-1.02
254.401	9.22
254.618	46.08
254.835	-27.65
255.051	41.98
255.268	89.09
255.484	33.79
255.701	1.02
255.917	-46.08
256.134	-33.79
256.351	54.27
256.567	-7.17
256.784	23.55
257	21.5
257.217	68.61
257.433	-27.65
257.65	72.7
257.866	80.89
258.082	64.51
258.299	-39.94
258.515	25.6
258.732	-21.5
258.948	1.02
259.165	82.94
259.381	3.07
259.597	23.55
259.814	66.56
260.03	-15.36
260.246	25.6
260.463	39.94
260.679	15.36
260.895	-23.55
261.112	-1.02
261.328	72.7
261.544	-5.12
261.761	39.94
261.977	31.74
262.193	25.6
262.409	52.22
262.626	33.79
262.842	-11.26
263.058	11.26
263.274	72.7
263.49	56.32
263.707	64.51
263.923	58.37
264.139	39.94
264.355	33.79
264.571	107.52
264.787	35.84
265.004	7.17
265.22	-1.02
265.436	5.12
265.652	-5.12
265.868	15.36
266.084	-21.5
266.3	56.32
266.516	13.31
266.732	44.03
266.948	82.94
267.164	60.42
267.38	46.08
267.596	35.84
267.812	72.7
268.028	70.65
268.244	72.7
268.46	-17.41
268.676	25.6
268.892	9.22
269.108	-48.13
269.324	-37.89
269.54	-31.74
269.756	105.47
269.972	-60.42
270.188	44.03
270.403	-31.74
270.619	46.08
270.835	17.41
271.051	-9.22
271.267	-19.46
271.483	48.13
271.698	31.74
271.914	15.36
272.13	39.94
272.346	56.32
272.562	50.18
272.777	-23.55
272.993	101.37
273.209	44.03
273.425	7.17
273.64	-15.36
273.856	13.31
274.072	-29.7
274.287	7.17
274.503	23.55
274.719	-19.46
274.934	9.22
275.15	9.22
275.366	-50.18
275.581	-21.5
275.797	-17.41
276.012	7.17
276.228	-19.46
276.444	-9.22
276.659	64.51
276.875	-7.17
277.09	52.22
277.306	-13.31
277.521	5.12
277.737	60.42
277.952	72.7
278.168	3.07
278.383	7.17
278.599	31.74
278.814	15.36
279.03	33.79
279.245	-7.17
279.461	56.32
279.676	66.56
279.892	-35.84
280.107	-23.55
280.322	-46.08
280.538	35.84
280.753	1.02
280.969	64.51
281.184	-19.46
281.399	80.89
281.615	-13.31
281.83	31.74
282.045	-27.65
282.26	17.41
282.476	17.41
282.691	17.41
282.906	39.94
283.122	3.07
283.337	3.07
283.552	99.33
283.767	31.74
283.983	84.99
284.198	35.84
284.413	19.46
284.628	-15.36
284.843	-33.79
285.058	-21.5
285.274	33.79
285.489	35.84
285.704	7.17
285.919	-80.89
286.134	52.22
286.349	68.61
286.564	7.17
286.779	48.13
286.995	-46.08
287.21	-31.74
287.425	35.84
287.64	-35.84
287.855	62.46
288.07	-27.65
288.285	-21.5
288.5	54.27
288.715	31.74
288.93	-7.17
289.145	-3.07
289.36	-48.13
289.575	39.94
289.79	109.57
290.004	41.98
290.219	84.99
290.434	13.31
290.649	9.22
290.864	-37.89
291.079	-9.22
291.294	-99.33
291.509	-48.13
291.724	-7.17
291.938	-39.94
292.153	44.03
292.368	17.41
292.583	31.74
292.798	41.98
293.012	68.61
293.227	5.12
293.442	-13.31
293.657	64.51
293.871	103.42
294.086	27.65
294.301	97.28
294.516	50.18
294.73	64.51
294.945	-52.22
295.16	33.79
295.374	23.55
295.589	13.31
295.804	-121.85
296.018	-7.17
296.233	62.46
296.447	9.22
296.662	9.22
296.877	41.98
297.091	23.55
297.306	25.6
297.52	31.74
297.735	-37.89
297.949	44.03
298.164	1.02
298.378	35.84
298.593	48.13
298.807	19.46
299.022	95.23
299.236	78.85
299.451	31.74
299.665	5.12
299.88	9.22
300.094	31.74
300.309	-1.02
300.523	35.84
300.737	-44.03
300.952	76.8
301.166	84.99
301.381	-23.55
301.595	60.42
301.809	19.46
302.024	44.03
302.238	19.46
302.452	64.51
302.667	-72.7
302.881	82.94
303.095	48.13
303.309	11.26
303.524	-23.55
303.738	23.55
303.952	-29.7
304.166	23.55
304.381	23.55
304.595	39.94
304.809	-1.02
305.023	54.27
305.237	80.89
305.452	7.17
305.666	78.85
305.88	15.36
306.094	11.26
306.308	3.07
306.522	76.8
306.736	9.22
306.95	-15.36
307.164	27.65
307.379	48.13
307.593	50.18
307.807	15.36
308.021	15.36
308.235	41.98
308.449	-17.41
308.663	-1.02
308.877	80.89
309.091	7.17
309.305	56.32
309.519	-87.04
309.733	99.33
309.947	48.13
310.161	39.94
310.374	48.13
310.588	121.85
310.802	35.84
311.016	41.98
311.23	70.65
311.444	-25.6
311.658	31.74
311.872	89.09
312.085	3.07
312.299	64.51
312.513	56.32
312.727	-3.07
312.941	13.31
313.154	33.79
313.368	50.18
313.582	31.74
313.796	82.94
314.009	1.02
314.223	27.65
314.437	52.22
314.651	97.28
314.864	-23.55
315.078	-54.27
315.292	-39.94
315.505	39.94
315.719	25.6
315.933	-13.31
316.146	5.12
316.36	-37.89
316.573	123.9
316.787	76.8
317.001	-19.46
317.214	25.6
317.428	-15.36
317.641	-17.41
317.855	-23.55
318.068	-37.89
318.282	66.56
318.495	66.56
318.709	93.18
318.922	-35.84
319.136	29.7
319.349	39.94
319.563	-54.27
319.776	-19.46
319.99	-50.18
320.203	17.41
320.417	41.98
320.63	-25.6
320.843	62.46
321.057	17.41
321.27	-29.7
321.483	-21.5
321.697	33.79
321.91	39.94
322.124	31.74
322.337	11.26
322.55	13.31
322.763	-21.5
322.977	15.36
323.19	7.17
323.403	99.33
323.617	68.61
323.83	56.32
324.043	-9.22
324.256	11.26
324.469	-21.5
324.683	-11.26
324.896	-17.41
325.109	-41.98
325.322	-95.23
325.535	107.52
325.748	23.55
325.962	-17.41
326.175	-31.74
326.388	33.79
326.601	48.13
326.814	58.37
327.027	17.41
327.24	148.48
327.453	-58.37
327.666	44.03
327.879	162.81
328.092	56.32
328.305	82.94
328.518	-39.94
328.731	78.85
328.944	25.6
329.157	56.32
329.37	-9.22
329.583	60.42
329.796	50.18
330.009	-17.41
330.222	50.18
330.435	7.17
330.648	11.26
330.861	33.79
331.073	25.6
331.286	84.99
331.499	46.08
331.712	-58.37
331.925	15.36
332.138	31.74
332.35	29.7
332.563	-27.65
332.776	27.65
332.989	-15.36
333.202	-46.08
333.414	-33.79
333.627	17.41
333.84	-3.07
334.053	-17.41
334.265	78.85
334.478	54.27
334.691	62.46
334.903	3.07
335.116	-54.27
335.329	1.02
335.541	78.85
335.754	56.32
335.966	31.74
336.179	9.22
336.392	-13.31
336.604	3.07
336.817	54.27
337.029	39.94
337.242	11.26
337.454	62.46
337.667	56.32
337.88	33.79
338.092	41.98
338.305	33.79
338.517	56.32
338.729	9.22
338.942	-27.65
339.154	35.84
339.367	-48.13
339.579	44.03
339.792	27.65
340.004	74.75
340.217	7.17
340.429	25.6
340.641	-27.65
340.854	-62.46
341.066	-3.07
341.278	80.89
341.491	125.95
341.703	9.22
341.915	-62.46
342.128	50.18
342.34	-35.84
342.552	31.74
342.764	27.65
342.977	25.6
343.189	35.84
343.401	35.84
343.613	-31.74
343.826	31.74
344.038	-29.7
344.25	31.74
344.462	-11.26
344.674	70.65
344.886	-27.65
345.099	-9.22
345.311	66.56
345.523	15.36
345.735	-39.94
345.947	39.94
346.159	-23.55
346.371	56.32
346.583	-3.07
346.795	54.27
347.007	15.36
347.219	48.13
347.431	-58.37
347.643	31.74
347.855	-27.65
348.067	13.31
348.279	7.17
348.491	37.89
348.703	19.46
348.915	-62.46
349.127	-50.18
349.339	-9.22
349.551	-13.31
349.763	-17.41
349.975	52.22
350.187	115.71
350.399	97.28
350.61	7.17
350.822	-17.41
351.034	68.61
351.246	-101.37
351.458	5.12
351.669	-3.07
351.881	15.36
352.093	48.13
352.305	-9.22
352.517	25.6
352.728	64.51
352.94	25.6
353.152	33.79
353.363	15.36
353.575	-66.56
353.787	9.22
353.999	3.07
354.21	-48.13
354.422	39.94
354.633	-27.65
354.845	11.26
355.057	64.51
355.268	1.02
355.48	76.8
355.692	-37.89
355.903	-31.74
356.115	-54.27
356.326	-37.89
356.538	68.61
356.749	39.94
356.961	68.61
357.172	39.94
357.384	13.31
357.595	50.18
357.807	3.07
358.018	25.6
358.23	39.94
358.441	39.94
358.653	15.36
358.864	11.26
359.075	-37.89
359.287	41.98
359.498	15.36
359.709	-3.07
359.921	-37.89
360.132	37.89
360.344	-13.31
360.555	13.31
360.766	44.03
360.977	-7.17
361.189	91.13
361.4	76.8
361.611	25.6
361.823	21.5
362.034	-13.31
362.245	-44.03
362.456	54.27
362.667	78.85
362.879	89.09
363.09	-46.08
363.301	-1.02
363.512	9.22
363.723	33.79
363.935	29.7
364.146	56.32
364.357	27.65
364.568	-1.02
364.779	62.46
364.99	56.32
365.201	33.79
365.412	15.36
365.623	1.02
365.834	-1.02
366.045	33.79
366.256	33.79
366.467	72.7
366.678	15.36
366.889	-1.02
367.1	31.74
367.311	27.65
367.522	19.46
367.733	37.89
367.944	48.13
368.155	19.46
368.366	66.56
368.577	29.7
368.788	138.24
368.999	23.55
369.209	-19.46
369.42	91.13
369.631	82.94
369.842	-25.6
370.053	21.5
370.264	64.51
370.474	48.13
370.685	58.37
370.896	3.07
371.107	-41.98
371.317	5.12
371.528	-54.27
371.739	13.31
371.95	97.28
372.16	11.26
372.371	-1.02
372.582	-17.41
372.792	-15.36
373.003	50.18
373.214	-17.41
373.424	3.07
373.635	-1.02
373.846	115.71
374.056	29.7
374.267	11.26
374.477	19.46
374.688	82.94
374.898	-19.46
375.109	1.02
375.319	23.55
375.53	82.94
375.74	27.65
375.951	-37.89
376.161	25.6
376.372	64.51
376.582	3.07
376.793	15.36
377.003	-41.98
377.214	35.84
377.424	-9.22
377.635	-13.31
377.845	25.6
378.055	101.37
378.266	-58.37
378.476	44.03
378.686	39.94
378.897	-7.17
379.107	13.31
379.317	44.03
379.528	62.46
379.738	97.28
379.948	-50.18
380.158	13.31
380.369	44.03
380.579	1.02
380.789	72.7
380.999	72.7
381.21	-5.12
381.42	44.03
381.63	-39.94
381.84	1.02
382.05	48.13
382.261	41.98
382.471	46.08
382.681	-35.84
382.891	-1.02
383.101	82.94
383.311	56.32
383.521	-62.46
383.731	-27.65
383.941	5.12
384.151	-23.55
384.361	50.18
384.571	11.26
384.781	-39.94
384.991	93.18
385.201	125.95
385.411	68.61
385.621	93.18
385.831	-29.7
386.041	-21.5
386.251	-17.41
386.461	1.02
386.671	-7.17
386.881	-1.02
387.091	48.13
387.301	37.89
387.511	27.65
387.72	7.17
387.93	70.65
388.14	-9.22
388.35	-11.26
388.56	41.98
388.769	84.99
388.979	-9.22
389.189	-52.22
389.399	9.22
389.609	31.74
389.818	56.32
390.028	9.22
390.238	66.56
390.447	25.6
390.657	-37.89
390.867	-13.31
391.076	56.32
391.286	39.94
391.496	-3.07
391.705	41.98
391.915	-21.5
392.125	93.18
392.334	7.17
392.544	74.75
392.753	33.79
392.963	11.26
393.172	46.08
393.382	-25.6
393.591	68.61
393.801	9.22
394.01	101.37
394.22	44.03
394.429	52.22
394.639	15.36
394.848	99.33
395.058	-31.74
395.267	-23.55
395.477	87.04
395.686	48.13
395.895	103.42
396.105	128
396.314	-3.07
396.524	-31.74
396.733	74.75
396.942	27.65
397.152	-3.07
397.361	33.79
397.57	84.99
397.78	109.57
397.989	66.56
398.198	84.99
398.407	48.13
398.617	25.6
398.826	-9.22
399.035	50.18
399.244	74.75
399.453	78.85
399.663	23.55
399.872	66.56
400.081	25.6
400.29	115.71
400.499	41.98
400.708	99.33
400.917	13.31
401.127	21.5
401.336	60.42
401.545	134.14
401.754	23.55
401.963	93.18
402.172	115.71
402.381	-21.5
402.59	76.8
402.799	105.47
403.008	39.94
403.217	64.51
403.426	-5.12
403.635	80.89
403.844	115.71
404.053	76.8
404.262	-66.56
404.471	140.29
404.68	56.32
404.888	5.12
405.097	54.27
405.306	99.33
405.515	39.94
405.724	111.61
405.933	31.74
406.142	121.85
406.35	89.09
406.559	-9.22
406.768	56.32
406.977	125.95
407.185	50.18
407.394	62.46
407.603	64.51
407.812	117.76
408.02	125.95
408.229	56.32
408.438	154.62
408.646	72.7
408.855	107.52
409.064	164.86
409.272	50.18
409.481	97.28
409.69	89.09
409.898	78.85
410.107	140.29
410.315	162.81
410.524	134.14
410.733	164.86
410.941	138.24
411.15	156.67
411.358	211.96
411.567	261.12
411.775	179.2
411.984	179.2
412.192	140.29
412.401	175.1
412.609	236.54
412.818	228.35
413.026	267.26
413.234	236.54
413.443	236.54
413.651	242.68
413.86	269.31
414.068	277.5
414.276	281.6
414.485	265.21
414.693	330.75
414.901	310.27
415.11	246.78
415.318	310.27
415.526	367.61
415.734	322.56
415.943	363.51
416.151	361.47
416.359	392.19
416.567	347.13
416.776	340.99
416.984	461.82
417.192	510.97
417.4	496.63
417.608	441.34
417.817	418.81
418.025	490.49
418.233	506.87
418.441	525.3
418.649	429.05
418.857	486.39
419.065	558.07
419.273	570.36
419.481	582.65
419.689	719.86
419.897	594.93
420.105	631.8
420.313	678.9
420.521	803.83
420.729	762.87
420.937	699.38
421.145	728.05
421.353	809.97
421.561	922.61
421.769	844.79
421.977	785.4
422.185	883.7
422.393	859.12
422.601	1037.3
422.809	994.29
423.017	1043.44
423.224	1102.83
423.432	1086.45
423.64	1037.3
423.848	1303.53
424.056	1111.02
424.263	1377.26
424.471	1330.16
424.679	1344.49
424.887	1344.49
425.094	1405.93
425.302	1414.12
425.51	1534.95
425.718	1502.19
425.925	1465.32
426.133	1620.97
426.341	1756.13
426.548	1778.66
426.756	1760.23
426.964	1866.72
427.171	1825.76
427.379	1973.22
427.586	1979.36
427.794	1958.88
428.001	1989.6
428.209	2255.84
428.417	2223.07
428.624	2356.19
428.832	2247.65
429.039	2345.95
429.247	2235.36
429.454	2436.06
429.662	2606.04
429.869	2546.65
430.076	2669.53
430.284	2669.53
430.491	2575.32
430.699	2859.99
430.906	2796.5
431.114	2976.72
431.321	2991.06
431.528	3109.84
431.736	3316.69
431.943	3369.93
432.15	3406.8
432.358	3460.04
432.565	3574.73
432.772	3482.57
432.979	3742.66
433.187	3828.68
433.394	3931.08
433.601	4123.59
433.808	4152.26
434.016	4185.02
434.223	4260.8
434.43	4445.12
434.637	4359.1
434.844	4789.17
435.052	4856.76
435.259	4744.12
435.466	4748.22
435.673	4604.86
435.88	4987.83
436.087	5317.55
436.294	5278.64
436.501	5217.2
436.708	5348.27
436.915	5548.97
437.122	5841.83
437.329	5581.74
437.537	5884.84
437.743	6046.63
437.95	5966.76
438.157	6355.87
438.364	6462.37
438.571	6538.14
438.778	6763.42
438.985	7283.6
439.192	6880.15
439.399	7041.94
439.606	6847.38
439.813	7293.84
440.02	7760.78
440.227	7463.82
440.433	7435.15
440.64	7783.31
440.847	7594.89
441.054	7701.39
441.261	8225.67
441.467	8336.26
441.674	8479.61
441.881	8756.09
442.088	8821.63
442.294	8600.44
442.501	8813.43
442.708	9057.14
442.914	9581.42
443.121	9739.12
443.328	9450.35
443.534	10181.48
443.741	9816.94
443.948	9638.76
444.154	10476.38
444.361	10398.56
444.568	10541.92
444.774	10541.92
444.981	10437.47
445.187	11002.71
445.394	11647.82
445.6	11117.4
445.807	12542.78
446.013	11623.25
446.22	11901.77
446.426	12768.06
446.633	12686.14
446.839	13089.59
447.046	12272.45
447.252	13329.2
447.459	13265.72
447.665	13091.64
447.871	13853.48
448.078	14385.96
448.284	13599.54
448.491	14097.19
448.697	14793.5
448.903	14961.44
449.11	15172.38
449.316	14568.23
449.522	15065.88
449.728	15256.34
449.935	15463.19
450.141	15629.07
450.347	15794.96
450.553	15295.25
450.76	15608.59
450.966	16386.82
451.172	15956.75
451.378	16202.5
451.584	15907.6
451.791	16231.18
451.997	16290.57
452.203	16804.61
452.409	16888.57
452.615	16601.86
452.821	15964.94
453.027	15784.72
453.233	16782.08
453.44	16143.11
453.646	16233.22
453.852	16317.19
454.058	16655.11
454.264	15823.63
454.47	16345.86
454.676	15895.31
454.882	16444.17
455.088	15158.04
455.294	15387.41
455.5	15678.22
455.705	15868.69
455.911	15182.62
456.117	14932.76
456.323	14566.18
456.529	13890.35
456.735	14420.77
456.941	13931.31
457.147	13978.41
457.352	13454.13
457.558	13380.4
457.764	13255.48
457.97	12983.1
458.176	12739.39
458.381	12772.16
458.587	12215.11
458.793	12208.97
458.999	11572.05
459.204	12428.1
459.41	12174.15
459.616	11326.29
459.821	11148.12
460.027	10992.47
460.233	10994.52
460.438	10392.42
460.644	10572.64
460.85	9917.29
461.055	9855.85
461.261	9790.31
461.466	9003.89
461.672	8995.7
461.878	9534.32
462.083	8907.64
462.289	8684.41
462.494	8786.81
462.7	8164.23
462.905	8084.36
463.111	8352.64
463.316	8403.84
463.522	8248.19
463.727	8078.21
463.932	8301.44
464.138	8055.69
464.343	7963.53
464.549	7889.8
464.754	8227.71
464.959	8045.45
465.165	8061.83
465.37	7635.85
465.575	7644.04
465.781	7953.29
465.986	7777.16
466.191	7445.39
466.397	7285.65
466.602	7029.65
466.807	7250.83
467.012	7299.98
467.218	7197.59
467.423	7205.78
467.628	7347.09
467.833	7547.79
468.038	7373.71
468.244	6919.06
468.449	7357.33
468.654	7273.36
468.859	6966.17
469.064	7058.32
469.269	6783.9
469.474	6833.05
469.679	7021.46
469.885	6802.33
470.09	6910.87
470.295	6765.46
470.5	6618.01
470.705	6648.73
470.91	6669.21
471.115	6390.69
471.32	6650.78
471.525	6658.97
471.73	6450.08
471.935	6413.21
472.139	5936.04
472.344	6312.86
472.549	6134.69
472.754	6015.91
472.959	5858.21
473.164	5856.17
473.369	5884.84
473.574	6007.72
473.778	5809.06
473.983	5989.28
474.188	5776.3
474.393	5551.02
474.598	5577.64
474.802	5655.47
475.007	5442.48
475.212	5528.49
475.417	5301.17
475.621	5462.96
475.826	5155.76
476.031	5176.24
476.235	5159.86
476.44	5200.82
476.645	5100.47
476.849	5194.67
477.054	5065.65
477.259	4993.97
477.463	5090.23
477.668	4858.81
477.872	5036.98
478.077	4828.09
478.282	4744.12
478.486	4830.13
478.691	4748.22
478.895	4643.77
479.1	4582.33
479.304	4717.5
479.509	4680.63
479.713	4619.19
479.918	4524.99
480.122	4281.28
480.326	4502.46
480.531	4479.93
480.735	4488.12
480.94	4475.84
481.144	4594.62
481.348	4266.94
481.553	4307.9
481.757	4119.49
481.961	4420.54
482.166	4422.59
482.37	4287.42
482.574	4344.77
482.778	4228.03
482.983	4365.25
483.187	4316.09
483.391	4287.42
483.595	4320.19
483.8	4215.74
484.004	4289.47
484.208	4426.68
484.412	4342.72
484.616	4387.77
484.821	4295.61
485.025	4238.27
485.229	4164.54
485.433	4334.53
485.637	4273.09
485.841	4193.22
486.045	4209.6
486.249	4223.94
486.453	4240.32
486.657	4164.54
486.861	4318.14
487.065	4094.91
487.269	4268.99
487.473	4295.61
487.677	4219.84
487.881	4336.57
488.085	4291.52
488.289	4252.61
488.493	4285.37
488.697	4361.15
488.901	4379.58
489.105	4297.66
489.309	4379.58
489.512	4426.68
489.716	4432.83
489.92	4375.49
490.124	4299.71
490.328	4350.91
490.531	4334.53
490.735	4529.08
490.939	4447.16
491.143	4510.65
491.346	4398.01
491.55	4531.13
491.754	4510.65
491.958	4651.96
492.161	4602.81
492.365	4465.6
492.569	4465.6
492.772	4547.51
492.976	4592.57
493.18	4531.13
493.383	4668.34
493.587	4662.2
493.79	4758.46
493.994	4592.57
494.197	4727.74
494.401	4883.38
494.605	4709.3
494.808	4944.82
495.012	4832.18
495.215	4852.66
495.419	5016.5
495.622	4981.68
495.825	5059.51
496.029	4950.96
496.232	5206.96
496.436	4989.88
496.639	5354.41
496.843	5129.14
497.046	5122.99
497.249	5422
497.453	5487.53
497.656	5243.82
497.859	5579.69
498.063	5671.85
498.266	5559.21
498.469	5827.5
498.673	5665.71
498.876	5784.49
499.079	5860.26
499.282	5811.11
499.485	5987.24
499.689	5952.42
499.892	6069.16
500.095	6044.58
500.298	6220.71
500.501	6069.16
500.705	6247.33
500.908	6325.15
501.111	6513.56
501.314	6538.14
501.517	6527.9
501.72	6757.27
501.923	6554.52
502.126	6921.11
502.329	6853.53
502.532	6964.12
502.735	6874.01
502.938	7234.45
503.141	7205.78
503.344	7105.43
503.547	7281.55
503.75	7293.84
503.953	7367.57
504.156	7711.63
504.359	7707.53
504.562	7734.15
504.765	7586.7
504.968	7871.37
505.17	7936.9
505.373	8078.21
505.576	7994.25
505.779	8217.47
505.982	8434.56
506.185	8518.53
506.387	8321.92
506.59	8457.09
506.793	8733.56
506.996	8645.5
507.198	8944.5
507.401	8838.01
507.604	8797.05
507.807	9266.03
508.009	9073.53
508.212	9239.41
508.415	9280.37
508.617	9536.37
508.82	9548.65
509.022	9522.03
509.225	9606
509.428	9831.27
509.63	10038.12
509.833	9878.38
510.035	10290.02
510.238	10101.61
510.44	10253.16
510.643	10410.85
510.845	10529.63
511.048	10431.33
511.25	10703.71
511.453	10699.61
511.655	10986.33
511.858	11010.9
512.06	11201.37
512.262	10986.33
512.465	10959.7
512.667	11502.42
512.87	11412.31
513.072	11549.52
513.274	11684.69
513.477	11754.32
513.679	11805.52
513.881	12098.38
514.084	12096.33
514.286	12092.23
514.488	12405.57
514.69	12968.76
514.893	12659.52
515.095	12589.89
515.297	12659.52
515.499	13058.87
515.701	13214.52
515.904	13159.22
516.106	13411.12
516.308	13648.69
516.51	13837.1
516.712	13699.89
516.914	13957.93
517.116	14039.85
517.318	14175.02
517.52	14113.58
517.722	14318.37
517.925	14054.19
518.127	14625.57
518.329	14746.4
518.531	14502.69
518.733	15096.6
518.935	15147.8
519.136	14959.39
519.338	15252.25
519.54	15297.3
519.742	15618.83
519.944	15577.87
520.146	16059.15
520.348	16046.86
520.55	16071.43
520.752	16257.8
520.954	16530.18
521.155	16319.24
521.357	16644.87
521.559	16507.65
521.761	16864
521.963	17220.35
522.164	17005.31
522.366	17222.39
522.568	17507.06
522.77	17496.82
522.971	17629.94
523.173	17500.92
523.375	18051.82
523.576	17963.76
523.778	17828.59
523.98	18162.41
524.181	18217.71
524.383	18340.58
524.584	18688.74
524.786	18496.23
524.988	18692.83
525.189	18813.66
525.391	18926.3
525.592	19323.61
525.794	19405.53
525.995	19315.42
526.197	19362.52
526.398	19292.89
526.6	19507.93
526.801	19438.3
527.003	19544.79
527.204	19749.59
527.406	19921.62
527.607	19942.1
527.808	20124.36
528.01	19704.53
528.211	20015.82
528.412	20376.27
528.614	20325.07
528.815	20443.85
529.016	20818.63
529.218	20243.15
529.419	20370.12
529.62	20413.13
529.822	20552.39
530.023	20603.59
530.224	20566.73
530.425	20740.8
530.626	20224.72
530.828	20648.64
531.029	21113.53
531.23	20718.28
531.431	20871.87
531.632	21095.1
531.833	20904.64
532.035	20923.07
532.236	20873.92
532.437	21263.04
532.638	20769.48
532.839	21199.55
533.04	21217.98
533.241	21021.38
533.442	21342.91
533.643	21299.9
533.844	20933.31
534.045	21279.42
534.246	21117.63
534.447	21303.99
534.648	21158.59
534.849	21220.03
535.05	21179.07
535.251	21338.81
535.451	21228.22
535.652	21269.18
535.853	21365.43
536.054	21486.26
536.255	21373.63
536.456	21404.35
536.657	21729.97
536.857	21310.14
537.058	21295.8
537.259	21574.33
537.46	21486.26
537.66	21240.51
537.861	21426.87
538.062	21250.75
538.263	21422.78
538.463	21293.76
538.664	21166.78
538.865	21252.8
539.065	21549.75
539.266	21224.12
539.466	21478.07
539.667	20953.79
539.868	21707.44
540.068	21293.76
540.269	21328.57
540.469	21629.62
540.67	21295.8
540.87	21457.59
541.071	21359.29
541.271	21469.88
541.472	21404.35
541.672	21490.36
541.873	21287.61
542.073	21109.44
542.274	21355.19
542.474	21375.67
542.675	21185.21
542.875	21400.25
543.075	21342.91
543.276	21252.8
543.476	21627.57
543.676	21344.95
543.877	21652.15
544.077	21246.65
544.277	21390.01
544.478	21066.43
544.678	21529.27
544.878	21410.49
545.078	21332.67
545.279	21205.69
545.479	21418.68
545.679	21402.3
545.879	21500.6
546.079	21482.17
546.28	21252.8
546.48	21144.25
546.68	21471.93
546.88	21258.94
547.08	21258.94
547.28	21201.6
547.48	20941.5
547.68	21215.93
547.88	21054.14
548.081	21430.97
548.281	21207.74
548.481	21271.23
548.681	21381.82
548.881	21119.68
549.081	21330.62
549.28	21019.33
549.48	21349.05
549.68	20992.7
549.88	21521.08
550.08	21136.06
550.28	21152.45
550.48	20955.84
550.68	21080.77
550.88	21355.19
551.08	20929.22
551.279	21390.01
551.479	20972.22
551.679	21215.93
551.879	20898.5
552.079	20916.93
552.278	21314.23
552.478	20984.51
552.678	21234.36
552.878	21113.53
553.077	21099.2
553.277	20771.52
553.477	21039.81
553.676	20916.93
553.876	21154.49
554.076	21009.09
554.275	20845.25
554.475	20634.31
554.674	21093.05
554.874	20761.28
555.074	20898.5
555.273	20775.62
555.473	20937.41
555.672	20705.99
555.872	20759.24
556.071	20685.51
556.271	21134.01
556.47	20841.15
556.67	20560.58
556.869	20878.02
557.068	20513.48
557.268	20585.16
557.467	20632.26
557.667	20525.77
557.866	20597.45
558.065	20597.45
558.265	20247.24
558.464	20689.6
558.663	20708.04
558.863	20290.25
559.062	20798.15
559.261	20194
559.461	20456.14
559.66	20107.98
559.859	20478.66
560.058	20411.08
560.258	20402.89
560.457	20095.69
560.656	20222.67
560.855	20093.65
561.054	20259.53
561.253	19899.09
561.453	19987.15
561.652	20105.93
561.851	20077.26
562.05	20128.46
562.249	19555.03
562.448	20116.17
562.647	19696.34
562.846	19571.41
563.045	19833.55
563.244	19659.48
563.443	19974.86
563.642	19544.79
563.841	19493.59
564.04	19452.63
564.239	19722.96
564.438	19354.33
564.637	19636.95
564.836	19432.15
565.035	19305.18
565.234	19135.2
565.432	19172.06
565.631	19423.96
565.83	19401.43
566.029	19186.4
566.228	18897.63
566.427	18971.36
566.625	18957.02
566.824	18782.95
567.023	19241.69
567.222	18688.74
567.42	19004.13
567.619	18762.47
567.818	18664.16
568.016	18838.24
568.215	18893.54
568.414	18496.23
568.612	18725.6
568.811	18725.6
569.01	18291.43
569.208	18168.55
569.407	18594.53
569.605	18279.15
569.804	18285.29
570.002	18371.3
570.201	18193.13
570.4	18045.68
570.598	17937.13
570.797	17955.57
570.995	17859.31
571.193	17744.63
571.392	17892.08
571.59	17898.22
571.789	17828.59
571.987	17603.32
572.186	17593.08
572.384	17562.36
572.582	17754.87
572.781	17533.68
572.979	17267.45
573.177	17468.15
573.376	17355.51
573.574	16960.25
573.772	17337.08
573.971	17228.54
574.169	16921.34
574.367	16927.49
574.565	17410.81
574.763	17165.05
574.962	16876.29
575.16	16677.63
575.358	16892.67
575.556	16773.89
575.754	16761.6
575.952	16653.06
576.151	16849.66
576.349	16681.73
576.547	16677.63
576.745	16706.31
576.943	16704.26
577.141	16304.9
577.339	16587.52
577.537	16341.77
577.735	16419.59
577.933	16253.7
578.131	16327.43
578.329	16329.48
578.527	16053
578.725	16098.06
578.923	16057.1
579.121	16081.67
579.319	15934.22
579.516	16186.12
579.714	15928.08
579.912	15674.13
580.11	15981.32
580.308	15803.15
580.506	15866.64
580.704	15508.24
580.901	15610.64
581.099	15844.11
581.297	15579.92
581.495	15508.24
581.692	15426.32
581.89	15319.83
582.088	15629.07
582.285	15125.27
582.483	15258.39
582.681	15147.8
582.878	15194.9
583.076	15133.47
583.274	15285.01
583.471	14873.37
583.669	14951.2
583.866	14932.76
584.064	15108.89
584.262	14517.03
584.459	14887.71
584.657	15094.55
584.854	15000.35
585.052	14613.28
585.249	14910.24
585.447	14863.13
585.644	14394.15
585.841	14750.49
586.039	14580.51
586.236	14269.22
586.434	14406.44
586.631	14471.97
586.828	14156.58
587.026	14455.59
587.223	14330.66
587.42	14250.79
587.618	14320.42
587.815	14160.68
588.012	14041.9
588.21	13882.16
588.407	14191.4
588.604	14140.2
588.801	13687.6
588.999	13792.05
589.196	13855.53
589.393	14011.18
589.59	13785.9
589.787	13964.07
589.984	13978.41
590.182	13652.78
590.379	13927.21
590.576	13761.33
590.773	13685.55
590.97	13286.2
591.167	13421.36
591.364	13308.72
591.561	13388.6
591.758	13230.9
591.955	13447.99
592.152	13722.41
592.349	13208.37
592.546	13275.96
592.743	13163.32
592.94	13087.54
593.137	13077.3
593.334	13298.49
593.531	12976.95
593.727	13081.4
593.924	13058.87
594.121	13089.59
594.318	12931.9
594.515	12608.32
594.712	12950.33
594.908	12606.27
595.105	12682.05
595.302	12602.18
595.499	12610.37
595.696	12903.23
595.892	12550.98
596.089	12729.15
596.286	12606.27
596.482	12438.34
596.679	12464.96
596.876	12512.07
597.072	12168.01
597.269	12198.73
597.466	12378.95
597.662	12360.52
597.859	12405.57
598.055	12358.47
598.252	12073.8
598.448	12075.85
598.645	12125
598.841	11967.31
599.038	12018.5
599.234	11934.54
599.431	11832.14
599.627	11770.7
599.824	12008.26
600.02	11418.45
600.217	11893.58
600.413	11772.75
600.609	11709.26
600.806	11729.74
601.002	11574.1
601.198	11590.48
601.395	11567.95
601.591	11303.76
601.787	11639.63
601.984	11649.87
602.18	11588.43
602.376	11381.59
602.572	11451.22
602.769	11359.06
602.965	11273.04
603.161	11225.94
603.357	11152.21
603.553	10947.42
603.75	11172.69
603.946	10996.57
604.142	11076.44
604.338	11006.81
604.534	10869.59
604.73	10699.61
604.926	10847.07
605.122	11027.29
605.318	10767.2
605.514	10982.23
605.71	10814.3
605.906	10759
606.102	10855.26
606.298	10851.16
606.494	11006.81
606.69	10734.43
606.886	10677.09
607.082	10597.21
607.278	10664.8
607.474	10429.28
607.67	10541.92
607.866	10406.75
608.062	10593.12
608.257	10476.38
608.453	10550.11
608.649	10541.92
608.845	10421.09
609.041	10333.03
609.236	10328.93
609.432	10296.16
609.628	10353.51
609.824	10445.66
610.019	10224.48
610.215	10390.37
610.411	10232.68
610.606	10122.09
610.802	10304.35
610.998	10195.81
611.193	10120.04
611.389	9909.1
611.584	10214.24
611.78	9855.85
611.976	10021.74
612.171	10113.89
612.367	9810.79
612.562	9943.91
612.758	9868.14
612.953	9634.67
613.149	9970.54
613.344	9710.44
613.539	10091.37
613.735	9812.84
613.93	9837.42
614.126	9649
614.321	9896.81
614.517	9765.74
614.712	9907.05
614.907	9878.38
615.103	9708.4
615.298	9653.1
615.493	9638.76
615.688	9505.65
615.884	9714.54
616.079	9517.93
616.274	9657.2
616.47	9640.81
616.665	9562.99
616.86	9585.52
617.055	9487.22
617.25	9497.46
617.445	9587.57
617.641	9345.91
617.836	9270.13
618.031	9296.75
618.226	9497.46
618.421	9304.95
618.616	9407.34
618.811	9241.46
619.006	9161.59
619.201	9051
619.396	9423.73
619.591	8860.54
619.786	9204.6
619.981	9126.77
620.176	9198.45
620.371	8954.74
620.566	9149.3
620.761	8962.94
620.956	8807.29
621.151	8823.67
621.346	8993.65
621.541	8502.14
621.735	8919.93
621.93	8510.33
622.125	8534.91
622.32	8424.32
622.515	8334.21
622.709	8301.44
622.904	8510.33
623.099	8584.06
623.294	8403.84
623.488	8242.05
623.683	8264.58
623.878	8303.49
624.072	8186.76
624.267	8045.45
624.462	8110.98
624.656	8029.06
624.851	8180.61
625.046	8000.39
625.24	7871.37
625.435	7852.94
625.629	7834.5
625.824	8006.53
626.018	8010.63
626.213	7623.56
626.407	7711.63
626.602	7658.38
626.796	7588.75
626.991	7451.53
627.185	7490.45
627.38	7461.77
627.574	7433.1
627.768	7543.69
627.963	7402.38
628.157	7306.13
628.352	7369.62
628.546	7199.63
628.74	7177.11
628.935	7256.98
629.129	7187.35
629.323	6855.58
629.517	6992.79
629.712	6937.49
629.906	6951.83
630.1	6951.83
630.294	6921.11
630.489	6773.66
630.683	6816.66
630.877	6794.14
631.071	6587.29
631.265	6652.83
631.459	6681.5
631.653	6546.33
631.848	6716.31
632.042	6388.64
632.236	6564.76
632.43	6679.45
632.624	6519.71
632.818	6402.97
633.012	6388.64
633.206	6357.92
633.4	6454.17
633.594	6327.2
633.788	6284.19
633.982	6171.55
634.176	6276
634.369	6235.04
634.563	6218.66
634.757	5962.66
634.951	6073.25
635.145	6124.45
635.339	6138.79
635.533	6146.98
635.726	6011.81
635.92	5995.43
636.114	6003.62
636.308	6030.24
636.501	5897.13
636.695	5802.92
636.889	5772.2
637.083	5731.24
637.276	5870.5
637.47	5692.33
637.664	5702.57
637.857	5708.71
638.051	5661.61
638.244	5716.9
638.438	5581.74
638.632	5393.33
638.825	5389.23
639.019	5677.99
639.212	5430.19
639.406	5352.37
639.599	5440.43
639.793	5344.17
639.986	5366.7
640.18	5295.02
640.373	5354.41
640.567	5284.78
640.76	5258.16
640.954	5258.16
641.147	5057.46
641.34	5135.28
641.534	5120.95
641.727	5319.6
641.92	4991.92
642.114	5135.28
642.307	5002.16
642.5	5045.17
642.694	4916.15
642.887	4836.28
643.08	5030.84
643.273	4883.38
643.467	4916.15
643.66	4936.63
643.853	4819.89
644.046	4778.94
644.239	4744.12
644.432	4629.43
644.626	4654.01
644.819	4613.05
645.012	4697.02
645.205	4742.07
645.398	4725.69
645.591	4496.32
645.784	4592.57
645.977	4510.65
646.17	4561.85
646.363	4404.16
646.556	4375.49
646.749	4359.1
646.942	4533.18
647.135	4387.77
647.328	4240.32
647.521	4164.54
647.714	4346.81
647.907	4275.13
648.099	4232.13
648.292	4318.14
648.485	4262.85
648.678	4049.86
648.871	4109.25
649.064	3988.42
649.256	4066.24
649.449	3972.04
649.642	4049.86
649.835	4080.58
650.027	4027.33
650.22	4029.38
650.413	3920.84
650.605	3998.66
650.798	4017.09
650.991	3945.41
651.183	3865.54
651.376	3843.01
651.568	3775.43
651.761	3908.55
651.954	3781.57
652.146	3902.4
652.339	3775.43
652.531	3601.35
652.724	3640.26
652.916	3646.41
653.109	3607.5
653.301	3703.75
653.494	3746.76
653.686	3625.93
653.879	3711.94
654.071	3648.46
654.263	3603.4
654.456	3621.83
654.648	3728.33
654.84	3587.02
655.033	3560.39
655.225	3546.06
655.417	3531.72
655.61	3367.88
655.802	3468.24
655.994	3458
656.186	3374.03
656.379	3359.69
656.571	3406.8
656.763	3326.93
656.955	3236.81
657.148	3357.64
657.34	3371.98
657.532	3204.05
657.724	3308.49
657.916	3140.56
658.108	3283.92
658.3	3171.28
658.492	3271.63
658.684	3277.77
658.876	3222.48
659.068	3142.61
659.26	3007.44
659.452	3046.35
659.644	3103.7
659.836	3115.98
660.028	3204.05
660.22	2855.89
660.412	3087.31
660.604	3062.74
660.796	3001.3
660.988	3113.94
661.18	3019.73
661.372	2874.32
661.563	2941.91
661.755	2800.6
661.947	2993.11
662.139	2898.9
662.331	2845.65
662.522	2929.62
662.714	2737.11
662.906	2776.02
663.097	2845.65
663.289	2737.11
663.481	2671.58
663.673	2937.81
663.864	2786.26
664.056	2708.44
664.247	2726.87
664.439	2866.13
664.631	2769.88
664.822	2827.22
665.014	2608.09
665.205	2649.05
665.397	2606.04
665.588	2673.62
665.78	2509.79
665.971	2696.15
666.163	2520.03
666.354	2450.39
666.546	2526.17
666.737	2540.51
666.929	2513.88
667.12	2464.73
667.311	2507.74
667.503	2431.96
667.694	2520.03
667.885	2530.27
668.077	2528.22
668.268	2401.24
668.459	2378.72
668.651	2456.54
668.842	2606.04
669.033	2378.72
669.224	2419.68
669.416	2436.06
669.607	2436.06
669.798	2302.94
669.989	2401.24
670.18	2284.51
670.371	2313.18
670.563	2407.39
670.754	2268.13
670.945	2315.23
671.136	2284.51
671.327	2223.07
671.518	2280.41
671.709	2259.93
671.9	2245.6
672.091	2274.27
672.282	2249.69
672.473	2221.02
672.664	2255.84
672.855	2212.83
673.046	2391
673.237	2319.32
673.428	2180.06
673.619	2261.98
673.809	2159.58
674	2149.34
674.191	2259.93
674.382	2161.63
674.573	2255.84
674.764	2118.62
674.954	2085.86
675.145	2026.47
675.336	2012.13
675.527	2055.14
675.717	2104.29
675.908	2057.18
676.099	2014.18
676.289	2073.57
676.48	1999.84
676.671	1977.31
676.861	2065.38
677.052	2038.75
677.243	1985.51
677.433	2040.8
677.624	1997.79
677.814	1985.51
678.005	2036.7
678.195	2003.94
678.386	1962.98
678.576	1946.59
678.767	1907.68
678.957	1975.27
679.148	2005.99
679.338	2030.56
679.529	2038.75
679.719	1852.39
679.909	1924.07
680.1	1942.5
680.29	1836
680.481	1874.92
680.671	1891.3
680.861	2061.28
681.052	1909.73
681.242	1756.13
681.432	1913.83
681.622	1903.59
681.813	1887.2
682.003	1932.26
682.193	1807.33
682.383	1907.68
682.573	1885.16
682.764	1766.37
682.954	1817.57
683.144	1958.88
683.334	1836
683.524	1846.24
683.714	1907.68
683.904	1846.24
684.094	1666.02
684.284	1852.39
684.474	1813.48
684.664	1932.26
684.854	1737.7
685.044	1774.56
685.234	1762.28
685.424	1764.33
685.614	1696.74
685.804	1768.42
685.994	1833.96
686.184	1754.09
686.374	1737.7
686.564	1600.49
686.753	1731.56
686.943	1639.4
687.133	1639.4
687.323	1657.83
687.513	1657.83
687.702	1663.97
687.892	1629.16
688.082	1694.69
688.272	1719.27
688.461	1674.21
688.651	1643.49
688.841	1616.87
689.03	1639.4
689.22	1696.74
689.41	1631.21
689.599	1582.06
689.789	1612.78
689.979	1709.03
690.168	1614.82
690.358	1528.81
690.547	1586.15
690.737	1598.44
690.926	1582.06
691.116	1534.95
691.305	1625.06
691.495	1588.2
691.684	1475.56
691.874	1500.14
692.063	1493.99
692.252	1412.07
692.442	1496.04
692.631	1467.37
692.82	1512.42
693.01	1477.61
693.199	1516.52
693.388	1485.8
693.578	1528.81
693.767	1506.28
693.956	1467.37
694.146	1442.79
694.335	1328.11
694.524	1395.69
694.713	1539.05
694.902	1432.55
695.092	1407.98
695.281	1420.27
695.47	1506.28
695.659	1491.95
695.848	1293.29
696.037	1483.75
696.226	1416.17
696.415	1469.42
696.604	1553.38
696.793	1446.89
696.982	1455.08
697.171	1393.64
697.36	1436.65
697.549	1344.49
697.738	1369.07
697.927	1360.88
698.116	1467.37
698.305	1416.17
698.494	1350.64
698.683	1436.65
698.872	1385.45
699.061	1407.98
699.25	1434.6
699.438	1416.17
699.627	1461.23
699.816	1453.03
700.005	1311.72
700.193	1399.79
700.382	1330.16
700.571	1346.54
700.76	1381.35
700.948	1375.21
701.137	1379.31
701.326	1350.64
701.514	1412.07
701.703	1475.56
701.892	1471.47
702.08	1473.51
702.269	1328.11
702.457	1391.59
702.646	1440.75
702.834	1391.59
703.023	1264.62
703.212	1369.07
703.4	1379.31
703.589	1332.2
703.777	1303.53
703.965	1270.76
704.154	1342.44
704.342	1391.59
704.531	1401.83
704.719	1248.24
704.907	1414.12
705.096	1330.16
705.284	1399.79
705.472	1377.26
705.661	1391.59
705.849	1416.17
706.037	1418.22
706.226	1321.96
706.414	1387.5
706.602	1444.84
706.79	1369.07
706.979	1393.64
707.167	1401.83
707.355	1383.4
707.543	1315.82
707.731	1399.79
707.919	1463.27
708.107	1367.02
708.296	1326.06
708.484	1379.31
708.672	1416.17
708.86	1410.03
709.048	1326.06
709.236	1328.11
709.424	1358.83
709.612	1428.46
709.8	1514.47
709.988	1369.07
710.176	1422.31
710.364	1354.73
710.551	1356.78
710.739	1293.29
710.927	1375.21
711.115	1397.74
711.303	1326.06
711.491	1412.07
711.679	1377.26
711.866	1387.5
712.054	1293.29
712.242	1332.2
712.43	1293.29
712.617	1391.59
712.805	1424.36
712.993	1311.72
713.181	1334.25
713.368	1338.35
713.556	1424.36
713.744	1328.11
713.931	1418.22
714.119	1393.64
714.306	1311.72
714.494	1444.84
714.682	1397.74
714.869	1364.97
715.057	1352.68
715.244	1352.68
715.432	1326.06
715.619	1467.37
715.807	1307.63
715.994	1399.79
716.182	1313.77
716.369	1483.75
716.556	1371.12
716.744	1258.48
716.931	1311.72
717.119	1348.59
717.306	1381.35
717.493	1360.88
717.681	1356.78
717.868	1344.49
718.055	1367.02
718.242	1381.35
718.43	1283.05
718.617	1424.36
718.804	1371.12
718.991	1399.79
719.179	1350.64
719.366	1293.29
719.553	1448.94
719.74	1328.11
719.927	1270.76
720.114	1393.64
720.301	1321.96
720.488	1336.3
720.676	1373.16
720.863	1352.68
721.05	1358.83
721.237	1397.74
721.424	1367.02
721.611	1289.2
721.798	1465.32
721.985	1276.91
722.172	1391.59
722.358	1385.45
722.545	1315.82
722.732	1440.75
722.919	1436.65
723.106	1295.34
723.293	1399.79
723.48	1430.51
723.667	1256.43
723.853	1313.77
724.04	1389.55
724.227	1309.68
724.414	1367.02
724.6	1258.48
724.787	1418.22
724.974	1356.78
725.161	1266.67
725.347	1256.43
725.534	1285.1
725.72	1367.02
725.907	1385.45
726.094	1305.58
726.28	1330.16
726.467	1260.52
726.653	1330.16
726.84	1305.58
727.027	1246.19
727.213	1375.21
727.4	1360.88
727.586	1317.87
727.773	1317.87
727.959	1256.43
728.145	1209.33
728.332	1285.1
728.518	1252.33
728.705	1344.49
728.891	1295.34
729.077	1313.77
729.264	1264.62
729.45	1283.05
729.636	1395.69
729.823	1332.2
730.009	1256.43
730.195	1262.57
730.382	1158.13
730.568	1287.15
730.754	1309.68
730.94	1297.39
731.126	1256.43
731.313	1244.14
731.499	1174.51
731.685	1186.8
731.871	1270.76
732.057	1199.09
732.243	1238
732.429	1231.85
732.615	1313.77
732.801	1289.2
732.987	1213.42
733.173	1227.76
733.359	1260.52
733.545	1190.89
733.731	1260.52
733.917	1276.91
734.103	1350.64
734.289	1184.75
734.475	1334.25
734.661	1270.76
734.847	1178.61
735.033	1194.99
735.219	1285.1
735.404	1219.57
735.59	1156.08
735.776	1256.43
735.962	1121.26
736.148	1147.89
736.333	1303.53
736.519	1180.65
736.705	1287.15
736.89	1121.26
737.076	1215.47
737.262	1188.85
737.447	1119.21
737.633	1164.27
737.819	1246.19
738.004	1108.98
738.19	1090.54
738.375	1227.76
738.561	1211.37
738.747	1211.37
738.932	1235.95
739.118	1201.13
739.303	1147.89
739.489	1158.13
739.674	1201.13
739.859	1137.65
740.045	1149.93
740.23	1137.65
740.416	1125.36
740.601	1049.58
740.786	1051.63
740.972	1025.01
741.157	1065.97
741.342	1158.13
741.528	1111.02
741.713	1115.12
741.898	1070.06
742.084	1068.02
742.269	988.14
742.454	1158.13
742.639	1127.41
742.824	1055.73
743.01	1139.69
743.195	1104.88
743.38	994.29
743.565	1008.62
743.75	986.1
743.935	1086.45
744.12	1119.21
744.305	883.7
744.49	1039.34
744.675	1016.82
744.86	1002.48
745.045	1065.97
745.23	975.86
745.415	1113.07
745.6	1047.54
745.785	1055.73
745.97	977.91
746.155	977.91
746.34	984.05
746.525	869.36
746.71	902.13
746.895	924.66
747.079	920.56
747.264	922.61
747.449	1000.43
747.634	912.37
747.819	941.04
748.003	850.93
748.188	895.99
748.373	936.95
748.557	807.92
748.742	867.31
748.927	900.08
749.111	912.37
749.296	916.47
749.481	842.74
749.665	908.27
749.85	941.04
750.034	834.55
750.219	750.58
750.404	842.74
750.588	852.98
750.773	875.51
750.957	820.21
751.141	805.88
751.326	734.2
751.51	771.06
751.695	793.59
751.879	738.29
752.064	861.17
752.248	809.97
752.432	902.13
752.617	820.21
752.801	801.78
752.985	764.92
753.17	828.4
753.354	738.29
753.538	678.9
753.722	648.18
753.907	697.33
754.091	635.89
754.275	732.15
754.459	723.96
754.643	701.43
754.828	723.96
755.012	742.39
755.196	668.66
755.38	771.06
755.564	699.38
755.748	568.31
755.932	697.33
756.116	713.72
756.3	711.67
756.484	605.17
756.668	644.09
756.852	625.65
757.036	601.08
757.22	633.85
757.404	560.12
757.588	594.93
757.772	668.66
757.956	588.79
758.14	588.79
758.323	607.22
758.507	683
758.691	588.79
758.875	746.48
759.059	613.37
759.242	556.02
759.426	576.5
759.61	576.5
759.794	560.12
759.977	623.61
760.161	705.53
760.345	633.85
760.528	637.94
760.712	599.03
760.895	588.79
761.079	558.07
761.263	535.54
761.446	560.12
761.63	523.26
761.813	562.17
761.997	424.95
762.18	574.46
762.364	588.79
762.547	517.11
762.731	570.36
762.914	502.78
763.098	502.78
763.281	531.45
763.464	560.12
763.648	556.02
763.831	539.64
764.015	539.64
764.198	553.98
764.381	498.68
764.564	494.58
764.748	601.08
764.931	558.07
765.114	490.49
765.297	531.45
765.481	486.39
765.664	498.68
765.847	465.91
766.03	467.96
766.213	439.29
766.397	535.54
766.58	492.54
766.763	435.19
766.946	412.67
767.129	463.86
767.312	508.92
767.495	478.2
767.678	443.39
767.861	504.82
768.044	474.1
768.227	523.26
768.41	433.15
768.593	474.1
768.776	435.19
768.959	365.56
769.142	392.19
769.324	424.95
769.507	476.15
769.69	416.76
769.873	461.82
770.056	541.69
770.239	422.91
770.421	496.63
770.604	435.19
770.787	474.1
770.97	465.91
771.152	488.44
771.335	463.86
771.518	404.47
771.7	490.49
771.883	513.02
772.066	437.24
772.248	435.19
772.431	392.19
772.613	457.72
772.796	486.39
772.978	373.75
773.161	478.2
773.343	394.23
773.526	369.66
773.708	365.56
773.891	449.53
774.073	435.19
774.256	293.88
774.438	449.53
774.621	414.71
774.803	363.51
774.985	396.28
775.168	377.85
775.35	353.27
775.532	480.25
775.715	369.66
775.897	459.77
776.079	392.19
776.261	351.23
776.444	371.71
776.626	328.7
776.808	388.09
776.99	326.65
777.173	396.28
777.355	326.65
777.537	420.86
777.719	441.34
777.901	349.18
778.083	289.79
778.265	357.37
778.447	349.18
778.629	277.5
778.811	320.51
778.993	379.9
779.175	320.51
779.357	343.03
779.539	302.08
779.721	357.37
779.903	343.03
780.085	328.7
780.267	379.9
780.449	318.46
780.631	330.75
780.812	269.31
780.994	318.46
781.176	254.97
781.358	316.41
781.54	328.7
781.721	220.16
781.903	271.36
782.085	283.64
782.267	273.4
782.448	314.36
782.63	291.84
782.812	310.27
782.993	377.85
783.175	257.02
783.357	218.11
783.538	334.84
783.72	207.87
783.901	195.58
784.083	207.87
784.264	269.31
784.446	220.16
784.627	154.62
784.809	250.88
784.99	244.73
785.172	261.12
785.353	259.07
785.535	285.69
785.716	297.98
785.897	179.2
786.079	228.35
786.26	261.12
786.441	244.73
786.623	228.35
786.804	166.91
786.985	248.83
787.167	259.07
787.348	207.87
787.529	154.62
787.71	259.07
787.891	154.62
788.073	205.82
788.254	207.87
788.435	211.96
788.616	269.31
788.797	259.07
788.978	187.39
789.159	125.95
789.34	285.69
789.522	261.12
789.703	168.96
789.884	250.88
790.065	171.01
790.246	240.64
790.427	197.63
790.607	252.92
790.788	191.49
790.969	136.19
791.15	236.54
791.331	154.62
791.512	187.39
791.693	183.29
791.874	228.35
792.054	263.16
792.235	222.2
792.416	171.01
792.597	130.05
792.778	171.01
792.958	259.07
793.139	72.7
793.32	183.29
793.5	101.37
793.681	125.95
793.862	195.58
794.042	168.96
794.223	48.13
794.404	173.05
794.584	99.33
794.765	146.43
794.945	72.7
795.126	171.01
795.306	199.68
795.487	91.13
795.667	154.62
795.848	113.66
796.028	183.29
796.209	113.66
796.389	195.58
796.57	101.37
796.75	158.72
796.93	138.24
797.111	132.09
797.291	130.05
797.471	123.9
797.652	105.47
797.832	195.58
798.012	185.34
798.192	121.85
798.373	82.94
798.553	179.2
798.733	125.95
798.913	113.66
799.093	138.24
799.274	146.43
799.454	158.72
799.634	148.48
799.814	189.44
799.994	162.81
800.174	224.25
800.354	132.09
800.534	99.33
800.714	195.58
800.894	128
801.074	97.28
801.254	164.86
801.434	132.09
801.614	74.75
801.794	166.91
801.974	801.78
802.154	128
802.334	60.42
802.514	82.94
802.693	121.85
802.873	97.28
803.053	216.06
803.233	134.14
803.413	97.28
803.592	125.95
803.772	132.09
803.952	187.39
804.131	56.32
804.311	154.62
804.491	29.7
804.67	101.37
804.85	115.71
805.03	146.43
805.209	152.57
805.389	91.13
805.568	123.9
805.748	99.33
805.928	80.89
806.107	132.09
806.287	97.28
806.466	41.98
806.646	76.8
806.825	93.18
807.004	68.61
807.184	130.05
807.363	154.62
807.543	109.57
807.722	78.85
807.901	109.57
808.081	119.81
808.26	-9.22
808.439	103.42
808.619	-3.07
808.798	64.51
808.977	140.29
809.156	46.08
809.336	117.76
809.515	97.28
809.694	9.22
809.873	23.55
810.052	105.47
810.231	48.13
810.411	101.37
810.59	66.56
810.769	70.65
810.948	134.14
811.127	66.56
811.306	103.42
811.485	97.28
811.664	113.66
811.843	46.08
812.022	134.14
812.201	97.28
812.38	84.99
812.559	54.27
812.737	154.62
812.916	68.61
813.095	27.65
813.274	91.13
813.453	119.81
813.632	54.27
813.811	82.94
813.989	44.03
814.168	35.84
814.347	121.85
814.526	91.13
814.704	72.7
814.883	50.18
815.062	52.22
815.24	91.13
815.419	37.89
815.598	66.56
815.776	-58.37
815.955	25.6
816.133	41.98
816.312	44.03
816.49	76.8
816.669	80.89
816.847	-5.12
817.026	130.05
817.204	109.57
817.383	62.46
817.561	-3.07
817.74	91.13
817.918	89.09
818.097	78.85
818.275	31.74
818.453	115.71
818.632	80.89
818.81	31.74
818.988	-31.74
819.167	7.17
819.345	-7.17
819.523	-33.79
819.701	91.13
819.879	33.79
820.058	44.03
820.236	-9.22
820.414	37.89
820.592	-9.22
820.77	146.43
820.948	60.42
821.127	37.89
821.305	64.51
821.483	132.09
821.661	132.09
821.839	23.55
822.017	46.08
822.195	113.66
822.373	68.61
822.551	-21.5
822.729	97.28
822.907	44.03
823.085	72.7
823.262	70.65
823.44	-37.89
823.618	23.55
823.796	138.24
823.974	25.6
824.152	58.37
824.329	64.51
824.507	50.18
824.685	17.41
824.863	23.55
825.04	5.12
825.218	76.8
825.396	39.94
825.574	64.51
825.751	31.74
825.929	46.08
826.107	84.99
826.284	1.02
826.462	64.51
826.639	-31.74
826.817	60.42
826.994	130.05
827.172	-9.22
827.349	50.18
827.527	95.23
827.704	136.19
827.882	44.03
828.059	113.66
828.237	-27.65
828.414	140.29
828.591	33.79
828.769	113.66
828.946	-50.18
829.124	48.13
829.301	17.41
829.478	41.98
829.655	21.5
829.833	48.13
830.01	50.18
830.187	-3.07
830.364	11.26
830.542	119.81
830.719	29.7
830.896	-17.41
831.073	64.51
831.25	54.27
831.427	136.19
831.604	1.02
831.782	19.46
831.959	121.85
832.136	29.7
832.313	52.22
832.49	48.13
832.667	97.28
832.844	31.74
833.021	41.98
833.198	19.46
833.374	99.33
833.551	23.55
833.728	-41.98
833.905	11.26
834.082	-25.6
834.259	39.94
834.436	74.75
834.612	-13.31
834.789	-3.07
834.966	7.17
835.143	37.89
835.319	-11.26
835.496	80.89
835.673	23.55
835.85	17.41
836.026	-5.12
836.203	58.37
836.38	5.12
836.556	25.6
836.733	3.07
836.909	99.33
837.086	41.98
837.262	27.65
837.439	25.6
837.616	48.13
837.792	121.85
837.968	52.22
838.145	-25.6
838.321	31.74
838.498	23.55
838.674	35.84
838.851	-15.36
839.027	19.46
839.203	52.22
839.38	46.08
839.556	74.75
839.732	-5.12
839.909	82.94
840.085	58.37
840.261	66.56
840.437	70.65
840.614	-23.55
840.79	48.13
840.966	31.74
841.142	-3.07
841.318	-52.22
841.494	25.6
841.671	37.89
841.847	9.22
842.023	-1.02
842.199	-58.37
842.375	76.8
842.551	-15.36
842.727	-7.17
842.903	82.94
843.079	-25.6
843.255	27.65
843.431	58.37
843.607	70.65
843.783	-41.98
843.959	27.65
844.134	15.36
844.31	64.51
844.486	60.42
844.662	-11.26
844.838	-33.79
845.013	-11.26
845.189	31.74
845.365	80.89
845.541	15.36
845.716	62.46
845.892	50.18
846.068	1.02
846.244	-11.26
846.419	-17.41
846.595	-37.89
846.77	23.55
846.946	60.42
847.122	91.13
847.297	7.17
847.473	91.13
847.648	-33.79
847.824	64.51
847.999	-33.79
848.175	-1.02
848.35	-25.6
848.526	3.07
848.701	21.5
848.876	5.12
849.052	74.75
849.227	9.22
849.403	19.46
849.578	48.13
849.753	37.89
849.929	-3.07
850.104	9.22
850.279	-35.84
850.454	1.02
850.63	-46.08
850.805	-13.31
850.98	3.07
851.155	7.17
851.33	19.46
851.505	17.41
851.681	105.47
851.856	-9.22
852.031	1.02
852.206	5.12
852.381	48.13
852.556	-19.46
852.731	64.51
852.906	64.51
853.081	44.03
853.256	60.42
853.431	21.5
853.606	5.12
853.781	3.07
853.956	7.17
854.131	1.02
854.305	50.18
854.48	50.18
854.655	-39.94
854.83	15.36
855.005	1.02
855.18	-29.7
855.354	35.84
855.529	31.74
855.704	39.94
855.879	21.5
856.053	19.46
856.228	44.03
856.403	-3.07
856.577	19.46
856.752	-99.33
856.926	46.08
857.101	11.26
857.276	31.74
857.45	11.26
857.625	62.46
857.799	64.51
857.974	-11.26
858.148	-56.32
858.323	35.84
858.497	-25.6
858.672	-37.89
858.846	-41.98
859.02	68.61
859.195	-44.03
859.369	-31.74
859.543	-37.89
859.718	9.22
859.892	72.7
860.066	89.09
860.241	-68.61
860.415	-19.46
860.589	-50.18
860.763	64.51
860.938	-33.79
861.112	117.76
861.286	-41.98
861.46	-9.22
861.634	-9.22
861.808	11.26
861.982	-64.51
862.157	-3.07
862.331	15.36
862.505	7.17
862.679	-105.47
862.853	39.94
863.027	70.65
863.201	66.56
863.375	-41.98
863.549	39.94
863.722	-9.22
863.896	29.7
864.07	-54.27
864.244	60.42
864.418	23.55
864.592	125.95
864.766	41.98
864.939	-23.55
865.113	-72.7
865.287	-64.51
865.461	-46.08
865.634	39.94
865.808	21.5
865.982	27.65
866.156	-27.65
866.329	-46.08
866.503	19.46
866.676	1.02
866.85	48.13
867.024	-7.17
867.197	7.17
867.371	17.41
867.544	-31.74
867.718	-52.22
867.891	60.42
868.065	-41.98
868.238	-70.65
868.412	7.17
868.585	-37.89
868.759	70.65
868.932	-54.27
869.105	-35.84
869.279	46.08
869.452	-1.02
869.625	-39.94
869.799	50.18
869.972	66.56
870.145	11.26
870.319	58.37
870.492	17.41
870.665	-25.6
870.838	15.36
871.011	-41.98
871.185	-52.22
871.358	17.41
871.531	-41.98
871.704	-23.55
871.877	3.07
872.05	-111.61
872.223	-89.09
872.396	-99.33
872.569	39.94
872.742	27.65
872.915	-7.17
873.088	-54.27
873.261	-25.6
873.434	7.17
873.607	70.65
873.78	39.94
873.953	-1.02
874.126	23.55
874.299	46.08
874.471	13.31
874.644	-41.98
874.817	9.22
874.99	64.51
875.163	-1.02
875.335	31.74
875.508	-15.36
875.681	52.22
875.853	13.31
876.026	-48.13
876.199	-25.6
876.371	23.55
876.544	9.22
876.717	41.98
876.889	19.46
877.062	3.07
877.234	-27.65
877.407	-105.47
877.579	-54.27
877.752	41.98
877.924	11.26
878.097	9.22
878.269	-29.7
878.442	25.6
878.614	-15.36
878.786	25.6
878.959	7.17
879.131	7.17
879.303	-9.22
879.476	5.12
879.648	17.41
879.82	39.94
879.993	25.6
880.165	50.18
880.337	1.02
880.509	-9.22
880.681	-56.32
880.854	-19.46
881.026	17.41
881.198	58.37
881.37	15.36
881.542	17.41
881.714	-5.12
881.886	-1.02
882.058	-13.31
882.23	31.74
882.402	-1.02
882.574	1.02
882.746	-5.12
882.918	-13.31
883.09	-11.26
883.262	-17.41
883.434	48.13
883.606	23.55
883.778	23.55
883.95	62.46
884.122	11.26
884.293	-19.46
884.465	-1.02
884.637	80.89
884.809	-13.31
884.98	-54.27
885.152	-9.22
885.324	7.17
885.496	15.36
885.667	-15.36
885.839	39.94
886.011	13.31
886.182	15.36
886.354	23.55
886.525	33.79
886.697	37.89
886.869	-31.74
887.04	1.02
887.212	21.5
887.383	-11.26
887.555	15.36
887.726	17.41
887.897	11.26
888.069	1.02
888.24	-1.02
888.412	23.55
888.583	-50.18
888.754	-41.98
888.926	-87.04
889.097	-41.98
889.268	-58.37
889.44	-31.74
889.611	-54.27
889.782	-17.41
889.953	68.61
890.125	-54.27
890.296	-82.94
890.467	-23.55
890.638	21.5
890.809	-15.36
890.98	-82.94
891.151	15.36
891.323	56.32
891.494	-7.17
891.665	-31.74
891.836	-17.41
892.007	-15.36
892.178	-35.84
892.349	7.17
892.52	-11.26
892.691	-1.02
892.862	17.41
893.032	-58.37
893.203	-128
893.374	-7.17
893.545	17.41
893.716	-11.26
893.887	70.65
894.057	-35.84
894.228	-27.65
894.399	-58.37
894.57	48.13
894.74	-33.79
894.911	31.74
895.082	-41.98
895.253	7.17
895.423	76.8
895.594	44.03
895.764	13.31
895.935	11.26
896.106	-23.55
896.276	48.13
896.447	-33.79
896.617	-19.46
896.788	-41.98
896.958	-25.6
897.129	-33.79
897.299	-91.13
897.47	15.36
897.64	25.6
897.81	-9.22
897.981	1.02
898.151	-33.79
898.322	41.98
898.492	31.74
898.662	-35.84
898.832	-72.7
899.003	33.79
899.173	-17.41
899.343	7.17
899.513	-74.75
