Data from USB4F104151__84__13-12-35-652.txt Node

Date: Fri Mar 14 13:12:35 EDT 2025
User: louis
Spectrometer: USB4F10415
Trigger mode: 4
Integration Time (sec): 2.000000E-2
Scans to average: 1
Electric dark correction enabled: true
Nonlinearity correction enabled: false
Boxcar width: 0
XAxis mode: Wavelengths
Number of Pixels in Spectrum: 3648
>>>>>Begin Spectral Data<<<<<
178.204	-110.76
178.424	-110.76
178.644	-110.76
178.864	-84.14
179.084	-73.9
179.304	-30.89
179.524	-55.47
179.744	-14.51
179.964	34.64
180.184	26.45
180.404	46.93
180.624	-2.22
180.844	8.02
181.064	-30.89
181.283	-6.31
181.503	18.26
181.723	5.97
181.943	-90.28
182.163	40.79
182.383	-92.33
182.602	16.21
182.822	91.99
183.042	-26.79
183.262	42.84
183.482	1.88
183.701	40.79
183.921	75.6
184.141	5.97
184.361	38.74
184.58	8.02
184.8	-88.23
185.02	-41.13
185.239	75.6
185.459	-12.46
185.679	67.41
185.898	12.12
186.118	104.28
186.338	30.55
186.557	57.17
186.777	75.6
186.997	30.55
187.216	-6.31
187.436	32.6
187.655	-10.41
187.875	153.43
188.095	-22.7
188.314	61.27
188.534	-37.03
188.753	38.74
188.973	81.75
189.192	22.36
189.412	28.5
189.631	5.97
189.851	18.26
190.07	10.07
190.29	-55.47
190.509	51.03
190.729	59.22
190.948	91.99
191.168	8.02
191.387	98.13
191.607	-10.41
191.826	5.97
192.045	42.84
192.265	-49.32
192.484	46.93
192.704	46.93
192.923	-51.37
193.142	-24.75
193.362	73.56
193.581	-8.36
193.8	-47.27
194.02	14.17
194.239	-51.37
194.458	-24.75
194.678	14.17
194.897	14.17
195.116	20.31
195.335	57.17
195.555	79.7
195.774	28.5
195.993	110.42
196.212	38.74
196.432	-20.65
196.651	-67.75
196.87	30.55
197.089	83.8
197.308	-0.17
197.528	-28.84
197.747	63.32
197.966	55.12
198.185	24.4
198.404	-2.22
198.623	61.27
198.842	-24.75
199.062	57.17
199.281	-12.46
199.5	-4.27
199.719	61.27
199.938	1.88
200.157	71.51
200.376	-82.09
200.595	30.55
200.814	30.55
201.033	1.88
201.252	-2.22
201.471	34.64
201.69	-34.99
201.909	-2.22
202.128	14.17
202.347	-24.75
202.566	-0.17
202.785	-26.79
203.004	63.32
203.223	65.36
203.442	8.02
203.661	10.07
203.879	3.93
204.098	22.36
204.317	36.69
204.536	22.36
204.755	75.6
204.974	-73.9
205.193	83.8
205.411	79.7
205.63	-18.6
205.849	-0.17
206.068	-28.84
206.287	-26.79
206.505	-10.41
206.724	5.97
206.943	-30.89
207.162	63.32
207.381	30.55
207.599	73.56
207.818	14.17
208.037	30.55
208.255	38.74
208.474	73.56
208.693	51.03
208.911	-34.99
209.13	55.12
209.349	-4.27
209.567	12.12
209.786	42.84
210.005	36.69
210.223	-39.08
210.442	53.08
210.661	38.74
210.879	16.21
211.098	-12.46
211.316	77.65
211.535	53.08
211.753	10.07
211.972	-8.36
212.191	44.88
212.409	65.36
212.628	63.32
212.846	71.51
213.065	40.79
213.283	57.17
213.502	12.12
213.72	-65.71
213.938	-10.41
214.157	14.17
214.375	42.84
214.594	-41.13
214.812	-0.17
215.031	-84.14
215.249	-18.6
215.467	-12.46
215.686	28.5
215.904	22.36
216.122	-8.36
216.341	42.84
216.559	36.69
216.778	12.12
216.996	42.84
217.214	22.36
217.432	40.79
217.651	-10.41
217.869	-59.56
218.087	-32.94
218.306	36.69
218.524	38.74
218.742	-24.75
218.96	-2.22
219.179	-32.94
219.397	81.75
219.615	-4.27
219.833	38.74
220.051	8.02
220.27	30.55
220.488	61.27
220.706	5.97
220.924	-24.75
221.142	-2.22
221.36	-32.94
221.578	-10.41
221.796	-14.51
222.015	22.36
222.233	44.88
222.451	-45.23
222.669	-41.13
222.887	26.45
223.105	48.98
223.323	-92.33
223.541	-26.79
223.759	32.6
223.977	-53.42
224.195	38.74
224.413	40.79
224.631	-14.51
224.849	-10.41
225.067	26.45
225.285	42.84
225.503	5.97
225.721	-4.27
225.939	24.4
226.157	-6.31
226.375	10.07
226.592	34.64
226.81	26.45
227.028	65.36
227.246	63.32
227.464	40.79
227.682	46.93
227.9	34.64
228.117	-24.75
228.335	-26.79
228.553	18.26
228.771	30.55
228.989	-0.17
229.206	44.88
229.424	51.03
229.642	-2.22
229.86	16.21
230.077	106.32
230.295	38.74
230.513	-18.6
230.731	-24.75
230.948	83.8
231.166	100.18
231.384	-30.89
231.601	24.4
231.819	-2.22
232.037	-51.37
232.254	16.21
232.472	5.97
232.689	-73.9
232.907	14.17
233.125	-20.65
233.342	-12.46
233.56	-2.22
233.777	10.07
233.995	24.4
234.213	96.08
234.43	-12.46
234.648	-75.95
234.865	22.36
235.083	32.6
235.3	16.21
235.518	28.5
235.735	38.74
235.953	40.79
236.17	18.26
236.388	38.74
236.605	-6.31
236.822	104.28
237.04	5.97
237.257	48.98
237.475	-24.75
237.692	-2.22
237.909	36.69
238.127	1.88
238.344	5.97
238.562	57.17
238.779	5.97
238.996	18.26
239.214	48.98
239.431	48.98
239.648	-32.94
239.865	-0.17
240.083	5.97
240.3	55.12
240.517	55.12
240.735	40.79
240.952	3.93
241.169	40.79
241.386	63.32
241.603	30.55
241.821	-28.84
242.038	59.22
242.255	-12.46
242.472	-14.51
242.689	32.6
242.907	20.31
243.124	67.41
243.341	20.31
243.558	-43.18
243.775	71.51
243.992	14.17
244.209	26.45
244.426	65.36
244.643	-55.47
244.86	48.98
245.078	100.18
245.295	5.97
245.512	30.55
245.729	-34.99
245.946	71.51
246.163	-26.79
246.38	-47.27
246.597	14.17
246.814	-39.08
247.031	40.79
247.248	55.12
247.464	1.88
247.681	22.36
247.898	-4.27
248.115	18.26
248.332	24.4
248.549	57.17
248.766	18.26
248.983	34.64
249.2	30.55
249.417	44.88
249.633	-6.31
249.85	34.64
250.067	-43.18
250.284	38.74
250.501	44.88
250.717	12.12
250.934	12.12
251.151	-37.03
251.368	5.97
251.585	57.17
251.801	8.02
252.018	-41.13
252.235	-37.03
252.451	-57.51
252.668	14.17
252.885	10.07
253.102	-22.7
253.318	26.45
253.535	-18.6
253.752	34.64
253.968	-2.22
254.185	24.4
254.401	-18.6
254.618	40.79
254.835	16.21
255.051	42.84
255.268	67.41
255.484	36.69
255.701	34.64
255.917	-24.75
256.134	22.36
256.351	89.94
256.567	-24.75
256.784	98.13
257	-34.99
257.217	38.74
257.433	22.36
257.65	59.22
257.866	26.45
258.082	-10.41
258.299	30.55
258.515	38.74
258.732	96.08
258.948	-2.22
259.165	34.64
259.381	14.17
259.597	38.74
259.814	48.98
260.03	10.07
260.246	32.6
260.463	38.74
260.679	1.88
260.895	34.64
261.112	-14.51
261.328	-59.56
261.544	14.17
261.761	63.32
261.977	57.17
262.193	14.17
262.409	34.64
262.626	67.41
262.842	10.07
263.058	-20.65
263.274	51.03
263.49	81.75
263.707	38.74
263.923	-14.51
264.139	24.4
264.355	-65.71
264.571	67.41
264.787	-28.84
265.004	8.02
265.22	79.7
265.436	18.26
265.652	-12.46
265.868	10.07
266.084	-6.31
266.3	-53.42
266.516	5.97
266.732	10.07
266.948	-0.17
267.164	-39.08
267.38	122.71
267.596	42.84
267.812	81.75
268.028	51.03
268.244	-24.75
268.46	-12.46
268.676	-28.84
268.892	-16.55
269.108	59.22
269.324	24.4
269.54	-63.66
269.756	91.99
269.972	-30.89
270.188	24.4
270.403	-61.61
270.619	55.12
270.835	-32.94
271.051	-8.36
271.267	-32.94
271.483	-0.17
271.698	24.4
271.914	79.7
272.13	55.12
272.346	1.88
272.562	32.6
272.777	-26.79
272.993	46.93
273.209	69.46
273.425	55.12
273.64	51.03
273.856	-2.22
274.072	18.26
274.287	8.02
274.503	38.74
274.719	28.5
274.934	30.55
275.15	-49.32
275.366	-4.27
275.581	-8.36
275.797	55.12
276.012	91.99
276.228	-47.27
276.444	48.98
276.659	65.36
276.875	-59.56
277.09	5.97
277.306	1.88
277.521	48.98
277.737	8.02
277.952	79.7
278.168	12.12
278.383	8.02
278.599	-6.31
278.814	-26.79
279.03	-14.51
279.245	75.6
279.461	1.88
279.676	67.41
279.892	-30.89
280.107	16.21
280.322	1.88
280.538	-43.18
280.753	-24.75
280.969	-14.51
281.184	-8.36
281.399	14.17
281.615	22.36
281.83	-47.27
282.045	108.37
282.26	8.02
282.476	-55.47
282.691	8.02
282.906	14.17
283.122	-18.6
283.337	-26.79
283.552	-8.36
283.767	-34.99
283.983	1.88
284.198	55.12
284.413	51.03
284.628	46.93
284.843	14.17
285.058	3.93
285.274	28.5
285.489	-22.7
285.704	22.36
285.919	22.36
286.134	10.07
286.349	32.6
286.564	-18.6
286.779	16.21
286.995	34.64
287.21	-49.32
287.425	8.02
287.64	48.98
287.855	51.03
288.07	-51.37
288.285	-43.18
288.5	8.02
288.715	-0.17
288.93	-14.51
289.145	-22.7
289.36	-18.6
289.575	22.36
289.79	40.79
290.004	10.07
290.219	8.02
290.434	10.07
290.649	-8.36
290.864	22.36
291.079	-51.37
291.294	5.97
291.509	-18.6
291.724	8.02
291.938	-14.51
292.153	51.03
292.368	-43.18
292.583	1.88
292.798	-32.94
293.012	48.98
293.227	48.98
293.442	-71.85
293.657	53.08
293.871	128.85
294.086	63.32
294.301	44.88
294.516	1.88
294.73	-10.41
294.945	-41.13
295.16	18.26
295.374	51.03
295.589	59.22
295.804	-18.6
296.018	67.41
296.233	42.84
296.447	59.22
296.662	-24.75
296.877	28.5
297.091	18.26
297.306	63.32
297.52	-59.56
297.735	22.36
297.949	12.12
298.164	12.12
298.378	1.88
298.593	1.88
298.807	-6.31
299.022	55.12
299.236	-16.55
299.451	-51.37
299.665	10.07
299.88	-32.94
300.094	-51.37
300.309	26.45
300.523	-24.75
300.737	20.31
300.952	22.36
301.166	36.69
301.381	-20.65
301.595	-14.51
301.809	-8.36
302.024	-10.41
302.238	14.17
302.452	30.55
302.667	-34.99
302.881	61.27
303.095	32.6
303.309	18.26
303.524	-8.36
303.738	20.31
303.952	20.31
304.166	-12.46
304.381	-26.79
304.595	1.88
304.809	-59.56
305.023	1.88
305.237	22.36
305.452	5.97
305.666	-18.6
305.88	42.84
306.094	-26.79
306.308	-8.36
306.522	57.17
306.736	3.93
306.95	14.17
307.164	-63.66
307.379	-75.95
307.593	59.22
307.807	18.26
308.021	22.36
308.235	22.36
308.449	36.69
308.663	44.88
308.877	-0.17
309.091	5.97
309.305	-2.22
309.519	-34.99
309.733	63.32
309.947	-18.6
310.161	-4.27
310.374	34.64
310.588	55.12
310.802	-10.41
311.016	5.97
311.23	-8.36
311.444	28.5
311.658	-8.36
311.872	96.08
312.085	91.99
312.299	44.88
312.513	10.07
312.727	53.08
312.941	-71.85
313.154	-26.79
313.368	46.93
313.582	63.32
313.796	-26.79
314.009	42.84
314.223	59.22
314.437	22.36
314.651	16.21
314.864	-0.17
315.078	-39.08
315.292	36.69
315.505	20.31
315.719	-0.17
315.933	94.04
316.146	28.5
316.36	28.5
316.573	5.97
316.787	51.03
317.001	30.55
317.214	-30.89
317.428	51.03
317.641	14.17
317.855	30.55
318.068	34.64
318.282	-0.17
318.495	42.84
318.709	48.98
318.922	36.69
319.136	91.99
319.349	22.36
319.563	-57.51
319.776	-14.51
319.99	-34.99
320.203	20.31
320.417	-67.75
320.63	98.13
320.843	55.12
321.057	83.8
321.27	12.12
321.483	20.31
321.697	32.6
321.91	14.17
322.124	-6.31
322.337	53.08
322.55	30.55
322.763	34.64
322.977	38.74
323.19	16.21
323.403	40.79
323.617	48.98
323.83	30.55
324.043	65.36
324.256	-2.22
324.469	-2.22
324.683	55.12
324.896	34.64
325.109	48.98
325.322	5.97
325.535	-26.79
325.748	36.69
325.962	14.17
326.175	-22.7
326.388	-8.36
326.601	44.88
326.814	24.4
327.027	40.79
327.24	139.09
327.453	-22.7
327.666	44.88
327.879	40.79
328.092	-16.55
328.305	-6.31
328.518	-8.36
328.731	38.74
328.944	85.84
329.157	3.93
329.37	28.5
329.583	-18.6
329.796	59.22
330.009	-34.99
330.222	55.12
330.435	40.79
330.648	51.03
330.861	55.12
331.073	28.5
331.286	59.22
331.499	10.07
331.712	-18.6
331.925	16.21
332.138	42.84
332.35	51.03
332.563	-16.55
332.776	-30.89
332.989	-57.51
333.202	14.17
333.414	63.32
333.627	-22.7
333.84	-10.41
334.053	-28.84
334.265	-8.36
334.478	53.08
334.691	24.4
334.903	14.17
335.116	18.26
335.329	12.12
335.541	-26.79
335.754	1.88
335.966	-30.89
336.179	40.79
336.392	-18.6
336.604	57.17
336.817	16.21
337.029	46.93
337.242	-75.95
337.454	81.75
337.667	-28.84
337.88	63.32
338.092	-32.94
338.305	16.21
338.517	16.21
338.729	36.69
338.942	30.55
339.154	55.12
339.367	-92.33
339.579	-16.55
339.792	-14.51
340.004	26.45
340.217	36.69
340.429	34.64
340.641	-37.03
340.854	8.02
341.066	48.98
341.278	81.75
341.491	85.84
341.703	16.21
341.915	-0.17
342.128	1.88
342.34	53.08
342.552	-28.84
342.764	14.17
342.977	1.88
343.189	-10.41
343.401	-20.65
343.613	-59.56
343.826	1.88
344.038	5.97
344.25	-16.55
344.462	-51.37
344.674	-18.6
344.886	32.6
345.099	38.74
345.311	-0.17
345.523	-41.13
345.735	-82.09
345.947	-12.46
346.159	18.26
346.371	57.17
346.583	8.02
346.795	-32.94
347.007	-2.22
347.219	24.4
347.431	42.84
347.643	30.55
347.855	22.36
348.067	22.36
348.279	24.4
348.491	10.07
348.703	46.93
348.915	85.84
349.127	26.45
349.339	20.31
349.551	20.31
349.763	83.8
349.975	5.97
350.187	-6.31
350.399	55.12
350.61	24.4
350.822	-71.85
351.034	59.22
351.246	34.64
351.458	-14.51
351.669	55.12
351.881	67.41
352.093	20.31
352.305	-20.65
352.517	-8.36
352.728	48.98
352.94	-24.75
353.152	24.4
353.363	-8.36
353.575	71.51
353.787	-18.6
353.999	30.55
354.21	8.02
354.422	46.93
354.633	73.56
354.845	46.93
355.057	-59.56
355.268	10.07
355.48	40.79
355.692	-18.6
355.903	30.55
356.115	-10.41
356.326	-8.36
356.538	87.89
356.749	38.74
356.961	18.26
357.172	51.03
357.384	14.17
357.595	59.22
357.807	-2.22
358.018	5.97
358.23	-51.37
358.441	91.99
358.653	-30.89
358.864	5.97
359.075	-16.55
359.287	-43.18
359.498	100.18
359.709	67.41
359.921	38.74
360.132	-12.46
360.344	30.55
360.555	-30.89
360.766	42.84
360.977	42.84
361.189	69.46
361.4	57.17
361.611	12.12
361.823	61.27
362.034	20.31
362.245	-57.51
362.456	-24.75
362.667	14.17
362.879	24.4
363.09	20.31
363.301	-6.31
363.512	42.84
363.723	46.93
363.935	-12.46
364.146	124.76
364.357	30.55
364.568	83.8
364.779	48.98
364.99	5.97
365.201	-57.51
365.412	48.98
365.623	24.4
365.834	8.02
366.045	-6.31
366.256	5.97
366.467	-24.75
366.678	8.02
366.889	20.31
367.1	18.26
367.311	-12.46
367.522	-28.84
367.733	85.84
367.944	38.74
368.155	98.13
368.366	-14.51
368.577	40.79
368.788	-0.17
368.999	-6.31
369.209	-55.47
369.42	38.74
369.631	28.5
369.842	44.88
370.053	-6.31
370.264	53.08
370.474	65.36
370.685	10.07
370.896	-0.17
371.107	44.88
371.317	57.17
371.528	-80.04
371.739	-34.99
371.95	-18.6
372.16	65.36
372.371	-2.22
372.582	-63.66
372.792	3.93
373.003	65.36
373.214	-4.27
373.424	38.74
373.635	-55.47
373.846	87.89
374.056	-43.18
374.267	-10.41
374.477	14.17
374.688	63.32
374.898	-16.55
375.109	8.02
375.319	-12.46
375.53	71.51
375.74	-14.51
375.951	38.74
376.161	30.55
376.372	5.97
376.582	-37.03
376.793	20.31
377.003	12.12
377.214	40.79
377.424	18.26
377.635	48.98
377.845	28.5
378.055	38.74
378.266	42.84
378.476	65.36
378.686	75.6
378.897	5.97
379.107	8.02
379.317	32.6
379.528	20.31
379.738	10.07
379.948	-86.19
380.158	16.21
380.369	-2.22
380.579	89.94
380.789	-6.31
380.999	5.97
381.21	8.02
381.42	-2.22
381.63	63.32
381.84	-24.75
382.05	-14.51
382.261	-0.17
382.471	-0.17
382.681	-2.22
382.891	55.12
383.101	40.79
383.311	-41.13
383.521	71.51
383.731	10.07
383.941	44.88
384.151	87.89
384.361	-30.89
384.571	94.04
384.781	91.99
384.991	-18.6
385.201	-2.22
385.411	24.4
385.621	-20.65
385.831	-8.36
386.041	14.17
386.251	-16.55
386.461	14.17
386.671	-28.84
386.881	69.46
387.091	40.79
387.301	36.69
387.511	-2.22
387.72	1.88
387.93	18.26
388.14	-55.47
388.35	24.4
388.56	14.17
388.769	24.4
388.979	-2.22
389.189	24.4
389.399	83.8
389.609	40.79
389.818	44.88
390.028	38.74
390.238	81.75
390.447	16.21
390.657	53.08
390.867	3.93
391.076	57.17
391.286	22.36
391.496	-6.31
391.705	36.69
391.915	22.36
392.125	-28.84
392.334	-47.27
392.544	55.12
392.753	69.46
392.963	3.93
393.172	81.75
393.382	1.88
393.591	59.22
393.801	-6.31
394.01	71.51
394.22	24.4
394.429	26.45
394.639	18.26
394.848	12.12
395.058	-28.84
395.267	26.45
395.477	22.36
395.686	22.36
395.895	94.04
396.105	-2.22
396.314	51.03
396.524	14.17
396.733	-26.79
396.942	44.88
397.152	14.17
397.361	75.6
397.57	-14.51
397.78	-2.22
397.989	1.88
398.198	112.47
398.407	32.6
398.617	81.75
398.826	-6.31
399.035	63.32
399.244	16.21
399.453	40.79
399.663	38.74
399.872	42.84
400.081	-43.18
400.29	16.21
400.499	-37.03
400.708	151.38
400.917	16.21
401.127	55.12
401.336	30.55
401.545	147.28
401.754	5.97
401.963	-10.41
402.172	-41.13
402.381	8.02
402.59	63.32
402.799	14.17
403.008	67.41
403.217	67.41
403.426	28.5
403.635	-10.41
403.844	12.12
404.053	-0.17
404.262	51.03
404.471	73.56
404.68	104.28
404.888	-8.36
405.097	34.64
405.306	73.56
405.515	157.52
405.724	30.55
405.933	-22.7
406.142	36.69
406.35	55.12
406.559	63.32
406.768	36.69
406.977	118.61
407.185	59.22
407.394	46.93
407.603	63.32
407.812	32.6
408.02	149.33
408.229	46.93
408.438	69.46
408.646	104.28
408.855	63.32
409.064	79.7
409.272	-8.36
409.481	116.56
409.69	55.12
409.898	116.56
410.107	116.56
410.315	161.62
410.524	114.52
410.733	81.75
410.941	89.94
411.15	124.76
411.358	128.85
411.567	194.39
411.775	153.43
411.984	216.91
412.192	178
412.401	245.59
412.609	210.77
412.818	204.63
413.026	223.06
413.234	182.1
413.443	257.87
413.651	227.15
413.86	304.98
414.068	307.02
414.276	376.66
414.485	347.98
414.693	333.65
414.901	350.03
415.11	401.23
415.318	413.52
415.526	380.75
415.734	386.9
415.943	448.33
416.151	472.91
416.359	327.5
416.567	397.14
416.776	358.22
416.984	489.29
417.192	460.62
417.4	530.25
417.608	509.77
417.817	507.73
418.025	540.49
418.233	624.46
418.441	522.06
418.649	657.23
418.857	571.21
419.065	735.05
419.273	683.85
419.481	792.39
419.689	747.34
419.897	778.06
420.105	866.12
420.313	849.74
420.521	874.31
420.729	882.5
420.937	974.66
421.145	937.8
421.353	1019.72
421.561	1101.64
421.769	1013.57
421.977	1058.63
422.185	1064.77
422.393	1140.55
422.601	1283.91
422.809	1214.27
423.017	1242.95
423.224	1312.58
423.432	1326.91
423.64	1394.5
423.848	1382.21
424.056	1365.82
424.263	1562.43
424.471	1599.29
424.679	1595.2
424.887	1556.29
425.094	1644.35
425.302	1615.68
425.51	1830.71
425.718	1873.72
425.925	1771.32
426.133	1799.99
426.341	2099
426.548	2121.52
426.756	2187.06
426.964	2070.33
427.171	2268.98
427.379	2350.9
427.586	2363.19
427.794	2389.81
428.001	2477.87
428.209	2561.84
428.417	2660.14
428.624	2848.55
428.832	2801.45
429.039	2807.59
429.247	2783.02
429.454	3088.17
429.662	3209
429.869	3012.39
430.076	3346.21
430.284	3200.8
430.491	3329.83
430.699	3569.44
430.906	3538.72
431.114	3614.49
431.321	3677.98
431.528	3802.91
431.736	3901.21
431.943	4189.97
432.15	3999.51
432.358	4122.39
432.565	4435.73
432.772	4261.65
432.979	4601.62
433.187	4857.61
433.394	4708.11
433.601	4994.83
433.808	5013.26
434.016	4996.87
434.223	5093.13
434.43	5484.29
434.637	5320.45
434.844	5828.35
435.052	5764.86
435.259	5752.57
435.466	6033.15
435.673	5748.48
435.88	6184.69
436.087	6426.36
436.294	6465.27
436.501	6432.5
436.708	6596.34
436.915	6579.95
437.122	7184.1
437.329	7036.65
437.537	7196.39
437.743	7284.45
437.95	7214.82
438.157	7630.56
438.364	7890.65
438.571	7755.49
438.778	8007.39
438.985	8828.62
439.192	8210.14
439.399	8713.94
439.606	8437.46
439.813	9002.7
440.02	9301.7
440.227	9336.52
440.433	9117.39
440.64	9504.45
440.847	9361.09
441.054	9604.8
441.261	10303.16
441.467	10245.82
441.674	10331.83
441.881	10868.4
442.088	10757.81
442.294	10497.72
442.501	10825.39
442.708	11065
442.914	11556.52
443.121	11855.52
443.328	11490.98
443.534	12627.6
443.741	12328.6
443.948	11941.54
444.154	12828.31
444.361	12777.11
444.568	12811.92
444.774	12949.14
444.981	13006.48
445.187	13409.93
445.394	14057.09
445.6	13883.01
445.807	15079.02
446.013	14587.51
446.22	14753.4
446.426	15402.6
446.633	15568.49
446.839	16086.62
447.046	15371.88
447.252	16207.45
447.459	16166.49
447.665	16113.25
447.871	16930.39
448.078	17765.96
448.284	16643.67
448.491	17344.08
448.697	18136.64
448.903	18312.77
449.11	18503.23
449.316	18169.41
449.522	18509.37
449.728	19021.36
449.935	19207.73
450.141	19082.8
450.347	19428.91
450.553	19045.94
450.76	19435.05
450.966	19777.06
451.172	19592.75
451.378	19994.15
451.584	19805.74
451.791	20289.06
451.997	20160.03
452.203	20520.48
452.409	20604.44
452.615	20442.65
452.821	19754.54
453.027	19660.33
453.233	20667.93
453.44	19938.85
453.646	19945
453.852	19916.33
454.058	20403.74
454.264	19815.97
454.47	20129.31
454.676	19713.58
454.882	20307.49
455.088	18863.67
455.294	18826.81
455.5	18972.21
455.705	19353.13
455.911	18456.12
456.117	18179.65
456.323	18079.3
456.529	17098.32
456.735	17811.01
456.941	17487.43
457.147	16930.39
457.352	16479.83
457.558	16209.5
457.764	16395.87
457.97	16125.54
458.176	15853.16
458.381	15847.01
458.587	15156.85
458.793	15064.69
458.999	13997.7
459.204	15345.26
459.41	14917.23
459.616	13796.99
459.821	13823.62
460.027	13747.84
460.233	13502.09
460.438	12992.14
460.644	12949.14
460.85	12510.87
461.055	12113.56
461.261	12224.15
461.466	11323.05
461.672	10999.47
461.878	11603.62
462.083	10976.94
462.289	10634.93
462.494	10620.6
462.7	10190.52
462.905	9672.39
463.111	10077.88
463.316	10290.87
463.522	10002.11
463.727	9934.53
463.932	9854.65
464.138	10077.88
464.343	9942.72
464.549	9707.2
464.754	10213.05
464.959	9934.53
465.165	9875.13
465.37	9322.18
465.575	9344.71
465.781	9477.83
465.986	9563.84
466.191	9211.59
466.397	9049.8
466.602	8715.98
466.807	8926.93
467.012	9017.04
467.218	9051.85
467.423	8625.87
467.628	8859.34
467.833	9213.64
468.038	8750.8
468.244	8781.52
468.449	8896.21
468.654	8820.43
468.859	8734.42
469.064	8634.07
469.269	8376.02
469.474	8275.67
469.679	8480.47
469.885	8267.48
470.09	8349.4
470.295	8464.08
470.5	8111.83
470.705	8222.42
470.91	8044.25
471.115	7931.61
471.32	7954.14
471.525	7970.52
471.73	7722.72
471.935	7814.88
472.139	7519.97
472.344	7319.27
472.549	7632.61
472.754	7552.74
472.959	7448.29
473.164	7034.6
473.369	7016.17
473.574	7341.8
473.778	7278.31
473.983	7106.28
474.188	7083.75
474.393	6852.33
474.598	6913.77
474.802	6780.65
475.007	6756.08
475.212	6770.41
475.417	6481.65
475.621	6491.89
475.826	6620.91
476.031	6420.21
476.235	6199.03
476.44	6452.98
476.645	6278.9
476.849	6326
477.054	6317.81
477.259	6164.22
477.463	6102.78
477.668	5943.03
477.872	6070.01
478.077	5865.21
478.282	5797.63
478.486	5814.01
478.691	5756.67
478.895	5676.8
479.1	5760.77
479.304	5766.91
479.509	5412.61
479.713	5680.89
479.918	5324.55
480.122	5424.9
480.326	5523.2
480.531	5439.23
480.735	5560.06
480.94	5418.75
481.144	5519.11
481.348	5293.83
481.553	5250.82
481.757	5256.97
481.961	5166.85
482.166	5447.43
482.37	5379.84
482.574	5273.35
482.778	5228.29
482.983	5211.91
483.187	5265.16
483.391	5359.36
483.595	5351.17
483.8	5129.99
484.004	5275.4
484.208	5363.46
484.412	5142.28
484.616	5371.65
484.821	5250.82
485.025	5226.25
485.229	5117.7
485.433	5181.19
485.637	5209.86
485.841	5162.76
486.045	5310.21
486.249	5105.42
486.453	5101.32
486.657	5379.84
486.861	5195.53
487.065	5168.9
487.269	5312.26
487.473	5175.05
487.677	5160.71
487.881	5265.16
488.085	5191.43
488.289	5216.01
488.493	5179.14
488.697	5265.16
488.901	5244.68
489.105	5334.79
489.309	5238.53
489.512	5338.88
489.716	5392.13
489.92	5484.29
490.124	5238.53
490.328	5459.71
490.531	5330.69
490.735	5390.08
490.939	5314.31
491.143	5402.37
491.346	5279.49
491.55	5461.76
491.754	5347.08
491.958	5420.8
492.161	5357.32
492.365	5598.98
492.569	5504.77
492.772	5510.91
492.976	5635.84
493.18	5551.87
493.383	5754.62
493.587	5715.71
493.79	5773.05
493.994	5687.04
494.197	5652.22
494.401	5869.31
494.605	5750.53
494.808	5814.01
495.012	5936.89
495.215	5981.95
495.419	6158.07
495.622	5990.14
495.825	6227.7
496.029	6080.25
496.232	6166.26
496.436	6205.17
496.639	6420.21
496.843	6332.15
497.046	6436.6
497.249	6639.34
497.453	6461.17
497.656	6569.71
497.859	6512.37
498.063	6706.93
498.266	6772.46
498.469	6680.3
498.673	6797.04
498.876	7042.79
499.079	6948.59
499.282	7200.49
499.485	7206.63
499.689	7272.17
499.892	7499.49
500.095	7544.55
500.298	7593.7
500.501	7577.31
500.705	7620.32
500.908	7796.45
501.111	7712.48
501.314	7767.77
501.517	8058.59
501.72	8066.78
501.923	8183.51
502.126	8199.9
502.329	8419.03
502.532	8476.37
502.735	8556.24
502.938	8724.18
503.141	8812.24
503.344	8738.51
503.547	8816.33
503.75	9027.28
503.953	9070.28
504.156	9084.62
504.359	9402.05
504.562	9234.12
504.765	9651.91
504.968	9477.83
505.17	9752.26
505.373	9912
505.576	9930.43
505.779	10086.08
505.982	9901.76
506.185	10448.57
506.387	10303.16
506.59	10423.99
506.793	10849.97
506.996	10743.47
507.198	10884.78
507.401	11073.2
507.604	11079.34
507.807	11151.02
508.009	11230.89
508.212	11318.95
508.415	11507.37
508.617	11673.25
508.82	11742.88
509.022	11787.94
509.225	12043.93
509.428	11849.38
509.63	12230.3
509.833	12402.33
510.035	12658.32
510.238	12617.36
510.44	12590.74
510.643	12953.23
510.845	12869.26
511.048	12983.95
511.25	13229.71
511.453	13483.66
511.655	13717.12
511.858	13741.7
512.06	13725.32
512.262	13840
512.465	13667.97
512.667	14052.99
512.87	14132.86
513.072	14499.45
513.274	14544.5
513.477	14859.89
513.679	14790.26
513.881	15128.17
514.084	15156.85
514.286	15212.14
514.488	15519.34
514.69	15699.56
514.893	15736.42
515.095	15734.37
515.297	16133.73
515.499	16152.16
515.701	16354.91
515.904	16672.34
516.106	16692.82
516.308	16830.04
516.51	16643.67
516.712	17086.03
516.914	17366.6
517.116	17677.9
517.318	17722.95
517.52	17745.48
517.722	17880.64
517.925	18175.55
518.127	18384.44
518.329	18374.2
518.531	18411.07
518.733	18765.37
518.935	18914.87
519.136	19017.27
519.338	19316.27
519.54	19482.16
519.742	19398.19
519.944	19779.11
520.146	20315.68
520.348	20282.91
520.55	20266.53
520.752	20299.3
520.954	21001.75
521.155	20504.09
521.357	20629.02
521.559	21259.79
521.761	21392.91
521.963	21487.12
522.164	21536.27
522.366	21554.7
522.568	22115.84
522.77	22027.78
522.971	22324.74
523.173	22191.62
523.375	22513.15
523.576	22967.8
523.778	22842.87
523.98	22924.79
524.181	23027.19
524.383	22971.89
524.584	23543.28
524.786	23506.41
524.988	23533.04
525.189	23969.26
525.391	23793.13
525.592	24131.05
525.794	24098.28
525.995	24331.75
526.197	24294.88
526.398	24155.62
526.6	24950.23
526.801	24808.92
527.003	24853.98
527.204	24772.06
527.406	24980.95
527.607	25005.53
527.808	25357.78
528.01	24825.31
528.211	25388.5
528.412	25837
528.614	25652.69
528.815	25748.94
529.016	25837
529.218	25585.1
529.419	25884.11
529.62	25992.65
529.822	26154.44
530.023	26084.81
530.224	26248.64
530.425	25974.22
530.626	25992.65
530.828	26207.69
531.029	26545.6
531.23	26392
531.431	26590.66
531.632	26398.15
531.833	26441.15
532.035	26815.93
532.236	26535.36
532.437	26670.53
532.638	26340.8
532.839	26770.88
533.04	26983.87
533.241	26473.92
533.442	27186.61
533.643	26744.25
533.844	26985.91
534.045	26809.79
534.246	26643.9
534.447	27088.31
534.648	26987.96
534.849	26756.54
535.05	26791.36
535.251	27061.69
535.451	26682.81
535.652	27155.89
535.853	27088.31
536.054	27088.31
536.255	27252.15
536.456	26842.56
536.657	27217.33
536.857	26774.97
537.058	27233.72
537.259	27383.22
537.46	27534.77
537.66	27088.31
537.861	26987.96
538.062	26887.61
538.263	27246.01
538.463	27127.22
538.664	26910.14
538.865	27297.2
539.065	27211.19
539.266	26949.05
539.466	27471.28
539.667	26910.14
539.868	27174.33
540.068	27035.06
540.269	27057.59
540.469	27305.4
540.67	27293.11
540.87	26975.67
541.071	27065.78
541.271	27000.25
541.472	26967.48
541.672	26906.04
541.873	26899.9
542.073	26727.87
542.274	27299.25
542.474	27125.18
542.675	26934.71
542.875	27280.82
543.075	26830.27
543.276	26942.91
543.476	27352.5
543.676	26936.76
543.877	27045.3
544.077	26901.95
544.277	27215.29
544.478	26770.88
544.678	27069.88
544.878	27082.17
545.078	27159.99
545.279	27092.41
545.479	26828.22
545.679	27028.92
545.879	26895.8
546.079	27116.98
546.28	27215.29
546.48	26635.71
546.68	27049.4
546.88	27121.08
547.08	26987.96
547.28	27203
547.48	26873.28
547.68	26889.66
547.88	26762.68
548.081	26903.99
548.281	26815.93
548.481	26570.18
548.681	27502
548.881	27041.21
549.081	26953.15
549.28	26715.58
549.48	27022.78
549.68	26938.81
549.88	27338.16
550.08	26658.24
550.28	26695.1
550.48	26998.2
550.68	27045.3
550.88	26836.41
551.08	26805.69
551.279	26582.46
551.479	26471.87
551.679	26830.27
551.879	26334.66
552.079	26903.99
552.278	26557.89
552.478	26451.39
552.678	26437.06
552.878	27039.16
553.077	26467.78
553.277	26545.6
553.477	26705.34
553.676	26637.76
553.876	26672.57
554.076	26340.8
554.275	26361.28
554.475	25961.93
554.674	26869.18
554.874	26564.03
555.074	26445.25
555.273	26559.94
555.473	26709.44
555.672	26095.05
555.872	26285.51
556.071	26349
556.271	26705.34
556.47	26129.86
556.67	26129.86
556.869	26123.72
557.068	26260.93
557.268	26052.04
557.467	26328.52
557.667	26109.38
557.866	25658.83
558.065	25904.59
558.265	25697.74
558.464	25791.95
558.663	25918.92
558.863	25456.08
559.062	26023.37
559.261	25419.22
559.461	25953.74
559.66	25402.83
559.859	25583.05
560.058	25548.24
560.258	25517.52
560.457	25439.7
560.656	25839.05
560.855	25400.79
561.054	25742.8
561.253	25288.15
561.453	25277.91
561.652	25259.48
561.851	25208.28
562.05	25087.45
562.249	24985.05
562.448	25064.92
562.647	25159.13
562.846	24925.66
563.045	24886.75
563.244	24540.64
563.443	25105.88
563.642	24503.78
563.841	24710.62
564.04	24542.69
564.239	24708.57
564.438	24276.45
564.637	24501.73
564.836	24643.04
565.035	23940.58
565.234	24477.15
565.432	24401.38
565.631	24311.27
565.83	24292.83
566.029	24174.05
566.228	24172
566.427	23813.61
566.625	23766.51
566.824	23707.12
567.023	23760.36
567.222	23152.12
567.42	23881.19
567.619	23684.59
567.818	23401.97
568.016	23465.46
568.215	23463.41
568.414	23186.93
568.612	23506.41
568.811	22943.22
569.01	23041.53
569.208	22724.09
569.407	22906.36
569.605	22496.77
569.804	23012.85
570.002	22681.08
570.201	22754.81
570.4	22468.09
570.598	22263.3
570.797	22046.21
570.995	22404.61
571.193	22251.01
571.392	22550.01
571.59	22181.38
571.789	22074.88
571.987	22095.36
572.186	22027.78
572.384	21913.09
572.582	21980.68
572.781	22115.84
572.979	21663.24
573.177	21440.01
573.376	21534.22
573.574	21425.68
573.772	21530.12
573.971	21104.15
574.169	21302.8
574.367	21374.48
574.565	21413.39
574.763	21184.02
574.962	21177.87
575.16	20745.75
575.358	21313.04
575.556	20692.51
575.754	20723.23
575.952	20741.66
576.151	21003.8
576.349	20715.03
576.547	20317.73
576.745	20563.48
576.943	20518.43
577.141	20739.61
577.339	20305.44
577.537	20618.78
577.735	20389.41
577.933	20106.79
578.131	20057.64
578.329	19928.61
578.527	19949.09
578.725	19904.04
578.923	20074.02
579.121	19666.47
579.319	19684.9
579.516	19705.38
579.714	19734.06
579.912	19711.53
580.11	19500.59
580.308	19781.16
580.506	19484.2
580.704	19062.32
580.901	19451.44
581.099	19643.95
581.297	19260.98
581.495	19138.1
581.692	19359.28
581.89	18851.38
582.088	18921.01
582.285	18974.26
582.483	19060.27
582.681	19039.79
582.878	18791.99
583.076	18828.85
583.274	19004.98
583.471	18642.49
583.669	18669.11
583.866	18476.6
584.064	18683.45
584.262	17995.33
584.459	18529.85
584.657	18445.88
584.854	18396.73
585.052	18087.49
585.249	18497.08
585.447	18146.88
585.644	17712.71
585.841	18159.17
586.039	17751.62
586.236	17851.97
586.434	17854.02
586.631	17663.56
586.828	17577.55
587.026	17894.98
587.223	17598.02
587.42	17735.24
587.618	17469
587.815	17315.41
588.012	17428.04
588.21	17368.65
588.407	17516.11
588.604	17464.91
588.801	17077.84
588.999	17196.62
589.196	17372.75
589.393	17440.33
589.59	17079.89
589.787	16899.67
589.984	16922.2
590.182	16631.38
590.379	16934.48
590.576	16922.2
590.773	16598.62
590.97	16504.41
591.167	16496.22
591.364	16565.85
591.561	16690.77
591.758	16332.38
591.955	16395.87
592.152	16492.12
592.349	16283.23
592.546	16463.45
592.743	16336.48
592.94	16010.85
593.137	16037.47
593.334	16418.39
593.531	15881.83
593.727	15849.06
593.924	15793.76
594.121	15824.48
594.318	15910.5
594.515	15797.86
594.712	15955.55
594.908	15781.48
595.105	15625.83
595.302	15408.75
595.499	15519.34
595.696	15570.54
595.892	15249
596.089	15511.14
596.286	15400.55
596.482	15367.79
596.679	15302.25
596.876	15453.8
597.072	15031.92
597.269	15068.78
597.466	15083.12
597.662	14798.45
597.859	14950
598.055	15101.55
598.252	14669.43
598.448	14700.15
598.645	14636.66
598.841	14769.78
599.038	14784.12
599.234	14726.77
599.431	14616.18
599.627	14382.71
599.824	14386.81
600.02	14376.57
600.217	14487.16
600.413	14182.01
600.609	14237.31
600.806	14337.66
601.002	14149.25
601.198	14042.75
601.395	13997.7
601.591	14057.09
601.787	14116.48
601.984	14112.38
602.18	14016.13
602.376	13768.32
602.572	13766.28
602.769	13827.71
602.965	13678.21
603.161	13663.88
603.357	13604.49
603.553	13792.9
603.75	13618.82
603.946	13653.64
604.142	13751.94
604.338	13205.13
604.534	13596.29
604.73	13227.66
604.926	13231.76
605.122	13489.8
605.318	13342.35
605.514	13153.93
605.71	13117.07
605.906	13026.96
606.102	13072.01
606.298	13248.14
606.494	13209.23
606.69	12932.75
606.886	12940.94
607.082	12846.74
607.278	13098.64
607.474	12717.72
607.67	13272.71
607.866	12469.91
608.062	12963.47
608.257	12549.78
608.453	12664.47
608.649	12695.19
608.845	12486.29
609.041	12570.26
609.236	12676.76
609.432	12457.62
609.628	12615.32
609.824	12586.65
610.019	12310.17
610.215	12330.65
610.411	12398.23
610.606	12408.47
610.802	12369.56
610.998	12349.08
611.193	12342.94
611.389	12304.03
611.584	12261.02
611.78	11974.3
611.976	12203.68
612.171	12035.74
612.367	12179.1
612.562	12160.67
612.758	12056.22
612.953	11927.2
613.149	12011.17
613.344	11945.63
613.539	11976.35
613.735	11951.77
613.93	12082.84
614.126	11759.27
614.321	11814.56
614.517	11718.31
614.712	11808.42
614.907	11542.18
615.103	11810.47
615.298	11787.94
615.493	11757.22
615.688	11519.65
615.884	11857.57
616.079	11404.97
616.274	11665.06
616.47	11443.88
616.665	11497.13
616.86	11525.8
617.055	11495.08
617.25	11435.69
617.445	11519.65
617.641	11394.73
617.836	11517.61
618.031	11171.5
618.226	11400.87
618.421	11339.43
618.616	11349.67
618.811	10954.41
619.006	11171.5
619.201	11042.48
619.396	10995.37
619.591	10892.98
619.786	10976.94
619.981	10618.55
620.176	10819.25
620.371	10852.02
620.566	10577.59
620.761	10639.03
620.956	10899.12
621.151	10516.15
621.346	10593.97
621.541	10421.94
621.735	10673.84
621.93	10366.65
622.125	10303.16
622.32	10239.67
622.515	10385.08
622.709	10124.99
622.904	10110.65
623.099	9946.81
623.294	10110.65
623.488	9936.57
623.683	10229.43
623.878	9660.1
624.072	9967.29
624.267	9643.71
624.462	9615.04
624.656	9543.36
624.851	9721.54
625.046	9418.44
625.24	9475.78
625.435	9469.64
625.629	9621.19
625.824	9275.08
626.018	9377.48
626.213	9232.07
626.407	9221.83
626.602	9103.05
626.796	9170.63
626.991	8906.45
627.185	9078.47
627.38	9049.8
627.574	8842.96
627.768	8820.43
627.963	8894.16
628.157	8625.87
628.352	8632.02
628.546	8845.01
628.74	8683.22
628.935	8744.66
629.129	8707.79
629.323	8517.33
629.517	8500.95
629.712	8505.04
629.906	8476.37
630.1	8382.17
630.294	8457.94
630.489	8148.7
630.683	8290.01
630.877	8206.04
631.071	8097.5
631.265	8107.74
631.459	8105.69
631.653	7968.48
631.848	7988.96
632.042	7784.16
632.236	8025.82
632.43	7964.38
632.624	7960.28
632.818	7941.85
633.012	7659.23
633.206	7591.65
633.4	7866.08
633.594	7505.63
633.788	7540.45
633.982	7689.95
634.176	7479.01
634.369	7397.09
634.563	7444.2
634.757	7466.72
634.951	7401.19
635.145	7329.51
635.339	7204.58
635.533	7331.56
635.726	7218.92
635.92	7065.32
636.114	7169.77
636.308	6981.35
636.501	6962.92
636.695	6960.88
636.889	6821.61
637.083	6881
637.276	6885.1
637.47	6915.82
637.664	6874.86
637.857	6754.03
638.051	6643.44
638.244	6612.72
638.438	6633.2
638.632	6680.3
638.825	6506.23
639.019	6434.55
639.212	6485.75
639.406	6489.84
639.599	6379.25
639.793	6416.12
639.986	6326
640.18	6444.79
640.373	6215.41
640.567	6246.13
640.76	6348.53
640.954	5955.32
641.147	6100.73
641.34	6125.3
641.534	6045.43
641.727	6223.61
641.92	6141.69
642.114	6100.73
642.307	5945.08
642.5	5830.4
642.694	5848.83
642.887	5826.3
643.08	5895.93
643.273	5725.95
643.467	5752.57
643.66	5814.01
643.853	5709.57
644.046	5707.52
644.239	5713.66
644.432	5609.22
644.626	5654.27
644.819	5562.11
645.012	5531.39
645.205	5492.48
645.398	5543.68
645.591	5515.01
645.784	5330.69
645.977	5355.27
646.17	5484.29
646.363	5173
646.556	5228.29
646.749	5113.61
646.942	5287.68
647.135	5220.1
647.328	5058.31
647.521	5064.46
647.714	5148.42
647.907	5158.66
648.099	4931.34
648.292	5084.94
648.485	5072.65
648.678	5011.21
648.871	4904.71
649.064	4988.68
649.256	4855.56
649.449	4900.62
649.642	4736.78
649.835	4927.24
650.027	4751.12
650.22	4683.53
650.413	4742.92
650.605	4683.53
650.798	4779.79
650.991	4484.88
651.183	4640.53
651.376	4566.8
651.568	4613.9
651.761	4613.9
651.954	4628.24
652.146	4581.14
652.339	4618
652.531	4552.46
652.724	4411.15
652.916	4339.48
653.109	4355.86
653.301	4435.73
653.494	4531.98
653.686	4298.52
653.879	4341.52
654.071	4351.76
654.263	4034.33
654.456	4194.07
654.648	4200.21
654.84	4210.45
655.033	4077.34
655.225	4161.3
655.417	4060.95
655.61	4155.16
655.802	4136.73
655.994	4022.04
656.186	4093.72
656.379	4032.28
656.571	4065.05
656.763	3995.42
656.955	3950.36
657.148	4036.38
657.34	4032.28
657.532	3821.34
657.724	3958.55
657.916	3813.15
658.108	3899.16
658.3	3847.96
658.492	3876.63
658.684	3819.29
658.876	3704.6
659.068	3757.85
659.26	3645.21
659.452	3837.72
659.644	3714.84
659.836	3794.72
660.028	3671.84
660.22	3579.68
660.412	3626.78
660.604	3546.91
660.796	3546.91
660.988	3589.92
661.18	3528.48
661.372	3608.35
661.563	3639.07
661.755	3508
661.947	3538.72
662.139	3471.14
662.331	3475.23
662.522	3428.13
662.714	3372.83
662.906	3350.31
663.097	3299.11
663.289	3264.29
663.481	3221.28
663.673	3254.05
663.864	3286.82
664.056	3299.11
664.247	3153.7
664.439	3247.91
664.631	3381.03
664.822	3333.92
665.014	3090.21
665.205	3252
665.397	3043.11
665.588	3184.42
665.78	3178.28
665.971	3213.09
666.163	3114.79
666.354	3116.84
666.546	3014.44
666.737	3071.78
666.929	3063.59
667.12	3012.39
667.311	3002.15
667.503	2928.42
667.694	3020.58
667.885	3061.54
668.077	3036.97
668.268	2942.76
668.459	2967.34
668.651	2875.18
668.842	3002.15
669.033	2809.64
669.224	2889.51
669.416	2891.56
669.607	2922.28
669.798	2744.11
669.989	2959.14
670.18	2799.4
670.371	2772.78
670.563	2735.92
670.754	2694.96
670.945	2709.29
671.136	2866.99
671.327	2733.87
671.518	2723.63
671.709	2807.59
671.9	2811.69
672.091	2692.91
672.282	2672.43
672.473	2717.48
672.664	2752.3
672.855	2629.42
673.046	2694.96
673.237	2776.87
673.428	2645.8
673.619	2594.61
673.809	2641.71
674	2490.16
674.191	2643.76
674.382	2619.18
674.573	2502.45
674.764	2543.41
674.954	2635.57
675.145	2545.45
675.336	2488.11
675.527	2508.59
675.717	2541.36
675.908	2447.15
676.099	2619.18
676.289	2555.69
676.48	2459.44
676.671	2496.3
676.861	2502.45
677.052	2527.02
677.243	2457.39
677.433	2563.89
677.624	2379.57
677.814	2518.83
678.005	2389.81
678.195	2488.11
678.386	2389.81
678.576	2430.77
678.767	2502.45
678.957	2527.02
679.148	2479.92
679.338	2467.63
679.529	2436.91
679.719	2393.9
679.909	2451.25
680.1	2445.1
680.29	2375.47
680.481	2387.76
680.671	2416.43
680.861	2373.43
681.052	2316.08
681.242	2361.14
681.432	2555.69
681.622	2445.1
681.813	2354.99
682.003	2299.7
682.193	2311.99
682.383	2400.05
682.573	2465.58
682.764	2357.04
682.954	2346.8
683.144	2342.71
683.334	2381.62
683.524	2221.88
683.714	2363.19
683.904	2314.03
684.094	2309.94
684.284	2316.08
684.474	2422.58
684.664	2338.61
684.854	2275.12
685.044	2260.79
685.234	2375.47
685.424	2303.79
685.614	2305.84
685.804	2234.16
685.994	2127.67
686.184	2297.65
686.374	2215.73
686.564	2084.66
686.753	2236.21
686.943	2160.44
687.133	2248.5
687.323	2287.41
687.513	2162.48
687.702	2219.83
687.892	2250.55
688.082	2281.27
688.272	2176.82
688.461	2219.83
688.651	2166.58
688.841	2092.85
689.03	2135.86
689.22	2111.29
689.41	2144.05
689.599	2139.96
689.789	2228.02
689.979	2264.88
690.168	2131.76
690.358	2162.48
690.547	1965.88
690.737	2060.09
690.926	2135.86
691.116	1963.83
691.305	2033.46
691.495	1988.41
691.684	1939.26
691.874	2068.28
692.063	1906.49
692.252	1990.45
692.442	2000.69
692.631	2092.85
692.82	2039.61
693.01	1935.16
693.199	1988.41
693.388	1986.36
693.578	1767.23
693.767	2004.79
693.956	1935.16
694.146	2029.37
694.335	1988.41
694.524	2023.22
694.713	1916.73
694.902	1832.76
695.092	1949.5
695.281	1902.39
695.47	1978.17
695.659	1965.88
695.848	1869.62
696.037	1914.68
696.226	1939.26
696.415	1904.44
696.604	1941.3
696.793	1906.49
696.982	1869.62
697.171	1947.45
697.36	1845.05
697.549	1867.58
697.738	1916.73
697.927	1892.15
698.116	1873.72
698.305	1820.47
698.494	1843
698.683	1836.86
698.872	1922.87
699.061	1933.11
699.25	1761.08
699.438	1828.67
699.627	1799.99
699.816	1843
700.005	1857.34
700.193	1994.55
700.382	1840.95
700.571	1834.81
700.76	1820.47
700.948	1869.62
701.137	1869.62
701.326	1840.95
701.514	1814.33
701.703	1820.47
701.892	1898.3
702.08	1894.2
702.269	1959.74
702.457	1732.41
702.646	1896.25
702.834	1775.42
703.023	1943.35
703.212	1920.82
703.4	1994.55
703.589	1843
703.777	1924.92
703.965	1726.27
704.154	1810.23
704.342	1826.62
704.531	1894.2
704.719	1783.61
704.907	1908.54
705.096	1824.57
705.284	1765.18
705.472	1799.99
705.661	1720.12
705.849	1881.91
706.037	1877.82
706.226	1865.53
706.414	1816.38
706.602	1773.37
706.79	1898.3
706.979	1939.26
707.167	1754.94
707.355	1890.1
707.543	1914.68
707.731	1840.95
707.919	1904.44
708.107	1910.58
708.296	1802.04
708.484	1775.42
708.672	1969.98
708.86	1890.1
709.048	1853.24
709.236	1810.23
709.424	1931.06
709.612	1857.34
709.8	1863.48
709.988	1740.6
710.176	1875.77
710.364	1857.34
710.551	1881.91
710.739	1849.15
710.927	1806.14
711.115	1793.85
711.303	1857.34
711.491	1832.76
711.679	1826.62
711.866	1886.01
712.054	1965.88
712.242	1828.67
712.43	1859.38
712.617	1802.04
712.805	1914.68
712.993	1867.58
713.181	1910.58
713.368	1894.2
713.556	1816.38
713.744	1806.14
713.931	1894.2
714.119	1832.76
714.306	1879.86
714.494	1933.11
714.682	1875.77
714.869	1822.52
715.057	1896.25
715.244	1799.99
715.432	1859.38
715.619	1877.82
715.807	1947.45
715.994	1787.71
716.182	1840.95
716.369	1851.19
716.556	1775.42
716.744	1916.73
716.931	1793.85
717.119	1830.71
717.306	1853.24
717.493	1853.24
717.681	1972.02
717.868	1918.78
718.055	1824.57
718.242	1869.62
718.43	1847.1
718.617	1990.45
718.804	1859.38
718.991	1849.15
719.179	2006.84
719.366	1845.05
719.553	1861.43
719.74	1951.54
719.927	1849.15
720.114	1888.06
720.301	1867.58
720.488	1826.62
720.676	1945.4
720.863	1869.62
721.05	1931.06
721.237	1830.71
721.424	1929.02
721.611	1875.77
721.798	1799.99
721.985	1843
722.172	1875.77
722.358	1812.28
722.545	1871.67
722.732	1908.54
722.919	1828.67
723.106	1875.77
723.293	1818.43
723.48	1875.77
723.667	1898.3
723.853	1890.1
724.04	1922.87
724.227	1951.54
724.414	2006.84
724.6	1871.67
724.787	1963.83
724.974	2006.84
725.161	1902.39
725.347	1988.41
725.534	1873.72
725.72	1810.23
725.907	1890.1
726.094	1886.01
726.28	1957.69
726.467	1818.43
726.653	1843
726.84	1933.11
727.027	1978.17
727.213	1763.13
727.4	1943.35
727.586	1881.91
727.773	1908.54
727.959	1851.19
728.145	1857.34
728.332	1843
728.518	1879.86
728.705	1873.72
728.891	1857.34
729.077	1892.15
729.264	1693.5
729.45	1892.15
729.636	1929.02
729.823	1849.15
730.009	1849.15
730.195	1793.85
730.382	1851.19
730.568	1849.15
730.754	1865.53
730.94	1922.87
731.126	1890.1
731.313	1859.38
731.499	1845.05
731.685	1986.36
731.871	1847.1
732.057	1906.49
732.243	1748.79
732.429	1861.43
732.615	1886.01
732.801	1777.47
732.987	1875.77
733.173	1908.54
733.359	1922.87
733.545	1881.91
733.731	1785.66
733.917	1908.54
734.103	1910.58
734.289	1799.99
734.475	1750.84
734.661	1797.95
734.847	1849.15
735.033	1853.24
735.219	1785.66
735.404	1832.76
735.59	1720.12
735.776	1843
735.962	1843
736.148	1845.05
736.333	1808.19
736.519	1855.29
736.705	1781.56
736.89	1765.18
737.076	1787.71
737.262	1709.88
737.447	1740.6
737.633	1673.02
737.819	1818.43
738.004	1898.3
738.19	1793.85
738.375	1765.18
738.561	1867.58
738.747	1820.47
738.932	1660.73
739.118	1750.84
739.303	1748.79
739.489	1818.43
739.674	1808.19
739.859	1728.31
740.045	1754.94
740.23	1783.61
740.416	1720.12
740.601	1752.89
740.786	1689.4
740.972	1808.19
741.157	1728.31
741.342	1728.31
741.528	1642.3
741.713	1748.79
741.898	1765.18
742.084	1730.36
742.269	1630.01
742.454	1693.5
742.639	1718.08
742.824	1644.35
743.01	1574.72
743.195	1695.55
743.38	1623.87
743.565	1548.09
743.75	1587.01
743.935	1679.16
744.12	1632.06
744.305	1609.53
744.49	1619.77
744.675	1619.77
744.86	1591.1
745.045	1654.59
745.23	1505.09
745.415	1619.77
745.6	1517.37
745.785	1490.75
745.97	1670.97
746.155	1480.51
746.34	1498.94
746.525	1505.09
746.71	1636.16
746.895	1441.6
747.079	1566.53
747.264	1466.17
747.449	1419.07
747.634	1445.7
747.819	1412.93
748.003	1400.64
748.188	1376.06
748.373	1505.09
748.557	1378.11
748.742	1439.55
748.927	1455.94
749.111	1447.74
749.296	1308.48
749.481	1392.45
749.665	1410.88
749.85	1302.34
750.034	1300.29
750.219	1376.06
750.404	1326.91
750.588	1353.54
750.773	1218.37
750.957	1273.67
751.141	1283.91
751.326	1269.57
751.51	1238.85
751.695	1275.71
751.879	1275.71
752.064	1335.1
752.248	1339.2
752.432	1210.18
752.617	1220.42
752.801	1279.81
752.985	1216.32
753.17	1240.9
753.354	1273.67
753.538	1236.8
753.722	1132.36
753.907	1161.03
754.091	1136.45
754.275	1234.75
754.459	1101.64
754.643	1136.45
754.828	1093.44
755.012	1124.16
755.196	1058.63
755.38	1054.53
755.564	1122.12
755.748	1118.02
755.932	1066.82
756.116	1048.39
756.3	960.33
756.484	1077.06
756.668	1126.21
756.852	960.33
757.036	1079.11
757.22	1054.53
757.404	931.66
757.588	974.66
757.772	1068.87
757.956	1087.3
758.14	1032.01
758.323	960.33
758.507	960.33
758.691	974.66
758.875	1007.43
759.059	1003.33
759.242	976.71
759.426	909.13
759.61	921.42
759.794	927.56
759.977	993.09
760.161	1021.77
760.345	948.04
760.528	991.05
760.712	900.94
760.895	972.61
761.079	931.66
761.263	855.88
761.446	909.13
761.63	864.07
761.813	925.51
761.997	896.84
762.18	857.93
762.364	833.35
762.547	821.06
762.731	870.22
762.914	890.7
763.098	806.73
763.281	853.83
763.464	796.49
763.648	866.12
763.831	841.54
764.015	714.57
764.198	831.3
764.381	855.88
764.564	816.97
764.748	782.15
764.931	866.12
765.114	720.71
765.297	839.5
765.481	794.44
765.664	694.09
765.847	767.82
766.03	796.49
766.213	749.39
766.397	773.96
766.58	753.48
766.763	874.31
766.946	800.59
767.129	724.81
767.312	773.96
767.495	735.05
767.678	763.72
767.861	769.87
768.044	761.67
768.227	806.73
768.41	722.76
768.593	819.02
768.776	722.76
768.959	749.39
769.142	784.2
769.324	737.1
769.507	692.04
769.69	737.1
769.873	712.52
770.056	730.95
770.239	773.96
770.421	751.43
770.604	708.43
770.787	698.19
770.97	702.28
771.152	630.6
771.335	657.23
771.518	663.37
771.7	718.67
771.883	714.57
772.066	634.7
772.248	683.85
772.431	698.19
772.613	589.64
772.796	685.9
772.978	669.52
773.161	698.19
773.343	657.23
773.526	571.21
773.708	616.27
773.891	579.4
774.073	616.27
774.256	628.56
774.438	649.04
774.621	620.36
774.803	655.18
774.985	595.79
775.168	565.07
775.35	636.75
775.532	552.78
775.715	577.36
775.897	614.22
776.079	653.13
776.261	626.51
776.444	511.82
776.626	585.55
776.808	616.27
776.99	554.83
777.173	558.92
777.355	542.54
777.537	573.26
777.719	614.22
777.901	487.25
778.083	515.92
778.265	511.82
778.447	532.3
778.629	503.63
778.811	481.1
778.993	565.07
779.175	542.54
779.357	464.72
779.539	458.57
779.721	575.31
779.903	489.29
780.085	499.53
780.267	466.77
780.449	499.53
780.631	442.19
780.812	522.06
780.994	479.05
781.176	470.86
781.358	386.9
781.54	468.81
781.721	407.38
781.903	481.1
782.085	384.85
782.267	423.76
782.448	417.61
782.63	358.22
782.812	425.81
782.993	431.95
783.175	431.95
783.357	386.9
783.538	481.1
783.72	358.22
783.901	458.57
784.083	360.27
784.264	448.33
784.446	374.61
784.627	376.66
784.809	356.18
784.99	325.46
785.172	378.7
785.353	407.38
785.535	397.14
785.716	411.47
785.897	370.51
786.079	296.78
786.26	362.32
786.441	360.27
786.623	362.32
786.804	350.03
786.985	380.75
787.167	325.46
787.348	350.03
787.529	313.17
787.71	374.61
787.891	356.18
788.073	317.26
788.254	253.78
788.435	288.59
788.616	397.14
788.797	227.15
788.978	247.63
789.159	343.89
789.34	374.61
789.522	311.12
789.703	333.65
789.884	309.07
790.065	329.55
790.246	370.51
790.427	243.54
790.607	274.26
790.788	229.2
790.969	190.29
791.15	255.83
791.331	298.83
791.512	227.15
791.693	214.87
791.874	276.31
792.054	266.07
792.235	274.26
792.416	229.2
792.597	227.15
792.778	249.68
792.958	221.01
793.139	245.59
793.32	229.2
793.5	221.01
793.681	255.83
793.862	161.62
794.042	235.35
794.223	202.58
794.404	212.82
794.584	110.42
794.765	198.48
794.945	239.44
795.126	264.02
795.306	237.39
795.487	247.63
795.667	239.44
795.848	231.25
796.028	206.67
796.209	196.43
796.389	245.59
796.57	214.87
796.75	128.85
796.93	223.06
797.111	270.16
797.291	165.71
797.471	235.35
797.652	210.77
797.832	124.76
798.012	237.39
798.192	180.05
798.373	173.91
798.553	102.23
798.733	161.62
798.913	126.8
799.093	149.33
799.274	159.57
799.454	175.95
799.634	167.76
799.814	192.34
799.994	132.95
800.174	153.43
800.354	210.77
800.534	149.33
800.714	126.8
800.894	116.56
801.074	143.19
801.254	167.76
801.434	233.3
801.614	120.66
801.794	157.52
801.974	708.43
802.154	141.14
802.334	139.09
802.514	100.18
802.693	126.8
802.873	83.8
803.053	182.1
803.233	139.09
803.413	126.8
803.592	114.52
803.772	175.95
803.952	104.28
804.131	149.33
804.311	69.46
804.491	106.32
804.67	208.72
804.85	108.37
805.03	145.24
805.209	165.71
805.389	40.79
805.568	141.14
805.748	61.27
805.928	48.98
806.107	110.42
806.287	53.08
806.466	79.7
806.646	163.67
806.825	141.14
807.004	55.12
807.184	32.6
807.363	243.54
807.543	184.15
807.722	24.4
807.901	214.87
808.081	124.76
808.26	87.89
808.439	55.12
808.619	112.47
808.798	85.84
808.977	75.6
809.156	147.28
809.336	122.71
809.515	96.08
809.694	83.8
809.873	87.89
810.052	112.47
810.231	69.46
810.411	73.56
810.59	161.62
810.769	67.41
810.948	112.47
811.127	42.84
811.306	46.93
811.485	67.41
811.664	112.47
811.843	94.04
812.022	55.12
812.201	77.65
812.38	96.08
812.559	79.7
812.737	83.8
812.916	57.17
813.095	112.47
813.274	77.65
813.453	-20.65
813.632	61.27
813.811	110.42
813.989	10.07
814.168	141.14
814.347	112.47
814.526	96.08
814.704	51.03
814.883	83.8
815.062	51.03
815.24	83.8
815.419	67.41
815.598	-12.46
815.776	53.08
815.955	79.7
816.133	149.33
816.312	-22.7
816.49	34.64
816.669	75.6
816.847	22.36
817.026	57.17
817.204	46.93
817.383	77.65
817.561	63.32
817.74	120.66
817.918	20.31
818.097	5.97
818.275	85.84
818.453	75.6
818.632	126.8
818.81	-8.36
818.988	71.51
819.167	77.65
819.345	59.22
819.523	63.32
819.701	63.32
819.879	40.79
820.058	71.51
820.236	48.98
820.414	22.36
820.592	-51.37
820.77	57.17
820.948	91.99
821.127	65.36
821.305	98.13
821.483	-6.31
821.661	48.98
821.839	55.12
822.017	-47.27
822.195	12.12
822.373	153.43
822.551	5.97
822.729	63.32
822.907	89.94
823.085	48.98
823.262	22.36
823.44	10.07
823.618	-41.13
823.796	65.36
823.974	63.32
824.152	42.84
824.329	137.04
824.507	63.32
824.685	48.98
824.863	55.12
825.04	57.17
825.218	16.21
825.396	53.08
825.574	40.79
825.751	46.93
825.929	98.13
826.107	34.64
826.284	-2.22
826.462	102.23
826.639	89.94
826.817	24.4
826.994	81.75
827.172	112.47
827.349	16.21
827.527	46.93
827.704	14.17
827.882	5.97
828.059	22.36
828.237	63.32
828.414	22.36
828.591	-10.41
828.769	26.45
828.946	77.65
829.124	34.64
829.301	51.03
829.478	-51.37
829.655	-0.17
829.833	16.21
830.01	69.46
830.187	14.17
830.364	-2.22
830.542	65.36
830.719	42.84
830.896	40.79
831.073	77.65
831.25	48.98
831.427	20.31
831.604	89.94
831.782	-71.85
831.959	22.36
832.136	36.69
832.313	14.17
832.49	-34.99
832.667	63.32
832.844	30.55
833.021	69.46
833.198	112.47
833.374	44.88
833.551	22.36
833.728	26.45
833.905	40.79
834.082	-12.46
834.259	42.84
834.436	-22.7
834.612	-34.99
834.789	59.22
834.966	20.31
835.143	59.22
835.319	87.89
835.496	-8.36
835.673	48.98
835.85	122.71
836.026	-12.46
836.203	75.6
836.38	-10.41
836.556	-24.75
836.733	30.55
836.909	22.36
837.086	16.21
837.262	10.07
837.439	63.32
837.616	30.55
837.792	38.74
837.968	-10.41
838.145	14.17
838.321	1.88
838.498	8.02
838.674	22.36
838.851	12.12
839.027	5.97
839.203	30.55
839.38	46.93
839.556	38.74
839.732	-4.27
839.909	18.26
840.085	-26.79
840.261	83.8
840.437	34.64
840.614	81.75
840.79	8.02
840.966	108.37
841.142	55.12
841.318	63.32
841.494	40.79
841.671	71.51
841.847	-0.17
842.023	-10.41
842.199	-34.99
842.375	-14.51
842.551	-4.27
842.727	-12.46
842.903	1.88
843.079	-30.89
843.255	34.64
843.431	42.84
843.607	65.36
843.783	12.12
843.959	28.5
844.134	3.93
844.31	91.99
844.486	-55.47
844.662	12.12
844.838	44.88
845.013	-28.84
845.189	-43.18
845.365	5.97
845.541	-24.75
845.716	-18.6
845.892	38.74
846.068	63.32
846.244	-6.31
846.419	20.31
846.595	42.84
846.77	71.51
846.946	5.97
847.122	-22.7
847.297	26.45
847.473	132.95
847.648	-55.47
847.824	5.97
847.999	30.55
848.175	-6.31
848.35	14.17
848.526	22.36
848.701	63.32
848.876	100.18
849.052	26.45
849.227	42.84
849.403	30.55
849.578	12.12
849.753	24.4
849.929	20.31
850.104	36.69
850.279	114.52
850.454	14.17
850.63	51.03
850.805	-4.27
850.98	65.36
851.155	-41.13
851.33	5.97
851.505	-43.18
851.681	46.93
851.856	-18.6
852.031	5.97
852.206	14.17
852.381	-20.65
852.556	14.17
852.731	-32.94
852.906	-28.84
853.081	48.98
853.256	73.56
853.431	-14.51
853.606	-20.65
853.781	16.21
853.956	-41.13
854.131	-18.6
854.305	22.36
854.48	26.45
854.655	-34.99
854.83	-61.61
855.005	59.22
855.18	-0.17
855.354	71.51
855.529	-28.84
855.704	46.93
855.879	34.64
856.053	55.12
856.228	8.02
856.403	-10.41
856.577	-55.47
856.752	-16.55
856.926	8.02
857.101	48.98
857.276	-16.55
857.45	26.45
857.625	63.32
857.799	3.93
857.974	-8.36
858.148	-20.65
858.323	-18.6
858.497	-26.79
858.672	34.64
858.846	-57.51
859.02	69.46
859.195	14.17
859.369	28.5
859.543	-28.84
859.718	51.03
859.892	8.02
860.066	51.03
860.241	-30.89
860.415	12.12
860.589	38.74
860.763	-41.13
860.938	-28.84
861.112	57.17
861.286	-0.17
861.46	55.12
861.634	-8.36
861.808	26.45
861.982	-20.65
862.157	57.17
862.331	-6.31
862.505	-98.47
862.679	55.12
862.853	-18.6
863.027	20.31
863.201	108.37
863.375	-10.41
863.549	48.98
863.722	44.88
863.896	14.17
864.07	-4.27
864.244	22.36
864.418	-24.75
864.592	-8.36
864.766	24.4
864.939	-67.75
865.113	-18.6
865.287	81.75
865.461	-43.18
865.634	-49.32
865.808	-32.94
865.982	55.12
866.156	-98.47
866.329	-65.71
866.503	-18.6
866.676	22.36
866.85	34.64
867.024	-51.37
867.197	24.4
867.371	42.84
867.544	-12.46
867.718	-6.31
867.891	53.08
868.065	10.07
868.238	34.64
868.412	8.02
868.585	-20.65
868.759	-26.79
868.932	16.21
869.105	14.17
869.279	-18.6
869.452	-34.99
869.625	32.6
869.799	-55.47
869.972	-28.84
870.145	44.88
870.319	-20.65
870.492	5.97
870.665	-84.14
870.838	-26.79
871.011	-73.9
871.185	-55.47
871.358	1.88
871.531	30.55
871.704	10.07
871.877	63.32
872.05	32.6
872.223	73.56
872.396	-18.6
872.569	-8.36
872.742	-2.22
872.915	-8.36
873.088	-14.51
873.261	22.36
873.434	-6.31
873.607	32.6
873.78	-0.17
873.953	-6.31
874.126	-22.7
874.299	-37.03
874.471	5.97
874.644	20.31
874.817	16.21
874.99	-10.41
875.163	63.32
875.335	18.26
875.508	-18.6
875.681	63.32
875.853	42.84
876.026	20.31
876.199	14.17
876.371	57.17
876.544	-2.22
876.717	-2.22
876.889	-24.75
877.062	28.5
877.234	-22.7
877.407	-12.46
877.579	-14.51
877.752	-45.23
877.924	55.12
878.097	48.98
878.269	40.79
878.442	14.17
878.614	44.88
878.786	-22.7
878.959	-43.18
879.131	-10.41
879.303	10.07
879.476	55.12
879.648	22.36
879.82	-14.51
879.993	-20.65
880.165	8.02
880.337	-43.18
880.509	-14.51
880.681	-34.99
880.854	-28.84
881.026	73.56
881.198	67.41
881.37	-55.47
881.542	40.79
881.714	-6.31
881.886	38.74
882.058	-16.55
882.23	5.97
882.402	-32.94
882.574	28.5
882.746	14.17
882.918	-18.6
883.09	20.31
883.262	46.93
883.434	-39.08
883.606	-43.18
883.778	5.97
883.95	12.12
884.122	79.7
884.293	-41.13
884.465	22.36
884.637	14.17
884.809	-39.08
884.98	3.93
885.152	-8.36
885.324	65.36
885.496	-6.31
885.667	77.65
885.839	53.08
886.011	-30.89
886.182	-16.55
886.354	30.55
886.525	-37.03
886.697	26.45
886.869	40.79
887.04	22.36
887.212	22.36
887.383	-0.17
887.555	-10.41
887.726	-24.75
887.897	-49.32
888.069	-0.17
888.24	83.8
888.412	-61.61
888.583	40.79
888.754	-16.55
888.926	-34.99
889.097	5.97
889.268	-51.37
889.44	18.26
889.611	-6.31
889.782	-41.13
889.953	18.26
890.125	-4.27
890.296	-16.55
890.467	-10.41
890.638	-28.84
890.809	-8.36
890.98	-18.6
891.151	-18.6
891.323	24.4
891.494	65.36
891.665	-59.56
891.836	-4.27
892.007	69.46
892.178	34.64
892.349	-59.56
892.52	-14.51
892.691	20.31
892.862	18.26
893.032	8.02
893.203	16.21
893.374	-4.27
893.545	-10.41
893.716	-92.33
893.887	-10.41
894.057	-53.42
894.228	26.45
894.399	-37.03
894.57	65.36
894.74	8.02
894.911	-24.75
895.082	57.17
895.253	22.36
895.423	-2.22
895.594	96.08
895.764	18.26
895.935	1.88
896.106	8.02
896.276	-26.79
896.447	5.97
896.617	-34.99
896.788	1.88
896.958	-0.17
897.129	46.93
897.299	59.22
897.47	8.02
897.64	57.17
897.81	-59.56
897.981	20.31
898.151	-61.61
898.322	-57.51
898.492	-2.22
898.662	-10.41
898.832	-20.65
899.003	73.56
899.173	96.08
899.343	-4.27
899.513	-43.18
