Data from USB4F104151__93__13-13-13-469.txt Node

Date: Fri Mar 14 13:13:13 EDT 2025
User: louis
Spectrometer: USB4F10415
Trigger mode: 4
Integration Time (sec): 2.000000E-2
Scans to average: 1
Electric dark correction enabled: true
Nonlinearity correction enabled: false
Boxcar width: 0
XAxis mode: Wavelengths
Number of Pixels in Spectrum: 3648
>>>>>Begin Spectral Data<<<<<
178.204	-83.63
178.424	-83.63
178.644	-83.63
178.864	-118.44
179.084	-59.05
179.304	18.77
179.524	31.06
179.744	-34.47
179.964	49.49
180.184	10.58
180.404	35.16
180.624	-9.9
180.844	22.87
181.064	-46.76
181.283	-18.09
181.503	-22.19
181.723	-36.52
181.943	39.25
182.163	-9.9
182.383	-5.8
182.602	76.12
182.822	43.35
183.042	-13.99
183.262	-20.14
183.482	6.49
183.701	-42.67
183.921	39.25
184.141	49.49
184.361	110.93
184.58	-1.71
184.8	65.88
185.02	-89.77
185.239	20.82
185.459	-40.62
185.679	65.88
185.898	-7.85
186.118	49.49
186.338	-1.71
186.557	41.3
186.777	-1.71
186.997	-50.86
187.216	14.68
187.436	82.26
187.655	-13.99
187.875	-20.14
188.095	59.73
188.314	76.12
188.534	-1.71
188.753	14.68
188.973	14.68
189.192	63.83
189.412	51.54
189.631	47.44
189.851	-24.23
190.07	31.06
190.29	-116.39
190.509	-13.99
190.729	98.64
190.948	31.06
191.168	88.4
191.387	49.49
191.607	-26.28
191.826	47.44
192.045	82.26
192.265	39.25
192.484	49.49
192.704	2.39
192.923	22.87
193.142	39.25
193.362	63.83
193.581	0.34
193.8	14.68
194.02	20.82
194.239	41.3
194.458	67.92
194.678	63.83
194.897	74.07
195.116	-7.85
195.335	35.16
195.555	43.35
195.774	-18.09
195.993	6.49
196.212	35.16
196.432	-30.38
196.651	12.63
196.87	-7.85
197.089	108.88
197.308	22.87
197.528	37.2
197.747	-28.33
197.966	22.87
198.185	2.39
198.404	-18.09
198.623	2.39
198.842	26.96
199.062	55.64
199.281	63.83
199.5	14.68
199.719	67.92
199.938	-32.43
200.157	26.96
200.376	-7.85
200.595	47.44
200.814	41.3
201.033	-81.58
201.252	72.02
201.471	88.4
201.69	49.49
201.909	-32.43
202.128	14.68
202.347	53.59
202.566	26.96
202.785	6.49
203.004	31.06
203.223	47.44
203.442	45.4
203.661	4.44
203.879	-13.99
204.098	-36.52
204.317	29.01
204.536	45.4
204.755	29.01
204.974	121.17
205.193	20.82
205.411	112.98
205.63	4.44
205.849	57.68
206.068	-30.38
206.287	-48.81
206.505	-26.28
206.724	-26.28
206.943	-16.04
207.162	2.39
207.381	96.6
207.599	49.49
207.818	26.96
208.037	-69.29
208.255	-30.38
208.474	-36.52
208.693	37.2
208.911	8.53
209.13	-13.99
209.349	55.64
209.567	35.16
209.786	78.16
210.005	51.54
210.223	14.68
210.442	-5.8
210.661	0.34
210.879	22.87
211.098	6.49
211.316	88.4
211.535	-5.8
211.753	-28.33
211.972	-85.67
212.191	41.3
212.409	51.54
212.628	84.31
212.846	47.44
213.065	-1.71
213.283	-7.85
213.502	14.68
213.72	31.06
213.938	90.45
214.157	51.54
214.375	35.16
214.594	-63.15
214.812	24.92
215.031	18.77
215.249	-40.62
215.467	14.68
215.686	-22.19
215.904	76.12
216.122	2.39
216.341	49.49
216.559	24.92
216.778	14.68
216.996	8.53
217.214	22.87
217.432	20.82
217.651	-5.8
217.869	31.06
218.087	-22.19
218.306	-13.99
218.524	80.21
218.742	18.77
218.96	8.53
219.179	6.49
219.397	18.77
219.615	59.73
219.833	-9.9
220.051	14.68
220.27	65.88
220.488	29.01
220.706	-42.67
220.924	-30.38
221.142	6.49
221.36	39.25
221.578	35.16
221.796	51.54
222.015	0.34
222.233	63.83
222.451	14.68
222.669	-40.62
222.887	117.08
223.105	-26.28
223.323	72.02
223.541	20.82
223.759	24.92
223.977	51.54
224.195	39.25
224.413	-16.04
224.631	55.64
224.849	-7.85
225.067	2.39
225.285	-36.52
225.503	-7.85
225.721	-11.95
225.939	-1.71
226.157	6.49
226.375	72.02
226.592	39.25
226.81	-16.04
227.028	10.58
227.246	84.31
227.464	-7.85
227.682	76.12
227.9	57.68
228.117	22.87
228.335	31.06
228.553	74.07
228.771	18.77
228.989	6.49
229.206	35.16
229.424	59.73
229.642	-13.99
229.86	18.77
230.077	72.02
230.295	41.3
230.513	-7.85
230.731	78.16
230.948	78.16
231.166	59.73
231.384	47.44
231.601	35.16
231.819	16.73
232.037	10.58
232.254	20.82
232.472	-24.23
232.689	-13.99
232.907	2.39
233.125	-65.19
233.342	-1.71
233.56	72.02
233.777	-16.04
233.995	-9.9
234.213	82.26
234.43	47.44
234.648	14.68
234.865	6.49
235.083	88.4
235.3	-5.8
235.518	72.02
235.735	59.73
235.953	45.4
236.17	57.68
236.388	12.63
236.605	-11.95
236.822	69.97
237.04	41.3
237.257	41.3
237.475	-7.85
237.692	55.64
237.909	84.31
238.127	26.96
238.344	4.44
238.562	-5.8
238.779	39.25
238.996	31.06
239.214	-24.23
239.431	67.92
239.648	-46.76
239.865	47.44
240.083	49.49
240.3	-38.57
240.517	-7.85
240.735	-9.9
240.952	67.92
241.169	-7.85
241.386	26.96
241.603	-16.04
241.821	10.58
242.038	51.54
242.255	-16.04
242.472	67.92
242.689	29.01
242.907	16.73
243.124	14.68
243.341	55.64
243.558	-16.04
243.775	-5.8
243.992	14.68
244.209	-5.8
244.426	2.39
244.643	-18.09
244.86	8.53
245.078	22.87
245.295	39.25
245.512	-40.62
245.729	80.21
245.946	10.58
246.163	33.11
246.38	78.16
246.597	135.51
246.814	-1.71
247.031	20.82
247.248	16.73
247.464	-7.85
247.681	-18.09
247.898	16.73
248.115	22.87
248.332	-52.91
248.549	20.82
248.766	57.68
248.983	47.44
249.2	53.59
249.417	24.92
249.633	61.78
249.85	6.49
250.067	31.06
250.284	6.49
250.501	-7.85
250.717	57.68
250.934	29.01
251.151	-7.85
251.368	41.3
251.585	-63.15
251.801	-32.43
252.018	-22.19
252.235	39.25
252.451	-5.8
252.668	-1.71
252.885	20.82
253.102	24.92
253.318	6.49
253.535	33.11
253.752	-11.95
253.968	-18.09
254.185	41.3
254.401	-20.14
254.618	47.44
254.835	43.35
255.051	-11.95
255.268	-50.86
255.484	49.49
255.701	-42.67
255.917	-7.85
256.134	51.54
256.351	35.16
256.567	-7.85
256.784	26.96
257	-77.48
257.217	-9.9
257.433	-5.8
257.65	59.73
257.866	39.25
258.082	-120.49
258.299	-16.04
258.515	6.49
258.732	37.2
258.948	-36.52
259.165	0.34
259.381	-9.9
259.597	49.49
259.814	14.68
260.03	18.77
260.246	61.78
260.463	39.25
260.679	67.92
260.895	-42.67
261.112	43.35
261.328	39.25
261.544	-22.19
261.761	6.49
261.977	-9.9
262.193	18.77
262.409	80.21
262.626	2.39
262.842	82.26
263.058	-7.85
263.274	80.21
263.49	-26.28
263.707	72.02
263.923	14.68
264.139	24.92
264.355	-26.28
264.571	72.02
264.787	-48.81
265.004	63.83
265.22	14.68
265.436	-67.24
265.652	-83.63
265.868	22.87
266.084	12.63
266.3	-20.14
266.516	-110.25
266.732	37.2
266.948	49.49
267.164	65.88
267.38	6.49
267.596	-9.9
267.812	98.64
268.028	-1.71
268.244	45.4
268.46	-9.9
268.676	-16.04
268.892	67.92
269.108	-5.8
269.324	47.44
269.54	47.44
269.756	31.06
269.972	-44.71
270.188	22.87
270.403	-48.81
270.619	49.49
270.835	6.49
271.051	55.64
271.267	53.59
271.483	43.35
271.698	35.16
271.914	-30.38
272.13	-28.33
272.346	-7.85
272.562	-67.24
272.777	102.74
272.993	53.59
273.209	-9.9
273.425	12.63
273.64	2.39
273.856	72.02
274.072	26.96
274.287	14.68
274.503	55.64
274.719	-34.47
274.934	-3.75
275.15	-26.28
275.366	39.25
275.581	35.16
275.797	43.35
276.012	-16.04
276.228	80.21
276.444	57.68
276.659	29.01
276.875	-7.85
277.09	-36.52
277.306	31.06
277.521	-30.38
277.737	26.96
277.952	-32.43
278.168	92.5
278.383	-32.43
278.599	33.11
278.814	-5.8
279.03	69.97
279.245	29.01
279.461	10.58
279.676	6.49
279.892	90.45
280.107	-7.85
280.322	53.59
280.538	-24.23
280.753	22.87
280.969	2.39
281.184	20.82
281.399	51.54
281.615	-30.38
281.83	6.49
282.045	-16.04
282.26	20.82
282.476	-1.71
282.691	74.07
282.906	2.39
283.122	18.77
283.337	35.16
283.552	39.25
283.767	2.39
283.983	-38.57
284.198	47.44
284.413	47.44
284.628	22.87
284.843	39.25
285.058	39.25
285.274	35.16
285.489	16.73
285.704	-1.71
285.919	-5.8
286.134	4.44
286.349	6.49
286.564	51.54
286.779	-1.71
286.995	90.45
287.21	-11.95
287.425	108.88
287.64	33.11
287.855	-9.9
288.07	-57
288.285	14.68
288.5	18.77
288.715	53.59
288.93	-16.04
289.145	-16.04
289.36	37.2
289.575	33.11
289.79	94.55
290.004	51.54
290.219	14.68
290.434	31.06
290.649	-42.67
290.864	115.03
291.079	-7.85
291.294	-20.14
291.509	26.96
291.724	-18.09
291.938	43.35
292.153	0.34
292.368	20.82
292.583	6.49
292.798	39.25
293.012	2.39
293.227	51.54
293.442	35.16
293.657	47.44
293.871	49.49
294.086	80.21
294.301	8.53
294.516	33.11
294.73	-40.62
294.945	0.34
295.16	29.01
295.374	16.73
295.589	45.4
295.804	-38.57
296.018	-24.23
296.233	-22.19
296.447	29.01
296.662	14.68
296.877	65.88
297.091	6.49
297.306	-11.95
297.52	-26.28
297.735	22.87
297.949	20.82
298.164	43.35
298.378	43.35
298.593	10.58
298.807	-24.23
299.022	121.17
299.236	31.06
299.451	6.49
299.665	-73.39
299.88	65.88
300.094	18.77
300.309	33.11
300.523	39.25
300.737	55.64
300.952	-30.38
301.166	31.06
301.381	-52.91
301.595	-11.95
301.809	37.2
302.024	-11.95
302.238	18.77
302.452	133.46
302.667	39.25
302.881	39.25
303.095	-13.99
303.309	41.3
303.524	67.92
303.738	45.4
303.952	-1.71
304.166	12.63
304.381	-9.9
304.595	74.07
304.809	43.35
305.023	76.12
305.237	10.58
305.452	-22.19
305.666	26.96
305.88	39.25
306.094	-18.09
306.308	49.49
306.522	16.73
306.736	47.44
306.95	119.12
307.164	-22.19
307.379	-7.85
307.593	174.42
307.807	37.2
308.021	16.73
308.235	-20.14
308.449	-34.47
308.663	49.49
308.877	88.4
309.091	33.11
309.305	49.49
309.519	-73.39
309.733	-32.43
309.947	-18.09
310.161	55.64
310.374	61.78
310.588	18.77
310.802	-1.71
311.016	33.11
311.23	37.2
311.444	35.16
311.658	41.3
311.872	0.34
312.085	16.73
312.299	-22.19
312.513	-9.9
312.727	6.49
312.941	72.02
313.154	-24.23
313.368	74.07
313.582	-3.75
313.796	8.53
314.009	20.82
314.223	43.35
314.437	55.64
314.651	24.92
314.864	-7.85
315.078	72.02
315.292	26.96
315.505	16.73
315.719	6.49
315.933	76.12
316.146	12.63
316.36	-59.05
316.573	-1.71
316.787	37.2
317.001	-30.38
317.214	-9.9
317.428	-9.9
317.641	-22.19
317.855	-3.75
318.068	2.39
318.282	100.69
318.495	20.82
318.709	39.25
318.922	-13.99
319.136	84.31
319.349	80.21
319.563	72.02
319.776	31.06
319.99	-7.85
320.203	51.54
320.417	112.98
320.63	86.36
320.843	119.12
321.057	-42.67
321.27	-26.28
321.483	41.3
321.697	-18.09
321.91	119.12
322.124	37.2
322.337	8.53
322.55	12.63
322.763	6.49
322.977	-32.43
323.19	-1.71
323.403	4.44
323.617	8.53
323.83	86.36
324.043	31.06
324.256	104.79
324.469	-63.15
324.683	121.17
324.896	55.64
325.109	37.2
325.322	39.25
325.535	20.82
325.748	35.16
325.962	86.36
326.175	63.83
326.388	90.45
326.601	39.25
326.814	14.68
327.027	-1.71
327.24	104.79
327.453	-5.8
327.666	67.92
327.879	-30.38
328.092	67.92
328.305	35.16
328.518	2.39
328.731	-26.28
328.944	-26.28
329.157	117.08
329.37	63.83
329.583	57.68
329.796	41.3
330.009	88.4
330.222	37.2
330.435	20.82
330.648	-13.99
330.861	39.25
331.073	39.25
331.286	-5.8
331.499	63.83
331.712	4.44
331.925	55.64
332.138	-13.99
332.35	43.35
332.563	2.39
332.776	47.44
332.989	-34.47
333.202	-71.34
333.414	-1.71
333.627	-3.75
333.84	-16.04
334.053	-36.52
334.265	-40.62
334.478	10.58
334.691	-7.85
334.903	6.49
335.116	45.4
335.329	45.4
335.541	-22.19
335.754	61.78
335.966	39.25
336.179	41.3
336.392	16.73
336.604	29.01
336.817	16.73
337.029	20.82
337.242	-28.33
337.454	14.68
337.667	14.68
337.88	35.16
338.092	-5.8
338.305	31.06
338.517	-7.85
338.729	18.77
338.942	108.88
339.154	-50.86
339.367	69.97
339.579	47.44
339.792	31.06
340.004	80.21
340.217	41.3
340.429	8.53
340.641	74.07
340.854	-16.04
341.066	-5.8
341.278	65.88
341.491	51.54
341.703	98.64
341.915	24.92
342.128	-26.28
342.34	37.2
342.552	14.68
342.764	72.02
342.977	37.2
343.189	-18.09
343.401	12.63
343.613	-1.71
343.826	6.49
344.038	-73.39
344.25	-13.99
344.462	2.39
344.674	49.49
344.886	-22.19
345.099	-7.85
345.311	39.25
345.523	125.27
345.735	43.35
345.947	43.35
346.159	22.87
346.371	-26.28
346.583	8.53
346.795	61.78
347.007	-7.85
347.219	43.35
347.431	86.36
347.643	104.79
347.855	74.07
348.067	-1.71
348.279	-38.57
348.491	115.03
348.703	76.12
348.915	24.92
349.127	-57
349.339	6.49
349.551	45.4
349.763	88.4
349.975	94.55
350.187	72.02
350.399	49.49
350.61	51.54
350.822	-7.85
351.034	63.83
351.246	0.34
351.458	88.4
351.669	14.68
351.881	43.35
352.093	147.8
352.305	41.3
352.517	45.4
352.728	31.06
352.94	-9.9
353.152	33.11
353.363	-26.28
353.575	14.68
353.787	96.6
353.999	80.21
354.21	100.69
354.422	-11.95
354.633	-9.9
354.845	-1.71
355.057	-1.71
355.268	-50.86
355.48	-40.62
355.692	-22.19
355.903	31.06
356.115	-1.71
356.326	16.73
356.538	98.64
356.749	69.97
356.961	104.79
357.172	45.4
357.384	61.78
357.595	88.4
357.807	-22.19
358.018	67.92
358.23	47.44
358.441	-9.9
358.653	-50.86
358.864	-34.47
359.075	18.77
359.287	-13.99
359.498	22.87
359.709	-11.95
359.921	65.88
360.132	24.92
360.344	51.54
360.555	57.68
360.766	61.78
360.977	55.64
361.189	12.63
361.4	31.06
361.611	117.08
361.823	88.4
362.034	18.77
362.245	31.06
362.456	41.3
362.667	31.06
362.879	-42.67
363.09	8.53
363.301	31.06
363.512	26.96
363.723	22.87
363.935	29.01
364.146	112.98
364.357	31.06
364.568	39.25
364.779	55.64
364.99	61.78
365.201	-9.9
365.412	18.77
365.623	-16.04
365.834	59.73
366.045	61.78
366.256	86.36
366.467	26.96
366.678	102.74
366.889	-9.9
367.1	22.87
367.311	22.87
367.522	6.49
367.733	39.25
367.944	29.01
368.155	47.44
368.366	-46.76
368.577	41.3
368.788	104.79
368.999	2.39
369.209	49.49
369.42	117.08
369.631	72.02
369.842	14.68
370.053	63.83
370.264	74.07
370.474	47.44
370.685	-7.85
370.896	16.73
371.107	2.39
371.317	6.49
371.528	55.64
371.739	33.11
371.95	-26.28
372.16	47.44
372.371	24.92
372.582	-34.47
372.792	96.6
373.003	31.06
373.214	-61.1
373.424	39.25
373.635	-1.71
373.846	26.96
374.056	-46.76
374.267	-34.47
374.477	43.35
374.688	-16.04
374.898	90.45
375.109	53.59
375.319	6.49
375.53	69.97
375.74	-11.95
375.951	84.31
376.161	6.49
376.372	39.25
376.582	-18.09
376.793	65.88
377.003	18.77
377.214	-50.86
377.424	18.77
377.635	39.25
377.845	22.87
378.055	100.69
378.266	20.82
378.476	-50.86
378.686	-22.19
378.897	49.49
379.107	39.25
379.317	41.3
379.528	39.25
379.738	119.12
379.948	37.2
380.158	22.87
380.369	-34.47
380.579	-1.71
380.789	41.3
380.999	6.49
381.21	74.07
381.42	98.64
381.63	22.87
381.84	72.02
382.05	24.92
382.261	41.3
382.471	51.54
382.681	-16.04
382.891	61.78
383.101	35.16
383.311	-26.28
383.521	-11.95
383.731	-32.43
383.941	94.55
384.151	90.45
384.361	29.01
384.571	63.83
384.781	12.63
384.991	98.64
385.201	65.88
385.411	80.21
385.621	115.03
385.831	45.4
386.041	18.77
386.251	6.49
386.461	78.16
386.671	65.88
386.881	31.06
387.091	-13.99
387.301	74.07
387.511	14.68
387.72	55.64
387.93	45.4
388.14	18.77
388.35	100.69
388.56	63.83
388.769	49.49
388.979	55.64
389.189	53.59
389.399	39.25
389.609	12.63
389.818	65.88
390.028	100.69
390.238	41.3
390.447	74.07
390.657	61.78
390.867	41.3
391.076	-24.23
391.286	51.54
391.496	117.08
391.705	24.92
391.915	43.35
392.125	55.64
392.334	-1.71
392.544	57.68
392.753	61.78
392.963	-13.99
393.172	49.49
393.382	-9.9
393.591	76.12
393.801	22.87
394.01	125.27
394.22	80.21
394.429	115.03
394.639	33.11
394.848	80.21
395.058	6.49
395.267	26.96
395.477	98.64
395.686	47.44
395.895	135.51
396.105	57.68
396.314	61.78
396.524	61.78
396.733	2.39
396.942	74.07
397.152	39.25
397.361	80.21
397.57	18.77
397.78	29.01
397.989	92.5
398.198	106.84
398.407	43.35
398.617	31.06
398.826	76.12
399.035	65.88
399.244	125.27
399.453	49.49
399.663	145.75
399.872	90.45
400.081	-9.9
400.29	96.6
400.499	16.73
400.708	14.68
400.917	137.56
401.127	51.54
401.336	18.77
401.545	51.54
401.754	29.01
401.963	76.12
402.172	129.36
402.381	14.68
402.59	12.63
402.799	123.22
403.008	84.31
403.217	26.96
403.426	96.6
403.635	141.65
403.844	41.3
404.053	84.31
404.262	125.27
404.471	117.08
404.68	80.21
404.888	31.06
405.097	-22.19
405.306	74.07
405.515	139.6
405.724	90.45
405.933	117.08
406.142	135.51
406.35	82.26
406.559	88.4
406.768	178.51
406.977	158.03
407.185	139.6
407.394	115.03
407.603	106.84
407.812	180.56
408.02	106.84
408.229	69.97
408.438	121.17
408.646	172.37
408.855	98.64
409.064	180.56
409.272	201.04
409.481	186.71
409.69	192.85
409.898	231.76
410.107	219.47
410.315	194.9
410.524	184.66
410.733	215.38
410.941	301.39
411.15	307.54
411.358	276.82
411.567	301.39
411.775	270.67
411.984	270.67
412.192	256.34
412.401	309.58
412.609	289.1
412.818	348.5
413.026	371.02
413.234	278.87
413.443	389.46
413.651	350.54
413.86	442.7
414.068	446.8
414.276	448.85
414.485	368.98
414.693	477.52
414.901	489.81
415.11	463.18
415.318	420.17
415.526	473.42
415.734	530.77
415.943	524.62
416.151	559.44
416.359	586.06
416.567	545.1
416.776	661.84
416.984	655.69
417.192	637.26
417.4	686.41
417.608	645.45
417.817	631.12
418.025	753.99
418.233	829.77
418.441	719.18
418.649	780.62
418.857	817.48
419.065	860.49
419.273	891.21
419.481	932.17
419.689	999.75
419.897	1038.66
420.105	1100.1
420.313	1018.18
420.521	1083.72
420.729	1114.44
420.937	1136.96
421.145	1114.44
421.353	1132.87
421.561	1286.47
421.769	1345.86
421.977	1442.11
422.185	1341.76
422.393	1417.54
422.601	1585.47
422.809	1503.55
423.017	1456.45
423.224	1646.91
423.432	1648.96
423.64	1663.29
423.848	1818.94
424.056	1706.3
424.263	1870.14
424.471	1792.31
424.679	1970.49
424.887	2007.35
425.094	2046.26
425.302	2093.37
425.51	2081.08
425.718	2330.93
425.925	2304.31
426.133	2351.41
426.341	2644.27
426.548	2685.23
426.756	2662.7
426.964	2677.04
427.171	2863.4
427.379	2992.42
427.586	2971.94
427.794	3068.2
428.001	3117.35
428.209	3217.7
428.417	3209.51
428.624	3498.27
428.832	3416.35
429.039	3397.92
429.247	3426.59
429.454	3678.49
429.662	3946.78
429.869	3854.62
430.076	4065.56
430.284	3981.59
430.491	4292.88
430.699	4323.6
430.906	4305.17
431.114	4555.02
431.321	4466.96
431.528	4456.72
431.736	4940.04
431.943	5150.98
432.15	5013.77
432.358	5118.22
432.565	5345.54
432.772	5308.68
432.979	5685.5
433.187	5662.97
433.394	5693.69
433.601	6113.53
433.808	6093.05
434.016	6021.37
434.223	6414.58
434.43	6881.52
434.637	6678.77
434.844	6985.96
435.052	7160.04
435.259	7176.42
435.466	7293.16
435.673	7063.79
435.88	7600.35
436.087	8042.71
436.294	8134.87
436.501	7733.47
436.708	8067.29
436.915	8550.61
437.122	8562.9
437.329	8413.4
437.537	8956.11
437.743	8972.49
437.95	8995.02
438.157	9304.26
438.364	9836.74
438.571	9685.19
438.778	9881.79
438.985	10643.63
439.192	10053.82
439.399	10623.16
439.606	10342.58
439.813	11012.27
440.02	11710.63
440.227	11335.85
440.433	11231.4
440.64	11679.91
440.847	11745.44
441.054	11921.57
441.261	12720.28
441.467	12421.27
441.674	12677.27
441.881	13291.66
442.088	13379.72
442.294	13158.54
442.501	13308.04
442.708	13695.11
442.914	14483.58
443.121	15100.01
443.328	14530.68
443.534	15499.37
443.741	15220.85
443.948	14753.91
444.154	16048.22
444.361	16162.91
444.568	15972.45
444.774	15986.79
444.981	16320.6
445.187	16697.43
445.394	17459.27
445.6	17344.59
445.807	18944.05
446.013	18044.99
446.22	18505.79
446.426	19230.77
446.633	19259.44
446.839	19970.08
447.046	19169.33
447.252	20111.39
447.459	19986.47
447.665	20353.05
447.871	21260.3
448.078	22118.4
448.284	20889.62
448.491	21583.88
448.697	22482.94
448.903	22960.12
449.11	22874.1
449.316	22521.85
449.522	22966.26
449.728	23435.25
449.935	23627.76
450.141	23681
450.347	24307.68
450.553	23549.93
450.76	24035.3
450.966	24547.29
451.172	24307.68
451.378	24940.5
451.584	24692.7
451.791	25522.13
451.997	25229.27
452.203	25835.47
452.409	25614.29
452.615	25440.21
452.821	24465.38
453.027	24463.33
453.233	25649.1
453.44	24592.35
453.646	25022.42
453.852	25044.95
454.058	25825.23
454.264	24721.37
454.47	25288.66
454.676	24551.39
454.882	25556.94
455.088	23304.18
455.294	23789.55
455.5	24143.84
455.705	24281.06
455.911	23255.03
456.117	23001.08
456.323	22806.52
456.529	21497.87
456.735	22755.32
456.941	21811.21
457.147	21301.26
457.352	20957.21
457.558	20615.19
457.764	20674.59
457.97	20371.49
458.176	19935.27
458.381	19849.25
458.587	18802.74
458.793	18733.11
458.999	17913.92
459.204	19140.66
459.41	18712.63
459.616	17430.6
459.821	17508.43
460.027	17406.03
460.233	17123.41
460.438	16451.67
460.644	16502.87
460.85	15581.29
461.055	15616.1
461.261	15536.23
461.466	14035.07
461.672	13725.83
461.878	14805.11
462.083	14016.64
462.289	13623.43
462.494	13191.31
462.7	12892.3
462.905	12589.21
463.111	12828.82
463.316	12773.52
463.522	12480.66
463.727	12617.88
463.932	12558.49
464.138	12490.9
464.343	12451.99
464.549	12116.12
464.754	12738.71
464.959	12486.81
465.165	12357.78
465.37	11745.44
465.575	11475.11
465.781	12234.91
465.986	12189.85
466.191	11714.72
466.397	11581.6
466.602	11036.84
466.807	11262.12
467.012	11325.61
467.218	11194.54
467.423	11139.24
467.628	11303.08
467.833	11593.89
468.038	11172.01
468.244	10901.68
468.449	11282.6
468.654	10887.34
468.859	10737.84
469.064	10836.14
469.269	10399.93
469.474	10592.44
469.679	10608.82
469.885	10309.82
470.09	10500.28
470.295	10414.26
470.5	10231.99
470.705	10283.19
470.91	9971.9
471.115	10125.5
471.32	10213.56
471.525	10023.1
471.73	9775.3
471.935	9767.1
472.139	9316.55
472.344	9515.2
472.549	9502.92
472.754	9468.1
472.959	9466.05
473.164	9119.95
473.369	9044.17
473.574	8980.68
473.778	9181.39
473.983	9115.85
474.188	9031.88
474.393	8716.5
474.598	8710.35
474.802	8601.81
475.007	8425.68
475.212	8550.61
475.417	8216.79
475.621	8272.09
475.826	8497.36
476.031	8294.61
476.235	7921.88
476.44	8220.89
476.645	8075.48
476.849	7925.98
477.054	7852.25
477.259	7667.94
477.463	7665.89
477.668	7428.32
477.872	7657.7
478.077	7678.18
478.282	7133.42
478.486	7313.64
478.691	7119.08
478.895	7082.22
479.1	7215.34
479.304	7172.33
479.509	7061.74
479.713	7198.95
479.918	6852.84
480.122	6793.45
480.326	6906.09
480.531	6885.61
480.735	6701.3
480.94	6576.37
481.144	6848.75
481.348	6635.76
481.553	6725.87
481.757	6699.25
481.961	6764.78
482.166	6629.62
482.37	6600.94
482.574	6543.6
482.778	6539.51
482.983	6633.71
483.187	6537.46
483.391	6578.42
483.595	6510.83
483.8	6545.65
484.004	6564.08
484.208	6762.73
484.412	6566.13
484.616	6564.08
484.821	6469.87
485.025	6500.59
485.229	6709.49
485.433	6580.46
485.637	6557.94
485.841	6629.62
486.045	6424.82
486.249	6502.64
486.453	6418.68
486.657	6592.75
486.861	6576.37
487.065	6408.44
487.269	6678.77
487.473	6478.07
487.677	6680.82
487.881	6744.3
488.085	6469.87
488.289	6703.34
488.493	6441.2
488.697	6689.01
488.901	6596.85
489.105	6607.09
489.309	6615.28
489.512	6646
489.716	6656.24
489.92	6723.82
490.124	6627.57
490.328	6914.28
490.531	6469.87
490.735	6625.52
490.939	6793.45
491.143	6707.44
491.346	6689.01
491.55	6877.42
491.754	6766.83
491.958	6902
492.161	6801.65
492.365	6910.19
492.569	6908.14
492.772	7086.31
492.976	7043.31
493.18	7074.03
493.383	7145.7
493.587	7088.36
493.79	7330.02
493.994	7004.39
494.197	7256.29
494.401	7266.53
494.605	7129.32
494.808	7514.34
495.012	7309.54
495.215	7340.26
495.419	7543.01
495.622	7586.02
495.825	7633.12
496.029	7657.7
496.232	7655.65
496.436	7596.26
496.639	7882.97
496.843	7991.52
497.046	7964.89
497.249	8259.8
497.453	8204.5
497.656	8370.39
497.859	8345.81
498.063	8460.5
498.266	8675.54
498.469	8460.5
498.673	8624.34
498.876	8853.71
499.079	8929.49
499.282	8806.61
499.485	9027.79
499.689	9117.9
499.892	9048.27
500.095	9267.4
500.298	9451.72
500.501	9466.05
500.705	9697.47
500.908	9683.14
501.111	9846.98
501.314	9760.96
501.517	9986.24
501.72	10332.34
501.923	10176.7
502.126	10401.97
502.329	10666.16
502.532	10526.9
502.735	10748.08
502.938	10819.76
503.141	11036.84
503.344	11083.95
503.547	11272.36
503.75	11528.36
503.953	11227.31
504.156	11622.56
504.359	11696.29
504.562	11622.56
504.765	11696.29
504.968	11888.8
505.17	12337.31
505.373	12269.72
505.576	12599.45
505.779	12441.75
505.982	12648.6
506.185	13025.42
506.387	12937.36
506.59	13174.92
506.793	13383.82
506.996	13324.43
507.198	13598.85
507.401	13541.51
507.604	13717.64
507.807	14073.98
508.009	14014.59
508.212	14106.75
508.415	14184.57
508.617	14733.43
508.82	14774.39
509.022	14590.07
509.225	15075.44
509.428	15130.73
509.63	15304.81
509.833	15423.59
510.035	15734.89
510.238	15702.12
510.44	15855.72
510.643	16066.66
510.845	16269.41
511.048	16232.54
511.25	16599.13
511.453	16648.28
511.655	17238.09
511.858	16842.84
512.06	16867.41
512.262	17373.26
512.465	17391.69
512.667	17596.49
512.87	17774.66
513.072	18073.67
513.274	18057.28
513.477	18516.03
513.679	18698.3
513.881	18466.88
514.084	18950.2
514.286	18812.98
514.488	19103.79
514.69	19658.79
514.893	19593.26
515.095	19691.56
515.297	19931.17
515.499	20056.1
515.701	20146.21
515.904	20703.26
516.106	20602.91
516.308	20787.22
516.51	21329.94
516.712	20938.77
516.914	21448.72
517.116	21786.63
517.318	21831.69
517.52	21958.66
517.722	22265.86
517.925	22505.47
518.127	22659.07
518.329	22763.51
518.531	22814.71
518.733	23496.69
518.935	23468.02
519.136	23547.89
519.338	23576.56
519.54	23844.84
519.742	24227.81
519.944	24111.08
520.146	24932.31
520.348	24811.48
520.55	24911.83
520.752	24917.98
520.954	25462.74
521.155	25427.92
521.357	25819.08
521.559	25982.92
521.761	26273.73
521.963	26247.11
522.164	26515.39
522.366	26869.69
522.568	26820.54
522.77	27160.5
522.971	27252.66
523.173	27289.52
523.375	27500.47
523.576	27774.89
523.778	27682.73
523.98	28125.1
524.181	28084.14
524.383	28288.93
524.584	28729.25
524.786	28503.97
524.988	28493.73
525.189	28991.39
525.391	29112.22
525.592	29128.6
525.794	29573.01
525.995	29345.69
526.197	29740.94
526.398	29575.06
526.6	30193.54
526.801	30109.58
527.003	30275.46
527.204	30218.12
527.406	30373.77
527.607	30687.11
527.808	30824.32
528.01	30525.32
528.211	30459.78
528.412	31274.87
528.614	31217.53
528.815	31211.39
529.016	31453.05
529.218	31377.27
529.419	31770.48
529.62	31412.09
529.822	31481.72
530.023	31688.56
530.224	31768.43
530.425	31385.46
530.626	31551.35
530.828	31524.72
531.029	32356.2
531.23	31713.14
531.431	31997.81
531.632	31840.11
531.833	32171.88
532.035	32374.63
532.236	31905.65
532.437	32270.18
532.638	32073.58
532.839	32196.46
533.04	32454.5
533.241	32348.01
533.442	32816.99
533.643	32794.46
533.844	32429.93
534.045	32421.73
534.246	32200.55
534.447	32452.45
534.648	32640.87
534.849	32634.72
535.05	32270.18
535.251	32413.54
535.451	32259.95
535.652	32368.49
535.853	32474.98
536.054	32628.58
536.255	32730.98
536.456	32356.2
536.657	32716.64
536.857	32546.66
537.058	32507.75
537.259	32714.59
537.46	32737.12
537.66	32397.16
537.861	32855.9
538.062	32561
538.263	32786.27
538.463	32804.7
538.664	32946.01
538.865	32710.5
539.065	32870.24
539.266	32726.88
539.466	33085.28
539.667	32370.54
539.868	33179.48
540.068	32493.41
540.269	32655.2
540.469	32948.06
540.67	32399.21
540.87	32644.96
541.071	32540.52
541.271	32655.2
541.472	32833.38
541.672	32487.27
541.873	32474.98
542.073	32194.41
542.274	33003.36
542.474	32323.43
542.675	32561
542.875	33015.65
543.075	32741.22
543.276	32264.04
543.476	32352.1
543.676	32472.93
543.877	32604
544.077	32786.27
544.277	32704.35
544.478	32685.92
544.678	32485.22
544.878	32624.48
545.078	32401.25
545.279	32345.96
545.479	32190.31
545.679	32503.65
545.879	32448.36
546.079	32257.9
546.28	32393.06
546.48	32421.73
546.68	32210.79
546.88	32554.85
547.08	32147.31
547.28	32282.47
547.48	32130.92
547.68	32458.6
547.88	32317.29
548.081	32380.78
548.281	32448.36
548.481	32505.7
548.681	32651.11
548.881	32427.88
549.081	32612.2
549.28	32315.24
549.48	32204.65
549.68	32378.73
549.88	32855.9
550.08	32153.45
550.28	32642.92
550.48	32425.83
550.68	32417.64
550.88	32063.34
551.08	32243.56
551.279	32423.78
551.479	32085.87
551.679	32169.83
551.879	32071.53
552.079	32397.16
552.278	32073.58
552.478	31936.37
552.678	31905.65
552.878	32212.84
553.077	31913.84
553.277	31629.17
553.477	32864.1
553.676	32153.45
553.876	31836.02
554.076	31637.36
554.275	31924.08
554.475	31520.63
554.674	32180.07
554.874	31989.61
555.074	31698.8
555.273	31938.41
555.473	31868.78
555.672	31663.99
555.872	31780.72
556.071	32110.44
556.271	31936.37
556.47	31844.21
556.67	31690.61
556.869	31618.93
557.068	31741.81
557.268	31758.19
557.467	31399.8
557.667	31367.03
557.866	31317.88
558.065	31541.11
558.265	31321.98
558.464	31158.14
558.663	31522.68
558.863	31166.33
559.062	31309.69
559.261	30869.37
559.461	31491.96
559.66	30744.45
559.859	31172.47
560.058	30564.23
560.258	31190.91
560.457	30965.63
560.656	31043.45
560.855	30715.78
561.054	30896
561.253	30314.37
561.453	30697.34
561.652	30611.33
561.851	30941.05
562.05	30513.03
562.249	30375.81
562.448	30515.08
562.647	30310.28
562.846	30158.73
563.045	30257.03
563.244	29829.01
563.443	30515.08
563.642	29702.03
563.841	29998.99
564.04	29853.58
564.239	30216.07
564.438	29695.89
564.637	29781.9
564.836	30062.47
565.035	29427.6
565.234	29988.75
565.432	29384.6
565.631	29419.41
565.83	29751.18
566.029	29286.29
566.228	29302.68
566.427	29384.6
566.625	28966.81
566.824	28725.15
567.023	28968.86
567.222	28700.58
567.42	28938.14
567.619	28757.92
567.818	28719.01
568.016	29030.3
568.215	28659.62
568.414	28473.25
568.612	28366.76
568.811	28559.27
569.01	28450.72
569.208	27981.74
569.407	28184.49
569.605	27586.48
569.804	28063.66
570.002	27879.34
570.201	27842.48
570.4	27768.75
570.598	27522.99
570.797	27473.84
570.995	27447.22
571.193	27492.27
571.392	27619.25
571.59	27346.87
571.789	27662.26
571.987	26998.71
572.186	26888.12
572.384	27019.19
572.582	27078.58
572.781	27097.02
572.979	26404.8
573.177	26707.9
573.376	27039.67
573.574	26535.87
573.772	26746.81
573.971	26613.7
574.169	26304.45
574.367	26251.2
574.565	26679.23
574.763	26208.2
574.962	25978.82
575.16	25860.04
575.358	25989.06
575.556	25653.2
575.754	26113.99
575.952	25876.43
576.151	25823.18
576.349	25440.21
576.547	25524.18
576.745	25507.79
576.943	25440.21
577.141	25579.47
577.339	25247.7
577.537	25249.75
577.735	25219.03
577.933	25137.11
578.131	25380.82
578.329	25055.19
578.527	24766.43
578.725	24885.21
578.923	24901.59
579.121	24817.63
579.319	24797.15
579.516	24846.3
579.714	24524.77
579.912	24578.01
580.11	24240.1
580.308	24436.7
580.506	24020.97
580.704	24168.42
580.901	23826.41
581.099	24156.13
581.297	24033.25
581.495	23912.42
581.692	24063.97
581.89	23906.28
582.088	24102.89
582.285	23904.23
582.483	23824.36
582.681	23891.94
582.878	23298.03
583.076	23261.17
583.274	23422.96
583.471	23359.47
583.669	23242.74
583.866	23117.81
584.064	23193.59
584.262	22857.72
584.459	23136.24
584.657	23035.89
584.854	23316.47
585.052	22665.21
585.249	22779.9
585.447	22732.79
585.644	22611.96
585.841	22835.19
586.039	22855.67
586.236	22407.17
586.434	22718.46
586.631	22050.82
586.828	22284.29
587.026	22241.28
587.223	22126.6
587.42	21866.5
587.618	22126.6
587.815	22110.21
588.012	21925.89
588.21	21772.3
588.407	21878.79
588.604	21678.09
588.801	21194.77
588.999	21563.4
589.196	21252.11
589.393	21551.12
589.59	21264.4
589.787	21248.02
589.984	21364.75
590.182	20959.25
590.379	21452.81
590.576	20977.69
590.773	20867.09
590.97	20779.03
591.167	20858.9
591.364	20531.23
591.561	21028.88
591.758	20756.5
591.955	20817.94
592.152	20813.85
592.349	20727.83
592.546	20633.63
592.743	20617.24
592.94	20318.24
593.137	20230.18
593.334	20281.38
593.531	20019.24
593.727	20203.55
593.924	19929.13
594.121	19750.95
594.318	20191.27
594.515	19851.3
594.712	20037.67
594.908	19677.23
595.105	19843.11
595.302	19587.11
595.499	19810.34
595.696	19531.82
595.892	19589.16
596.089	19501.1
596.286	19529.77
596.482	19505.2
596.679	19552.3
596.876	19247.15
597.072	19218.48
597.269	19206.19
597.466	18942
597.662	18827.32
597.859	19052.59
598.055	19011.64
598.252	18843.7
598.448	18731.06
598.645	18593.85
598.841	18626.62
599.038	18798.65
599.234	18446.4
599.431	18808.89
599.627	18393.15
599.824	18460.73
600.02	18552.89
600.217	18401.34
600.413	18159.68
600.609	18124.86
600.806	18126.91
601.002	18286.65
601.198	17844.29
601.395	17961.03
601.591	17866.82
601.787	18036.8
601.984	17641.54
602.18	18126.91
602.376	17776.71
602.572	17768.52
602.769	17901.64
602.965	17500.23
603.161	17557.58
603.357	17311.82
603.553	17401.93
603.75	17207.37
603.946	17254.48
604.142	17178.7
604.338	17289.29
604.534	17100.88
604.73	17207.37
604.926	17104.98
605.122	16941.14
605.318	16855.12
605.514	16945.23
605.71	16722.01
605.906	16869.46
606.102	16674.9
606.298	16867.41
606.494	16504.92
606.69	16889.94
606.886	16801.88
607.082	16261.21
607.278	16744.53
607.474	16625.75
607.67	16392.28
607.866	15896.67
608.062	16605.27
608.257	16185.44
608.453	16265.31
608.649	16273.5
608.845	16250.97
609.041	15827.04
609.236	16136.29
609.432	15984.74
609.628	16058.46
609.824	15951.97
610.019	15806.56
610.215	15906.91
610.411	15990.88
610.606	15642.73
610.802	15855.72
610.998	15579.24
611.193	15655.01
611.389	15579.24
611.584	15499.37
611.78	15190.13
611.976	15542.38
612.171	15734.89
612.367	15427.69
612.562	15501.42
612.758	15259.76
612.953	15339.63
613.149	15511.66
613.344	15140.97
613.539	15401.07
613.735	15325.29
613.93	15222.89
614.126	15247.47
614.321	15239.28
614.517	15482.99
614.712	15169.65
614.907	15022.19
615.103	15110.25
615.298	14970.99
615.493	15208.56
615.688	14919.79
615.884	15175.79
616.079	14874.74
616.274	14919.79
616.47	14858.35
616.665	14772.34
616.86	14639.22
617.055	14706.8
617.25	14678.13
617.445	14801.01
617.641	14481.53
617.836	14475.38
618.031	14579.83
618.226	14590.07
618.421	14422.14
618.616	14409.85
618.811	14270.59
619.006	14420.09
619.201	14282.88
619.396	14166.14
619.591	14141.57
619.786	14227.58
619.981	13994.11
620.176	14198.91
620.371	13990.02
620.566	13774.98
620.761	13858.95
620.956	13936.77
621.151	13506.7
621.346	13756.55
621.541	13269.13
621.735	13392.01
621.93	13400.2
622.125	13451.4
622.32	13254.8
622.515	13324.43
622.709	13392.01
622.904	13086.86
623.099	12994.7
623.294	13183.12
623.488	13146.25
623.683	13045.9
623.878	12716.18
624.072	12775.57
624.267	12660.88
624.462	12804.24
624.656	12433.56
624.851	12433.56
625.046	12441.75
625.24	12359.83
625.435	12083.36
625.629	12232.86
625.824	11894.94
626.018	12007.58
626.213	11638.95
626.407	12095.64
626.602	11780.26
626.796	11950.24
626.991	12093.6
627.185	11716.77
627.38	11638.95
627.574	11509.93
627.768	11409.58
627.963	11331.75
628.157	11225.26
628.352	11362.47
628.546	11055.28
628.74	11341.99
628.935	11157.68
629.129	11124.91
629.323	11026.61
629.517	10895.54
629.712	10952.88
629.906	10809.52
630.1	10807.47
630.294	10956.97
630.489	10897.58
630.683	10657.97
630.877	10330.3
631.071	10520.76
631.265	10514.61
631.459	10531
631.653	10428.6
631.848	10506.42
632.042	10184.89
632.236	10299.58
632.43	9957.57
632.624	10088.64
632.818	9976
633.012	9932.99
633.206	9840.83
633.4	9926.85
633.594	9867.45
633.788	9994.43
633.982	9795.78
634.176	9885.89
634.369	9785.54
634.563	9693.38
634.757	9521.35
634.951	9658.56
635.145	9644.23
635.339	9601.22
635.533	9322.7
635.726	9443.53
635.92	9304.26
636.114	9144.52
636.308	9230.54
636.501	9031.88
636.695	9205.96
636.889	9240.78
637.083	9124.04
637.276	8933.58
637.47	8972.49
637.664	8882.38
637.857	8804.56
638.051	8974.54
638.244	8616.15
638.438	8644.82
638.632	8626.39
638.825	8673.49
639.019	8386.77
639.212	8311
639.406	8444.12
639.599	8296.66
639.793	8407.25
639.986	8145.11
640.18	8349.91
640.373	8329.43
640.567	8210.65
640.76	8085.72
640.954	8081.63
641.147	7991.52
641.34	8067.29
641.534	7858.4
641.727	8003.8
641.92	7952.6
642.114	7919.84
642.307	7862.49
642.5	7827.68
642.694	7786.72
642.887	7569.63
643.08	7669.98
643.273	7780.57
643.467	7608.55
643.66	7334.12
643.853	7647.46
644.046	7297.25
644.239	7418.08
644.432	7428.32
644.626	7272.68
644.819	7266.53
645.012	7182.57
645.205	7180.52
645.398	7254.25
645.591	7237.86
645.784	7051.5
645.977	7000.3
646.17	7037.16
646.363	7002.35
646.556	7002.35
646.749	7092.46
646.942	6879.47
647.135	6785.26
647.328	6793.45
647.521	6732.01
647.714	6492.4
647.907	6887.66
648.099	6666.48
648.292	6686.96
648.485	6770.93
648.678	6674.67
648.871	6582.51
649.064	6494.45
649.256	6619.38
649.449	6494.45
649.642	6494.45
649.835	6347
650.027	6361.33
650.22	6330.61
650.413	6275.32
650.605	6277.37
650.798	6267.13
650.991	6170.87
651.183	6275.32
651.376	6013.18
651.568	6070.52
651.761	6168.82
651.954	5935.35
652.146	6002.94
652.339	5972.22
652.531	5933.31
652.724	5861.63
652.916	5865.72
653.109	5712.13
653.301	5720.32
653.494	5753.09
653.686	5728.51
653.879	5644.54
654.071	5603.58
654.263	5581.06
654.456	5781.76
654.648	5576.96
654.84	5464.32
655.033	5492.99
655.225	5460.23
655.417	5449.99
655.61	5542.14
655.802	5480.71
655.994	5484.8
656.186	5503.23
656.379	5374.21
656.571	5290.24
656.763	5243.14
656.955	5206.28
657.148	5368.07
657.34	5323.01
657.532	5216.52
657.724	5144.84
657.916	5159.17
658.108	5064.97
658.3	5026.06
658.492	5107.98
658.684	5003.53
658.876	4907.27
659.068	4849.93
659.26	5007.62
659.452	4825.36
659.644	4872.46
659.836	4802.83
660.028	4843.79
660.22	4808.97
660.412	4835.6
660.604	4718.86
660.796	4774.16
660.988	4700.43
661.18	4679.95
661.372	4710.67
661.563	4796.68
661.755	4788.49
661.947	4593.94
662.139	4710.67
662.331	4583.7
662.522	4370.71
662.714	4460.82
662.906	4327.7
663.097	4466.96
663.289	4415.76
663.481	4426
663.673	4448.53
663.864	4448.53
664.056	4260.12
664.247	4331.8
664.439	4350.23
664.631	4262.16
664.822	4217.11
665.014	4241.68
665.205	4129.05
665.397	4083.99
665.588	4192.53
665.78	4163.86
665.971	4176.15
666.163	4143.38
666.354	4061.46
666.546	4143.38
666.737	4120.85
666.929	4043.03
667.12	3987.74
667.311	4057.37
667.503	4079.9
667.694	3985.69
667.885	4055.32
668.077	4057.37
668.268	4000.02
668.459	3803.42
668.651	3813.66
668.842	3879.19
669.033	4043.03
669.224	3711.26
669.416	3809.56
669.607	3836.19
669.798	3725.6
669.989	3827.99
670.18	3862.81
670.371	3735.84
670.563	3653.92
670.754	3750.17
670.945	3655.97
671.136	3649.82
671.327	3666.21
671.518	3662.11
671.709	3625.25
671.9	3549.47
672.091	3776.8
672.282	3531.04
672.473	3551.52
672.664	3725.6
672.855	3576.09
673.046	3555.62
673.237	3598.62
673.428	3469.6
673.619	3547.42
673.809	3461.41
674	3549.47
674.191	3383.59
674.382	3373.35
674.573	3432.74
674.764	3510.56
674.954	3385.63
675.145	3254.56
675.336	3418.4
675.527	3430.69
675.717	3367.2
675.908	3344.67
676.099	3440.93
676.289	3258.66
676.48	3422.5
676.671	3367.2
676.861	3318.05
677.052	3389.73
677.243	3127.59
677.433	3383.59
677.624	3346.72
677.814	3301.67
678.005	3289.38
678.195	3299.62
678.386	3322.15
678.576	3217.7
678.767	3111.21
678.957	3148.07
679.148	3277.09
679.338	3375.39
679.529	3186.98
679.719	3238.18
679.909	3205.41
680.1	3215.65
680.29	3119.4
680.481	3225.89
680.671	3217.7
680.861	3178.79
681.052	3111.21
681.242	3164.45
681.432	3258.66
681.622	3248.42
681.813	3070.25
682.003	3113.25
682.193	3057.96
682.383	3125.54
682.573	3184.93
682.764	3098.92
682.954	3117.35
683.144	3146.02
683.334	3123.49
683.524	3113.25
683.714	3088.68
683.904	3127.59
684.094	3182.88
684.284	3082.53
684.474	3041.57
684.664	3057.96
684.854	3072.29
685.044	2918.7
685.234	3105.06
685.424	2939.18
685.614	3103.01
685.804	2896.17
685.994	2961.7
686.184	3131.69
686.374	3039.53
686.564	3184.93
686.753	2945.32
686.943	2928.94
687.133	2961.7
687.323	3012.9
687.513	2885.93
687.702	2980.14
687.892	2955.56
688.082	2875.69
688.272	2785.58
688.461	2855.21
688.651	2939.18
688.841	2842.92
689.03	2861.35
689.22	2826.54
689.41	2926.89
689.599	2765.1
689.789	2816.3
689.979	2973.99
690.168	2808.11
690.358	2662.7
690.547	2619.69
690.737	2816.3
690.926	2791.72
691.116	2654.51
691.305	2789.67
691.495	2693.42
691.684	2656.56
691.874	2603.31
692.063	2541.87
692.252	2564.4
692.442	2509.1
692.631	2482.48
692.82	2496.82
693.01	2560.3
693.199	2533.68
693.388	2457.9
693.578	2531.63
693.767	2521.39
693.956	2601.26
694.146	2523.44
694.335	2586.93
694.524	2519.34
694.713	2648.36
694.902	2455.86
695.092	2562.35
695.281	2609.45
695.47	2562.35
695.659	2441.52
695.848	2447.66
696.037	2439.47
696.226	2482.48
696.415	2316.59
696.604	2507.06
696.793	2486.58
696.982	2453.81
697.171	2472.24
697.36	2496.82
697.549	2418.99
697.738	2464.05
697.927	2390.32
698.116	2513.2
698.305	2378.03
698.494	2281.78
698.683	2353.46
698.872	2455.86
699.061	2408.75
699.25	2341.17
699.438	2406.7
699.627	2349.36
699.816	2337.07
700.005	2289.97
700.193	2351.41
700.382	2195.76
700.571	2324.79
700.76	2347.31
700.948	2351.41
701.137	2285.87
701.326	2433.33
701.514	2330.93
701.703	2349.36
701.892	2439.47
702.08	2435.38
702.269	2365.75
702.457	2253.11
702.646	2253.11
702.834	2259.25
703.023	2404.66
703.212	2343.22
703.4	2330.93
703.589	2302.26
703.777	2302.26
703.965	2261.3
704.154	2298.16
704.342	2400.56
704.531	2367.79
704.719	2283.83
704.907	2318.64
705.096	2171.19
705.284	2230.58
705.472	2210.1
705.661	2318.64
705.849	2324.79
706.037	2322.74
706.226	2251.06
706.414	2326.83
706.602	2373.94
706.79	2242.87
706.979	2251.06
707.167	2326.83
707.355	2298.16
707.543	2339.12
707.731	2363.7
707.919	2406.7
708.107	2206
708.296	2292.02
708.484	2359.6
708.672	2246.96
708.86	2267.44
709.048	2390.32
709.236	2339.12
709.424	2220.34
709.612	2242.87
709.8	2214.2
709.988	2318.64
710.176	2234.68
710.364	2259.25
710.551	2322.74
710.739	2275.63
710.927	2271.54
711.115	2302.26
711.303	2275.63
711.491	2167.09
711.679	2371.89
711.866	2277.68
712.054	2281.78
712.242	2314.55
712.43	2384.18
712.617	2390.32
712.805	2289.97
712.993	2191.67
713.181	2224.44
713.368	2165.04
713.556	2212.15
713.744	2201.91
713.931	2316.59
714.119	2210.1
714.306	2341.17
714.494	2316.59
714.682	2199.86
714.869	2244.92
715.057	2357.55
715.244	2337.07
715.432	2378.03
715.619	2285.87
715.807	2246.96
715.994	2251.06
716.182	2144.56
716.369	2255.15
716.556	2240.82
716.744	2238.77
716.931	2292.02
717.119	2294.07
717.306	2269.49
717.493	2189.62
717.681	2234.68
717.868	2171.19
718.055	2265.39
718.242	2283.83
718.43	2259.25
718.617	2189.62
718.804	2316.59
718.991	2320.69
719.179	2353.46
719.366	2255.15
719.553	2238.77
719.74	2306.35
719.927	2066.74
720.114	2234.68
720.301	2212.15
720.488	2244.92
720.676	2169.14
720.863	2269.49
721.05	2265.39
721.237	2214.2
721.424	2369.84
721.611	2191.67
721.798	2197.81
721.985	2279.73
722.172	2335.03
722.358	2183.48
722.545	2289.97
722.732	2382.13
722.919	2296.11
723.106	2234.68
723.293	2189.62
723.48	2238.77
723.667	2212.15
723.853	2330.93
724.04	2345.27
724.227	2449.71
724.414	2273.59
724.6	2337.07
724.787	2335.03
724.974	2261.3
725.161	2212.15
725.347	2195.76
725.534	2152.76
725.72	2222.39
725.907	2267.44
726.094	2310.45
726.28	2255.15
726.467	2337.07
726.653	2259.25
726.84	2398.51
727.027	2332.98
727.213	2160.95
727.4	2308.4
727.586	2300.21
727.773	2306.35
727.959	2265.39
728.145	2308.4
728.332	2300.21
728.518	2294.07
728.705	2322.74
728.891	2275.63
729.077	2134.32
729.264	2330.93
729.45	2201.91
729.636	2375.99
729.823	2292.02
730.009	2279.73
730.195	2349.36
730.382	2197.81
730.568	2218.29
730.754	2212.15
730.94	2277.68
731.126	2316.59
731.313	2246.96
731.499	2224.44
731.685	2302.26
731.871	2199.86
732.057	2306.35
732.243	2244.92
732.429	2316.59
732.615	2402.61
732.801	2201.91
732.987	2300.21
733.173	2302.26
733.359	2218.29
733.545	2277.68
733.731	2144.56
733.917	2369.84
734.103	2273.59
734.289	2326.83
734.475	2201.91
734.661	2287.92
734.847	2279.73
735.033	2363.7
735.219	2292.02
735.404	2271.54
735.59	2171.19
735.776	2199.86
735.962	2281.78
736.148	2242.87
736.333	2228.53
736.519	2199.86
736.705	2259.25
736.89	2238.77
737.076	2296.11
737.262	2179.38
737.447	2255.15
737.633	2115.89
737.819	2318.64
738.004	2130.23
738.19	2265.39
738.375	2197.81
738.561	2218.29
738.747	2206
738.932	2206
739.118	2179.38
739.303	2189.62
739.489	2111.8
739.674	2220.34
739.859	2076.98
740.045	2171.19
740.23	2160.95
740.416	2115.89
740.601	2193.72
740.786	2074.93
740.972	2029.88
741.157	2107.7
741.342	2142.52
741.528	2105.65
741.713	2175.28
741.898	2066.74
742.084	2138.42
742.269	2201.91
742.454	2070.84
742.639	2054.45
742.824	2081.08
743.01	2089.27
743.195	2031.93
743.38	2042.17
743.565	2048.31
743.75	1970.49
743.935	1980.73
744.12	2212.15
744.305	2113.85
744.49	2003.25
744.675	1859.9
744.86	2023.73
745.045	1956.15
745.23	1970.49
745.415	1972.54
745.6	1939.77
745.785	2025.78
745.97	2038.07
746.155	1878.33
746.34	1931.58
746.525	1927.48
746.71	1915.19
746.895	1890.62
747.079	1843.51
747.264	1880.38
747.449	1947.96
747.634	1941.82
747.819	1870.14
748.003	1841.47
748.188	1851.71
748.373	1792.31
748.557	1816.89
748.742	1804.6
748.927	1741.11
749.111	1769.79
749.296	1777.98
749.481	1849.66
749.665	1728.83
749.85	1677.63
750.034	1714.49
750.219	1651
750.404	1640.76
750.588	1638.72
750.773	1708.35
750.957	1638.72
751.141	1657.15
751.326	1612.09
751.51	1526.08
751.695	1575.23
751.879	1575.23
752.064	1530.17
752.248	1605.95
752.432	1620.28
752.617	1511.74
752.801	1556.8
752.985	1536.32
753.17	1532.22
753.354	1517.89
753.538	1444.16
753.722	1476.93
753.907	1472.83
754.091	1534.27
754.275	1472.83
754.459	1417.54
754.643	1489.21
754.828	1419.58
755.012	1448.26
755.196	1337.66
755.38	1413.44
755.564	1429.82
755.748	1286.47
755.932	1368.38
756.116	1347.9
756.3	1384.77
756.484	1405.25
756.668	1425.73
756.852	1278.27
757.036	1302.85
757.22	1296.71
757.404	1315.14
757.588	1368.38
757.772	1335.62
757.956	1284.42
758.14	1341.76
758.323	1253.7
758.507	1354.05
758.691	1276.23
758.875	1225.03
759.059	1235.27
759.242	1124.68
759.426	1364.29
759.61	1272.13
759.794	1208.64
759.977	1149.25
760.161	1251.65
760.345	1143.11
760.528	1116.48
760.712	1159.49
760.895	1300.8
761.079	1179.97
761.263	1050.95
761.446	1091.91
761.63	1122.63
761.813	1155.4
761.997	1055.05
762.18	1132.87
762.364	1083.72
762.547	936.26
762.731	1089.86
762.914	1089.86
763.098	1081.67
763.281	1085.76
763.464	1020.23
763.648	1079.62
763.831	1053
764.015	991.56
764.198	1081.67
764.381	1048.9
764.564	1134.92
764.748	1028.42
764.931	1014.09
765.114	1108.29
765.297	950.6
765.481	954.69
765.664	983.37
765.847	964.93
766.03	981.32
766.213	977.22
766.397	1014.09
766.58	1055.05
766.763	989.51
766.946	950.6
767.129	1022.28
767.312	928.07
767.495	934.22
767.678	897.35
767.861	938.31
768.044	981.32
768.227	891.21
768.41	889.16
768.593	917.83
768.776	901.45
768.959	960.84
769.142	989.51
769.324	960.84
769.507	921.93
769.69	829.77
769.873	928.07
770.056	993.61
770.239	911.69
770.421	981.32
770.604	946.5
770.787	862.54
770.97	940.36
771.152	862.54
771.335	835.91
771.518	844.1
771.7	899.4
771.883	827.72
772.066	827.72
772.248	842.06
772.431	850.25
772.613	852.3
772.796	807.24
772.978	833.86
773.161	809.29
773.343	784.71
773.526	792.91
773.708	760.14
773.891	731.47
774.073	758.09
774.256	840.01
774.438	760.14
774.621	784.71
774.803	803.15
774.985	735.56
775.168	710.99
775.35	688.46
775.532	762.19
775.715	737.61
775.897	743.75
776.079	676.17
776.261	786.76
776.444	692.55
776.626	710.99
776.808	637.26
776.99	639.31
777.173	706.89
777.355	735.56
777.537	797
777.719	657.74
777.901	594.25
778.083	559.44
778.265	588.11
778.447	788.81
778.629	596.3
778.811	653.64
778.993	563.53
779.175	598.35
779.357	647.5
779.539	620.88
779.721	629.07
779.903	635.21
780.085	538.96
780.267	590.16
780.449	586.06
780.631	549.2
780.812	530.77
780.994	624.97
781.176	555.34
781.358	532.81
781.54	602.44
781.721	624.97
781.903	498
782.085	541.01
782.267	614.73
782.448	543.05
782.63	528.72
782.812	502.09
782.993	508.24
783.175	504.14
783.357	532.81
783.538	555.34
783.72	414.03
783.901	520.53
784.083	502.09
784.264	493.9
784.446	414.03
784.627	426.32
784.809	438.61
784.99	399.7
785.172	459.09
785.353	450.89
785.535	452.94
785.716	448.85
785.897	420.17
786.079	426.32
786.26	436.56
786.441	448.85
786.623	459.09
786.804	450.89
786.985	393.55
787.167	495.95
787.348	366.93
787.529	463.18
787.71	454.99
787.891	377.17
788.073	373.07
788.254	373.07
788.435	399.7
788.616	454.99
788.797	397.65
788.978	321.87
789.159	375.12
789.34	362.83
789.522	381.26
789.703	389.46
789.884	325.97
790.065	366.93
790.246	420.17
790.427	348.5
790.607	399.7
790.788	432.46
790.969	334.16
791.15	356.69
791.331	385.36
791.512	330.06
791.693	254.29
791.874	307.54
792.054	319.82
792.235	295.25
792.416	332.11
792.597	311.63
792.778	393.55
792.958	348.5
793.139	358.74
793.32	358.74
793.5	242
793.681	264.53
793.862	389.46
794.042	377.17
794.223	235.86
794.404	346.45
794.584	280.91
794.765	250.19
794.945	280.91
795.126	338.26
795.306	309.58
795.487	313.68
795.667	260.43
795.848	242
796.028	330.06
796.209	325.97
796.389	237.91
796.57	295.25
796.75	293.2
796.93	264.53
797.111	291.15
797.291	272.72
797.471	311.63
797.652	223.57
797.832	211.28
798.012	301.39
798.192	309.58
798.373	291.15
798.553	246.1
798.733	219.47
798.913	242
799.093	209.23
799.274	260.43
799.454	186.71
799.634	235.86
799.814	268.63
799.994	254.29
800.174	268.63
800.354	188.75
800.534	268.63
800.714	274.77
800.894	229.71
801.074	237.91
801.254	303.44
801.434	221.52
801.614	219.47
801.794	198.99
801.974	844.1
802.154	153.94
802.334	203.09
802.514	225.62
802.693	229.71
802.873	307.54
803.053	252.24
803.233	201.04
803.413	186.71
803.592	184.66
803.772	219.47
803.952	184.66
804.131	213.33
804.311	178.51
804.491	260.43
804.67	242
804.85	244.05
805.03	213.33
805.209	186.71
805.389	225.62
805.568	315.73
805.748	143.7
805.928	231.76
806.107	139.6
806.287	176.47
806.466	242
806.646	194.9
806.825	158.03
807.004	237.91
807.184	188.75
807.363	211.28
807.543	203.09
807.722	272.72
807.901	194.9
808.081	174.42
808.26	174.42
808.439	235.86
808.619	244.05
808.798	151.89
808.977	164.18
809.156	98.64
809.336	188.75
809.515	123.22
809.694	186.71
809.873	172.37
810.052	211.28
810.231	170.32
810.411	184.66
810.59	153.94
810.769	178.51
810.948	207.19
811.127	203.09
811.306	211.28
811.485	166.23
811.664	215.38
811.843	155.99
812.022	164.18
812.201	207.19
812.38	119.12
812.559	217.43
812.737	139.6
812.916	61.78
813.095	178.51
813.274	100.69
813.453	186.71
813.632	203.09
813.811	115.03
813.989	137.56
814.168	164.18
814.347	80.21
814.526	168.27
814.704	131.41
814.883	108.88
815.062	149.84
815.24	153.94
815.419	94.55
815.598	121.17
815.776	74.07
815.955	117.08
816.133	84.31
816.312	129.36
816.49	160.08
816.669	115.03
816.847	90.45
817.026	194.9
817.204	104.79
817.383	117.08
817.561	74.07
817.74	141.65
817.918	110.93
818.097	108.88
818.275	98.64
818.453	188.75
818.632	145.75
818.81	115.03
818.988	141.65
819.167	100.69
819.345	153.94
819.523	110.93
819.701	129.36
819.879	123.22
820.058	117.08
820.236	100.69
820.414	147.8
820.592	104.79
820.77	67.92
820.948	76.12
821.127	22.87
821.305	96.6
821.483	84.31
821.661	96.6
821.839	155.99
822.017	139.6
822.195	59.73
822.373	123.22
822.551	82.26
822.729	125.27
822.907	65.88
823.085	137.56
823.262	123.22
823.44	147.8
823.618	100.69
823.796	164.18
823.974	55.64
824.152	72.02
824.329	82.26
824.507	88.4
824.685	137.56
824.863	168.27
825.04	65.88
825.218	121.17
825.396	170.32
825.574	74.07
825.751	94.55
825.929	133.46
826.107	123.22
826.284	106.84
826.462	92.5
826.639	115.03
826.817	12.63
826.994	115.03
827.172	31.06
827.349	119.12
827.527	153.94
827.704	151.89
827.882	80.21
828.059	123.22
828.237	98.64
828.414	88.4
828.591	-9.9
828.769	84.31
828.946	76.12
829.124	-9.9
829.301	139.6
829.478	121.17
829.655	63.83
829.833	115.03
830.01	31.06
830.187	86.36
830.364	-38.57
830.542	55.64
830.719	80.21
830.896	129.36
831.073	84.31
831.25	168.27
831.427	45.4
831.604	53.59
831.782	31.06
831.959	94.55
832.136	47.44
832.313	108.88
832.49	-13.99
832.667	112.98
832.844	45.4
833.021	78.16
833.198	51.54
833.374	88.4
833.551	47.44
833.728	82.26
833.905	112.98
834.082	2.39
834.259	96.6
834.436	76.12
834.612	59.73
834.789	78.16
834.966	98.64
835.143	55.64
835.319	65.88
835.496	41.3
835.673	84.31
835.85	18.77
836.026	63.83
836.203	39.25
836.38	102.74
836.556	57.68
836.733	65.88
836.909	119.12
837.086	61.78
837.262	35.16
837.439	96.6
837.616	47.44
837.792	65.88
837.968	35.16
838.145	-24.23
838.321	59.73
838.498	102.74
838.674	72.02
838.851	29.01
839.027	33.11
839.203	41.3
839.38	72.02
839.556	6.49
839.732	22.87
839.909	10.58
840.085	4.44
840.261	22.87
840.437	65.88
840.614	14.68
840.79	57.68
840.966	55.64
841.142	41.3
841.318	16.73
841.494	155.99
841.671	69.97
841.847	-22.19
842.023	-34.47
842.199	106.84
842.375	43.35
842.551	61.78
842.727	57.68
842.903	137.56
843.079	51.54
843.255	16.73
843.431	78.16
843.607	26.96
843.783	37.2
843.959	39.25
844.134	47.44
844.31	137.56
844.486	-30.38
844.662	76.12
844.838	51.54
845.013	35.16
845.189	45.4
845.365	6.49
845.541	110.93
845.716	10.58
845.892	-34.47
846.068	-9.9
846.244	-32.43
846.419	98.64
846.595	72.02
846.77	-28.33
846.946	65.88
847.122	92.5
847.297	57.68
847.473	47.44
847.648	55.64
847.824	22.87
847.999	29.01
848.175	43.35
848.35	12.63
848.526	-5.8
848.701	22.87
848.876	35.16
849.052	43.35
849.227	41.3
849.403	8.53
849.578	6.49
849.753	0.34
849.929	51.54
850.104	-16.04
850.279	8.53
850.454	16.73
850.63	63.83
850.805	65.88
850.98	31.06
851.155	-34.47
851.33	65.88
851.505	-16.04
851.681	33.11
851.856	51.54
852.031	84.31
852.206	65.88
852.381	88.4
852.556	31.06
852.731	-3.75
852.906	-7.85
853.081	-16.04
853.256	-26.28
853.431	100.69
853.606	84.31
853.781	-1.71
853.956	16.73
854.131	22.87
854.305	-20.14
854.48	14.68
854.655	18.77
854.83	74.07
855.005	6.49
855.18	33.11
855.354	43.35
855.529	112.98
855.704	72.02
855.879	-1.71
856.053	12.63
856.228	-9.9
856.403	33.11
856.577	26.96
856.752	-38.57
856.926	72.02
857.101	22.87
857.276	10.58
857.45	31.06
857.625	59.73
857.799	-38.57
857.974	26.96
858.148	6.49
858.323	35.16
858.497	39.25
858.672	41.3
858.846	-81.58
859.02	45.4
859.195	-13.99
859.369	43.35
859.543	31.06
859.718	49.49
859.892	24.92
860.066	-9.9
860.241	72.02
860.415	59.73
860.589	-7.85
860.763	57.68
860.938	49.49
861.112	92.5
861.286	24.92
861.46	47.44
861.634	-13.99
861.808	18.77
861.982	2.39
862.157	16.73
862.331	-5.8
862.505	65.88
862.679	-52.91
862.853	6.49
863.027	-5.8
863.201	14.68
863.375	14.68
863.549	45.4
863.722	84.31
863.896	63.83
864.07	-5.8
864.244	8.53
864.418	-26.28
864.592	39.25
864.766	-36.52
864.939	125.27
865.113	-44.71
865.287	14.68
865.461	-26.28
865.634	37.2
865.808	43.35
865.982	-28.33
866.156	10.58
866.329	39.25
866.503	-7.85
866.676	49.49
866.85	-75.43
867.024	31.06
867.197	-22.19
867.371	37.2
867.544	-9.9
867.718	-7.85
867.891	-5.8
868.065	-57
868.238	55.64
868.412	-63.15
868.585	-22.19
868.759	10.58
868.932	22.87
869.105	-24.23
869.279	72.02
869.452	59.73
869.625	43.35
869.799	65.88
869.972	14.68
870.145	-34.47
870.319	-22.19
870.492	0.34
870.665	-38.57
870.838	2.39
871.011	-16.04
871.185	2.39
871.358	18.77
871.531	-1.71
871.704	-22.19
871.877	-16.04
872.05	2.39
872.223	14.68
872.396	26.96
872.569	82.26
872.742	-32.43
872.915	16.73
873.088	-24.23
873.261	12.63
873.434	57.68
873.607	14.68
873.78	86.36
873.953	-54.95
874.126	-7.85
874.299	0.34
874.471	-3.75
874.644	26.96
874.817	-1.71
874.99	65.88
875.163	-50.86
875.335	43.35
875.508	-11.95
875.681	67.92
875.853	14.68
876.026	-22.19
876.199	22.87
876.371	-40.62
876.544	10.58
876.717	37.2
876.889	37.2
877.062	-16.04
877.234	-34.47
877.407	57.68
877.579	96.6
877.752	94.55
877.924	-18.09
878.097	22.87
878.269	43.35
878.442	-40.62
878.614	12.63
878.786	37.2
878.959	-44.71
879.131	-50.86
879.303	-1.71
879.476	29.01
879.648	65.88
879.82	10.58
879.993	22.87
880.165	-3.75
880.337	18.77
880.509	-26.28
880.681	-24.23
880.854	65.88
881.026	24.92
881.198	-1.71
881.37	18.77
881.542	35.16
881.714	-50.86
881.886	-1.71
882.058	-13.99
882.23	-38.57
882.402	-30.38
882.574	-42.67
882.746	-3.75
882.918	39.25
883.09	-9.9
883.262	16.73
883.434	-18.09
883.606	-9.9
883.778	-1.71
883.95	82.26
884.122	-22.19
884.293	92.5
884.465	22.87
884.637	-81.58
884.809	14.68
884.98	0.34
885.152	-61.1
885.324	16.73
885.496	-22.19
885.667	88.4
885.839	-3.75
886.011	55.64
886.182	59.73
886.354	24.92
886.525	45.4
886.697	22.87
886.869	-38.57
887.04	8.53
887.212	31.06
887.383	69.97
887.555	-38.57
887.726	72.02
887.897	-13.99
888.069	0.34
888.24	22.87
888.412	43.35
888.583	0.34
888.754	12.63
888.926	-18.09
889.097	-7.85
889.268	-40.62
889.44	31.06
889.611	29.01
889.782	-26.28
889.953	-73.39
890.125	49.49
890.296	-40.62
890.467	67.92
890.638	12.63
890.809	-100.01
890.98	59.73
891.151	18.77
891.323	10.58
891.494	16.73
891.665	-5.8
891.836	-26.28
892.007	26.96
892.178	16.73
892.349	-44.71
892.52	22.87
892.691	-57
892.862	57.68
893.032	-57
893.203	-24.23
893.374	-26.28
893.545	-11.95
893.716	6.49
893.887	74.07
894.057	-34.47
894.228	10.58
894.399	-20.14
894.57	16.73
894.74	-16.04
894.911	4.44
895.082	-1.71
895.253	8.53
895.423	22.87
895.594	10.58
895.764	-57
895.935	-32.43
896.106	-30.38
896.276	-16.04
896.447	-22.19
896.617	24.92
896.788	8.53
896.958	-3.75
897.129	-24.23
897.299	-44.71
897.47	37.2
897.64	-5.8
897.81	-34.47
897.981	29.01
898.151	-40.62
898.322	-26.28
898.492	-57
898.662	-32.43
898.832	-63.15
899.003	-1.71
899.173	59.73
899.343	16.73
899.513	20.82
