Data from USB4F104151__22__13-10-39-306.txt Node

Date: Fri Mar 14 13:10:39 EDT 2025
User: louis
Spectrometer: USB4F10415
Trigger mode: 4
Integration Time (sec): 2.000000E-2
Scans to average: 1
Electric dark correction enabled: true
Nonlinearity correction enabled: false
Boxcar width: 0
XAxis mode: Wavelengths
Number of Pixels in Spectrum: 3648
>>>>>Begin Spectral Data<<<<<
178.204	-52.39
178.424	-52.39
178.644	-52.39
178.864	-89.26
179.084	-103.59
179.304	-46.25
179.524	4.95
179.744	0.85
179.964	-9.39
180.184	19.29
180.404	4.95
180.624	19.29
180.844	-17.58
181.064	-13.48
181.283	-5.29
181.503	23.38
181.723	19.29
181.943	-7.34
182.163	-5.29
182.383	2.9
182.602	-38.06
182.822	35.67
183.042	76.63
183.262	11.09
183.482	29.52
183.701	-9.39
183.921	7
184.141	41.81
184.361	-17.58
184.58	27.48
184.8	47.96
185.02	29.52
185.239	29.52
185.459	-1.19
185.679	50
185.898	-52.39
186.118	68.44
186.338	-56.49
186.557	21.33
186.777	-54.44
186.997	88.92
187.216	15.19
187.436	82.77
187.655	103.25
187.875	56.15
188.095	88.92
188.314	2.9
188.534	95.06
188.753	-13.48
188.973	101.2
189.192	64.34
189.412	-36.01
189.631	70.48
189.851	-7.34
190.07	95.06
190.29	-9.39
190.509	27.48
190.729	2.9
190.948	31.57
191.168	222.03
191.387	9.05
191.607	33.62
191.826	11.09
192.045	74.58
192.265	15.19
192.484	47.96
192.704	64.34
192.923	35.67
193.142	86.87
193.362	43.86
193.581	31.57
193.8	21.33
194.02	27.48
194.239	13.14
194.458	50
194.678	-5.29
194.897	82.77
195.116	15.19
195.335	25.43
195.555	-11.43
195.774	60.24
195.993	60.24
196.212	82.77
196.432	64.34
196.651	31.57
196.87	37.72
197.089	35.67
197.308	-62.63
197.528	2.9
197.747	-1.19
197.966	29.52
198.185	101.2
198.404	-9.39
198.623	15.19
198.842	37.72
199.062	101.2
199.281	41.81
199.5	109.4
199.719	25.43
199.938	23.38
200.157	0.85
200.376	21.33
200.595	93.01
200.814	62.29
201.033	50
201.252	68.44
201.471	-1.19
201.69	-3.24
201.909	84.82
202.128	9.05
202.347	76.63
202.566	27.48
202.785	29.52
203.004	-11.43
203.223	107.35
203.442	68.44
203.661	39.76
203.879	-13.48
204.098	80.72
204.317	-9.39
204.536	72.53
204.755	-79.02
204.974	72.53
205.193	-13.48
205.411	107.35
205.63	117.59
205.849	74.58
206.068	54.1
206.287	2.9
206.505	76.63
206.724	43.86
206.943	-1.19
207.162	56.15
207.381	19.29
207.599	56.15
207.818	-17.58
208.037	52.05
208.255	23.38
208.474	17.24
208.693	7
208.911	62.29
209.13	45.91
209.349	27.48
209.567	39.76
209.786	68.44
210.005	11.09
210.223	17.24
210.442	9.05
210.661	70.48
210.879	-15.53
211.098	62.29
211.316	64.34
211.535	23.38
211.753	-15.53
211.972	17.24
212.191	50
212.409	-7.34
212.628	50
212.846	39.76
213.065	37.72
213.283	52.05
213.502	105.3
213.72	72.53
213.938	43.86
214.157	-25.77
214.375	-29.87
214.594	68.44
214.812	111.44
215.031	0.85
215.249	68.44
215.467	54.1
215.686	-9.39
215.904	9.05
216.122	58.2
216.341	54.1
216.559	76.63
216.778	136.02
216.996	84.82
217.214	95.06
217.432	-9.39
217.651	43.86
217.869	50
218.087	25.43
218.306	-15.53
218.524	17.24
218.742	45.91
218.96	29.52
219.179	99.16
219.397	37.72
219.615	103.25
219.833	50
220.051	7
220.27	68.44
220.488	29.52
220.706	72.53
220.924	13.14
221.142	15.19
221.36	4.95
221.578	-3.24
221.796	-5.29
222.015	68.44
222.233	64.34
222.451	58.2
222.669	37.72
222.887	21.33
223.105	54.1
223.323	-13.48
223.541	82.77
223.759	101.2
223.977	7
224.195	-25.77
224.413	21.33
224.631	43.86
224.849	27.48
225.067	58.2
225.285	109.4
225.503	2.9
225.721	-3.24
225.939	52.05
226.157	-9.39
226.375	90.96
226.592	-60.59
226.81	50
227.028	146.26
227.246	54.1
227.464	31.57
227.682	72.53
227.9	35.67
228.117	93.01
228.335	86.87
228.553	68.44
228.771	84.82
228.989	27.48
229.206	101.2
229.424	11.09
229.642	-3.24
229.86	58.2
230.077	41.81
230.295	23.38
230.513	-15.53
230.731	41.81
230.948	29.52
231.166	103.25
231.384	13.14
231.601	-13.48
231.819	123.73
232.037	43.86
232.254	-15.53
232.472	43.86
232.689	31.57
232.907	43.86
233.125	43.86
233.342	-23.72
233.56	-56.49
233.777	29.52
233.995	-46.25
234.213	97.11
234.43	45.91
234.648	27.48
234.865	74.58
235.083	-36.01
235.3	-23.72
235.518	80.72
235.735	125.78
235.953	95.06
236.17	31.57
236.388	-25.77
236.605	54.1
236.822	60.24
237.04	33.62
237.257	7
237.475	45.91
237.692	4.95
237.909	17.24
238.127	31.57
238.344	58.2
238.562	23.38
238.779	19.29
238.996	-21.67
239.214	54.1
239.431	45.91
239.648	-13.48
239.865	35.67
240.083	99.16
240.3	-7.34
240.517	54.1
240.735	60.24
240.952	101.2
241.169	43.86
241.386	45.91
241.603	-7.34
241.821	60.24
242.038	52.05
242.255	50
242.472	4.95
242.689	62.29
242.907	170.83
243.124	39.76
243.341	62.29
243.558	43.86
243.775	62.29
243.992	-1.19
244.209	-19.63
244.426	43.86
244.643	52.05
244.86	-25.77
245.078	17.24
245.295	74.58
245.512	13.14
245.729	-68.78
245.946	54.1
246.163	-5.29
246.38	-5.29
246.597	56.15
246.814	72.53
247.031	-23.72
247.248	78.68
247.464	47.96
247.681	60.24
247.898	-5.29
248.115	-3.24
248.332	21.33
248.549	-29.87
248.766	86.87
248.983	62.29
249.2	21.33
249.417	70.48
249.633	-50.35
249.85	125.78
250.067	39.76
250.284	207.7
250.501	47.96
250.717	58.2
250.934	-21.67
251.151	76.63
251.368	168.79
251.585	78.68
251.801	-13.48
252.018	-19.63
252.235	52.05
252.451	72.53
252.668	43.86
252.885	-19.63
253.102	138.07
253.318	17.24
253.535	144.21
253.752	4.95
253.968	52.05
254.185	47.96
254.401	19.29
254.618	62.29
254.835	72.53
255.051	88.92
255.268	27.48
255.484	47.96
255.701	119.64
255.917	52.05
256.134	64.34
256.351	52.05
256.567	19.29
256.784	86.87
257	62.29
257.217	93.01
257.433	93.01
257.65	37.72
257.866	99.16
258.082	23.38
258.299	2.9
258.515	125.78
258.732	66.39
258.948	11.09
259.165	23.38
259.381	86.87
259.597	76.63
259.814	21.33
260.03	-7.34
260.246	11.09
260.463	27.48
260.679	76.63
260.895	19.29
261.112	50
261.328	39.76
261.544	56.15
261.761	21.33
261.977	29.52
262.193	78.68
262.409	-1.19
262.626	-38.06
262.842	93.01
263.058	-15.53
263.274	86.87
263.49	66.39
263.707	11.09
263.923	60.24
264.139	31.57
264.355	0.85
264.571	101.2
264.787	37.72
265.004	93.01
265.22	54.1
265.436	64.34
265.652	15.19
265.868	95.06
266.084	-21.67
266.3	47.96
266.516	62.29
266.732	70.48
266.948	60.24
267.164	-38.06
267.38	-15.53
267.596	56.15
267.812	97.11
268.028	37.72
268.244	39.76
268.46	-68.78
268.676	9.05
268.892	-1.19
269.108	9.05
269.324	58.2
269.54	0.85
269.756	35.67
269.972	11.09
270.188	78.68
270.403	97.11
270.619	76.63
270.835	68.44
271.051	58.2
271.267	29.52
271.483	80.72
271.698	70.48
271.914	84.82
272.13	39.76
272.346	0.85
272.562	9.05
272.777	-21.67
272.993	37.72
273.209	56.15
273.425	95.06
273.64	0.85
273.856	115.54
274.072	13.14
274.287	-38.06
274.503	45.91
274.719	17.24
274.934	58.2
275.15	-44.2
275.366	37.72
275.581	66.39
275.797	68.44
276.012	13.14
276.228	29.52
276.444	11.09
276.659	82.77
276.875	-5.29
277.09	11.09
277.306	11.09
277.521	74.58
277.737	35.67
277.952	93.01
278.168	52.05
278.383	86.87
278.599	-27.82
278.814	37.72
279.03	27.48
279.245	68.44
279.461	17.24
279.676	27.48
279.892	0.85
280.107	68.44
280.322	-38.06
280.538	78.68
280.753	35.67
280.969	97.11
281.184	-3.24
281.399	9.05
281.615	52.05
281.83	47.96
282.045	35.67
282.26	35.67
282.476	33.62
282.691	56.15
282.906	19.29
283.122	-3.24
283.337	35.67
283.552	119.64
283.767	27.48
283.983	90.96
284.198	35.67
284.413	29.52
284.628	11.09
284.843	39.76
285.058	99.16
285.274	52.05
285.489	-11.43
285.704	29.52
285.919	76.63
286.134	-15.53
286.349	31.57
286.564	33.62
286.779	56.15
286.995	45.91
287.21	19.29
287.425	125.78
287.64	43.86
287.855	58.2
288.07	-9.39
288.285	43.86
288.5	13.14
288.715	68.44
288.93	11.09
289.145	21.33
289.36	4.95
289.575	84.82
289.79	58.2
290.004	-36.01
290.219	68.44
290.434	33.62
290.649	-19.63
290.864	21.33
291.079	43.86
291.294	86.87
291.509	11.09
291.724	37.72
291.938	-11.43
292.153	95.06
292.368	17.24
292.583	82.77
292.798	-11.43
293.012	52.05
293.227	-13.48
293.442	2.9
293.657	60.24
293.871	29.52
294.086	82.77
294.301	41.81
294.516	47.96
294.73	-33.96
294.945	-5.29
295.16	43.86
295.374	109.4
295.589	47.96
295.804	37.72
296.018	43.86
296.233	54.1
296.447	-1.19
296.662	23.38
296.877	37.72
297.091	-5.29
297.306	52.05
297.52	-19.63
297.735	2.9
297.949	-1.19
298.164	72.53
298.378	84.82
298.593	80.72
298.807	17.24
299.022	45.91
299.236	86.87
299.451	117.59
299.665	35.67
299.88	47.96
300.094	105.3
300.309	2.9
300.523	78.68
300.737	84.82
300.952	29.52
301.166	52.05
301.381	66.39
301.595	76.63
301.809	37.72
302.024	66.39
302.238	39.76
302.452	86.87
302.667	-9.39
302.881	33.62
303.095	82.77
303.309	95.06
303.524	54.1
303.738	72.53
303.952	66.39
304.166	37.72
304.381	11.09
304.595	90.96
304.809	-7.34
305.023	43.86
305.237	43.86
305.452	80.72
305.666	84.82
305.88	107.35
306.094	27.48
306.308	19.29
306.522	76.63
306.736	95.06
306.95	127.83
307.164	70.48
307.379	7
307.593	76.63
307.807	56.15
308.021	35.67
308.235	23.38
308.449	15.19
308.663	-50.35
308.877	142.16
309.091	-50.35
309.305	82.77
309.519	-66.73
309.733	86.87
309.947	74.58
310.161	66.39
310.374	45.91
310.588	52.05
310.802	43.86
311.016	-46.25
311.23	17.24
311.444	11.09
311.658	4.95
311.872	72.53
312.085	50
312.299	88.92
312.513	93.01
312.727	43.86
312.941	54.1
313.154	11.09
313.368	37.72
313.582	62.29
313.796	70.48
314.009	45.91
314.223	119.64
314.437	62.29
314.651	11.09
314.864	50
315.078	7
315.292	31.57
315.505	76.63
315.719	105.3
315.933	7
316.146	54.1
316.36	27.48
316.573	43.86
316.787	37.72
317.001	-9.39
317.214	-27.82
317.428	4.95
317.641	84.82
317.855	33.62
318.068	50
318.282	37.72
318.495	84.82
318.709	62.29
318.922	13.14
319.136	97.11
319.349	78.68
319.563	52.05
319.776	54.1
319.99	11.09
320.203	0.85
320.417	35.67
320.63	-11.43
320.843	76.63
321.057	7
321.27	52.05
321.483	129.88
321.697	9.05
321.91	11.09
322.124	-17.58
322.337	15.19
322.55	64.34
322.763	50
322.977	105.3
323.19	-19.63
323.403	-1.19
323.617	37.72
323.83	70.48
324.043	86.87
324.256	56.15
324.469	-5.29
324.683	64.34
324.896	56.15
325.109	72.53
325.322	23.38
325.535	78.68
325.748	90.96
325.962	-7.34
326.175	23.38
326.388	33.62
326.601	125.78
326.814	-5.29
327.027	52.05
327.24	68.44
327.453	-1.19
327.666	113.49
327.879	45.91
328.092	136.02
328.305	47.96
328.518	-13.48
328.731	-17.58
328.944	62.29
329.157	37.72
329.37	2.9
329.583	97.11
329.796	13.14
330.009	45.91
330.222	95.06
330.435	45.91
330.648	62.29
330.861	50
331.073	4.95
331.286	39.76
331.499	70.48
331.712	-33.96
331.925	43.86
332.138	25.43
332.35	70.48
332.563	95.06
332.776	68.44
332.989	54.1
333.202	52.05
333.414	7
333.627	33.62
333.84	111.44
334.053	125.78
334.265	60.24
334.478	111.44
334.691	45.91
334.903	78.68
335.116	37.72
335.329	72.53
335.541	41.81
335.754	52.05
335.966	7
336.179	35.67
336.392	60.24
336.604	-25.77
336.817	64.34
337.029	52.05
337.242	43.86
337.454	103.25
337.667	4.95
337.88	103.25
338.092	21.33
338.305	43.86
338.517	-5.29
338.729	66.39
338.942	166.74
339.154	-27.82
339.367	-3.24
339.579	27.48
339.792	47.96
340.004	70.48
340.217	-21.67
340.429	50
340.641	25.43
340.854	23.38
341.066	-25.77
341.278	54.1
341.491	31.57
341.703	64.34
341.915	117.59
342.128	27.48
342.34	64.34
342.552	54.1
342.764	29.52
342.977	23.38
343.189	56.15
343.401	52.05
343.613	33.62
343.826	80.72
344.038	47.96
344.25	13.14
344.462	52.05
344.674	37.72
344.886	76.63
345.099	47.96
345.311	43.86
345.523	4.95
345.735	-25.77
345.947	35.67
346.159	78.68
346.371	47.96
346.583	95.06
346.795	72.53
347.007	68.44
347.219	99.16
347.431	113.49
347.643	54.1
347.855	0.85
348.067	101.2
348.279	88.92
348.491	60.24
348.703	78.68
348.915	35.67
349.127	-1.19
349.339	125.78
349.551	52.05
349.763	64.34
349.975	-50.35
350.187	119.64
350.399	60.24
350.61	105.3
350.822	11.09
351.034	4.95
351.246	50
351.458	105.3
351.669	70.48
351.881	101.2
352.093	64.34
352.305	74.58
352.517	93.01
352.728	58.2
352.94	127.83
353.152	78.68
353.363	109.4
353.575	90.96
353.787	86.87
353.999	43.86
354.21	111.44
354.422	60.24
354.633	37.72
354.845	58.2
355.057	68.44
355.268	95.06
355.48	56.15
355.692	37.72
355.903	-3.24
356.115	-3.24
356.326	-3.24
356.538	54.1
356.749	95.06
356.961	119.64
357.172	41.81
357.384	60.24
357.595	58.2
357.807	50
358.018	2.9
358.23	-3.24
358.441	19.29
358.653	76.63
358.864	80.72
359.075	13.14
359.287	23.38
359.498	90.96
359.709	82.77
359.921	78.68
360.132	99.16
360.344	76.63
360.555	-36.01
360.766	62.29
360.977	64.34
361.189	86.87
361.4	47.96
361.611	156.5
361.823	78.68
362.034	109.4
362.245	43.86
362.456	-50.35
362.667	74.58
362.879	11.09
363.09	60.24
363.301	15.19
363.512	9.05
363.723	45.91
363.935	-21.67
364.146	93.01
364.357	-58.54
364.568	68.44
364.779	43.86
364.99	78.68
365.201	33.62
365.412	68.44
365.623	4.95
365.834	35.67
366.045	35.67
366.256	109.4
366.467	113.49
366.678	0.85
366.889	50
367.1	45.91
367.311	43.86
367.522	80.72
367.733	72.53
367.944	68.44
368.155	52.05
368.366	35.67
368.577	2.9
368.788	58.2
368.999	21.33
369.209	84.82
369.42	142.16
369.631	93.01
369.842	80.72
370.053	41.81
370.264	52.05
370.474	133.97
370.685	60.24
370.896	95.06
371.107	17.24
371.317	136.02
371.528	33.62
371.739	45.91
371.95	70.48
372.16	93.01
372.371	17.24
372.582	2.9
372.792	35.67
373.003	50
373.214	-27.82
373.424	101.2
373.635	29.52
373.846	50
374.056	-54.44
374.267	68.44
374.477	80.72
374.688	-1.19
374.898	68.44
375.109	21.33
375.319	93.01
375.53	60.24
375.74	19.29
375.951	70.48
376.161	105.3
376.372	70.48
376.582	52.05
376.793	84.82
377.003	86.87
377.214	119.64
377.424	33.62
377.635	80.72
377.845	21.33
378.055	82.77
378.266	68.44
378.476	150.36
378.686	41.81
378.897	82.77
379.107	76.63
379.317	99.16
379.528	111.44
379.738	113.49
379.948	33.62
380.158	105.3
380.369	11.09
380.579	168.79
380.789	54.1
380.999	70.48
381.21	78.68
381.42	109.4
381.63	76.63
381.84	170.83
382.05	95.06
382.261	117.59
382.471	123.73
382.681	68.44
382.891	125.78
383.101	107.35
383.311	37.72
383.521	19.29
383.731	9.05
383.941	64.34
384.151	80.72
384.361	76.63
384.571	90.96
384.781	66.39
384.991	82.77
385.201	99.16
385.411	119.64
385.621	19.29
385.831	64.34
386.041	33.62
386.251	45.91
386.461	111.44
386.671	50
386.881	127.83
387.091	111.44
387.301	109.4
387.511	52.05
387.72	68.44
387.93	76.63
388.14	2.9
388.35	86.87
388.56	123.73
388.769	52.05
388.979	33.62
389.189	45.91
389.399	119.64
389.609	84.82
389.818	136.02
390.028	39.76
390.238	127.83
390.447	41.81
390.657	86.87
390.867	101.2
391.076	45.91
391.286	33.62
391.496	115.54
391.705	168.79
391.915	129.88
392.125	115.54
392.334	60.24
392.544	111.44
392.753	64.34
392.963	41.81
393.172	60.24
393.382	119.64
393.591	195.41
393.801	21.33
394.01	123.73
394.22	129.88
394.429	70.48
394.639	97.11
394.848	129.88
395.058	66.39
395.267	72.53
395.477	131.92
395.686	43.86
395.895	133.97
396.105	129.88
396.314	80.72
396.524	62.29
396.733	93.01
396.942	84.82
397.152	142.16
397.361	158.55
397.57	68.44
397.78	68.44
397.989	142.16
398.198	86.87
398.407	97.11
398.617	119.64
398.826	86.87
399.035	119.64
399.244	127.83
399.453	70.48
399.663	101.2
399.872	21.33
400.081	103.25
400.29	191.31
400.499	90.96
400.708	136.02
400.917	86.87
401.127	133.97
401.336	78.68
401.545	140.12
401.754	242.51
401.963	172.88
402.172	117.59
402.381	90.96
402.59	64.34
402.799	90.96
403.008	152.4
403.217	195.41
403.426	95.06
403.635	95.06
403.844	93.01
404.053	76.63
404.262	84.82
404.471	211.79
404.68	111.44
404.888	191.31
405.097	179.03
405.306	219.99
405.515	183.12
405.724	201.55
405.933	86.87
406.142	140.12
406.35	148.31
406.559	117.59
406.768	148.31
406.977	242.51
407.185	195.41
407.394	168.79
407.603	72.53
407.812	265.04
408.02	242.51
408.229	297.81
408.438	148.31
408.646	289.62
408.855	201.55
409.064	246.61
409.272	301.9
409.481	244.56
409.69	371.54
409.898	244.56
410.107	232.27
410.315	275.28
410.524	283.47
410.733	250.71
410.941	281.43
411.15	385.87
411.358	344.91
411.567	414.54
411.775	359.25
411.984	408.4
412.192	387.92
412.401	398.16
412.609	426.83
412.818	461.65
413.026	424.78
413.234	422.73
413.443	478.03
413.651	437.07
413.86	461.65
414.068	531.28
414.276	539.47
414.485	578.38
414.693	535.37
414.901	568.14
415.11	615.24
415.318	547.66
415.526	701.26
415.734	719.69
415.943	711.5
416.151	729.93
416.359	686.92
416.567	805.71
416.776	738.12
416.984	871.24
417.192	807.75
417.4	871.24
417.608	826.18
417.817	934.73
418.025	1004.36
418.233	1053.51
418.441	998.21
418.649	899.91
418.857	1151.81
419.065	1133.38
419.273	1090.37
419.481	1127.24
419.689	1200.96
419.897	1295.17
420.105	1338.18
420.313	1463.1
420.521	1461.06
420.729	1432.38
420.937	1471.29
421.145	1346.37
421.353	1528.64
421.561	1741.63
421.769	1641.28
421.977	1846.07
422.185	1696.57
422.393	1850.17
422.601	1923.9
422.809	1944.38
423.017	2028.34
423.224	2145.08
423.432	2259.76
423.64	2202.42
423.848	2319.15
424.056	2413.36
424.263	2396.98
424.471	2521.9
424.679	2439.98
424.887	2509.62
425.094	2669.36
425.302	2759.47
425.51	2958.12
425.718	2978.6
425.925	2964.26
426.133	3083.05
426.341	3300.13
426.548	3328.8
426.756	3369.76
426.964	3605.28
427.171	3584.8
427.379	3697.44
427.586	3910.43
427.794	3971.86
428.001	4047.64
428.209	4291.35
428.417	4287.25
428.624	4619.02
428.832	4584.21
429.039	4496.14
429.247	4449.04
429.454	5014.28
429.662	5292.8
429.869	4883.21
430.076	5274.37
430.284	5004.04
430.491	5290.76
430.699	5597.95
430.906	5589.76
431.114	5688.06
431.321	5798.65
431.528	6042.36
431.736	6378.23
431.943	6601.46
432.15	6488.82
432.358	6548.21
432.565	6841.07
432.772	6900.46
432.979	7203.56
433.187	7430.88
433.394	7414.5
433.601	7998.17
433.808	7920.35
434.016	7940.83
434.223	8100.57
434.43	8776.4
434.637	8501.97
434.844	9069.26
435.052	9036.49
435.259	9267.91
435.466	9202.38
435.673	9224.9
435.88	9689.79
436.087	10345.14
436.294	10406.58
436.501	10033.85
436.708	10353.34
436.915	10697.39
437.122	11285.16
437.329	11111.08
437.537	11471.53
437.743	11733.67
437.95	11399.85
438.157	12290.71
438.364	12505.75
438.571	12438.17
438.778	12665.49
438.985	13904.51
439.192	13388.43
439.399	13728.39
439.606	13419.14
439.813	14035.58
440.02	15000.18
440.227	14652.02
440.433	14830.2
440.64	15299.18
440.847	14903.92
441.054	15264.36
441.261	16202.33
441.467	16142.94
441.674	16417.37
441.881	17154.64
442.088	17304.14
442.294	16923.22
442.501	17545.8
442.708	17734.21
442.914	18410.04
443.121	19155.51
443.328	18786.87
443.534	19915.3
443.741	19556.91
443.948	19597.87
444.154	20562.46
444.361	20560.41
444.568	20390.43
444.774	20785.69
444.981	21066.26
445.187	21639.69
445.394	22452.73
445.6	22342.14
445.807	24392.16
446.013	23202.29
446.22	23712.24
446.426	24689.12
446.633	25100.76
446.839	25663.95
447.046	24844.76
447.252	26225.09
447.459	26180.04
447.665	25829.84
447.871	27359.67
448.078	28129.7
448.284	26554.82
448.491	27767.21
448.697	29002.14
448.903	29473.17
449.11	29245.85
449.316	29249.94
449.522	29565.33
449.728	30386.57
449.935	30409.09
450.141	30652.8
450.347	31334.78
450.553	30194.06
450.76	30685.57
450.966	31668.59
451.172	31299.96
451.378	32436.58
451.584	31607.16
451.791	32373.1
451.997	32627.04
452.203	33237.34
452.409	32860.51
452.615	32889.18
452.821	31299.96
453.027	31394.17
453.233	32946.53
453.44	31945.07
453.646	32029.04
453.852	32180.59
454.058	32854.37
454.264	31779.18
454.47	32545.12
454.676	31547.76
454.882	32115.05
455.088	29829.52
455.294	30394.76
455.5	30941.57
455.705	31510.9
455.911	30081.42
456.117	29522.32
456.323	28985.76
456.529	27918.76
456.735	28813.73
456.941	28103.08
457.147	27386.29
457.352	26823.1
457.558	26362.31
457.764	26421.7
457.97	25723.34
458.176	25608.65
458.381	25311.7
458.587	24156.64
458.793	24576.48
458.999	23040.5
459.204	24791.52
459.41	24283.62
459.616	22559.23
459.821	22714.87
460.027	22354.43
460.233	21762.57
460.438	20718.11
460.644	21092.88
460.85	19890.73
461.055	19741.22
461.261	19489.32
461.466	18221.63
461.672	18035.27
461.878	18944.56
462.083	17818.18
462.289	17236.56
462.494	17193.55
462.7	16345.69
462.905	15987.3
463.111	16620.12
463.316	16685.65
463.522	16302.68
463.727	16386.65
463.932	16235.1
464.138	16030.3
464.343	16321.12
464.549	15727.21
464.754	16235.1
464.959	15913.57
465.165	15921.76
465.37	15200.88
465.575	14801.52
465.781	15463.02
465.986	15487.59
466.191	14871.15
466.397	14590.58
466.602	13748.87
466.807	14756.47
467.012	14463.61
467.218	14336.63
467.423	14185.08
467.628	14099.07
467.833	14881.39
468.038	14281.34
468.244	13914.75
468.449	14477.94
468.654	14078.59
468.859	13826.69
469.064	13775.49
469.269	13535.88
469.474	13595.27
469.679	13793.92
469.885	13611.65
470.09	13662.85
470.295	13585.03
470.5	13040.27
470.705	13107.85
470.91	12896.91
471.115	12821.14
471.32	13132.43
471.525	12858
471.73	12849.81
471.935	12495.51
472.139	12151.45
472.344	12157.6
472.549	12227.23
472.754	11952.8
472.959	11944.61
473.164	11502.25
473.369	11473.57
473.574	11897.5
473.778	11700.9
473.983	11506.34
474.188	11504.29
474.393	10926.77
474.598	11131.56
474.802	10988.21
475.007	11008.69
475.212	11137.71
475.417	10648.24
475.621	10607.28
475.826	10564.28
476.031	10373.82
476.235	10212.03
476.44	10386.1
476.645	10230.46
476.849	10314.42
477.054	10142.39
477.259	9734.85
477.463	9964.22
477.668	9665.22
477.872	9626.31
478.077	9659.07
478.282	9153.23
478.486	9351.88
478.691	9214.66
478.895	9298.63
479.1	9104.07
479.304	9321.16
479.509	8831.69
479.713	9095.88
479.918	8768.21
480.122	8590.03
480.326	8782.54
480.531	9087.69
480.735	8874.7
480.94	8614.61
481.144	8858.32
481.348	8534.74
481.553	8635.09
481.757	8323.8
481.961	8493.78
482.166	8764.11
482.37	8633.04
482.574	8397.53
482.778	8549.07
482.983	8526.55
483.187	8475.35
483.391	8514.26
483.595	8438.48
483.8	8393.43
484.004	8608.47
484.208	8579.79
484.412	8411.86
484.616	8465.11
484.821	8491.73
485.025	8293.08
485.229	8469.2
485.433	8415.96
485.637	8444.63
485.841	8336.09
486.045	8557.27
486.249	8495.83
486.453	8354.52
486.657	8409.81
486.861	8481.49
487.065	8018.65
487.269	8356.57
487.473	8293.08
487.677	8540.88
487.881	8594.13
488.085	8213.21
488.289	8506.07
488.493	8360.66
488.697	8487.64
488.901	8561.36
489.105	8467.16
489.309	8553.17
489.512	8680.14
489.716	8346.33
489.92	8522.45
490.124	8723.15
490.328	8817.36
490.531	8733.39
490.735	8784.59
490.939	8667.86
491.143	8452.82
491.346	8635.09
491.55	8800.98
491.754	8655.57
491.958	8798.93
492.161	8960.72
492.365	8884.94
492.569	8864.46
492.772	8893.13
492.976	9044.68
493.18	9016.01
493.383	9233.1
493.587	9177.8
493.79	9272.01
493.994	9136.84
494.197	9339.59
494.401	9425.61
494.605	9409.22
494.808	9616.07
495.012	9560.77
495.215	9616.07
495.419	9540.29
495.622	9636.55
495.825	9759.42
496.029	9583.3
496.232	10037.95
496.436	9878.21
496.639	10255.03
496.843	10156.73
497.046	10359.48
497.249	10468.02
497.453	10384.05
497.656	10724.02
497.859	10572.47
498.063	10621.62
498.266	10926.77
498.469	10863.28
498.673	11086.51
498.876	11283.11
499.079	11139.76
499.282	11066.03
499.485	11635.36
499.689	11565.73
499.892	11862.69
500.095	11967.13
500.298	12264.09
500.501	12010.14
500.705	12401.3
500.908	12591.77
501.111	12421.78
501.314	12782.23
501.517	12438.17
501.72	13132.43
501.923	12898.96
502.126	13376.14
502.329	13431.43
502.532	13595.27
502.735	13521.54
502.938	13884.03
503.141	13693.57
503.344	14205.56
503.547	14097.02
503.75	14328.44
503.953	14551.67
504.156	14746.23
504.359	14625.4
504.562	14875.25
504.765	15006.32
504.968	15397.48
505.17	15329.9
505.373	15526.5
505.576	15866.47
505.779	15997.54
505.982	15977.06
506.185	16640.6
506.387	16433.75
506.59	16675.41
506.793	16818.77
506.996	16923.22
507.198	17257.04
507.401	17351.24
507.604	17396.3
507.807	17705.54
508.009	17850.95
508.212	18217.54
508.415	18324.03
508.617	18672.18
508.82	18522.68
509.022	18831.93
509.225	19049.01
509.428	19395.12
509.63	19245.62
509.833	19366.45
510.035	19767.85
510.238	19518
510.44	20199.97
510.643	20392.48
510.845	20419.1
511.048	20425.25
511.25	20904.47
511.453	20871.7
511.655	21441.04
511.858	21287.44
512.06	21635.6
512.262	21768.71
512.465	21942.79
512.667	22184.45
512.87	22219.27
513.072	22628.86
513.274	23171.57
513.477	23144.95
513.679	23118.32
513.881	23646.7
514.084	23552.49
514.286	23726.57
514.488	23822.83
514.69	24349.15
514.893	24619.49
515.095	24558.05
515.297	25092.57
515.499	25321.94
515.701	25467.34
515.904	25625.04
516.106	25821.64
516.308	26161.61
516.51	26450.37
516.712	26712.51
516.914	26784.19
517.116	27087.29
517.318	26952.12
517.52	27414.96
517.722	27791.79
517.925	27914.67
518.127	28258.73
518.329	28256.68
518.531	28422.56
518.733	28950.94
518.935	29243.8
519.136	29258.13
519.338	29501.84
519.54	29417.88
519.742	29712.78
519.944	30198.15
520.146	30779.78
520.348	30710.14
520.55	30888.32
520.752	31052.16
520.954	31650.16
521.155	31392.12
521.357	31920.49
521.559	32008.56
521.761	32481.64
521.963	32522.6
522.164	32751.97
522.366	32637.28
522.568	33096.03
522.77	33374.55
522.971	33532.25
523.173	33769.81
523.375	33935.7
523.576	33876.3
523.778	34181.45
523.98	34558.28
524.181	34695.49
524.383	34685.25
524.584	35060.03
524.786	35336.51
524.988	35121.47
525.189	35930.42
525.391	35842.35
525.592	36000.05
525.794	36098.35
525.995	36036.91
526.197	36366.63
526.398	36352.3
526.6	36907.3
526.801	36673.83
527.003	36972.83
527.204	37071.14
527.406	37255.45
527.607	37075.23
527.808	38195.47
528.01	37171.49
528.211	37490.97
528.412	38093.07
528.614	38095.12
528.815	38027.54
529.016	38273.29
529.218	38211.85
529.419	38177.04
529.62	38191.37
529.822	37857.56
530.023	38383.88
530.224	38740.23
530.425	38668.55
530.626	38377.74
530.828	38361.36
531.029	39317.76
531.23	38678.79
531.431	38957.31
531.632	39092.48
531.833	39184.64
532.035	39452.92
532.236	39227.65
532.437	38967.55
532.638	39092.48
532.839	39319.81
533.04	39473.4
533.241	38768.9
533.442	39586.04
533.643	39571.71
533.844	39540.99
534.045	39493.88
534.246	39215.36
534.447	39635.19
534.648	39520.51
534.849	39457.02
535.05	39366.91
535.251	39680.25
535.451	39207.17
535.652	39371
535.853	39731.45
536.054	39629.05
536.255	39866.61
536.456	39117.06
536.657	39995.64
536.857	39217.41
537.058	39336.19
537.259	39880.95
537.46	39788.79
537.66	39426.3
537.861	39764.21
538.062	39645.43
538.263	39891.19
538.463	39258.37
538.664	39244.03
538.865	39780.6
539.065	39885.04
539.266	39276.8
539.466	39522.55
539.667	39278.85
539.868	40153.33
540.068	39710.97
540.269	39461.12
540.469	39854.33
540.67	39729.4
540.87	39268.61
541.071	39381.24
541.271	39336.19
541.472	39833.85
541.672	39485.69
541.873	39258.37
542.073	38899.97
542.274	39864.57
542.474	39385.34
542.675	39031.04
542.875	39629.05
543.075	39446.78
543.276	39293.18
543.476	39674.1
543.676	39317.76
543.877	39540.99
544.077	39526.65
544.277	39551.23
544.478	39676.15
544.678	39332.09
544.878	39608.57
545.078	39766.26
545.279	39266.56
545.479	39219.45
545.679	39305.47
545.879	39250.17
546.079	39352.57
546.28	39332.09
546.48	39008.51
546.68	39577.85
546.88	39444.73
547.08	39348.48
547.28	38945.03
547.48	39108.86
547.68	39528.7
547.88	39172.35
548.081	39319.81
548.281	38932.74
548.481	39237.89
548.681	39442.68
548.881	39213.31
549.081	39463.16
549.28	38942.98
549.48	39035.14
549.68	39336.19
549.88	39641.34
550.08	38713.61
550.28	39311.61
550.48	39045.38
550.68	39397.63
550.88	38906.12
551.08	39377.15
551.279	39321.85
551.479	39024.9
551.679	39153.92
551.879	38940.93
552.079	39209.22
552.278	38832.39
552.478	38803.72
552.678	38932.74
552.878	39387.39
553.077	38770.95
553.277	38695.17
553.477	39182.59
553.676	38930.69
553.876	38926.6
554.076	38822.15
554.275	38852.87
554.475	38342.92
554.674	38777.09
554.874	38732.04
555.074	38285.58
555.273	38545.67
555.473	38850.82
555.672	38275.34
555.872	38471.95
556.071	38418.7
556.271	39223.55
556.47	38549.77
556.67	38254.86
556.869	38027.54
557.068	38420.75
557.268	38246.67
557.467	38140.18
557.667	38062.35
557.866	38009.11
558.065	38197.52
558.265	38267.15
558.464	37980.43
558.663	38373.64
558.863	37769.49
559.062	38045.97
559.261	37812.5
559.461	38177.04
559.66	37490.97
559.859	37882.13
560.058	37290.27
560.258	37736.73
560.457	37157.15
560.656	37982.48
560.855	37347.61
561.054	37611.8
561.253	37411.1
561.453	37288.22
561.652	37361.95
561.851	37247.26
562.05	37097.76
562.249	36798.76
562.448	37099.81
562.647	37105.95
562.846	36897.06
563.045	36821.28
563.244	36618.53
563.443	37165.34
563.642	36116.78
563.841	36815.14
564.04	36639.01
564.239	36634.92
564.438	36397.35
564.637	36561.19
564.836	36340.01
565.035	35813.68
565.234	35848.5
565.432	36124.97
565.631	36153.65
565.83	36020.53
566.029	35668.28
566.228	35545.4
566.427	35434.81
566.625	35490.1
566.824	35305.79
567.023	35819.83
567.222	34941.25
567.42	35637.56
567.619	35404.09
567.818	34998.59
568.016	34828.61
568.215	35473.72
568.414	35164.48
568.612	35266.88
568.811	34689.35
569.01	34834.75
569.208	34580.81
569.407	35215.68
569.605	34414.92
569.804	34877.76
570.002	33900.88
570.201	34330.95
570.4	34074.96
570.598	33870.16
570.797	33935.7
570.995	34396.49
571.193	33503.57
571.392	33966.42
571.59	33876.3
571.789	33806.67
571.987	33524.05
572.186	33276.25
572.384	33446.23
572.582	33245.53
572.781	33376.6
572.979	32885.09
573.177	32987.49
573.376	33048.93
573.574	32741.73
573.772	33143.13
573.971	32801.12
574.169	32256.36
574.367	32373.1
574.565	32919.9
574.763	32493.93
574.962	32602.47
575.16	32108.91
575.358	32158.06
575.556	31762.8
575.754	32581.99
575.952	32287.08
576.151	32180.59
576.349	31488.37
576.547	31627.63
576.745	31861.1
576.943	31752.56
577.141	31451.51
577.339	31848.82
577.537	31265.14
577.735	31095.16
577.933	31072.64
578.131	31375.73
578.329	30921.09
578.527	30867.84
578.725	30568.83
578.923	30982.52
579.121	30615.94
579.319	30587.27
579.516	30572.93
579.714	30407.05
579.912	30513.54
580.11	30173.58
580.308	30574.98
580.506	30257.54
580.704	30044.55
580.901	29895.05
581.099	30275.98
581.297	29884.81
581.495	29946.25
581.692	29948.3
581.89	29528.47
582.088	29718.93
582.285	29718.93
582.483	29454.74
582.681	29448.6
582.878	29604.24
583.076	28971.42
583.274	29329.81
583.471	28826.01
583.669	28834.21
583.866	29041.05
584.064	28998.04
584.262	28592.55
584.459	28901.79
584.657	28096.94
584.854	28928.41
585.052	28275.11
585.249	28346.79
585.447	28137.9
585.644	28168.62
585.841	28416.42
586.039	28576.16
586.236	27935.15
586.434	28021.16
586.631	27601.33
586.828	27658.67
587.026	27689.39
587.223	27771.31
587.42	27709.87
587.618	27886
587.815	27388.34
588.012	27031.99
588.21	27191.73
588.407	27646.38
588.604	27388.34
588.801	26859.96
588.999	26853.82
589.196	26884.54
589.393	27136.44
589.59	26749.37
589.787	26753.47
589.984	26382.79
590.182	26161.61
590.379	26544.58
590.576	26790.33
590.773	26468.8
590.97	26184.13
591.167	25936.33
591.364	25993.67
591.561	26175.94
591.758	25694.67
591.955	25860.55
592.152	26091.98
592.349	25860.55
592.546	25993.67
592.743	25819.6
592.94	25381.33
593.137	25467.34
593.334	25475.54
593.531	25197.01
593.727	25352.66
593.924	25070.04
594.121	25192.92
594.318	24893.91
594.515	24797.66
594.712	25215.44
594.908	24881.63
595.105	24828.38
595.302	24670.68
595.499	24713.69
595.696	24867.29
595.892	24363.49
596.089	24586.72
596.286	24422.88
596.482	24353.25
596.679	23953.9
596.876	24283.62
597.072	23910.89
597.269	24037.86
597.466	23974.38
597.662	23540.21
597.859	23896.55
598.055	23693.8
598.252	23710.19
598.448	23534.06
598.645	23577.07
598.841	23327.22
599.038	23423.47
599.234	23519.73
599.431	23110.13
599.627	23233.01
599.824	23124.47
600.02	23069.17
600.217	23124.47
600.413	22993.4
600.609	22856.18
600.806	22759.93
601.002	22561.28
601.198	22551.04
601.395	22327.81
601.591	22301.19
601.787	22559.23
601.984	22329.86
602.18	22551.04
602.376	22405.63
602.572	22206.98
602.769	22231.55
602.965	22092.29
603.161	22024.71
603.357	21799.43
603.553	21590.54
603.75	21948.93
603.946	21506.57
604.142	21783.05
604.338	21746.19
604.534	21582.35
604.73	21248.53
604.926	21522.96
605.122	21590.54
605.318	21350.93
605.514	21320.21
605.71	20916.76
605.906	21019.16
606.102	20931.09
606.298	21047.83
606.494	20701.72
606.69	20967.96
606.886	21060.12
607.082	20562.46
607.278	20525.6
607.474	20609.56
607.67	20582.94
607.866	20609.56
608.062	20838.94
608.257	20503.07
608.453	20232.74
608.649	20455.97
608.845	20073
609.041	20195.87
609.236	20326.94
609.432	20240.93
609.628	20214.3
609.824	20105.76
610.019	20052.52
610.215	19773.99
610.411	20191.78
610.606	19667.5
610.802	19841.57
610.998	19841.57
611.193	19984.93
611.389	19673.64
611.584	19853.86
611.78	19399.21
611.976	19583.53
612.171	19575.34
612.367	19638.83
612.562	19399.21
612.758	19440.17
612.953	19388.97
613.149	19425.84
613.344	19249.71
613.539	19579.43
613.735	19558.95
613.93	19341.87
614.126	19366.45
614.321	19331.63
614.517	19423.79
614.712	19110.45
614.907	18874.93
615.103	19079.73
615.298	18934.32
615.493	19343.92
615.688	18760.25
615.884	19348.01
616.079	19171.89
616.274	19026.48
616.47	18678.33
616.665	18770.49
616.86	18840.12
617.055	18868.79
617.25	18469.44
617.445	18604.6
617.641	18242.11
617.836	18553.4
618.031	18364.99
618.226	18592.31
618.421	18229.82
618.616	18485.82
618.811	17885.76
619.006	18459.2
619.201	17721.93
619.396	17951.3
619.591	17599.05
619.786	17889.86
619.981	17418.83
620.176	17814.09
620.371	17459.79
620.566	17766.98
620.761	17494.6
620.956	17472.07
621.151	17132.11
621.346	17590.86
621.541	17166.93
621.735	17367.63
621.93	16898.64
622.125	17001.04
622.32	16687.7
622.515	16818.77
622.709	16659.03
622.904	16675.41
623.099	16403.04
623.294	16611.93
623.488	16306.78
623.683	16360.03
623.878	15977.06
624.072	16208.48
624.267	16296.54
624.462	16058.98
624.656	15583.85
624.851	15827.56
625.046	15553.13
625.24	15649.38
625.435	15534.7
625.629	15628.9
625.824	15516.26
626.018	15233.64
626.213	14895.73
626.407	15180.4
626.602	14920.31
626.796	15106.67
626.991	15186.54
627.185	14791.28
627.38	14854.77
627.574	14664.31
627.768	14256.76
627.963	14281.34
628.157	14279.29
628.352	14244.48
628.546	14172.8
628.74	14324.35
628.935	14324.35
629.129	14064.25
629.323	13820.55
629.517	13795.97
629.712	13912.71
629.906	13806.21
630.1	13505.16
630.294	13646.47
630.489	13625.99
630.683	13490.82
630.877	12929.68
631.071	13173.39
631.265	13394.57
631.459	13177.48
631.653	12872.34
631.848	13116.05
632.042	12925.58
632.236	13146.76
632.43	12839.57
632.624	12855.95
632.818	12679.83
633.012	12626.58
633.206	12487.32
633.4	12776.08
633.594	12415.64
633.788	12348.06
633.982	12515.99
634.176	12466.84
634.369	12104.35
634.563	12075.68
634.757	12350.1
634.951	12040.86
635.145	12067.49
635.339	11932.32
635.533	11991.71
635.726	12008.09
635.92	11614.88
636.114	11614.88
636.308	11555.49
636.501	11528.87
636.695	11686.56
636.889	11322.02
637.083	11367.08
637.276	11266.73
637.47	11412.14
637.664	11297.45
637.857	11256.49
638.051	11217.58
638.244	10887.86
638.438	11080.36
638.632	10953.39
638.825	10734.26
639.019	10832.56
639.212	10693.3
639.406	10672.82
639.599	10691.25
639.793	10685.11
639.986	10382.01
640.18	10635.96
640.373	10529.46
640.567	10357.43
640.76	10357.43
640.954	10244.79
641.147	10279.61
641.34	10216.12
641.534	10152.63
641.727	10097.34
641.92	10115.77
642.114	9980.61
642.307	9935.55
642.5	9870.01
642.694	9644.74
642.887	9763.52
643.08	9769.66
643.273	9738.94
643.467	9697.99
643.66	9732.8
643.853	9392.84
644.046	9513.67
644.239	9401.03
644.432	9312.97
644.626	9376.45
644.819	9376.45
645.012	9329.35
645.205	9272.01
645.398	9159.37
645.591	9048.78
645.784	9038.54
645.977	9050.83
646.17	8903.37
646.363	8817.36
646.556	8692.43
646.749	8696.53
646.942	8796.88
647.135	8745.68
647.328	8604.37
647.521	8553.17
647.714	8544.98
647.907	8694.48
648.099	8549.07
648.292	8268.5
648.485	8321.75
648.678	8266.46
648.871	8438.48
649.064	8186.58
649.256	8198.87
649.449	8155.86
649.642	8301.27
649.835	8213.21
650.027	7899.87
650.22	8139.48
650.413	7883.49
650.605	7971.55
650.798	7873.25
650.991	7654.11
651.183	7918.3
651.376	7793.37
651.568	7742.18
651.761	7498.47
651.954	7783.13
652.146	7600.87
652.339	7559.91
652.531	7629.54
652.724	7557.86
652.916	7359.21
653.109	7322.34
653.301	7467.75
653.494	7379.68
653.686	7148.26
653.879	7277.29
654.071	7273.19
654.263	7213.8
654.456	7088.87
654.648	7205.61
654.84	6988.52
655.033	6974.19
655.225	6933.23
655.417	7037.67
655.61	6978.28
655.802	6906.6
655.994	6871.79
656.186	6812.4
656.379	6785.77
656.571	6738.67
656.763	6775.53
656.955	6812.4
657.148	6550.26
657.34	6666.99
657.532	6662.9
657.724	6382.32
657.916	6476.53
658.108	6353.65
658.3	6314.74
658.492	6386.42
658.684	6200.05
658.876	6486.77
659.068	6404.85
659.26	6277.88
659.452	6263.54
659.644	6015.74
659.836	6198.01
660.028	6171.38
660.22	5989.11
660.412	6126.33
660.604	5997.31
660.796	6021.88
660.988	5931.77
661.18	6021.88
661.372	5987.07
661.563	6028.03
661.755	5864.19
661.947	5925.63
662.139	5812.99
662.331	5772.03
662.522	5706.49
662.714	5540.61
662.906	5509.89
663.097	5620.48
663.289	5626.62
663.481	5511.94
663.673	5532.42
663.864	5520.13
664.056	5401.35
664.247	5296.9
664.439	5450.5
664.631	5436.16
664.822	5288.71
665.014	5544.7
665.205	5327.62
665.397	5266.18
665.588	5387.01
665.78	5278.47
665.971	5245.7
666.163	5174.02
666.354	5190.41
666.546	5278.47
666.737	4903.69
666.929	4899.59
667.12	5174.02
667.311	5061.38
667.503	4946.7
667.694	5143.3
667.885	4928.27
668.077	4883.21
668.268	4805.39
668.459	4922.12
668.651	4690.7
668.842	4711.18
669.033	4823.82
669.224	4764.43
669.416	4856.59
669.607	4774.67
669.798	4641.55
669.989	4756.24
670.18	4729.61
670.371	4551.44
670.563	4537.1
670.754	4662.03
670.945	4674.32
671.136	4584.21
671.327	4733.71
671.518	4530.96
671.709	4600.59
671.9	4498.19
672.091	4264.72
672.282	4324.12
672.473	4428.56
672.664	4467.47
672.855	4379.41
673.046	4227.86
673.237	4369.17
673.428	4203.29
673.619	4295.44
673.809	4223.76
674	4143.89
674.191	4211.48
674.382	4176.66
674.573	4119.32
674.764	4197.14
674.954	4184.85
675.145	3951.39
675.336	4150.04
675.527	4021.02
675.717	4000.54
675.908	4016.92
676.099	4051.74
676.289	4076.31
676.48	3861.27
676.671	3955.48
676.861	3943.19
677.052	3965.72
677.243	3992.34
677.433	3781.4
677.624	3863.32
677.814	3818.27
678.005	3795.74
678.195	3803.93
678.386	3992.34
678.576	3664.67
678.767	3855.13
678.957	3812.12
679.148	3758.88
679.338	3773.21
679.529	3631.9
679.719	3633.95
679.909	3836.7
680.1	3765.02
680.29	3746.59
680.481	3742.49
680.671	3658.53
680.861	3652.38
681.052	3523.36
681.242	3658.53
681.432	3650.33
681.622	3539.74
681.813	3459.87
682.003	3476.26
682.193	3480.35
682.383	3506.98
682.573	3380
682.764	3341.09
682.954	3500.83
683.144	3478.3
683.334	3459.87
683.524	3449.63
683.714	3369.76
683.904	3353.38
684.094	3363.62
684.284	3377.95
684.474	3363.62
684.664	3330.85
684.854	3255.08
685.044	3468.06
685.234	3412.77
685.424	3308.32
685.614	3273.51
685.804	3203.88
685.994	3162.92
686.184	3189.54
686.374	3148.58
686.564	3167.01
686.753	3199.78
686.943	3181.35
687.133	3205.92
687.323	3185.44
687.513	3134.25
687.702	3052.33
687.892	3179.3
688.082	3160.87
688.272	3242.79
688.461	3066.66
688.651	3076.9
688.841	3007.27
689.03	3111.72
689.22	3062.57
689.41	2943.78
689.599	2951.98
689.789	3173.16
689.979	2999.08
690.168	2911.02
690.358	2908.97
690.547	2982.7
690.737	2999.08
690.926	2906.92
691.116	2894.63
691.305	2933.54
691.495	2911.02
691.684	2820.91
691.874	2886.44
692.063	2853.67
692.252	2796.33
692.442	2872.11
692.631	2827.05
692.82	2806.57
693.01	2724.65
693.199	2681.64
693.388	2972.46
693.578	2710.32
693.767	2857.77
693.956	2890.54
694.146	2839.34
694.335	2655.02
694.524	2732.84
694.713	2765.61
694.902	2712.36
695.092	2796.33
695.281	2698.03
695.47	2765.61
695.659	2644.78
695.848	2659.12
696.037	2601.77
696.226	2655.02
696.415	2644.78
696.604	2657.07
696.793	2650.92
696.982	2624.3
697.171	2646.83
697.36	2685.74
697.549	2638.64
697.738	2612.01
697.927	2601.77
698.116	2655.02
698.305	2550.57
698.494	2601.77
698.683	2581.29
698.872	2550.57
699.061	2593.58
699.25	2566.96
699.438	2491.18
699.627	2505.52
699.816	2550.57
700.005	2708.27
700.193	2564.91
700.382	2552.62
700.571	2609.97
700.76	2509.62
700.948	2550.57
701.137	2571.05
701.326	2589.49
701.514	2421.55
701.703	2556.72
701.892	2515.76
702.08	2591.53
702.269	2564.91
702.457	2431.79
702.646	2468.66
702.834	2528.05
703.023	2577.2
703.212	2589.49
703.4	2425.65
703.589	2466.61
703.777	2519.85
703.965	2442.03
704.154	2485.04
704.342	2495.28
704.531	2519.85
704.719	2472.75
704.907	2673.45
705.096	2431.79
705.284	2560.81
705.472	2472.75
705.661	2526
705.849	2468.66
706.037	2433.84
706.226	2489.14
706.414	2480.94
706.602	2523.95
706.79	2556.72
706.979	2421.55
707.167	2476.85
707.355	2345.78
707.543	2366.26
707.731	2462.51
707.919	2419.5
708.107	2485.04
708.296	2470.7
708.484	2374.45
708.672	2419.5
708.86	2323.25
709.048	2470.7
709.236	2538.29
709.424	2536.24
709.612	2401.07
709.8	2480.94
709.988	2448.18
710.176	2429.74
710.364	2345.78
710.551	2419.5
710.739	2599.73
710.927	2329.39
711.115	2339.63
711.303	2489.14
711.491	2472.75
711.679	2376.5
711.866	2370.35
712.054	2427.7
712.242	2456.37
712.43	2444.08
712.617	2411.31
712.805	2437.94
712.993	2282.29
713.181	2427.7
713.368	2339.63
713.556	2351.92
713.744	2380.59
713.931	2501.42
714.119	2341.68
714.306	2423.6
714.494	2384.69
714.682	2386.74
714.869	2390.83
715.057	2366.26
715.244	2292.53
715.432	2399.02
715.619	2296.63
715.807	2360.11
715.994	2329.39
716.182	2417.46
716.369	2456.37
716.556	2392.88
716.744	2292.53
716.931	2261.81
717.119	2317.11
717.306	2247.48
717.493	2345.78
717.681	2333.49
717.868	2421.55
718.055	2323.25
718.242	2349.87
718.43	2325.3
718.617	2366.26
718.804	2360.11
718.991	2364.21
719.179	2378.55
719.366	2200.37
719.553	2181.94
719.74	2450.22
719.927	2329.39
720.114	2360.11
720.301	2353.97
720.488	2288.43
720.676	2362.16
720.863	2308.91
721.05	2476.85
721.237	2227
721.424	2278.19
721.611	2229.04
721.798	2218.8
721.985	2241.33
722.172	2224.95
722.358	2177.84
722.545	2323.25
722.732	2290.48
722.919	2298.67
723.106	2286.39
723.293	2333.49
723.48	2192.18
723.667	2243.38
723.853	2274.1
724.04	2304.82
724.227	2345.78
724.414	2267.95
724.6	2304.82
724.787	2255.67
724.974	2351.92
725.161	2212.66
725.347	2255.67
725.534	2257.71
725.72	2327.35
725.907	2229.04
726.094	2202.42
726.28	2227
726.467	2259.76
726.653	2151.22
726.84	2294.58
727.027	2200.37
727.213	2296.63
727.4	2243.38
727.586	2194.23
727.773	2235.19
727.959	2272.05
728.145	2210.61
728.332	2212.66
728.518	2028.34
728.705	2249.52
728.891	2249.52
729.077	2220.85
729.264	2132.79
729.45	2210.61
729.636	2290.48
729.823	2169.65
730.009	2151.22
730.195	2229.04
730.382	2247.48
730.568	2188.08
730.754	2140.98
730.94	2192.18
731.126	2224.95
731.313	2173.75
731.499	2177.84
731.685	2206.52
731.871	2161.46
732.057	2169.65
732.243	2069.3
732.429	2104.12
732.615	2136.88
732.801	2194.23
732.987	2136.88
733.173	2194.23
733.359	2255.67
733.545	2071.35
733.731	2243.38
733.917	2159.41
734.103	2120.5
734.289	2145.08
734.475	2067.25
734.661	2159.41
734.847	2159.41
735.033	2061.11
735.219	2052.92
735.404	2145.08
735.59	2161.46
735.776	2167.6
735.962	2063.16
736.148	2097.97
736.333	2011.96
736.519	2171.7
736.705	2018.1
736.89	2028.34
737.076	2063.16
737.262	2038.58
737.447	2067.25
737.633	2108.21
737.819	1948.47
738.004	2063.16
738.19	2028.34
738.375	1952.57
738.561	2069.3
738.747	2034.49
738.932	2032.44
739.118	1911.61
739.303	2046.77
739.489	2040.63
739.674	1925.94
739.859	1915.7
740.045	2122.55
740.23	1921.85
740.416	1919.8
740.601	2046.77
740.786	1960.76
740.972	1940.28
741.157	2011.96
741.342	1880.89
741.528	1880.89
741.713	1950.52
741.898	1944.38
742.084	1831.74
742.269	1856.31
742.454	1930.04
742.639	1903.42
742.824	1956.66
743.01	1940.28
743.195	1985.34
743.38	1876.79
743.565	1891.13
743.75	1866.55
743.935	1940.28
744.12	1927.99
744.305	1790.78
744.49	1733.43
744.675	1864.5
744.86	1755.96
745.045	1874.74
745.23	1772.35
745.415	1819.45
745.6	1798.97
745.785	1743.67
745.97	1821.5
746.155	1823.55
746.34	1905.46
746.525	1604.41
746.71	1788.73
746.895	1762.11
747.079	1751.87
747.264	1755.96
747.449	1645.37
747.634	1665.85
747.819	1672
748.003	1694.52
748.188	1649.47
748.373	1542.97
748.557	1622.84
748.742	1600.32
748.927	1616.7
749.111	1698.62
749.296	1493.82
749.481	1530.69
749.665	1536.83
749.85	1491.77
750.034	1559.36
750.219	1530.69
750.404	1518.4
750.588	1512.25
750.773	1551.17
750.957	1479.49
751.141	1461.06
751.326	1461.06
751.51	1532.73
751.695	1497.92
751.879	1426.24
752.064	1534.78
752.248	1393.47
752.432	1409.86
752.617	1448.77
752.801	1502.01
752.985	1422.14
753.17	1432.38
753.354	1418.05
753.538	1274.69
753.722	1354.56
753.907	1315.65
754.091	1338.18
754.275	1299.27
754.459	1280.83
754.643	1370.94
754.828	1321.79
755.012	1176.39
755.196	1340.22
755.38	1231.68
755.564	1301.31
755.748	1338.18
755.932	1280.83
756.116	1280.83
756.3	1223.49
756.484	1135.43
756.668	1272.64
756.852	1145.67
757.036	1166.15
757.22	1176.39
757.404	1241.92
757.588	1209.15
757.772	1227.59
757.956	1211.2
758.14	1198.92
758.323	1149.76
758.507	1071.94
758.691	1143.62
758.875	1186.63
759.059	1129.28
759.242	1073.99
759.426	1069.89
759.61	1123.14
759.794	1076.04
759.977	1172.29
760.161	1194.82
760.345	1149.76
760.528	1180.48
760.712	1047.37
760.895	1117
761.079	1035.08
761.263	1102.66
761.446	990.02
761.63	1049.41
761.813	1020.74
761.997	1000.26
762.18	987.97
762.364	938.82
762.547	1018.69
762.731	977.73
762.914	1028.93
763.098	1069.89
763.281	1016.65
763.464	990.02
763.648	973.64
763.831	996.17
764.015	1010.5
764.198	1016.65
764.381	1018.69
764.564	926.54
764.748	893.77
764.931	971.59
765.114	1028.93
765.297	944.97
765.481	910.15
765.664	1002.31
765.847	922.44
766.03	953.16
766.213	887.62
766.397	895.82
766.58	891.72
766.763	979.78
766.946	899.91
767.129	985.93
767.312	912.2
767.495	863.05
767.678	879.43
767.861	869.19
768.044	932.68
768.227	875.34
768.41	822.09
768.593	863.05
768.776	955.21
768.959	977.73
769.142	924.49
769.324	803.66
769.507	842.57
769.69	838.47
769.873	805.71
770.056	842.57
770.239	891.72
770.421	936.78
770.604	842.57
770.787	901.96
770.97	899.91
771.152	836.42
771.335	758.6
771.518	848.71
771.7	873.29
771.883	789.32
772.066	754.51
772.248	856.9
772.431	811.85
772.613	834.38
772.796	846.66
772.978	774.99
773.161	953.16
773.343	789.32
773.526	781.13
773.708	731.98
773.891	723.79
774.073	731.98
774.256	779.08
774.438	781.13
774.621	750.41
774.803	760.65
774.985	723.79
775.168	736.07
775.35	760.65
775.532	824.14
775.715	801.61
775.897	748.36
776.079	707.4
776.261	731.98
776.444	672.59
776.626	641.87
776.808	697.16
776.99	695.11
777.173	709.45
777.355	682.83
777.537	691.02
777.719	715.59
777.901	691.02
778.083	596.81
778.265	615.24
778.447	703.31
778.629	750.41
778.811	641.87
778.993	691.02
779.175	717.64
779.357	611.15
779.539	551.76
779.721	578.38
779.903	574.28
780.085	562
780.267	668.49
780.449	633.68
780.631	611.15
780.812	559.95
780.994	611.15
781.176	592.72
781.358	607.05
781.54	590.67
781.721	543.57
781.903	572.24
782.085	609.1
782.267	615.24
782.448	475.98
782.63	541.52
782.812	488.27
782.993	584.52
783.175	582.48
783.357	592.72
783.538	496.46
783.72	504.65
783.901	428.88
784.083	486.22
784.264	549.71
784.446	553.8
784.627	496.46
784.809	535.37
784.99	566.09
785.172	502.61
785.353	508.75
785.535	441.17
785.716	488.27
785.897	449.36
786.079	418.64
786.26	496.46
786.441	459.6
786.623	439.12
786.804	396.11
786.985	428.88
787.167	529.23
787.348	426.83
787.529	459.6
787.71	457.55
787.891	400.21
788.073	435.02
788.254	410.45
788.435	490.32
788.616	396.11
788.797	277.33
788.978	381.78
789.159	426.83
789.34	385.87
789.522	398.16
789.703	387.92
789.884	371.54
790.065	359.25
790.246	414.54
790.427	418.64
790.607	377.68
790.788	375.63
790.969	357.2
791.15	396.11
791.331	353.1
791.512	320.34
791.693	387.92
791.874	404.3
792.054	461.65
792.235	353.1
792.416	303.95
792.597	351.06
792.778	338.77
792.958	324.43
793.139	394.06
793.32	332.62
793.5	285.52
793.681	346.96
793.862	310.1
794.042	267.09
794.223	314.19
794.404	306
794.584	269.14
794.765	338.77
794.945	287.57
795.126	338.77
795.306	396.11
795.487	267.09
795.667	215.89
795.848	279.38
796.028	338.77
796.209	265.04
796.389	226.13
796.57	289.62
796.75	308.05
796.93	246.61
797.111	238.42
797.291	283.47
797.471	299.86
797.652	344.91
797.832	330.58
798.012	351.06
798.192	240.47
798.373	289.62
798.553	353.1
798.733	303.95
798.913	211.79
799.093	258.9
799.274	275.28
799.454	230.23
799.634	275.28
799.814	250.71
799.994	269.14
800.174	281.43
800.354	201.55
800.534	242.51
800.714	303.95
800.894	222.03
801.074	242.51
801.254	250.71
801.434	234.32
801.614	195.41
801.794	224.08
801.974	744.27
802.154	189.27
802.334	289.62
802.514	183.12
802.693	250.71
802.873	228.18
803.053	326.48
803.233	133.97
803.413	285.52
803.592	226.13
803.772	226.13
803.952	150.36
804.131	183.12
804.311	207.7
804.491	244.56
804.67	174.93
804.85	174.93
805.03	234.32
805.209	252.75
805.389	187.22
805.568	199.51
805.748	250.71
805.928	252.75
806.107	238.42
806.287	174.93
806.466	185.17
806.646	232.27
806.825	226.13
807.004	199.51
807.184	193.36
807.363	224.08
807.543	176.98
807.722	203.6
807.901	197.46
808.081	232.27
808.26	207.7
808.439	119.64
808.619	162.64
808.798	185.17
808.977	185.17
809.156	170.83
809.336	217.94
809.515	250.71
809.694	207.7
809.873	174.93
810.052	199.51
810.231	183.12
810.411	174.93
810.59	258.9
810.769	148.31
810.948	123.73
811.127	160.59
811.306	136.02
811.485	150.36
811.664	267.09
811.843	176.98
812.022	125.78
812.201	99.16
812.38	158.55
812.559	195.41
812.737	133.97
812.916	97.11
813.095	158.55
813.274	174.93
813.453	179.03
813.632	140.12
813.811	140.12
813.989	168.79
814.168	211.79
814.347	191.31
814.526	174.93
814.704	217.94
814.883	193.36
815.062	117.59
815.24	125.78
815.419	125.78
815.598	146.26
815.776	129.88
815.955	131.92
816.133	158.55
816.312	158.55
816.49	154.45
816.669	183.12
816.847	150.36
817.026	111.44
817.204	97.11
817.383	174.93
817.561	60.24
817.74	162.64
817.918	146.26
818.097	187.22
818.275	119.64
818.453	109.4
818.632	203.6
818.81	201.55
818.988	162.64
819.167	176.98
819.345	88.92
819.523	99.16
819.701	68.44
819.879	185.17
820.058	185.17
820.236	119.64
820.414	101.2
820.592	158.55
820.77	105.3
820.948	183.12
821.127	93.01
821.305	133.97
821.483	166.74
821.661	144.21
821.839	140.12
822.017	176.98
822.195	224.08
822.373	166.74
822.551	88.92
822.729	203.6
822.907	70.48
823.085	160.59
823.262	248.66
823.44	170.83
823.618	35.67
823.796	144.21
823.974	99.16
824.152	82.77
824.329	191.31
824.507	62.29
824.685	90.96
824.863	164.69
825.04	138.07
825.218	140.12
825.396	111.44
825.574	105.3
825.751	117.59
825.929	162.64
826.107	176.98
826.284	127.83
826.462	127.83
826.639	125.78
826.817	64.34
826.994	105.3
827.172	82.77
827.349	64.34
827.527	97.11
827.704	68.44
827.882	88.92
828.059	70.48
828.237	78.68
828.414	166.74
828.591	119.64
828.769	80.72
828.946	93.01
829.124	117.59
829.301	84.82
829.478	111.44
829.655	90.96
829.833	93.01
830.01	76.63
830.187	101.2
830.364	76.63
830.542	101.2
830.719	154.45
830.896	150.36
831.073	131.92
831.25	-5.29
831.427	90.96
831.604	138.07
831.782	129.88
831.959	117.59
832.136	45.91
832.313	148.31
832.49	76.63
832.667	88.92
832.844	43.86
833.021	117.59
833.198	76.63
833.374	127.83
833.551	74.58
833.728	117.59
833.905	103.25
834.082	105.3
834.259	160.59
834.436	113.49
834.612	117.59
834.789	45.91
834.966	117.59
835.143	45.91
835.319	82.77
835.496	95.06
835.673	109.4
835.85	107.35
836.026	99.16
836.203	50
836.38	82.77
836.556	74.58
836.733	125.78
836.909	103.25
837.086	117.59
837.262	13.14
837.439	19.29
837.616	125.78
837.792	68.44
837.968	43.86
838.145	84.82
838.321	64.34
838.498	115.54
838.674	93.01
838.851	68.44
839.027	-13.48
839.203	66.39
839.38	95.06
839.556	84.82
839.732	113.49
839.909	21.33
840.085	62.29
840.261	78.68
840.437	78.68
840.614	33.62
840.79	41.81
840.966	150.36
841.142	113.49
841.318	35.67
841.494	90.96
841.671	82.77
841.847	123.73
842.023	86.87
842.199	121.68
842.375	140.12
842.551	4.95
842.727	54.1
842.903	-7.34
843.079	78.68
843.255	111.44
843.431	88.92
843.607	121.68
843.783	21.33
843.959	95.06
844.134	-13.48
844.31	109.4
844.486	13.14
844.662	43.86
844.838	119.64
845.013	82.77
845.189	117.59
845.365	54.1
845.541	60.24
845.716	80.72
845.892	66.39
846.068	52.05
846.244	62.29
846.419	76.63
846.595	70.48
846.77	76.63
846.946	60.24
847.122	39.76
847.297	37.72
847.473	78.68
847.648	0.85
847.824	58.2
847.999	29.52
848.175	84.82
848.35	111.44
848.526	23.38
848.701	95.06
848.876	76.63
849.052	68.44
849.227	86.87
849.403	121.68
849.578	68.44
849.753	76.63
849.929	60.24
850.104	31.57
850.279	68.44
850.454	41.81
850.63	56.15
850.805	35.67
850.98	93.01
851.155	19.29
851.33	136.02
851.505	-21.67
851.681	95.06
851.856	-11.43
852.031	-11.43
852.206	76.63
852.381	-3.24
852.556	13.14
852.731	86.87
852.906	136.02
853.081	37.72
853.256	93.01
853.431	101.2
853.606	58.2
853.781	84.82
853.956	47.96
854.131	43.86
854.305	-21.67
854.48	-5.29
854.655	2.9
854.83	58.2
855.005	-3.24
855.18	70.48
855.354	23.38
855.529	27.48
855.704	19.29
855.879	105.3
856.053	9.05
856.228	70.48
856.403	37.72
856.577	86.87
856.752	39.76
856.926	80.72
857.101	60.24
857.276	60.24
857.45	109.4
857.625	13.14
857.799	27.48
857.974	60.24
858.148	95.06
858.323	64.34
858.497	43.86
858.672	84.82
858.846	17.24
859.02	84.82
859.195	-7.34
859.369	2.9
859.543	19.29
859.718	127.83
859.892	31.57
860.066	37.72
860.241	23.38
860.415	-5.29
860.589	84.82
860.763	35.67
860.938	23.38
861.112	-27.82
861.286	21.33
861.46	-29.87
861.634	76.63
861.808	39.76
861.982	45.91
862.157	-3.24
862.331	35.67
862.505	-7.34
862.679	9.05
862.853	29.52
863.027	27.48
863.201	70.48
863.375	23.38
863.549	54.1
863.722	45.91
863.896	60.24
864.07	19.29
864.244	27.48
864.418	103.25
864.592	29.52
864.766	-9.39
864.939	-11.43
865.113	21.33
865.287	56.15
865.461	7
865.634	25.43
865.808	2.9
865.982	29.52
866.156	-1.19
866.329	-21.67
866.503	33.62
866.676	62.29
866.85	58.2
867.024	64.34
867.197	2.9
867.371	23.38
867.544	-11.43
867.718	37.72
867.891	19.29
868.065	-70.83
868.238	74.58
868.412	150.36
868.585	60.24
868.759	54.1
868.932	41.81
869.105	43.86
869.279	4.95
869.452	19.29
869.625	35.67
869.799	60.24
869.972	47.96
870.145	52.05
870.319	15.19
870.492	62.29
870.665	7
870.838	27.48
871.011	19.29
871.185	54.1
871.358	15.19
871.531	-46.25
871.704	33.62
871.877	-44.2
872.05	-9.39
872.223	19.29
872.396	74.58
872.569	27.48
872.742	11.09
872.915	113.49
873.088	19.29
873.261	41.81
873.434	119.64
873.607	68.44
873.78	54.1
873.953	31.57
874.126	13.14
874.299	52.05
874.471	29.52
874.644	43.86
874.817	4.95
874.99	64.34
875.163	2.9
875.335	29.52
875.508	-23.72
875.681	70.48
875.853	2.9
876.026	-11.43
876.199	56.15
876.371	15.19
876.544	52.05
876.717	-27.82
876.889	86.87
877.062	-19.63
877.234	15.19
877.407	29.52
877.579	-5.29
877.752	-25.77
877.924	54.1
878.097	35.67
878.269	29.52
878.442	60.24
878.614	-27.82
878.786	74.58
878.959	23.38
879.131	45.91
879.303	-13.48
879.476	-13.48
879.648	11.09
879.82	-9.39
879.993	-31.91
880.165	50
880.337	4.95
880.509	-1.19
880.681	-70.83
880.854	62.29
881.026	-11.43
881.198	56.15
881.37	27.48
881.542	15.19
881.714	39.76
881.886	25.43
882.058	43.86
882.23	76.63
882.402	117.59
882.574	-1.19
882.746	80.72
882.918	35.67
883.09	31.57
883.262	-44.2
883.434	54.1
883.606	60.24
883.778	21.33
883.95	21.33
884.122	72.53
884.293	0.85
884.465	-42.15
884.637	136.02
884.809	-52.39
884.98	-46.25
885.152	-3.24
885.324	43.86
885.496	37.72
885.667	13.14
885.839	45.91
886.011	27.48
886.182	66.39
886.354	54.1
886.525	31.57
886.697	76.63
886.869	-44.2
887.04	76.63
887.212	-23.72
887.383	123.73
887.555	-36.01
887.726	27.48
887.897	-11.43
888.069	-3.24
888.24	70.48
888.412	15.19
888.583	-1.19
888.754	35.67
888.926	-103.59
889.097	68.44
889.268	4.95
889.44	15.19
889.611	45.91
889.782	-11.43
889.953	-15.53
890.125	121.68
890.296	-3.24
890.467	109.4
890.638	-7.34
890.809	78.68
890.98	70.48
891.151	95.06
891.323	64.34
891.494	0.85
891.665	54.1
891.836	-50.35
892.007	58.2
892.178	7
892.349	97.11
892.52	-15.53
892.691	45.91
892.862	-13.48
893.032	-9.39
893.203	-1.19
893.374	11.09
893.545	70.48
893.716	4.95
893.887	90.96
894.057	50
894.228	19.29
894.399	-31.91
894.57	78.68
894.74	-46.25
894.911	23.38
895.082	21.33
895.253	60.24
895.423	-46.25
895.594	72.53
895.764	86.87
895.935	-21.67
896.106	43.86
896.276	-1.19
896.447	-48.3
896.617	19.29
896.788	37.72
896.958	0.85
897.129	9.05
897.299	37.72
897.47	0.85
897.64	70.48
897.81	-33.96
897.981	68.44
898.151	31.57
898.322	27.48
898.492	-52.39
898.662	19.29
898.832	-1.19
899.003	39.76
899.173	68.44
899.343	23.38
899.513	2.9
