Data from USB4F104151__103__13-22-07-851.txt Node

Date: Fri Mar 14 13:22:07 EDT 2025
User: louis
Spectrometer: USB4F10415
Trigger mode: 4
Integration Time (sec): 3.000000E-2
Scans to average: 1
Electric dark correction enabled: true
Nonlinearity correction enabled: false
Boxcar width: 0
XAxis mode: Wavelengths
Number of Pixels in Spectrum: 3648
>>>>>Begin Spectral Data<<<<<
178.204	-163.15
178.424	-163.15
178.644	-163.15
178.864	-157.01
179.084	-89.43
179.304	43.69
179.524	12.97
179.744	-25.94
179.964	0.68
180.184	-34.13
180.404	-15.7
180.624	2.73
180.844	6.83
181.064	23.21
181.283	-25.94
181.503	37.55
181.723	-25.94
181.943	-116.05
182.163	49.83
182.383	-5.46
182.602	88.75
182.822	-30.04
183.042	-17.75
183.262	12.97
183.482	19.11
183.701	4.78
183.921	21.16
184.141	-50.52
184.361	41.64
184.58	10.92
184.8	47.79
185.02	33.45
185.239	96.94
185.459	47.79
185.679	55.98
185.898	-13.65
186.118	49.83
186.338	-32.08
186.557	72.36
186.777	45.74
186.997	-40.28
187.216	62.12
187.436	121.51
187.655	41.64
187.875	8.87
188.095	-50.52
188.314	-7.51
188.534	15.02
188.753	29.35
188.973	70.31
189.192	107.18
189.412	6.83
189.631	8.87
189.851	74.41
190.07	27.31
190.29	-40.28
190.509	31.4
190.729	-1.37
190.948	-13.65
191.168	217.77
191.387	43.69
191.607	27.31
191.826	-50.52
192.045	12.97
192.265	17.07
192.484	37.55
192.704	-97.62
192.923	-56.66
193.142	137.9
193.362	80.55
193.581	86.7
193.8	41.64
194.02	-3.41
194.239	-17.75
194.458	4.78
194.678	23.21
194.897	-17.75
195.116	10.92
195.335	-5.46
195.555	6.83
195.774	25.26
195.993	53.93
196.212	43.69
196.432	-9.56
196.651	74.41
196.87	-46.42
197.089	58.03
197.308	33.45
197.528	78.51
197.747	15.02
197.966	-23.89
198.185	84.65
198.404	19.11
198.623	25.26
198.842	27.31
199.062	0.68
199.281	39.59
199.5	43.69
199.719	51.88
199.938	66.22
200.157	133.8
200.376	70.31
200.595	27.31
200.814	66.22
201.033	31.4
201.252	19.11
201.471	-7.51
201.69	0.68
201.909	80.55
202.128	68.27
202.347	-1.37
202.566	70.31
202.785	10.92
203.004	-11.61
203.223	129.7
203.442	53.93
203.661	43.69
203.879	58.03
204.098	25.26
204.317	-34.13
204.536	35.5
204.755	-21.84
204.974	-30.04
205.193	8.87
205.411	84.65
205.63	76.46
205.849	47.79
206.068	-9.56
206.287	41.64
206.505	6.83
206.724	-23.89
206.943	-21.84
207.162	0.68
207.381	2.73
207.599	-5.46
207.818	-40.28
208.037	-15.7
208.255	15.02
208.474	86.7
208.693	12.97
208.911	23.21
209.13	-1.37
209.349	25.26
209.567	41.64
209.786	43.69
210.005	-25.94
210.223	29.35
210.442	10.92
210.661	-25.94
210.879	-23.89
211.098	23.21
211.316	8.87
211.535	60.07
211.753	17.07
211.972	64.17
212.191	15.02
212.409	47.79
212.628	47.79
212.846	-17.75
213.065	19.11
213.283	17.07
213.502	53.93
213.72	23.21
213.938	2.73
214.157	66.22
214.375	60.07
214.594	-32.08
214.812	-21.84
215.031	17.07
215.249	33.45
215.467	21.16
215.686	-7.51
215.904	55.98
216.122	31.4
216.341	121.51
216.559	47.79
216.778	31.4
216.996	53.93
217.214	-1.37
217.432	25.26
217.651	8.87
217.869	-58.71
218.087	25.26
218.306	51.88
218.524	23.21
218.742	62.12
218.96	12.97
219.179	-25.94
219.397	-58.71
219.615	105.13
219.833	47.79
220.051	-9.56
220.27	68.27
220.488	39.59
220.706	-13.65
220.924	15.02
221.142	82.6
221.36	19.11
221.578	90.79
221.796	47.79
222.015	6.83
222.233	23.21
222.451	41.64
222.669	-23.89
222.887	-5.46
223.105	29.35
223.323	60.07
223.541	-34.13
223.759	78.51
223.977	45.74
224.195	113.32
224.413	-48.47
224.631	17.07
224.849	94.89
225.067	94.89
225.285	-87.38
225.503	-58.71
225.721	-13.65
225.939	39.59
226.157	80.55
226.375	98.99
226.592	-9.56
226.81	47.79
227.028	49.83
227.246	23.21
227.464	76.46
227.682	45.74
227.9	49.83
228.117	92.84
228.335	123.56
228.553	43.69
228.771	6.83
228.989	-5.46
229.206	51.88
229.424	76.46
229.642	-42.32
229.86	12.97
230.077	31.4
230.295	-23.89
230.513	105.13
230.731	123.56
230.948	21.16
231.166	88.75
231.384	27.31
231.601	8.87
231.819	121.51
232.037	-40.28
232.254	35.5
232.472	49.83
232.689	33.45
232.907	31.4
233.125	68.27
233.342	-9.56
233.56	6.83
233.777	23.21
233.995	-13.65
234.213	125.61
234.43	33.45
234.648	-25.94
234.865	-30.04
235.083	39.59
235.3	23.21
235.518	55.98
235.735	78.51
235.953	19.11
236.17	10.92
236.388	-91.48
236.605	-38.23
236.822	2.73
237.04	72.36
237.257	82.6
237.475	19.11
237.692	33.45
237.909	29.35
238.127	10.92
238.344	49.83
238.562	55.98
238.779	-7.51
238.996	12.97
239.214	-3.41
239.431	27.31
239.648	-23.89
239.865	-11.61
240.083	123.56
240.3	29.35
240.517	27.31
240.735	-5.46
240.952	15.02
241.169	41.64
241.386	8.87
241.603	86.7
241.821	55.98
242.038	39.59
242.255	6.83
242.472	-46.42
242.689	35.5
242.907	47.79
243.124	84.65
243.341	-46.42
243.558	2.73
243.775	-56.66
243.992	-1.37
244.209	25.26
244.426	144.04
244.643	39.59
244.86	49.83
245.078	115.37
245.295	23.21
245.512	33.45
245.729	23.21
245.946	55.98
246.163	41.64
246.38	55.98
246.597	-17.75
246.814	6.83
247.031	72.36
247.248	58.03
247.464	-19.8
247.681	21.16
247.898	105.13
248.115	94.89
248.332	-56.66
248.549	47.79
248.766	98.99
248.983	84.65
249.2	72.36
249.417	8.87
249.633	45.74
249.85	15.02
250.067	31.4
250.284	27.31
250.501	90.79
250.717	98.99
250.934	-46.42
251.151	-27.99
251.368	-32.08
251.585	43.69
251.801	35.5
252.018	8.87
252.235	86.7
252.451	31.4
252.668	-42.32
252.885	4.78
253.102	-5.46
253.318	-32.08
253.535	-32.08
253.752	15.02
253.968	33.45
254.185	10.92
254.401	17.07
254.618	53.93
254.835	10.92
255.051	113.32
255.268	23.21
255.484	25.26
255.701	66.22
255.917	27.31
256.134	-32.08
256.351	12.97
256.567	10.92
256.784	33.45
257	-44.37
257.217	10.92
257.433	37.55
257.65	62.12
257.866	-34.13
258.082	-95.57
258.299	33.45
258.515	-11.61
258.732	-7.51
258.948	0.68
259.165	-58.71
259.381	33.45
259.597	51.88
259.814	23.21
260.03	66.22
260.246	39.59
260.463	-1.37
260.679	105.13
260.895	70.31
261.112	-1.37
261.328	35.5
261.544	15.02
261.761	131.75
261.977	0.68
262.193	4.78
262.409	17.07
262.626	-15.7
262.842	94.89
263.058	2.73
263.274	19.11
263.49	-17.75
263.707	31.4
263.923	33.45
264.139	10.92
264.355	17.07
264.571	98.99
264.787	55.98
265.004	6.83
265.22	15.02
265.436	17.07
265.652	-1.37
265.868	19.11
266.084	-21.84
266.3	47.79
266.516	-15.7
266.732	39.59
266.948	66.22
267.164	21.16
267.38	43.69
267.596	15.02
267.812	107.18
268.028	-9.56
268.244	0.68
268.46	25.26
268.676	25.26
268.892	-27.99
269.108	58.03
269.324	-34.13
269.54	8.87
269.756	80.55
269.972	31.4
270.188	-9.56
270.403	-9.56
270.619	62.12
270.835	25.26
271.051	21.16
271.267	37.55
271.483	49.83
271.698	70.31
271.914	49.83
272.13	45.74
272.346	27.31
272.562	23.21
272.777	21.16
272.993	111.27
273.209	31.4
273.425	-34.13
273.64	2.73
273.856	-21.84
274.072	-60.76
274.287	33.45
274.503	45.74
274.719	80.55
274.934	-58.71
275.15	39.59
275.366	15.02
275.581	-56.66
275.797	-3.41
276.012	27.31
276.228	-1.37
276.444	-15.7
276.659	80.55
276.875	-5.46
277.09	-23.89
277.306	60.07
277.521	4.78
277.737	84.65
277.952	86.7
278.168	-25.94
278.383	-5.46
278.599	68.27
278.814	60.07
279.03	15.02
279.245	23.21
279.461	45.74
279.676	23.21
279.892	-58.71
280.107	37.55
280.322	-34.13
280.538	47.79
280.753	53.93
280.969	41.64
281.184	31.4
281.399	19.11
281.615	23.21
281.83	-1.37
282.045	-48.47
282.26	66.22
282.476	-11.61
282.691	98.99
282.906	33.45
283.122	23.21
283.337	-15.7
283.552	55.98
283.767	39.59
283.983	29.35
284.198	25.26
284.413	-3.41
284.628	33.45
284.843	-9.56
285.058	23.21
285.274	68.27
285.489	-23.89
285.704	45.74
285.919	27.31
286.134	-9.56
286.349	10.92
286.564	19.11
286.779	60.07
286.995	-7.51
287.21	33.45
287.425	2.73
287.64	-32.08
287.855	12.97
288.07	-25.94
288.285	43.69
288.5	31.4
288.715	47.79
288.93	-11.61
289.145	76.46
289.36	8.87
289.575	-27.99
289.79	25.26
290.004	98.99
290.219	47.79
290.434	-7.51
290.649	58.03
290.864	90.79
291.079	88.75
291.294	37.55
291.509	-1.37
291.724	41.64
291.938	17.07
292.153	70.31
292.368	17.07
292.583	23.21
292.798	82.6
293.012	0.68
293.227	33.45
293.442	15.02
293.657	-40.28
293.871	-1.37
294.086	15.02
294.301	117.42
294.516	47.79
294.73	12.97
294.945	-68.95
295.16	39.59
295.374	109.23
295.589	49.83
295.804	-48.47
296.018	-17.75
296.233	72.36
296.447	6.83
296.662	43.69
296.877	150.18
297.091	-40.28
297.306	109.23
297.52	-3.41
297.735	-17.75
297.949	31.4
298.164	8.87
298.378	12.97
298.593	43.69
298.807	37.55
299.022	39.59
299.236	45.74
299.451	39.59
299.665	-64.85
299.88	-23.89
300.094	12.97
300.309	12.97
300.523	-13.65
300.737	25.26
300.952	51.88
301.166	37.55
301.381	-27.99
301.595	-9.56
301.809	8.87
302.024	-27.99
302.238	25.26
302.452	10.92
302.667	-34.13
302.881	98.99
303.095	78.51
303.309	33.45
303.524	17.07
303.738	94.89
303.952	0.68
304.166	68.27
304.381	-7.51
304.595	31.4
304.809	-7.51
305.023	101.03
305.237	55.98
305.452	-25.94
305.666	98.99
305.88	62.12
306.094	47.79
306.308	47.79
306.522	66.22
306.736	-21.84
306.95	23.21
307.164	101.03
307.379	-1.37
307.593	92.84
307.807	72.36
308.021	47.79
308.235	-9.56
308.449	-19.8
308.663	-25.94
308.877	96.94
309.091	68.27
309.305	6.83
309.519	-17.75
309.733	82.6
309.947	21.16
310.161	101.03
310.374	96.94
310.588	51.88
310.802	-30.04
311.016	90.79
311.23	58.03
311.444	-9.56
311.658	-13.65
311.872	31.4
312.085	76.46
312.299	55.98
312.513	39.59
312.727	31.4
312.941	-5.46
313.154	90.79
313.368	47.79
313.582	70.31
313.796	47.79
314.009	0.68
314.223	113.32
314.437	84.65
314.651	72.36
314.864	25.26
315.078	19.11
315.292	-36.18
315.505	-40.28
315.719	55.98
315.933	-27.99
316.146	25.26
316.36	-9.56
316.573	72.36
316.787	78.51
317.001	47.79
317.214	80.55
317.428	78.51
317.641	10.92
317.855	-9.56
318.068	10.92
318.282	27.31
318.495	115.37
318.709	39.59
318.922	35.5
319.136	49.83
319.349	-7.51
319.563	-5.46
319.776	-64.85
319.99	-79.19
320.203	139.94
320.417	45.74
320.63	-19.8
320.843	25.26
321.057	0.68
321.27	-30.04
321.483	15.02
321.697	109.23
321.91	41.64
322.124	6.83
322.337	-62.8
322.55	4.78
322.763	58.03
322.977	53.93
323.19	39.59
323.403	-7.51
323.617	23.21
323.83	107.18
324.043	23.21
324.256	10.92
324.469	15.02
324.683	80.55
324.896	78.51
325.109	29.35
325.322	-25.94
325.535	27.31
325.748	86.7
325.962	-21.84
326.175	15.02
326.388	49.83
326.601	51.88
326.814	-9.56
327.027	60.07
327.24	109.23
327.453	-36.18
327.666	74.41
327.879	55.98
328.092	-13.65
328.305	41.64
328.518	58.03
328.731	-56.66
328.944	66.22
329.157	68.27
329.37	-11.61
329.583	90.79
329.796	45.74
330.009	-48.47
330.222	55.98
330.435	101.03
330.648	-40.28
330.861	29.35
331.073	15.02
331.286	60.07
331.499	55.98
331.712	-17.75
331.925	33.45
332.138	12.97
332.35	88.75
332.563	33.45
332.776	66.22
332.989	-5.46
333.202	21.16
333.414	2.73
333.627	-9.56
333.84	-68.95
334.053	-34.13
334.265	64.17
334.478	-11.61
334.691	43.69
334.903	-9.56
335.116	8.87
335.329	37.55
335.541	0.68
335.754	127.66
335.966	2.73
336.179	39.59
336.392	27.31
336.604	-38.23
336.817	103.08
337.029	68.27
337.242	-46.42
337.454	0.68
337.667	49.83
337.88	23.21
338.092	-3.41
338.305	80.55
338.517	-15.7
338.729	-13.65
338.942	80.55
339.154	31.4
339.367	-3.41
339.579	47.79
339.792	23.21
340.004	6.83
340.217	-13.65
340.429	78.51
340.641	-36.18
340.854	-21.84
341.066	-27.99
341.278	-15.7
341.491	35.5
341.703	66.22
341.915	10.92
342.128	55.98
342.34	17.07
342.552	12.97
342.764	0.68
342.977	-13.65
343.189	-11.61
343.401	58.03
343.613	17.07
343.826	156.33
344.038	-73.04
344.25	80.55
344.462	31.4
344.674	31.4
344.886	-7.51
345.099	8.87
345.311	90.79
345.523	117.42
345.735	-3.41
345.947	-21.84
346.159	80.55
346.371	47.79
346.583	6.83
346.795	12.97
347.007	39.59
347.219	88.75
347.431	-75.09
347.643	88.75
347.855	19.11
348.067	82.6
348.279	-17.75
348.491	25.26
348.703	31.4
348.915	96.94
349.127	25.26
349.339	23.21
349.551	-42.32
349.763	43.69
349.975	94.89
350.187	58.03
350.399	64.17
350.61	62.12
350.822	0.68
351.034	25.26
351.246	-58.71
351.458	39.59
351.669	45.74
351.881	80.55
352.093	43.69
352.305	-9.56
352.517	0.68
352.728	80.55
352.94	27.31
353.152	-7.51
353.363	25.26
353.575	90.79
353.787	119.46
353.999	25.26
354.21	43.69
354.422	-40.28
354.633	19.11
354.845	23.21
355.057	76.46
355.268	41.64
355.48	115.37
355.692	-1.37
355.903	2.73
356.115	-66.9
356.326	-134.48
356.538	88.75
356.749	-48.47
356.961	84.65
357.172	27.31
357.384	-81.24
357.595	2.73
357.807	35.5
358.018	-66.9
358.23	-1.37
358.441	60.07
358.653	10.92
358.864	62.12
359.075	12.97
359.287	4.78
359.498	47.79
359.709	21.16
359.921	35.5
360.132	6.83
360.344	19.11
360.555	64.17
360.766	51.88
360.977	-13.65
361.189	23.21
361.4	33.45
361.611	78.51
361.823	103.08
362.034	10.92
362.245	-79.19
362.456	-32.08
362.667	55.98
362.879	-34.13
363.09	15.02
363.301	4.78
363.512	0.68
363.723	-9.56
363.935	-9.56
364.146	39.59
364.357	6.83
364.568	41.64
364.779	39.59
364.99	72.36
365.201	-11.61
365.412	12.97
365.623	45.74
365.834	98.99
366.045	4.78
366.256	23.21
366.467	-13.65
366.678	39.59
366.889	-1.37
367.1	-34.13
367.311	35.5
367.522	19.11
367.733	-3.41
367.944	31.4
368.155	-58.71
368.366	31.4
368.577	68.27
368.788	43.69
368.999	-7.51
369.209	-1.37
369.42	80.55
369.631	31.4
369.842	74.41
370.053	19.11
370.264	43.69
370.474	-32.08
370.685	29.35
370.896	37.55
371.107	58.03
371.317	17.07
371.528	-7.51
371.739	23.21
371.95	4.78
372.16	25.26
372.371	10.92
372.582	-50.52
372.792	37.55
373.003	88.75
373.214	-42.32
373.424	70.31
373.635	-3.41
373.846	-7.51
374.056	-9.56
374.267	21.16
374.477	62.12
374.688	-34.13
374.898	2.73
375.109	-11.61
375.319	23.21
375.53	43.69
375.74	35.5
375.951	51.88
376.161	23.21
376.372	139.94
376.582	-17.75
376.793	15.02
377.003	-48.47
377.214	15.02
377.424	27.31
377.635	64.17
377.845	45.74
378.055	123.56
378.266	-13.65
378.476	64.17
378.686	27.31
378.897	41.64
379.107	17.07
379.317	31.4
379.528	94.89
379.738	-48.47
379.948	27.31
380.158	33.45
380.369	41.64
380.579	51.88
380.789	94.89
380.999	10.92
381.21	80.55
381.42	72.36
381.63	60.07
381.84	94.89
382.05	113.32
382.261	23.21
382.471	39.59
382.681	-7.51
382.891	31.4
383.101	49.83
383.311	-25.94
383.521	51.88
383.731	45.74
383.941	82.6
384.151	-15.7
384.361	23.21
384.571	53.93
384.781	58.03
384.991	58.03
385.201	133.8
385.411	17.07
385.621	-48.47
385.831	31.4
386.041	154.28
386.251	35.5
386.461	90.79
386.671	37.55
386.881	29.35
387.091	33.45
387.301	74.41
387.511	15.02
387.72	23.21
387.93	4.78
388.14	25.26
388.35	70.31
388.56	74.41
388.769	39.59
388.979	12.97
389.189	-3.41
389.399	35.5
389.609	31.4
389.818	35.5
390.028	39.59
390.238	66.22
390.447	-34.13
390.657	43.69
390.867	53.93
391.076	-62.8
391.286	68.27
391.496	-9.56
391.705	66.22
391.915	55.98
392.125	25.26
392.334	49.83
392.544	43.69
392.753	82.6
392.963	6.83
393.172	35.5
393.382	-44.37
393.591	90.79
393.801	31.4
394.01	96.94
394.22	23.21
394.429	43.69
394.639	47.79
394.848	-7.51
395.058	47.79
395.267	88.75
395.477	55.98
395.686	21.16
395.895	139.94
396.105	146.09
396.314	60.07
396.524	41.64
396.733	12.97
396.942	180.9
397.152	37.55
397.361	121.51
397.57	19.11
397.78	64.17
397.989	60.07
398.198	96.94
398.407	86.7
398.617	78.51
398.826	45.74
399.035	41.64
399.244	129.7
399.453	80.55
399.663	58.03
399.872	150.18
400.081	6.83
400.29	129.7
400.499	25.26
400.708	88.75
400.917	41.64
401.127	60.07
401.336	8.87
401.545	144.04
401.754	29.35
401.963	76.46
402.172	19.11
402.381	-27.99
402.59	-23.89
402.799	25.26
403.008	88.75
403.217	33.45
403.426	41.64
403.635	6.83
403.844	78.51
404.053	72.36
404.262	70.31
404.471	144.04
404.68	41.64
404.888	74.41
405.097	37.55
405.306	76.46
405.515	92.84
405.724	31.4
405.933	203.43
406.142	146.09
406.35	47.79
406.559	27.31
406.768	66.22
406.977	146.09
407.185	98.99
407.394	150.18
407.603	0.68
407.812	98.99
408.02	101.03
408.229	123.56
408.438	17.07
408.646	23.21
408.855	131.75
409.064	170.66
409.272	121.51
409.481	154.28
409.69	109.23
409.898	64.17
410.107	107.18
410.315	244.39
410.524	178.86
410.733	164.52
410.941	84.65
411.15	146.09
411.358	244.39
411.567	211.62
411.775	209.58
411.984	301.73
412.192	156.33
412.401	113.32
412.609	254.63
412.818	311.97
413.026	254.63
413.234	207.53
413.443	258.73
413.651	101.03
413.86	182.95
414.068	291.49
414.276	350.89
414.485	242.34
414.693	277.16
414.901	328.36
415.11	383.65
415.318	350.89
415.526	324.26
415.734	383.65
415.943	404.13
416.151	309.93
416.359	385.7
416.567	461.48
416.776	424.61
416.984	465.57
417.192	471.72
417.4	338.6
417.608	467.62
417.817	498.34
418.025	606.88
418.233	520.87
418.441	514.72
418.649	588.45
418.857	613.03
419.065	533.15
419.273	545.44
419.481	631.46
419.689	666.27
419.897	686.75
420.105	768.67
420.313	735.9
420.521	686.75
420.729	846.49
420.937	795.29
421.145	795.29
421.353	885.41
421.561	875.17
421.769	903.84
421.977	950.94
422.185	977.56
422.393	977.56
422.601	991.9
422.809	1022.62
423.017	1032.86
423.224	1155.74
423.432	1176.22
423.64	1071.77
423.848	1165.98
424.056	1133.21
424.263	1368.73
424.471	1286.81
424.679	1317.53
424.887	1350.29
425.094	1520.28
425.302	1481.36
425.51	1464.98
425.718	1540.76
425.925	1618.58
426.133	1688.21
426.341	1677.97
426.548	1804.94
426.756	1739.41
426.964	1819.28
427.171	1901.2
427.379	1958.54
427.586	1979.02
427.794	2040.46
428.001	2138.76
428.209	2278.02
428.417	2228.87
428.624	2448.01
428.832	2460.29
429.039	2271.88
429.247	2333.32
429.454	2587.27
429.662	2828.93
429.869	2488.96
430.076	2865.79
430.284	2652.8
430.491	2861.7
430.699	2882.17
430.906	2857.6
431.114	2931.33
431.321	3086.97
431.528	3099.26
431.736	3340.92
431.943	3629.68
432.15	3422.84
432.358	3580.53
432.565	3586.68
432.772	3644.02
432.979	3799.66
433.187	3777.14
433.394	3803.76
433.601	4115.05
433.808	4209.26
434.016	4233.83
434.223	4250.22
434.43	4549.22
434.637	4567.65
434.844	4762.21
435.052	4874.85
435.259	4964.96
435.466	4739.68
435.673	4764.26
435.88	5106.27
436.087	5384.79
436.294	5390.94
436.501	5309.02
436.708	5341.79
436.915	5540.44
437.122	5855.83
437.329	5827.15
437.537	5841.49
437.743	6044.24
437.95	5890.64
438.157	6423.11
438.364	6677.06
438.571	6470.22
438.778	6775.36
438.985	7215.68
439.192	6844.99
439.399	7039.55
439.606	6994.5
439.813	7287.36
440.02	7901.75
440.227	7664.18
440.433	7486.01
440.64	7971.38
440.847	7719.48
441.054	7877.17
441.261	8499.75
441.467	8372.78
441.674	8333.87
441.881	8968.74
442.088	8911.39
442.294	8878.63
442.501	8911.39
442.708	9355.8
442.914	9546.26
443.121	10058.26
443.328	9724.44
443.534	10467.85
443.741	10160.66
443.948	9937.43
444.154	10672.65
444.361	10609.16
444.568	10615.3
444.774	10777.09
444.981	10914.31
445.187	11145.73
445.394	11622.91
445.6	11545.08
445.807	12704.23
446.013	12175.86
446.22	12304.88
446.426	12716.52
446.633	13066.72
446.839	13359.58
447.046	12653.03
447.252	13482.46
447.459	13468.13
447.665	13441.5
447.871	14162.39
448.078	14623.18
448.284	13984.21
448.491	14340.56
448.697	15043.01
448.903	15227.33
449.11	15464.89
449.316	15047.11
449.522	15630.78
449.728	15651.26
449.935	15788.47
450.141	15622.59
450.347	16454.06
450.553	15659.45
450.76	16017.85
450.966	16316.85
451.172	16236.98
451.378	16644.52
451.584	16517.55
451.791	16759.21
451.997	16882.09
452.203	16994.73
452.409	16900.52
452.615	16826.79
452.821	16282.03
453.027	15776.19
453.233	16974.25
453.44	16325.04
453.646	16316.85
453.852	16720.3
454.058	16941.48
454.264	16343.47
454.47	16675.24
454.676	16294.32
454.882	16832.94
455.088	15489.47
455.294	15696.32
455.5	15989.17
455.705	15798.71
455.911	15493.57
456.117	14940.61
456.323	14877.13
456.529	14152.15
456.735	14741.96
456.941	14160.34
457.147	14293.46
457.352	14158.29
457.558	13674.97
457.764	13492.7
457.97	13384.16
458.176	13105.63
458.381	13031.91
458.587	12425.71
458.793	12411.37
458.999	11700.73
459.204	12693.99
459.41	12229.1
459.616	11442.68
459.821	11354.62
460.027	11360.77
460.233	10969.6
460.438	10539.53
460.644	10856.97
460.85	10385.93
461.055	9994.77
461.261	10172.94
461.466	9263.65
461.672	9013.79
461.878	9482.78
462.083	9085.47
462.289	8747.56
462.494	8739.37
462.7	8395.31
462.905	8231.47
463.111	8266.28
463.316	8520.23
463.522	8419.88
463.727	8280.62
463.932	8299.05
464.138	8272.43
464.343	8172.08
464.549	7985.71
464.754	8411.69
464.959	8280.62
465.165	8256.04
465.37	7903.79
465.575	7557.69
465.781	7981.62
465.986	8026.67
466.191	7686.71
466.397	7508.54
466.602	7266.88
466.807	7352.89
467.012	7424.57
467.218	7428.67
467.423	7346.75
467.628	7498.3
467.833	7604.79
468.038	7526.97
468.244	7103.04
468.449	7416.38
468.654	7195.2
468.859	7199.29
469.064	7092.8
469.269	6847.04
469.474	7039.55
469.679	7107.13
469.885	6906.43
470.09	7010.88
470.295	6992.45
470.5	6697.54
470.705	6808.13
470.91	6605.38
471.115	6589
471.32	6681.16
471.525	6554.18
471.73	6505.03
471.935	6478.41
472.139	6087.25
472.344	6333
472.549	6257.23
472.754	6103.63
472.959	6107.73
473.164	6029.9
473.369	5790.29
473.574	6046.29
473.778	6070.86
473.983	6029.9
474.188	5898.83
474.393	5773.91
474.598	5571.16
474.802	5745.24
475.007	5562.97
475.212	5818.96
475.417	5347.93
475.621	5540.44
475.826	5384.79
476.031	5323.35
476.235	5259.87
476.44	5327.45
476.645	5302.87
476.849	5180
477.054	5341.79
477.259	5175.9
477.463	5087.84
477.668	4930.14
477.872	4905.57
478.077	5118.56
478.282	4801.12
478.486	4876.9
478.691	4686.44
478.895	4774.5
479.1	4696.68
479.304	4801.12
479.509	4526.69
479.713	4631.14
479.918	4723.3
480.122	4616.8
480.326	4508.26
480.531	4543.08
480.735	4393.58
480.94	4526.69
481.144	4588.13
481.348	4588.13
481.553	4430.44
481.757	4278.89
481.961	4430.44
482.166	4440.68
482.37	4477.54
482.574	4291.18
482.778	4360.81
482.983	4512.36
483.187	4293.23
483.391	4469.35
483.595	4356.71
483.8	4256.36
484.004	4530.79
484.208	4282.99
484.412	4358.76
484.616	4362.86
484.821	4405.86
485.025	4332.14
485.229	4196.97
485.433	4332.14
485.637	4129.39
485.841	4366.95
486.045	4242.03
486.249	4291.18
486.453	4412.01
486.657	4383.34
486.861	4336.23
487.065	4342.38
487.269	4328.04
487.473	4303.47
487.677	4373.1
487.881	4491.88
488.085	4311.66
488.289	4479.59
488.493	4254.31
488.697	4424.3
488.901	4520.55
489.105	4442.73
489.309	4422.25
489.512	4528.74
489.716	4424.3
489.92	4522.6
490.124	4584.04
490.328	4358.76
490.531	4348.52
490.735	4463.21
490.939	4555.37
491.143	4483.69
491.346	4500.07
491.55	4665.96
491.754	4604.52
491.958	4655.72
492.161	4618.85
492.365	4696.68
492.569	4495.97
492.772	4569.7
492.976	4575.84
493.18	4700.77
493.383	4737.63
493.587	4801.12
493.79	4858.46
493.994	4885.09
494.197	4768.35
494.401	4926.05
494.605	4760.16
494.808	4917.86
495.012	4854.37
495.215	4960.86
495.419	5030.49
495.622	5249.63
495.825	5091.93
496.029	4938.34
496.232	5278.3
496.436	5335.64
496.639	5323.35
496.843	5235.29
497.046	5421.66
497.249	5622.36
497.453	5497.43
497.656	5519.96
497.859	5560.92
498.063	5636.69
498.266	5642.84
498.469	5685.84
498.673	5694.04
498.876	5808.72
499.079	5743.19
499.282	5874.26
499.485	6093.39
499.689	6044.24
499.892	6031.95
500.095	6187.6
500.298	6427.21
500.501	6117.97
500.705	6548.04
500.908	6357.58
501.111	6390.35
501.314	6605.38
501.517	6699.59
501.72	6584.9
501.923	6761.03
502.126	6773.32
502.329	6908.48
502.532	7070.27
502.735	7170.62
502.938	7330.36
503.141	7418.43
503.344	7354.94
503.547	7498.3
503.75	7518.78
503.953	7553.59
504.156	7627.32
504.359	7592.5
504.562	7678.52
504.765	8055.34
504.968	8127.02
505.17	8194.61
505.373	8213.04
505.576	8249.9
505.779	8415.79
505.982	8280.62
506.185	8536.62
506.387	8585.77
506.59	8673.83
506.793	8813.09
506.996	8813.09
507.198	8966.69
507.401	8929.83
507.604	9183.77
507.807	9220.64
508.009	9273.89
508.212	9501.21
508.415	9476.63
508.617	9734.68
508.82	9605.66
509.022	9624.09
509.225	9818.64
509.428	9964.05
509.63	9982.48
509.833	9974.29
510.035	10467.85
510.238	10281.49
510.44	10275.34
510.643	10529.29
510.845	10617.35
511.048	10674.7
511.25	10787.33
511.453	10936.84
511.655	11414.01
511.858	11291.13
512.06	11377.15
512.262	11401.72
512.465	11409.92
512.667	11629.05
512.87	11733.5
513.072	11950.58
513.274	12116.47
513.477	12229.1
513.679	12182
513.881	11979.25
514.084	12607.98
514.286	12370.41
514.488	12714.47
514.69	12945.89
514.893	13011.43
515.095	12829.16
515.297	12919.27
515.499	13316.58
515.701	13337.06
515.904	13349.34
516.106	13734.36
516.308	13738.46
516.51	13980.12
516.712	14008.79
516.914	13976.02
517.116	14385.62
517.318	14442.96
517.52	14514.64
517.722	14402
517.925	14682.57
518.127	15045.06
518.329	15221.19
518.531	14959.05
518.733	15233.47
518.935	15182.28
519.136	15284.67
519.338	15868.34
519.54	15854.01
519.742	15872.44
519.944	16013.75
520.146	16236.98
520.348	16226.74
520.55	16380.34
520.752	16273.84
520.954	16810.41
521.155	16402.86
521.357	16970.15
521.559	16935.34
521.761	17535.39
521.963	17263.01
522.164	17142.18
522.366	17363.36
522.568	17539.49
522.77	17908.12
522.971	17944.98
523.173	18076.05
523.375	18108.82
523.576	18135.45
523.778	18459.02
523.98	18479.5
524.181	18631.05
524.383	18479.5
524.584	18776.46
524.786	19104.14
524.988	19061.13
525.189	19009.93
525.391	19384.71
525.592	19401.09
525.794	19366.28
525.995	19497.35
526.197	19628.42
526.398	19822.97
526.6	19962.23
526.801	19724.67
527.003	20070.78
527.204	20021.63
527.406	20285.81
527.607	20261.24
527.808	20058.49
528.01	20236.66
528.211	20398.45
528.412	20625.78
528.614	20906.35
528.815	20472.18
529.016	20918.64
529.218	20758.89
529.419	20898.16
529.62	21025.13
529.822	20840.81
530.023	21150.06
530.224	20754.8
530.425	20920.68
530.626	20865.39
530.828	20990.31
531.029	21475.68
531.23	21182.82
531.431	21188.97
531.632	21281.13
531.833	21301.61
532.035	21176.68
532.236	21557.6
532.437	21229.93
532.638	21510.5
532.839	21191.02
533.04	21432.68
533.241	21420.39
533.442	21715.3
533.643	21444.96
533.844	21518.69
534.045	21494.11
534.246	21404
534.447	21393.76
534.648	21510.5
534.849	21621.09
535.05	21469.54
535.251	21594.47
535.451	21686.62
535.652	21840.22
535.853	21651.81
536.054	21887.32
536.255	21641.57
536.456	21434.72
536.657	22104.41
536.857	21905.76
537.058	21580.13
537.259	21666.14
537.46	21600.61
537.66	21604.7
537.861	21598.56
538.062	21748.06
538.263	21784.93
538.463	21803.36
538.664	21641.57
538.865	21807.45
539.065	22215
539.266	21594.47
539.466	21971.29
539.667	21866.85
539.868	21913.95
540.068	21692.77
540.269	21645.66
540.469	21928.28
540.67	21612.9
540.87	21770.59
541.071	21545.31
541.271	21870.94
541.472	21795.17
541.672	21530.98
541.873	21582.18
542.073	21324.13
542.274	22053.21
542.474	21612.9
542.675	21901.66
542.875	21854.56
543.075	21893.47
543.276	21461.35
543.476	21801.31
543.676	21516.64
543.877	21766.49
544.077	21897.56
544.277	21848.41
544.478	21705.06
544.678	21748.06
544.878	21999.96
545.078	21569.89
545.279	21449.06
545.479	21498.21
545.679	21653.86
545.879	21576.03
546.079	21616.99
546.28	21881.18
546.48	21311.85
546.68	21940.57
546.88	21727.58
547.08	21678.43
547.28	21604.7
547.48	21578.08
547.68	21573.99
547.88	21371.24
548.081	21866.85
548.281	21426.53
548.481	21549.41
548.681	21500.26
548.881	21639.52
549.081	21676.38
549.28	21385.57
549.48	21774.69
549.68	21739.87
549.88	21688.67
550.08	21600.61
550.28	21610.85
550.48	21408.1
550.68	21604.7
550.88	21543.27
551.08	21379.43
551.279	21469.54
551.479	21436.77
551.679	21404
551.879	21320.04
552.079	21594.47
552.278	21541.22
552.478	21416.29
552.678	21391.72
552.878	21317.99
553.077	21475.68
553.277	21184.87
553.477	21819.74
553.676	21295.46
553.876	21467.49
554.076	21346.66
554.275	21320.04
554.475	21254.5
554.674	21201.26
554.874	21465.44
555.074	21252.45
555.273	21625.18
555.473	21520.74
555.672	21197.16
555.872	21127.53
556.071	21090.66
556.271	21367.14
556.47	21137.77
556.67	21070.19
556.869	20984.17
557.068	21047.66
557.268	21115.24
557.467	21186.92
557.667	21217.64
557.866	20898.16
558.065	20519.28
558.265	21004.65
558.464	20578.67
558.663	21053.8
558.863	20498.8
559.062	21010.79
559.261	20597.1
559.461	20613.49
559.66	20554.1
559.859	20597.1
560.058	20703.6
560.258	20732.27
560.457	20629.87
560.656	20619.63
560.855	20472.18
561.054	20607.34
561.253	20111.74
561.453	20216.18
561.652	20423.03
561.851	20484.47
562.05	20115.83
562.249	20144.5
562.448	20189.56
562.647	19937.66
562.846	20015.48
563.045	20298.1
563.244	20003.19
563.443	20107.64
563.642	19935.61
563.841	20021.63
564.04	19822.97
564.239	19882.36
564.438	19612.03
564.637	19786.11
564.836	19691.9
565.035	19450.24
565.234	19669.37
565.432	19716.48
565.631	19339.65
565.83	19597.7
566.029	19290.5
566.228	19243.4
566.427	19394.95
566.625	19433.86
566.824	19095.94
567.023	19188.1
567.222	18712.97
567.42	19089.8
567.619	19214.73
567.818	19138.95
568.016	18958.73
568.215	19370.37
568.414	19044.74
568.612	19089.8
568.811	18948.49
569.01	18608.53
569.208	18758.03
569.407	18567.57
569.605	18612.62
569.804	18467.22
570.002	18403.73
570.201	18428.31
570.4	18356.63
570.598	18274.71
570.797	18080.15
570.995	18385.3
571.193	18227.6
571.392	18325.91
571.59	17959.32
571.789	18153.88
571.987	18299.28
572.186	18194.84
572.384	17990.04
572.582	17897.88
572.781	17832.35
572.979	17377.7
573.177	17686.94
573.376	17766.81
573.574	17410.47
573.772	17678.75
573.971	17310.11
574.169	17439.14
574.367	17432.99
574.565	17738.14
574.763	17254.82
574.962	17291.68
575.16	16994.73
575.358	17330.59
575.556	16888.23
575.754	17418.66
575.952	16982.44
576.151	17275.3
576.349	16834.99
576.547	16761.26
576.745	16665
576.943	16875.95
577.141	16744.88
577.339	16759.21
577.537	16683.44
577.735	16894.38
577.933	16583.09
578.131	16562.61
578.329	16490.93
578.527	16212.4
578.725	16466.35
578.923	16236.98
579.121	16177.59
579.319	16257.46
579.516	16433.58
579.714	16153.01
579.912	16263.6
580.11	16046.52
580.308	16038.33
580.506	15888.82
580.704	15950.26
580.901	15925.69
581.099	15837.62
581.297	15665.6
581.495	15591.87
581.692	15761.85
581.89	15587.77
582.088	15892.92
582.285	15501.76
582.483	15708.6
582.681	15829.43
582.878	15182.28
583.076	15464.89
583.274	15522.24
583.471	15405.5
583.669	15491.52
583.866	15247.81
584.064	15536.57
584.262	14961.09
584.459	15303.11
584.657	14948.81
584.854	15360.45
585.052	15006.15
585.249	15038.92
585.447	14860.74
585.644	14604.75
585.841	14891.46
586.039	14850.5
586.236	14762.44
586.434	14832.07
586.631	14492.11
586.828	14639.56
587.026	14590.41
587.223	14827.98
587.42	14465.49
587.618	14680.52
587.815	14399.95
588.012	14121.43
588.21	14328.27
588.407	14594.51
588.604	14322.13
588.801	14211.54
588.999	14277.07
589.196	13996.5
589.393	14238.16
589.59	14236.11
589.787	14270.93
589.984	13873.62
590.182	13871.57
590.379	14012.88
590.576	13767.13
590.773	13918.68
590.97	13732.31
591.167	13834.71
591.364	13607.39
591.561	13552.09
591.758	13498.84
591.955	13808.09
592.152	13435.36
592.349	13435.36
592.546	13480.41
592.743	13578.72
592.94	13279.71
593.137	13312.48
593.334	13273.57
593.531	13302.24
593.727	13550.04
593.924	13095.39
594.121	13058.53
594.318	13099.49
594.515	13060.58
594.712	12999.14
594.908	12923.37
595.105	13128.16
595.302	12818.92
595.499	12904.93
595.696	13011.43
595.892	12812.78
596.089	12640.75
596.286	12653.03
596.482	12646.89
596.679	12825.06
596.876	12521.96
597.072	12583.4
597.269	12302.83
597.466	12521.96
597.662	12589.55
597.859	12362.22
598.055	12503.53
598.252	12276.21
598.448	12112.37
598.645	12255.73
598.841	12151.28
599.038	12311.02
599.234	12261.87
599.431	12057.07
599.627	12116.47
599.824	12163.57
600.02	12052.98
600.217	12081.65
600.413	11960.82
600.609	11854.33
600.806	11794.93
601.002	12065.27
601.198	11770.36
601.395	11653.62
601.591	11911.67
601.787	11452.92
601.984	11704.82
602.18	11766.26
602.376	11497.98
602.572	11741.69
602.769	11729.4
602.965	11534.84
603.161	11618.81
603.357	11385.34
603.553	11299.33
603.75	11448.83
603.946	11393.53
604.142	11266.56
604.338	11336.19
604.534	11411.96
604.73	11182.59
604.926	11328
605.122	11229.7
605.318	11061.76
605.514	11158.02
605.71	10992.13
605.906	11121.15
606.102	10889.73
606.298	10988.03
606.494	10818.05
606.69	10914.31
606.886	10990.08
607.082	10795.53
607.278	10754.57
607.474	10836.49
607.67	10701.32
607.866	10428.94
608.062	10877.44
608.257	10672.65
608.453	10693.13
608.649	10691.08
608.845	10371.6
609.041	10641.93
609.236	10650.12
609.432	10506.76
609.628	10637.83
609.824	10576.39
610.019	10308.11
610.215	10371.6
610.411	10410.51
610.606	10222.09
610.802	10398.22
610.998	10402.32
611.193	10363.4
611.389	10222.09
611.584	10344.97
611.78	10039.83
611.976	10238.48
612.171	10148.37
612.367	10105.36
612.562	10215.95
612.758	10103.31
612.953	9980.43
613.149	10222.09
613.344	10162.7
613.539	10273.29
613.735	10050.07
613.93	10052.11
614.126	9884.18
614.321	9996.82
614.517	10148.37
614.712	9855.51
614.907	9919
615.103	9898.52
615.298	9835.03
615.493	9861.65
615.688	9619.99
615.884	10027.54
616.079	9548.31
616.274	10005.01
616.47	9568.79
616.665	9867.8
616.86	9585.18
617.055	9740.82
617.25	9706.01
617.445	9714.2
617.641	9507.35
617.836	9486.87
618.031	9265.69
618.226	9552.41
618.421	9611.8
618.616	9452.06
618.811	9407
619.006	9402.91
619.201	9183.77
619.396	9265.69
619.591	9144.86
619.786	9333.28
619.981	9110.05
620.176	9036.32
620.371	9345.56
620.566	9177.63
620.761	9040.42
620.956	9177.63
621.151	8995.36
621.346	9048.61
621.541	8757.8
621.735	8884.77
621.93	8747.56
622.125	8903.2
622.32	8542.76
622.515	8688.17
622.709	8657.45
622.904	8702.5
623.099	8589.86
623.294	8473.13
623.488	8323.63
623.683	8432.17
623.878	8276.52
624.072	8448.55
624.267	8194.61
624.462	8192.56
624.656	8288.81
624.851	8190.51
625.046	8053.3
625.24	8116.78
625.435	7983.66
625.629	7950.9
625.824	7981.62
626.018	7916.08
626.213	7680.57
626.407	7914.03
626.602	7803.44
626.796	7754.29
626.991	7676.47
627.185	7682.61
627.38	7625.27
627.574	7569.98
627.768	7471.67
627.963	7567.93
628.157	7287.36
628.352	7477.82
628.546	7369.27
628.74	7402.04
628.935	7234.11
629.129	7168.57
629.323	7242.3
629.517	7211.58
629.712	7074.37
629.906	7242.3
630.1	7062.08
630.294	7184.96
630.489	7137.85
630.683	7053.89
630.877	6791.75
631.071	6879.81
631.265	6959.68
631.459	6844.99
631.653	6642.25
631.848	6754.88
632.042	6683.2
632.236	6711.88
632.43	6533.7
632.624	6654.53
632.818	6605.38
633.012	6543.94
633.206	6476.36
633.4	6560.33
633.594	6554.18
633.788	6408.78
633.982	6437.45
634.176	6484.55
634.369	6330.95
634.563	6216.27
634.757	6238.8
634.951	6257.23
635.145	6103.63
635.339	6134.35
635.533	6050.38
635.726	6091.34
635.92	5966.42
636.114	5964.37
636.308	6017.61
636.501	5988.94
636.695	5909.07
636.889	5882.45
637.083	5833.3
637.276	5866.07
637.47	5800.53
637.664	5657.17
637.857	5665.36
638.051	5698.13
638.244	5509.72
638.438	5724.76
638.632	5784.15
638.825	5466.71
639.019	5503.57
639.212	5462.62
639.406	5562.97
639.599	5562.97
639.793	5409.37
639.986	5323.35
640.18	5261.91
640.373	5499.48
640.567	5413.46
640.76	5186.14
640.954	5249.63
641.147	5073.5
641.34	5079.65
641.534	5204.57
641.727	5151.32
641.92	5130.84
642.114	5134.94
642.307	5091.93
642.5	4934.24
642.694	4954.72
642.887	4958.82
643.08	5012.06
643.273	5026.4
643.467	5040.73
643.66	4921.95
643.853	4874.85
644.046	4868.7
644.239	4891.23
644.432	4880.99
644.626	4844.13
644.819	4737.63
645.012	4668
645.205	4727.39
645.398	4653.67
645.591	4614.76
645.784	4569.7
645.977	4725.35
646.17	4493.93
646.363	4600.42
646.556	4498.02
646.749	4264.55
646.942	4340.33
647.135	4373.1
647.328	4446.82
647.521	4571.75
647.714	4336.23
647.907	4315.75
648.099	4291.18
648.292	4315.75
648.485	4416.1
648.678	4164.2
648.871	4330.09
649.064	4045.42
649.256	4192.87
649.449	4102.76
649.642	4061.8
649.835	4104.81
650.027	4184.68
650.22	4031.09
650.413	4156.01
650.605	4135.53
650.798	3883.63
650.991	3951.21
651.183	3955.31
651.376	3897.97
651.568	3936.88
651.761	3881.58
651.954	3947.12
652.146	3754.61
652.339	3988.08
652.531	3766.9
652.724	3852.91
652.916	3801.71
653.109	3797.62
653.301	3793.52
653.494	3695.22
653.686	3648.12
653.879	3580.53
654.071	3703.41
654.263	3607.16
654.456	3646.07
654.648	3572.34
654.84	3543.67
655.033	3474.04
655.225	3631.73
655.417	3625.59
655.61	3703.41
655.802	3431.03
655.994	3433.08
656.186	3543.67
656.379	3498.61
656.571	3578.48
656.763	3342.97
656.955	3402.36
657.148	3283.58
657.34	3383.93
657.532	3338.87
657.724	3310.2
657.916	3377.78
658.108	3379.83
658.3	3213.95
658.492	3357.3
658.684	3166.84
658.876	3230.33
659.068	3089.02
659.26	3062.4
659.452	3211.9
659.644	3021.44
659.836	3125.88
660.028	3107.45
660.22	3125.88
660.412	3054.2
660.604	3027.58
660.796	3197.56
660.988	3054.2
661.18	3091.07
661.372	2984.57
661.563	2892.41
661.755	2966.14
661.947	2937.47
662.139	2857.6
662.331	2906.75
662.522	2869.89
662.714	2792.06
662.906	2910.85
663.097	2792.06
663.289	2839.17
663.481	2835.07
663.673	2886.27
663.864	2794.11
664.056	2794.11
664.247	2718.34
664.439	2681.47
664.631	2605.7
664.822	2660.99
665.014	2773.63
665.205	2656.9
665.397	2691.71
665.588	2687.62
665.78	2701.95
665.971	2642.56
666.163	2579.08
666.354	2638.47
666.546	2556.55
666.737	2572.93
666.929	2587.27
667.12	2519.68
667.311	2468.49
667.503	2562.69
667.694	2552.45
667.885	2597.51
668.077	2538.12
668.268	2505.35
668.459	2499.2
668.651	2531.97
668.842	2529.92
669.033	2509.44
669.224	2413.19
669.416	2568.84
669.607	2415.24
669.798	2515.59
669.989	2527.88
670.18	2423.43
670.371	2484.87
670.563	2417.29
670.754	2400.9
670.945	2308.74
671.136	2466.44
671.327	2337.41
671.518	2372.23
671.709	2300.55
671.9	2345.61
672.091	2280.07
672.282	2349.7
672.473	2192.01
672.664	2204.3
672.855	2235.02
673.046	2228.87
673.237	2280.07
673.428	2214.54
673.619	2212.49
673.809	2108.04
674	2226.82
674.191	2224.78
674.382	2144.91
674.573	2175.63
674.764	2089.61
674.954	2165.39
675.145	2030.22
675.336	2069.13
675.527	2169.48
675.717	2140.81
675.908	2126.47
676.099	2065.04
676.289	2122.38
676.48	2112.14
676.671	2089.61
676.861	2003.6
677.052	2017.93
677.243	2054.8
677.433	2013.84
677.624	2042.51
677.814	2079.37
678.005	2030.22
678.195	2228.87
678.386	2054.8
678.576	1837.71
678.767	1981.07
678.957	1956.49
679.148	2060.94
679.338	2034.32
679.529	1923.73
679.719	1923.73
679.909	1880.72
680.1	1997.45
680.29	1915.53
680.481	1956.49
680.671	1940.11
680.861	1976.97
681.052	2009.74
681.242	1915.53
681.432	1886.86
681.622	1884.81
681.813	1856.14
682.003	1942.16
682.193	1886.86
682.383	1809.04
682.573	1827.47
682.764	1858.19
682.954	1936.01
683.144	1882.77
683.334	1850
683.524	1710.74
683.714	1839.76
683.904	1948.3
684.094	1841.81
684.284	1866.38
684.474	1860.24
684.664	1800.85
684.854	1862.29
685.044	1802.9
685.234	1790.61
685.424	1847.95
685.614	1850
685.804	1831.57
685.994	1677.97
686.184	1763.98
686.374	1817.23
686.564	1723.02
686.753	1669.78
686.943	1690.26
687.133	1677.97
687.323	1763.98
687.513	1700.5
687.702	1723.02
687.892	1598.1
688.082	1692.3
688.272	1835.66
688.461	1686.16
688.651	1688.21
688.841	1723.02
689.03	1641.11
689.22	1723.02
689.41	1696.4
689.599	1702.54
689.789	1596.05
689.979	1604.24
690.168	1606.29
690.358	1643.15
690.547	1694.35
690.737	1616.53
690.926	1706.64
691.116	1606.29
691.305	1661.59
691.495	1551
691.684	1553.04
691.874	1585.81
692.063	1557.14
692.252	1598.1
692.442	1532.56
692.631	1540.76
692.82	1569.43
693.01	1573.52
693.199	1499.8
693.388	1540.76
693.578	1571.47
693.767	1536.66
693.956	1548.95
694.146	1624.72
694.335	1542.8
694.524	1499.8
694.713	1507.99
694.902	1516.18
695.092	1495.7
695.281	1475.22
695.47	1366.68
695.659	1370.77
695.848	1462.93
696.037	1526.42
696.226	1514.13
696.415	1417.88
696.604	1440.4
696.793	1514.13
696.982	1467.03
697.171	1534.61
697.36	1374.87
697.549	1460.88
697.738	1376.92
697.927	1440.4
698.116	1430.16
698.305	1442.45
698.494	1477.27
698.683	1432.21
698.872	1454.74
699.061	1444.5
699.25	1458.84
699.438	1391.25
699.627	1415.83
699.816	1424.02
700.005	1358.49
700.193	1319.57
700.382	1450.64
700.571	1440.4
700.76	1495.7
700.948	1497.75
701.137	1430.16
701.326	1401.49
701.514	1438.36
701.703	1352.34
701.892	1481.36
702.08	1393.3
702.269	1462.93
702.457	1415.83
702.646	1454.74
702.834	1393.3
703.023	1452.69
703.212	1366.68
703.4	1450.64
703.589	1301.14
703.777	1430.16
703.965	1350.29
704.154	1321.62
704.342	1327.77
704.531	1415.83
704.719	1426.07
704.907	1401.49
705.096	1301.14
705.284	1368.73
705.472	1464.98
705.661	1428.12
705.849	1491.6
706.037	1372.82
706.226	1452.69
706.414	1327.77
706.602	1458.84
706.79	1350.29
706.979	1313.43
707.167	1485.46
707.355	1311.38
707.543	1432.21
707.731	1540.76
707.919	1391.25
708.107	1393.3
708.296	1335.96
708.484	1395.35
708.672	1430.16
708.86	1407.64
709.048	1399.45
709.236	1284.76
709.424	1462.93
709.612	1397.4
709.8	1393.3
709.988	1512.08
710.176	1383.06
710.364	1383.06
710.551	1432.21
710.739	1444.5
710.927	1370.77
711.115	1362.58
711.303	1362.58
711.491	1483.41
711.679	1338.01
711.866	1432.21
712.054	1395.35
712.242	1450.64
712.43	1378.97
712.617	1358.49
712.805	1391.25
712.993	1411.73
713.181	1346.2
713.368	1342.1
713.556	1407.64
713.744	1301.14
713.931	1450.64
714.119	1374.87
714.306	1358.49
714.494	1403.54
714.682	1331.86
714.869	1368.73
715.057	1368.73
715.244	1473.17
715.432	1469.08
715.619	1391.25
715.807	1374.87
715.994	1454.74
716.182	1448.6
716.369	1432.21
716.556	1538.71
716.744	1395.35
716.931	1450.64
717.119	1477.27
717.306	1381.01
717.493	1383.06
717.681	1299.09
717.868	1348.25
718.055	1340.05
718.242	1430.16
718.43	1421.97
718.617	1415.83
718.804	1364.63
718.991	1319.57
719.179	1374.87
719.366	1407.64
719.553	1387.16
719.74	1346.2
719.927	1335.96
720.114	1399.45
720.301	1352.34
720.488	1333.91
720.676	1284.76
720.863	1321.62
721.05	1370.77
721.237	1342.1
721.424	1368.73
721.611	1372.82
721.798	1354.39
721.985	1383.06
722.172	1276.57
722.358	1356.44
722.545	1436.31
722.732	1348.25
722.919	1473.17
723.106	1333.91
723.293	1415.83
723.48	1350.29
723.667	1383.06
723.853	1395.35
724.04	1374.87
724.227	1348.25
724.414	1204.89
724.6	1350.29
724.787	1374.87
724.974	1448.6
725.161	1319.57
725.347	1227.42
725.534	1354.39
725.72	1350.29
725.907	1284.76
726.094	1342.1
726.28	1354.39
726.467	1399.45
726.653	1362.58
726.84	1383.06
727.027	1393.3
727.213	1352.34
727.4	1221.27
727.586	1440.4
727.773	1313.43
727.959	1258.14
728.145	1383.06
728.332	1280.66
728.518	1374.87
728.705	1385.11
728.891	1301.14
729.077	1272.47
729.264	1325.72
729.45	1258.14
729.636	1266.33
729.823	1290.9
730.009	1292.95
730.195	1309.33
730.382	1303.19
730.568	1286.81
730.754	1204.89
730.94	1235.61
731.126	1311.38
731.313	1387.16
731.499	1290.9
731.685	1176.22
731.871	1360.53
732.057	1276.57
732.243	1282.71
732.429	1270.42
732.615	1360.53
732.801	1268.38
732.987	1278.62
733.173	1335.96
733.359	1313.43
733.545	1307.29
733.731	1280.66
733.917	1251.99
734.103	1219.22
734.289	1260.18
734.475	1237.66
734.661	1276.57
734.847	1352.34
735.033	1313.43
735.219	1292.95
735.404	1147.55
735.59	1239.7
735.776	1196.7
735.962	1198.74
736.148	1231.51
736.333	1137.31
736.519	1186.46
736.705	1286.81
736.89	1139.35
737.076	1211.03
737.262	1145.5
737.447	1163.93
737.633	1254.04
737.819	1194.65
738.004	1176.22
738.19	1133.21
738.375	1215.13
738.561	1159.83
738.747	1202.84
738.932	1063.58
739.118	1295
739.303	1190.55
739.489	1208.98
739.674	1141.4
739.859	1129.11
740.045	1147.55
740.23	1176.22
740.416	1067.67
740.601	1194.65
740.786	1049.24
740.972	1170.07
741.157	1059.48
741.342	1073.82
741.528	1079.96
741.713	1178.26
741.898	1065.63
742.084	1090.2
742.269	1082.01
742.454	1049.24
742.639	1077.91
742.824	1094.3
743.01	1223.32
743.195	1016.48
743.38	1057.43
743.565	979.61
743.75	1008.28
743.935	1149.59
744.12	1063.58
744.305	1020.57
744.49	1016.48
744.675	952.99
744.86	1045.15
745.045	1051.29
745.23	991.9
745.415	967.32
745.6	1049.24
745.785	1026.72
745.97	977.56
746.155	977.56
746.34	1000.09
746.525	942.75
746.71	1047.19
746.895	1010.33
747.079	920.22
747.264	1071.77
747.449	940.7
747.634	965.28
747.819	1039
748.003	1028.76
748.188	883.36
748.373	944.8
748.557	991.9
748.742	795.29
748.927	897.69
749.111	957.08
749.296	914.08
749.481	938.65
749.665	887.45
749.85	926.36
750.034	850.59
750.219	901.79
750.404	918.17
750.588	758.43
750.773	787.1
750.957	789.15
751.141	854.69
751.326	981.66
751.51	789.15
751.695	860.83
751.879	836.25
752.064	787.1
752.248	830.11
752.432	932.51
752.617	776.86
752.801	801.44
752.985	766.62
753.17	774.81
753.354	696.99
753.538	764.58
753.722	737.95
753.907	690.85
754.091	744.1
754.275	744.1
754.459	731.81
754.643	746.14
754.828	735.9
755.012	752.29
755.196	688.8
755.38	785.05
755.564	756.38
755.748	838.3
755.932	799.39
756.116	735.9
756.3	699.04
756.484	690.85
756.668	676.51
756.852	647.84
757.036	680.61
757.22	735.9
757.404	621.22
757.588	692.9
757.772	674.46
757.956	639.65
758.14	701.09
758.323	688.8
758.507	623.27
758.691	639.65
758.875	676.51
759.059	633.51
759.242	701.09
759.426	549.54
759.61	608.93
759.794	600.74
759.977	707.23
760.161	766.62
760.345	676.51
760.528	653.98
760.712	641.7
760.895	602.79
761.079	596.64
761.263	559.78
761.446	539.3
761.63	574.11
761.813	641.7
761.997	574.11
762.18	543.39
762.364	580.26
762.547	625.31
762.731	539.3
762.914	492.2
763.098	582.31
763.281	567.97
763.464	619.17
763.648	518.82
763.831	488.1
764.015	512.67
764.198	547.49
764.381	580.26
764.564	555.68
764.748	473.76
764.931	578.21
765.114	522.91
765.297	498.34
765.481	481.96
765.664	555.68
765.847	496.29
766.03	549.54
766.213	574.11
766.397	498.34
766.58	475.81
766.763	563.87
766.946	475.81
767.129	543.39
767.312	473.76
767.495	481.96
767.678	445.09
767.861	467.62
768.044	477.86
768.227	490.15
768.41	424.61
768.593	541.35
768.776	490.15
768.959	473.76
769.142	479.91
769.324	477.86
769.507	469.67
769.69	457.38
769.873	436.9
770.056	420.52
770.239	412.32
770.421	504.48
770.604	408.23
770.787	508.58
770.97	438.95
771.152	443.04
771.335	484
771.518	408.23
771.7	506.53
771.883	504.48
772.066	475.81
772.248	477.86
772.431	451.24
772.613	465.57
772.796	412.32
772.978	490.15
773.161	443.04
773.343	500.39
773.526	447.14
773.708	389.8
773.891	391.84
774.073	416.42
774.256	432.8
774.438	475.81
774.621	363.17
774.803	441
774.985	455.33
775.168	400.04
775.35	402.08
775.532	397.99
775.715	342.69
775.897	461.48
776.079	449.19
776.261	350.89
776.444	391.84
776.626	279.21
776.808	369.32
776.99	352.93
777.173	379.56
777.355	424.61
777.537	320.17
777.719	397.99
777.901	414.37
778.083	359.08
778.265	336.55
778.447	326.31
778.629	283.3
778.811	336.55
778.993	389.8
779.175	352.93
779.357	277.16
779.539	367.27
779.721	459.43
779.903	338.6
780.085	279.21
780.267	334.5
780.449	373.41
780.631	334.5
780.812	322.21
780.994	262.82
781.176	281.25
781.358	293.54
781.54	320.17
781.721	344.74
781.903	336.55
782.085	352.93
782.267	330.41
782.448	260.77
782.63	314.02
782.812	279.21
782.993	285.35
783.175	334.5
783.357	232.1
783.538	309.93
783.72	295.59
783.901	223.91
784.083	381.6
784.264	295.59
784.446	268.97
784.627	297.64
784.809	320.17
784.99	283.3
785.172	187.05
785.353	279.21
785.535	318.12
785.716	244.39
785.897	178.86
786.079	178.86
786.26	316.07
786.441	205.48
786.623	228.01
786.804	260.77
786.985	250.53
787.167	223.91
787.348	174.76
787.529	240.3
787.71	248.49
787.891	303.78
788.073	260.77
788.254	162.47
788.435	207.53
788.616	236.2
788.797	234.15
788.978	156.33
789.159	264.87
789.34	277.16
789.522	275.11
789.703	260.77
789.884	180.9
790.065	203.43
790.246	221.86
790.427	246.44
790.607	236.2
790.788	176.81
790.969	219.82
791.15	215.72
791.331	123.56
791.512	121.51
791.693	180.9
791.874	203.43
792.054	228.01
792.235	154.28
792.416	185
792.597	203.43
792.778	219.82
792.958	221.86
793.139	254.63
793.32	166.57
793.5	225.96
793.681	228.01
793.862	236.2
794.042	141.99
794.223	164.52
794.404	285.35
794.584	158.38
794.765	137.9
794.945	203.43
795.126	172.71
795.306	262.82
795.487	131.75
795.667	244.39
795.848	180.9
796.028	156.33
796.209	131.75
796.389	154.28
796.57	182.95
796.75	123.56
796.93	125.61
797.111	113.32
797.291	135.85
797.471	80.55
797.652	148.14
797.832	127.66
798.012	195.24
798.192	129.7
798.373	58.03
798.553	141.99
798.733	189.1
798.913	172.71
799.093	105.13
799.274	152.23
799.454	207.53
799.634	137.9
799.814	76.46
799.994	152.23
800.174	211.62
800.354	90.79
800.534	111.27
800.714	172.71
800.894	141.99
801.074	105.13
801.254	170.66
801.434	160.42
801.614	62.12
801.794	174.76
801.974	760.48
802.154	146.09
802.334	137.9
802.514	117.42
802.693	47.79
802.873	101.03
803.053	189.1
803.233	150.18
803.413	117.42
803.592	80.55
803.772	117.42
803.952	150.18
804.131	115.37
804.311	162.47
804.491	211.62
804.67	37.55
804.85	90.79
805.03	72.36
805.209	82.6
805.389	72.36
805.568	82.6
805.748	185
805.928	107.18
806.107	139.94
806.287	115.37
806.466	141.99
806.646	53.93
806.825	86.7
807.004	146.09
807.184	162.47
807.363	160.42
807.543	203.43
807.722	29.35
807.901	123.56
808.081	174.76
808.26	43.69
808.439	131.75
808.619	84.65
808.798	21.16
808.977	105.13
809.156	129.7
809.336	101.03
809.515	62.12
809.694	98.99
809.873	121.51
810.052	84.65
810.231	115.37
810.411	33.45
810.59	121.51
810.769	76.46
810.948	219.82
811.127	-34.13
811.306	62.12
811.485	137.9
811.664	66.22
811.843	12.97
812.022	74.41
812.201	115.37
812.38	88.75
812.559	35.5
812.737	98.99
812.916	8.87
813.095	113.32
813.274	146.09
813.453	96.94
813.632	72.36
813.811	117.42
813.989	15.02
814.168	47.79
814.347	113.32
814.526	29.35
814.704	92.84
814.883	111.27
815.062	137.9
815.24	139.94
815.419	21.16
815.598	84.65
815.776	-5.46
815.955	80.55
816.133	23.21
816.312	12.97
816.49	2.73
816.669	105.13
816.847	6.83
817.026	64.17
817.204	101.03
817.383	33.45
817.561	47.79
817.74	146.09
817.918	60.07
818.097	98.99
818.275	88.75
818.453	94.89
818.632	82.6
818.81	6.83
818.988	53.93
819.167	70.31
819.345	21.16
819.523	17.07
819.701	53.93
819.879	82.6
820.058	88.75
820.236	39.59
820.414	103.08
820.592	115.37
820.77	70.31
820.948	31.4
821.127	66.22
821.305	98.99
821.483	64.17
821.661	80.55
821.839	-9.56
822.017	82.6
822.195	35.5
822.373	105.13
822.551	49.83
822.729	76.46
822.907	2.73
823.085	152.23
823.262	8.87
823.44	41.64
823.618	47.79
823.796	58.03
823.974	49.83
824.152	60.07
824.329	27.31
824.507	107.18
824.685	82.6
824.863	80.55
825.04	84.65
825.218	115.37
825.396	64.17
825.574	164.52
825.751	19.11
825.929	68.27
826.107	53.93
826.284	82.6
826.462	8.87
826.639	60.07
826.817	-7.51
826.994	64.17
827.172	55.98
827.349	146.09
827.527	72.36
827.704	88.75
827.882	88.75
828.059	-38.23
828.237	35.5
828.414	68.27
828.591	-50.52
828.769	64.17
828.946	72.36
829.124	51.88
829.301	125.61
829.478	66.22
829.655	80.55
829.833	-32.08
830.01	0.68
830.187	90.79
830.364	19.11
830.542	25.26
830.719	154.28
830.896	107.18
831.073	47.79
831.25	29.35
831.427	68.27
831.604	148.14
831.782	74.41
831.959	27.31
832.136	29.35
832.313	2.73
832.49	10.92
832.667	82.6
832.844	8.87
833.021	113.32
833.198	76.46
833.374	0.68
833.551	6.83
833.728	4.78
833.905	74.41
834.082	-95.57
834.259	33.45
834.436	94.89
834.612	15.02
834.789	43.69
834.966	-34.13
835.143	49.83
835.319	6.83
835.496	125.61
835.673	103.08
835.85	62.12
836.026	113.32
836.203	43.69
836.38	17.07
836.556	21.16
836.733	29.35
836.909	105.13
837.086	-1.37
837.262	15.02
837.439	94.89
837.616	47.79
837.792	41.64
837.968	64.17
838.145	33.45
838.321	47.79
838.498	78.51
838.674	8.87
838.851	-30.04
839.027	80.55
839.203	105.13
839.38	-17.75
839.556	39.59
839.732	92.84
839.909	-11.61
840.085	6.83
840.261	12.97
840.437	86.7
840.614	-23.89
840.79	55.98
840.966	-5.46
841.142	6.83
841.318	55.98
841.494	35.5
841.671	-7.51
841.847	19.11
842.023	-23.89
842.199	-5.46
842.375	127.66
842.551	-5.46
842.727	-77.14
842.903	121.51
843.079	-36.18
843.255	68.27
843.431	47.79
843.607	39.59
843.783	-48.47
843.959	88.75
844.134	-34.13
844.31	15.02
844.486	-17.75
844.662	0.68
844.838	-7.51
845.013	39.59
845.189	-30.04
845.365	84.65
845.541	8.87
845.716	80.55
845.892	80.55
846.068	10.92
846.244	-32.08
846.419	17.07
846.595	-9.56
846.77	39.59
846.946	64.17
847.122	70.31
847.297	29.35
847.473	158.38
847.648	-40.28
847.824	-21.84
847.999	-81.24
848.175	2.73
848.35	39.59
848.526	51.88
848.701	101.03
848.876	74.41
849.052	74.41
849.227	2.73
849.403	49.83
849.578	2.73
849.753	80.55
849.929	88.75
850.104	-7.51
850.279	10.92
850.454	55.98
850.63	66.22
850.805	23.21
850.98	-1.37
851.155	-9.56
851.33	15.02
851.505	35.5
851.681	53.93
851.856	-19.8
852.031	-5.46
852.206	17.07
852.381	-75.09
852.556	21.16
852.731	58.03
852.906	33.45
853.081	60.07
853.256	98.99
853.431	-15.7
853.606	4.78
853.781	31.4
853.956	6.83
854.131	58.03
854.305	17.07
854.48	-42.32
854.655	8.87
854.83	-111.96
855.005	23.21
855.18	6.83
855.354	4.78
855.529	-1.37
855.704	43.69
855.879	-30.04
856.053	-44.37
856.228	2.73
856.403	27.31
856.577	8.87
856.752	49.83
856.926	80.55
857.101	-30.04
857.276	-34.13
857.45	17.07
857.625	146.09
857.799	21.16
857.974	15.02
858.148	-25.94
858.323	62.12
858.497	-13.65
858.672	-9.56
858.846	-9.56
859.02	96.94
859.195	23.21
859.369	-17.75
859.543	-44.37
859.718	62.12
859.892	35.5
860.066	6.83
860.241	-44.37
860.415	-32.08
860.589	23.21
860.763	-21.84
860.938	-9.56
861.112	31.4
861.286	-5.46
861.46	-1.37
861.634	33.45
861.808	82.6
861.982	-19.8
862.157	6.83
862.331	6.83
862.505	62.12
862.679	-34.13
862.853	0.68
863.027	-9.56
863.201	113.32
863.375	6.83
863.549	-15.7
863.722	64.17
863.896	58.03
864.07	4.78
864.244	-50.52
864.418	0.68
864.592	39.59
864.766	6.83
864.939	-9.56
865.113	-17.75
865.287	115.37
865.461	-17.75
865.634	8.87
865.808	-23.89
865.982	25.26
866.156	-9.56
866.329	-46.42
866.503	19.11
866.676	-13.65
866.85	47.79
867.024	31.4
867.197	8.87
867.371	-44.37
867.544	72.36
867.718	25.26
867.891	76.46
868.065	0.68
868.238	49.83
868.412	98.99
868.585	70.31
868.759	-50.52
868.932	62.12
869.105	-3.41
869.279	47.79
869.452	-38.23
869.625	-9.56
869.799	19.11
869.972	-7.51
870.145	12.97
870.319	19.11
870.492	4.78
870.665	-38.23
870.838	51.88
871.011	-66.9
871.185	72.36
871.358	21.16
871.531	-9.56
871.704	-50.52
871.877	66.22
872.05	-17.75
872.223	90.79
872.396	-11.61
872.569	55.98
872.742	-38.23
872.915	-11.61
873.088	17.07
873.261	84.65
873.434	55.98
873.607	15.02
873.78	10.92
873.953	-77.14
874.126	72.36
874.299	23.21
874.471	78.51
874.644	25.26
874.817	-23.89
874.99	-17.75
875.163	-5.46
875.335	-9.56
875.508	47.79
875.681	31.4
875.853	-19.8
876.026	-38.23
876.199	-60.76
876.371	51.88
876.544	-17.75
876.717	31.4
876.889	25.26
877.062	12.97
877.234	-66.9
877.407	-40.28
877.579	39.59
877.752	-42.32
877.924	45.74
878.097	6.83
878.269	70.31
878.442	-1.37
878.614	72.36
878.786	-36.18
878.959	76.46
879.131	2.73
879.303	-56.66
879.476	103.08
879.648	15.02
879.82	-17.75
879.993	-9.56
880.165	-23.89
880.337	-68.95
880.509	-27.99
880.681	-9.56
880.854	53.93
881.026	0.68
881.198	2.73
881.37	-11.61
881.542	23.21
881.714	8.87
881.886	-40.28
882.058	4.78
882.23	6.83
882.402	4.78
882.574	23.21
882.746	123.56
882.918	55.98
883.09	39.59
883.262	-11.61
883.434	-17.75
883.606	-66.9
883.778	39.59
883.95	37.55
884.122	-50.52
884.293	8.87
884.465	25.26
884.637	31.4
884.809	-99.67
884.98	47.79
885.152	-17.75
885.324	27.31
885.496	-15.7
885.667	-40.28
885.839	39.59
886.011	70.31
886.182	-34.13
886.354	51.88
886.525	-13.65
886.697	2.73
886.869	-13.65
887.04	-1.37
887.212	23.21
887.383	64.17
887.555	17.07
887.726	15.02
887.897	-19.8
888.069	-23.89
888.24	-34.13
888.412	-13.65
888.583	-5.46
888.754	-25.94
888.926	-58.71
889.097	27.31
889.268	-19.8
889.44	25.26
889.611	8.87
889.782	-19.8
889.953	-85.33
890.125	23.21
890.296	-42.32
890.467	-50.52
890.638	-1.37
890.809	-13.65
890.98	-21.84
891.151	23.21
891.323	53.93
891.494	-1.37
891.665	41.64
891.836	-60.76
892.007	-60.76
892.178	23.21
892.349	-9.56
892.52	-48.47
892.691	23.21
892.862	-1.37
893.032	-21.84
893.203	-25.94
893.374	-23.89
893.545	15.02
893.716	-46.42
893.887	-27.99
894.057	-13.65
894.228	123.56
894.399	-38.23
894.57	-71
894.74	-66.9
894.911	-13.65
895.082	-54.61
895.253	-25.94
895.423	-9.56
895.594	74.41
895.764	74.41
895.935	15.02
896.106	55.98
896.276	-23.89
896.447	-17.75
896.617	-73.04
896.788	-25.94
896.958	-9.56
897.129	6.83
897.299	-71
897.47	-5.46
897.64	66.22
897.81	31.4
897.981	88.75
898.151	17.07
898.322	-5.46
898.492	27.31
898.662	-19.8
898.832	-62.8
899.003	39.59
899.173	-13.65
899.343	39.59
899.513	33.45
