Data from USB4F104151__92__13-13-13-068.txt Node

Date: Fri Mar 14 13:13:13 EDT 2025
User: louis
Spectrometer: USB4F10415
Trigger mode: 4
Integration Time (sec): 2.000000E-2
Scans to average: 1
Electric dark correction enabled: true
Nonlinearity correction enabled: false
Boxcar width: 0
XAxis mode: Wavelengths
Number of Pixels in Spectrum: 3648
>>>>>Begin Spectral Data<<<<<
178.204	-104.96
178.424	-104.96
178.644	-104.96
178.864	-49.66
179.084	-78.33
179.304	11.78
179.524	42.5
179.744	-2.56
179.964	-20.99
180.184	-14.85
180.404	19.97
180.624	3.58
180.844	5.63
181.064	-80.38
181.283	26.11
181.503	36.35
181.723	-27.14
181.943	-39.42
182.163	95.74
182.383	34.3
182.602	60.93
182.822	-31.23
183.042	28.16
183.262	-14.85
183.482	15.87
183.701	-72.19
183.921	81.41
184.141	22.02
184.361	17.92
184.58	15.87
184.8	13.82
185.02	17.92
185.239	3.58
185.459	22.02
185.679	30.21
185.898	-2.56
186.118	58.88
186.338	89.6
186.557	34.3
186.777	5.63
186.997	17.92
187.216	58.88
187.436	-14.85
187.655	54.78
187.875	69.12
188.095	38.4
188.314	5.63
188.534	34.3
188.753	-2.56
188.973	32.26
189.192	62.98
189.412	1.54
189.631	11.78
189.851	50.69
190.07	93.69
190.29	1.54
190.509	7.68
190.729	3.58
190.948	65.02
191.168	89.6
191.387	-10.75
191.607	-4.61
191.826	46.59
192.045	-6.66
192.265	17.92
192.484	-64
192.704	11.78
192.923	7.68
193.142	-18.94
193.362	-12.8
193.581	46.59
193.8	85.5
194.02	60.93
194.239	17.92
194.458	58.88
194.678	-18.94
194.897	22.02
195.116	62.98
195.335	28.16
195.555	-53.76
195.774	26.11
195.993	3.58
196.212	-29.18
196.432	-31.23
196.651	75.26
196.87	15.87
197.089	79.36
197.308	120.32
197.528	22.02
197.747	22.02
197.966	50.69
198.185	-10.75
198.404	-43.52
198.623	5.63
198.842	34.3
199.062	71.17
199.281	30.21
199.5	-35.33
199.719	-27.14
199.938	30.21
200.157	65.02
200.376	69.12
200.595	42.5
200.814	42.5
201.033	13.82
201.252	26.11
201.471	11.78
201.69	22.02
201.909	52.74
202.128	-29.18
202.347	9.73
202.566	17.92
202.785	11.78
203.004	-41.47
203.223	42.5
203.442	28.16
203.661	3.58
203.879	108.03
204.098	19.97
204.317	-23.04
204.536	42.5
204.755	50.69
204.974	-39.42
205.193	58.88
205.411	44.54
205.63	69.12
205.849	-4.61
206.068	30.21
206.287	-6.66
206.505	17.92
206.724	34.3
206.943	-27.14
207.162	19.97
207.381	75.26
207.599	11.78
207.818	-27.14
208.037	-31.23
208.255	-12.8
208.474	75.26
208.693	-23.04
208.911	-88.57
209.13	34.3
209.349	-14.85
209.567	17.92
209.786	44.54
210.005	11.78
210.223	26.11
210.442	50.69
210.661	69.12
210.879	26.11
211.098	60.93
211.316	-16.9
211.535	42.5
211.753	-31.23
211.972	42.5
212.191	60.93
212.409	34.3
212.628	44.54
212.846	-6.66
213.065	28.16
213.283	34.3
213.502	46.59
213.72	-4.61
213.938	-0.51
214.157	-23.04
214.375	-20.99
214.594	32.26
214.812	19.97
215.031	73.21
215.249	17.92
215.467	-33.28
215.686	38.4
215.904	83.45
216.122	-33.28
216.341	50.69
216.559	50.69
216.778	38.4
216.996	24.06
217.214	-16.9
217.432	48.64
217.651	-6.66
217.869	67.07
218.087	42.5
218.306	-18.94
218.524	36.35
218.742	56.83
218.96	52.74
219.179	3.58
219.397	-14.85
219.615	77.31
219.833	34.3
220.051	-12.8
220.27	38.4
220.488	17.92
220.706	24.06
220.924	3.58
221.142	60.93
221.36	9.73
221.578	17.92
221.796	22.02
222.015	36.35
222.233	22.02
222.451	19.97
222.669	1.54
222.887	19.97
223.105	38.4
223.323	22.02
223.541	62.98
223.759	79.36
223.977	34.3
224.195	28.16
224.413	93.69
224.631	-10.75
224.849	19.97
225.067	36.35
225.285	46.59
225.503	-14.85
225.721	-27.14
225.939	34.3
226.157	-12.8
226.375	105.98
226.592	3.58
226.81	9.73
227.028	69.12
227.246	77.31
227.464	15.87
227.682	15.87
227.9	38.4
228.117	75.26
228.335	46.59
228.553	-6.66
228.771	5.63
228.989	-14.85
229.206	24.06
229.424	-6.66
229.642	-41.47
229.86	38.4
230.077	5.63
230.295	52.74
230.513	-31.23
230.731	67.07
230.948	58.88
231.166	79.36
231.384	62.98
231.601	38.4
231.819	38.4
232.037	-4.61
232.254	91.65
232.472	36.35
232.689	-45.57
232.907	36.35
233.125	71.17
233.342	-25.09
233.56	11.78
233.777	15.87
233.995	75.26
234.213	99.84
234.43	-0.51
234.648	-4.61
234.865	17.92
235.083	19.97
235.3	81.41
235.518	99.84
235.735	1.54
235.953	9.73
236.17	71.17
236.388	40.45
236.605	85.5
236.822	3.58
237.04	83.45
237.257	-35.33
237.475	-10.75
237.692	28.16
237.909	17.92
238.127	9.73
238.344	7.68
238.562	65.02
238.779	-18.94
238.996	48.64
239.214	19.97
239.431	30.21
239.648	26.11
239.865	-4.61
240.083	-23.04
240.3	34.3
240.517	-35.33
240.735	85.5
240.952	75.26
241.169	17.92
241.386	-8.7
241.603	1.54
241.821	-4.61
242.038	48.64
242.255	-31.23
242.472	50.69
242.689	13.82
242.907	134.65
243.124	1.54
243.341	28.16
243.558	42.5
243.775	73.21
243.992	3.58
244.209	5.63
244.426	85.5
244.643	40.45
244.86	40.45
245.078	46.59
245.295	38.4
245.512	60.93
245.729	54.78
245.946	56.83
246.163	28.16
246.38	60.93
246.597	-18.94
246.814	-2.56
247.031	-10.75
247.248	-51.71
247.464	26.11
247.681	34.3
247.898	67.07
248.115	46.59
248.332	-82.43
248.549	159.23
248.766	13.82
248.983	48.64
249.2	103.93
249.417	85.5
249.633	-2.56
249.85	-27.14
250.067	-45.57
250.284	13.82
250.501	1.54
250.717	-12.8
250.934	-45.57
251.151	-33.28
251.368	54.78
251.585	85.5
251.801	17.92
252.018	17.92
252.235	24.06
252.451	-14.85
252.668	36.35
252.885	79.36
253.102	32.26
253.318	40.45
253.535	11.78
253.752	1.54
253.968	46.59
254.185	17.92
254.401	40.45
254.618	97.79
254.835	-18.94
255.051	67.07
255.268	22.02
255.484	13.82
255.701	50.69
255.917	-39.42
256.134	-2.56
256.351	58.88
256.567	-53.76
256.784	9.73
257	26.11
257.217	58.88
257.433	9.73
257.65	30.21
257.866	50.69
258.082	-6.66
258.299	-39.42
258.515	30.21
258.732	-31.23
258.948	-14.85
259.165	95.74
259.381	24.06
259.597	-18.94
259.814	26.11
260.03	-23.04
260.246	73.21
260.463	95.74
260.679	44.54
260.895	-31.23
261.112	91.65
261.328	26.11
261.544	-25.09
261.761	67.07
261.977	-23.04
262.193	-80.38
262.409	97.79
262.626	87.55
262.842	-12.8
263.058	-10.75
263.274	34.3
263.49	67.07
263.707	38.4
263.923	3.58
264.139	-51.71
264.355	9.73
264.571	42.5
264.787	44.54
265.004	48.64
265.22	-12.8
265.436	-20.99
265.652	17.92
265.868	-10.75
266.084	79.36
266.3	46.59
266.516	5.63
266.732	3.58
266.948	-51.71
267.164	108.03
267.38	44.54
267.596	32.26
267.812	62.98
268.028	11.78
268.244	-2.56
268.46	-20.99
268.676	15.87
268.892	56.83
269.108	28.16
269.324	-31.23
269.54	3.58
269.756	126.46
269.972	-2.56
270.188	3.58
270.403	19.97
270.619	-43.52
270.835	42.5
271.051	-6.66
271.267	28.16
271.483	91.65
271.698	19.97
271.914	-14.85
272.13	56.83
272.346	-0.51
272.562	-35.33
272.777	44.54
272.993	34.3
273.209	105.98
273.425	-31.23
273.64	-12.8
273.856	17.92
274.072	67.07
274.287	38.4
274.503	58.88
274.719	-10.75
274.934	22.02
275.15	-37.38
275.366	3.58
275.581	9.73
275.797	65.02
276.012	7.68
276.228	-39.42
276.444	30.21
276.659	15.87
276.875	54.78
277.09	46.59
277.306	7.68
277.521	28.16
277.737	-31.23
277.952	-51.71
278.168	19.97
278.383	15.87
278.599	65.02
278.814	-18.94
279.03	24.06
279.245	95.74
279.461	75.26
279.676	91.65
279.892	1.54
280.107	30.21
280.322	-25.09
280.538	19.97
280.753	-16.9
280.969	48.64
281.184	-8.7
281.399	60.93
281.615	-2.56
281.83	-8.7
282.045	-27.14
282.26	17.92
282.476	11.78
282.691	75.26
282.906	-2.56
283.122	30.21
283.337	50.69
283.552	-43.52
283.767	38.4
283.983	-6.66
284.198	38.4
284.413	11.78
284.628	-6.66
284.843	-27.14
285.058	34.3
285.274	3.58
285.489	-20.99
285.704	99.84
285.919	34.3
286.134	-10.75
286.349	36.35
286.564	24.06
286.779	65.02
286.995	-29.18
287.21	-37.38
287.425	9.73
287.64	91.65
287.855	-33.28
288.07	79.36
288.285	42.5
288.5	87.55
288.715	79.36
288.93	-6.66
289.145	103.93
289.36	19.97
289.575	9.73
289.79	83.45
290.004	-43.52
290.219	71.17
290.434	-16.9
290.649	-72.19
290.864	56.83
291.079	-4.61
291.294	-18.94
291.509	-66.05
291.724	85.5
291.938	93.69
292.153	28.16
292.368	-33.28
292.583	71.17
292.798	-18.94
293.012	-0.51
293.227	52.74
293.442	-35.33
293.657	42.5
293.871	75.26
294.086	34.3
294.301	24.06
294.516	19.97
294.73	46.59
294.945	-31.23
295.16	22.02
295.374	58.88
295.589	-4.61
295.804	-4.61
296.018	42.5
296.233	-0.51
296.447	-0.51
296.662	-64
296.877	69.12
297.091	30.21
297.306	28.16
297.52	-27.14
297.735	11.78
297.949	3.58
298.164	-23.04
298.378	42.5
298.593	48.64
298.807	7.68
299.022	50.69
299.236	28.16
299.451	-12.8
299.665	42.5
299.88	71.17
300.094	87.55
300.309	-4.61
300.523	9.73
300.737	69.12
300.952	87.55
301.166	-55.81
301.381	26.11
301.595	60.93
301.809	3.58
302.024	85.5
302.238	19.97
302.452	1.54
302.667	67.07
302.881	103.93
303.095	56.83
303.309	9.73
303.524	-14.85
303.738	-59.9
303.952	1.54
304.166	38.4
304.381	38.4
304.595	108.03
304.809	22.02
305.023	19.97
305.237	-59.9
305.452	-12.8
305.666	65.02
305.88	81.41
306.094	-4.61
306.308	79.36
306.522	17.92
306.736	36.35
306.95	34.3
307.164	85.5
307.379	26.11
307.593	77.31
307.807	24.06
308.021	19.97
308.235	34.3
308.449	26.11
308.663	1.54
308.877	122.37
309.091	19.97
309.305	60.93
309.519	11.78
309.733	91.65
309.947	17.92
310.161	130.56
310.374	44.54
310.588	19.97
310.802	28.16
311.016	-16.9
311.23	-43.52
311.444	11.78
311.658	17.92
311.872	-6.66
312.085	44.54
312.299	-4.61
312.513	73.21
312.727	11.78
312.941	1.54
313.154	56.83
313.368	44.54
313.582	-16.9
313.796	83.45
314.009	-31.23
314.223	44.54
314.437	-2.56
314.651	30.21
314.864	-0.51
315.078	17.92
315.292	7.68
315.505	40.45
315.719	40.45
315.933	52.74
316.146	-6.66
316.36	32.26
316.573	62.98
316.787	50.69
317.001	69.12
317.214	65.02
317.428	110.08
317.641	9.73
317.855	32.26
318.068	-55.81
318.282	38.4
318.495	7.68
318.709	73.21
318.922	-43.52
319.136	-6.66
319.349	71.17
319.563	91.65
319.776	15.87
319.99	26.11
320.203	52.74
320.417	-6.66
320.63	58.88
320.843	-39.42
321.057	50.69
321.27	-10.75
321.483	15.87
321.697	99.84
321.91	50.69
322.124	30.21
322.337	38.4
322.55	-6.66
322.763	105.98
322.977	50.69
323.19	30.21
323.403	5.63
323.617	99.84
323.83	75.26
324.043	1.54
324.256	79.36
324.469	-45.57
324.683	24.06
324.896	9.73
325.109	42.5
325.322	1.54
325.535	-25.09
325.748	11.78
325.962	13.82
326.175	-14.85
326.388	-45.57
326.601	54.78
326.814	75.26
327.027	15.87
327.24	26.11
327.453	-4.61
327.666	42.5
327.879	17.92
328.092	73.21
328.305	60.93
328.518	-72.19
328.731	-2.56
328.944	67.07
329.157	9.73
329.37	-35.33
329.583	19.97
329.796	101.89
330.009	44.54
330.222	83.45
330.435	75.26
330.648	52.74
330.861	58.88
331.073	17.92
331.286	50.69
331.499	-4.61
331.712	30.21
331.925	48.64
332.138	60.93
332.35	42.5
332.563	13.82
332.776	30.21
332.989	-6.66
333.202	1.54
333.414	-27.14
333.627	7.68
333.84	36.35
334.053	26.11
334.265	-6.66
334.478	22.02
334.691	5.63
334.903	7.68
335.116	-2.56
335.329	-14.85
335.541	15.87
335.754	54.78
335.966	-59.9
336.179	-4.61
336.392	15.87
336.604	-6.66
336.817	85.5
337.029	91.65
337.242	85.5
337.454	-84.48
337.667	89.6
337.88	67.07
338.092	34.3
338.305	-2.56
338.517	-6.66
338.729	52.74
338.942	46.59
339.154	77.31
339.367	-27.14
339.579	-0.51
339.792	-8.7
340.004	-27.14
340.217	-18.94
340.429	24.06
340.641	-12.8
340.854	40.45
341.066	46.59
341.278	56.83
341.491	69.12
341.703	26.11
341.915	-25.09
342.128	22.02
342.34	52.74
342.552	19.97
342.764	17.92
342.977	17.92
343.189	5.63
343.401	-10.75
343.613	-8.7
343.826	26.11
344.038	30.21
344.25	-4.61
344.462	69.12
344.674	95.74
344.886	73.21
345.099	24.06
345.311	-12.8
345.523	26.11
345.735	42.5
345.947	58.88
346.159	99.84
346.371	60.93
346.583	50.69
346.795	67.07
347.007	36.35
347.219	83.45
347.431	22.02
347.643	48.64
347.855	34.3
348.067	46.59
348.279	91.65
348.491	3.58
348.703	5.63
348.915	13.82
349.127	42.5
349.339	40.45
349.551	17.92
349.763	42.5
349.975	93.69
350.187	60.93
350.399	50.69
350.61	60.93
350.822	-33.28
351.034	48.64
351.246	79.36
351.458	99.84
351.669	101.89
351.881	83.45
352.093	-10.75
352.305	34.3
352.517	5.63
352.728	108.03
352.94	91.65
353.152	44.54
353.363	60.93
353.575	75.26
353.787	65.02
353.999	77.31
354.21	7.68
354.422	87.55
354.633	34.3
354.845	34.3
355.057	-20.99
355.268	28.16
355.48	36.35
355.692	-23.04
355.903	-27.14
356.115	-27.14
356.326	-33.28
356.538	62.98
356.749	50.69
356.961	69.12
357.172	13.82
357.384	67.07
357.595	112.13
357.807	-49.66
358.018	38.4
358.23	26.11
358.441	65.02
358.653	75.26
358.864	-51.71
359.075	-6.66
359.287	62.98
359.498	95.74
359.709	36.35
359.921	26.11
360.132	40.45
360.344	26.11
360.555	9.73
360.766	54.78
360.977	17.92
361.189	87.55
361.4	48.64
361.611	67.07
361.823	36.35
362.034	26.11
362.245	60.93
362.456	5.63
362.667	52.74
362.879	-31.23
363.09	50.69
363.301	17.92
363.512	128.51
363.723	56.83
363.935	95.74
364.146	118.27
364.357	-8.7
364.568	77.31
364.779	-18.94
364.99	79.36
365.201	44.54
365.412	17.92
365.623	-10.75
365.834	48.64
366.045	11.78
366.256	67.07
366.467	-18.94
366.678	32.26
366.889	56.83
367.1	-6.66
367.311	85.5
367.522	50.69
367.733	30.21
367.944	65.02
368.155	1.54
368.366	24.06
368.577	77.31
368.788	67.07
368.999	-12.8
369.209	42.5
369.42	87.55
369.631	105.98
369.842	3.58
370.053	22.02
370.264	3.58
370.474	48.64
370.685	54.78
370.896	30.21
371.107	58.88
371.317	71.17
371.528	50.69
371.739	75.26
371.95	34.3
372.16	79.36
372.371	28.16
372.582	15.87
372.792	22.02
373.003	19.97
373.214	28.16
373.424	3.58
373.635	1.54
373.846	103.93
374.056	34.3
374.267	58.88
374.477	34.3
374.688	-2.56
374.898	65.02
375.109	17.92
375.319	32.26
375.53	56.83
375.74	26.11
375.951	-39.42
376.161	-68.09
376.372	-43.52
376.582	69.12
376.793	93.69
377.003	54.78
377.214	19.97
377.424	-18.94
377.635	19.97
377.845	91.65
378.055	28.16
378.266	26.11
378.476	-27.14
378.686	101.89
378.897	116.22
379.107	-2.56
379.317	9.73
379.528	128.51
379.738	44.54
379.948	26.11
380.158	89.6
380.369	19.97
380.579	62.98
380.789	-10.75
380.999	52.74
381.21	110.08
381.42	124.41
381.63	17.92
381.84	50.69
382.05	58.88
382.261	54.78
382.471	56.83
382.681	46.59
382.891	62.98
383.101	30.21
383.311	36.35
383.521	-45.57
383.731	9.73
383.941	-6.66
384.151	3.58
384.361	126.46
384.571	50.69
384.781	26.11
384.991	36.35
385.201	73.21
385.411	19.97
385.621	95.74
385.831	93.69
386.041	67.07
386.251	-18.94
386.461	48.64
386.671	30.21
386.881	34.3
387.091	69.12
387.301	5.63
387.511	19.97
387.72	11.78
387.93	69.12
388.14	-18.94
388.35	134.65
388.56	60.93
388.769	30.21
388.979	44.54
389.189	-4.61
389.399	34.3
389.609	40.45
389.818	54.78
390.028	9.73
390.238	73.21
390.447	77.31
390.657	69.12
390.867	42.5
391.076	36.35
391.286	50.69
391.496	-0.51
391.705	52.74
391.915	-4.61
392.125	114.17
392.334	26.11
392.544	91.65
392.753	83.45
392.963	56.83
393.172	101.89
393.382	38.4
393.591	105.98
393.801	50.69
394.01	128.51
394.22	34.3
394.429	60.93
394.639	26.11
394.848	62.98
395.058	56.83
395.267	26.11
395.477	50.69
395.686	116.22
395.895	134.65
396.105	42.5
396.314	58.88
396.524	-4.61
396.733	36.35
396.942	77.31
397.152	75.26
397.361	26.11
397.57	101.89
397.78	101.89
397.989	91.65
398.198	77.31
398.407	32.26
398.617	5.63
398.826	83.45
399.035	85.5
399.244	103.93
399.453	91.65
399.663	103.93
399.872	97.79
400.081	110.08
400.29	50.69
400.499	103.93
400.708	44.54
400.917	11.78
401.127	85.5
401.336	93.69
401.545	161.28
401.754	101.89
401.963	112.13
402.172	28.16
402.381	34.3
402.59	19.97
402.799	99.84
403.008	85.5
403.217	79.36
403.426	81.41
403.635	15.87
403.844	26.11
404.053	50.69
404.262	132.61
404.471	130.56
404.68	75.26
404.888	67.07
405.097	103.93
405.306	75.26
405.515	105.98
405.724	65.02
405.933	173.57
406.142	134.65
406.35	60.93
406.559	161.28
406.768	146.94
406.977	56.83
407.185	208.38
407.394	77.31
407.603	54.78
407.812	177.66
408.02	126.46
408.229	189.95
408.438	91.65
408.646	79.36
408.855	200.19
409.064	146.94
409.272	194.05
409.481	167.42
409.69	194.05
409.898	146.94
410.107	175.61
410.315	189.95
410.524	204.28
410.733	253.44
410.941	230.91
411.15	253.44
411.358	306.68
411.567	349.69
411.775	290.3
411.984	333.31
412.192	214.52
412.401	304.64
412.609	278.01
412.818	370.17
413.026	321.02
413.234	341.5
413.443	335.35
413.651	300.54
413.86	347.64
414.068	425.47
414.276	445.95
414.485	411.13
414.693	464.38
414.901	517.62
415.11	501.24
415.318	527.86
415.526	433.66
415.734	540.15
415.943	531.96
416.151	583.16
416.359	452.09
416.567	583.16
416.776	577.02
416.984	677.37
417.192	642.55
417.4	632.31
417.608	570.87
417.817	703.99
418.025	820.72
418.233	794.1
418.441	658.93
418.649	855.54
418.857	828.92
419.065	880.11
419.273	802.29
419.481	847.35
419.689	1013.23
419.897	957.94
420.105	1011.18
420.313	1097.2
420.521	1117.68
420.729	1062.38
420.937	1021.42
421.145	1181.17
421.353	1201.65
421.561	1322.48
421.769	1324.52
421.977	1361.39
422.185	1445.35
422.393	1400.3
422.601	1492.46
422.809	1553.9
423.017	1449.45
423.224	1631.72
423.432	1627.62
423.64	1656.29
423.848	1820.13
424.056	1762.79
424.263	1967.59
424.471	1828.32
424.679	2012.64
424.887	2000.35
425.094	2090.46
425.302	2094.56
425.51	2223.58
425.718	2192.86
425.925	2174.43
426.133	2385.37
426.341	2545.11
426.548	2602.46
426.756	2602.46
426.964	2608.6
427.171	2708.95
427.379	2862.55
427.586	2940.37
427.794	2921.94
428.001	3134.93
428.209	3329.49
428.417	3214.8
428.624	3452.36
428.832	3433.93
429.039	3329.49
429.247	3438.03
429.454	3722.7
429.662	4111.81
429.869	3784.13
430.076	4056.51
430.284	3831.24
430.491	4074.95
430.699	4300.22
430.906	4271.55
431.114	4521.4
431.321	4519.36
431.528	4660.66
431.736	4863.41
431.943	5123.51
432.15	5100.98
432.358	5008.82
432.565	5340.59
432.772	5283.25
432.979	5619.11
433.187	5615.02
433.394	5701.03
433.601	5973.41
433.808	6067.62
434.016	6174.11
434.223	6364.57
434.43	6741.4
434.637	6659.48
434.844	7173.52
435.052	7263.63
435.259	7179.67
435.466	7075.22
435.673	7013.78
435.88	7615.88
436.087	8107.4
436.294	7912.84
436.501	7939.46
436.708	8058.25
436.915	8283.52
437.122	8643.96
437.329	8736.12
437.537	8682.88
437.743	9172.34
437.95	8861.05
438.157	9307.51
438.364	9672.04
438.571	9868.65
438.778	9813.35
438.985	10771.8
439.192	10345.83
439.399	10497.38
439.606	10372.45
439.813	10839.39
440.02	11740.49
440.227	11316.56
440.433	11402.58
440.64	11787.6
440.847	11629.9
441.054	11844.94
441.261	12490.05
441.467	12643.65
441.674	13047.1
441.881	13051.19
442.088	13378.87
442.294	13210.93
442.501	13550.9
442.708	13901.1
442.914	14347.56
443.121	14873.89
443.328	14409
443.534	15205.66
443.741	15207.7
443.948	14980.38
444.154	15930.64
444.361	15994.12
444.568	15963.4
444.774	15940.88
444.981	16137.48
445.187	16788.74
445.394	17325.3
445.6	17214.71
445.807	18894.05
446.013	18040.04
446.22	18468.07
446.426	19199.2
446.633	19264.73
446.839	19911.89
447.046	19049.69
447.252	20245.71
447.459	20012.24
447.665	20356.3
447.871	20896.96
448.078	22095.02
448.284	20999.36
448.491	21755.06
448.697	22480.04
448.903	22879.39
449.11	22826.15
449.316	22623.4
449.522	23184.54
449.728	23579.8
449.935	23841.94
450.141	23970.96
450.347	24562.83
450.553	23520.41
450.76	24007.83
450.966	24917.12
451.172	24829.06
451.378	25191.55
451.584	24728.71
451.791	25486.46
451.997	25138.3
452.203	25670.78
452.409	25578.62
452.615	25715.83
452.821	24609.93
453.027	24603.78
453.233	25715.83
453.44	24722.57
453.646	24949.89
453.852	25164.93
454.058	25760.89
454.264	24872.07
454.47	25402.49
454.676	24910.98
454.882	25715.83
455.088	23518.36
455.294	23549.08
455.5	24167.57
455.705	24626.31
455.911	23512.22
456.117	23116.96
456.323	22713.51
456.529	21441.72
456.735	22445.23
456.941	21992.62
457.147	21636.28
457.352	20552.9
457.558	20810.95
457.764	20640.97
457.97	20321.48
458.176	19932.37
458.381	20110.54
458.587	18887.9
458.793	18986.21
458.999	17784.05
459.204	19195.1
459.41	18504.93
459.616	17427.7
459.821	17603.83
460.027	17218.81
460.233	16893.18
460.438	16147.72
460.644	16389.38
460.85	15699.22
461.055	15457.56
461.261	15418.64
461.466	14329.13
461.672	13882.67
461.878	14634.27
462.083	13962.54
462.289	13516.08
462.494	13284.66
462.7	12881.21
462.905	12490.05
463.111	12991.8
463.316	12963.13
463.522	12737.85
463.727	12750.14
463.932	12504.39
464.138	12533.06
464.343	12805.44
464.549	12350.79
464.754	12657.98
464.959	12453.19
465.165	12393.79
465.37	11826.51
465.575	11648.33
465.781	11996.49
465.986	12189
466.191	11840.84
466.397	11285.84
466.602	10861.91
466.807	11251.03
467.012	11128.15
467.218	11345.23
467.423	10960.22
467.628	11087.19
467.833	11668.81
468.038	11236.69
468.244	10831.19
468.449	11304.28
468.654	10995.03
468.859	10798.43
469.064	10857.82
469.269	10333.54
469.474	10487.14
469.679	10685.79
469.885	10489.18
470.09	10675.55
470.295	10448.22
470.5	10257.76
470.705	10282.34
470.91	10200.42
471.115	9839.98
471.32	10116.45
471.525	10052.97
471.73	9889.13
471.935	9649.52
472.139	9354.61
472.344	9518.45
472.549	9549.17
472.754	9485.68
472.959	9121.14
473.164	8938.87
473.369	8967.54
473.574	9295.22
473.778	9289.07
473.983	9121.14
474.188	9063.8
474.393	8584.57
474.598	8549.76
474.802	8619.39
475.007	8512.89
475.212	8451.46
475.417	8265.09
475.621	8269.19
475.826	8189.32
476.031	8152.45
476.235	7863.69
476.44	8226.18
476.645	7734.67
476.849	7826.82
477.054	7751.05
477.259	7480.72
477.463	7763.34
477.668	7611.79
477.872	7572.88
478.077	7476.62
478.282	7310.74
478.486	7261.59
478.691	7167.38
478.895	6981.01
479.1	7177.62
479.304	7161.23
479.509	6876.57
479.713	7007.64
479.918	6927.77
480.122	6870.42
480.326	6989.21
480.531	6808.98
480.735	6792.6
480.94	6718.87
481.144	6919.57
481.348	6606.24
481.553	6700.44
481.757	6538.65
481.961	6806.94
482.166	6917.53
482.37	6710.68
482.574	6720.92
482.778	6569.37
482.983	6718.87
483.187	6858.14
483.391	6483.36
483.595	6534.56
483.8	6677.91
484.004	6540.7
484.208	6731.16
484.412	6657.43
484.616	6540.7
484.821	6708.63
485.025	6501.79
485.229	6780.31
485.433	6620.57
485.637	6557.08
485.841	6591.9
486.045	6565.28
486.249	6565.28
486.453	6610.33
486.657	6485.41
486.861	6591.9
487.065	6616.48
487.269	6639
487.473	6583.71
487.677	6575.52
487.881	6774.17
488.085	6710.68
488.289	6735.26
488.493	6516.12
488.697	6682.01
488.901	6524.32
489.105	6634.91
489.309	6679.96
489.512	6567.32
489.716	6563.23
489.92	6718.87
490.124	6688.15
490.328	6831.51
490.531	6655.39
490.735	6772.12
490.939	6815.13
491.143	6657.43
491.346	6808.98
491.55	6962.58
491.754	6665.63
491.958	6940.05
492.161	6788.5
492.365	7083.41
492.569	6942.1
492.772	7083.41
492.976	7210.39
493.18	7028.12
493.383	7089.56
493.587	7101.84
493.79	7298.45
493.994	7081.36
494.197	7167.38
494.401	7462.29
494.605	7259.54
494.808	7384.46
495.012	7300.5
495.215	7474.57
495.419	7591.31
495.622	7683.47
495.825	7718.28
496.029	7646.6
496.232	7808.39
496.436	7900.55
496.639	8029.57
496.843	7939.46
497.046	8142.21
497.249	8273.28
497.453	8172.93
497.656	8504.7
497.859	8379.78
498.063	8293.76
498.266	8625.53
498.469	8344.96
498.673	8609.15
498.876	8719.74
499.079	8830.33
499.282	8783.23
499.485	9102.71
499.689	9145.72
499.892	9192.82
500.095	9160.05
500.298	9504.11
500.501	9469.3
500.705	9684.33
500.908	9825.64
501.111	9782.63
501.314	10171.75
501.517	10093.93
501.72	10405.22
501.923	10179.94
502.126	10403.17
502.329	10470.75
502.532	10667.36
502.735	10767.71
502.938	10866.01
503.141	10782.04
503.344	11169.11
503.547	11054.42
503.75	11335
503.953	11623.76
504.156	11494.74
504.359	11638.09
504.562	11877.71
504.765	12014.92
504.968	12203.33
505.17	12406.08
505.373	12344.64
505.576	12467.52
505.779	12543.3
505.982	12862.78
506.185	12778.81
506.387	13190.45
506.59	13147.45
506.793	13305.14
506.996	13483.31
507.198	13665.58
507.401	13645.1
507.604	13835.56
507.807	13989.16
508.009	14093.61
508.212	14427.43
508.415	14482.72
508.617	14353.7
508.82	14505.25
509.022	14683.42
509.225	15340.82
509.428	15170.84
509.63	15277.33
509.833	15203.61
510.035	15818
510.238	15891.73
510.44	15944.97
510.643	16094.47
510.845	16563.46
511.048	16182.54
511.25	16534.79
511.453	16411.91
511.655	17446.13
511.858	17040.64
512.06	17224.95
512.262	17343.74
512.465	17468.66
512.667	17876.21
512.87	17827.06
513.072	18007.28
513.274	18320.62
513.477	18427.11
513.679	18646.24
513.881	18697.44
514.084	18785.51
514.286	19152.09
514.488	18951.39
514.69	19832.02
514.893	19627.22
515.095	19838.16
515.297	20133.07
515.499	20268.23
515.701	20350.15
515.904	20333.77
516.106	20810.95
516.308	21204.16
516.51	21392.57
516.712	21214.4
516.914	21689.53
517.116	22037.68
517.318	21869.75
517.52	22035.63
517.722	22205.61
517.925	22443.18
518.127	22676.65
518.329	22965.41
518.531	22799.52
518.733	23162.01
518.935	23544.98
519.136	23540.89
519.338	23868.56
519.54	23981.2
519.742	24405.13
519.944	24190.09
520.146	24781.96
520.348	25021.57
520.55	24878.21
520.752	24925.32
520.954	25783.41
521.155	25291.9
521.357	25773.17
521.559	25779.32
521.761	26301.55
521.963	26211.44
522.164	26520.68
522.366	26764.39
522.568	26741.86
522.77	27147.36
522.971	27444.32
523.173	27225.18
523.375	27360.35
523.576	27458.65
523.778	28052.56
523.98	28257.36
524.181	28417.1
524.383	28388.43
524.584	28900.42
524.786	28535.88
524.988	28492.88
525.189	29109.32
525.391	29226.05
525.592	29170.75
525.794	29537.34
525.995	29408.32
526.197	29656.12
526.398	29750.33
526.6	30116.92
526.801	30086.2
527.003	30159.92
527.204	30071.86
527.406	30555.18
527.607	30268.47
527.808	30665.77
528.01	30688.3
528.211	30522.41
528.412	31202.34
528.614	30952.49
528.815	31329.31
529.016	31468.58
529.218	31306.79
529.419	31360.03
529.62	31290.4
529.822	31708.19
530.023	31853.59
530.224	31683.61
530.425	31996.95
530.626	31566.88
530.828	31656.99
531.029	32273.43
531.23	32017.43
531.431	31855.64
531.632	32082.97
531.833	32044.06
532.035	32457.74
532.236	32109.59
532.437	32429.07
532.638	32209.94
532.839	32316.43
533.04	32332.82
533.241	32216.08
533.442	32775.18
533.643	32531.47
533.844	32463.89
534.045	32728.08
534.246	32330.77
534.447	32670.73
534.648	32621.58
534.849	32887.82
535.05	32502.8
535.251	32850.95
535.451	32539.66
535.652	32783.37
535.853	32439.31
536.054	32615.44
536.255	32492.56
536.456	32412.69
536.657	33090.57
536.857	32345.11
537.058	32664.59
537.259	32723.98
537.46	32818.19
537.66	32601.1
537.861	32717.84
538.062	32959.5
538.263	32797.71
538.463	32769.04
538.664	32402.45
538.865	32613.39
539.065	32871.43
539.266	32414.74
539.466	33076.23
539.667	32347.15
539.868	32914.44
540.068	32674.83
540.269	32779.28
540.469	33053.7
540.67	32637.97
540.87	32666.64
541.071	32551.95
541.271	32467.98
541.472	33006.6
541.672	32592.91
541.873	32486.42
542.073	32101.4
542.274	32828.43
542.474	32640.01
542.675	32603.15
542.875	33072.14
543.075	32678.93
543.276	32255
543.476	32912.39
543.676	32363.54
543.877	32902.15
544.077	32635.92
544.277	32488.46
544.478	32637.97
544.678	32693.26
544.878	32455.7
545.078	32388.11
545.279	32267.28
545.479	32424.98
545.679	32201.75
545.879	32736.27
546.079	32375.83
546.28	32631.82
546.48	32148.5
546.68	32384.02
546.88	32590.86
547.08	32752.65
547.28	32295.96
547.48	32480.27
547.68	32433.17
547.88	32080.92
548.081	32377.87
548.281	32568.34
548.481	32476.18
548.681	32656.4
548.881	32597.01
549.081	32392.21
549.28	32265.24
549.48	32429.07
549.68	32252.95
549.88	32959.5
550.08	32121.88
550.28	32414.74
550.48	32046.1
550.68	32465.94
550.88	32230.42
551.08	32285.72
551.279	32379.92
551.479	32558.1
551.679	32224.28
551.879	31935.51
552.079	32515.09
552.278	32166.93
552.478	32289.81
552.678	32166.93
552.878	32269.33
553.077	32195.6
553.277	31773.72
553.477	32314.39
553.676	32031.77
553.876	32300.05
554.076	31941.66
554.275	31925.27
554.475	31839.26
554.674	31824.92
554.874	31794.2
555.074	32001.05
555.273	31999
555.473	31806.49
555.672	31763.48
555.872	31712.28
556.071	31685.66
556.271	32056.34
556.47	31822.87
556.67	31712.28
556.869	31822.87
557.068	31400.99
557.268	31454.24
557.467	31556.64
557.667	31550.49
557.866	31575.07
558.065	31323.17
558.265	31343.65
558.464	31087.65
558.663	31421.47
558.863	31282.21
559.062	31589.41
559.261	31278.11
559.461	31409.18
559.66	30899.24
559.859	30934.06
560.058	30561.33
560.258	31034.41
560.457	30575.66
560.656	31081.51
560.855	30716.97
561.054	30899.24
561.253	30503.98
561.453	30700.59
561.652	30729.26
561.851	30927.91
562.05	30329.91
562.249	30436.4
562.448	30590
562.647	30585.9
562.846	30452.78
563.045	30151.73
563.244	30051.38
563.443	30422.06
563.642	29928.5
563.841	30317.62
564.04	30082.1
564.239	30153.78
564.438	29858.87
564.637	30170.16
564.836	29844.54
565.035	29658.17
565.234	29719.61
565.432	29221.95
565.631	29256.77
565.83	29537.34
566.029	29393.98
566.228	29330.5
566.427	29074.5
566.625	28986.44
566.824	28574.8
567.023	29127.75
567.222	28613.71
567.42	29062.21
567.619	28871.75
567.818	28935.24
568.016	28582.99
568.215	28712.01
568.414	28445.77
568.612	28750.92
568.811	28226.64
569.01	28431.44
569.208	27628.63
569.407	28154.96
569.605	27778.14
569.804	28216.4
570.002	27890.77
570.201	27731.03
570.4	27948.12
570.598	27257.95
570.797	27663.45
570.995	27528.28
571.193	27317.34
571.392	27626.59
571.59	27284.58
571.789	27159.65
571.987	26961
572.186	27196.51
572.384	27260
572.582	27180.13
572.781	27157.6
572.979	26526.83
573.177	26983.52
573.376	27008.1
573.574	26791.02
573.772	26903.65
573.971	26543.21
574.169	26428.52
574.367	26053.75
574.565	26596.46
574.763	26190.96
574.962	26080.37
575.16	25752.7
575.358	26338.41
575.556	25795.7
575.754	26059.89
575.952	25863.29
576.151	25621.63
576.349	25758.84
576.547	25468.03
576.745	26047.6
576.943	25629.82
577.141	25293.95
577.339	25365.63
577.537	25209.98
577.735	25066.63
577.933	25201.79
578.131	25414.78
578.329	25003.14
578.527	25011.33
578.725	24910.98
578.923	24976.51
579.121	24593.54
579.319	24577.16
579.516	24396.94
579.714	24708.23
579.912	24452.23
580.11	24548.49
580.308	24372.36
580.506	24521.87
580.704	23850.13
580.901	24040.59
581.099	24374.41
581.297	24052.88
581.495	23739.54
581.692	24339.6
581.89	23714.97
582.088	24110.22
582.285	23852.18
582.483	24003.73
582.681	23874.71
582.878	23237.79
583.076	23375
583.274	23354.52
583.471	23024.8
583.669	23426.2
583.866	23319.71
584.064	23299.23
584.262	23004.32
584.459	23368.86
584.657	23018.66
584.854	23032.99
585.052	22521
585.249	22533.29
585.447	23037.09
585.644	22420.65
585.841	22779.04
586.039	22711.46
586.236	22762.66
586.434	22453.42
586.631	22209.71
586.828	22176.94
587.026	22351.02
587.223	22381.74
587.42	22250.67
587.618	21935.28
587.815	22291.63
588.012	21857.46
588.21	21791.92
588.407	21623.99
588.604	21865.65
588.801	21671.09
588.999	21544.12
589.196	21609.65
589.393	21744.82
589.59	21357.75
589.787	21433.53
589.984	21263.55
590.182	21140.67
590.379	21449.91
590.576	20767.94
590.773	21202.11
590.97	21042.37
591.167	21079.23
591.364	20696.26
591.561	20919.49
591.758	20575.43
591.955	20694.21
592.152	20878.53
592.349	20364.49
592.546	20606.15
592.743	20423.88
592.94	20288.71
593.137	20346.06
593.334	20446.41
593.531	20108.49
593.727	20026.57
593.924	20264.14
594.121	19924.18
594.318	19977.42
594.515	19643.6
594.712	19905.74
594.908	19897.55
595.105	19797.2
595.302	19756.24
595.499	19889.36
595.696	19694.8
595.892	19420.38
596.089	19807.44
596.286	19504.34
596.482	19530.97
596.679	19434.71
596.876	19358.94
597.072	19373.27
597.269	19268.83
597.466	18873.57
597.662	18967.77
597.859	19158.24
598.055	19041.5
598.252	18812.13
598.448	18861.28
598.645	18775.27
598.841	18521.32
599.038	18736.35
599.234	18834.66
599.431	18226.41
599.627	18619.62
599.824	18656.48
600.02	18371.82
600.217	18410.73
600.413	18312.42
600.609	18150.64
600.806	18085.1
601.002	18265.32
601.198	17962.22
601.395	17992.94
601.591	18130.16
601.787	17876.21
601.984	17657.07
602.18	17794.29
602.376	17755.38
602.572	17620.21
602.769	17552.63
602.965	17376.5
603.161	17462.52
603.357	17345.78
603.553	17272.06
603.75	17343.74
603.946	17401.08
604.142	17405.17
604.338	17227
604.534	17077.5
604.73	17048.83
604.926	17163.51
605.122	16942.33
605.318	16772.35
605.514	16884.99
605.71	16495.88
605.906	16807.17
606.102	16657.67
606.298	16542.98
606.494	16712.96
606.69	16545.03
606.886	16719.1
607.082	16409.86
607.278	16600.32
607.474	16567.56
607.67	16397.57
607.866	16420.1
608.062	16416.01
608.257	16430.34
608.453	16241.93
608.649	16426.25
608.845	16059.66
609.041	16049.42
609.236	16196.87
609.432	15961.36
609.628	16047.37
609.824	16043.28
610.019	15867.15
610.215	15998.22
610.411	16147.72
610.606	15824.14
610.802	15850.77
610.998	15723.79
611.193	15717.65
611.389	15650.07
611.584	15854.86
611.78	15510.8
611.976	15471.89
612.171	15754.51
612.367	15656.21
612.562	15306.01
612.758	15271.19
612.953	15170.84
613.149	15465.75
613.344	15199.51
613.539	15586.58
613.735	15179.03
613.93	15353.11
614.126	15033.63
614.321	15238.42
614.517	15328.53
614.712	15285.53
614.907	15324.44
615.103	15432.98
615.298	14914.84
615.493	15250.71
615.688	14984.48
615.884	15271.19
616.079	14873.89
616.274	14908.7
616.47	14693.66
616.665	14871.84
616.86	14699.81
617.055	14576.93
617.25	14779.68
617.445	14787.87
617.641	14464.29
617.836	14898.46
618.031	14621.98
618.226	14595.36
618.421	14550.31
618.616	14613.79
618.811	14263.59
619.006	14482.72
619.201	14083.37
619.396	14054.7
619.591	14019.88
619.786	14425.38
619.981	14003.5
620.176	14198.06
620.371	14011.69
620.566	14040.36
620.761	13800.75
620.956	13978.92
621.151	13661.49
621.346	13860.14
621.541	13479.22
621.735	13790.51
621.93	13413.68
622.125	13518.13
622.32	13296.95
622.515	13008.19
622.709	13417.78
622.904	13126.97
623.099	13102.39
623.294	13198.65
623.488	12999.99
623.683	13014.33
623.878	12825.92
624.072	12756.29
624.267	12666.17
624.462	12512.58
624.656	12531.01
624.851	12668.22
625.046	12436.8
625.24	12350.79
625.435	12289.35
625.629	12354.88
625.824	12232.01
626.018	12391.75
626.213	12053.83
626.407	12010.82
626.602	11832.65
626.796	11980.11
626.991	11908.43
627.185	11658.57
627.38	11552.08
627.574	11666.77
627.768	11400.53
627.963	11425.11
628.157	11236.69
628.352	11402.58
628.546	11177.3
628.74	11251.03
628.935	11318.61
629.129	11271.51
629.323	11046.23
629.517	11001.18
629.712	11038.04
629.906	10863.96
630.1	10585.44
630.294	10872.15
630.489	10622.3
630.683	10702.17
630.877	10745.18
631.071	10468.7
631.265	10431.84
631.459	10374.5
631.653	10401.12
631.848	10382.69
632.042	10339.68
632.236	10493.28
632.43	10145.13
632.624	10325.35
632.818	10036.58
633.012	10018.15
633.206	9815.4
633.4	9905.51
633.594	9612.65
633.788	10012.01
633.982	9948.52
634.176	9747.82
634.369	9762.16
634.563	9459.06
634.757	9397.62
634.951	9653.61
635.145	9649.52
635.339	9530.73
635.533	9452.91
635.726	9336.18
635.92	9348.47
636.114	9291.12
636.308	9137.52
636.501	9319.79
636.695	9143.67
636.889	9031.03
637.083	8961.4
637.276	8924.54
637.47	9022.84
637.664	8703.36
637.857	8859
638.051	8740.22
638.244	8613.24
638.438	8713.6
638.632	8527.23
638.825	8793.47
639.019	8643.96
639.212	8441.22
639.406	8496.51
639.599	8283.52
639.793	8529.28
639.986	8256.9
640.18	8283.52
640.373	8201.6
640.567	8181.12
640.76	8148.36
640.954	7861.64
641.147	7982.47
641.34	8058.25
641.534	7933.32
641.727	7892.36
641.92	7941.51
642.114	7896.46
642.307	7800.2
642.5	7961.99
642.694	7677.32
642.887	7722.38
643.08	7585.16
643.273	7630.22
643.467	7470.48
643.66	7595.4
643.853	7413.13
644.046	7341.46
644.239	7292.3
644.432	7421.33
644.626	7243.15
644.819	7183.76
645.012	7261.59
645.205	7265.68
645.398	7175.57
645.591	7148.95
645.784	6880.66
645.977	6845.85
646.17	7251.35
646.363	6933.91
646.556	6882.71
646.749	6948.25
646.942	6841.75
647.135	6780.31
647.328	6786.46
647.521	6917.53
647.714	6684.06
647.907	6743.45
648.099	6661.53
648.292	6817.18
648.485	6518.17
648.678	6469.02
648.871	6565.28
649.064	6407.58
649.256	6544.8
649.449	6520.22
649.642	6413.73
649.835	6354.34
650.027	6313.38
650.22	6303.14
650.413	6239.65
650.605	6239.65
650.798	6004.13
650.991	6208.93
651.183	6202.79
651.376	6112.67
651.568	5936.55
651.761	5928.36
651.954	6010.28
652.146	6016.42
652.339	6061.48
652.531	5891.49
652.724	5664.17
652.916	5705.13
653.109	5883.3
653.301	5705.13
653.494	5766.57
653.686	5666.22
653.879	5787.05
654.071	5690.79
654.263	5574.06
654.456	5445.04
654.648	5744.04
654.84	5524.91
655.033	5584.3
655.225	5471.66
655.417	5547.44
655.61	5449.13
655.802	5361.07
655.994	5293.49
656.186	5383.6
656.379	5483.95
656.571	5260.72
656.763	5129.65
656.955	5240.24
657.148	5318.06
657.34	5242.29
657.532	5170.61
657.724	5166.51
657.916	5246.38
658.108	5164.47
658.3	5049.78
658.492	4967.86
658.684	5080.5
658.876	4953.52
659.068	5023.16
659.26	4918.71
659.452	4990.39
659.644	4863.41
659.836	4951.48
660.028	4965.81
660.22	4791.73
660.412	4971.96
660.604	4791.73
660.796	4830.65
660.988	4736.44
661.18	4646.33
661.372	4736.44
661.563	4701.62
661.755	4558.27
661.947	4613.56
662.139	4554.17
662.331	4484.54
662.522	4392.38
662.714	4431.29
662.906	4445.63
663.097	4441.53
663.289	4521.4
663.481	4433.34
663.673	4459.96
663.864	4388.29
664.056	4371.9
664.247	4343.23
664.439	4144.58
664.631	4230.59
664.822	4230.59
665.014	4281.79
665.205	4210.11
665.397	4255.17
665.588	4076.99
665.78	4130.24
665.971	4173.25
666.163	4218.3
666.354	4093.38
666.546	3978.69
666.737	4095.43
666.929	3974.6
667.12	4203.97
667.311	4007.36
667.503	4076.99
667.694	3966.4
667.885	3960.26
668.077	3968.45
668.268	3958.21
668.459	4019.65
668.651	3843.53
668.842	4081.09
669.033	3900.87
669.224	3851.72
669.416	3990.98
669.607	3679.69
669.798	3759.56
669.989	3786.18
670.18	3728.84
670.371	3812.81
670.563	3728.84
670.754	3595.72
670.945	3741.13
671.136	3655.11
671.327	3677.64
671.518	3630.54
671.709	3677.64
671.9	3757.51
672.091	3601.87
672.282	3648.97
672.473	3632.58
672.664	3552.71
672.855	3605.96
673.046	3573.19
673.237	3591.63
673.428	3552.71
673.619	3524.04
673.809	3530.19
674	3558.86
674.191	3575.24
674.382	3356.11
674.573	3509.71
674.764	3511.75
674.954	3466.7
675.145	3364.3
675.336	3376.59
675.527	3288.53
675.717	3411.4
675.908	3476.94
676.099	3343.82
676.289	3321.29
676.48	3362.25
676.671	3352.01
676.861	3243.47
677.052	3407.31
677.243	3352.01
677.433	3378.64
677.624	3247.57
677.814	3261.9
678.005	3296.72
678.195	3286.48
678.386	3163.6
678.576	3098.06
678.767	3186.13
678.957	3073.49
679.148	3292.62
679.338	3079.63
679.529	3210.7
679.719	3227.09
679.909	3288.53
680.1	3122.64
680.29	3270.09
680.481	3239.37
680.671	3179.98
680.861	3155.41
681.052	3315.15
681.242	3276.24
681.432	3321.29
681.622	3155.41
681.813	3198.42
682.003	3163.6
682.193	3014.1
682.383	3255.76
682.573	3173.84
682.764	3139.02
682.954	3147.22
683.144	3046.87
683.334	2954.71
683.524	3128.78
683.714	3122.64
683.904	3149.26
684.094	3192.27
684.284	3151.31
684.474	3063.25
684.664	2983.38
684.854	3050.96
685.044	3063.25
685.234	2979.28
685.424	2960.85
685.614	2878.93
685.804	2952.66
685.994	2934.23
686.184	3075.54
686.374	3050.96
686.564	3016.15
686.753	2837.97
686.943	2883.03
687.133	2866.64
687.323	2946.52
687.513	2930.13
687.702	2729.43
687.892	2868.69
688.082	2936.28
688.272	2952.66
688.461	2790.87
688.651	2940.37
688.841	2815.45
689.03	2817.49
689.22	2770.39
689.41	2940.37
689.599	2842.07
689.789	2860.5
689.979	2756.05
690.168	2891.22
690.358	2747.86
690.547	2844.12
690.737	2713.05
690.926	2637.27
691.116	2643.42
691.305	2864.6
691.495	2688.47
691.684	2708.95
691.874	2733.53
692.063	2674.14
692.252	2604.5
692.442	2643.42
692.631	2704.85
692.82	2573.78
693.01	2502.11
693.199	2676.18
693.388	2541.02
693.578	2614.74
693.767	2575.83
693.956	2526.68
694.146	2547.16
694.335	2598.36
694.524	2612.7
694.713	2543.07
694.902	2487.77
695.092	2536.92
695.281	2495.96
695.47	2455
695.659	2418.14
695.848	2467.29
696.037	2405.85
696.226	2412
696.415	2385.37
696.604	2520.54
696.793	2393.56
696.982	2436.57
697.171	2479.58
697.36	2463.19
697.549	2407.9
697.738	2381.28
697.927	2383.32
698.116	2407.9
698.305	2332.12
698.494	2436.57
698.683	2299.36
698.872	2483.67
699.061	2358.75
699.25	2373.08
699.438	2239.97
699.627	2254.3
699.816	2461.15
700.005	2407.9
700.193	2381.28
700.382	2446.81
700.571	2334.17
700.76	2360.8
700.948	2348.51
701.137	2364.89
701.326	2282.97
701.514	2393.56
701.703	2457.05
701.892	2330.08
702.08	2432.47
702.269	2360.8
702.457	2371.04
702.646	2244.06
702.834	2389.47
703.023	2348.51
703.212	2381.28
703.4	2348.51
703.589	2332.12
703.777	2262.49
703.965	2293.21
704.154	2360.8
704.342	2223.58
704.531	2371.04
704.719	2280.93
704.907	2356.7
705.096	2412
705.284	2385.37
705.472	2350.56
705.661	2352.6
705.849	2360.8
706.037	2317.79
706.226	2244.06
706.414	2219.49
706.602	2266.59
706.79	2229.73
706.979	2221.53
707.167	2375.13
707.355	2252.25
707.543	2379.23
707.731	2348.51
707.919	2291.17
708.107	2250.21
708.296	2151.9
708.484	2201.05
708.672	2237.92
708.86	2328.03
709.048	2274.78
709.236	2285.02
709.424	2321.88
709.612	2325.98
709.8	2274.78
709.988	2272.73
710.176	2254.3
710.364	2307.55
710.551	2256.35
710.739	2338.27
710.927	2385.37
711.115	2278.88
711.303	2295.26
711.491	2364.89
711.679	2278.88
711.866	2446.81
712.054	2272.73
712.242	2166.24
712.43	2418.14
712.617	2309.6
712.805	2311.64
712.993	2336.22
713.181	2295.26
713.368	2123.23
713.556	2309.6
713.744	2233.82
713.931	2395.61
714.119	2387.42
714.306	2199.01
714.494	2362.84
714.682	2282.97
714.869	2285.02
715.057	2209.25
715.244	2199.01
715.432	2323.93
715.619	2346.46
715.807	2287.07
715.994	2125.28
716.182	2432.47
716.369	2319.84
716.556	2328.03
716.744	2147.81
716.931	2270.69
717.119	2213.34
717.306	2239.97
717.493	2264.54
717.681	2289.12
717.868	2194.91
718.055	2307.55
718.242	2268.64
718.43	2409.95
718.617	2323.93
718.804	2205.15
718.991	2305.5
719.179	2368.99
719.366	2264.54
719.553	2244.06
719.74	2188.77
719.927	2289.12
720.114	2272.73
720.301	2244.06
720.488	2305.5
720.676	2248.16
720.863	2246.11
721.05	2346.46
721.237	2250.21
721.424	2303.45
721.611	2305.5
721.798	2180.57
721.985	2237.92
722.172	2231.77
722.358	2201.05
722.545	2051.55
722.732	2272.73
722.919	2418.14
723.106	2315.74
723.293	2401.76
723.48	2254.3
723.667	2207.2
723.853	2190.81
724.04	2303.45
724.227	2332.12
724.414	2219.49
724.6	2201.05
724.787	2192.86
724.974	2211.29
725.161	2250.21
725.347	2297.31
725.534	2172.38
725.72	2391.52
725.907	2231.77
726.094	2270.69
726.28	2184.67
726.467	2266.59
726.653	2272.73
726.84	2401.76
727.027	2227.68
727.213	2254.3
727.4	2303.45
727.586	2201.05
727.773	2358.75
727.959	2229.73
728.145	2244.06
728.332	2313.69
728.518	2282.97
728.705	2248.16
728.891	2192.86
729.077	2272.73
729.264	2342.36
729.45	2225.63
729.636	2246.11
729.823	2280.93
730.009	2311.64
730.195	2274.78
730.382	2295.26
730.568	2295.26
730.754	2381.28
730.94	2221.53
731.126	2160.1
731.313	2213.34
731.499	2274.78
731.685	2156
731.871	2170.33
732.057	2289.12
732.243	2319.84
732.429	2297.31
732.615	2266.59
732.801	2280.93
732.987	2289.12
733.173	2309.6
733.359	2184.67
733.545	2151.9
733.731	2272.73
733.917	2229.73
734.103	2217.44
734.289	2248.16
734.475	2248.16
734.661	2266.59
734.847	2166.24
735.033	2215.39
735.219	2156
735.404	2334.17
735.59	2184.67
735.776	2156
735.962	2278.88
736.148	2201.05
736.333	2313.69
736.519	2256.35
736.705	2207.2
736.89	2231.77
737.076	2285.02
737.262	2205.15
737.447	2213.34
737.633	2272.73
737.819	2229.73
738.004	2133.47
738.19	2223.58
738.375	2160.1
738.561	2172.38
738.747	2186.72
738.932	2172.38
739.118	2174.43
739.303	2287.07
739.489	2215.39
739.674	2182.62
739.859	2156
740.045	2205.15
740.23	2199.01
740.416	2090.46
740.601	1947.11
740.786	2008.55
740.972	2225.63
741.157	2119.14
741.342	2119.14
741.528	1920.48
741.713	2160.1
741.898	2112.99
742.084	2053.6
742.269	2059.74
742.454	2065.89
742.639	2139.62
742.824	2074.08
743.01	2092.51
743.195	2084.32
743.38	2086.37
743.565	2033.12
743.75	2108.9
743.935	1918.43
744.12	2094.56
744.305	2000.35
744.49	1854.95
744.675	1994.21
744.86	1973.73
745.045	2000.35
745.23	1969.63
745.415	1902.05
745.6	2008.55
745.785	1846.76
745.97	1928.67
746.155	1863.14
746.34	1881.57
746.525	1838.56
746.71	1826.28
746.895	1813.99
747.079	1785.32
747.264	1875.43
747.449	1863.14
747.634	1836.52
747.819	1852.9
748.003	1709.54
748.188	1766.89
748.373	1824.23
748.557	1744.36
748.742	1758.69
748.927	1750.5
749.111	1760.74
749.296	1740.26
749.481	1816.04
749.665	1680.87
749.85	1644.01
750.034	1664.49
750.219	1768.93
750.404	1615.34
750.588	1652.2
750.773	1664.49
750.957	1631.72
751.141	1625.58
751.326	1603.05
751.51	1543.66
751.695	1592.81
751.879	1697.25
752.064	1605.1
752.248	1721.83
752.432	1609.19
752.617	1656.29
752.801	1549.8
752.985	1533.42
753.17	1461.74
753.354	1535.46
753.538	1463.79
753.722	1506.79
753.907	1363.44
754.091	1531.37
754.275	1580.52
754.459	1498.6
754.643	1404.39
754.828	1541.61
755.012	1406.44
755.196	1369.58
755.38	1383.91
755.564	1476.07
755.748	1324.52
755.932	1383.91
756.116	1361.39
756.3	1385.96
756.484	1336.81
756.668	1273.32
756.852	1267.18
757.036	1369.58
757.22	1390.06
757.404	1289.71
757.588	1252.84
757.772	1238.51
757.956	1314.28
758.14	1373.68
758.323	1160.69
758.507	1215.98
758.691	1312.24
758.875	1160.69
759.059	1201.65
759.242	1224.17
759.426	1195.5
759.61	1230.32
759.794	1187.31
759.977	1205.74
760.161	1218.03
760.345	1177.07
760.528	1189.36
760.712	1205.74
760.895	1093.1
761.079	1158.64
761.263	1215.98
761.446	1129.97
761.63	1025.52
761.813	1295.85
761.997	1068.53
762.18	1086.96
762.364	1146.35
762.547	1050.1
762.731	1074.67
762.914	1005.04
763.098	1150.45
763.281	1048.05
763.464	1078.77
763.648	1113.58
763.831	1037.81
764.015	1002.99
764.198	1117.68
764.381	996.85
764.564	957.94
764.748	1060.34
764.931	1129.97
765.114	976.37
765.297	1035.76
765.481	1070.58
765.664	1033.71
765.847	1002.99
766.03	1058.29
766.213	880.11
766.397	978.42
766.58	1031.66
766.763	972.27
766.946	884.21
767.129	1025.52
767.312	947.7
767.495	984.56
767.678	841.2
767.861	906.74
768.044	964.08
768.227	974.32
768.41	970.23
768.593	1021.42
768.776	1023.47
768.959	966.13
769.142	949.75
769.324	927.22
769.507	912.88
769.69	880.11
769.873	867.83
770.056	978.42
770.239	882.16
770.421	908.79
770.604	804.34
770.787	861.68
770.97	910.83
771.152	851.44
771.335	837.11
771.518	863.73
771.7	869.87
771.883	787.96
772.066	833.01
772.248	857.59
772.431	851.44
772.613	806.39
772.796	796.15
772.978	812.53
773.161	826.87
773.343	863.73
773.526	845.3
773.708	816.63
773.891	740.85
774.073	787.96
774.256	747
774.438	794.1
774.621	800.24
774.803	740.85
774.985	736.76
775.168	767.48
775.35	779.76
775.532	779.76
775.715	683.51
775.897	708.09
776.079	794.1
776.261	671.22
776.444	738.8
776.626	708.09
776.808	669.17
776.99	654.84
777.173	568.82
777.355	675.32
777.537	724.47
777.719	605.69
777.901	644.6
778.083	728.56
778.265	656.89
778.447	656.89
778.629	558.58
778.811	605.69
778.993	658.93
779.175	595.45
779.357	607.73
779.539	626.17
779.721	660.98
779.903	665.08
780.085	599.54
780.267	583.16
780.449	585.21
780.631	650.74
780.812	611.83
780.994	523.77
781.176	519.67
781.358	566.78
781.54	509.43
781.721	564.73
781.903	534.01
782.085	529.91
782.267	523.77
782.448	517.62
782.63	527.86
782.812	517.62
782.993	525.82
783.175	558.58
783.357	501.24
783.538	501.24
783.72	466.42
783.901	515.58
784.083	511.48
784.264	505.34
784.446	493.05
784.627	454.14
784.809	513.53
784.99	468.47
785.172	431.61
785.353	523.77
785.535	437.75
785.716	472.57
785.897	452.09
786.079	501.24
786.26	493.05
786.441	480.76
786.623	349.69
786.804	484.86
786.985	509.43
787.167	527.86
787.348	316.92
787.529	372.22
787.71	456.19
787.891	443.9
788.073	431.61
788.254	464.38
788.435	472.57
788.616	460.28
788.797	292.35
788.978	413.18
789.159	474.62
789.34	411.13
789.522	402.94
789.703	300.54
789.884	423.42
790.065	370.17
790.246	378.36
790.427	368.12
790.607	443.9
790.788	423.42
790.969	370.17
791.15	339.45
791.331	341.5
791.512	439.8
791.693	282.11
791.874	359.93
792.054	370.17
792.235	427.51
792.416	316.92
792.597	278.01
792.778	341.5
792.958	255.48
793.139	327.16
793.32	382.46
793.5	329.21
793.681	398.84
793.862	292.35
794.042	329.21
794.223	310.78
794.404	271.87
794.584	296.44
794.765	349.69
794.945	331.26
795.126	306.68
795.306	300.54
795.487	263.68
795.667	247.29
795.848	386.55
796.028	273.92
796.209	402.94
796.389	302.59
796.57	239.1
796.75	280.06
796.93	337.4
797.111	245.24
797.291	306.68
797.471	308.73
797.652	226.81
797.832	273.92
798.012	306.68
798.192	208.38
798.373	241.15
798.553	263.68
798.733	331.26
798.913	265.72
799.093	251.39
799.274	288.25
799.454	327.16
799.634	284.16
799.814	228.86
799.994	257.53
800.174	298.49
800.354	210.43
800.534	241.15
800.714	212.48
800.894	202.24
801.074	247.29
801.254	259.58
801.434	306.68
801.614	230.91
801.794	247.29
801.974	732.66
802.154	253.44
802.334	245.24
802.514	218.62
802.693	185.85
802.873	185.85
803.053	253.44
803.233	177.66
803.413	239.1
803.592	206.33
803.772	181.76
803.952	247.29
804.131	189.95
804.311	241.15
804.491	177.66
804.67	171.52
804.85	200.19
805.03	288.25
805.209	275.96
805.389	185.85
805.568	290.3
805.748	136.7
805.928	187.9
806.107	263.68
806.287	192
806.466	210.43
806.646	239.1
806.825	224.76
807.004	251.39
807.184	273.92
807.363	196.09
807.543	216.57
807.722	153.09
807.901	265.72
808.081	230.91
808.26	142.85
808.439	165.37
808.619	169.47
808.798	153.09
808.977	239.1
809.156	245.24
809.336	224.76
809.515	206.33
809.694	122.37
809.873	179.71
810.052	177.66
810.231	235
810.411	224.76
810.59	196.09
810.769	91.65
810.948	189.95
811.127	132.61
811.306	132.61
811.485	128.51
811.664	224.76
811.843	89.6
812.022	175.61
812.201	103.93
812.38	196.09
812.559	177.66
812.737	247.29
812.916	124.41
813.095	134.65
813.274	13.82
813.453	148.99
813.632	218.62
813.811	153.09
813.989	206.33
814.168	134.65
814.347	173.57
814.526	210.43
814.704	144.89
814.883	118.27
815.062	151.04
815.24	218.62
815.419	181.76
815.598	67.07
815.776	142.85
815.955	179.71
816.133	73.21
816.312	140.8
816.49	118.27
816.669	132.61
816.847	179.71
817.026	132.61
817.204	58.88
817.383	91.65
817.561	148.99
817.74	89.6
817.918	67.07
818.097	134.65
818.275	124.41
818.453	130.56
818.632	159.23
818.81	103.93
818.988	183.81
819.167	155.13
819.345	62.98
819.523	91.65
819.701	97.79
819.879	85.5
820.058	161.28
820.236	134.65
820.414	134.65
820.592	181.76
820.77	50.69
820.948	112.13
821.127	85.5
821.305	214.52
821.483	126.46
821.661	169.47
821.839	112.13
822.017	97.79
822.195	81.41
822.373	175.61
822.551	126.46
822.729	91.65
822.907	153.09
823.085	112.13
823.262	42.5
823.44	144.89
823.618	144.89
823.796	91.65
823.974	91.65
824.152	108.03
824.329	13.82
824.507	77.31
824.685	128.51
824.863	101.89
825.04	52.74
825.218	95.74
825.396	99.84
825.574	110.08
825.751	62.98
825.929	58.88
826.107	89.6
826.284	54.78
826.462	99.84
826.639	101.89
826.817	101.89
826.994	81.41
827.172	32.26
827.349	103.93
827.527	95.74
827.704	54.78
827.882	95.74
828.059	112.13
828.237	134.65
828.414	46.59
828.591	67.07
828.769	118.27
828.946	87.55
829.124	116.22
829.301	97.79
829.478	132.61
829.655	52.74
829.833	81.41
830.01	-4.61
830.187	79.36
830.364	71.17
830.542	93.69
830.719	48.64
830.896	103.93
831.073	60.93
831.25	130.56
831.427	114.17
831.604	-20.99
831.782	62.98
831.959	112.13
832.136	75.26
832.313	91.65
832.49	15.87
832.667	124.41
832.844	48.64
833.021	118.27
833.198	58.88
833.374	77.31
833.551	65.02
833.728	42.5
833.905	75.26
834.082	138.75
834.259	56.83
834.436	95.74
834.612	1.54
834.789	50.69
834.966	34.3
835.143	99.84
835.319	69.12
835.496	175.61
835.673	116.22
835.85	48.64
836.026	11.78
836.203	95.74
836.38	-0.51
836.556	83.45
836.733	95.74
836.909	50.69
837.086	24.06
837.262	17.92
837.439	19.97
837.616	36.35
837.792	50.69
837.968	103.93
838.145	48.64
838.321	-20.99
838.498	-12.8
838.674	34.3
838.851	38.4
839.027	52.74
839.203	62.98
839.38	79.36
839.556	30.21
839.732	58.88
839.909	58.88
840.085	11.78
840.261	38.4
840.437	40.45
840.614	34.3
840.79	42.5
840.966	36.35
841.142	26.11
841.318	-64
841.494	56.83
841.671	136.7
841.847	38.4
842.023	34.3
842.199	81.41
842.375	81.41
842.551	26.11
842.727	3.58
842.903	91.65
843.079	3.58
843.255	26.11
843.431	19.97
843.607	36.35
843.783	22.02
843.959	87.55
844.134	32.26
844.31	54.78
844.486	46.59
844.662	30.21
844.838	112.13
845.013	83.45
845.189	46.59
845.365	17.92
845.541	22.02
845.716	38.4
845.892	44.54
846.068	44.54
846.244	36.35
846.419	91.65
846.595	52.74
846.77	-14.85
846.946	79.36
847.122	91.65
847.297	-59.9
847.473	81.41
847.648	3.58
847.824	-29.18
847.999	-4.61
848.175	15.87
848.35	73.21
848.526	50.69
848.701	19.97
848.876	58.88
849.052	34.3
849.227	3.58
849.403	73.21
849.578	22.02
849.753	-2.56
849.929	69.12
850.104	46.59
850.279	44.54
850.454	62.98
850.63	40.45
850.805	67.07
850.98	83.45
851.155	62.98
851.33	58.88
851.505	-33.28
851.681	79.36
851.856	5.63
852.031	58.88
852.206	22.02
852.381	-2.56
852.556	-29.18
852.731	56.83
852.906	5.63
853.081	99.84
853.256	13.82
853.431	26.11
853.606	38.4
853.781	48.64
853.956	-55.81
854.131	9.73
854.305	19.97
854.48	26.11
854.655	17.92
854.83	24.06
855.005	9.73
855.18	7.68
855.354	30.21
855.529	-45.57
855.704	62.98
855.879	101.89
856.053	26.11
856.228	1.54
856.403	-37.38
856.577	142.85
856.752	17.92
856.926	48.64
857.101	-27.14
857.276	46.59
857.45	75.26
857.625	30.21
857.799	54.78
857.974	13.82
858.148	-45.57
858.323	11.78
858.497	-37.38
858.672	42.5
858.846	-74.24
859.02	-6.66
859.195	83.45
859.369	38.4
859.543	58.88
859.718	15.87
859.892	62.98
860.066	-8.7
860.241	-43.52
860.415	-31.23
860.589	-14.85
860.763	79.36
860.938	52.74
861.112	71.17
861.286	13.82
861.46	-74.24
861.634	34.3
861.808	30.21
861.982	36.35
862.157	26.11
862.331	73.21
862.505	-35.33
862.679	-29.18
862.853	-53.76
863.027	26.11
863.201	62.98
863.375	-64
863.549	22.02
863.722	81.41
863.896	75.26
864.07	-25.09
864.244	-31.23
864.418	-4.61
864.592	77.31
864.766	65.02
864.939	-35.33
865.113	52.74
865.287	-18.94
865.461	22.02
865.634	7.68
865.808	22.02
865.982	-31.23
866.156	108.03
866.329	-80.38
866.503	-37.38
866.676	1.54
866.85	-16.9
867.024	1.54
867.197	-41.47
867.371	46.59
867.544	36.35
867.718	11.78
867.891	26.11
868.065	7.68
868.238	15.87
868.412	99.84
868.585	22.02
868.759	-37.38
868.932	-12.8
869.105	-29.18
869.279	50.69
869.452	-35.33
869.625	44.54
869.799	30.21
869.972	17.92
870.145	-18.94
870.319	58.88
870.492	13.82
870.665	26.11
870.838	-57.86
871.011	-10.75
871.185	-2.56
871.358	-37.38
871.531	28.16
871.704	-33.28
871.877	13.82
872.05	-6.66
872.223	-59.9
872.396	73.21
872.569	-35.33
872.742	-80.38
872.915	1.54
873.088	38.4
873.261	-14.85
873.434	-6.66
873.607	11.78
873.78	1.54
873.953	-31.23
874.126	40.45
874.299	24.06
874.471	-57.86
874.644	-45.57
874.817	50.69
874.99	3.58
875.163	26.11
875.335	-29.18
875.508	-27.14
875.681	1.54
875.853	1.54
876.026	11.78
876.199	-20.99
876.371	5.63
876.544	-41.47
876.717	99.84
876.889	-45.57
877.062	-4.61
877.234	-47.62
877.407	30.21
877.579	-35.33
877.752	-10.75
877.924	54.78
878.097	73.21
878.269	-12.8
878.442	42.5
878.614	-59.9
878.786	36.35
878.959	44.54
879.131	-31.23
879.303	22.02
879.476	32.26
879.648	32.26
879.82	3.58
879.993	-4.61
880.165	24.06
880.337	-55.81
880.509	3.58
880.681	-45.57
880.854	-55.81
881.026	54.78
881.198	73.21
881.37	40.45
881.542	42.5
881.714	-4.61
881.886	40.45
882.058	-14.85
882.23	-16.9
882.402	42.5
882.574	122.37
882.746	26.11
882.918	9.73
883.09	19.97
883.262	1.54
883.434	-39.42
883.606	-90.62
883.778	5.63
883.95	71.17
884.122	48.64
884.293	-25.09
884.465	-45.57
884.637	15.87
884.809	42.5
884.98	50.69
885.152	87.55
885.324	-27.14
885.496	-8.7
885.667	-31.23
885.839	36.35
886.011	75.26
886.182	40.45
886.354	26.11
886.525	-25.09
886.697	42.5
886.869	-39.42
887.04	-14.85
887.212	11.78
887.383	-16.9
887.555	11.78
887.726	-4.61
887.897	-41.47
888.069	-10.75
888.24	-12.8
888.412	-25.09
888.583	-10.75
888.754	26.11
888.926	15.87
889.097	9.73
889.268	1.54
889.44	69.12
889.611	19.97
889.782	-41.47
889.953	19.97
890.125	36.35
890.296	-14.85
890.467	1.54
890.638	-31.23
890.809	-88.57
890.98	11.78
891.151	-27.14
891.323	-12.8
891.494	50.69
891.665	-8.7
891.836	-20.99
892.007	26.11
892.178	7.68
892.349	116.22
892.52	42.5
892.691	71.17
892.862	-39.42
893.032	40.45
893.203	17.92
893.374	-14.85
893.545	-4.61
893.716	22.02
893.887	1.54
894.057	-8.7
894.228	17.92
894.399	-80.38
894.57	36.35
894.74	-39.42
894.911	-6.66
895.082	-25.09
895.253	44.54
895.423	-2.56
895.594	11.78
895.764	50.69
895.935	-4.61
896.106	28.16
896.276	1.54
896.447	-41.47
896.617	-6.66
896.788	-14.85
896.958	93.69
897.129	26.11
897.299	-72.19
897.47	93.69
897.64	30.21
897.81	3.58
897.981	-53.76
898.151	42.5
898.322	-53.76
898.492	-84.48
898.662	-18.94
898.832	19.97
899.003	-6.66
899.173	-43.52
899.343	-14.85
899.513	52.74
