Data from USB4F104151__11__13-10-25-447.txt Node

Date: Fri Mar 14 13:10:25 EDT 2025
User: louis
Spectrometer: USB4F10415
Trigger mode: 4
Integration Time (sec): 2.000000E-2
Scans to average: 1
Electric dark correction enabled: true
Nonlinearity correction enabled: false
Boxcar width: 0
XAxis mode: Wavelengths
Number of Pixels in Spectrum: 3648
>>>>>Begin Spectral Data<<<<<
178.204	-29.52
178.424	-29.52
178.644	-29.52
178.864	-142.16
179.084	-105.3
179.304	15.53
179.524	-33.62
179.744	-17.24
179.964	42.15
180.184	-9.05
180.404	27.82
180.624	64.68
180.844	-15.19
181.064	-7
181.283	-60.24
181.503	-13.14
181.723	5.29
181.943	-68.44
182.163	52.39
182.383	-2.9
182.602	70.83
182.822	23.72
183.042	1.19
183.262	64.68
183.482	25.77
183.701	93.35
183.921	76.97
184.141	-13.14
184.361	44.2
184.58	23.72
184.8	76.97
185.02	29.87
185.239	33.96
185.459	11.43
185.679	74.92
185.898	-33.62
186.118	29.87
186.338	-4.95
186.557	21.67
186.777	17.58
186.997	58.54
187.216	7.34
187.436	-4.95
187.655	122.02
187.875	21.67
188.095	-4.95
188.314	11.43
188.534	79.02
188.753	19.63
188.973	-11.09
189.192	13.48
189.412	119.98
189.631	70.83
189.851	46.25
190.07	54.44
190.29	36.01
190.509	74.92
190.729	-11.09
190.948	85.16
191.168	64.68
191.387	76.97
191.607	76.97
191.826	91.31
192.045	48.3
192.265	101.55
192.484	46.25
192.704	85.16
192.923	5.29
193.142	60.59
193.362	126.12
193.581	68.78
193.8	-13.14
194.02	19.63
194.239	19.63
194.458	72.87
194.678	58.54
194.897	36.01
195.116	52.39
195.335	5.29
195.555	56.49
195.774	87.21
195.993	76.97
196.212	93.35
196.432	11.43
196.651	64.68
196.87	5.29
197.089	38.06
197.308	21.67
197.528	93.35
197.747	36.01
197.966	29.87
198.185	44.2
198.404	72.87
198.623	-31.57
198.842	72.87
199.062	66.73
199.281	7.34
199.5	-37.72
199.719	29.87
199.938	85.16
200.157	40.11
200.376	54.44
200.595	38.06
200.814	54.44
201.033	36.01
201.252	81.07
201.471	68.78
201.69	9.39
201.909	85.16
202.128	101.55
202.347	29.87
202.566	44.2
202.785	-11.09
203.004	7.34
203.223	150.7
203.442	3.24
203.661	19.63
203.879	50.35
204.098	91.31
204.317	-13.14
204.536	-7
204.755	40.11
204.974	81.07
205.193	79.02
205.411	19.63
205.63	101.55
205.849	-29.52
206.068	29.87
206.287	25.77
206.505	101.55
206.724	50.35
206.943	44.2
207.162	44.2
207.381	72.87
207.599	27.82
207.818	25.77
208.037	19.63
208.255	3.24
208.474	85.16
208.693	103.59
208.911	42.15
209.13	40.11
209.349	66.73
209.567	-31.57
209.786	11.43
210.005	83.11
210.223	31.91
210.442	52.39
210.661	48.3
210.879	-9.05
211.098	79.02
211.316	93.35
211.535	27.82
211.753	11.43
211.972	29.87
212.191	48.3
212.409	62.63
212.628	52.39
212.846	46.25
213.065	89.26
213.283	50.35
213.502	44.2
213.72	40.11
213.938	103.59
214.157	68.78
214.375	64.68
214.594	68.78
214.812	50.35
215.031	-0.85
215.249	23.72
215.467	9.39
215.686	81.07
215.904	76.97
216.122	81.07
216.341	-9.05
216.559	19.63
216.778	27.82
216.996	87.21
217.214	31.91
217.432	29.87
217.651	31.91
217.869	46.25
218.087	46.25
218.306	27.82
218.524	124.07
218.742	19.63
218.96	54.44
219.179	46.25
219.397	103.59
219.615	68.78
219.833	109.74
220.051	46.25
220.27	42.15
220.488	-29.52
220.706	52.39
220.924	36.01
221.142	60.59
221.36	25.77
221.578	62.63
221.796	68.78
222.015	21.67
222.233	3.24
222.451	66.73
222.669	-35.67
222.887	38.06
223.105	38.06
223.323	1.19
223.541	3.24
223.759	119.98
223.977	52.39
224.195	93.35
224.413	89.26
224.631	87.21
224.849	23.72
225.067	64.68
225.285	-50
225.503	-21.33
225.721	-52.05
225.939	68.78
226.157	42.15
226.375	158.89
226.592	56.49
226.81	1.19
227.028	62.63
227.246	27.82
227.464	17.58
227.682	74.92
227.9	81.07
228.117	15.53
228.335	79.02
228.553	-43.86
228.771	29.87
228.989	36.01
229.206	56.49
229.424	1.19
229.642	-9.05
229.86	70.83
230.077	66.73
230.295	-4.95
230.513	74.92
230.731	42.15
230.948	3.24
231.166	130.22
231.384	-7
231.601	50.35
231.819	38.06
232.037	36.01
232.254	-2.9
232.472	15.53
232.689	85.16
232.907	58.54
233.125	68.78
233.342	-7
233.56	52.39
233.777	46.25
233.995	38.06
234.213	36.01
234.43	36.01
234.648	-4.95
234.865	-29.52
235.083	31.91
235.3	-19.29
235.518	44.2
235.735	44.2
235.953	31.91
236.17	54.44
236.388	42.15
236.605	5.29
236.822	109.74
237.04	-19.29
237.257	105.64
237.475	27.82
237.692	5.29
237.909	95.4
238.127	-11.09
238.344	36.01
238.562	60.59
238.779	-4.95
238.996	-7
239.214	62.63
239.431	146.6
239.648	54.44
239.865	111.78
240.083	91.31
240.3	13.48
240.517	15.53
240.735	74.92
240.952	68.78
241.169	74.92
241.386	60.59
241.603	11.43
241.821	56.49
242.038	91.31
242.255	27.82
242.472	42.15
242.689	109.74
242.907	-9.05
243.124	-11.09
243.341	62.63
243.558	1.19
243.775	31.91
243.992	36.01
244.209	97.45
244.426	68.78
244.643	85.16
244.86	19.63
245.078	11.43
245.295	11.43
245.512	38.06
245.729	31.91
245.946	1.19
246.163	64.68
246.38	54.44
246.597	58.54
246.814	60.59
247.031	17.58
247.248	-15.19
247.464	23.72
247.681	72.87
247.898	107.69
248.115	60.59
248.332	-15.19
248.549	93.35
248.766	21.67
248.983	60.59
249.2	46.25
249.417	68.78
249.633	40.11
249.85	52.39
250.067	-0.85
250.284	48.3
250.501	21.67
250.717	85.16
250.934	21.67
251.151	76.97
251.368	87.21
251.585	23.72
251.801	29.87
252.018	-2.9
252.235	79.02
252.451	19.63
252.668	27.82
252.885	17.58
253.102	19.63
253.318	1.19
253.535	-37.72
253.752	15.53
253.968	-39.76
254.185	36.01
254.401	27.82
254.618	50.35
254.835	-45.91
255.051	85.16
255.268	54.44
255.484	38.06
255.701	85.16
255.917	46.25
256.134	48.3
256.351	72.87
256.567	52.39
256.784	72.87
257	13.48
257.217	99.5
257.433	68.78
257.65	40.11
257.866	64.68
258.082	17.58
258.299	64.68
258.515	126.12
258.732	9.39
258.948	36.01
259.165	38.06
259.381	25.77
259.597	70.83
259.814	68.78
260.03	7.34
260.246	46.25
260.463	72.87
260.679	38.06
260.895	36.01
261.112	62.63
261.328	36.01
261.544	72.87
261.761	38.06
261.977	101.55
262.193	76.97
262.409	60.59
262.626	27.82
262.842	21.67
263.058	70.83
263.274	42.15
263.49	42.15
263.707	31.91
263.923	29.87
264.139	23.72
264.355	31.91
264.571	128.17
264.787	15.53
265.004	56.49
265.22	64.68
265.436	36.01
265.652	3.24
265.868	72.87
266.084	-60.24
266.3	64.68
266.516	68.78
266.732	19.63
266.948	38.06
267.164	46.25
267.38	27.82
267.596	72.87
267.812	119.98
268.028	40.11
268.244	15.53
268.46	58.54
268.676	81.07
268.892	56.49
269.108	-9.05
269.324	9.39
269.54	42.15
269.756	31.91
269.972	46.25
270.188	25.77
270.403	40.11
270.619	101.55
270.835	81.07
271.051	29.87
271.267	68.78
271.483	-37.72
271.698	76.97
271.914	103.59
272.13	9.39
272.346	36.01
272.562	15.53
272.777	19.63
272.993	-17.24
273.209	56.49
273.425	91.31
273.64	44.2
273.856	48.3
274.072	31.91
274.287	83.11
274.503	19.63
274.719	-4.95
274.934	5.29
275.15	27.82
275.366	44.2
275.581	44.2
275.797	31.91
276.012	25.77
276.228	-13.14
276.444	-2.9
276.659	109.74
276.875	-45.91
277.09	7.34
277.306	23.72
277.521	93.35
277.737	17.58
277.952	48.3
278.168	58.54
278.383	-11.09
278.599	-37.72
278.814	107.69
279.03	89.26
279.245	111.78
279.461	-13.14
279.676	50.35
279.892	-39.76
280.107	124.07
280.322	29.87
280.538	124.07
280.753	87.21
280.969	11.43
281.184	36.01
281.399	54.44
281.615	33.96
281.83	117.93
282.045	38.06
282.26	-27.48
282.476	17.58
282.691	3.24
282.906	48.3
283.122	44.2
283.337	-2.9
283.552	50.35
283.767	7.34
283.983	134.31
284.198	56.49
284.413	31.91
284.628	-50
284.843	91.31
285.058	27.82
285.274	23.72
285.489	23.72
285.704	74.92
285.919	36.01
286.134	-2.9
286.349	54.44
286.564	-9.05
286.779	76.97
286.995	56.49
287.21	40.11
287.425	27.82
287.64	46.25
287.855	54.44
288.07	-37.72
288.285	46.25
288.5	23.72
288.715	105.64
288.93	-9.05
289.145	36.01
289.36	54.44
289.575	95.4
289.79	68.78
290.004	97.45
290.219	62.63
290.434	17.58
290.649	60.59
290.864	-4.95
291.079	5.29
291.294	52.39
291.509	79.02
291.724	85.16
291.938	5.29
292.153	15.53
292.368	-43.86
292.583	56.49
292.798	93.35
293.012	87.21
293.227	60.59
293.442	-60.24
293.657	52.39
293.871	70.83
294.086	56.49
294.301	13.48
294.516	11.43
294.73	3.24
294.945	25.77
295.16	76.97
295.374	27.82
295.589	21.67
295.804	27.82
296.018	50.35
296.233	40.11
296.447	38.06
296.662	101.55
296.877	124.07
297.091	56.49
297.306	46.25
297.52	70.83
297.735	48.3
297.949	56.49
298.164	33.96
298.378	56.49
298.593	15.53
298.807	36.01
299.022	68.78
299.236	7.34
299.451	68.78
299.665	-21.33
299.88	15.53
300.094	42.15
300.309	-21.33
300.523	60.59
300.737	27.82
300.952	31.91
301.166	-4.95
301.381	17.58
301.595	-33.62
301.809	11.43
302.024	3.24
302.238	66.73
302.452	68.78
302.667	38.06
302.881	23.72
303.095	40.11
303.309	109.74
303.524	27.82
303.738	56.49
303.952	11.43
304.166	76.97
304.381	-62.29
304.595	13.48
304.809	66.73
305.023	79.02
305.237	68.78
305.452	107.69
305.666	62.63
305.88	87.21
306.094	38.06
306.308	27.82
306.522	19.63
306.736	119.98
306.95	72.87
307.164	68.78
307.379	-25.43
307.593	85.16
307.807	97.45
308.021	93.35
308.235	52.39
308.449	-15.19
308.663	23.72
308.877	89.26
309.091	31.91
309.305	97.45
309.519	-2.9
309.733	79.02
309.947	-9.05
310.161	52.39
310.374	85.16
310.588	-0.85
310.802	54.44
311.016	29.87
311.23	33.96
311.444	95.4
311.658	27.82
311.872	60.59
312.085	111.78
312.299	79.02
312.513	117.93
312.727	64.68
312.941	44.2
313.154	99.5
313.368	138.41
313.582	60.59
313.796	31.91
314.009	17.58
314.223	95.4
314.437	33.96
314.651	27.82
314.864	17.58
315.078	31.91
315.292	54.44
315.505	46.25
315.719	15.53
315.933	44.2
316.146	-29.52
316.36	36.01
316.573	54.44
316.787	48.3
317.001	50.35
317.214	5.29
317.428	81.07
317.641	31.91
317.855	15.53
318.068	66.73
318.282	27.82
318.495	122.02
318.709	70.83
318.922	9.39
319.136	31.91
319.349	124.07
319.563	11.43
319.776	122.02
319.99	5.29
320.203	19.63
320.417	70.83
320.63	1.19
320.843	46.25
321.057	101.55
321.27	87.21
321.483	85.16
321.697	56.49
321.91	48.3
322.124	56.49
322.337	83.11
322.55	48.3
322.763	87.21
322.977	-15.19
323.19	19.63
323.403	46.25
323.617	40.11
323.83	81.07
324.043	1.19
324.256	36.01
324.469	66.73
324.683	119.98
324.896	-27.48
325.109	25.77
325.322	25.77
325.535	115.88
325.748	31.91
325.962	27.82
326.175	-0.85
326.388	23.72
326.601	89.26
326.814	126.12
327.027	85.16
327.24	126.12
327.453	-9.05
327.666	54.44
327.879	81.07
328.092	62.63
328.305	105.64
328.518	76.97
328.731	54.44
328.944	46.25
329.157	-13.14
329.37	138.41
329.583	95.4
329.796	126.12
330.009	31.91
330.222	62.63
330.435	62.63
330.648	48.3
330.861	15.53
331.073	115.88
331.286	126.12
331.499	62.63
331.712	31.91
331.925	21.67
332.138	52.39
332.35	27.82
332.563	-17.24
332.776	31.91
332.989	44.2
333.202	119.98
333.414	50.35
333.627	56.49
333.84	76.97
334.053	60.59
334.265	40.11
334.478	58.54
334.691	60.59
334.903	42.15
335.116	46.25
335.329	7.34
335.541	95.4
335.754	117.93
335.966	52.39
336.179	101.55
336.392	68.78
336.604	62.63
336.817	91.31
337.029	132.26
337.242	85.16
337.454	105.64
337.667	29.87
337.88	44.2
338.092	-9.05
338.305	76.97
338.517	-9.05
338.729	79.02
338.942	44.2
339.154	29.87
339.367	58.54
339.579	7.34
339.792	79.02
340.004	27.82
340.217	7.34
340.429	38.06
340.641	11.43
340.854	17.58
341.066	60.59
341.278	68.78
341.491	3.24
341.703	46.25
341.915	3.24
342.128	66.73
342.34	3.24
342.552	-27.48
342.764	74.92
342.977	109.74
343.189	-23.38
343.401	29.87
343.613	-54.1
343.826	11.43
344.038	-17.24
344.25	76.97
344.462	-19.29
344.674	95.4
344.886	17.58
345.099	38.06
345.311	19.63
345.523	-11.09
345.735	46.25
345.947	89.26
346.159	119.98
346.371	48.3
346.583	50.35
346.795	74.92
347.007	21.67
347.219	54.44
347.431	52.39
347.643	33.96
347.855	13.48
348.067	60.59
348.279	23.72
348.491	9.39
348.703	11.43
348.915	64.68
349.127	-41.81
349.339	38.06
349.551	7.34
349.763	97.45
349.975	19.63
350.187	169.13
350.399	81.07
350.61	52.39
350.822	97.45
351.034	81.07
351.246	138.41
351.458	33.96
351.669	62.63
351.881	68.78
352.093	7.34
352.305	103.59
352.517	15.53
352.728	117.93
352.94	93.35
353.152	52.39
353.363	29.87
353.575	70.83
353.787	54.44
353.999	87.21
354.21	66.73
354.422	93.35
354.633	50.35
354.845	27.82
355.057	33.96
355.268	89.26
355.48	46.25
355.692	-13.14
355.903	93.35
356.115	-4.95
356.326	42.15
356.538	101.55
356.749	33.96
356.961	134.31
357.172	46.25
357.384	19.63
357.595	93.35
357.807	87.21
358.018	33.96
358.23	89.26
358.441	93.35
358.653	58.54
358.864	62.63
359.075	89.26
359.287	95.4
359.498	44.2
359.709	76.97
359.921	44.2
360.132	-9.05
360.344	122.02
360.555	1.19
360.766	93.35
360.977	44.2
361.189	70.83
361.4	13.48
361.611	87.21
361.823	142.5
362.034	117.93
362.245	101.55
362.456	109.74
362.667	122.02
362.879	103.59
363.09	83.11
363.301	119.98
363.512	68.78
363.723	38.06
363.935	48.3
364.146	76.97
364.357	-37.72
364.568	29.87
364.779	25.77
364.99	103.59
365.201	5.29
365.412	54.44
365.623	27.82
365.834	50.35
366.045	93.35
366.256	36.01
366.467	38.06
366.678	62.63
366.889	70.83
367.1	54.44
367.311	33.96
367.522	56.49
367.733	46.25
367.944	134.31
368.155	17.58
368.366	150.7
368.577	81.07
368.788	70.83
368.999	101.55
369.209	27.82
369.42	113.83
369.631	58.54
369.842	146.6
370.053	72.87
370.264	66.73
370.474	60.59
370.685	91.31
370.896	36.01
371.107	17.58
371.317	105.64
371.528	68.78
371.739	3.24
371.95	48.3
372.16	74.92
372.371	68.78
372.582	11.43
372.792	119.98
373.003	72.87
373.214	68.78
373.424	66.73
373.635	3.24
373.846	146.6
374.056	117.93
374.267	158.89
374.477	36.01
374.688	-4.95
374.898	72.87
375.109	58.54
375.319	68.78
375.53	79.02
375.74	95.4
375.951	-25.43
376.161	52.39
376.372	74.92
376.582	40.11
376.793	76.97
377.003	40.11
377.214	36.01
377.424	23.72
377.635	19.63
377.845	44.2
378.055	99.5
378.266	70.83
378.476	15.53
378.686	46.25
378.897	64.68
379.107	54.44
379.317	130.22
379.528	62.63
379.738	70.83
379.948	91.31
380.158	52.39
380.369	3.24
380.579	76.97
380.789	70.83
380.999	85.16
381.21	72.87
381.42	68.78
381.63	31.91
381.84	36.01
382.05	83.11
382.261	142.5
382.471	64.68
382.681	27.82
382.891	68.78
383.101	-17.24
383.311	44.2
383.521	126.12
383.731	44.2
383.941	15.53
384.151	93.35
384.361	93.35
384.571	58.54
384.781	113.83
384.991	74.92
385.201	29.87
385.411	91.31
385.621	70.83
385.831	76.97
386.041	44.2
386.251	31.91
386.461	76.97
386.671	66.73
386.881	29.87
387.091	54.44
387.301	60.59
387.511	109.74
387.72	38.06
387.93	79.02
388.14	95.4
388.35	76.97
388.56	130.22
388.769	15.53
388.979	117.93
389.189	128.17
389.399	60.59
389.609	76.97
389.818	64.68
390.028	13.48
390.238	60.59
390.447	70.83
390.657	113.83
390.867	60.59
391.076	33.96
391.286	70.83
391.496	13.48
391.705	29.87
391.915	97.45
392.125	62.63
392.334	17.58
392.544	111.78
392.753	85.16
392.963	101.55
393.172	70.83
393.382	25.77
393.591	44.2
393.801	115.88
394.01	95.4
394.22	103.59
394.429	109.74
394.639	117.93
394.848	48.3
395.058	115.88
395.267	128.17
395.477	117.93
395.686	93.35
395.895	76.97
396.105	128.17
396.314	38.06
396.524	79.02
396.733	54.44
396.942	62.63
397.152	91.31
397.361	167.08
397.57	101.55
397.78	113.83
397.989	212.14
398.198	169.13
398.407	95.4
398.617	193.7
398.826	109.74
399.035	97.45
399.244	36.01
399.453	107.69
399.663	115.88
399.872	64.68
400.081	27.82
400.29	95.4
400.499	95.4
400.708	101.55
400.917	64.68
401.127	99.5
401.336	79.02
401.545	124.07
401.754	169.13
401.963	115.88
402.172	109.74
402.381	117.93
402.59	105.64
402.799	70.83
403.008	154.79
403.217	126.12
403.426	70.83
403.635	95.4
403.844	113.83
404.053	169.13
404.262	42.15
404.471	154.79
404.68	173.22
404.888	165.03
405.097	93.35
405.306	150.7
405.515	154.79
405.724	134.31
405.933	208.04
406.142	126.12
406.35	158.89
406.559	128.17
406.768	89.26
406.977	189.61
407.185	224.42
407.394	226.47
407.603	193.7
407.812	187.56
408.02	261.29
408.229	197.8
408.438	175.27
408.646	246.95
408.855	214.18
409.064	191.66
409.272	173.22
409.481	322.73
409.69	326.82
409.898	208.04
410.107	285.86
410.315	242.85
410.524	269.48
410.733	232.62
410.941	271.53
411.15	306.34
411.358	283.81
411.567	412.84
411.775	312.49
411.984	371.88
412.192	316.58
412.401	296.1
412.609	390.31
412.818	412.84
413.026	468.13
413.234	412.84
413.443	474.28
413.651	453.8
413.86	560.29
414.068	562.34
414.276	574.63
414.485	519.33
414.693	578.72
414.901	681.12
415.11	597.15
415.318	613.54
415.526	644.26
415.734	578.72
415.943	709.79
416.151	693.41
416.359	685.22
416.567	679.07
416.776	711.84
416.984	750.75
417.192	804
417.4	822.43
417.608	799.9
417.817	885.92
418.025	902.3
418.233	1019.04
418.441	894.11
418.649	941.21
418.857	1068.19
419.065	1117.34
419.273	1074.33
419.481	1158.3
419.689	1166.49
419.897	1232.02
420.105	1223.83
420.313	1279.13
420.521	1307.8
420.729	1477.78
420.937	1424.53
421.145	1469.59
421.353	1590.42
421.561	1584.27
421.769	1635.47
421.977	1778.83
422.185	1649.81
422.393	1856.65
422.601	1887.37
422.809	1875.09
423.017	1963.15
423.224	2155.66
423.432	2094.22
423.64	2159.75
423.848	2321.54
424.056	2335.88
424.263	2446.47
424.471	2335.88
424.679	2475.14
424.887	2634.88
425.094	2645.12
425.302	2657.41
425.51	2817.15
425.718	2866.3
425.925	3048.57
426.133	2980.99
426.341	3122.3
426.548	3253.37
426.756	3304.57
426.964	3349.62
427.171	3505.27
427.379	3538.04
427.586	3615.86
427.794	3841.14
428.001	3972.21
428.209	4158.57
428.417	4060.27
428.624	4361.32
428.832	4396.14
429.039	4369.51
429.247	4197.48
429.454	4648.04
429.662	5145.69
429.869	4877.41
430.076	5104.73
430.284	4926.56
430.491	5235.8
430.699	5327.96
430.906	5428.31
431.114	5581.91
431.321	5676.12
431.528	5897.3
431.736	6196.3
431.943	6497.35
432.15	6261.84
432.358	6421.58
432.565	6706.24
432.772	6730.82
432.979	7097.41
433.187	7164.99
433.394	7138.37
433.601	7783.48
433.808	7773.24
434.016	7713.84
434.223	7957.55
434.43	8381.48
434.637	8369.19
434.844	8707.11
435.052	9002.02
435.259	8940.58
435.466	9122.85
435.673	9049.12
435.88	9491.48
436.087	9948.18
436.294	10128.4
436.501	9913.36
436.708	9939.99
436.915	10325.01
437.122	10820.61
437.329	10806.28
437.537	10882.05
437.743	11353.09
437.95	11078.66
438.157	11893.75
438.364	12194.8
438.571	12051.44
438.778	12121.07
438.985	13337.57
439.192	12905.45
439.399	13214.69
439.606	12989.41
439.813	13851.61
440.02	14365.65
440.227	14349.26
440.433	14179.28
440.64	14701.51
440.847	14482.38
441.054	14830.54
441.261	15805.37
441.467	15621.05
441.674	15905.72
441.881	16487.34
442.088	16534.45
442.294	16393.14
442.501	16559.02
442.708	17140.65
442.914	17845.15
443.121	18422.67
443.328	17869.72
443.534	19270.53
443.741	18924.43
443.948	18467.73
444.154	20208.5
444.361	19811.2
444.568	20104.06
444.774	19999.61
444.981	19921.79
445.187	20880.24
445.394	21453.67
445.6	21281.64
445.807	23292.74
446.013	22580.05
446.22	22858.57
446.426	23685.95
446.633	24093.5
446.839	24730.42
447.046	23726.91
447.252	25064.24
447.459	25312.04
447.665	25099.05
447.871	25991.97
448.078	27276.04
448.284	25924.38
448.491	26469.14
448.697	27646.72
448.903	28277.5
449.11	28234.49
449.316	27872
449.522	28615.41
449.728	29143.79
449.935	29594.34
450.141	29397.74
450.347	30063.33
450.553	29321.96
450.76	29534.95
450.966	30395.1
451.172	30405.34
451.378	31029.97
451.584	30436.06
451.791	30984.91
451.997	31003.35
452.203	31634.12
452.409	31765.19
452.615	31335.12
452.821	30460.63
453.027	30188.25
453.233	31972.03
453.44	30739.16
453.646	30692.05
453.852	31085.26
454.058	31591.11
454.264	30642.9
454.47	31240.91
454.676	30345.95
454.882	31234.77
455.088	28789.49
455.294	28908.27
455.5	29688.55
455.705	29657.83
455.911	28779.25
456.117	28005.12
456.323	27792.13
456.529	26456.85
456.735	27509.51
456.941	27058.96
457.147	26303.26
457.352	25785.12
457.558	25527.08
457.764	25660.2
457.97	24761.14
458.176	24376.12
458.381	24335.16
458.587	23128.91
458.793	23245.64
458.999	21793.63
459.204	23673.67
459.41	22885.2
459.616	21662.56
459.821	21435.24
460.027	21375.84
460.233	21287.78
460.438	20339.57
460.644	20132.73
460.85	18815.88
461.055	19008.39
461.261	19116.93
461.466	17697.69
461.672	16946.09
461.878	18322.32
462.083	16874.41
462.289	16964.52
462.494	16686
462.7	15944.63
462.905	15248.32
463.111	15899.58
463.316	15938.49
463.522	15508.41
463.727	15727.55
463.932	15713.21
464.138	15330.24
464.343	15147.97
464.549	15174.6
464.754	15487.93
464.959	15297.47
465.165	15027.14
465.37	14568.4
465.575	14345.17
465.781	14832.58
465.986	14896.07
466.191	14429.13
466.397	14115.8
466.602	13380.57
466.807	13968.34
467.012	13874.13
467.218	13708.25
467.423	13716.44
467.628	13538.27
467.833	14394.32
468.038	13839.32
468.244	13423.58
468.449	13913.05
468.654	13525.98
468.859	13437.92
469.064	13300.7
469.269	12690.41
469.474	12999.65
469.679	13143.01
469.885	12770.28
470.09	12979.17
470.295	12747.75
470.5	12422.13
470.705	12688.36
470.91	12266.48
471.115	12205.04
471.32	12213.23
471.525	12293.1
471.73	12090.35
471.935	11951.09
472.139	11557.88
472.344	11637.75
472.549	11760.63
472.754	11594.75
472.959	11283.45
473.164	11021.31
473.369	10974.21
473.574	11092.99
473.778	11121.66
473.983	11080.71
474.188	10963.97
474.393	10867.72
474.598	10589.19
474.802	10564.62
475.007	10511.37
475.212	10482.7
475.417	10120.21
475.621	9917.46
475.826	10107.92
476.031	9784.34
476.235	9698.33
476.44	9847.83
476.645	9548.82
476.849	9806.87
477.054	9505.82
477.259	9354.27
477.463	9522.2
477.668	9077.79
477.872	9251.87
478.077	9174.05
478.282	8791.08
478.486	8891.43
478.691	8700.97
478.895	8715.3
479.1	8545.32
479.304	8807.46
479.509	8391.72
479.713	8549.42
479.918	8395.82
480.122	8414.25
480.326	8535.08
480.531	8424.49
480.735	8444.97
480.94	8238.12
481.144	8530.98
481.348	7994.42
481.553	8195.12
481.757	7982.13
481.961	8274.99
482.166	8240.17
482.37	8410.15
482.574	7947.31
482.778	8068.14
482.983	8326.19
483.187	7949.36
483.391	8324.14
483.595	8299.56
483.8	7863.35
484.004	8252.46
484.208	8301.61
484.412	8074.29
484.616	8078.38
484.821	8170.54
485.025	8002.61
485.229	8090.67
485.433	7984.18
485.637	8256.56
485.841	7896.11
486.045	8113.2
486.249	8109.1
486.453	7982.13
486.657	7996.46
486.861	8062
487.065	7930.93
487.269	8008.75
487.473	7969.84
487.677	8141.87
487.881	8098.86
488.085	8029.23
488.289	8160.3
488.493	8137.77
488.697	8162.35
488.901	8158.25
489.105	8010.8
489.309	8094.77
489.512	8262.7
489.716	8164.4
489.92	8227.89
490.124	8199.21
490.328	8274.99
490.531	8234.03
490.735	8178.73
490.939	8457.26
491.143	8301.61
491.346	8231.98
491.55	8393.77
491.754	8412.2
491.958	8369.19
492.161	8387.63
492.365	8543.27
492.569	8332.33
492.772	8422.44
492.976	8504.36
493.18	8580.14
493.383	8569.9
493.587	8530.98
493.79	8889.38
493.994	8733.73
494.197	8932.39
494.401	9079.84
494.605	8997.92
494.808	9047.07
495.012	9034.78
495.215	9090.08
495.419	9053.22
495.622	9135.14
495.825	9137.18
496.029	9188.38
496.232	9452.57
496.436	9317.4
496.639	9802.77
496.843	9317.4
497.046	9595.93
497.249	10005.52
497.453	9964.56
497.656	10300.43
497.859	10009.62
498.063	10267.66
498.266	10456.08
498.469	10325.01
498.673	10644.49
498.876	10726.41
499.079	10744.84
499.282	10544.14
499.485	10990.59
499.689	11080.71
499.892	11123.71
500.095	11217.92
500.298	11301.89
500.501	11138.05
500.705	11703.29
500.908	11760.63
501.111	11795.45
501.314	11891.7
501.517	12159.99
501.72	12315.63
501.923	12344.3
502.126	12504.04
502.329	12729.32
502.532	12491.76
502.735	12833.77
502.938	13085.67
503.141	13163.49
503.344	13388.77
503.547	13095.91
503.75	13468.64
503.953	13632.47
504.156	13886.42
504.359	13980.63
504.562	14195.67
504.765	14347.22
504.968	14375.89
505.17	14506.96
505.373	14744.52
505.576	14826.44
505.779	15082.44
505.982	15143.88
506.185	15547.33
506.387	15551.42
506.59	15565.76
506.793	15944.63
506.996	15961.02
507.198	16282.55
507.401	16042.93
507.604	16577.45
507.807	16894.89
508.009	16751.53
508.212	16982.95
508.415	17304.48
508.617	17308.58
508.82	17535.9
509.022	17441.7
509.225	17961.88
509.428	18207.64
509.63	18176.92
509.833	18211.73
510.035	18518.93
510.238	18578.32
510.44	18711.44
510.643	18922.38
510.845	19073.93
511.048	19104.65
511.25	19319.68
511.453	19432.32
511.655	20183.93
511.858	19899.26
512.06	20196.21
512.262	20104.06
512.465	20216.69
512.667	20714.35
512.87	21011.31
513.072	20976.49
513.274	21455.72
513.477	21754.72
513.679	21597.03
513.881	22176.6
514.084	22100.83
514.286	22147.93
514.488	22182.74
514.69	23016.27
514.893	22924.11
515.095	22885.2
515.297	23477.06
515.499	23458.63
515.701	23825.22
515.904	23960.38
516.106	23991.1
516.308	24058.68
516.51	24486.71
516.712	24230.71
516.914	24666.93
517.116	25185.07
517.318	25420.58
517.52	25367.34
517.722	25930.53
517.925	25967.39
518.127	25873.18
518.329	26309.4
518.531	25942.81
518.733	26516.25
518.935	27169.55
519.136	26864.4
519.338	27462.41
519.54	27505.41
519.742	27968.26
519.944	27798.27
520.146	28109.57
520.348	28324.6
520.55	28658.42
520.752	28510.97
520.954	28908.27
521.155	28918.51
521.357	29571.82
521.559	29735.65
521.761	30085.86
521.963	29960.93
522.164	30235.36
522.366	30368.48
522.568	30608.09
522.77	30788.31
522.971	30982.87
523.173	31040.21
523.375	31451.85
523.576	31032.02
523.778	31505.1
523.98	31781.57
524.181	31754.95
524.383	31709.89
524.584	32357.05
524.786	32371.39
524.988	32361.15
525.189	32836.28
525.391	32674.49
525.592	33139.38
525.794	33159.86
525.995	32875.19
526.197	33204.91
526.398	33335.98
526.6	33768.1
526.801	34011.81
527.003	33942.18
527.204	33761.96
527.406	34063.01
527.607	34163.36
527.808	34251.42
528.01	33880.74
528.211	34110.11
528.412	34767.51
528.614	34527.9
528.815	34667.16
529.016	34951.83
529.218	34644.63
529.419	34867.86
529.62	35130
529.822	34605.72
530.023	35066.52
530.224	35424.91
530.425	35220.11
530.626	35115.67
530.828	34990.74
531.029	35654.28
531.23	35279.5
531.431	35365.52
531.632	35607.18
531.833	35836.55
532.035	35766.92
532.236	35338.9
532.437	35994.25
532.638	35678.86
532.839	36119.17
533.04	36016.77
533.241	35607.18
533.442	36391.55
533.643	35570.32
533.844	35822.22
534.045	36094.6
534.246	35588.75
534.447	35797.64
534.648	35646.09
534.849	36145.8
535.05	35867.27
535.251	36207.23
535.451	36096.64
535.652	36199.04
535.853	35891.85
536.054	36252.29
536.255	36055.68
536.456	35318.42
536.657	36260.48
536.857	35625.61
537.058	35902.09
537.259	35842.7
537.46	35949.19
537.66	35662.47
537.861	35990.15
538.062	36545.15
538.263	35977.86
538.463	35762.82
538.664	35928.71
538.865	36022.92
539.065	36119.17
539.266	35740.3
539.466	36569.72
539.667	35617.42
539.868	36244.1
540.068	35998.34
540.269	35988.1
540.469	36211.33
540.67	35785.35
540.87	36350.59
541.071	35934.85
541.271	35953.29
541.472	35887.75
541.672	35764.87
541.873	35730.06
542.073	35480.21
542.274	36237.95
542.474	35728.01
542.675	35574.41
542.875	35887.75
543.075	35846.79
543.276	35347.09
543.476	35897.99
543.676	35930.76
543.877	35967.62
544.077	35603.08
544.277	35685
544.478	35650.19
544.678	35840.65
544.878	35820.17
545.078	35662.47
545.279	35553.93
545.479	35515.02
545.679	35893.89
545.879	35807.88
546.079	35584.65
546.28	35232.4
546.48	35029.65
546.68	35537.55
546.88	35560.08
547.08	35381.9
547.28	35814.02
547.48	35275.41
547.68	35570.32
547.88	35338.9
548.081	35961.48
548.281	35660.43
548.481	35310.22
548.681	35988.1
548.881	35426.96
549.081	35728.01
549.28	35592.84
549.48	35951.24
549.68	35205.78
549.88	35963.53
550.08	35433.1
550.28	35465.87
550.48	35392.14
550.68	35568.27
550.88	35347.09
551.08	35441.29
551.279	35633.8
551.479	35551.88
551.679	35189.39
551.879	35455.63
552.079	35553.93
552.278	35050.13
552.478	35408.53
552.678	35412.62
552.878	35510.92
553.077	35277.46
553.277	35238.54
553.477	35441.29
553.676	35402.38
553.876	34996.88
554.076	35041.94
554.275	35140.24
554.475	35095.19
554.674	34962.07
554.874	35164.82
555.074	35158.67
555.273	35091.09
555.473	35058.32
555.672	34548.38
555.872	34757.27
556.071	34714.26
556.271	34968.21
556.47	34914.97
556.67	34542.24
556.869	34685.59
557.068	34798.23
557.268	34720.41
557.467	34470.56
557.667	34810.52
557.866	34534.04
558.065	34499.23
558.265	34310.82
558.464	34538.14
558.663	34810.52
558.863	33866.41
559.062	34599.58
559.261	34214.56
559.461	34431.65
559.66	34189.98
559.859	34091.68
560.058	34040.48
560.258	34458.27
560.457	33626.79
560.656	34177.7
560.855	33741.48
561.054	34079.39
561.253	33780.39
561.453	34005.67
561.652	33938.08
561.851	33985.19
562.05	33843.88
562.249	33432.24
562.448	33856.17
562.647	33495.72
562.846	33342.13
563.045	33604.27
563.244	32950.96
563.443	33839.78
563.642	32862.9
563.841	32948.92
564.04	33079.99
564.239	32996.02
564.438	32836.28
564.637	33047.22
564.836	32885.43
565.035	32453.31
565.234	32871.09
565.432	32500.41
565.631	32377.53
565.83	32760.5
566.029	32414.4
566.228	32344.77
566.427	32565.95
566.625	32260.8
566.824	32023.23
567.023	32283.33
567.222	32111.3
567.42	32502.46
567.619	31806.15
567.818	31859.4
568.016	31757
568.215	31849.16
568.414	31677.13
568.612	31898.31
568.811	31800.01
569.01	31670.98
569.208	31228.62
569.407	31490.76
569.605	30997.2
569.804	31623.88
570.002	31421.13
570.201	31216.33
570.4	30868.18
570.598	30810.84
570.797	30579.42
570.995	30849.75
571.193	30538.46
571.392	31261.39
571.59	30669.53
571.789	30819.03
571.987	30399.19
572.186	30454.49
572.384	30284.51
572.582	30343.9
572.781	30520.02
572.979	29907.68
573.177	30372.57
573.376	30343.9
573.574	30042.85
573.772	29987.55
573.971	29641.45
574.169	29672.17
574.367	29569.77
574.565	29569.77
574.763	29534.95
574.962	29598.44
575.16	29227.76
575.358	29387.5
575.556	28648.18
575.754	29717.22
575.952	28846.83
576.151	29215.47
576.349	28787.44
576.547	28873.46
576.745	28830.45
576.943	29156.08
577.141	28816.11
577.339	28707.57
577.537	28635.89
577.735	28713.72
577.933	28578.55
578.131	28744.44
578.329	28416.76
578.527	28386.04
578.725	28115.71
578.923	28551.93
579.121	28007.17
579.319	27726.6
579.516	28269.31
579.714	27978.5
579.912	27835.14
580.11	27691.78
580.308	28064.51
580.506	27605.77
580.704	27349.77
580.901	27523.85
581.099	27573
581.297	27220.75
581.495	27216.65
581.692	27357.96
581.89	27011.85
582.088	27448.07
582.285	26999.57
582.483	27366.15
582.681	27237.13
582.878	26956.56
583.076	26696.47
583.274	26909.46
583.471	26333.98
583.669	26733.33
583.866	26446.62
584.064	26829.59
584.262	26454.81
584.459	26479.38
584.657	26221.34
584.854	26479.38
585.052	25910.05
585.249	26018.59
585.447	26041.12
585.644	25688.87
585.841	26053.41
586.039	26151.71
586.236	25453.35
586.434	25570.08
586.631	25578.28
586.828	25953.05
587.026	25404.2
587.223	25377.58
587.42	25252.65
587.618	25314.09
587.815	25346.86
588.012	25127.72
588.21	24929.07
588.407	25187.11
588.604	24814.38
588.801	24689.46
588.999	24492.85
589.196	24763.18
589.393	24685.36
589.59	24527.67
589.787	24234.81
589.984	24163.13
590.182	24437.56
590.379	24159.03
590.576	24214.33
590.773	24478.52
590.97	24265.53
591.167	23968.57
591.364	23739.2
591.561	23872.32
591.758	23425.86
591.955	23731.01
592.152	23792.45
592.349	23370.57
592.546	23857.98
592.743	23743.3
592.94	23089.99
593.137	23427.91
593.334	23454.53
593.531	23274.31
593.727	23358.28
593.924	23034.7
594.121	22899.53
594.318	22963.02
594.515	22840.14
594.712	22825.81
594.908	22891.34
595.105	23049.03
595.302	22670.16
595.499	22365.01
595.696	22637.39
595.892	22379.35
596.089	22375.25
596.286	22348.63
596.482	22096.73
596.679	22393.68
596.876	22201.18
597.072	21986.14
597.269	22049.63
597.466	21756.77
597.662	21881.69
597.859	21834.59
598.055	21955.42
598.252	21693.28
598.448	21672.8
598.645	21635.94
598.841	21515.11
599.038	21486.43
599.234	21717.86
599.431	21203.82
599.627	21414.76
599.824	21361.51
600.02	21132.14
600.217	21181.29
600.413	20996.97
600.609	20919.15
600.806	20951.91
601.002	20913
601.198	20671.34
601.395	20673.39
601.591	20503.41
601.787	20435.83
601.984	20538.23
602.18	20534.13
602.376	20591.47
602.572	20372.34
602.769	20620.14
602.965	20136.82
603.161	20118.39
603.357	20202.36
603.553	20114.3
603.75	19929.98
603.946	19932.03
604.142	20163.45
604.338	19696.51
604.534	19760
604.73	19362.69
604.926	19571.58
605.122	19792.76
605.318	19714.94
605.514	19217.29
605.71	19569.54
605.906	19329.92
606.102	19270.53
606.298	19168.13
606.494	19235.72
606.69	19245.96
606.886	19274.63
607.082	18963.34
607.278	19227.53
607.474	18762.64
607.67	18838.41
607.866	18529.17
608.062	18885.51
608.257	18570.13
608.453	18600.85
608.649	18709.39
608.845	18602.89
609.041	18441.11
609.236	18725.77
609.432	18596.75
609.628	18609.04
609.824	18512.78
610.019	18447.25
610.215	18498.45
610.411	18412.43
610.606	18365.33
610.802	18326.42
610.998	18181.01
611.193	18258.84
611.389	18144.15
611.584	18105.24
611.78	18146.2
611.976	18273.17
612.171	18254.74
612.367	18316.18
612.562	18000.79
612.758	17757.08
612.953	17640.35
613.149	17877.91
613.344	17726.36
613.539	18023.32
613.735	17740.7
613.93	17834.91
614.126	17554.33
614.321	17927.07
614.517	17427.36
614.712	17445.79
614.907	17359.78
615.103	17427.36
615.298	17351.59
615.493	17478.56
615.688	17367.97
615.884	17605.53
616.079	17173.41
616.274	17453.98
616.47	17224.61
616.665	17413.02
616.86	17013.67
617.055	17079.21
617.25	17230.76
617.445	17269.67
617.641	16929.7
617.836	17251.24
618.031	16757.67
618.226	16962.47
618.421	16976.81
618.616	17085.35
618.811	16397.23
619.006	17107.88
619.201	16507.82
619.396	16831.4
619.591	16229.3
619.786	16849.83
619.981	16333.75
620.176	16374.7
620.371	16378.8
620.566	16272.31
620.761	16452.53
620.956	16319.41
621.151	15868.86
621.346	15891.38
621.541	15594.43
621.735	16083.89
621.93	15913.91
622.125	15559.61
622.32	15518.65
622.515	15373.25
622.709	15477.69
622.904	15532.99
623.099	15029.19
623.294	15219.65
623.488	15080.39
623.683	15180.74
623.878	14977.99
624.072	15117.25
624.267	14896.07
624.462	14867.4
624.656	14707.66
624.851	14769.1
625.046	14504.91
625.24	14617.55
625.435	14226.39
625.629	14316.5
625.824	14005.2
626.018	14287.82
626.213	14029.78
626.407	13949.91
626.602	13732.83
626.796	13945.81
626.991	13880.28
627.185	13757.4
627.38	13468.64
627.574	13480.92
627.768	13452.25
627.963	13358.05
628.157	13190.11
628.352	13333.47
628.546	13145.06
628.74	13257.7
628.935	13038.56
629.129	13235.17
629.323	12786.66
629.517	12704.74
629.712	12596.2
629.906	12940.26
630.1	12536.81
630.294	12639.21
630.489	12362.73
630.683	12717.03
630.877	12194.8
631.071	12514.28
631.265	12372.97
631.459	12200.94
631.653	12184.56
631.848	12092.4
632.042	11996.15
632.236	12000.24
632.43	11762.68
632.624	11983.86
632.818	11731.96
633.012	11783.16
633.206	11817.97
633.4	11781.11
633.594	11459.58
633.788	11627.51
633.982	11449.34
634.176	11658.23
634.369	11396.09
634.563	11232.26
634.757	11084.8
634.951	11518.97
635.145	11095.04
635.339	11039.75
635.533	10873.86
635.726	10966.02
635.92	10914.82
636.114	10789.89
636.308	10957.83
636.501	10773.51
636.695	10720.26
636.889	10703.88
637.083	10386.44
637.276	10566.67
637.47	10458.12
637.664	10378.25
637.857	10402.83
638.051	10476.55
638.244	10333.2
638.438	10345.48
638.632	10105.87
638.825	10095.63
639.019	10091.54
639.212	9905.17
639.406	9884.69
639.599	10013.71
639.793	9835.54
639.986	9581.59
640.18	9663.51
640.373	9714.71
640.567	9606.17
640.76	9661.46
640.954	9538.59
641.147	9423.9
641.34	9278.49
641.534	9550.87
641.727	9096.22
641.92	9448.47
642.114	9253.92
642.307	9145.38
642.5	9235.49
642.694	8961.06
642.887	8916
643.08	9184.29
643.273	8983.59
643.467	8969.25
643.66	8948.77
643.853	8582.18
644.046	8735.78
644.239	8760.36
644.432	8711.21
644.626	8727.59
644.819	8518.7
645.012	8703.01
645.205	8643.62
645.398	8444.97
645.591	8434.73
645.784	8424.49
645.977	8219.69
646.17	8309.8
646.363	8291.37
646.556	8195.12
646.749	8231.98
646.942	8344.62
647.135	7969.84
647.328	8154.16
647.521	8045.62
647.714	7902.26
647.907	7949.36
648.099	8117.29
648.292	8008.75
648.485	7875.63
648.678	7687.22
648.871	7679.03
649.064	7738.42
649.256	7584.82
649.449	7672.89
649.642	7531.58
649.835	7398.46
650.027	7527.48
650.22	7306.3
650.413	7310.4
650.605	7375.93
650.798	7287.87
650.991	7228.48
651.183	7371.83
651.376	7113.79
651.568	7255.1
651.761	7097.41
651.954	7066.69
652.146	7173.18
652.339	7074.88
652.531	7132.22
652.724	6962.24
652.916	6718.53
653.109	6851.65
653.301	6890.56
653.494	6952
653.686	6822.98
653.879	6769.73
654.071	6640.71
654.263	6583.37
654.456	6653
654.648	6767.68
654.84	6560.84
655.033	6450.25
655.225	6579.27
655.417	6366.28
655.61	6548.55
655.802	6437.96
655.994	6364.23
656.186	6360.14
656.379	6274.12
656.571	6253.64
656.763	6282.31
656.955	6231.12
657.148	6095.95
657.34	6206.54
657.532	6095.95
657.724	6159.44
657.916	5966.93
658.108	5880.91
658.3	6046.8
658.492	5964.88
658.684	5846.1
658.876	5858.39
659.068	5727.32
659.26	5645.4
659.452	5925.97
659.644	5844.05
659.836	5692.5
660.028	5788.75
660.22	5651.54
660.412	5696.6
660.604	5622.87
660.796	5588.05
660.988	5459.03
661.18	5416.02
661.372	5518.42
661.563	5489.75
661.755	5506.13
661.947	5446.74
662.139	5495.89
662.331	5344.35
662.522	5502.04
662.714	5327.96
662.906	5180.51
663.097	5237.85
663.289	5276.76
663.481	5063.77
663.673	5143.64
663.864	5125.21
664.056	5166.17
664.247	5043.29
664.439	5008.48
664.631	4877.41
664.822	4953.18
665.014	4983.9
665.205	4803.68
665.397	4975.71
665.588	4875.36
665.78	4885.6
665.971	4904.03
666.163	4746.34
666.354	4803.68
666.546	4762.72
666.737	4740.19
666.929	4750.43
667.12	4641.89
667.311	4607.08
667.503	4738.15
667.694	4772.96
667.885	4613.22
668.077	4592.74
668.268	4613.22
668.459	4508.77
668.651	4519.01
668.842	4428.9
669.033	4508.77
669.224	4330.6
669.416	4553.83
669.607	4437.09
669.798	4361.32
669.989	4312.17
670.18	4467.81
670.371	4369.51
670.563	4263.02
670.754	4174.95
670.945	4172.91
671.136	4209.77
671.327	4222.06
671.518	4197.48
671.709	4308.07
671.9	4134
672.091	4074.6
672.282	4111.47
672.473	4209.77
672.664	4113.52
672.855	4101.23
673.046	3964.01
673.237	4082.8
673.428	3951.73
673.619	3957.87
673.809	3959.92
674	3994.73
674.191	3935.34
674.382	3898.48
674.573	4078.7
674.764	3765.36
674.954	3857.52
675.145	3748.98
675.336	3714.16
675.527	3832.94
675.717	3869.81
675.908	3708.02
676.099	3804.27
676.289	3734.64
676.48	3636.34
676.671	3581.04
676.861	3722.35
677.052	3599.48
677.243	3662.96
677.433	3634.29
677.624	3683.44
677.814	3691.63
678.005	3732.59
678.195	3517.56
678.386	3533.94
678.576	3613.81
678.767	3568.76
678.957	3542.13
679.148	3656.82
679.338	3447.93
679.529	3507.32
679.719	3353.72
679.909	3529.84
680.1	3419.25
680.29	3312.76
680.481	3392.63
680.671	3495.03
680.861	3435.64
681.052	3292.28
681.242	3245.18
681.432	3429.49
681.622	3206.27
681.813	3427.45
682.003	3314.81
682.193	3216.51
682.383	3200.12
682.573	3304.57
682.764	3222.65
682.954	3353.72
683.144	3232.89
683.334	3206.27
683.524	3161.21
683.714	3112.06
683.904	3136.63
684.094	3099.77
684.284	3173.5
684.474	3148.92
684.664	3132.54
684.854	3239.03
685.044	3093.63
685.234	2935.93
685.424	2884.73
685.614	3146.87
685.804	3050.62
685.994	3099.77
686.184	2993.28
686.374	2978.94
686.564	2978.94
686.753	3009.66
686.943	2911.36
687.133	2980.99
687.323	3052.67
687.513	2995.32
687.702	3050.62
687.892	2937.98
688.082	2944.13
688.272	2841.73
688.461	2899.07
688.651	2925.69
688.841	2915.45
689.03	2751.62
689.22	2743.42
689.41	2784.38
689.599	2772.1
689.789	2794.62
689.979	2837.63
690.168	2720.9
690.358	2761.86
690.547	2657.41
690.737	2739.33
690.926	2665.6
691.116	2671.75
691.305	2747.52
691.495	2604.16
691.684	2632.83
691.874	2739.33
692.063	2659.46
692.252	2714.75
692.442	2694.27
692.631	2593.92
692.82	2444.42
693.01	2442.37
693.199	2620.55
693.388	2530.44
693.578	2628.74
693.767	2606.21
693.956	2469
694.146	2512
694.335	2419.85
694.524	2561.16
694.713	2495.62
694.902	2530.44
695.092	2524.29
695.281	2479.24
695.47	2421.89
695.659	2485.38
695.848	2440.33
696.037	2378.89
696.226	2339.97
696.415	2421.89
696.604	2479.24
696.793	2428.04
696.982	2358.41
697.171	2372.74
697.36	2309.26
697.549	2282.63
697.738	2270.34
697.927	2415.75
698.116	2329.74
698.305	2452.61
698.494	2378.89
698.683	2288.78
698.872	2460.81
699.061	2389.13
699.25	2313.35
699.438	2253.96
699.627	2401.41
699.816	2407.56
700.005	2268.3
700.193	2344.07
700.382	2378.89
700.571	2309.26
700.76	2229.38
700.948	2245.77
701.137	2337.93
701.326	2237.58
701.514	2213
701.703	2229.38
701.892	2184.33
702.08	2225.29
702.269	2317.45
702.457	2169.99
702.646	2172.04
702.834	2245.77
703.023	2233.48
703.212	2329.74
703.4	2292.87
703.589	2233.48
703.777	2305.16
703.965	2182.28
704.154	2272.39
704.342	2303.11
704.531	2182.28
704.719	2147.47
704.907	2213
705.096	2262.15
705.284	2233.48
705.472	2272.39
705.661	2282.63
705.849	2186.38
706.037	2083.98
706.226	2192.52
706.414	2186.38
706.602	2219.14
706.79	2221.19
706.979	2229.38
707.167	2124.94
707.355	2176.14
707.543	2180.23
707.731	2221.19
707.919	2106.51
708.107	2139.27
708.296	2067.6
708.484	2200.71
708.672	2114.7
708.86	2198.67
709.048	2122.89
709.236	2192.52
709.424	2149.51
709.612	2217.1
709.8	2241.67
709.988	2178.19
710.176	2157.71
710.364	2256.01
710.551	2159.75
710.739	2118.79
710.927	2153.61
711.115	2073.74
711.303	2194.57
711.491	2206.86
711.679	2190.47
711.866	2165.9
712.054	2131.08
712.242	2145.42
712.43	2108.55
712.617	2196.62
712.805	2192.52
712.993	2247.82
713.181	2086.03
713.368	2172.04
713.556	2221.19
713.744	2161.8
713.931	2215.05
714.119	2133.13
714.306	2202.76
714.494	2174.09
714.682	2251.91
714.869	2116.75
715.057	2116.75
715.244	2126.99
715.432	2118.79
715.619	2200.71
715.807	2118.79
715.994	2092.17
716.182	2129.03
716.369	2188.43
716.556	2069.64
716.744	2108.55
716.931	2104.46
717.119	2088.07
717.306	2108.55
717.493	2030.73
717.681	2210.95
717.868	2143.37
718.055	2231.43
718.242	2147.47
718.43	2198.67
718.617	2239.62
718.804	2139.27
718.991	2167.95
719.179	2133.13
719.366	2194.57
719.553	2229.38
719.74	2159.75
719.927	2172.04
720.114	2100.36
720.301	2249.86
720.488	2096.27
720.676	2190.47
720.863	2210.95
721.05	2088.07
721.237	2141.32
721.424	2178.19
721.611	2086.03
721.798	2192.52
721.985	2047.12
722.172	2186.38
722.358	2188.43
722.545	2153.61
722.732	2112.65
722.919	2165.9
723.106	2071.69
723.293	2213
723.48	2157.71
723.667	2077.83
723.853	2022.54
724.04	2120.84
724.227	2215.05
724.414	2151.56
724.6	2069.64
724.787	2229.38
724.974	2210.95
725.161	2204.81
725.347	2192.52
725.534	2194.57
725.72	2129.03
725.907	2124.94
726.094	2174.09
726.28	2186.38
726.467	2258.06
726.653	2092.17
726.84	2169.99
727.027	2133.13
727.213	2102.41
727.4	2053.26
727.586	2178.19
727.773	2100.36
727.959	2256.01
728.145	2047.12
728.332	2180.23
728.518	2116.75
728.705	2204.81
728.891	2124.94
729.077	2112.65
729.264	2104.46
729.45	2157.71
729.636	2239.62
729.823	2116.75
730.009	2182.28
730.195	2090.12
730.382	2118.79
730.568	2069.64
730.754	2153.61
730.94	2135.18
731.126	2077.83
731.313	2137.23
731.499	2165.9
731.685	2114.7
731.871	2131.08
732.057	2083.98
732.243	2217.1
732.429	2077.83
732.615	2114.7
732.801	2053.26
732.987	2094.22
733.173	2135.18
733.359	2161.8
733.545	2167.95
733.731	2004.11
733.917	2239.62
734.103	2124.94
734.289	2124.94
734.475	2000.01
734.661	2040.97
734.847	2178.19
735.033	2026.64
735.219	2180.23
735.404	2243.72
735.59	2069.64
735.776	2100.36
735.962	2122.89
736.148	2081.93
736.333	2036.88
736.519	2008.2
736.705	2161.8
736.89	2096.27
737.076	2059.4
737.262	2112.65
737.447	2104.46
737.633	2129.03
737.819	2024.59
738.004	2063.5
738.19	2043.02
738.375	1940.62
738.561	2000.01
738.747	2014.35
738.932	2010.25
739.118	2096.27
739.303	1950.86
739.489	2016.4
739.674	1995.92
739.859	2010.25
740.045	2075.79
740.23	2022.54
740.416	2112.65
740.601	1981.58
740.786	1971.34
740.972	2000.01
741.157	1979.53
741.342	1866.89
741.528	1870.99
741.713	1932.43
741.898	1948.81
742.084	2012.3
742.269	1883.28
742.454	2047.12
742.639	1866.89
742.824	2004.11
743.01	1899.66
743.195	1870.99
743.38	1911.95
743.565	1840.27
743.75	1842.32
743.935	1848.46
744.12	1838.22
744.305	1944.72
744.49	1852.56
744.675	1823.89
744.86	1823.89
745.045	1830.03
745.23	1848.46
745.415	1809.55
745.6	1811.6
745.785	1778.83
745.97	1760.4
746.155	1868.94
746.34	1881.23
746.525	1727.63
746.71	1805.46
746.895	1764.5
747.079	1719.44
747.264	1766.54
747.449	1733.78
747.634	1668.24
747.819	1778.83
748.003	1653.91
748.188	1686.67
748.373	1678.48
748.557	1649.81
748.742	1608.85
748.927	1614.99
749.111	1658
749.296	1565.84
749.481	1625.23
749.665	1610.9
749.85	1721.49
750.034	1578.13
750.219	1592.47
750.404	1617.04
750.588	1498.26
750.773	1594.51
750.957	1561.75
751.141	1541.27
751.326	1516.69
751.51	1666.19
751.695	1543.32
751.879	1483.92
752.064	1567.89
752.248	1479.83
752.432	1567.89
752.617	1555.6
752.801	1408.15
752.985	1324.18
753.17	1371.29
753.354	1463.44
753.538	1508.5
753.722	1309.85
753.907	1385.62
754.091	1391.77
754.275	1442.96
754.459	1338.52
754.643	1406.1
754.828	1363.09
755.012	1361.05
755.196	1264.79
755.38	1318.04
755.564	1373.33
755.748	1326.23
755.932	1260.7
756.116	1318.04
756.3	1205.4
756.484	1332.37
756.668	1227.93
756.852	1283.22
757.036	1289.37
757.22	1260.7
757.404	1256.6
757.588	1178.78
757.772	1293.46
757.956	1275.03
758.14	1225.88
758.323	1160.34
758.507	1170.58
758.691	1203.35
758.875	1117.34
759.059	1197.21
759.242	1100.95
759.426	1244.31
759.61	1207.45
759.794	1152.15
759.977	1160.34
760.161	1092.76
760.345	1115.29
760.528	1213.59
760.712	1057.95
760.895	1012.89
761.079	1139.87
761.263	1141.91
761.446	1029.27
761.63	1094.81
761.813	1127.58
761.997	1064.09
762.18	1131.67
762.364	1043.61
762.547	978.08
762.731	1080.47
762.914	1035.42
763.098	1037.47
763.281	998.56
763.464	998.56
763.648	980.12
763.831	1055.9
764.015	980.12
764.198	1070.23
764.381	1076.38
764.564	1004.7
764.748	973.98
764.931	988.32
765.114	906.4
765.297	1078.43
765.481	967.84
765.664	1031.32
765.847	1090.71
766.03	1012.89
766.213	951.45
766.397	906.4
766.58	994.46
766.763	1033.37
766.946	1010.84
767.129	924.83
767.312	978.08
767.495	961.69
767.678	832.67
767.861	959.64
768.044	906.4
768.227	900.25
768.41	947.36
768.593	978.08
768.776	877.73
768.959	965.79
769.142	973.98
769.324	933.02
769.507	879.77
769.69	820.38
769.873	849.05
770.056	939.16
770.239	851.1
770.421	887.97
770.604	937.12
770.787	842.91
770.97	910.49
771.152	732.32
771.335	908.44
771.518	896.16
771.7	849.05
771.883	890.01
772.066	785.57
772.248	781.47
772.431	873.63
772.613	873.63
772.796	847.01
772.978	808.09
773.161	885.92
773.343	881.82
773.526	873.63
773.708	775.33
773.891	746.66
774.073	797.85
774.256	808.09
774.438	789.66
774.621	767.13
774.803	744.61
774.985	804
775.168	679.07
775.35	779.42
775.532	765.09
775.715	742.56
775.897	769.18
776.079	722.08
776.261	746.66
776.444	752.8
776.626	724.13
776.808	734.37
776.99	691.36
777.173	631.97
777.355	758.94
777.537	732.32
777.719	677.02
777.901	674.98
778.083	685.22
778.265	648.35
778.447	683.17
778.629	640.16
778.811	625.83
778.993	646.3
779.175	662.69
779.357	578.72
779.539	634.02
779.721	584.87
779.903	611.49
780.085	648.35
780.267	652.45
780.449	625.83
780.631	535.71
780.812	599.2
780.994	568.48
781.176	527.52
781.358	625.83
781.54	556.19
781.721	654.5
781.903	613.54
782.085	588.96
782.267	599.2
782.448	560.29
782.63	515.23
782.812	531.62
782.993	568.48
783.175	627.87
783.357	517.28
783.538	527.52
783.72	478.37
783.901	552.1
784.083	554.15
784.264	543.91
784.446	570.53
784.627	517.28
784.809	529.57
784.99	539.81
785.172	607.39
785.353	466.08
785.535	504.99
785.716	504.99
785.897	500.9
786.079	455.84
786.26	488.61
786.441	543.91
786.623	488.61
786.804	373.92
786.985	466.08
787.167	437.41
787.348	445.6
787.529	486.56
787.71	519.33
787.891	414.88
788.073	480.42
788.254	476.32
788.435	443.56
788.616	365.73
788.797	410.79
788.978	390.31
789.159	345.25
789.34	453.8
789.522	289.96
789.703	404.64
789.884	418.98
790.065	357.54
790.246	470.18
790.427	431.27
790.607	474.28
790.788	359.59
790.969	367.78
791.15	322.73
791.331	332.97
791.512	314.53
791.693	414.88
791.874	423.08
792.054	380.07
792.235	416.93
792.416	306.34
792.597	341.16
792.778	355.49
792.958	330.92
793.139	418.98
793.32	277.67
793.5	304.29
793.681	390.31
793.862	400.55
794.042	234.66
794.223	339.11
794.404	179.37
794.584	251.05
794.765	279.72
794.945	335.01
795.126	365.73
795.306	265.38
795.487	253.09
795.667	316.58
795.848	304.29
796.028	314.53
796.209	292.01
796.389	318.63
796.57	345.25
796.75	242.85
796.93	261.29
797.111	302.25
797.291	277.67
797.471	312.49
797.652	249
797.832	298.15
798.012	343.21
798.192	197.8
798.373	296.1
798.553	263.33
798.733	322.73
798.913	240.81
799.093	242.85
799.274	300.2
799.454	357.54
799.634	228.52
799.814	263.33
799.994	251.05
800.174	330.92
800.354	220.33
800.534	265.38
800.714	273.57
800.894	287.91
801.074	281.77
801.254	267.43
801.434	271.53
801.614	281.77
801.794	343.21
801.974	763.04
802.154	193.7
802.334	273.57
802.514	208.04
802.693	167.08
802.873	210.09
803.053	314.53
803.233	255.14
803.413	251.05
803.592	298.15
803.772	230.57
803.952	298.15
804.131	230.57
804.311	246.95
804.491	283.81
804.67	195.75
804.85	259.24
805.03	236.71
805.209	230.57
805.389	259.24
805.568	277.67
805.748	289.96
805.928	167.08
806.107	279.72
806.287	261.29
806.466	281.77
806.646	175.27
806.825	165.03
807.004	224.42
807.184	226.47
807.363	289.96
807.543	144.55
807.722	179.37
807.901	165.03
808.081	228.52
808.26	253.09
808.439	210.09
808.619	179.37
808.798	234.66
808.977	212.14
809.156	181.42
809.336	230.57
809.515	224.42
809.694	175.27
809.873	208.04
810.052	267.43
810.231	199.85
810.411	85.16
810.59	160.94
810.769	183.46
810.948	177.32
811.127	117.93
811.306	201.9
811.485	181.42
811.664	289.96
811.843	154.79
812.022	158.89
812.201	183.46
812.38	148.65
812.559	185.51
812.737	138.41
812.916	132.26
813.095	72.87
813.274	158.89
813.453	185.51
813.632	165.03
813.811	208.04
813.989	119.98
814.168	130.22
814.347	91.31
814.526	162.98
814.704	181.42
814.883	205.99
815.062	74.92
815.24	91.31
815.419	169.13
815.598	208.04
815.776	177.32
815.955	132.26
816.133	136.36
816.312	210.09
816.49	117.93
816.669	132.26
816.847	162.98
817.026	146.6
817.204	142.5
817.383	171.18
817.561	126.12
817.74	175.27
817.918	185.51
818.097	210.09
818.275	175.27
818.453	148.65
818.632	162.98
818.81	126.12
818.988	175.27
819.167	117.93
819.345	218.28
819.523	38.06
819.701	105.64
819.879	126.12
820.058	199.85
820.236	156.84
820.414	152.74
820.592	103.59
820.77	103.59
820.948	152.74
821.127	54.44
821.305	117.93
821.483	93.35
821.661	226.47
821.839	169.13
822.017	191.66
822.195	85.16
822.373	193.7
822.551	126.12
822.729	126.12
822.907	117.93
823.085	240.81
823.262	169.13
823.44	162.98
823.618	95.4
823.796	68.78
823.974	136.36
824.152	134.31
824.329	99.5
824.507	105.64
824.685	105.64
824.863	66.73
825.04	240.81
825.218	167.08
825.396	140.46
825.574	146.6
825.751	122.02
825.929	115.88
826.107	134.31
826.284	76.97
826.462	109.74
826.639	107.69
826.817	107.69
826.994	113.83
827.172	36.01
827.349	109.74
827.527	138.41
827.704	154.79
827.882	191.66
828.059	122.02
828.237	46.25
828.414	109.74
828.591	7.34
828.769	113.83
828.946	167.08
829.124	134.31
829.301	144.55
829.478	107.69
829.655	156.84
829.833	58.54
830.01	64.68
830.187	83.11
830.364	107.69
830.542	81.07
830.719	83.11
830.896	93.35
831.073	144.55
831.25	117.93
831.427	105.64
831.604	119.98
831.782	130.22
831.959	91.31
832.136	79.02
832.313	146.6
832.49	60.59
832.667	136.36
832.844	60.59
833.021	175.27
833.198	95.4
833.374	93.35
833.551	130.22
833.728	85.16
833.905	160.94
834.082	140.46
834.259	119.98
834.436	136.36
834.612	48.3
834.789	115.88
834.966	72.87
835.143	60.59
835.319	31.91
835.496	27.82
835.673	130.22
835.85	107.69
836.026	62.63
836.203	91.31
836.38	103.59
836.556	72.87
836.733	60.59
836.909	87.21
837.086	111.78
837.262	87.21
837.439	54.44
837.616	126.12
837.792	87.21
837.968	68.78
838.145	40.11
838.321	87.21
838.498	89.26
838.674	97.45
838.851	79.02
839.027	54.44
839.203	93.35
839.38	27.82
839.556	119.98
839.732	89.26
839.909	48.3
840.085	150.7
840.261	42.15
840.437	68.78
840.614	52.39
840.79	68.78
840.966	66.73
841.142	62.63
841.318	124.07
841.494	79.02
841.671	31.91
841.847	60.59
842.023	56.49
842.199	44.2
842.375	103.59
842.551	-45.91
842.727	85.16
842.903	103.59
843.079	54.44
843.255	56.49
843.431	138.41
843.607	72.87
843.783	-13.14
843.959	66.73
844.134	25.77
844.31	15.53
844.486	60.59
844.662	1.19
844.838	93.35
845.013	33.96
845.189	19.63
845.365	130.22
845.541	-9.05
845.716	48.3
845.892	97.45
846.068	60.59
846.244	60.59
846.419	64.68
846.595	128.17
846.77	101.55
846.946	29.87
847.122	70.83
847.297	36.01
847.473	62.63
847.648	-21.33
847.824	111.78
847.999	79.02
848.175	113.83
848.35	54.44
848.526	64.68
848.701	132.26
848.876	87.21
849.052	85.16
849.227	79.02
849.403	76.97
849.578	60.59
849.753	115.88
849.929	107.69
850.104	27.82
850.279	76.97
850.454	27.82
850.63	40.11
850.805	40.11
850.98	3.24
851.155	27.82
851.33	52.39
851.505	-13.14
851.681	76.97
851.856	44.2
852.031	50.35
852.206	11.43
852.381	87.21
852.556	-0.85
852.731	107.69
852.906	111.78
853.081	54.44
853.256	79.02
853.431	-13.14
853.606	38.06
853.781	38.06
853.956	29.87
854.131	52.39
854.305	76.97
854.48	97.45
854.655	5.29
854.83	15.53
855.005	91.31
855.18	81.07
855.354	27.82
855.529	81.07
855.704	74.92
855.879	79.02
856.053	74.92
856.228	3.24
856.403	40.11
856.577	44.2
856.752	-41.81
856.926	115.88
857.101	95.4
857.276	19.63
857.45	87.21
857.625	64.68
857.799	62.63
857.974	54.44
858.148	23.72
858.323	64.68
858.497	48.3
858.672	-35.67
858.846	85.16
859.02	144.55
859.195	-15.19
859.369	48.3
859.543	-23.38
859.718	64.68
859.892	36.01
860.066	46.25
860.241	60.59
860.415	27.82
860.589	-17.24
860.763	79.02
860.938	33.96
861.112	81.07
861.286	29.87
861.46	-21.33
861.634	60.59
861.808	107.69
861.982	79.02
862.157	-2.9
862.331	23.72
862.505	-13.14
862.679	27.82
862.853	36.01
863.027	81.07
863.201	109.74
863.375	13.48
863.549	11.43
863.722	21.67
863.896	52.39
864.07	58.54
864.244	56.49
864.418	38.06
864.592	122.02
864.766	54.44
864.939	23.72
865.113	27.82
865.287	46.25
865.461	-21.33
865.634	70.83
865.808	113.83
865.982	76.97
866.156	33.96
866.329	36.01
866.503	36.01
866.676	21.67
866.85	-13.14
867.024	83.11
867.197	7.34
867.371	50.35
867.544	-4.95
867.718	1.19
867.891	62.63
868.065	13.48
868.238	-13.14
868.412	-27.48
868.585	93.35
868.759	62.63
868.932	5.29
869.105	5.29
869.279	40.11
869.452	7.34
869.625	29.87
869.799	54.44
869.972	40.11
870.145	-9.05
870.319	95.4
870.492	56.49
870.665	52.39
870.838	-13.14
871.011	17.58
871.185	3.24
871.358	40.11
871.531	52.39
871.704	31.91
871.877	48.3
872.05	-0.85
872.223	-4.95
872.396	11.43
872.569	-15.19
872.742	48.3
872.915	25.77
873.088	29.87
873.261	38.06
873.434	52.39
873.607	13.48
873.78	70.83
873.953	19.63
874.126	27.82
874.299	-13.14
874.471	83.11
874.644	95.4
874.817	23.72
874.99	81.07
875.163	62.63
875.335	91.31
875.508	31.91
875.681	27.82
875.853	19.63
876.026	70.83
876.199	76.97
876.371	60.59
876.544	27.82
876.717	54.44
876.889	46.25
877.062	64.68
877.234	19.63
877.407	54.44
877.579	-0.85
877.752	74.92
877.924	66.73
878.097	91.31
878.269	-19.29
878.442	76.97
878.614	-2.9
878.786	79.02
878.959	70.83
879.131	119.98
879.303	31.91
879.476	44.2
879.648	-0.85
879.82	5.29
879.993	38.06
880.165	1.19
880.337	27.82
880.509	-19.29
880.681	93.35
880.854	19.63
881.026	91.31
881.198	40.11
881.37	19.63
881.542	1.19
881.714	113.83
881.886	-11.09
882.058	-9.05
882.23	-13.14
882.402	-0.85
882.574	64.68
882.746	17.58
882.918	87.21
883.09	42.15
883.262	-23.38
883.434	33.96
883.606	33.96
883.778	74.92
883.95	103.59
884.122	-29.52
884.293	29.87
884.465	66.73
884.637	42.15
884.809	36.01
884.98	36.01
885.152	21.67
885.324	93.35
885.496	40.11
885.667	56.49
885.839	21.67
886.011	19.63
886.182	89.26
886.354	38.06
886.525	31.91
886.697	89.26
886.869	7.34
887.04	-50
887.212	36.01
887.383	27.82
887.555	-37.72
887.726	54.44
887.897	5.29
888.069	60.59
888.24	-19.29
888.412	105.64
888.583	7.34
888.754	13.48
888.926	1.19
889.097	56.49
889.268	-27.48
889.44	38.06
889.611	-21.33
889.782	5.29
889.953	-62.29
890.125	48.3
890.296	-66.39
890.467	-78.68
890.638	7.34
890.809	-35.67
890.98	29.87
891.151	56.49
891.323	93.35
891.494	23.72
891.665	1.19
891.836	42.15
892.007	13.48
892.178	-11.09
892.349	40.11
892.52	29.87
892.691	15.53
892.862	5.29
893.032	-35.67
893.203	68.78
893.374	23.72
893.545	83.11
893.716	62.63
893.887	27.82
894.057	-4.95
894.228	-0.85
894.399	9.39
894.57	-33.62
894.74	48.3
894.911	101.55
895.082	13.48
895.253	13.48
895.423	-21.33
895.594	7.34
895.764	62.63
895.935	13.48
896.106	60.59
896.276	5.29
896.447	-13.14
896.617	38.06
896.788	-43.86
896.958	56.49
897.129	38.06
897.299	21.67
897.47	74.92
897.64	42.15
897.81	54.44
897.981	68.78
898.151	48.3
898.322	79.02
898.492	56.49
898.662	1.19
898.832	74.92
899.003	-15.19
899.173	27.82
899.343	-9.05
899.513	21.67
