Data from USB4F104151__90__13-13-11-688.txt Node

Date: Fri Mar 14 13:13:11 EDT 2025
User: louis
Spectrometer: USB4F10415
Trigger mode: 4
Integration Time (sec): 2.000000E-2
Scans to average: 1
Electric dark correction enabled: true
Nonlinearity correction enabled: false
Boxcar width: 0
XAxis mode: Wavelengths
Number of Pixels in Spectrum: 3648
>>>>>Begin Spectral Data<<<<<
178.204	-38.23
178.424	-38.23
178.644	-38.23
178.864	-111.96
179.084	-122.2
179.304	6.83
179.524	4.78
179.744	0.68
179.964	51.88
180.184	-32.08
180.404	2.73
180.624	33.45
180.844	-3.41
181.064	-19.8
181.283	25.26
181.503	-42.32
181.723	-27.99
181.943	-56.66
182.163	90.79
182.383	12.97
182.602	12.97
182.822	101.03
183.042	43.69
183.262	31.4
183.482	-52.56
183.701	8.87
183.921	33.45
184.141	-30.04
184.361	41.64
184.58	19.11
184.8	53.93
185.02	58.03
185.239	27.31
185.459	15.02
185.679	-13.65
185.898	39.59
186.118	12.97
186.338	98.99
186.557	-15.7
186.777	-7.51
186.997	15.02
187.216	-79.19
187.436	66.22
187.655	37.55
187.875	53.93
188.095	-48.47
188.314	23.21
188.534	12.97
188.753	31.4
188.973	17.07
189.192	41.64
189.412	-21.84
189.631	2.73
189.851	37.55
190.07	41.64
190.29	-30.04
190.509	-30.04
190.729	49.83
190.948	39.59
191.168	123.56
191.387	8.87
191.607	-40.28
191.826	12.97
192.045	-9.56
192.265	31.4
192.484	-13.65
192.704	-36.18
192.923	12.97
193.142	19.11
193.362	10.92
193.581	68.27
193.8	82.6
194.02	139.94
194.239	74.41
194.458	105.13
194.678	0.68
194.897	8.87
195.116	49.83
195.335	33.45
195.555	105.13
195.774	53.93
195.993	68.27
196.212	17.07
196.432	27.31
196.651	-21.84
196.87	4.78
197.089	21.16
197.308	-40.28
197.528	74.41
197.747	-62.8
197.966	68.27
198.185	51.88
198.404	58.03
198.623	58.03
198.842	33.45
199.062	45.74
199.281	47.79
199.5	72.36
199.719	43.69
199.938	-17.75
200.157	70.31
200.376	66.22
200.595	8.87
200.814	-7.51
201.033	-46.42
201.252	-7.51
201.471	29.35
201.69	74.41
201.909	27.31
202.128	-15.7
202.347	12.97
202.566	60.07
202.785	-11.61
203.004	49.83
203.223	154.28
203.442	33.45
203.661	-15.7
203.879	29.35
204.098	-3.41
204.317	17.07
204.536	-1.37
204.755	21.16
204.974	33.45
205.193	27.31
205.411	19.11
205.63	33.45
205.849	25.26
206.068	17.07
206.287	70.31
206.505	17.07
206.724	35.5
206.943	12.97
207.162	-9.56
207.381	-44.37
207.599	53.93
207.818	82.6
208.037	0.68
208.255	58.03
208.474	33.45
208.693	49.83
208.911	-21.84
209.13	-89.43
209.349	10.92
209.567	37.55
209.786	60.07
210.005	58.03
210.223	43.69
210.442	-9.56
210.661	10.92
210.879	-3.41
211.098	19.11
211.316	-23.89
211.535	41.64
211.753	29.35
211.972	2.73
212.191	68.27
212.409	41.64
212.628	98.99
212.846	0.68
213.065	-23.89
213.283	25.26
213.502	-73.04
213.72	25.26
213.938	17.07
214.157	41.64
214.375	31.4
214.594	-56.66
214.812	6.83
215.031	25.26
215.249	23.21
215.467	115.37
215.686	17.07
215.904	31.4
216.122	-15.7
216.341	74.41
216.559	-40.28
216.778	45.74
216.996	64.17
217.214	37.55
217.432	37.55
217.651	82.6
217.869	-21.84
218.087	68.27
218.306	-19.8
218.524	-46.42
218.742	51.88
218.96	33.45
219.179	-52.56
219.397	88.75
219.615	62.12
219.833	68.27
220.051	64.17
220.27	8.87
220.488	90.79
220.706	139.94
220.924	17.07
221.142	49.83
221.36	-32.08
221.578	41.64
221.796	58.03
222.015	51.88
222.233	-36.18
222.451	76.46
222.669	-11.61
222.887	17.07
223.105	45.74
223.323	-13.65
223.541	29.35
223.759	4.78
223.977	-25.94
224.195	60.07
224.413	23.21
224.631	29.35
224.849	33.45
225.067	98.99
225.285	19.11
225.503	51.88
225.721	25.26
225.939	41.64
226.157	-7.51
226.375	125.61
226.592	45.74
226.81	-9.56
227.028	-7.51
227.246	84.65
227.464	-50.52
227.682	-5.46
227.9	41.64
228.117	25.26
228.335	98.99
228.553	35.5
228.771	27.31
228.989	4.78
229.206	10.92
229.424	10.92
229.642	53.93
229.86	6.83
230.077	-3.41
230.295	33.45
230.513	-62.8
230.731	101.03
230.948	-30.04
231.166	47.79
231.384	90.79
231.601	2.73
231.819	39.59
232.037	-48.47
232.254	-27.99
232.472	-15.7
232.689	53.93
232.907	-30.04
233.125	88.75
233.342	27.31
233.56	60.07
233.777	-15.7
233.995	-7.51
234.213	35.5
234.43	-60.76
234.648	33.45
234.865	10.92
235.083	49.83
235.3	-54.61
235.518	6.83
235.735	90.79
235.953	125.61
236.17	-23.89
236.388	-73.04
236.605	45.74
236.822	113.32
237.04	17.07
237.257	-19.8
237.475	4.78
237.692	23.21
237.909	-56.66
238.127	-38.23
238.344	80.55
238.562	17.07
238.779	-40.28
238.996	23.21
239.214	0.68
239.431	15.02
239.648	-7.51
239.865	27.31
240.083	-11.61
240.3	25.26
240.517	17.07
240.735	23.21
240.952	2.73
241.169	47.79
241.386	49.83
241.603	33.45
241.821	-64.85
242.038	-25.94
242.255	53.93
242.472	76.46
242.689	107.18
242.907	68.27
243.124	55.98
243.341	51.88
243.558	-19.8
243.775	94.89
243.992	2.73
244.209	-36.18
244.426	76.46
244.643	115.37
244.86	-52.56
245.078	-40.28
245.295	17.07
245.512	39.59
245.729	6.83
245.946	8.87
246.163	-11.61
246.38	6.83
246.597	55.98
246.814	66.22
247.031	39.59
247.248	31.4
247.464	58.03
247.681	-19.8
247.898	49.83
248.115	31.4
248.332	23.21
248.549	88.75
248.766	-11.61
248.983	55.98
249.2	76.46
249.417	78.51
249.633	35.5
249.85	-21.84
250.067	-1.37
250.284	2.73
250.501	-7.51
250.717	47.79
250.934	12.97
251.151	-36.18
251.368	35.5
251.585	2.73
251.801	-32.08
252.018	-68.95
252.235	8.87
252.451	-77.14
252.668	-15.7
252.885	29.35
253.102	-40.28
253.318	113.32
253.535	-13.65
253.752	107.18
253.968	76.46
254.185	129.7
254.401	35.5
254.618	35.5
254.835	-36.18
255.051	35.5
255.268	-3.41
255.484	33.45
255.701	-3.41
255.917	27.31
256.134	-5.46
256.351	23.21
256.567	27.31
256.784	58.03
257	68.27
257.217	45.74
257.433	27.31
257.65	33.45
257.866	105.13
258.082	-40.28
258.299	2.73
258.515	29.35
258.732	2.73
258.948	8.87
259.165	45.74
259.381	15.02
259.597	35.5
259.814	8.87
260.03	43.69
260.246	4.78
260.463	41.64
260.679	10.92
260.895	17.07
261.112	70.31
261.328	119.46
261.544	41.64
261.761	27.31
261.977	41.64
262.193	47.79
262.409	2.73
262.626	35.5
262.842	49.83
263.058	37.55
263.274	25.26
263.49	-30.04
263.707	86.7
263.923	51.88
264.139	-36.18
264.355	-25.94
264.571	17.07
264.787	58.03
265.004	35.5
265.22	8.87
265.436	21.16
265.652	-5.46
265.868	37.55
266.084	-40.28
266.3	94.89
266.516	17.07
266.732	68.27
266.948	37.55
267.164	4.78
267.38	-30.04
267.596	41.64
267.812	41.64
268.028	27.31
268.244	-46.42
268.46	43.69
268.676	37.55
268.892	41.64
269.108	-68.95
269.324	-17.75
269.54	60.07
269.756	-19.8
269.972	-21.84
270.188	105.13
270.403	0.68
270.619	23.21
270.835	78.51
271.051	21.16
271.267	10.92
271.483	8.87
271.698	-11.61
271.914	92.84
272.13	-7.51
272.346	-5.46
272.562	45.74
272.777	-17.75
272.993	29.35
273.209	37.55
273.425	8.87
273.64	74.41
273.856	0.68
274.072	82.6
274.287	0.68
274.503	74.41
274.719	-44.37
274.934	29.35
275.15	-36.18
275.366	-1.37
275.581	15.02
275.797	53.93
276.012	55.98
276.228	12.97
276.444	41.64
276.659	43.69
276.875	8.87
277.09	-19.8
277.306	-17.75
277.521	41.64
277.737	8.87
277.952	47.79
278.168	-21.84
278.383	27.31
278.599	19.11
278.814	-27.99
279.03	41.64
279.245	82.6
279.461	64.17
279.676	25.26
279.892	4.78
280.107	37.55
280.322	19.11
280.538	51.88
280.753	43.69
280.969	23.21
281.184	60.07
281.399	96.94
281.615	60.07
281.83	8.87
282.045	21.16
282.26	51.88
282.476	62.12
282.691	66.22
282.906	55.98
283.122	41.64
283.337	-7.51
283.552	90.79
283.767	-21.84
283.983	-1.37
284.198	55.98
284.413	35.5
284.628	33.45
284.843	70.31
285.058	55.98
285.274	51.88
285.489	-52.56
285.704	41.64
285.919	-9.56
286.134	53.93
286.349	35.5
286.564	27.31
286.779	49.83
286.995	84.65
287.21	25.26
287.425	-11.61
287.64	66.22
287.855	68.27
288.07	12.97
288.285	68.27
288.5	25.26
288.715	25.26
288.93	27.31
289.145	-44.37
289.36	66.22
289.575	-30.04
289.79	-13.65
290.004	27.31
290.219	4.78
290.434	37.55
290.649	0.68
290.864	-25.94
291.079	4.78
291.294	8.87
291.509	21.16
291.724	70.31
291.938	19.11
292.153	80.55
292.368	76.46
292.583	-23.89
292.798	-3.41
293.012	82.6
293.227	10.92
293.442	-19.8
293.657	129.7
293.871	107.18
294.086	45.74
294.301	21.16
294.516	-9.56
294.73	39.59
294.945	-32.08
295.16	47.79
295.374	-13.65
295.589	43.69
295.804	35.5
296.018	80.55
296.233	-19.8
296.447	62.12
296.662	19.11
296.877	6.83
297.091	0.68
297.306	25.26
297.52	8.87
297.735	64.17
297.949	-25.94
298.164	49.83
298.378	15.02
298.593	-60.76
298.807	-23.89
299.022	27.31
299.236	-3.41
299.451	25.26
299.665	21.16
299.88	29.35
300.094	10.92
300.309	-5.46
300.523	72.36
300.737	23.21
300.952	43.69
301.166	25.26
301.381	-44.37
301.595	-11.61
301.809	-7.51
302.024	-27.99
302.238	0.68
302.452	55.98
302.667	0.68
302.881	92.84
303.095	-17.75
303.309	70.31
303.524	86.7
303.738	35.5
303.952	27.31
304.166	41.64
304.381	-5.46
304.595	84.65
304.809	39.59
305.023	76.46
305.237	25.26
305.452	-19.8
305.666	0.68
305.88	45.74
306.094	23.21
306.308	62.12
306.522	84.65
306.736	47.79
306.95	19.11
307.164	-73.04
307.379	4.78
307.593	80.55
307.807	43.69
308.021	-15.7
308.235	-40.28
308.449	10.92
308.663	29.35
308.877	41.64
309.091	84.65
309.305	33.45
309.519	25.26
309.733	25.26
309.947	49.83
310.161	23.21
310.374	78.51
310.588	17.07
310.802	58.03
311.016	41.64
311.23	49.83
311.444	-95.57
311.658	41.64
311.872	58.03
312.085	51.88
312.299	4.78
312.513	10.92
312.727	2.73
312.941	-15.7
313.154	45.74
313.368	-21.84
313.582	0.68
313.796	58.03
314.009	-3.41
314.223	90.79
314.437	-32.08
314.651	33.45
314.864	8.87
315.078	39.59
315.292	62.12
315.505	6.83
315.719	17.07
315.933	8.87
316.146	0.68
316.36	-7.51
316.573	107.18
316.787	2.73
317.001	-5.46
317.214	-32.08
317.428	58.03
317.641	-48.47
317.855	49.83
318.068	70.31
318.282	-73.04
318.495	66.22
318.709	19.11
318.922	62.12
319.136	31.4
319.349	39.59
319.563	10.92
319.776	2.73
319.99	12.97
320.203	-15.7
320.417	35.5
320.63	23.21
320.843	101.03
321.057	17.07
321.27	51.88
321.483	0.68
321.697	109.23
321.91	27.31
322.124	94.89
322.337	6.83
322.55	27.31
322.763	-32.08
322.977	49.83
323.19	15.02
323.403	76.46
323.617	37.55
323.83	49.83
324.043	-7.51
324.256	-3.41
324.469	8.87
324.683	33.45
324.896	64.17
325.109	25.26
325.322	-21.84
325.535	88.75
325.748	27.31
325.962	-17.75
326.175	-9.56
326.388	-5.46
326.601	96.94
326.814	49.83
327.027	33.45
327.24	68.27
327.453	-44.37
327.666	8.87
327.879	127.66
328.092	-7.51
328.305	-34.13
328.518	12.97
328.731	-36.18
328.944	17.07
329.157	53.93
329.37	53.93
329.583	33.45
329.796	8.87
330.009	-7.51
330.222	27.31
330.435	82.6
330.648	-40.28
330.861	80.55
331.073	10.92
331.286	-7.51
331.499	17.07
331.712	31.4
331.925	49.83
332.138	33.45
332.35	82.6
332.563	60.07
332.776	84.65
332.989	6.83
333.202	10.92
333.414	-1.37
333.627	10.92
333.84	41.64
334.053	84.65
334.265	-19.8
334.478	37.55
334.691	47.79
334.903	74.41
335.116	-3.41
335.329	51.88
335.541	47.79
335.754	29.35
335.966	19.11
336.179	8.87
336.392	29.35
336.604	49.83
336.817	58.03
337.029	-17.75
337.242	-19.8
337.454	10.92
337.667	21.16
337.88	45.74
338.092	33.45
338.305	51.88
338.517	72.36
338.729	72.36
338.942	76.46
339.154	49.83
339.367	0.68
339.579	107.18
339.792	27.31
340.004	115.37
340.217	-3.41
340.429	-5.46
340.641	-7.51
340.854	8.87
341.066	-23.89
341.278	60.07
341.491	33.45
341.703	68.27
341.915	-27.99
342.128	60.07
342.34	4.78
342.552	19.11
342.764	43.69
342.977	25.26
343.189	-30.04
343.401	-5.46
343.613	47.79
343.826	37.55
344.038	0.68
344.25	25.26
344.462	-40.28
344.674	19.11
344.886	74.41
345.099	51.88
345.311	58.03
345.523	2.73
345.735	6.83
345.947	101.03
346.159	15.02
346.371	-25.94
346.583	41.64
346.795	82.6
347.007	23.21
347.219	58.03
347.431	23.21
347.643	45.74
347.855	12.97
348.067	101.03
348.279	-19.8
348.491	8.87
348.703	68.27
348.915	41.64
349.127	-73.04
349.339	-7.51
349.551	10.92
349.763	88.75
349.975	55.98
350.187	53.93
350.399	-5.46
350.61	10.92
350.822	60.07
351.034	41.64
351.246	-19.8
351.458	17.07
351.669	121.51
351.881	53.93
352.093	78.51
352.305	90.79
352.517	0.68
352.728	41.64
352.94	58.03
353.152	-1.37
353.363	31.4
353.575	-34.13
353.787	72.36
353.999	-42.32
354.21	92.84
354.422	90.79
354.633	53.93
354.845	53.93
355.057	10.92
355.268	115.37
355.48	43.69
355.692	19.11
355.903	-25.94
356.115	27.31
356.326	-126.29
356.538	8.87
356.749	17.07
356.961	47.79
357.172	72.36
357.384	-11.61
357.595	19.11
357.807	33.45
358.018	-23.89
358.23	12.97
358.441	49.83
358.653	0.68
358.864	29.35
359.075	-36.18
359.287	0.68
359.498	53.93
359.709	53.93
359.921	19.11
360.132	113.32
360.344	43.69
360.555	53.93
360.766	15.02
360.977	0.68
361.189	2.73
361.4	64.17
361.611	60.07
361.823	-21.84
362.034	49.83
362.245	-44.37
362.456	8.87
362.667	37.55
362.879	35.5
363.09	66.22
363.301	10.92
363.512	35.5
363.723	2.73
363.935	51.88
364.146	55.98
364.357	33.45
364.568	21.16
364.779	-1.37
364.99	17.07
365.201	12.97
365.412	41.64
365.623	8.87
365.834	-13.65
366.045	-85.33
366.256	60.07
366.467	45.74
366.678	21.16
366.889	131.75
367.1	10.92
367.311	47.79
367.522	60.07
367.733	27.31
367.944	33.45
368.155	41.64
368.366	-58.71
368.577	25.26
368.788	82.6
368.999	-21.84
369.209	58.03
369.42	92.84
369.631	66.22
369.842	45.74
370.053	2.73
370.264	-15.7
370.474	17.07
370.685	29.35
370.896	35.5
371.107	78.51
371.317	23.21
371.528	-34.13
371.739	78.51
371.95	78.51
372.16	51.88
372.371	53.93
372.582	60.07
372.792	78.51
373.003	53.93
373.214	76.46
373.424	29.35
373.635	10.92
373.846	49.83
374.056	68.27
374.267	-21.84
374.477	25.26
374.688	-3.41
374.898	23.21
375.109	58.03
375.319	25.26
375.53	62.12
375.74	74.41
375.951	-23.89
376.161	49.83
376.372	60.07
376.582	55.98
376.793	-1.37
377.003	45.74
377.214	33.45
377.424	72.36
377.635	41.64
377.845	17.07
378.055	98.99
378.266	27.31
378.476	76.46
378.686	21.16
378.897	109.23
379.107	41.64
379.317	109.23
379.528	-3.41
379.738	-21.84
379.948	25.26
380.158	58.03
380.369	25.26
380.579	12.97
380.789	15.02
380.999	74.41
381.21	37.55
381.42	148.14
381.63	12.97
381.84	82.6
382.05	53.93
382.261	84.65
382.471	19.11
382.681	-77.14
382.891	86.7
383.101	76.46
383.311	27.31
383.521	-19.8
383.731	33.45
383.941	98.99
384.151	94.89
384.361	66.22
384.571	10.92
384.781	60.07
384.991	107.18
385.201	88.75
385.411	-5.46
385.621	82.6
385.831	68.27
386.041	29.35
386.251	-75.09
386.461	103.08
386.671	21.16
386.881	43.69
387.091	49.83
387.301	107.18
387.511	55.98
387.72	86.7
387.93	39.59
388.14	29.35
388.35	2.73
388.56	27.31
388.769	64.17
388.979	53.93
389.189	29.35
389.399	-13.65
389.609	-27.99
389.818	109.23
390.028	23.21
390.238	19.11
390.447	66.22
390.657	-25.94
390.867	6.83
391.076	-54.61
391.286	103.08
391.496	88.75
391.705	2.73
391.915	58.03
392.125	92.84
392.334	0.68
392.544	41.64
392.753	-30.04
392.963	0.68
393.172	92.84
393.382	-23.89
393.591	92.84
393.801	23.21
394.01	62.12
394.22	109.23
394.429	-23.89
394.639	-5.46
394.848	88.75
395.058	86.7
395.267	41.64
395.477	58.03
395.686	27.31
395.895	86.7
396.105	80.55
396.314	76.46
396.524	70.31
396.733	15.02
396.942	64.17
397.152	82.6
397.361	96.94
397.57	96.94
397.78	33.45
397.989	80.55
398.198	90.79
398.407	88.75
398.617	-11.61
398.826	27.31
399.035	60.07
399.244	101.03
399.453	92.84
399.663	117.42
399.872	-9.56
400.081	64.17
400.29	60.07
400.499	49.83
400.708	82.6
400.917	33.45
401.127	172.71
401.336	74.41
401.545	115.37
401.754	74.41
401.963	66.22
402.172	66.22
402.381	70.31
402.59	49.83
402.799	45.74
403.008	82.6
403.217	8.87
403.426	86.7
403.635	74.41
403.844	60.07
404.053	51.88
404.262	80.55
404.471	123.56
404.68	152.23
404.888	117.42
405.097	189.1
405.306	101.03
405.515	123.56
405.724	154.28
405.933	53.93
406.142	205.48
406.35	154.28
406.559	121.51
406.768	64.17
406.977	109.23
407.185	164.52
407.394	84.65
407.603	88.75
407.812	123.56
408.02	135.85
408.229	182.95
408.438	182.95
408.646	160.42
408.855	168.62
409.064	187.05
409.272	174.76
409.481	260.77
409.69	150.18
409.898	189.1
410.107	232.1
410.315	221.86
410.524	219.82
410.733	189.1
410.941	291.49
411.15	271.01
411.358	283.3
411.567	273.06
411.775	254.63
411.984	309.93
412.192	336.55
412.401	289.45
412.609	369.32
412.818	352.93
413.026	346.79
413.234	307.88
413.443	305.83
413.651	375.46
413.86	348.84
414.068	402.08
414.276	391.84
414.485	492.2
414.693	418.47
414.901	461.48
415.11	375.46
415.318	516.77
415.526	486.05
415.734	484
415.943	586.4
416.151	570.02
416.359	553.63
416.567	543.39
416.776	606.88
416.984	647.84
417.192	645.79
417.4	619.17
417.608	688.8
417.817	731.81
418.025	717.47
418.233	731.81
418.441	770.72
418.649	805.53
418.857	840.35
419.065	869.02
419.273	860.83
419.481	940.7
419.689	879.26
419.897	955.04
420.105	1004.19
420.313	979.61
420.521	1120.92
420.729	1143.45
420.937	1182.36
421.145	1215.13
421.353	1176.22
421.561	1280.66
421.769	1383.06
421.977	1358.49
422.185	1487.51
422.393	1364.63
422.601	1598.1
422.809	1499.8
423.017	1518.23
423.224	1544.85
423.432	1604.24
423.64	1673.87
423.848	1714.83
424.056	1751.7
424.263	1958.54
424.471	1954.44
424.679	2022.03
424.887	2181.77
425.094	2069.13
425.302	2155.15
425.51	2204.3
425.718	2286.22
425.925	2384.52
426.133	2298.5
426.341	2540.16
426.548	2613.89
426.756	2552.45
426.964	2599.56
427.171	2826.88
427.379	2873.98
427.586	2957.95
427.794	3183.23
428.001	3142.27
428.209	3410.55
428.417	3359.35
428.624	3512.95
428.832	3465.85
429.039	3539.57
429.247	3459.7
429.454	3822.19
429.662	4139.63
429.869	3859.06
430.076	4033.13
430.284	4084.33
430.491	4098.67
430.699	4328.04
430.906	4358.76
431.114	4389.48
431.321	4569.7
431.528	4688.48
431.736	4924
431.943	5136.99
432.15	4962.91
432.358	5323.35
432.565	5386.84
432.772	5489.24
432.979	5798.48
433.187	5798.48
433.394	5778
433.601	6003.28
433.808	6169.16
434.016	6298.19
434.223	6302.28
434.43	6857.28
434.637	6634.05
434.844	7049.79
435.052	7225.92
435.259	7215.68
435.466	7123.52
435.673	7209.53
435.88	7696.95
436.087	8061.49
436.294	8112.69
436.501	7881.27
436.708	7891.51
436.915	8223.28
437.122	8722.98
437.329	8561.19
437.537	8845.86
437.743	9007.65
437.95	9130.53
438.157	9490.97
438.364	9925.14
438.571	9738.77
438.778	9867.8
438.985	10359.31
439.192	10494.47
439.399	10715.66
439.606	10306.06
439.813	11213.31
440.02	11555.32
440.227	11545.08
440.433	11430.4
440.64	11819.51
440.847	11727.35
441.054	12040.69
441.261	12917.22
441.467	12534.25
441.674	12780.01
441.881	13457.89
442.088	13269.47
442.294	13273.57
442.501	13562.33
442.708	13720.03
442.914	14432.72
443.121	14891.46
443.328	14488.01
443.534	15616.44
443.741	15387.07
443.948	14944.71
444.154	16052.66
444.361	15913.4
444.568	16044.47
444.774	15819.19
444.981	16390.58
445.187	16763.31
445.394	17310.11
445.6	17117.61
445.807	19194.25
446.013	18123.16
446.22	18467.22
446.426	19147.14
446.633	19333.51
446.839	20027.77
447.046	19278.21
447.252	20205.94
447.459	20345.2
447.665	20255.09
447.871	21490.02
448.078	22233.43
448.284	21031.27
448.491	21842.27
448.697	22610.26
448.903	23019.85
449.11	23064.91
449.316	22194.52
449.522	23052.62
449.728	23888.19
449.935	23820.61
450.141	23822.66
450.347	24471.86
450.553	23867.71
450.76	24211.77
450.966	25172.27
451.172	24695.09
451.378	25442.6
451.584	24903.98
451.791	25395.5
451.997	25538.85
452.203	25688.35
452.409	25762.08
452.615	25712.93
452.821	24662.32
453.027	24418.61
453.233	25714.98
453.44	24734
453.646	25092.4
453.852	25293.1
454.058	25555.24
454.264	24946.99
454.47	25526.57
454.676	24695.09
454.882	25745.7
455.088	23843.13
455.294	23810.37
455.5	24310.07
455.705	24707.38
455.911	23578.95
456.117	23103.82
456.323	22681.94
456.529	21432.68
456.735	22665.55
456.941	21942.62
457.147	21578.08
457.352	20910.44
457.558	20584.82
457.764	20767.09
457.97	20562.29
458.176	20142.46
458.381	19976.57
458.587	18909.58
458.793	18827.66
458.999	18268.56
459.204	19509.63
459.41	18860.43
459.616	17582.49
459.821	17686.94
460.027	17725.85
460.233	17002.92
460.438	16400.82
460.644	16503.21
460.85	15704.51
461.055	15612.35
461.261	15376.83
461.466	14363.09
461.672	14000.6
461.878	14651.85
462.083	13808.09
462.289	13615.58
462.494	13554.14
462.7	13101.54
462.905	12413.42
463.111	12808.68
463.316	13076.96
463.522	12882.41
463.727	12605.93
463.932	12802.54
464.138	12532.2
464.343	12485.1
464.549	12337.65
464.754	12769.77
464.959	12413.42
465.165	12524.01
465.37	12055.03
465.575	11696.63
465.781	12147.19
465.986	12085.75
466.191	11631.1
466.397	11522.55
466.602	10881.54
466.807	11336.19
467.012	11620.86
467.218	11237.89
467.423	11115.01
467.628	11162.11
467.833	11692.54
468.038	11205.12
468.244	10863.11
468.449	11395.58
468.654	11108.87
468.859	10947.08
469.064	10981.89
469.269	10416.65
469.474	10590.73
469.679	10813.96
469.885	10531.34
470.09	10580.49
470.295	10506.76
470.5	10209.81
470.705	10187.28
470.91	10205.71
471.115	9982.48
471.32	10201.61
471.525	10015.25
471.73	9767.45
471.935	9904.66
472.139	9581.08
472.344	9568.79
472.549	9513.5
472.754	9398.81
472.959	9261.6
473.164	8972.83
473.369	8866.34
473.574	9294.36
473.778	9261.6
473.983	9009.7
474.188	8983.07
474.393	8786.47
474.598	8768.04
474.802	8391.21
475.007	8630.82
475.212	8630.82
475.417	8315.44
475.621	8315.44
475.826	8340.01
476.031	8133.17
476.235	8069.68
476.44	8200.75
476.645	8065.58
476.849	8014.38
477.054	7897.65
477.259	7754.29
477.463	7647.8
477.668	7572.02
477.872	7703.09
478.077	7291.45
478.282	7035.46
478.486	7316.03
478.691	7330.36
478.895	7182.91
479.1	7277.12
479.304	7117.37
479.509	6738.5
479.713	7182.91
479.918	6906.43
480.122	6654.53
480.326	6916.67
480.531	6883.91
480.735	6705.73
480.94	6769.22
481.144	7094.85
481.348	6693.44
481.553	6560.33
481.757	6582.85
481.961	6816.32
482.166	6738.5
482.37	6943.3
482.574	6603.33
482.778	6632.01
482.983	6838.85
483.187	6578.76
483.391	6564.42
483.595	6552.13
483.8	6758.98
484.004	6695.49
484.208	6720.07
484.412	6726.21
484.616	6644.29
484.821	6697.54
485.025	6656.58
485.229	6746.69
485.433	6607.43
485.637	6584.9
485.841	6470.22
486.045	6597.19
486.249	6664.77
486.453	6439.5
486.657	6621.77
486.861	6742.6
487.065	6408.78
487.269	6490.7
487.473	6492.74
487.677	6713.92
487.881	6654.53
488.085	6472.26
488.289	6730.31
488.493	6578.76
488.697	6713.92
488.901	6746.69
489.105	6707.78
489.309	6613.57
489.512	6722.12
489.716	6758.98
489.92	6623.81
490.124	6756.93
490.328	6949.44
490.531	6742.6
490.735	6849.09
490.939	6718.02
491.143	6744.64
491.346	6818.37
491.55	6801.99
491.754	6851.14
491.958	6894.15
492.161	7033.41
492.365	7037.5
492.569	6941.25
492.772	7053.89
492.976	7084.61
493.18	7057.98
493.383	7158.33
493.587	7176.77
493.79	7213.63
493.994	7279.16
494.197	7141.95
494.401	7502.39
494.605	7393.85
494.808	7416.38
495.012	7373.37
495.215	7565.88
495.419	7703.09
495.622	7651.89
495.825	7584.31
496.029	7699
496.232	7868.98
496.436	7813.68
496.639	8030.77
496.843	8090.16
497.046	8055.34
497.249	8208.94
497.453	8116.78
497.656	8411.69
497.859	8323.63
498.063	8309.29
498.266	8516.14
498.469	8561.19
498.673	8774.18
498.876	8983.07
499.079	8978.98
499.282	8905.25
499.485	9108
499.689	9019.94
499.892	9380.38
500.095	9357.85
500.298	9626.14
500.501	9316.89
500.705	9622.04
500.908	9773.59
501.111	9896.47
501.314	10023.44
501.517	10236.43
501.72	10353.16
501.923	10377.74
502.126	10396.17
502.329	10611.21
502.532	10635.78
502.735	10617.35
502.938	10770.95
503.141	10899.97
503.344	11065.86
503.547	11305.47
503.75	11405.82
503.953	11418.11
504.156	11710.97
504.359	11665.91
504.562	11747.83
504.765	11977.2
504.968	12169.71
505.17	12405.23
505.373	12222.96
505.576	12726.76
505.779	12845.54
505.982	12696.04
506.185	13195.75
506.387	13038.05
506.59	13119.97
506.793	13531.61
506.996	13328.86
507.198	13599.2
507.401	13615.58
507.604	14014.93
507.807	13982.17
508.009	14217.68
508.212	14307.79
508.415	14666.19
508.617	14555.6
508.82	14776.78
509.022	14686.67
509.225	14991.81
509.428	15032.77
509.63	15382.98
509.833	15417.79
510.035	15757.75
510.238	15747.51
510.44	16046.52
510.643	16370.1
510.845	16357.81
511.048	16476.59
511.25	16576.94
511.453	16972.2
511.655	17211.81
511.858	17226.15
512.06	17133.99
512.262	17185.19
512.465	17576.35
512.667	17670.56
512.87	17869.21
513.072	17830.3
513.274	18289.04
513.477	18416.02
513.679	18350.48
513.881	19077.51
514.084	19009.93
514.286	19145.09
514.488	19100.04
514.69	19655.04
514.893	19716.48
515.095	19708.29
515.297	20207.99
515.499	20150.65
515.701	20189.56
515.904	20621.68
516.106	20595.06
516.308	21086.57
516.51	21236.07
516.712	21342.56
516.914	21700.96
517.116	21799.26
517.318	21963.1
517.52	22088.03
517.722	22221.14
517.925	22544.72
518.127	22933.84
518.329	23212.36
518.531	22772.05
518.733	23228.74
518.935	23599.43
519.136	23701.83
519.338	23974.2
519.54	23941.44
519.742	24391.99
519.944	24447.29
520.146	24717.62
520.348	24944.94
520.55	25022.76
520.752	25188.65
520.954	25690.4
521.155	25547.04
521.357	25848.1
521.559	26007.84
521.761	26259.74
521.963	26274.07
522.164	26587.41
522.366	26855.7
522.568	26822.93
522.77	27443.46
522.971	27582.73
523.173	27040.01
523.375	27805.95
523.576	27656.45
523.778	27848.96
523.98	28088.57
524.181	28424.44
524.383	28465.4
524.584	28600.57
524.786	28817.65
524.988	28776.69
525.189	28991.73
525.391	29567.21
525.592	29763.81
525.794	29655.27
525.995	29477.1
526.197	29909.22
526.398	29794.53
526.6	29890.79
526.801	30173.41
527.003	30136.54
527.204	30386.4
527.406	30572.76
527.607	30329.05
527.808	30865.62
528.01	30511.32
528.211	30761.17
528.412	31240.4
528.614	31402.19
528.815	31054.03
529.016	31551.69
529.218	31332.56
529.419	31506.63
529.62	31498.44
529.822	31578.31
530.023	32121.02
530.224	31815.88
530.425	31819.97
530.626	31785.16
530.828	31492.3
531.029	32473.28
531.23	31869.12
531.431	32178.37
531.632	32125.12
531.833	32215.23
532.035	32385.21
532.236	32102.59
532.437	32372.92
532.638	32088.26
532.839	32577.72
533.04	32661.69
533.241	32331.97
533.442	32895.16
533.643	32708.79
533.844	32708.79
534.045	32882.87
534.246	32112.83
534.447	32862.39
534.648	32893.11
534.849	32712.89
535.05	32602.3
535.251	32739.51
535.451	32800.95
535.652	32856.25
535.853	32544.95
536.054	32958.64
536.255	33030.32
536.456	32377.02
536.657	33194.16
536.857	32428.22
537.058	32510.14
537.259	33054.9
537.46	32901.3
537.66	32854.2
537.861	32583.87
538.062	32688.31
538.263	33093.81
538.463	32555.19
538.664	33032.37
538.865	32714.94
539.065	33011.89
539.266	32780.47
539.466	32833.72
539.667	32678.07
539.868	32813.24
540.068	33046.71
540.269	32972.98
540.469	33118.39
540.67	32999.6
540.87	32792.76
541.071	32977.08
541.271	32700.6
541.472	32848.05
541.672	32606.39
541.873	33026.23
542.073	32135.36
542.274	32889.01
542.474	32684.22
542.675	32495.8
542.875	32872.63
543.075	32807.09
543.276	32186.56
543.476	33040.56
543.676	32676.02
543.877	32774.33
544.077	33099.95
544.277	32710.84
544.478	32696.5
544.678	32653.5
544.878	33015.99
545.078	32759.99
545.279	32686.26
545.479	32495.8
545.679	32655.54
545.879	32841.91
546.079	32481.47
546.28	32815.29
546.48	32698.55
546.68	32813.24
546.88	32983.22
547.08	32643.26
547.28	32506.04
547.48	32352.44
547.68	32796.85
547.88	32600.25
548.081	32768.18
548.281	32420.03
548.481	32338.11
548.681	32983.22
548.881	32536.76
549.081	32555.19
549.28	32274.62
549.48	32975.03
549.68	32503.99
549.88	32803
550.08	32258.24
550.28	32424.12
550.48	32323.77
550.68	32542.91
550.88	32315.58
551.08	32278.72
551.279	32571.58
551.479	32342.21
551.679	32510.14
551.879	32411.84
552.079	32749.75
552.278	32268.48
552.478	32327.87
552.678	32448.7
552.878	32624.82
553.077	32342.21
553.277	31979.71
553.477	32819.38
553.676	32057.54
553.876	32356.54
554.076	32237.76
554.275	32352.44
554.475	31584.46
554.674	32180.42
554.874	32071.87
555.074	31848.64
555.273	31867.08
555.473	32055.49
555.672	31781.06
555.872	31611.08
556.071	31942.85
556.271	32202.94
556.47	31979.71
556.67	31922.37
556.869	31604.94
557.068	31887.56
557.268	31389.9
557.467	31807.69
557.667	31721.67
557.866	31506.63
558.065	31531.21
558.265	31494.35
558.464	31195.34
558.663	31713.48
558.863	31154.38
559.062	31420.62
559.261	30775.51
559.461	31703.24
559.66	30935.25
559.859	31316.17
560.058	30992.59
560.258	31027.41
560.457	30935.25
560.656	31234.25
560.855	31031.51
561.054	31338.7
561.253	30499.03
561.453	30779.6
561.652	30763.22
561.851	30988.5
562.05	30726.36
562.249	30607.58
562.448	30738.65
562.647	30286.04
562.846	30583
563.045	30558.42
563.244	30003.42
563.443	30544.09
563.642	30114.02
563.841	30363.87
564.04	29800.68
564.239	30273.76
564.438	29898.98
564.637	30140.64
564.836	30261.47
565.035	29886.69
565.234	30101.73
565.432	29485.29
565.631	29470.95
565.83	29489.38
566.029	29300.97
566.228	29442.28
566.427	29194.48
566.625	29065.46
566.824	28811.51
567.023	29333.74
567.222	28762.36
567.42	29317.36
567.619	28956.91
567.818	28836.08
568.016	28815.6
568.215	28752.12
568.414	28842.23
568.612	29229.29
568.811	28487.93
569.01	28637.43
569.208	28369.15
569.407	28526.84
569.605	27887.87
569.804	28588.28
570.002	27738.37
570.201	28262.65
570.4	27633.92
570.598	27691.27
570.797	27906.3
570.995	27482.38
571.193	27547.91
571.392	27707.65
571.59	27443.46
571.789	27609.35
571.987	27590.92
572.186	27250.95
572.384	26949.9
572.582	27371.78
572.781	27431.18
572.979	26876.18
573.177	27101.45
573.376	27146.51
573.574	26915.09
573.772	26857.74
573.971	26763.54
574.169	26607.89
574.367	26198.3
574.565	26427.67
574.763	26276.12
574.962	26091.8
575.16	25993.5
575.358	26188.06
575.556	26085.66
575.754	26659.09
575.952	25479.46
576.151	26192.15
576.349	25891.1
576.547	25692.45
576.745	25909.54
576.943	25764.13
577.141	25559.33
577.339	25674.02
577.537	25202.99
577.735	25454.89
577.933	25119.02
578.131	25223.47
578.329	24971.57
578.527	25362.73
578.725	24987.95
578.923	25334.06
579.121	24731.95
579.319	24758.58
579.516	24805.68
579.714	24695.09
579.912	24566.07
580.11	24500.53
580.308	24494.39
580.506	24473.91
580.704	24201.53
580.901	24314.17
581.099	24586.55
581.297	24385.85
581.495	24185.15
581.692	24322.36
581.89	23750.98
582.088	23929.15
582.285	23783.74
582.483	24043.84
582.681	23904.57
582.878	23417.16
583.076	23494.98
583.274	23462.21
583.471	23478.6
583.669	23564.61
583.866	23398.73
584.064	23122.25
584.262	23056.71
584.459	23474.5
584.657	23075.15
584.854	22956.36
585.052	22638.93
585.249	23087.43
585.447	23236.94
585.644	22552.91
585.841	22864.21
586.039	22813.01
586.236	22491.48
586.434	22724.94
586.631	22626.64
586.828	22241.62
587.026	22456.66
587.223	22040.92
587.42	22165.85
587.618	22301.01
587.815	21961.05
588.012	22034.78
588.21	21848.41
588.407	22208.86
588.604	21746.01
588.801	21545.31
588.999	21801.31
589.196	21733.73
589.393	21565.79
589.59	21389.67
589.787	21576.03
589.984	21361
590.182	21090.66
590.379	21408.1
590.576	20973.93
590.773	21375.33
590.97	21193.06
591.167	21168.49
591.364	20855.15
591.561	21086.57
591.758	20898.16
591.955	21012.84
592.152	20789.61
592.349	20859.24
592.546	20453.75
592.743	20359.54
592.94	20373.88
593.137	20392.31
593.334	20302.2
593.531	20232.57
593.727	20459.89
593.924	20506.99
594.121	19818.88
594.318	20287.86
594.515	20076.92
594.712	19954.04
594.908	20040.06
595.105	20281.72
595.302	19835.26
595.499	19911.03
595.696	19575.17
595.892	19825.02
596.089	19493.25
596.286	19517.82
596.482	19677.57
596.679	19239.3
596.876	19061.13
597.072	19290.5
597.269	19442.05
597.466	19192.2
597.662	19130.76
597.859	19032.46
598.055	18993.54
598.252	19020.17
598.448	18735.5
598.645	18901.39
598.841	18540.94
599.038	18831.76
599.234	18704.78
599.431	18696.59
599.627	18674.06
599.824	18831.76
600.02	18508.18
600.217	18469.26
600.413	18379.15
600.609	18188.69
600.806	18200.98
601.002	18383.25
601.198	18262.42
601.395	17957.27
601.591	17992.09
601.787	18166.17
601.984	17926.55
602.18	18143.64
602.376	17672.6
602.572	17926.55
602.769	17670.56
602.965	17711.52
603.161	17621.41
603.357	17570.21
603.553	17602.97
603.75	17455.52
603.946	17373.6
604.142	17312.16
604.338	17138.09
604.534	17177
604.73	17187.24
604.926	17050.02
605.122	17168.8
605.318	17263.01
605.514	17023.4
605.71	16753.07
605.906	16867.75
606.102	16841.13
606.298	16785.83
606.494	17117.61
606.69	16880.04
606.886	17043.88
607.082	16523.69
607.278	16724.4
607.474	16464.3
607.67	16576.94
607.866	16470.45
608.062	16615.85
608.257	16429.49
608.453	16511.41
608.649	16503.21
608.845	16251.31
609.041	16458.16
609.236	16382.38
609.432	16126.39
609.628	16265.65
609.824	15958.46
610.019	16101.81
610.215	15956.41
610.411	15923.64
610.606	16050.61
610.802	15903.16
610.998	15919.54
611.193	15880.63
611.389	15927.74
611.584	15591.87
611.78	15540.67
611.976	15450.56
612.171	15606.2
612.367	15360.45
612.562	15555.01
612.758	15464.89
612.953	15286.72
613.149	15606.2
613.344	15491.52
613.539	15464.89
613.735	15210.95
613.93	15313.35
614.126	15317.44
614.321	15593.92
614.517	15382.98
614.712	15417.79
614.907	15075.78
615.103	15219.14
615.298	14952.9
615.493	15196.61
615.688	14823.88
615.884	15280.58
616.079	14961.09
616.274	14862.79
616.47	15131.08
616.665	14778.83
616.86	14641.61
617.055	14852.55
617.25	14768.59
617.445	14844.36
617.641	14582.22
617.836	14684.62
618.031	14664.14
618.226	14803.4
618.421	14608.84
618.616	14664.14
618.811	14375.38
619.006	14641.61
619.201	14094.8
619.396	14100.95
619.591	14162.39
619.786	14412.24
619.981	14076.37
620.176	14275.02
620.371	13865.43
620.566	13973.97
620.761	13836.76
620.956	14047.7
621.151	13803.99
621.346	14049.75
621.541	13756.89
621.735	13857.24
621.93	13427.17
622.125	13492.7
622.32	13212.13
622.515	13281.76
622.709	13093.35
622.904	13236.7
623.099	13185.51
623.294	13105.63
623.488	13001.19
623.683	13119.97
623.878	12831.21
624.072	12954.09
624.267	12837.35
624.462	12638.7
624.656	12419.57
624.851	12552.68
625.046	12650.99
625.24	12556.78
625.435	12503.53
625.629	12222.96
625.824	12237.3
626.018	12227.06
626.213	11786.74
626.407	11870.71
626.602	12083.7
626.796	11897.33
626.991	11811.32
627.185	11850.23
627.38	11676.15
627.574	11756.02
627.768	11391.48
627.963	11555.32
628.157	11446.78
628.352	11403.77
628.546	11293.18
628.74	11342.33
628.935	11203.07
629.129	11282.94
629.323	10969.6
629.517	11151.87
629.712	11074.05
629.906	10910.21
630.1	10856.97
630.294	11078.15
630.489	10883.59
630.683	10871.3
630.877	10623.5
631.071	10539.53
631.265	10615.3
631.459	10402.32
631.653	10439.18
631.848	10406.41
632.042	10342.92
632.236	10498.57
632.43	10236.43
632.624	10170.9
632.818	10103.31
633.012	10029.59
633.206	9982.48
633.4	9859.6
633.594	9781.78
633.788	9916.95
633.982	9941.52
634.176	10011.15
634.369	9634.33
634.563	9808.41
634.757	9669.14
634.951	9763.35
635.145	9445.91
635.339	9601.56
635.533	9435.67
635.726	9503.26
635.92	9349.66
636.114	9337.37
636.308	9218.59
636.501	9046.56
636.695	9253.41
636.889	9185.82
637.083	8942.11
637.276	9134.62
637.47	9120.29
637.664	9001.51
637.857	9034.27
638.051	8983.07
638.244	8876.58
638.438	8731.17
638.632	8913.44
638.825	8544.81
639.019	8432.17
639.212	8407.59
639.406	8528.42
639.599	8585.77
639.793	8522.28
639.986	8079.92
640.18	8176.17
640.373	8403.5
640.567	8423.98
640.76	8331.82
640.954	8178.22
641.147	8079.92
641.34	8116.78
641.534	8239.66
641.727	8053.3
641.92	8159.79
642.114	7846.45
642.307	7799.35
642.5	7701.05
642.694	7666.23
642.887	7639.61
643.08	8008.24
643.273	7680.57
643.467	7713.33
643.66	7543.35
643.853	7406.14
644.046	7483.96
644.239	7563.83
644.432	7295.55
644.626	7256.64
644.819	7246.4
645.012	7498.3
645.205	7174.72
645.398	7340.6
645.591	7320.12
645.784	7084.61
645.977	7146.05
646.17	7062.08
646.363	6931.01
646.556	6900.29
646.749	6941.25
646.942	7053.89
647.135	6851.14
647.328	6761.03
647.521	6863.43
647.714	6756.93
647.907	6668.87
648.099	6713.92
648.292	6718.02
648.485	6746.69
648.678	6498.89
648.871	6531.65
649.064	6613.57
649.256	6466.12
649.449	6365.77
649.642	6376.01
649.835	6359.63
650.027	6388.3
650.22	6404.68
650.413	6343.24
650.605	6345.29
650.798	6255.18
650.991	6124.11
651.183	6115.92
651.376	6066.77
651.568	6091.34
651.761	6042.19
651.954	5866.07
652.146	6093.39
652.339	6052.43
652.531	6093.39
652.724	5900.88
652.916	5759.57
653.109	5931.6
653.301	5898.83
653.494	5947.98
653.686	5636.69
653.879	5761.62
654.071	5737.04
654.263	5683.8
654.456	5636.69
654.648	5630.55
654.84	5532.25
655.033	5579.35
655.225	5554.77
655.417	5493.33
655.61	5431.9
655.802	5503.57
655.994	5397.08
656.186	5552.73
656.379	5325.4
656.571	5235.29
656.763	5274.2
656.955	5216.86
657.148	5180
657.34	5169.76
657.532	5210.72
657.724	5311.07
657.916	5282.39
658.108	5194.33
658.3	5005.92
658.492	5034.59
658.684	5096.03
658.876	5036.64
659.068	5016.16
659.26	4979.29
659.452	4952.67
659.644	4930.14
659.836	4932.19
660.028	4860.51
660.22	4858.46
660.412	4878.94
660.604	4684.39
660.796	4913.76
660.988	4637.28
661.18	4676.2
661.372	4760.16
661.563	4678.24
661.755	4686.44
661.947	4586.08
662.139	4596.32
662.331	4676.2
662.522	4627.04
662.714	4491.88
662.906	4498.02
663.097	4541.03
663.289	4403.82
663.481	4418.15
663.673	4563.56
663.864	4375.14
664.056	4414.06
664.247	4334.18
664.439	4420.2
664.631	4227.69
664.822	4358.76
665.014	4272.75
665.205	4166.25
665.397	4178.54
665.588	4319.85
665.78	4194.92
665.971	4217.45
666.163	4186.73
666.354	4217.45
666.546	4201.07
666.737	4258.41
666.929	4180.59
667.12	4100.72
667.311	3994.22
667.503	3820.14
667.694	3883.63
667.885	4010.61
668.077	3969.65
668.268	4002.41
668.459	3764.85
668.651	3846.77
668.842	3865.2
669.033	3850.86
669.224	3846.77
669.416	3891.82
669.607	3826.29
669.798	3785.33
669.989	3889.78
670.18	3723.89
670.371	3781.23
670.563	3646.07
670.754	3779.18
670.945	3676.79
671.136	3797.62
671.327	3703.41
671.518	3654.26
671.709	3807.86
671.9	3719.79
672.091	3658.35
672.282	3582.58
672.473	3621.49
672.664	3535.48
672.855	3496.57
673.046	3523.19
673.237	3580.53
673.428	3474.04
673.619	3646.07
673.809	3467.89
674	3500.66
674.191	3521.14
674.382	3383.93
674.573	3496.57
674.764	3402.36
674.954	3453.56
675.145	3465.85
675.336	3256.95
675.527	3431.03
675.717	3422.84
675.908	3338.87
676.099	3445.37
676.289	3461.75
676.48	3416.69
676.671	3371.64
676.861	3322.49
677.052	3254.9
677.243	3271.29
677.433	3363.45
677.624	3332.73
677.814	3318.39
678.005	3220.09
678.195	3334.78
678.386	3259
678.576	3072.64
678.767	3306.1
678.957	3248.76
679.148	3211.9
679.338	3342.97
679.529	3297.91
679.719	3211.9
679.909	3293.82
680.1	3181.18
680.29	3209.85
680.481	3107.45
680.671	3199.61
680.861	3031.68
681.052	3117.69
681.242	3168.89
681.432	3115.64
681.622	3134.07
681.813	3240.57
682.003	3175.03
682.193	3097.21
682.383	3035.77
682.573	3228.28
682.764	3138.17
682.954	3138.17
683.144	3144.31
683.334	3234.43
683.524	3142.27
683.714	3039.87
683.904	3072.64
684.094	3064.44
684.284	3099.26
684.474	3064.44
684.664	3021.44
684.854	2982.53
685.044	3070.59
685.234	3015.29
685.424	2996.86
685.614	2976.38
685.804	2980.48
685.994	3019.39
686.184	3050.11
686.374	2986.62
686.564	2947.71
686.753	2943.61
686.943	2796.16
687.133	2935.42
687.323	2933.37
687.513	2921.09
687.702	2951.81
687.892	2802.3
688.082	2843.26
688.272	2908.8
688.461	2863.74
688.651	2906.75
688.841	2810.5
689.03	2839.17
689.22	2749.06
689.41	2790.02
689.599	2835.07
689.789	2798.21
689.979	2810.5
690.168	2855.55
690.358	2630.27
690.547	2693.76
690.737	2800.26
690.926	2787.97
691.116	2591.36
691.305	2783.87
691.495	2638.47
691.684	2718.34
691.874	2687.62
692.063	2630.27
692.252	2783.87
692.442	2617.99
692.631	2540.16
692.82	2542.21
693.01	2509.44
693.199	2515.59
693.388	2525.83
693.578	2581.12
693.767	2603.65
693.956	2499.2
694.146	2556.55
694.335	2482.82
694.524	2667.14
694.713	2554.5
694.902	2529.92
695.092	2480.77
695.281	2439.81
695.47	2415.24
695.659	2415.24
695.848	2478.72
696.037	2441.86
696.226	2509.44
696.415	2310.79
696.604	2423.43
696.793	2452.1
696.982	2361.99
697.171	2343.56
697.36	2425.48
697.549	2407.05
697.738	2359.94
697.927	2341.51
698.116	2329.22
698.305	2400.9
698.494	2380.42
698.683	2353.8
698.872	2327.18
699.061	2364.04
699.25	2419.33
699.438	2292.36
699.627	2314.89
699.816	2486.92
700.005	2316.94
700.193	2241.16
700.382	2323.08
700.571	2394.76
700.76	2302.6
700.948	2302.6
701.137	2306.7
701.326	2347.65
701.514	2282.12
701.703	2405
701.892	2359.94
702.08	2339.46
702.269	2298.5
702.457	2161.29
702.646	2329.22
702.834	2269.83
703.023	2226.82
703.212	2380.42
703.4	2232.97
703.589	2359.94
703.777	2245.26
703.965	2216.58
704.154	2331.27
704.342	2306.7
704.531	2366.09
704.719	2282.12
704.907	2337.41
705.096	2333.32
705.284	2353.8
705.472	2261.64
705.661	2169.48
705.849	2239.11
706.037	2273.93
706.226	2300.55
706.414	2241.16
706.602	2261.64
706.79	2333.32
706.979	2259.59
707.167	2226.82
707.355	2267.78
707.543	2318.98
707.731	2210.44
707.919	2253.45
708.107	2163.34
708.296	2380.42
708.484	2204.3
708.672	2282.12
708.86	2255.5
709.048	2306.7
709.236	2261.64
709.424	2159.24
709.612	2364.04
709.8	2218.63
709.988	2302.6
710.176	2218.63
710.364	2280.07
710.551	2212.49
710.739	2278.02
710.927	2318.98
711.115	2335.37
711.303	2161.29
711.491	2359.94
711.679	2292.36
711.866	2142.86
712.054	2296.46
712.242	2255.5
712.43	2267.78
712.617	2214.54
712.805	2310.79
712.993	2189.96
713.181	2232.97
713.368	2364.04
713.556	2286.22
713.744	2204.3
713.931	2331.27
714.119	2288.26
714.306	2341.51
714.494	2327.18
714.682	2241.16
714.869	2198.15
715.057	2218.63
715.244	2212.49
715.432	2255.5
715.619	2208.39
715.807	2192.01
715.994	2253.45
716.182	2294.41
716.369	2081.42
716.556	2296.46
716.744	2187.91
716.931	2198.15
717.119	2327.18
717.306	2247.3
717.493	2235.02
717.681	2273.93
717.868	2323.08
718.055	2294.41
718.242	2263.69
718.43	2253.45
718.617	2378.37
718.804	2206.35
718.991	2398.85
719.179	2263.69
719.366	2153.1
719.553	2171.53
719.74	2278.02
719.927	2308.74
720.114	2179.72
720.301	2269.83
720.488	2214.54
720.676	2212.49
720.863	2167.43
721.05	2290.31
721.237	2136.71
721.424	2245.26
721.611	2235.02
721.798	2218.63
721.985	2189.96
722.172	2292.36
722.358	2282.12
722.545	2230.92
722.732	2245.26
722.919	2269.83
723.106	2245.26
723.293	2218.63
723.48	2222.73
723.667	2292.36
723.853	2247.3
724.04	2228.87
724.227	2286.22
724.414	2194.06
724.6	2253.45
724.787	2220.68
724.974	2263.69
725.161	2208.39
725.347	2171.53
725.534	2194.06
725.72	2237.06
725.907	2241.16
726.094	2308.74
726.28	2196.11
726.467	2271.88
726.653	2345.61
726.84	2273.93
727.027	2265.74
727.213	2198.15
727.4	2292.36
727.586	2230.92
727.773	2304.65
727.959	2239.11
728.145	2296.46
728.332	2232.97
728.518	2153.1
728.705	2224.78
728.891	2257.54
729.077	2214.54
729.264	2239.11
729.45	2208.39
729.636	2239.11
729.823	2228.87
730.009	2265.74
730.195	2312.84
730.382	2245.26
730.568	2278.02
730.754	2179.72
730.94	2259.59
731.126	2263.69
731.313	2294.41
731.499	2183.82
731.685	2282.12
731.871	2265.74
732.057	2181.77
732.243	2318.98
732.429	2159.24
732.615	2224.78
732.801	2171.53
732.987	2345.61
733.173	2245.26
733.359	2194.06
733.545	2304.65
733.731	2194.06
733.917	2212.49
734.103	2411.14
734.289	2140.81
734.475	2261.64
734.661	2149
734.847	2306.7
735.033	2237.06
735.219	2169.48
735.404	2044.56
735.59	2333.32
735.776	2173.58
735.962	2222.73
736.148	2196.11
736.333	2165.39
736.519	2212.49
736.705	2206.35
736.89	2105.99
737.076	2159.24
737.262	2130.57
737.447	2243.21
737.633	2189.96
737.819	2159.24
738.004	2198.15
738.19	2097.8
738.375	2136.71
738.561	2112.14
738.747	2024.08
738.932	2126.47
739.118	2128.52
739.303	2161.29
739.489	2146.95
739.674	2030.22
739.859	2157.19
740.045	2177.67
740.23	2153.1
740.416	2036.36
740.601	2232.97
740.786	2081.42
740.972	2163.34
741.157	2179.72
741.342	2095.75
741.528	2040.46
741.713	2157.19
741.898	2128.52
742.084	2011.79
742.269	2105.99
742.454	1989.26
742.639	2067.08
742.824	1974.92
743.01	2077.32
743.195	2099.85
743.38	2069.13
743.565	1958.54
743.75	2017.93
743.935	1907.34
744.12	1976.97
744.305	1909.39
744.49	1995.4
744.675	1917.58
744.86	1868.43
745.045	1866.38
745.23	1888.91
745.415	1966.73
745.6	1911.44
745.785	1893.01
745.97	1927.82
746.155	1841.81
746.34	1852.05
746.525	1893.01
746.71	1864.33
746.895	1913.49
747.079	1847.95
747.264	1901.2
747.449	1761.94
747.634	1882.77
747.819	1770.13
748.003	1768.08
748.188	1843.85
748.373	1753.74
748.557	1806.99
748.742	1856.14
748.927	1761.94
749.111	1653.39
749.296	1696.4
749.481	1718.93
749.665	1684.11
749.85	1606.29
750.034	1661.59
750.219	1610.39
750.404	1514.13
750.588	1634.96
750.773	1573.52
750.957	1630.87
751.141	1548.95
751.326	1581.71
751.51	1630.87
751.695	1634.96
751.879	1551
752.064	1526.42
752.248	1573.52
752.432	1688.21
752.617	1544.85
752.801	1512.08
752.985	1612.43
753.17	1491.6
753.354	1454.74
753.538	1514.13
753.722	1464.98
753.907	1505.94
754.091	1354.39
754.275	1444.5
754.459	1413.78
754.643	1397.4
754.828	1475.22
755.012	1458.84
755.196	1374.87
755.38	1393.3
755.564	1376.92
755.748	1372.82
755.932	1323.67
756.116	1366.68
756.3	1276.57
756.484	1417.88
756.668	1266.33
756.852	1256.09
757.036	1290.9
757.22	1299.09
757.404	1303.19
757.588	1235.61
757.772	1266.33
757.956	1299.09
758.14	1280.66
758.323	1159.83
758.507	1262.23
758.691	1174.17
758.875	1241.75
759.059	1249.94
759.242	1143.45
759.426	1307.29
759.61	1106.59
759.794	1188.5
759.977	1223.32
760.161	1389.21
760.345	1163.93
760.528	1215.13
760.712	1118.87
760.895	1139.35
761.079	1094.3
761.263	1102.49
761.446	1133.21
761.63	1163.93
761.813	1147.55
761.997	1067.67
762.18	1092.25
762.364	1090.2
762.547	1104.54
762.731	1133.21
762.914	1082.01
763.098	987.8
763.281	975.52
763.464	1036.95
763.648	1059.48
763.831	1092.25
764.015	1053.34
764.198	1010.33
764.381	1010.33
764.564	1102.49
764.748	1000.09
764.931	1051.29
765.114	1016.48
765.297	1012.38
765.481	979.61
765.664	991.9
765.847	942.75
766.03	983.71
766.213	983.71
766.397	961.18
766.58	881.31
766.763	940.7
766.946	940.7
767.129	969.37
767.312	934.56
767.495	871.07
767.678	1012.38
767.861	887.45
768.044	926.36
768.227	926.36
768.41	977.56
768.593	936.6
768.776	871.07
768.959	932.51
769.142	930.46
769.324	920.22
769.507	993.95
769.69	813.73
769.873	875.17
770.056	967.32
770.239	891.55
770.421	967.32
770.604	852.64
770.787	895.65
770.97	828.06
771.152	828.06
771.335	879.26
771.518	729.76
771.7	875.17
771.883	828.06
772.066	844.45
772.248	885.41
772.431	830.11
772.613	748.19
772.796	834.21
772.978	871.07
773.161	899.74
773.343	756.38
773.526	797.34
773.708	787.1
773.891	770.72
774.073	785.05
774.256	772.77
774.438	778.91
774.621	748.19
774.803	803.49
774.985	799.39
775.168	852.64
775.35	678.56
775.532	711.33
775.715	768.67
775.897	764.58
776.079	721.57
776.261	795.29
776.444	676.51
776.626	666.27
776.808	631.46
776.99	690.85
777.173	672.42
777.355	709.28
777.537	608.93
777.719	606.88
777.901	740
778.083	641.7
778.265	656.03
778.447	664.22
778.629	625.31
778.811	699.04
778.993	664.22
779.175	676.51
779.357	608.93
779.539	545.44
779.721	615.07
779.903	606.88
780.085	613.03
780.267	647.84
780.449	537.25
780.631	645.79
780.812	557.73
780.994	549.54
781.176	559.78
781.358	475.81
781.54	516.77
781.721	510.63
781.903	608.93
782.085	522.91
782.267	590.5
782.448	494.24
782.63	445.09
782.812	559.78
782.993	481.96
783.175	508.58
783.357	584.35
783.538	510.63
783.72	477.86
783.901	520.87
784.083	508.58
784.264	457.38
784.446	397.99
784.627	443.04
784.809	469.67
784.99	494.24
785.172	502.44
785.353	508.58
785.535	488.1
785.716	475.81
785.897	330.41
786.079	436.9
786.26	424.61
786.441	434.85
786.623	408.23
786.804	426.66
786.985	365.22
787.167	488.1
787.348	443.04
787.529	369.32
787.71	443.04
787.891	430.76
788.073	336.55
788.254	352.93
788.435	477.86
788.616	477.86
788.797	430.76
788.978	387.75
789.159	373.41
789.34	420.52
789.522	377.51
789.703	432.8
789.884	418.47
790.065	434.85
790.246	436.9
790.427	338.6
790.607	342.69
790.788	363.17
790.969	328.36
791.15	305.83
791.331	406.18
791.512	350.89
791.693	373.41
791.874	338.6
792.054	309.93
792.235	369.32
792.416	285.35
792.597	324.26
792.778	457.38
792.958	350.89
793.139	271.01
793.32	295.59
793.5	283.3
793.681	338.6
793.862	340.65
794.042	354.98
794.223	252.58
794.404	283.3
794.584	279.21
794.765	328.36
794.945	316.07
795.126	264.87
795.306	281.25
795.487	258.73
795.667	285.35
795.848	328.36
796.028	266.92
796.209	287.4
796.389	291.49
796.57	326.31
796.75	215.72
796.93	209.58
797.111	311.97
797.291	314.02
797.471	268.97
797.652	238.25
797.832	207.53
798.012	281.25
798.192	246.44
798.373	277.16
798.553	238.25
798.733	281.25
798.913	246.44
799.093	262.82
799.274	297.64
799.454	314.02
799.634	248.49
799.814	244.39
799.994	244.39
800.174	303.78
800.354	166.57
800.534	225.96
800.714	230.06
800.894	297.64
801.074	191.14
801.254	264.87
801.434	207.53
801.614	279.21
801.794	244.39
801.974	774.81
802.154	191.14
802.334	174.76
802.514	291.49
802.693	168.62
802.873	180.9
803.053	230.06
803.233	187.05
803.413	332.45
803.592	152.23
803.772	197.29
803.952	170.66
804.131	189.1
804.311	309.93
804.491	166.57
804.67	248.49
804.85	170.66
805.03	291.49
805.209	225.96
805.389	225.96
805.568	189.1
805.748	258.73
805.928	244.39
806.107	213.67
806.287	197.29
806.466	238.25
806.646	150.18
806.825	185
807.004	213.67
807.184	197.29
807.363	240.3
807.543	172.71
807.722	160.42
807.901	98.99
808.081	148.14
808.26	191.14
808.439	254.63
808.619	133.8
808.798	164.52
808.977	254.63
809.156	201.38
809.336	189.1
809.515	262.82
809.694	101.03
809.873	174.76
810.052	232.1
810.231	139.94
810.411	168.62
810.59	199.34
810.769	131.75
810.948	207.53
811.127	182.95
811.306	201.38
811.485	160.42
811.664	160.42
811.843	201.38
812.022	123.56
812.201	176.81
812.38	111.27
812.559	168.62
812.737	123.56
812.916	101.03
813.095	133.8
813.274	182.95
813.453	168.62
813.632	139.94
813.811	207.53
813.989	92.84
814.168	103.08
814.347	180.9
814.526	203.43
814.704	139.94
814.883	254.63
815.062	113.32
815.24	201.38
815.419	129.7
815.598	199.34
815.776	180.9
815.955	164.52
816.133	82.6
816.312	164.52
816.49	121.51
816.669	193.19
816.847	86.7
817.026	156.33
817.204	129.7
817.383	133.8
817.561	35.5
817.74	139.94
817.918	123.56
818.097	121.51
818.275	94.89
818.453	119.46
818.632	195.24
818.81	123.56
818.988	90.79
819.167	150.18
819.345	58.03
819.523	51.88
819.701	203.43
819.879	187.05
820.058	107.18
820.236	152.23
820.414	131.75
820.592	47.79
820.77	135.85
820.948	115.37
821.127	133.8
821.305	123.56
821.483	78.51
821.661	98.99
821.839	98.99
822.017	74.41
822.195	232.1
822.373	176.81
822.551	131.75
822.729	127.66
822.907	35.5
823.085	74.41
823.262	213.67
823.44	98.99
823.618	141.99
823.796	68.27
823.974	70.31
824.152	127.66
824.329	82.6
824.507	105.13
824.685	135.85
824.863	47.79
825.04	123.56
825.218	60.07
825.396	101.03
825.574	15.02
825.751	139.94
825.929	191.14
826.107	88.75
826.284	144.04
826.462	115.37
826.639	109.23
826.817	78.51
826.994	70.31
827.172	4.78
827.349	62.12
827.527	103.08
827.704	68.27
827.882	199.34
828.059	172.71
828.237	92.84
828.414	141.99
828.591	58.03
828.769	131.75
828.946	29.35
829.124	45.74
829.301	80.55
829.478	70.31
829.655	78.51
829.833	80.55
830.01	51.88
830.187	70.31
830.364	49.83
830.542	-19.8
830.719	70.31
830.896	25.26
831.073	43.69
831.25	160.42
831.427	68.27
831.604	172.71
831.782	66.22
831.959	78.51
832.136	105.13
832.313	96.94
832.49	12.97
832.667	164.52
832.844	49.83
833.021	101.03
833.198	125.61
833.374	113.32
833.551	129.7
833.728	98.99
833.905	84.65
834.082	55.98
834.259	76.46
834.436	64.17
834.612	49.83
834.789	19.11
834.966	58.03
835.143	92.84
835.319	49.83
835.496	31.4
835.673	98.99
835.85	94.89
836.026	19.11
836.203	82.6
836.38	31.4
836.556	80.55
836.733	64.17
836.909	51.88
837.086	49.83
837.262	27.31
837.439	35.5
837.616	98.99
837.792	88.75
837.968	105.13
838.145	70.31
838.321	123.56
838.498	31.4
838.674	107.18
838.851	53.93
839.027	39.59
839.203	-5.46
839.38	82.6
839.556	43.69
839.732	94.89
839.909	84.65
840.085	78.51
840.261	12.97
840.437	68.27
840.614	68.27
840.79	55.98
840.966	-23.89
841.142	53.93
841.318	-103.76
841.494	74.41
841.671	137.9
841.847	62.12
842.023	80.55
842.199	70.31
842.375	66.22
842.551	-32.08
842.727	-38.23
842.903	113.32
843.079	68.27
843.255	-5.46
843.431	64.17
843.607	94.89
843.783	-21.84
843.959	90.79
844.134	-9.56
844.31	66.22
844.486	19.11
844.662	66.22
844.838	55.98
845.013	43.69
845.189	17.07
845.365	131.75
845.541	92.84
845.716	39.59
845.892	74.41
846.068	17.07
846.244	17.07
846.419	66.22
846.595	25.26
846.77	86.7
846.946	25.26
847.122	49.83
847.297	35.5
847.473	51.88
847.648	-21.84
847.824	21.16
847.999	33.45
848.175	66.22
848.35	41.64
848.526	47.79
848.701	80.55
848.876	78.51
849.052	92.84
849.227	62.12
849.403	17.07
849.578	55.98
849.753	41.64
849.929	41.64
850.104	-3.41
850.279	25.26
850.454	51.88
850.63	19.11
850.805	15.02
850.98	35.5
851.155	-5.46
851.33	53.93
851.505	17.07
851.681	88.75
851.856	29.35
852.031	35.5
852.206	29.35
852.381	27.31
852.556	92.84
852.731	107.18
852.906	60.07
853.081	88.75
853.256	96.94
853.431	35.5
853.606	45.74
853.781	66.22
853.956	-27.99
854.131	68.27
854.305	-21.84
854.48	0.68
854.655	19.11
854.83	25.26
855.005	29.35
855.18	17.07
855.354	15.02
855.529	-7.51
855.704	66.22
855.879	58.03
856.053	-36.18
856.228	94.89
856.403	10.92
856.577	10.92
856.752	33.45
856.926	60.07
857.101	121.51
857.276	29.35
857.45	-38.23
857.625	27.31
857.799	62.12
857.974	41.64
858.148	-9.56
858.323	41.64
858.497	62.12
858.672	33.45
858.846	4.78
859.02	74.41
859.195	-19.8
859.369	68.27
859.543	37.55
859.718	23.21
859.892	-34.13
860.066	-62.8
860.241	68.27
860.415	33.45
860.589	35.5
860.763	8.87
860.938	39.59
861.112	39.59
861.286	12.97
861.46	43.69
861.634	33.45
861.808	51.88
861.982	-38.23
862.157	94.89
862.331	-42.32
862.505	-5.46
862.679	62.12
862.853	47.79
863.027	-21.84
863.201	60.07
863.375	21.16
863.549	-9.56
863.722	-7.51
863.896	58.03
864.07	-7.51
864.244	25.26
864.418	53.93
864.592	-7.51
864.766	-52.56
864.939	43.69
865.113	49.83
865.287	58.03
865.461	8.87
865.634	12.97
865.808	53.93
865.982	0.68
866.156	19.11
866.329	-25.94
866.503	21.16
866.676	74.41
866.85	-5.46
867.024	25.26
867.197	12.97
867.371	-13.65
867.544	-23.89
867.718	-40.28
867.891	33.45
868.065	4.78
868.238	10.92
868.412	-27.99
868.585	-5.46
868.759	-56.66
868.932	41.64
869.105	43.69
869.279	21.16
869.452	37.55
869.625	-23.89
869.799	19.11
869.972	39.59
870.145	0.68
870.319	37.55
870.492	33.45
870.665	58.03
870.838	-9.56
871.011	37.55
871.185	-11.61
871.358	-13.65
871.531	74.41
871.704	10.92
871.877	8.87
872.05	53.93
872.223	-25.94
872.396	-5.46
872.569	19.11
872.742	27.31
872.915	-13.65
873.088	-3.41
873.261	-7.51
873.434	123.56
873.607	-7.51
873.78	45.74
873.953	-56.66
874.126	-7.51
874.299	-23.89
874.471	19.11
874.644	19.11
874.817	15.02
874.99	25.26
875.163	10.92
875.335	58.03
875.508	15.02
875.681	8.87
875.853	21.16
876.026	-38.23
876.199	19.11
876.371	-54.61
876.544	29.35
876.717	-19.8
876.889	-3.41
877.062	58.03
877.234	-5.46
877.407	-15.7
877.579	-79.19
877.752	17.07
877.924	-27.99
878.097	39.59
878.269	64.17
878.442	62.12
878.614	-1.37
878.786	-7.51
878.959	58.03
879.131	10.92
879.303	-64.85
879.476	-25.94
879.648	41.64
879.82	43.69
879.993	15.02
880.165	43.69
880.337	-36.18
880.509	21.16
880.681	15.02
880.854	-66.9
881.026	15.02
881.198	43.69
881.37	62.12
881.542	49.83
881.714	31.4
881.886	-15.7
882.058	-17.75
882.23	60.07
882.402	-73.04
882.574	-17.75
882.746	-32.08
882.918	53.93
883.09	64.17
883.262	-40.28
883.434	27.31
883.606	8.87
883.778	17.07
883.95	25.26
884.122	-54.61
884.293	-36.18
884.465	0.68
884.637	-11.61
884.809	-32.08
884.98	53.93
885.152	23.21
885.324	-48.47
885.496	72.36
885.667	12.97
885.839	25.26
886.011	68.27
886.182	15.02
886.354	-1.37
886.525	21.16
886.697	25.26
886.869	-46.42
887.04	41.64
887.212	25.26
887.383	43.69
887.555	37.55
887.726	19.11
887.897	21.16
888.069	2.73
888.24	17.07
888.412	15.02
888.583	27.31
888.754	66.22
888.926	21.16
889.097	-17.75
889.268	-9.56
889.44	-56.66
889.611	-36.18
889.782	33.45
889.953	-46.42
890.125	58.03
890.296	-32.08
890.467	-25.94
890.638	6.83
890.809	-1.37
890.98	0.68
891.151	31.4
891.323	-25.94
891.494	41.64
891.665	29.35
891.836	15.02
892.007	39.59
892.178	27.31
892.349	-23.89
892.52	17.07
892.691	-36.18
892.862	-23.89
893.032	19.11
893.203	-5.46
893.374	-3.41
893.545	43.69
893.716	-95.57
893.887	12.97
894.057	-23.89
894.228	2.73
894.399	-7.51
894.57	8.87
894.74	4.78
894.911	-52.56
895.082	-21.84
895.253	-23.89
895.423	82.6
895.594	53.93
895.764	25.26
895.935	-93.52
896.106	-56.66
896.276	62.12
896.447	-52.56
896.617	-44.37
896.788	-11.61
896.958	-3.41
897.129	-77.14
897.299	98.99
897.47	0.68
897.64	66.22
897.81	25.26
897.981	49.83
898.151	-62.8
898.322	15.02
898.492	2.73
898.662	-13.65
898.832	-17.75
899.003	-38.23
899.173	66.22
899.343	-21.84
899.513	0.68
