Data from USB4F104151__56__13-11-43-678.txt Node

Date: Fri Mar 14 13:11:43 EDT 2025
User: louis
Spectrometer: USB4F10415
Trigger mode: 4
Integration Time (sec): 2.000000E-2
Scans to average: 1
Electric dark correction enabled: true
Nonlinearity correction enabled: false
Boxcar width: 0
XAxis mode: Wavelengths
Number of Pixels in Spectrum: 3648
>>>>>Begin Spectral Data<<<<<
178.204	-106.67
178.424	-106.67
178.644	-106.67
178.864	-149.67
179.084	-215.21
179.304	10.07
179.524	-20.65
179.744	-28.84
179.964	38.74
180.184	-20.65
180.404	36.69
180.624	-10.41
180.844	-10.41
181.064	-43.18
181.283	51.03
181.503	-47.27
181.723	44.88
181.943	46.93
182.163	28.5
182.383	-30.89
182.602	46.93
182.822	-8.36
183.042	-24.75
183.262	-43.18
183.482	-4.27
183.701	-0.17
183.921	69.46
184.141	-41.13
184.361	26.45
184.58	30.55
184.8	36.69
185.02	-12.46
185.239	40.79
185.459	36.69
185.679	-26.79
185.898	22.36
186.118	36.69
186.338	-2.22
186.557	-20.65
186.777	-84.14
186.997	-32.94
187.216	-34.99
187.436	89.94
187.655	22.36
187.875	-6.31
188.095	10.07
188.314	-4.27
188.534	77.65
188.753	22.36
188.973	22.36
189.192	36.69
189.412	91.99
189.631	12.12
189.851	5.97
190.07	1.88
190.29	-55.47
190.509	16.21
190.729	16.21
190.948	30.55
191.168	32.6
191.387	61.27
191.607	32.6
191.826	-0.17
192.045	63.32
192.265	3.93
192.484	-14.51
192.704	26.45
192.923	-12.46
193.142	63.32
193.362	34.64
193.581	28.5
193.8	-57.51
194.02	-53.42
194.239	-20.65
194.458	1.88
194.678	-75.95
194.897	-37.03
195.116	20.31
195.335	34.64
195.555	55.12
195.774	-28.84
195.993	67.41
196.212	-10.41
196.432	-47.27
196.651	-6.31
196.87	1.88
197.089	59.22
197.308	-0.17
197.528	14.17
197.747	-20.65
197.966	12.12
198.185	65.36
198.404	-0.17
198.623	22.36
198.842	-49.32
199.062	65.36
199.281	3.93
199.5	-6.31
199.719	26.45
199.938	34.64
200.157	5.97
200.376	55.12
200.595	34.64
200.814	10.07
201.033	-24.75
201.252	34.64
201.471	18.26
201.69	16.21
201.909	14.17
202.128	34.64
202.347	-14.51
202.566	8.02
202.785	-20.65
203.004	-59.56
203.223	83.8
203.442	32.6
203.661	-20.65
203.879	-61.61
204.098	-22.7
204.317	-30.89
204.536	44.88
204.755	28.5
204.974	-22.7
205.193	-22.7
205.411	30.55
205.63	-18.6
205.849	57.17
206.068	-47.27
206.287	1.88
206.505	1.88
206.724	26.45
206.943	8.02
207.162	32.6
207.381	38.74
207.599	20.31
207.818	-39.08
208.037	-41.13
208.255	40.79
208.474	-24.75
208.693	36.69
208.911	46.93
209.13	30.55
209.349	18.26
209.567	51.03
209.786	67.41
210.005	1.88
210.223	16.21
210.442	-2.22
210.661	53.08
210.879	10.07
211.098	-2.22
211.316	94.04
211.535	22.36
211.753	16.21
211.972	10.07
212.191	-63.66
212.409	18.26
212.628	-24.75
212.846	-6.31
213.065	46.93
213.283	26.45
213.502	14.17
213.72	-63.66
213.938	10.07
214.157	34.64
214.375	26.45
214.594	65.36
214.812	30.55
215.031	5.97
215.249	-20.65
215.467	-14.51
215.686	44.88
215.904	32.6
216.122	30.55
216.341	12.12
216.559	18.26
216.778	26.45
216.996	71.51
217.214	36.69
217.432	-0.17
217.651	-24.75
217.869	-32.94
218.087	8.02
218.306	-20.65
218.524	-47.27
218.742	26.45
218.96	28.5
219.179	-34.99
219.397	18.26
219.615	34.64
219.833	10.07
220.051	-59.56
220.27	104.28
220.488	-39.08
220.706	83.8
220.924	18.26
221.142	-34.99
221.36	3.93
221.578	32.6
221.796	-10.41
222.015	-16.55
222.233	14.17
222.451	30.55
222.669	5.97
222.887	30.55
223.105	-10.41
223.323	-10.41
223.541	12.12
223.759	63.32
223.977	-61.61
224.195	44.88
224.413	14.17
224.631	12.12
224.849	-20.65
225.067	61.27
225.285	5.97
225.503	-16.55
225.721	-112.81
225.939	-20.65
226.157	26.45
226.375	108.37
226.592	26.45
226.81	32.6
227.028	79.7
227.246	46.93
227.464	-4.27
227.682	1.88
227.9	-20.65
228.117	30.55
228.335	-20.65
228.553	30.55
228.771	55.12
228.989	57.17
229.206	18.26
229.424	-26.79
229.642	12.12
229.86	26.45
230.077	-86.19
230.295	-28.84
230.513	44.88
230.731	-55.47
230.948	12.12
231.166	24.4
231.384	8.02
231.601	28.5
231.819	42.84
232.037	28.5
232.254	24.4
232.472	16.21
232.689	83.8
232.907	46.93
233.125	59.22
233.342	-49.32
233.56	-28.84
233.777	75.6
233.995	-69.8
234.213	83.8
234.43	-30.89
234.648	-6.31
234.865	1.88
235.083	38.74
235.3	-20.65
235.518	73.56
235.735	75.6
235.953	-6.31
236.17	28.5
236.388	22.36
236.605	-20.65
236.822	48.98
237.04	36.69
237.257	-22.7
237.475	-12.46
237.692	18.26
237.909	12.12
238.127	-63.66
238.344	71.51
238.562	-45.23
238.779	-69.8
238.996	10.07
239.214	5.97
239.431	3.93
239.648	10.07
239.865	18.26
240.083	48.98
240.3	53.08
240.517	-10.41
240.735	-34.99
240.952	110.42
241.169	30.55
241.386	36.69
241.603	28.5
241.821	-47.27
242.038	40.79
242.255	5.97
242.472	-30.89
242.689	16.21
242.907	32.6
243.124	8.02
243.341	26.45
243.558	-26.79
243.775	-4.27
243.992	-2.22
244.209	-2.22
244.426	38.74
244.643	61.27
244.86	44.88
245.078	-0.17
245.295	-86.19
245.512	71.51
245.729	26.45
245.946	28.5
246.163	-4.27
246.38	28.5
246.597	-28.84
246.814	48.98
247.031	22.36
247.248	42.84
247.464	-12.46
247.681	12.12
247.898	46.93
248.115	-26.79
248.332	-22.7
248.549	38.74
248.766	65.36
248.983	55.12
249.2	-30.89
249.417	1.88
249.633	28.5
249.85	10.07
250.067	16.21
250.284	14.17
250.501	-67.75
250.717	-6.31
250.934	-69.8
251.151	67.41
251.368	-51.37
251.585	-22.7
251.801	-37.03
252.018	1.88
252.235	-6.31
252.451	-30.89
252.668	22.36
252.885	110.42
253.102	-16.55
253.318	30.55
253.535	28.5
253.752	30.55
253.968	18.26
254.185	-67.75
254.401	12.12
254.618	51.03
254.835	22.36
255.051	79.7
255.268	-16.55
255.484	20.31
255.701	-6.31
255.917	106.32
256.134	-43.18
256.351	-37.03
256.567	20.31
256.784	46.93
257	-20.65
257.217	1.88
257.433	30.55
257.65	-6.31
257.866	51.03
258.082	-53.42
258.299	-0.17
258.515	51.03
258.732	-20.65
258.948	3.93
259.165	-16.55
259.381	-71.85
259.597	59.22
259.814	18.26
260.03	-51.37
260.246	-0.17
260.463	46.93
260.679	83.8
260.895	-75.95
261.112	-4.27
261.328	14.17
261.544	-4.27
261.761	1.88
261.977	91.99
262.193	-41.13
262.409	-59.56
262.626	73.56
262.842	3.93
263.058	28.5
263.274	1.88
263.49	-24.75
263.707	14.17
263.923	-41.13
264.139	-20.65
264.355	48.98
264.571	69.46
264.787	-2.22
265.004	-26.79
265.22	-10.41
265.436	106.32
265.652	18.26
265.868	20.31
266.084	-2.22
266.3	12.12
266.516	-96.43
266.732	55.12
266.948	30.55
267.164	12.12
267.38	10.07
267.596	10.07
267.812	69.46
268.028	-0.17
268.244	-26.79
268.46	42.84
268.676	-45.23
268.892	69.46
269.108	57.17
269.324	-20.65
269.54	-90.28
269.756	51.03
269.972	-45.23
270.188	14.17
270.403	91.99
270.619	-28.84
270.835	42.84
271.051	1.88
271.267	-43.18
271.483	67.41
271.698	5.97
271.914	26.45
272.13	48.98
272.346	-4.27
272.562	-55.47
272.777	20.31
272.993	55.12
273.209	73.56
273.425	-26.79
273.64	-45.23
273.856	14.17
274.072	26.45
274.287	-18.6
274.503	-37.03
274.719	24.4
274.934	12.12
275.15	-4.27
275.366	3.93
275.581	-10.41
275.797	24.4
276.012	20.31
276.228	85.84
276.444	-2.22
276.659	12.12
276.875	-67.75
277.09	71.51
277.306	-37.03
277.521	-12.46
277.737	-51.37
277.952	14.17
278.168	44.88
278.383	40.79
278.599	42.84
278.814	3.93
279.03	-49.32
279.245	32.6
279.461	16.21
279.676	18.26
279.892	-14.51
280.107	51.03
280.322	12.12
280.538	1.88
280.753	-18.6
280.969	46.93
281.184	10.07
281.399	-37.03
281.615	26.45
281.83	34.64
282.045	-41.13
282.26	46.93
282.476	-6.31
282.691	-30.89
282.906	110.42
283.122	67.41
283.337	-10.41
283.552	12.12
283.767	-2.22
283.983	8.02
284.198	-37.03
284.413	30.55
284.628	14.17
284.843	28.5
285.058	5.97
285.274	71.51
285.489	-16.55
285.704	1.88
285.919	30.55
286.134	16.21
286.349	40.79
286.564	-14.51
286.779	18.26
286.995	28.5
287.21	-43.18
287.425	18.26
287.64	-41.13
287.855	40.79
288.07	-45.23
288.285	48.98
288.5	42.84
288.715	51.03
288.93	-57.51
289.145	-30.89
289.36	-18.6
289.575	28.5
289.79	12.12
290.004	16.21
290.219	32.6
290.434	20.31
290.649	28.5
290.864	18.26
291.079	-34.99
291.294	53.08
291.509	18.26
291.724	61.27
291.938	30.55
292.153	14.17
292.368	-121
292.583	44.88
292.798	59.22
293.012	36.69
293.227	-12.46
293.442	18.26
293.657	-18.6
293.871	71.51
294.086	10.07
294.301	14.17
294.516	10.07
294.73	14.17
294.945	-12.46
295.16	28.5
295.374	26.45
295.589	108.37
295.804	-61.61
296.018	55.12
296.233	16.21
296.447	1.88
296.662	-20.65
296.877	18.26
297.091	91.99
297.306	73.56
297.52	-16.55
297.735	-6.31
297.949	12.12
298.164	34.64
298.378	-45.23
298.593	-22.7
298.807	-26.79
299.022	-30.89
299.236	42.84
299.451	46.93
299.665	-30.89
299.88	14.17
300.094	14.17
300.309	-47.27
300.523	24.4
300.737	8.02
300.952	-16.55
301.166	-20.65
301.381	-18.6
301.595	-10.41
301.809	67.41
302.024	-4.27
302.238	-6.31
302.452	5.97
302.667	-4.27
302.881	28.5
303.095	48.98
303.309	-12.46
303.524	5.97
303.738	-14.51
303.952	38.74
304.166	26.45
304.381	-18.6
304.595	51.03
304.809	1.88
305.023	69.46
305.237	53.08
305.452	-0.17
305.666	-30.89
305.88	46.93
306.094	-22.7
306.308	67.41
306.522	32.6
306.736	-71.85
306.95	32.6
307.164	-57.51
307.379	-34.99
307.593	-4.27
307.807	24.4
308.021	44.88
308.235	22.36
308.449	40.79
308.663	-8.36
308.877	36.69
309.091	-4.27
309.305	63.32
309.519	-4.27
309.733	81.75
309.947	3.93
310.161	75.6
310.374	-32.94
310.588	30.55
310.802	-2.22
311.016	59.22
311.23	59.22
311.444	10.07
311.658	-12.46
311.872	26.45
312.085	94.04
312.299	-16.55
312.513	36.69
312.727	-30.89
312.941	-57.51
313.154	-10.41
313.368	12.12
313.582	22.36
313.796	51.03
314.009	36.69
314.223	38.74
314.437	55.12
314.651	38.74
314.864	-16.55
315.078	-30.89
315.292	-102.57
315.505	16.21
315.719	-47.27
315.933	3.93
316.146	22.36
316.36	-37.03
316.573	106.32
316.787	67.41
317.001	-14.51
317.214	-0.17
317.428	-14.51
317.641	22.36
317.855	-18.6
318.068	-37.03
318.282	-26.79
318.495	46.93
318.709	1.88
318.922	20.31
319.136	24.4
319.349	55.12
319.563	69.46
319.776	-14.51
319.99	-39.08
320.203	71.51
320.417	30.55
320.63	16.21
320.843	57.17
321.057	10.07
321.27	-55.47
321.483	26.45
321.697	10.07
321.91	59.22
322.124	3.93
322.337	38.74
322.55	5.97
322.763	-28.84
322.977	-12.46
323.19	26.45
323.403	22.36
323.617	18.26
323.83	34.64
324.043	18.26
324.256	53.08
324.469	-37.03
324.683	3.93
324.896	26.45
325.109	-20.65
325.322	-6.31
325.535	12.12
325.748	-39.08
325.962	44.88
326.175	-22.7
326.388	-8.36
326.601	-37.03
326.814	59.22
327.027	-59.56
327.24	40.79
327.453	-75.95
327.666	77.65
327.879	30.55
328.092	53.08
328.305	42.84
328.518	-26.79
328.731	-6.31
328.944	53.08
329.157	61.27
329.37	-14.51
329.583	38.74
329.796	20.31
330.009	40.79
330.222	-0.17
330.435	-4.27
330.648	16.21
330.861	-22.7
331.073	18.26
331.286	1.88
331.499	-55.47
331.712	-2.22
331.925	51.03
332.138	-4.27
332.35	75.6
332.563	26.45
332.776	73.56
332.989	42.84
333.202	-96.43
333.414	-14.51
333.627	-37.03
333.84	48.98
334.053	-12.46
334.265	-47.27
334.478	-63.66
334.691	26.45
334.903	34.64
335.116	16.21
335.329	20.31
335.541	22.36
335.754	-43.18
335.966	-16.55
336.179	1.88
336.392	-63.66
336.604	-43.18
336.817	30.55
337.029	46.93
337.242	-53.42
337.454	-8.36
337.667	26.45
337.88	75.6
338.092	20.31
338.305	22.36
338.517	40.79
338.729	30.55
338.942	96.08
339.154	42.84
339.367	1.88
339.579	61.27
339.792	-39.08
340.004	5.97
340.217	40.79
340.429	36.69
340.641	-26.79
340.854	36.69
341.066	26.45
341.278	36.69
341.491	81.75
341.703	57.17
341.915	-55.47
342.128	34.64
342.34	61.27
342.552	12.12
342.764	16.21
342.977	1.88
343.189	3.93
343.401	-24.75
343.613	-55.47
343.826	-30.89
344.038	3.93
344.25	36.69
344.462	-30.89
344.674	-12.46
344.886	-43.18
345.099	75.6
345.311	18.26
345.523	-32.94
345.735	-22.7
345.947	18.26
346.159	-6.31
346.371	32.6
346.583	38.74
346.795	20.31
347.007	44.88
347.219	18.26
347.431	28.5
347.643	-22.7
347.855	12.12
348.067	51.03
348.279	-8.36
348.491	-10.41
348.703	26.45
348.915	-26.79
349.127	-30.89
349.339	32.6
349.551	-39.08
349.763	85.84
349.975	28.5
350.187	75.6
350.399	1.88
350.61	-6.31
350.822	-32.94
351.034	61.27
351.246	-6.31
351.458	-49.32
351.669	-20.65
351.881	18.26
352.093	67.41
352.305	69.46
352.517	-28.84
352.728	67.41
352.94	8.02
353.152	-24.75
353.363	1.88
353.575	85.84
353.787	5.97
353.999	-10.41
354.21	-22.7
354.422	61.27
354.633	46.93
354.845	38.74
355.057	59.22
355.268	18.26
355.48	-2.22
355.692	-6.31
355.903	42.84
356.115	-28.84
356.326	-4.27
356.538	3.93
356.749	18.26
356.961	1.88
357.172	-30.89
357.384	14.17
357.595	44.88
357.807	-26.79
358.018	-39.08
358.23	1.88
358.441	-6.31
358.653	69.46
358.864	-22.7
359.075	-26.79
359.287	-26.79
359.498	69.46
359.709	20.31
359.921	-4.27
360.132	42.84
360.344	18.26
360.555	-51.37
360.766	42.84
360.977	10.07
361.189	10.07
361.4	59.22
361.611	1.88
361.823	18.26
362.034	28.5
362.245	-63.66
362.456	75.6
362.667	-61.61
362.879	26.45
363.09	36.69
363.301	57.17
363.512	-16.55
363.723	1.88
363.935	-43.18
364.146	106.32
364.357	34.64
364.568	79.7
364.779	40.79
364.99	55.12
365.201	48.98
365.412	26.45
365.623	-53.42
365.834	-10.41
366.045	38.74
366.256	38.74
366.467	55.12
366.678	61.27
366.889	16.21
367.1	51.03
367.311	42.84
367.522	-18.6
367.733	24.4
367.944	20.31
368.155	12.12
368.366	46.93
368.577	44.88
368.788	102.23
368.999	14.17
369.209	1.88
369.42	51.03
369.631	106.32
369.842	30.55
370.053	8.02
370.264	42.84
370.474	-6.31
370.685	46.93
370.896	-20.65
371.107	104.28
371.317	1.88
371.528	53.08
371.739	36.69
371.95	55.12
372.16	59.22
372.371	-8.36
372.582	-8.36
372.792	30.55
373.003	100.18
373.214	36.69
373.424	1.88
373.635	-6.31
373.846	44.88
374.056	-16.55
374.267	67.41
374.477	51.03
374.688	-32.94
374.898	14.17
375.109	20.31
375.319	51.03
375.53	24.4
375.74	63.32
375.951	28.5
376.161	48.98
376.372	22.36
376.582	-41.13
376.793	59.22
377.003	5.97
377.214	5.97
377.424	-43.18
377.635	-4.27
377.845	-2.22
378.055	30.55
378.266	-37.03
378.476	36.69
378.686	42.84
378.897	32.6
379.107	-30.89
379.317	12.12
379.528	-67.75
379.738	91.99
379.948	-0.17
380.158	61.27
380.369	81.75
380.579	-32.94
380.789	91.99
380.999	83.8
381.21	-22.7
381.42	40.79
381.63	-47.27
381.84	18.26
382.05	14.17
382.261	12.12
382.471	10.07
382.681	34.64
382.891	87.89
383.101	73.56
383.311	-24.75
383.521	12.12
383.731	-34.99
383.941	-14.51
384.151	65.36
384.361	18.26
384.571	5.97
384.781	55.12
384.991	-14.51
385.201	34.64
385.411	34.64
385.621	75.6
385.831	-0.17
386.041	85.84
386.251	-37.03
386.461	32.6
386.671	5.97
386.881	8.02
387.091	26.45
387.301	16.21
387.511	106.32
387.72	-18.6
387.93	3.93
388.14	10.07
388.35	-24.75
388.56	69.46
388.769	44.88
388.979	-22.7
389.189	-39.08
389.399	-34.99
389.609	30.55
389.818	-2.22
390.028	94.04
390.238	91.99
390.447	24.4
390.657	34.64
390.867	79.7
391.076	-14.51
391.286	36.69
391.496	-24.75
391.705	57.17
391.915	28.5
392.125	-2.22
392.334	26.45
392.544	-53.42
392.753	28.5
392.963	-2.22
393.172	69.46
393.382	34.64
393.591	77.65
393.801	-26.79
394.01	34.64
394.22	114.52
394.429	-4.27
394.639	42.84
394.848	1.88
395.058	98.13
395.267	32.6
395.477	46.93
395.686	77.65
395.895	85.84
396.105	34.64
396.314	22.36
396.524	8.02
396.733	-22.7
396.942	3.93
397.152	63.32
397.361	61.27
397.57	-4.27
397.78	46.93
397.989	26.45
398.198	91.99
398.407	34.64
398.617	42.84
398.826	28.5
399.035	20.31
399.244	44.88
399.453	-14.51
399.663	94.04
399.872	26.45
400.081	53.08
400.29	87.89
400.499	38.74
400.708	51.03
400.917	24.4
401.127	-28.84
401.336	34.64
401.545	67.41
401.754	89.94
401.963	91.99
402.172	18.26
402.381	5.97
402.59	89.94
402.799	114.52
403.008	75.6
403.217	69.46
403.426	-2.22
403.635	46.93
403.844	16.21
404.053	3.93
404.262	10.07
404.471	73.56
404.68	5.97
404.888	22.36
405.097	36.69
405.306	34.64
405.515	108.37
405.724	83.8
405.933	110.42
406.142	89.94
406.35	98.13
406.559	73.56
406.768	91.99
406.977	149.33
407.185	75.6
407.394	120.66
407.603	34.64
407.812	77.65
408.02	124.76
408.229	112.47
408.438	30.55
408.646	67.41
408.855	116.56
409.064	206.67
409.272	128.85
409.481	120.66
409.69	61.27
409.898	151.38
410.107	124.76
410.315	184.15
410.524	132.95
410.733	147.28
410.941	206.67
411.15	190.29
411.358	163.67
411.567	200.53
411.775	135
411.984	175.95
412.192	149.33
412.401	186.19
412.609	175.95
412.818	167.76
413.026	147.28
413.234	157.52
413.443	173.91
413.651	192.34
413.86	259.92
414.068	280.4
414.276	247.63
414.485	235.35
414.693	298.83
414.901	274.26
415.11	257.87
415.318	266.07
415.526	327.5
415.734	350.03
415.943	329.55
416.151	317.26
416.359	345.94
416.567	257.87
416.776	417.61
416.984	448.33
417.192	470.86
417.4	413.52
417.608	464.72
417.817	470.86
418.025	386.9
418.233	472.91
418.441	423.76
418.649	546.64
418.857	440.14
419.065	665.42
419.273	556.88
419.481	513.87
419.689	626.51
419.897	642.89
420.105	653.13
420.313	632.65
420.521	616.27
420.729	776.01
420.937	675.66
421.145	714.57
421.353	745.29
421.561	771.91
421.769	851.78
421.977	812.87
422.185	845.64
422.393	948.04
422.601	980.81
422.809	997.19
423.017	972.61
423.224	978.76
423.432	1056.58
423.64	1070.92
423.848	1247.04
424.056	1109.83
424.263	1191.75
424.471	1279.81
424.679	1220.42
424.887	1322.82
425.094	1290.05
425.302	1345.34
425.51	1406.78
425.718	1548.09
425.925	1611.58
426.133	1498.94
426.341	1554.24
426.548	1548.09
426.756	1738.55
426.964	1677.12
427.171	1806.14
427.379	1908.54
427.586	1894.2
427.794	1910.58
428.001	2017.08
428.209	2125.62
428.417	2035.51
428.624	2164.53
428.832	2365.23
429.039	2174.77
429.247	2223.92
429.454	2391.86
429.662	2543.41
429.869	2424.62
430.076	2670.38
430.284	2504.5
430.491	2606.89
430.699	2697
430.906	2699.05
431.114	2885.42
431.321	2926.38
431.528	2996.01
431.736	3184.42
431.943	3284.77
432.15	3254.05
432.358	3184.42
432.565	3462.94
432.772	3442.46
432.979	3555.1
433.187	3594.01
433.394	3739.42
433.601	3747.61
433.808	3970.84
434.016	4017.94
434.223	4009.75
434.43	4337.43
434.637	4331.28
434.844	4458.26
435.052	4622.09
435.259	4427.54
435.466	4790.03
435.673	4648.72
435.88	4998.92
436.087	5070.6
436.294	5181.19
436.501	4988.68
436.708	5117.7
436.915	5363.46
437.122	5492.48
437.329	5545.73
437.537	5756.67
437.743	5801.72
437.95	5717.76
438.157	6184.69
438.364	6242.04
438.571	6268.66
438.778	6369.01
438.985	6842.09
439.192	6672.11
439.399	6831.85
439.606	6680.3
439.813	6981.35
440.02	7347.94
440.227	7384.8
440.433	7423.72
440.64	7487.2
440.847	7349.99
441.054	7737.06
441.261	8230.62
441.467	8175.32
441.674	8367.83
441.881	8382.17
442.088	8574.67
442.294	8488.66
442.501	8638.16
442.708	8916.69
442.914	9174.73
443.121	9547.46
443.328	9389.77
443.534	9916.09
443.741	9723.58
443.948	9494.21
444.154	10254.01
444.361	10305.21
444.568	10360.5
444.774	10399.41
444.981	10485.43
445.187	10706.61
445.394	11161.26
445.6	10966.7
445.807	12050.08
446.013	11607.72
446.22	12009.12
446.426	12396.18
446.633	12293.79
446.839	12582.55
447.046	12234.39
447.252	13135.5
447.459	13072.01
447.665	13108.88
447.871	13520.52
448.078	14200.44
448.284	13645.45
448.491	13958.78
448.697	14528.12
448.903	14653.05
449.11	14728.82
449.316	14607.99
449.522	14849.65
449.728	15505
449.935	15328.88
450.141	15398.51
450.347	15652.45
450.553	15230.57
450.76	15312.49
450.966	15885.92
451.172	15703.65
451.378	16131.68
451.584	15656.55
451.791	16270.94
451.997	16262.75
452.203	16442.97
452.409	16483.93
452.615	16598.62
452.821	15838.82
453.027	15683.17
453.233	16537.18
453.44	16000.61
453.646	16060
453.852	16029.28
454.058	16266.85
454.264	15881.83
454.47	16492.12
454.676	15894.11
454.882	16301.66
455.088	15216.24
455.294	15310.44
455.5	15746.66
455.705	15666.79
455.911	15079.02
456.117	14567.03
456.323	14556.79
456.529	13708.93
456.735	14364.28
456.941	14018.18
457.147	13796.99
457.352	13430.41
457.558	13395.59
457.764	13356.68
457.97	13139.6
458.176	12863.12
458.381	12936.85
458.587	12158.62
458.793	12265.11
458.999	11503.27
459.204	12340.89
459.41	12162.72
459.616	11284.14
459.821	11273.9
460.027	11292.33
460.233	10776.24
460.438	10632.88
460.644	10495.67
460.85	10067.64
461.055	9764.54
461.261	10170.04
461.466	9164.49
461.672	9017.04
461.878	9645.76
462.083	8943.31
462.289	8742.61
462.494	8742.61
462.7	8378.07
462.905	7962.33
463.111	8232.66
463.316	8433.36
463.522	8296.15
463.727	8355.54
463.932	8165.08
464.138	8142.55
464.343	8316.63
464.549	7960.28
464.754	8091.35
464.959	8210.14
465.165	7986.91
465.37	7810.78
465.575	7530.21
465.781	7816.93
465.986	7816.93
466.191	7694.05
466.397	7327.46
466.602	7134.95
466.807	7403.24
467.012	7423.72
467.218	7302.89
467.423	7163.62
467.628	7268.07
467.833	7775.97
468.038	7235.3
468.244	7186.15
468.449	7188.2
468.654	6979.31
468.859	7081.71
469.064	7071.47
469.269	6661.87
469.474	6874.86
469.679	6944.49
469.885	6668.02
470.09	6844.14
470.295	6846.19
470.5	6565.62
470.705	6711.02
470.91	6547.19
471.115	6434.55
471.32	6655.73
471.525	6696.69
471.73	6272.76
471.935	6510.32
472.139	6010.62
472.344	6215.41
472.549	6041.34
472.754	6051.58
472.959	6117.11
473.164	5713.66
473.369	5740.29
473.574	6027
473.778	5992.19
473.983	5832.44
474.188	5969.66
474.393	5629.7
474.598	5648.13
474.802	5639.94
475.007	5529.34
475.212	5658.37
475.417	5271.3
475.621	5490.43
475.826	5414.66
476.031	5152.52
476.235	5191.43
476.44	5205.77
476.645	5099.27
476.849	5207.81
477.054	5109.51
477.259	5113.61
477.463	5089.03
477.668	4898.57
477.872	5056.26
478.077	4861.71
478.282	4640.53
478.486	4810.51
478.691	4726.54
478.895	4759.31
479.1	4747.02
479.304	4675.34
479.509	4531.98
479.713	4574.99
479.918	4374.29
480.122	4468.5
480.326	4626.19
480.531	4531.98
480.735	4456.21
480.94	4400.91
481.144	4458.26
481.348	4331.28
481.553	4345.62
481.757	4308.76
481.961	4511.5
482.166	4435.73
482.37	4312.85
482.574	4329.24
482.778	4271.89
482.983	4491.02
483.187	4345.62
483.391	4427.54
483.595	4292.37
483.8	4245.27
484.004	4351.76
484.208	4390.67
484.412	4269.84
484.616	4235.03
484.821	4187.93
485.025	4343.57
485.229	4300.56
485.433	4265.75
485.637	4390.67
485.841	4302.61
486.045	4306.71
486.249	4437.78
486.453	4298.52
486.657	4163.35
486.861	4337.43
487.065	4265.75
487.269	4370.19
487.473	4265.75
487.677	4312.85
487.881	4488.98
488.085	4345.62
488.289	4376.34
488.493	4173.59
488.697	4402.96
488.901	4298.52
489.105	4302.61
489.309	4419.35
489.512	4417.3
489.716	4386.58
489.92	4452.11
490.124	4384.53
490.328	4456.21
490.531	4337.43
490.735	4531.98
490.939	4388.63
491.143	4230.93
491.346	4474.64
491.55	4493.07
491.754	4536.08
491.958	4558.61
492.161	4380.43
492.365	4628.24
492.569	4501.26
492.772	4609.81
492.976	4486.93
493.18	4634.38
493.383	4531.98
493.587	4667.15
493.79	4828.94
493.994	4751.12
494.197	4640.53
494.401	4794.12
494.605	4761.36
494.808	4757.26
495.012	4820.75
495.215	4962.06
495.419	4980.49
495.622	4923.15
495.825	5146.37
496.029	5082.89
496.232	5029.64
496.436	5211.91
496.639	5252.87
496.843	5191.43
497.046	5265.16
497.249	5263.11
497.453	5531.39
497.656	5424.9
497.859	5381.89
498.063	5510.91
498.266	5525.25
498.469	5553.92
498.673	5637.89
498.876	5570.3
499.079	5871.36
499.282	5826.3
499.485	6027
499.689	5938.94
499.892	6057.72
500.095	6131.45
500.298	6080.25
500.501	6287.09
500.705	6434.55
500.908	6498.03
501.111	6457.07
501.314	6444.79
501.517	6661.87
501.72	6534.9
501.923	6524.66
502.126	6780.65
502.329	6934.25
502.532	6956.78
502.735	7018.22
502.938	7161.58
503.141	7093.99
503.344	7153.38
503.547	7499.49
503.75	7384.8
503.953	7505.63
504.156	7671.52
504.359	7642.85
504.562	7857.89
504.765	7925.47
504.968	8070.87
505.17	8048.35
505.373	8105.69
505.576	8382.17
505.779	8423.12
505.982	8144.6
506.185	8660.69
506.387	8591.06
506.59	8490.71
506.793	8861.39
506.996	8783.57
507.198	9012.94
507.401	8775.38
507.604	9092.81
507.807	9246.41
508.009	9578.18
508.212	9211.59
508.415	9375.43
508.617	9572.04
508.82	9674.43
509.022	9692.87
509.225	9899.71
509.428	9901.76
509.63	10000.06
509.833	10260.15
510.035	10555.06
510.238	10307.26
510.44	10593.97
510.643	10675.89
510.845	10696.37
511.048	10831.54
511.25	10852.02
511.453	10983.09
511.655	11312.81
511.858	11249.32
512.06	11519.65
512.262	11372.2
512.465	11552.42
512.667	11472.55
512.87	11814.56
513.072	11796.13
513.274	12123.8
513.477	12502.68
513.679	12279.45
513.881	12240.54
514.084	12625.56
514.286	12586.65
514.488	12777.11
514.69	13229.71
514.893	13039.25
515.095	13207.18
515.297	13237.9
515.499	13434.5
515.701	13518.47
515.904	13717.12
516.106	13645.45
516.308	13928.06
516.51	14034.56
516.712	14364.28
516.914	14423.67
517.116	14712.44
517.318	14571.13
517.52	14706.29
517.722	14765.68
517.925	14896.75
518.127	15255.15
518.329	15378.03
518.531	15515.24
518.733	15558.25
518.935	15537.77
519.136	15877.73
519.338	15984.23
519.54	16211.55
519.742	16047.71
519.944	16316
520.146	16621.14
520.348	16582.23
520.55	16911.96
520.752	16750.17
520.954	16883.28
521.155	16977.49
521.357	17200.72
521.559	17552.97
521.761	17770.05
521.963	17835.59
522.164	18112.06
522.366	17761.86
522.568	18058.82
522.77	18421.31
522.971	18566.71
523.173	18667.06
523.375	18781.75
523.576	18421.31
523.778	18482.75
523.98	19189.3
524.181	19140.15
524.383	18961.97
524.584	19482.16
524.786	19453.48
524.988	19490.35
525.189	19738.15
525.391	19813.93
525.592	20086.31
525.794	19928.61
525.995	20092.45
526.197	20280.86
526.398	20200.99
526.6	20135.46
526.801	20645.4
527.003	20561.44
527.204	20477.47
527.406	20803.1
527.607	20614.68
527.808	20772.38
528.01	20665.88
528.211	20723.23
528.412	21259.79
528.614	21220.88
528.815	21319.18
529.016	21282.32
529.218	21138.96
529.419	21472.78
529.62	21423.63
529.822	21415.44
530.023	21779.98
530.224	21646.86
530.425	21532.17
530.626	21425.68
530.828	21456.4
531.029	21947.91
531.23	21663.24
531.431	21743.11
531.632	21829.13
531.833	21927.43
532.035	22210.05
532.236	22308.35
532.437	22054.4
532.638	21605.9
532.839	22011.4
533.04	22380.03
533.241	21913.09
533.442	22384.13
533.643	22193.67
533.844	22007.3
534.045	22371.84
534.246	22257.15
534.447	22451.71
534.648	22224.39
534.849	22218.24
535.05	21886.47
535.251	22298.11
535.451	22320.64
535.652	22601.21
535.853	22236.67
536.054	22398.46
536.255	22451.71
536.456	22263.3
536.657	22871.54
536.857	22230.53
537.058	22255.11
537.259	22539.77
537.46	22566.4
537.66	22273.54
537.861	22498.81
538.062	22310.4
538.263	22609.4
538.463	22429.18
538.664	22339.07
538.865	22464
539.065	22578.68
539.266	22441.47
539.466	22664.7
539.667	22109.7
539.868	22785.53
540.068	22377.98
540.269	22556.16
540.469	22269.44
540.67	22377.98
540.87	22564.35
541.071	22502.91
541.271	22742.52
541.472	22570.49
541.672	22461.95
541.873	22218.24
542.073	21964.29
542.274	22623.74
542.474	22492.67
542.675	22169.09
542.875	22412.8
543.075	22228.48
543.276	22171.14
543.476	22722.04
543.676	22521.34
543.877	22390.27
544.077	22703.61
544.277	22261.25
544.478	22173.19
544.678	22136.32
544.878	22263.3
545.078	22181.38
545.279	22054.4
545.479	22173.19
545.679	22509.05
545.879	22152.71
546.079	22443.52
546.28	22517.25
546.48	22015.49
546.68	22365.7
546.88	22234.63
547.08	22412.8
547.28	22218.24
547.48	22066.69
547.68	22306.3
547.88	22169.09
548.081	22443.52
548.281	22203.91
548.481	22263.3
548.681	22601.21
548.881	21988.87
549.081	22144.52
549.28	22392.32
549.48	22588.92
549.68	22529.53
549.88	22314.5
550.08	22212.1
550.28	22517.25
550.48	21974.53
550.68	22412.8
550.88	22115.84
551.08	22195.71
551.279	22220.29
551.479	22257.15
551.679	22259.2
551.879	21939.72
552.079	22394.37
552.278	22015.49
552.478	22119.94
552.678	22156.8
552.878	22197.76
553.077	22193.67
553.277	22097.41
553.477	22113.8
553.676	22001.16
553.876	22312.45
554.076	22005.25
554.275	22212.1
554.475	21700.11
554.674	21986.82
554.874	21943.81
555.074	21868.04
555.273	21990.92
555.473	22029.83
555.672	21718.54
555.872	21861.9
556.071	21806.6
556.271	22027.78
556.47	21788.17
556.67	21669.39
556.869	21812.74
557.068	21814.79
557.268	21562.89
557.467	21585.42
557.667	21556.75
557.866	21722.63
558.065	21523.98
558.265	21411.34
558.464	21419.53
558.663	21644.81
558.863	21480.97
559.062	21610
559.261	21368.34
559.461	21650.95
559.66	21018.13
559.859	21319.18
560.058	21184.02
560.258	21192.21
560.457	20831.77
560.656	21270.03
560.855	21079.57
561.054	21089.81
561.253	20799
561.453	20985.37
561.652	20964.89
561.851	21204.5
562.05	20637.21
562.249	20882.97
562.448	20889.11
562.647	20989.46
562.846	20555.29
563.045	20739.61
563.244	20364.83
563.443	20989.46
563.642	20336.16
563.841	20712.99
564.04	20162.08
564.239	20637.21
564.438	20235.81
564.637	20370.97
564.836	20348.45
565.035	20008.48
565.234	20391.45
565.432	19895.85
565.631	19918.37
565.83	20055.59
566.029	20016.68
566.228	19949.09
566.427	19973.67
566.625	19787.3
566.824	19873.32
567.023	19705.38
567.222	19486.25
567.42	19627.56
567.619	19658.28
567.818	19191.34
568.016	19328.56
568.215	19576.36
568.414	19365.42
568.612	19648.04
568.811	19191.34
569.01	19267.12
569.208	18789.94
569.407	19097.14
569.605	18968.12
569.804	19170.86
570.002	18941.49
570.201	19146.29
570.4	18918.96
570.598	18275.9
570.797	18632.25
570.995	18585.15
571.193	18624.06
571.392	18542.14
571.59	18454.08
571.789	18458.17
571.987	18228.8
572.186	18570.81
572.384	18122.3
572.582	18417.21
572.781	18484.8
572.979	17827.4
573.177	17960.52
573.376	18122.3
573.574	17835.59
573.772	17837.64
573.971	17993.28
574.169	17698.38
574.367	17798.73
574.565	17647.18
574.763	17434.19
574.962	17845.83
575.16	17423.95
575.358	17776.2
575.556	17348.17
575.754	17374.8
575.952	17180.24
576.151	17356.36
576.349	17223.25
576.547	17231.44
576.745	17186.38
576.943	17215.05
577.141	17167.95
577.339	17043.03
577.537	16920.15
577.735	17217.1
577.933	16977.49
578.131	16840.28
578.329	16830.04
578.527	16811.6
578.725	16541.27
578.923	16938.58
579.121	16723.54
579.319	16426.59
579.516	16356.96
579.714	16619.1
579.912	16309.85
580.11	16328.28
580.308	16348.76
580.506	16557.66
580.704	15861.35
580.901	16221.79
581.099	16297.56
581.297	15984.23
581.495	15902.31
581.692	15973.99
581.89	15773.28
582.088	15853.16
582.285	16074.34
582.483	15808.1
582.681	15877.73
582.878	15744.61
583.076	15455.85
583.274	15775.33
583.471	15476.33
583.669	15595.11
583.866	15562.34
584.064	15449.71
584.262	15271.53
584.459	15443.56
584.657	15287.92
584.854	15447.66
585.052	15068.78
585.249	15232.62
585.447	15332.97
585.644	15242.86
585.841	15074.93
586.039	15183.47
586.236	14765.68
586.434	14888.56
586.631	14970.48
586.828	14689.91
587.026	14653.05
587.223	14882.42
587.42	14726.77
587.618	14906.99
587.815	14435.96
588.012	14714.48
588.21	14526.07
588.407	14624.37
588.604	14585.46
588.801	14208.64
588.999	14458.49
589.196	14308.99
589.393	14261.88
589.59	14327.42
589.787	14225.02
589.984	14294.65
590.182	13962.88
590.379	14296.7
590.576	13868.67
590.773	14136.96
590.97	13766.28
591.167	13856.39
591.364	13731.46
591.561	13762.18
591.758	13893.25
591.955	13581.96
592.152	13850.24
592.349	13579.91
592.546	13883.01
592.743	13536.9
592.94	13618.82
593.137	13442.7
593.334	13688.45
593.531	13223.56
593.727	13473.42
593.924	13371.02
594.121	13348.49
594.318	13465.22
594.515	12928.66
594.712	13219.47
594.908	13285
595.105	13201.04
595.302	13121.17
595.499	13059.73
595.696	12992.14
595.892	13029.01
596.089	12932.75
596.286	13121.17
596.482	12881.55
596.679	12736.15
596.876	12715.67
597.072	12633.75
597.269	12752.53
597.466	12535.45
597.662	12680.85
597.859	12482.2
598.055	12527.25
598.252	12474.01
598.448	12379.8
598.645	12549.78
598.841	12615.32
599.038	12172.96
599.234	12455.58
599.431	12261.02
599.627	12324.51
599.824	12373.66
600.02	12195.48
600.217	12289.69
600.413	12076.7
600.609	11912.86
600.806	11923.1
601.002	11849.38
601.198	11902.62
601.395	11740.83
601.591	12041.89
601.787	11996.83
601.984	11699.87
602.18	11939.49
602.376	11642.53
602.572	11671.2
602.769	11513.51
602.965	11732.64
603.161	11617.96
603.357	11503.27
603.553	11533.99
603.75	11593.38
603.946	11521.7
604.142	11241.13
604.338	11300.52
604.534	11437.73
604.73	11273.9
604.926	11321
605.122	11136.68
605.318	11304.62
605.514	11013.81
605.71	11052.72
605.906	11081.39
606.102	11140.78
606.298	11280.04
606.494	11224.75
606.69	11011.76
606.886	11112.11
607.082	10895.02
607.278	11003.57
607.474	10733.23
607.67	10948.27
607.866	10669.75
608.062	10962.61
608.257	10606.26
608.453	10690.23
608.649	10585.78
608.845	10587.83
609.041	10749.62
609.236	10729.14
609.432	10735.28
609.628	10639.03
609.824	10528.44
610.019	10407.61
610.215	10356.41
610.411	10608.31
610.606	10317.5
610.802	10366.65
610.998	10567.35
611.193	10444.47
611.389	10354.36
611.584	10432.18
611.78	10286.78
611.976	10182.33
612.171	10370.74
612.367	10288.82
612.562	10127.03
612.758	10067.64
612.953	10045.12
613.149	10170.04
613.344	10022.59
613.539	10317.5
613.735	10266.3
613.93	10196.67
614.126	10036.92
614.321	10151.61
614.517	9905.85
614.712	9989.82
614.907	10008.25
615.103	9987.77
615.298	10006.2
615.493	9866.94
615.688	9793.22
615.884	9852.61
616.079	9678.53
616.274	9760.45
616.47	9782.98
616.665	9891.52
616.86	9717.44
617.055	9854.65
617.25	9547.46
617.445	9684.67
617.641	9504.45
617.836	9500.36
618.031	9410.25
618.226	9467.59
618.421	9477.83
618.616	9473.73
618.811	9336.52
619.006	9467.59
619.201	9502.4
619.396	9438.92
619.591	9361.09
619.786	9219.78
619.981	9131.72
620.176	9301.7
620.371	9111.24
620.566	9103.05
620.761	9205.45
620.956	9162.44
621.151	8926.93
621.346	8971.98
621.541	8720.08
621.735	8904.4
621.93	8580.82
622.125	9055.95
622.32	8689.36
622.515	8799.95
622.709	8670.93
622.904	8718.03
623.099	8451.8
623.294	8449.75
623.488	8443.6
623.683	8529.62
623.878	8236.76
624.072	8267.48
624.267	8353.49
624.462	8185.56
624.656	8304.34
624.851	8115.93
625.046	8015.58
625.24	8111.83
625.435	7968.48
625.629	7853.79
625.824	7833.31
626.018	7950.04
626.213	7909.08
626.407	7966.43
626.602	7812.83
626.796	7753.44
626.991	7804.64
627.185	7573.22
627.38	7612.13
627.574	7605.99
627.768	7378.66
627.963	7532.26
628.157	7331.56
628.352	7601.89
628.546	7431.91
628.74	7499.49
628.935	7304.93
629.129	7397.09
629.323	7141.1
629.517	7102.18
629.712	7153.38
629.906	7061.23
630.1	7184.1
630.294	6932.2
630.489	6887.15
630.683	6954.73
630.877	6940.4
631.071	6731.5
631.265	6821.61
631.459	6809.33
631.653	6876.91
631.848	6708.97
632.042	6663.92
632.236	6637.3
632.43	6645.49
632.624	6637.3
632.818	6731.5
633.012	6582
633.206	6749.93
633.4	6538.99
633.594	6354.68
633.788	6377.2
633.982	6377.2
634.176	6358.77
634.369	6377.2
634.563	6231.8
634.757	6117.11
634.951	6336.24
635.145	6344.44
635.339	6301.43
635.533	6008.57
635.726	6108.92
635.92	6143.74
636.114	5924.6
636.308	6072.06
636.501	6082.3
636.695	6162.17
636.889	5809.92
637.083	5893.88
637.276	5824.25
637.47	5728
637.664	5816.06
637.857	5801.72
638.051	5721.85
638.244	5687.04
638.438	5633.79
638.632	5760.77
638.825	5586.69
639.019	5672.7
639.212	5537.54
639.406	5396.23
639.599	5478.15
639.793	5582.59
639.986	5332.74
640.18	5340.93
640.373	5308.16
640.567	5310.21
640.76	5160.71
640.954	4984.59
641.147	5156.61
641.34	5134.09
641.534	5275.4
641.727	5377.8
641.92	5066.5
642.114	4986.63
642.307	4919.05
642.5	5115.66
642.694	4998.92
642.887	4921.1
643.08	5144.33
643.273	4982.54
643.467	4869.9
643.66	4900.62
643.853	4798.22
644.046	4865.8
644.239	4728.59
644.432	4914.95
644.626	4697.87
644.819	4677.39
645.012	4681.49
645.205	4628.24
645.398	4810.51
645.591	4509.46
645.784	4605.71
645.977	4554.51
646.17	4523.79
646.363	4452.11
646.556	4482.83
646.749	4540.18
646.942	4474.64
647.135	4431.63
647.328	4402.96
647.521	4503.31
647.714	4347.67
647.907	4411.15
648.099	4183.83
648.292	4312.85
648.485	4314.9
648.678	4228.88
648.871	4251.41
649.064	4198.17
649.256	4097.81
649.449	4167.45
649.642	4122.39
649.835	4183.83
650.027	4009.75
650.22	4071.19
650.413	4050.71
650.605	4161.3
650.798	3989.27
650.991	3909.4
651.183	3866.39
651.376	3809.05
651.568	3952.41
651.761	3948.31
651.954	3770.14
652.146	3772.19
652.339	3782.43
652.531	3907.35
652.724	3880.73
652.916	3602.21
653.109	3782.43
653.301	3768.09
653.494	3753.76
653.686	3667.74
653.879	3647.26
654.071	3675.93
654.263	3655.45
654.456	3677.98
654.648	3671.84
654.84	3524.38
655.033	3440.42
655.225	3516.19
655.417	3493.66
655.61	3469.09
655.802	3491.62
655.994	3313.44
656.186	3399.46
656.379	3485.47
656.571	3567.39
656.763	3286.82
656.955	3448.61
657.148	3608.35
657.34	3321.63
657.532	3241.76
657.724	3391.27
657.916	3370.79
658.108	3227.43
658.3	3233.57
658.492	3192.61
658.684	3215.14
658.876	3145.51
659.068	3141.41
659.26	3069.73
659.452	3079.97
659.644	3135.27
659.836	3137.32
660.028	3120.93
660.22	3014.44
660.412	3114.79
660.604	3036.97
660.796	3006.25
660.988	2961.19
661.18	2922.28
661.372	2914.09
661.563	2844.46
661.755	2944.81
661.947	3002.15
662.139	2969.38
662.331	2838.31
662.522	2787.11
662.714	2828.07
662.906	2879.27
663.097	2842.41
663.289	2854.7
663.481	2864.94
663.673	2754.35
663.864	2795.31
664.056	2772.78
664.247	2604.85
664.439	2641.71
664.631	2680.62
664.822	2672.43
665.014	2746.16
665.205	2635.57
665.397	2647.85
665.588	2656.04
665.78	2631.47
665.971	2619.18
666.163	2551.6
666.354	2676.52
666.546	2463.54
666.737	2604.85
666.929	2541.36
667.12	2508.59
667.311	2539.31
667.503	2461.49
667.694	2539.31
667.885	2445.1
668.077	2449.2
668.268	2586.41
668.459	2445.1
668.651	2420.53
668.842	2395.95
669.033	2432.82
669.224	2332.47
669.416	2451.25
669.607	2412.34
669.798	2354.99
669.989	2381.62
670.18	2205.49
670.371	2344.75
670.563	2301.75
670.754	2301.75
670.945	2281.27
671.136	2424.62
671.327	2236.21
671.518	2285.36
671.709	2438.96
671.9	2279.22
672.091	2197.3
672.282	2299.7
672.473	2172.72
672.664	2166.58
672.855	2146.1
673.046	2195.25
673.237	2234.16
673.428	2164.53
673.619	2232.12
673.809	2137.91
674	2154.29
674.191	2178.87
674.382	2201.4
674.573	2088.76
674.764	2060.09
674.954	2109.24
675.145	2043.7
675.336	2127.67
675.527	2185.01
675.717	2076.47
675.908	2031.41
676.099	2043.7
676.289	2045.75
676.48	2086.71
676.671	2041.65
676.861	2023.22
677.052	2006.84
677.243	2027.32
677.433	1873.72
677.624	2015.03
677.814	1976.12
678.005	1939.26
678.195	1984.31
678.386	1838.91
678.576	1832.76
678.767	1914.68
678.957	1877.82
679.148	1963.83
679.338	1871.67
679.529	1924.92
679.719	1795.9
679.909	2008.89
680.1	1963.83
680.29	1902.39
680.481	1894.2
680.671	2002.74
680.861	1926.97
681.052	1888.06
681.242	1830.71
681.432	1853.24
681.622	1806.14
681.813	1779.51
682.003	1840.95
682.193	1845.05
682.383	1744.7
682.573	1812.28
682.764	1888.06
682.954	1873.72
683.144	1836.86
683.334	1767.23
683.524	1773.37
683.714	1797.95
683.904	1873.72
684.094	1687.36
684.284	1722.17
684.474	1828.67
684.664	1799.99
684.854	1750.84
685.044	1670.97
685.234	1793.85
685.424	1781.56
685.614	1693.5
685.804	1701.69
685.994	1718.08
686.184	1763.13
686.374	1720.12
686.564	1677.12
686.753	1787.71
686.943	1797.95
687.133	1713.98
687.323	1726.27
687.513	1640.25
687.702	1730.36
687.892	1650.49
688.082	1640.25
688.272	1736.51
688.461	1732.41
688.651	1670.97
688.841	1691.45
689.03	1623.87
689.22	1599.29
689.41	1666.88
689.599	1627.96
689.789	1689.4
689.979	1693.5
690.168	1666.88
690.358	1630.01
690.547	1558.33
690.737	1572.67
690.926	1578.81
691.116	1527.61
691.305	1644.35
691.495	1582.91
691.684	1445.7
691.874	1732.41
692.063	1564.48
692.252	1550.14
692.442	1691.45
692.631	1580.86
692.82	1464.13
693.01	1576.77
693.199	1494.85
693.388	1525.57
693.578	1550.14
693.767	1587.01
693.956	1548.09
694.146	1517.37
694.335	1513.28
694.524	1599.29
694.713	1525.57
694.902	1500.99
695.092	1445.7
695.281	1546.05
695.47	1371.97
695.659	1378.11
695.848	1447.74
696.037	1546.05
696.226	1445.7
696.415	1490.75
696.604	1496.89
696.793	1468.22
696.982	1480.51
697.171	1445.7
697.36	1460.03
697.549	1478.46
697.738	1468.22
697.927	1464.13
698.116	1437.5
698.305	1482.56
698.494	1421.12
698.683	1505.09
698.872	1382.21
699.061	1517.37
699.25	1388.35
699.438	1431.36
699.627	1462.08
699.816	1433.41
700.005	1417.02
700.193	1431.36
700.382	1478.46
700.571	1519.42
700.76	1468.22
700.948	1509.18
701.137	1439.55
701.326	1402.69
701.514	1470.27
701.703	1449.79
701.892	1470.27
702.08	1404.74
702.269	1466.17
702.457	1509.18
702.646	1376.06
702.834	1410.88
703.023	1470.27
703.212	1496.89
703.4	1404.74
703.589	1406.78
703.777	1486.65
703.965	1404.74
704.154	1544
704.342	1640.25
704.531	1374.02
704.719	1433.41
704.907	1519.42
705.096	1470.27
705.284	1621.82
705.472	1558.33
705.661	1486.65
705.849	1519.42
706.037	1515.33
706.226	1503.04
706.414	1396.54
706.602	1447.74
706.79	1494.85
706.979	1453.89
707.167	1593.15
707.355	1511.23
707.543	1525.57
707.731	1566.53
707.919	1433.41
708.107	1544
708.296	1410.88
708.484	1488.7
708.672	1546.05
708.86	1480.51
709.048	1455.94
709.236	1468.22
709.424	1476.41
709.612	1378.11
709.8	1591.1
709.988	1462.08
710.176	1529.66
710.364	1388.35
710.551	1498.94
710.739	1525.57
710.927	1427.26
711.115	1484.61
711.303	1488.7
711.491	1509.18
711.679	1515.33
711.866	1533.76
712.054	1525.57
712.242	1472.32
712.43	1443.65
712.617	1500.99
712.805	1599.29
712.993	1365.82
713.181	1431.36
713.368	1572.67
713.556	1523.52
713.744	1457.98
713.931	1584.96
714.119	1492.8
714.306	1552.19
714.494	1390.4
714.682	1535.81
714.869	1517.37
715.057	1519.42
715.244	1490.75
715.432	1505.09
715.619	1529.66
715.807	1576.77
715.994	1496.89
716.182	1556.29
716.369	1546.05
716.556	1587.01
716.744	1531.71
716.931	1466.17
717.119	1570.62
717.306	1521.47
717.493	1574.72
717.681	1619.77
717.868	1558.33
718.055	1591.1
718.242	1554.24
718.43	1558.33
718.617	1535.81
718.804	1556.29
718.991	1613.63
719.179	1660.73
719.366	1470.27
719.553	1525.57
719.74	1580.86
719.927	1570.62
720.114	1470.27
720.301	1494.85
720.488	1484.61
720.676	1615.68
720.863	1509.18
721.05	1527.61
721.237	1472.32
721.424	1617.72
721.611	1578.81
721.798	1453.89
721.985	1525.57
722.172	1541.95
722.358	1478.46
722.545	1488.7
722.732	1572.67
722.919	1613.63
723.106	1599.29
723.293	1615.68
723.48	1515.33
723.667	1535.81
723.853	1564.48
724.04	1531.71
724.227	1517.37
724.414	1591.1
724.6	1558.33
724.787	1455.94
724.974	1546.05
725.161	1546.05
725.347	1527.61
725.534	1482.56
725.72	1523.52
725.907	1494.85
726.094	1488.7
726.28	1546.05
726.467	1544
726.653	1517.37
726.84	1560.38
727.027	1576.77
727.213	1550.14
727.4	1513.28
727.586	1566.53
727.773	1466.17
727.959	1578.81
728.145	1509.18
728.332	1546.05
728.518	1591.1
728.705	1632.06
728.891	1445.7
729.077	1503.04
729.264	1482.56
729.45	1566.53
729.636	1548.09
729.823	1539.9
730.009	1529.66
730.195	1517.37
730.382	1627.96
730.568	1578.81
730.754	1582.91
730.94	1525.57
731.126	1617.72
731.313	1488.7
731.499	1494.85
731.685	1468.22
731.871	1500.99
732.057	1578.81
732.243	1468.22
732.429	1593.15
732.615	1566.53
732.801	1500.99
732.987	1560.38
733.173	1449.79
733.359	1460.03
733.545	1523.52
733.731	1591.1
733.917	1539.9
734.103	1507.13
734.289	1558.33
734.475	1445.7
734.661	1386.3
734.847	1517.37
735.033	1421.12
735.219	1494.85
735.404	1431.36
735.59	1433.41
735.776	1453.89
735.962	1410.88
736.148	1546.05
736.333	1468.22
736.519	1470.27
736.705	1445.7
736.89	1484.61
737.076	1468.22
737.262	1466.17
737.447	1476.41
737.633	1431.36
737.819	1449.79
738.004	1402.69
738.19	1468.22
738.375	1429.31
738.561	1423.17
738.747	1460.03
738.932	1445.7
739.118	1511.23
739.303	1488.7
739.489	1437.5
739.674	1476.41
739.859	1425.22
740.045	1408.83
740.23	1492.8
740.416	1378.11
740.601	1314.63
740.786	1361.73
740.972	1335.1
741.157	1345.34
741.342	1365.82
741.528	1304.39
741.713	1437.5
741.898	1365.82
742.084	1367.87
742.269	1322.82
742.454	1312.58
742.639	1378.11
742.824	1404.74
743.01	1447.74
743.195	1404.74
743.38	1322.82
743.565	1302.34
743.75	1298.24
743.935	1390.4
744.12	1296.19
744.305	1249.09
744.49	1363.78
744.675	1234.75
744.86	1288
745.045	1320.77
745.23	1353.54
745.415	1232.71
745.6	1238.85
745.785	1265.47
745.97	1234.75
746.155	1183.56
746.34	1232.71
746.525	1173.32
746.71	1283.91
746.895	1255.23
747.079	1214.27
747.264	1238.85
747.449	1290.05
747.634	1195.84
747.819	1273.67
748.003	1173.32
748.188	1185.6
748.373	1214.27
748.557	1177.41
748.742	1273.67
748.927	1177.41
749.111	1126.21
749.296	1144.64
749.481	1173.32
749.665	1038.15
749.85	1052.49
750.034	1042.25
750.219	1111.88
750.404	1150.79
750.588	1101.64
750.773	1099.59
750.957	1087.3
751.141	1075.01
751.326	1044.29
751.51	966.47
751.695	1019.72
751.879	1060.68
752.064	1158.98
752.248	1077.06
752.432	1034.05
752.617	1021.77
752.801	1019.72
752.985	986.95
753.17	1019.72
753.354	976.71
753.538	1009.48
753.722	874.31
753.907	976.71
754.091	905.03
754.275	1019.72
754.459	902.98
754.643	853.83
754.828	972.61
755.012	929.61
755.196	853.83
755.38	913.22
755.564	913.22
755.748	929.61
755.932	841.54
756.116	907.08
756.3	880.46
756.484	814.92
756.668	890.7
756.852	884.55
757.036	884.55
757.22	845.64
757.404	868.17
757.588	888.65
757.772	864.07
757.956	890.7
758.14	833.35
758.323	829.26
758.507	804.68
758.691	773.96
758.875	917.32
759.059	778.06
759.242	792.39
759.426	733
759.61	857.93
759.794	829.26
759.977	853.83
760.161	872.26
760.345	745.29
760.528	741.19
760.712	794.44
760.895	773.96
761.079	743.24
761.263	679.75
761.446	673.61
761.63	763.72
761.813	814.92
761.997	728.91
762.18	720.71
762.364	730.95
762.547	671.56
762.731	716.62
762.914	733
763.098	714.57
763.281	702.28
763.464	663.37
763.648	698.19
763.831	745.29
764.015	759.63
764.198	720.71
764.381	563.02
764.564	698.19
764.748	675.66
764.931	702.28
765.114	642.89
765.297	712.52
765.481	710.47
765.664	751.43
765.847	661.32
766.03	757.58
766.213	603.98
766.397	665.42
766.58	720.71
766.763	689.99
766.946	624.46
767.129	642.89
767.312	632.65
767.495	632.65
767.678	640.84
767.861	628.56
768.044	651.08
768.227	636.75
768.41	638.8
768.593	634.7
768.776	497.49
768.959	649.04
769.142	608.08
769.324	642.89
769.507	511.82
769.69	597.84
769.873	608.08
770.056	653.13
770.239	689.99
770.421	689.99
770.604	591.69
770.787	640.84
770.97	638.8
771.152	560.97
771.335	579.4
771.518	505.68
771.7	575.31
771.883	577.36
772.066	515.92
772.248	642.89
772.431	628.56
772.613	571.21
772.796	528.21
772.978	620.36
773.161	569.16
773.343	546.64
773.526	567.12
773.708	509.77
773.891	536.4
774.073	481.1
774.256	505.68
774.438	538.45
774.621	520.01
774.803	614.22
774.985	485.2
775.168	515.92
775.35	472.91
775.532	456.53
775.715	444.24
775.897	567.12
776.079	513.87
776.261	468.81
776.444	507.73
776.626	520.01
776.808	497.49
776.99	493.39
777.173	511.82
777.355	474.96
777.537	489.29
777.719	470.86
777.901	470.86
778.083	489.29
778.265	483.15
778.447	497.49
778.629	423.76
778.811	436.05
778.993	460.62
779.175	468.81
779.357	503.63
779.539	444.24
779.721	409.42
779.903	423.76
780.085	380.75
780.267	411.47
780.449	352.08
780.631	415.57
780.812	378.7
780.994	431.95
781.176	358.22
781.358	429.9
781.54	397.14
781.721	405.33
781.903	454.48
782.085	431.95
782.267	325.46
782.448	341.84
782.63	413.52
782.812	380.75
782.993	347.98
783.175	403.28
783.357	350.03
783.538	372.56
783.72	325.46
783.901	296.78
784.083	354.13
784.264	382.8
784.446	390.99
784.627	356.18
784.809	302.93
784.99	294.74
785.172	339.79
785.353	313.17
785.535	317.26
785.716	360.27
785.897	243.54
786.079	313.17
786.26	278.35
786.441	304.98
786.623	243.54
786.804	337.74
786.985	343.89
787.167	286.54
787.348	292.69
787.529	286.54
787.71	382.8
787.891	323.41
788.073	315.22
788.254	223.06
788.435	360.27
788.616	284.5
788.797	210.77
788.978	300.88
789.159	268.11
789.34	309.07
789.522	317.26
789.703	274.26
789.884	313.17
790.065	229.2
790.246	202.58
790.427	288.59
790.607	356.18
790.788	307.02
790.969	247.63
791.15	249.68
791.331	280.4
791.512	235.35
791.693	175.95
791.874	239.44
792.054	239.44
792.235	243.54
792.416	151.38
792.597	227.15
792.778	257.87
792.958	206.67
793.139	188.24
793.32	255.83
793.5	206.67
793.681	288.59
793.862	311.12
794.042	206.67
794.223	237.39
794.404	239.44
794.584	159.57
794.765	270.16
794.945	165.71
795.126	245.59
795.306	235.35
795.487	206.67
795.667	204.63
795.848	229.2
796.028	165.71
796.209	210.77
796.389	227.15
796.57	192.34
796.75	204.63
796.93	188.24
797.111	186.19
797.291	171.86
797.471	261.97
797.652	182.1
797.832	145.24
798.012	221.01
798.192	145.24
798.373	165.71
798.553	132.95
798.733	165.71
798.913	182.1
799.093	182.1
799.274	173.91
799.454	225.11
799.634	284.5
799.814	200.53
799.994	227.15
800.174	206.67
800.354	161.62
800.534	190.29
800.714	153.43
800.894	122.71
801.074	51.03
801.254	161.62
801.434	171.86
801.614	173.91
801.794	153.43
801.974	726.86
802.154	151.38
802.334	141.14
802.514	247.63
802.693	169.81
802.873	124.76
803.053	202.58
803.233	141.14
803.413	83.8
803.592	141.14
803.772	149.33
803.952	87.89
804.131	143.19
804.311	139.09
804.491	165.71
804.67	122.71
804.85	87.89
805.03	151.38
805.209	182.1
805.389	114.52
805.568	175.95
805.748	108.37
805.928	151.38
806.107	77.65
806.287	85.84
806.466	159.57
806.646	18.26
806.825	147.28
807.004	149.33
807.184	124.76
807.363	173.91
807.543	161.62
807.722	124.76
807.901	75.6
808.081	190.29
808.26	85.84
808.439	175.95
808.619	165.71
808.798	122.71
808.977	141.14
809.156	200.53
809.336	124.76
809.515	173.91
809.694	75.6
809.873	141.14
810.052	81.75
810.231	116.56
810.411	61.27
810.59	85.84
810.769	77.65
810.948	124.76
811.127	75.6
811.306	126.8
811.485	71.51
811.664	141.14
811.843	69.46
812.022	126.8
812.201	102.23
812.38	114.52
812.559	75.6
812.737	112.47
812.916	108.37
813.095	61.27
813.274	100.18
813.453	38.74
813.632	112.47
813.811	118.61
813.989	89.94
814.168	81.75
814.347	44.88
814.526	110.42
814.704	173.91
814.883	108.37
815.062	61.27
815.24	147.28
815.419	40.79
815.598	34.64
815.776	55.12
815.955	63.32
816.133	48.98
816.312	57.17
816.49	32.6
816.669	118.61
816.847	46.93
817.026	89.94
817.204	116.56
817.383	126.8
817.561	77.65
817.74	139.09
817.918	73.56
818.097	55.12
818.275	149.33
818.453	124.76
818.632	22.36
818.81	108.37
818.988	67.41
819.167	110.42
819.345	83.8
819.523	137.04
819.701	55.12
819.879	98.13
820.058	30.55
820.236	81.75
820.414	81.75
820.592	116.56
820.77	46.93
820.948	67.41
821.127	40.79
821.305	67.41
821.483	73.56
821.661	96.08
821.839	83.8
822.017	34.64
822.195	71.51
822.373	108.37
822.551	73.56
822.729	77.65
822.907	3.93
823.085	3.93
823.262	71.51
823.44	38.74
823.618	55.12
823.796	28.5
823.974	59.22
824.152	63.32
824.329	112.47
824.507	28.5
824.685	34.64
824.863	126.8
825.04	10.07
825.218	108.37
825.396	61.27
825.574	8.02
825.751	34.64
825.929	-16.55
826.107	5.97
826.284	28.5
826.462	89.94
826.639	14.17
826.817	30.55
826.994	71.51
827.172	69.46
827.349	118.61
827.527	91.99
827.704	46.93
827.882	42.84
828.059	89.94
828.237	5.97
828.414	24.4
828.591	24.4
828.769	-10.41
828.946	14.17
829.124	73.56
829.301	94.04
829.478	1.88
829.655	110.42
829.833	36.69
830.01	-65.71
830.187	36.69
830.364	16.21
830.542	98.13
830.719	132.95
830.896	61.27
831.073	1.88
831.25	69.46
831.427	94.04
831.604	126.8
831.782	-6.31
831.959	34.64
832.136	-55.47
832.313	71.51
832.49	26.45
832.667	-22.7
832.844	44.88
833.021	130.9
833.198	85.84
833.374	-43.18
833.551	71.51
833.728	61.27
833.905	67.41
834.082	59.22
834.259	40.79
834.436	65.36
834.612	38.74
834.789	73.56
834.966	67.41
835.143	34.64
835.319	-32.94
835.496	30.55
835.673	20.31
835.85	89.94
836.026	-18.6
836.203	75.6
836.38	10.07
836.556	57.17
836.733	-18.6
836.909	96.08
837.086	73.56
837.262	28.5
837.439	44.88
837.616	32.6
837.792	55.12
837.968	-12.46
838.145	-10.41
838.321	65.36
838.498	28.5
838.674	42.84
838.851	-20.65
839.027	81.75
839.203	-16.55
839.38	-2.22
839.556	-6.31
839.732	-12.46
839.909	1.88
840.085	3.93
840.261	55.12
840.437	36.69
840.614	-39.08
840.79	48.98
840.966	18.26
841.142	-45.23
841.318	14.17
841.494	-2.22
841.671	32.6
841.847	26.45
842.023	-20.65
842.199	59.22
842.375	-8.36
842.551	10.07
842.727	3.93
842.903	38.74
843.079	26.45
843.255	106.32
843.431	51.03
843.607	38.74
843.783	1.88
843.959	67.41
844.134	1.88
844.31	34.64
844.486	12.12
844.662	-2.22
844.838	1.88
845.013	10.07
845.189	34.64
845.365	14.17
845.541	5.97
845.716	5.97
845.892	61.27
846.068	-20.65
846.244	-53.42
846.419	12.12
846.595	1.88
846.77	-47.27
846.946	30.55
847.122	1.88
847.297	-75.95
847.473	61.27
847.648	5.97
847.824	26.45
847.999	10.07
848.175	-10.41
848.35	46.93
848.526	-22.7
848.701	71.51
848.876	135
849.052	34.64
849.227	3.93
849.403	67.41
849.578	-20.65
849.753	81.75
849.929	71.51
850.104	-4.27
850.279	53.08
850.454	8.02
850.63	55.12
850.805	-6.31
850.98	-14.51
851.155	44.88
851.33	46.93
851.505	53.08
851.681	-6.31
851.856	-8.36
852.031	75.6
852.206	8.02
852.381	10.07
852.556	16.21
852.731	-22.7
852.906	38.74
853.081	59.22
853.256	-10.41
853.431	44.88
853.606	-18.6
853.781	22.36
853.956	-16.55
854.131	-20.65
854.305	1.88
854.48	26.45
854.655	-24.75
854.83	10.07
855.005	22.36
855.18	36.69
855.354	-0.17
855.529	51.03
855.704	5.97
855.879	-18.6
856.053	-30.89
856.228	108.37
856.403	-69.8
856.577	73.56
856.752	3.93
856.926	69.46
857.101	36.69
857.276	22.36
857.45	77.65
857.625	12.12
857.799	10.07
857.974	-8.36
858.148	5.97
858.323	-4.27
858.497	22.36
858.672	12.12
858.846	-16.55
859.02	-51.37
859.195	-32.94
859.369	38.74
859.543	-39.08
859.718	18.26
859.892	-14.51
860.066	61.27
860.241	-20.65
860.415	20.31
860.589	46.93
860.763	-14.51
860.938	18.26
861.112	18.26
861.286	-10.41
861.46	1.88
861.634	10.07
861.808	100.18
861.982	1.88
862.157	-0.17
862.331	14.17
862.505	-30.89
862.679	-37.03
862.853	-4.27
863.027	18.26
863.201	22.36
863.375	3.93
863.549	-6.31
863.722	-10.41
863.896	30.55
864.07	38.74
864.244	42.84
864.418	10.07
864.592	18.26
864.766	-12.46
864.939	48.98
865.113	40.79
865.287	40.79
865.461	-10.41
865.634	16.21
865.808	-98.47
865.982	67.41
866.156	-0.17
866.329	14.17
866.503	-6.31
866.676	36.69
866.85	3.93
867.024	65.36
867.197	18.26
867.371	26.45
867.544	-18.6
867.718	8.02
867.891	-49.32
868.065	3.93
868.238	1.88
868.412	12.12
868.585	28.5
868.759	20.31
868.932	-92.33
869.105	-61.61
869.279	-55.47
869.452	3.93
869.625	-41.13
869.799	57.17
869.972	51.03
870.145	12.12
870.319	36.69
870.492	-39.08
870.665	-41.13
870.838	59.22
871.011	-67.75
871.185	-22.7
871.358	12.12
871.531	-10.41
871.704	-26.79
871.877	24.4
872.05	42.84
872.223	-20.65
872.396	22.36
872.569	55.12
872.742	-18.6
872.915	87.89
873.088	28.5
873.261	-30.89
873.434	-26.79
873.607	53.08
873.78	28.5
873.953	-14.51
874.126	-63.66
874.299	-20.65
874.471	-96.43
874.644	5.97
874.817	8.02
874.99	16.21
875.163	-82.09
875.335	10.07
875.508	-69.8
875.681	71.51
875.853	34.64
876.026	10.07
876.199	-10.41
876.371	3.93
876.544	22.36
876.717	18.26
876.889	-30.89
877.062	67.41
877.234	-20.65
877.407	-28.84
877.579	40.79
877.752	1.88
877.924	48.98
878.097	59.22
878.269	-6.31
878.442	18.26
878.614	20.31
878.786	69.46
878.959	71.51
879.131	-22.7
879.303	-71.85
879.476	-16.55
879.648	18.26
879.82	-0.17
879.993	-77.99
880.165	1.88
880.337	-24.75
880.509	16.21
880.681	-106.67
880.854	1.88
881.026	8.02
881.198	42.84
881.37	-20.65
881.542	3.93
881.714	-61.61
881.886	38.74
882.058	-32.94
882.23	10.07
882.402	-26.79
882.574	40.79
882.746	-59.56
882.918	5.97
883.09	22.36
883.262	-43.18
883.434	1.88
883.606	-39.08
883.778	-2.22
883.95	-18.6
884.122	16.21
884.293	-45.23
884.465	69.46
884.637	-28.84
884.809	-10.41
884.98	3.93
885.152	24.4
885.324	-26.79
885.496	-59.56
885.667	69.46
885.839	53.08
886.011	36.69
886.182	14.17
886.354	36.69
886.525	116.56
886.697	-59.56
886.869	-18.6
887.04	-0.17
887.212	1.88
887.383	38.74
887.555	-8.36
887.726	-4.27
887.897	-65.71
888.069	55.12
888.24	32.6
888.412	44.88
888.583	-43.18
888.754	-0.17
888.926	-39.08
889.097	20.31
889.268	-4.27
889.44	-10.41
889.611	57.17
889.782	-51.37
889.953	3.93
890.125	16.21
890.296	-4.27
890.467	-14.51
890.638	-39.08
890.809	-22.7
890.98	8.02
891.151	53.08
891.323	85.84
891.494	-43.18
891.665	-53.42
891.836	34.64
892.007	-22.7
892.178	14.17
892.349	83.8
892.52	-53.42
892.691	-4.27
892.862	-18.6
893.032	-32.94
893.203	-41.13
893.374	8.02
893.545	5.97
893.716	-104.62
893.887	55.12
894.057	-16.55
894.228	-55.47
894.399	-4.27
894.57	10.07
894.74	83.8
894.911	20.31
895.082	5.97
895.253	46.93
895.423	-22.7
895.594	-4.27
895.764	-22.7
895.935	-20.65
896.106	-28.84
896.276	-0.17
896.447	-57.51
896.617	-4.27
896.788	-30.89
896.958	5.97
897.129	-55.47
897.299	-94.38
897.47	-22.7
897.64	-41.13
897.81	-6.31
897.981	24.4
898.151	-88.23
898.322	34.64
898.492	10.07
898.662	-63.66
898.832	-51.37
899.003	22.36
899.173	-45.23
899.343	-16.55
899.513	-22.7
