Data from USB4F104151__52__13-11-28-280.txt Node

Date: Fri Mar 14 13:11:28 EDT 2025
User: louis
Spectrometer: USB4F10415
Trigger mode: 4
Integration Time (sec): 2.000000E-2
Scans to average: 1
Electric dark correction enabled: true
Nonlinearity correction enabled: false
Boxcar width: 0
XAxis mode: Wavelengths
Number of Pixels in Spectrum: 3648
>>>>>Begin Spectral Data<<<<<
178.204	-88.06
178.424	-88.06
178.644	-88.06
178.864	-145.41
179.084	-73.73
179.304	-47.1
179.524	-28.67
179.744	22.53
179.964	8.19
180.184	49.15
180.404	-6.14
180.624	-24.58
180.844	57.34
181.064	24.58
181.283	-16.38
181.503	-67.58
181.723	28.67
181.943	-24.58
182.163	112.64
182.383	67.58
182.602	47.1
182.822	0
183.042	-4.1
183.262	-22.53
183.482	81.92
183.701	22.53
183.921	61.44
184.141	8.19
184.361	-26.62
184.58	24.58
184.8	38.91
185.02	-22.53
185.239	59.39
185.459	16.38
185.679	-16.38
185.898	-6.14
186.118	-8.19
186.338	43.01
186.557	-12.29
186.777	-14.34
186.997	-43.01
187.216	63.49
187.436	59.39
187.655	16.38
187.875	45.06
188.095	38.91
188.314	28.67
188.534	-36.86
188.753	-24.58
188.973	75.77
189.192	77.82
189.412	30.72
189.631	6.14
189.851	75.77
190.07	38.91
190.29	-22.53
190.509	-40.96
190.729	-14.34
190.948	61.44
191.168	151.55
191.387	116.73
191.607	36.86
191.826	0
192.045	90.11
192.265	40.96
192.484	51.2
192.704	57.34
192.923	-71.68
193.142	98.3
193.362	-24.58
193.581	98.3
193.8	47.1
194.02	116.73
194.239	40.96
194.458	106.49
194.678	10.24
194.897	45.06
195.116	-16.38
195.335	14.34
195.555	59.39
195.774	-24.58
195.993	92.16
196.212	57.34
196.432	49.15
196.651	14.34
196.87	38.91
197.089	38.91
197.308	18.43
197.528	24.58
197.747	63.49
197.966	-61.44
198.185	57.34
198.404	38.91
198.623	26.62
198.842	40.96
199.062	32.77
199.281	53.25
199.5	-20.48
199.719	98.3
199.938	8.19
200.157	40.96
200.376	16.38
200.595	36.86
200.814	49.15
201.033	-30.72
201.252	100.35
201.471	43.01
201.69	83.97
201.909	108.54
202.128	14.34
202.347	104.45
202.566	-6.14
202.785	67.58
203.004	-36.86
203.223	24.58
203.442	34.82
203.661	20.48
203.879	45.06
204.098	92.16
204.317	-20.48
204.536	32.77
204.755	0
204.974	16.38
205.193	-36.86
205.411	73.73
205.63	-24.58
205.849	30.72
206.068	-2.05
206.287	-24.58
206.505	73.73
206.724	43.01
206.943	38.91
207.162	6.14
207.381	2.05
207.599	-16.38
207.818	61.44
208.037	16.38
208.255	-43.01
208.474	18.43
208.693	-10.24
208.911	-8.19
209.13	14.34
209.349	36.86
209.567	73.73
209.786	-4.1
210.005	75.77
210.223	8.19
210.442	-22.53
210.661	26.62
210.879	47.1
211.098	47.1
211.316	-20.48
211.535	71.68
211.753	43.01
211.972	114.69
212.191	24.58
212.409	-10.24
212.628	16.38
212.846	-32.77
213.065	-57.34
213.283	65.53
213.502	36.86
213.72	12.29
213.938	86.01
214.157	12.29
214.375	83.97
214.594	51.2
214.812	59.39
215.031	-24.58
215.249	-24.58
215.467	-22.53
215.686	-8.19
215.904	61.44
216.122	2.05
216.341	81.92
216.559	59.39
216.778	77.82
216.996	30.72
217.214	-18.43
217.432	71.68
217.651	12.29
217.869	4.1
218.087	-57.34
218.306	43.01
218.524	10.24
218.742	-30.72
218.96	49.15
219.179	18.43
219.397	45.06
219.615	65.53
219.833	32.77
220.051	18.43
220.27	34.82
220.488	16.38
220.706	0
220.924	2.05
221.142	90.11
221.36	-26.62
221.578	4.1
221.796	83.97
222.015	-38.91
222.233	71.68
222.451	-6.14
222.669	49.15
222.887	86.01
223.105	-8.19
223.323	69.63
223.541	-22.53
223.759	36.86
223.977	10.24
224.195	106.49
224.413	4.1
224.631	67.58
224.849	57.34
225.067	-40.96
225.285	38.91
225.503	18.43
225.721	12.29
225.939	18.43
226.157	-24.58
226.375	45.06
226.592	0
226.81	2.05
227.028	49.15
227.246	34.82
227.464	73.73
227.682	92.16
227.9	69.63
228.117	59.39
228.335	2.05
228.553	8.19
228.771	16.38
228.989	18.43
229.206	30.72
229.424	36.86
229.642	83.97
229.86	51.2
230.077	67.58
230.295	-14.34
230.513	57.34
230.731	-8.19
230.948	22.53
231.166	51.2
231.384	-6.14
231.601	-32.77
231.819	10.24
232.037	4.1
232.254	-24.58
232.472	106.49
232.689	0
232.907	53.25
233.125	-36.86
233.342	71.68
233.56	88.06
233.777	98.3
233.995	65.53
234.213	16.38
234.43	32.77
234.648	24.58
234.865	51.2
235.083	-4.1
235.3	34.82
235.518	45.06
235.735	102.4
235.953	112.64
236.17	55.3
236.388	10.24
236.605	-6.14
236.822	65.53
237.04	10.24
237.257	16.38
237.475	4.1
237.692	14.34
237.909	59.39
238.127	32.77
238.344	34.82
238.562	67.58
238.779	28.67
238.996	20.48
239.214	-8.19
239.431	40.96
239.648	22.53
239.865	71.68
240.083	-20.48
240.3	-6.14
240.517	77.82
240.735	26.62
240.952	32.77
241.169	98.3
241.386	26.62
241.603	45.06
241.821	32.77
242.038	47.1
242.255	4.1
242.472	2.05
242.689	98.3
242.907	45.06
243.124	12.29
243.341	-2.05
243.558	6.14
243.775	28.67
243.992	-67.58
244.209	34.82
244.426	104.45
244.643	57.34
244.86	18.43
245.078	92.16
245.295	75.77
245.512	63.49
245.729	43.01
245.946	18.43
246.163	51.2
246.38	51.2
246.597	43.01
246.814	67.58
247.031	88.06
247.248	40.96
247.464	98.3
247.681	-14.34
247.898	71.68
248.115	28.67
248.332	-18.43
248.549	32.77
248.766	71.68
248.983	36.86
249.2	71.68
249.417	116.73
249.633	-38.91
249.85	51.2
250.067	88.06
250.284	98.3
250.501	65.53
250.717	69.63
250.934	8.19
251.151	24.58
251.368	40.96
251.585	49.15
251.801	69.63
252.018	-36.86
252.235	69.63
252.451	-67.58
252.668	49.15
252.885	65.53
253.102	6.14
253.318	55.3
253.535	69.63
253.752	8.19
253.968	28.67
254.185	-47.1
254.401	38.91
254.618	30.72
254.835	-20.48
255.051	102.4
255.268	49.15
255.484	-16.38
255.701	-10.24
255.917	69.63
256.134	10.24
256.351	32.77
256.567	4.1
256.784	61.44
257	-65.54
257.217	63.49
257.433	32.77
257.65	47.1
257.866	14.34
258.082	4.1
258.299	98.3
258.515	-20.48
258.732	45.06
258.948	-55.3
259.165	16.38
259.381	24.58
259.597	-30.72
259.814	47.1
260.03	79.87
260.246	47.1
260.463	34.82
260.679	59.39
260.895	69.63
261.112	55.3
261.328	28.67
261.544	14.34
261.761	65.53
261.977	-14.34
262.193	49.15
262.409	16.38
262.626	102.4
262.842	69.63
263.058	0
263.274	28.67
263.49	65.53
263.707	20.48
263.923	28.67
264.139	-28.67
264.355	57.34
264.571	131.07
264.787	32.77
265.004	38.91
265.22	8.19
265.436	28.67
265.652	24.58
265.868	83.97
266.084	69.63
266.3	-12.29
266.516	49.15
266.732	63.49
266.948	40.96
267.164	49.15
267.38	57.34
267.596	32.77
267.812	69.63
268.028	8.19
268.244	69.63
268.46	-34.82
268.676	-6.14
268.892	61.44
269.108	-32.77
269.324	8.19
269.54	-30.72
269.756	73.73
269.972	24.58
270.188	69.63
270.403	-86.01
270.619	16.38
270.835	114.69
271.051	34.82
271.267	30.72
271.483	-28.67
271.698	38.91
271.914	-10.24
272.13	-20.48
272.346	0
272.562	4.1
272.777	34.82
272.993	75.77
273.209	45.06
273.425	4.1
273.64	59.39
273.856	14.34
274.072	61.44
274.287	-28.67
274.503	40.96
274.719	43.01
274.934	32.77
275.15	24.58
275.366	43.01
275.581	-32.77
275.797	20.48
276.012	-18.43
276.228	34.82
276.444	-36.86
276.659	-18.43
276.875	-16.38
277.09	18.43
277.306	16.38
277.521	94.21
277.737	32.77
277.952	122.88
278.168	10.24
278.383	10.24
278.599	26.62
278.814	32.77
279.03	28.67
279.245	49.15
279.461	28.67
279.676	40.96
279.892	63.49
280.107	16.38
280.322	20.48
280.538	10.24
280.753	-20.48
280.969	22.53
281.184	2.05
281.399	65.53
281.615	12.29
281.83	-2.05
282.045	24.58
282.26	12.29
282.476	-4.1
282.691	24.58
282.906	88.06
283.122	49.15
283.337	61.44
283.552	-10.24
283.767	24.58
283.983	26.62
284.198	94.21
284.413	-38.91
284.628	6.14
284.843	-22.53
285.058	43.01
285.274	14.34
285.489	51.2
285.704	71.68
285.919	10.24
286.134	30.72
286.349	-6.14
286.564	10.24
286.779	53.25
286.995	16.38
287.21	-24.58
287.425	14.34
287.64	18.43
287.855	18.43
288.07	-30.72
288.285	34.82
288.5	12.29
288.715	57.34
288.93	8.19
289.145	-61.44
289.36	81.92
289.575	-57.34
289.79	32.77
290.004	2.05
290.219	-40.96
290.434	59.39
290.649	61.44
290.864	32.77
291.079	14.34
291.294	-36.86
291.509	67.58
291.724	30.72
291.938	16.38
292.153	4.1
292.368	-18.43
292.583	108.54
292.798	43.01
293.012	79.87
293.227	67.58
293.442	45.06
293.657	10.24
293.871	81.92
294.086	51.2
294.301	102.4
294.516	12.29
294.73	4.1
294.945	36.86
295.16	8.19
295.374	36.86
295.589	79.87
295.804	32.77
296.018	12.29
296.233	65.53
296.447	12.29
296.662	-10.24
296.877	38.91
297.091	-63.49
297.306	49.15
297.52	12.29
297.735	81.92
297.949	10.24
298.164	45.06
298.378	-24.58
298.593	94.21
298.807	79.87
299.022	43.01
299.236	45.06
299.451	69.63
299.665	43.01
299.88	102.4
300.094	40.96
300.309	-4.1
300.523	100.35
300.737	-6.14
300.952	-8.19
301.166	104.45
301.381	-10.24
301.595	20.48
301.809	61.44
302.024	32.77
302.238	16.38
302.452	114.69
302.667	12.29
302.881	18.43
303.095	-40.96
303.309	45.06
303.524	26.62
303.738	55.3
303.952	-4.1
304.166	32.77
304.381	-6.14
304.595	51.2
304.809	28.67
305.023	83.97
305.237	-6.14
305.452	-4.1
305.666	51.2
305.88	6.14
306.094	6.14
306.308	110.59
306.522	67.58
306.736	36.86
306.95	12.29
307.164	-12.29
307.379	65.53
307.593	67.58
307.807	10.24
308.021	-6.14
308.235	32.77
308.449	4.1
308.663	40.96
308.877	92.16
309.091	0
309.305	-24.58
309.519	81.92
309.733	86.01
309.947	30.72
310.161	57.34
310.374	0
310.588	88.06
310.802	26.62
311.016	34.82
311.23	65.53
311.444	53.25
311.658	32.77
311.872	45.06
312.085	69.63
312.299	59.39
312.513	36.86
312.727	110.59
312.941	-47.1
313.154	0
313.368	-12.29
313.582	-28.67
313.796	28.67
314.009	20.48
314.223	65.53
314.437	75.77
314.651	-32.77
314.864	10.24
315.078	63.49
315.292	12.29
315.505	16.38
315.719	40.96
315.933	-22.53
316.146	12.29
316.36	32.77
316.573	30.72
316.787	124.93
317.001	34.82
317.214	-47.1
317.428	26.62
317.641	0
317.855	16.38
318.068	40.96
318.282	63.49
318.495	69.63
318.709	24.58
318.922	65.53
319.136	63.49
319.349	-34.82
319.563	73.73
319.776	75.77
319.99	4.1
320.203	73.73
320.417	67.58
320.63	77.82
320.843	106.49
321.057	57.34
321.27	-12.29
321.483	-12.29
321.697	40.96
321.91	63.49
322.124	90.11
322.337	49.15
322.55	-6.14
322.763	38.91
322.977	135.17
323.19	-14.34
323.403	2.05
323.617	40.96
323.83	38.91
324.043	38.91
324.256	14.34
324.469	22.53
324.683	40.96
324.896	-12.29
325.109	73.73
325.322	12.29
325.535	-24.58
325.748	2.05
325.962	88.06
326.175	79.87
326.388	69.63
326.601	-49.15
326.814	14.34
327.027	98.3
327.24	45.06
327.453	-26.62
327.666	100.35
327.879	26.62
328.092	49.15
328.305	12.29
328.518	16.38
328.731	0
328.944	-16.38
329.157	24.58
329.37	12.29
329.583	112.64
329.796	51.2
330.009	36.86
330.222	20.48
330.435	112.64
330.648	6.14
330.861	83.97
331.073	14.34
331.286	75.77
331.499	28.67
331.712	-14.34
331.925	32.77
332.138	-12.29
332.35	49.15
332.563	57.34
332.776	65.53
332.989	36.86
333.202	4.1
333.414	102.4
333.627	36.86
333.84	16.38
334.053	6.14
334.265	36.86
334.478	51.2
334.691	-2.05
334.903	40.96
335.116	-10.24
335.329	51.2
335.541	32.77
335.754	141.31
335.966	16.38
336.179	51.2
336.392	28.67
336.604	26.62
336.817	73.73
337.029	51.2
337.242	-18.43
337.454	102.4
337.667	14.34
337.88	98.3
338.092	12.29
338.305	34.82
338.517	51.2
338.729	26.62
338.942	16.38
339.154	30.72
339.367	-4.1
339.579	69.63
339.792	28.67
340.004	51.2
340.217	-36.86
340.429	67.58
340.641	30.72
340.854	65.53
341.066	-10.24
341.278	104.45
341.491	71.68
341.703	116.73
341.915	75.77
342.128	-20.48
342.34	-32.77
342.552	71.68
342.764	24.58
342.977	57.34
343.189	-22.53
343.401	57.34
343.613	-43.01
343.826	51.2
344.038	-16.38
344.25	18.43
344.462	26.62
344.674	38.91
344.886	-53.25
345.099	65.53
345.311	53.25
345.523	73.73
345.735	-32.77
345.947	71.68
346.159	51.2
346.371	14.34
346.583	-28.67
346.795	98.3
347.007	28.67
347.219	53.25
347.431	0
347.643	79.87
347.855	55.3
348.067	57.34
348.279	16.38
348.491	40.96
348.703	10.24
348.915	81.92
349.127	24.58
349.339	34.82
349.551	-24.58
349.763	73.73
349.975	36.86
350.187	139.26
350.399	73.73
350.61	30.72
350.822	24.58
351.034	73.73
351.246	0
351.458	67.58
351.669	2.05
351.881	24.58
352.093	10.24
352.305	69.63
352.517	4.1
352.728	65.53
352.94	16.38
353.152	10.24
353.363	30.72
353.575	-4.1
353.787	88.06
353.999	75.77
354.21	57.34
354.422	65.53
354.633	18.43
354.845	67.58
355.057	-28.67
355.268	73.73
355.48	20.48
355.692	-8.19
355.903	73.73
356.115	65.53
356.326	-18.43
356.538	106.49
356.749	49.15
356.961	118.78
357.172	49.15
357.384	26.62
357.595	86.01
357.807	81.92
358.018	20.48
358.23	36.86
358.441	112.64
358.653	53.25
358.864	26.62
359.075	26.62
359.287	45.06
359.498	83.97
359.709	26.62
359.921	65.53
360.132	36.86
360.344	18.43
360.555	75.77
360.766	90.11
360.977	26.62
361.189	16.38
361.4	8.19
361.611	8.19
361.823	104.45
362.034	-16.38
362.245	-34.82
362.456	40.96
362.667	53.25
362.879	20.48
363.09	10.24
363.301	26.62
363.512	-16.38
363.723	102.4
363.935	22.53
364.146	53.25
364.357	10.24
364.568	53.25
364.779	-34.82
364.99	32.77
365.201	16.38
365.412	38.91
365.623	40.96
365.834	71.68
366.045	20.48
366.256	51.2
366.467	77.82
366.678	-36.86
366.889	32.77
367.1	-6.14
367.311	49.15
367.522	-30.72
367.733	26.62
367.944	77.82
368.155	34.82
368.366	-8.19
368.577	8.19
368.788	53.25
368.999	-45.06
369.209	51.2
369.42	-10.24
369.631	45.06
369.842	65.53
370.053	36.86
370.264	83.97
370.474	-24.58
370.685	57.34
370.896	81.92
371.107	116.73
371.317	108.54
371.528	-4.1
371.739	81.92
371.95	57.34
372.16	98.3
372.371	24.58
372.582	118.78
372.792	65.53
373.003	28.67
373.214	67.58
373.424	12.29
373.635	36.86
373.846	51.2
374.056	69.63
374.267	90.11
374.477	57.34
374.688	-4.1
374.898	30.72
375.109	114.69
375.319	-2.05
375.53	61.44
375.74	90.11
375.951	26.62
376.161	34.82
376.372	151.55
376.582	79.87
376.793	98.3
377.003	83.97
377.214	49.15
377.424	30.72
377.635	14.34
377.845	67.58
378.055	-2.05
378.266	-32.77
378.476	110.59
378.686	16.38
378.897	59.39
379.107	32.77
379.317	-4.1
379.528	43.01
379.738	118.78
379.948	40.96
380.158	81.92
380.369	102.4
380.579	32.77
380.789	83.97
380.999	73.73
381.21	32.77
381.42	92.16
381.63	14.34
381.84	73.73
382.05	-24.58
382.261	63.49
382.471	34.82
382.681	12.29
382.891	61.44
383.101	81.92
383.311	-14.34
383.521	4.1
383.731	65.53
383.941	57.34
384.151	49.15
384.361	118.78
384.571	12.29
384.781	106.49
384.991	118.78
385.201	47.1
385.411	-6.14
385.621	45.06
385.831	102.4
386.041	28.67
386.251	10.24
386.461	14.34
386.671	57.34
386.881	20.48
387.091	28.67
387.301	32.77
387.511	-8.19
387.72	53.25
387.93	77.82
388.14	2.05
388.35	55.3
388.56	86.01
388.769	139.26
388.979	24.58
389.189	34.82
389.399	57.34
389.609	83.97
389.818	61.44
390.028	24.58
390.238	116.73
390.447	51.2
390.657	102.4
390.867	61.44
391.076	57.34
391.286	59.39
391.496	-20.48
391.705	77.82
391.915	79.87
392.125	55.3
392.334	16.38
392.544	36.86
392.753	55.3
392.963	16.38
393.172	-20.48
393.382	57.34
393.591	12.29
393.801	32.77
394.01	86.01
394.22	26.62
394.429	67.58
394.639	69.63
394.848	65.53
395.058	32.77
395.267	73.73
395.477	45.06
395.686	36.86
395.895	63.49
396.105	63.49
396.314	122.88
396.524	24.58
396.733	-16.38
396.942	118.78
397.152	55.3
397.361	43.01
397.57	55.3
397.78	61.44
397.989	86.01
398.198	43.01
398.407	102.4
398.617	51.2
398.826	51.2
399.035	86.01
399.244	49.15
399.453	63.49
399.663	92.16
399.872	98.3
400.081	26.62
400.29	69.63
400.499	-16.38
400.708	145.41
400.917	69.63
401.127	83.97
401.336	63.49
401.545	112.64
401.754	131.07
401.963	92.16
402.172	61.44
402.381	0
402.59	98.3
402.799	139.26
403.008	75.77
403.217	18.43
403.426	-8.19
403.635	104.45
403.844	108.54
404.053	59.39
404.262	81.92
404.471	124.93
404.68	98.3
404.888	65.53
405.097	49.15
405.306	102.4
405.515	36.86
405.724	49.15
405.933	53.25
406.142	114.69
406.35	151.55
406.559	92.16
406.768	96.25
406.977	112.64
407.185	34.82
407.394	88.06
407.603	81.92
407.812	118.78
408.02	67.58
408.229	147.45
408.438	92.16
408.646	116.73
408.855	184.32
409.064	94.21
409.272	169.98
409.481	212.99
409.69	137.21
409.898	188.41
410.107	174.08
410.315	157.69
410.524	157.69
410.733	239.61
410.941	106.49
411.15	165.89
411.358	186.37
411.567	163.84
411.775	196.61
411.984	196.61
412.192	196.61
412.401	155.65
412.609	241.66
412.818	352.25
413.026	251.9
413.234	225.28
413.443	192.51
413.651	262.14
413.86	311.29
414.068	288.76
414.276	264.19
414.485	237.56
414.693	323.58
414.901	380.92
415.11	339.96
415.318	387.07
415.526	342.01
415.734	415.74
415.943	387.07
416.151	399.35
416.359	339.96
416.567	385.02
416.776	487.42
416.984	501.75
417.192	487.42
417.4	503.8
417.608	464.89
417.817	491.51
418.025	511.99
418.233	606.2
418.441	511.99
418.649	577.53
418.857	638.97
419.065	671.73
419.273	681.97
419.481	540.66
419.689	722.93
419.897	720.88
420.105	671.73
420.313	802.8
420.521	745.46
420.729	813.04
420.937	802.8
421.145	849.91
421.353	903.15
421.561	993.26
421.769	860.15
421.977	1015.79
422.185	966.64
422.393	1019.89
422.601	1101.81
422.809	1087.47
423.017	1179.63
423.224	1191.92
423.432	1187.82
423.64	1206.25
423.848	1335.28
424.056	1230.83
424.263	1413.1
424.471	1384.43
424.679	1409
424.887	1421.29
425.094	1495.02
425.302	1593.32
425.51	1550.31
425.718	1621.99
425.925	1656.81
426.133	1679.33
426.341	1734.63
426.548	1851.36
426.756	1755.11
426.964	1933.28
427.171	2047.97
427.379	1935.33
427.586	2211.81
427.794	2066.4
428.001	2234.33
428.209	2369.5
428.417	2351.07
428.624	2482.14
428.832	2447.32
429.039	2412.51
429.247	2402.27
429.454	2594.78
429.662	2916.31
429.869	2760.66
430.076	2826.2
430.284	2734.04
430.491	3000.27
430.699	3119.06
430.906	3129.3
431.114	3143.63
431.321	3301.33
431.528	3336.14
431.736	3495.88
431.943	3647.43
432.15	3696.58
432.358	3688.39
432.565	3700.68
432.772	3852.23
432.979	4153.28
433.187	3950.53
433.394	4100.03
433.601	4308.93
433.808	4345.79
434.016	4497.34
434.223	4534.2
434.43	4798.39
434.637	4521.91
434.844	5066.67
435.052	5033.91
435.259	5169.07
435.466	4986.8
435.673	5078.96
435.88	5363.63
436.087	5631.91
436.294	5717.93
436.501	5572.52
436.708	5691.31
436.915	5869.48
437.122	6229.92
437.329	6021.03
437.537	6201.25
437.743	6479.77
437.95	6324.13
438.157	6825.88
438.364	6866.84
438.571	6907.8
438.778	6989.72
438.985	7481.23
439.192	7169.94
439.399	7636.88
439.606	7249.81
439.813	7896.97
440.02	8320.9
440.227	7987.08
440.433	8255.36
440.64	8269.7
440.847	8275.84
441.054	8347.52
441.261	9105.27
441.467	8814.46
441.674	9072.5
441.881	9396.08
442.088	9383.79
442.294	9357.17
442.501	9463.66
442.708	9727.85
442.914	10272.61
443.121	10522.46
443.328	10153.83
443.534	11081.56
443.741	10788.7
443.948	10495.84
444.154	11302.74
444.361	11431.76
444.568	11312.98
444.774	11261.78
444.981	11558.74
445.187	11652.94
445.394	12027.72
445.6	12306.24
445.807	13256.5
446.013	12724.03
446.22	12945.21
446.426	13528.88
446.633	13559.6
446.839	14358.31
447.046	13727.53
447.252	14339.88
447.459	14116.65
447.665	14413.6
447.871	14810.91
448.078	15472.4
448.284	14663.46
448.491	15267.61
448.697	15685.39
448.903	16283.4
449.11	16277.26
449.316	15736.59
449.522	16244.49
449.728	16699.14
449.935	16803.58
450.141	16604.93
450.347	17055.48
450.553	16529.16
450.76	16729.86
450.966	17264.38
451.172	17366.77
451.378	17905.39
451.584	17405.69
451.791	17719.03
451.997	17706.74
452.203	17856.24
452.409	18159.34
452.615	18024.17
452.821	17331.96
453.027	16940.8
453.233	18085.61
453.44	17327.86
453.646	17696.5
453.852	17913.58
454.058	17907.44
454.264	17495.8
454.47	17690.35
454.676	17368.82
454.882	18210.54
455.088	16486.15
455.294	16813.82
455.5	17166.07
455.705	17104.63
455.911	16269.06
456.117	16162.57
456.323	15793.93
456.529	15099.67
456.735	15626
456.941	15511.32
457.147	15200.02
457.352	14712.61
457.558	14425.89
457.764	14577.44
457.97	14343.97
458.176	13903.66
458.381	13920.04
458.587	13383.48
458.793	13459.25
458.999	12533.57
459.204	13612.85
459.41	13174.58
459.616	12150.6
459.821	12394.31
460.027	12212.04
460.233	11968.33
460.438	11308.88
460.644	11497.3
460.85	11034.46
461.055	10997.59
461.261	10870.62
461.466	10041.19
461.672	9662.32
461.878	10456.93
462.083	9914.22
462.289	9428.85
462.494	9572.21
462.7	9123.7
462.905	8804.22
463.111	9246.58
463.316	8994.68
463.522	9019.25
463.727	8892.28
463.932	8941.43
464.138	8638.33
464.343	8904.57
464.549	8642.43
464.754	9047.93
464.959	8683.39
465.165	8722.3
465.37	8470.4
465.575	8044.42
465.781	8413.06
465.986	8374.14
466.191	8183.68
466.397	8152.96
466.602	7536.52
466.807	7884.68
467.012	7978.89
467.218	7845.77
467.423	7677.83
467.628	7878.54
467.833	8228.74
468.038	7724.94
468.244	7800.71
468.449	7790.47
468.654	7679.88
468.859	7690.12
469.064	7581.58
469.269	7339.92
469.474	7372.69
469.679	7597.96
469.885	7290.77
470.09	7294.86
470.295	7460.75
470.5	7165.84
470.705	7290.77
470.91	7083.92
471.115	6905.75
471.32	7155.6
471.525	6815.64
471.73	6938.52
471.935	7008.15
472.139	6717.34
472.344	6791.06
472.549	6694.81
472.754	6662.04
472.959	6436.77
473.164	6250.4
473.369	6287.26
473.574	6602.65
473.778	6373.28
473.983	6252.45
474.188	6322.08
474.393	6041.51
474.598	6004.64
474.802	6059.94
475.007	6119.33
475.212	6092.71
475.417	5834.66
475.621	5676.97
475.826	5775.27
476.031	5709.74
476.235	5627.82
476.44	5644.2
476.645	5625.77
476.849	5631.91
477.054	5556.14
477.259	5509.04
477.463	5318.57
477.668	5298.1
477.872	5470.12
478.077	5226.42
478.282	5076.91
478.486	5222.32
478.691	5121.97
478.895	4941.75
479.1	5017.52
479.304	5136.31
479.509	4943.8
479.713	5042.1
479.918	4884.41
480.122	4761.53
480.326	4796.34
480.531	4663.22
480.735	4736.95
480.94	4884.41
481.144	4956.08
481.348	4564.92
481.553	4773.82
481.757	4648.89
481.961	4704.18
482.166	4650.94
482.37	4767.67
482.574	4657.08
482.778	4634.55
482.983	4655.03
483.187	4507.58
483.391	4751.29
483.595	4679.61
483.8	4741.05
484.004	4640.7
484.208	4818.87
484.412	4693.94
484.616	4853.69
484.821	4724.66
485.025	4646.84
485.229	4800.44
485.433	4667.32
485.637	4614.07
485.841	4718.52
486.045	4581.31
486.249	4630.46
486.453	4739
486.657	4745.14
486.861	4724.66
487.065	4601.79
487.269	4476.86
487.473	4605.88
487.677	4569.02
487.881	4718.52
488.085	4827.06
488.289	4730.81
488.493	4571.07
488.697	4671.42
488.901	4788.15
489.105	4743.1
489.309	4743.1
489.512	4714.42
489.716	4730.81
489.92	4911.03
490.124	4806.58
490.328	4798.39
490.531	4792.25
490.735	4769.72
490.939	4769.72
491.143	4859.83
491.346	4710.33
491.55	4835.25
491.754	4792.25
491.958	4997.04
492.161	4915.12
492.365	4962.23
492.569	4757.43
492.772	5015.48
492.976	4997.04
493.18	4861.88
493.383	5074.87
493.587	5187.5
493.79	5179.31
493.994	5003.19
494.197	5101.49
494.401	5078.96
494.605	4984.76
494.808	5365.68
495.012	5085.11
495.215	5478.32
495.419	5253.04
495.622	5250.99
495.825	5377.97
496.029	5474.22
496.232	5494.7
496.436	5472.17
496.639	5545.9
496.843	5506.99
497.046	5636.01
497.249	5810.09
497.453	5719.98
497.656	5863.33
497.859	5787.56
498.063	5896.1
498.266	6029.22
498.469	6254.5
498.673	6090.66
498.876	6182.82
499.079	6174.63
499.282	6209.44
499.485	6295.46
499.689	6397.85
499.892	6598.56
500.095	6680.47
500.298	6895.51
500.501	6569.88
500.705	6795.16
500.908	6821.78
501.111	6967.19
501.314	6776.73
501.517	7024.53
501.72	7135.12
501.923	7161.75
502.126	7344.02
502.329	7528.33
502.532	7473.04
502.735	7522.19
502.938	7610.25
503.141	7493.52
503.344	7759.75
503.547	7817.1
503.75	7774.09
503.953	7862.15
504.156	8208.26
504.359	8144.77
504.562	8183.68
504.765	8640.38
504.968	8406.91
505.17	8617.85
505.373	8580.99
505.576	8884.09
505.779	8810.36
505.982	8888.18
506.185	9199.48
506.387	9015.16
506.59	9185.14
506.793	9422.7
506.996	9314.16
507.198	9527.15
507.401	9623.41
507.604	9715.56
507.807	9717.61
508.009	9695.08
508.212	9955.18
508.415	9961.32
508.617	10243.94
508.82	10280.8
509.022	10260.32
509.225	10674.01
509.428	10491.74
509.63	10671.97
509.833	10624.86
510.035	10911.58
510.238	10796.89
510.44	10970.97
510.643	11069.27
510.845	11196.25
511.048	11306.84
511.25	11442
511.453	11499.34
511.655	11968.33
511.858	11806.54
512.06	11974.47
512.262	11999.05
512.465	12166.98
512.667	12308.29
512.87	12293.96
513.072	12515.14
513.274	12635.97
513.477	12959.55
513.679	12771.13
513.881	12959.55
514.084	12990.27
514.286	13186.87
514.488	13107
514.69	13662
514.893	13582.13
515.095	13811.5
515.297	13813.55
515.499	13946.67
515.701	13948.72
515.904	14317.35
516.106	14313.25
516.308	14456.61
516.51	14870.3
516.712	14741.28
516.914	14999.32
517.116	14984.99
517.318	15091.48
517.52	14927.64
517.722	15335.19
517.925	15462.16
518.127	15775.5
518.329	15968.01
518.531	15992.59
518.733	16164.62
518.935	16113.42
519.136	16267.02
519.338	16561.92
519.54	16768.77
519.742	16744.19
519.944	16649.99
520.146	17116.92
520.348	17348.34
520.55	17407.73
520.752	17493.75
520.954	17805.04
521.155	17927.92
521.357	17846
521.559	17848.05
521.761	18292.46
521.963	18155.24
522.164	18302.7
522.366	18546.4
522.568	18593.51
522.77	18708.19
522.971	18986.72
523.173	18892.51
523.375	18929.38
523.576	19031.77
523.778	19320.54
523.98	19556.05
524.181	19644.12
524.383	19611.35
524.584	20006.61
524.786	20262.6
524.988	19902.16
525.189	20266.7
525.391	20438.73
525.592	20446.92
525.794	20336.33
525.995	20571.85
526.197	20426.44
526.398	20588.23
526.6	20645.57
526.801	20717.25
527.003	20776.64
527.204	20831.94
527.406	21190.33
527.607	21196.48
527.808	21020.35
528.01	21067.45
528.211	21362.36
528.412	21690.04
528.614	21608.12
528.815	21575.35
529.016	21827.25
529.218	21558.97
529.419	21847.73
529.62	22007.47
529.822	21722.8
530.023	21880.5
530.224	21864.11
530.425	21952.18
530.626	21974.7
530.828	21843.63
531.029	22396.59
531.23	21974.7
531.431	22161.07
531.632	22425.26
531.833	22701.73
532.035	22120.11
532.236	22349.48
532.437	22486.7
532.638	22154.93
532.839	22335.15
533.04	22683.3
533.241	22277.8
533.442	22750.88
533.643	22630.05
533.844	22478.5
534.045	22664.87
534.246	22392.49
534.447	22683.3
534.648	22562.47
534.849	22906.53
535.05	22478.5
535.251	22783.65
535.451	22572.71
535.652	22595.24
535.853	22273.71
536.054	22849.19
536.255	22910.63
536.456	22228.65
536.657	22986.4
536.857	22787.75
537.058	22415.02
537.259	22754.98
537.46	22853.28
537.66	22464.17
537.861	22943.39
538.062	22417.07
538.263	22621.86
538.463	22496.94
538.664	22527.66
538.865	22744.74
539.065	22929.06
539.266	22986.4
539.466	22888.1
539.667	22550.18
539.868	22914.72
540.068	22675.11
540.269	22382.25
540.469	22652.58
540.67	22476.46
540.87	22439.59
541.071	22632.1
541.271	22574.76
541.472	22568.62
541.672	22709.93
541.873	22372.01
542.073	22722.21
542.274	22601.38
542.474	23121.57
542.675	22478.5
542.875	23051.94
543.075	22761.12
543.276	22724.26
543.476	22441.64
543.676	22369.96
543.877	22783.65
544.077	22429.35
544.277	22734.5
544.478	22546.09
544.678	22605.48
544.878	22658.73
545.078	22527.66
545.279	22453.93
545.479	22369.96
545.679	22515.37
545.879	22562.47
546.079	22447.79
546.28	22412.97
546.48	22533.8
546.68	22617.77
546.88	22687.4
547.08	22566.57
547.28	22351.53
547.48	22105.77
547.68	22439.59
547.88	22095.53
548.081	22679.21
548.281	22357.67
548.481	22333.1
548.681	22568.62
548.881	22529.7
549.081	22388.39
549.28	22433.45
549.48	22511.27
549.68	22341.29
549.88	22556.33
550.08	22298.28
550.28	22628.01
550.48	22347.43
550.68	22621.86
550.88	22535.85
551.08	22443.69
551.279	22464.17
551.479	22249.13
551.679	22724.26
551.879	22161.07
552.079	22482.6
552.278	22247.08
552.478	22591.14
552.678	22419.11
552.878	22470.31
553.077	22142.64
553.277	22159.02
553.477	22363.82
553.676	22255.28
553.876	22378.15
554.076	22218.41
554.275	22283.95
554.475	21898.93
554.674	22298.28
554.874	22118.06
555.074	21931.7
555.273	21933.75
555.473	22169.26
555.672	21903.03
555.872	22095.53
556.071	22238.89
556.271	22263.47
556.47	21866.16
556.67	21647.03
556.869	21806.77
557.068	21896.88
557.268	21577.4
557.467	22017.71
557.667	21698.23
557.866	21743.28
558.065	22189.74
558.265	21776.05
558.464	21907.12
558.663	22109.87
558.863	21395.13
559.062	21898.93
559.261	21370.55
559.461	21923.51
559.66	21501.62
559.859	21434.04
560.058	21317.31
560.258	21563.06
560.457	21524.15
560.656	21786.29
560.855	21495.48
561.054	21399.23
561.253	21055.17
561.453	21178.04
561.652	21331.64
561.851	21311.16
562.05	21298.87
562.249	21188.28
562.448	21270.2
562.647	20999.87
562.846	20866.75
563.045	21147.33
563.244	20842.18
563.443	21139.13
563.642	20608.71
563.841	20803.27
564.04	20635.33
564.239	21001.92
564.438	20799.17
564.637	20602.57
564.836	20668.1
565.035	20365
565.234	20455.11
565.432	20117.2
565.631	20135.63
565.83	20283.08
566.029	20080.33
566.228	20057.81
566.427	19963.6
566.625	19965.65
566.824	19961.55
567.023	20135.63
567.222	19850.96
567.42	20076.24
567.619	19930.83
567.818	19914.45
568.016	19838.67
568.215	19918.54
568.414	19848.91
568.612	19666.64
568.811	19398.36
569.01	19728.08
569.208	19171.04
569.407	19513.05
569.605	19355.35
569.804	19427.03
570.002	19361.5
570.201	19341.02
570.4	18849.5
570.598	19080.92
570.797	18880.22
570.995	18953.95
571.193	18757.35
571.392	18970.33
571.59	18886.37
571.789	18677.47
571.987	18722.53
572.186	18843.36
572.384	18843.36
572.582	18695.91
572.781	18970.33
572.979	18265.83
573.177	18331.37
573.376	18298.6
573.574	18351.85
573.772	18491.11
573.971	18343.66
574.169	17872.62
574.367	17948.4
574.565	18188.01
574.763	17921.77
574.962	18022.12
575.16	17889.01
575.358	17870.58
575.556	17893.1
575.754	17737.46
575.952	17981.17
576.151	18171.63
576.349	17737.46
576.547	17587.96
576.745	17473.27
576.943	17489.65
577.141	17698.55
577.339	17643.25
577.537	17368.82
577.735	17434.36
577.933	17313.53
578.131	17506.04
578.329	17303.29
578.527	17141.5
578.725	17053.44
578.923	17151.74
579.121	17118.97
579.319	16891.65
579.516	17327.86
579.714	17006.33
579.912	16848.64
580.11	16740.1
580.308	16881.41
580.506	16725.76
580.704	16633.6
580.901	16627.46
581.099	16836.35
581.297	16332.55
581.495	16332.55
581.692	16461.57
581.89	16539.4
582.088	16500.48
582.285	16543.49
582.483	16414.47
582.681	16307.98
582.878	16254.73
583.076	15982.35
583.274	16252.68
583.471	15918.86
583.669	16029.45
583.866	15806.22
584.064	16013.07
584.262	15722.26
584.459	15974.16
584.657	15838.99
584.854	16099.08
585.052	15673.1
585.249	15836.94
585.447	15892.24
585.644	15638.29
585.841	15443.73
586.039	15527.7
586.236	15626
586.434	15400.72
586.631	15413.01
586.828	15390.49
587.026	15449.88
587.223	15464.21
587.42	15187.74
587.618	15204.12
587.815	14944.03
588.012	14944.03
588.21	14862.11
588.407	15216.41
588.604	14753.57
588.801	14888.73
588.999	14413.6
589.196	15052.57
589.393	14763.81
589.59	14825.25
589.787	14559.01
589.984	14755.61
590.182	14614.31
590.379	14815.01
590.576	14350.12
590.773	14503.71
590.97	14341.93
591.167	14458.66
591.364	14366.5
591.561	14403.36
591.758	14499.62
591.955	14221.09
592.152	14260.01
592.349	13981.48
592.546	14395.17
592.743	14235.43
592.94	14253.86
593.137	14087.98
593.334	13891.37
593.531	13748.01
593.727	13881.13
593.924	13772.59
594.121	13584.18
594.318	13778.73
594.515	13700.91
594.712	14042.92
594.908	13539.12
595.105	13475.63
595.302	13414.2
595.499	13793.07
595.696	13610.8
595.892	13489.97
596.089	13567.79
596.286	13489.97
596.482	13418.29
596.679	13465.39
596.876	13535.03
597.072	13258.55
597.269	13326.13
597.466	13201.21
597.662	13172.53
597.859	13199.16
598.055	13164.34
598.252	12975.93
598.448	13115.19
598.645	12951.35
598.841	12578.62
599.038	12834.62
599.234	12848.96
599.431	12812.09
599.627	12697.41
599.824	12691.26
600.02	12435.27
600.217	12689.21
600.413	12486.47
600.609	12519.23
600.806	12422.98
601.002	12652.35
601.198	12365.64
601.395	12326.72
601.591	12304.2
601.787	12396.35
601.984	12361.54
602.18	12269.38
602.376	12224.33
602.572	12345.16
602.769	12199.75
602.965	12078.92
603.161	12181.32
603.357	11986.76
603.553	12181.32
603.75	11859.79
603.946	11781.96
604.142	11997
604.338	11874.12
604.534	11779.92
604.73	11810.64
604.926	11786.06
605.122	11763.53
605.318	11583.31
605.514	11640.65
605.71	11370.32
605.906	11499.34
606.102	11728.72
606.298	11386.71
606.494	11439.95
606.69	11669.33
606.886	11525.97
607.082	11247.44
607.278	11564.88
607.474	11347.79
607.67	11226.96
607.866	11026.26
608.062	11321.17
608.257	11149.14
608.453	11071.32
608.649	11108.18
608.845	11194.2
609.041	11044.7
609.236	11210.58
609.432	11108.18
609.628	11124.57
609.824	10925.91
610.019	10950.49
610.215	11046.74
610.411	11013.98
610.606	11009.88
610.802	10966.87
610.998	10778.46
611.193	10895.19
611.389	10563.42
611.584	10923.87
611.78	10655.58
611.976	10712.92
612.171	10745.69
612.367	10760.03
612.562	10639.2
612.758	10407.78
612.953	10637.15
613.149	10641.25
613.344	10395.49
613.539	10680.16
613.735	10553.18
613.93	10684.25
614.126	10434.4
614.321	10686.3
614.517	10567.52
614.712	10483.55
614.907	10551.13
615.103	10303.33
615.298	10493.79
615.493	10745.69
615.688	10395.49
615.884	10553.18
616.079	10448.74
616.274	10508.13
616.47	10235.75
616.665	10501.98
616.86	10159.97
617.055	10155.88
617.25	10018.66
617.445	10317.67
617.641	10049.38
617.836	10080.1
618.031	10063.72
618.226	10241.89
618.421	9973.61
618.616	9983.85
618.811	9822.06
619.006	10200.93
619.201	9717.61
619.396	10088.29
619.591	9670.51
619.786	9863.02
619.981	9719.66
620.176	9695.08
620.371	9750.38
620.566	9854.83
620.761	9678.7
620.956	9445.23
621.151	9533.29
621.346	9555.82
621.541	9336.69
621.735	9387.89
621.93	9322.35
622.125	9330.55
622.32	9215.86
622.515	9469.81
622.709	9219.96
622.904	9248.63
623.099	8974.2
623.294	8857.46
623.488	8976.25
623.683	8908.66
623.878	8863.61
624.072	8867.7
624.267	8728.44
624.462	8607.61
624.656	8796.03
624.851	8726.39
625.046	8607.61
625.24	8732.54
625.435	8494.97
625.629	8580.99
625.824	8277.89
626.018	8451.97
626.213	8265.6
626.407	8228.74
626.602	8189.83
626.796	8292.23
626.991	8077.19
627.185	8302.47
627.38	8159.11
627.574	8075.14
627.768	8007.56
627.963	8122.24
628.157	7790.47
628.352	7976.84
628.546	7833.48
628.74	7864.2
628.935	7671.69
629.129	7655.31
629.323	7714.7
629.517	7698.31
629.712	7528.33
629.906	7516.05
630.1	7548.81
630.294	7503.76
630.489	7303.06
630.683	7452.56
630.877	7341.97
631.071	7368.59
631.265	7374.74
631.459	7262.1
631.653	7225.23
631.848	7167.89
632.042	7196.56
632.236	7223.19
632.43	6948.76
632.624	6922.13
632.818	7042.96
633.012	6930.33
633.206	6819.74
633.4	6922.13
633.594	6735.77
633.788	6872.98
633.982	6784.92
634.176	6707.1
634.369	6815.64
634.563	6823.83
634.757	6637.47
634.951	6727.58
635.145	6514.59
635.339	6670.23
635.533	6612.89
635.726	6473.63
635.92	6287.26
636.114	6334.37
636.308	6436.77
636.501	6520.73
636.695	6373.28
636.889	6279.07
637.083	6238.11
637.276	6104.99
637.47	6197.15
637.664	6191.01
637.857	6154.15
638.051	6059.94
638.244	6041.51
638.438	6107.04
638.632	5939.11
638.825	5734.31
639.019	5975.97
639.212	5801.9
639.406	5898.15
639.599	5789.61
639.793	5773.22
639.986	5593
640.18	5654.44
640.373	5566.38
640.567	5658.54
640.76	5572.52
640.954	5828.52
641.147	5595.05
641.34	5474.22
641.534	5511.08
641.727	5463.98
641.92	5451.69
642.114	5498.8
642.307	5431.21
642.5	5492.65
642.694	5365.68
642.887	5253.04
643.08	5373.87
643.273	5328.81
643.467	5267.38
643.66	5220.27
643.853	5109.68
644.046	5085.11
644.239	5197.74
644.432	5038
644.626	5064.63
644.819	5001.14
645.012	4913.08
645.205	5101.49
645.398	5177.26
645.591	5040.05
645.784	4890.55
645.977	4775.86
646.17	4841.4
646.363	4827.06
646.556	4755.38
646.749	4902.84
646.942	4845.49
647.135	4775.86
647.328	4784.05
647.521	4878.26
647.714	4564.92
647.907	4698.04
648.099	4573.11
648.292	4650.94
648.485	4489.15
648.678	4753.34
648.871	4523.96
649.064	4460.48
649.256	4538.3
649.449	4552.63
649.642	4401.08
649.835	4413.37
650.027	4274.11
650.22	4435.9
650.413	4564.92
650.605	4345.79
650.798	4333.5
650.991	4292.54
651.183	4272.06
651.376	4153.28
651.568	4247.49
651.761	4175.81
651.954	4177.86
652.146	4212.67
652.339	4122.56
652.531	4079.55
652.724	3995.59
652.916	4079.55
653.109	4052.93
653.301	4095.94
653.494	4063.17
653.686	3928
653.879	4048.83
654.071	3846.09
654.263	3903.43
654.456	3876.8
654.648	3885
654.84	3950.53
655.033	3755.97
655.225	3903.43
655.417	3811.27
655.61	3755.97
655.802	3747.78
655.994	3743.69
656.186	3749.83
656.379	3762.12
656.571	3678.15
656.763	3612.62
656.955	3704.78
657.148	3551.18
657.34	3639.24
657.532	3565.51
657.724	3510.22
657.916	3633.1
658.108	3565.51
658.3	3672.01
658.492	3516.36
658.684	3463.12
658.876	3508.17
659.068	3407.82
659.26	3436.49
659.452	3510.22
659.644	3481.55
659.836	3362.76
660.028	3459.02
660.22	3305.42
660.412	3258.32
660.604	3297.23
660.796	3336.14
660.988	3286.99
661.18	3272.65
661.372	3174.35
661.563	3321.81
661.755	3301.33
661.947	3170.26
662.139	3028.95
662.331	3121.1
662.522	3112.91
662.714	3080.14
662.906	2983.89
663.097	3121.1
663.289	3194.83
663.481	3049.43
663.673	3006.42
663.864	3026.9
664.056	3080.14
664.247	2998.23
664.439	2924.5
664.631	3063.76
664.822	3074
665.014	3014.61
665.205	2992.08
665.397	2947.03
665.588	2951.12
665.78	2789.33
665.971	2916.31
666.163	2994.13
666.354	2836.44
666.546	2977.75
666.737	2846.68
666.929	2791.38
667.12	2920.4
667.311	2846.68
667.503	2727.89
667.694	2738.13
667.885	2895.83
668.077	2703.32
668.268	2654.17
668.459	2584.54
668.651	2637.78
668.842	2729.94
669.033	2695.13
669.224	2721.75
669.416	2697.17
669.607	2613.21
669.798	2584.54
669.989	2574.3
670.18	2660.31
670.371	2525.15
670.563	2613.21
670.754	2654.17
670.945	2529.24
671.136	2578.39
671.327	2457.56
671.518	2465.75
671.709	2457.56
671.9	2482.14
672.091	2463.71
672.282	2473.95
672.473	2543.58
672.664	2559.96
672.855	2494.43
673.046	2416.6
673.237	2432.99
673.428	2424.79
673.619	2402.27
673.809	2459.61
674	2451.42
674.191	2455.51
674.382	2318.3
674.573	2279.39
674.764	2342.88
674.954	2465.75
675.145	2359.26
675.336	2361.31
675.527	2273.25
675.717	2320.35
675.908	2451.42
676.099	2224.09
676.289	2369.5
676.48	2226.14
676.671	2279.39
676.861	2287.58
677.052	2242.53
677.243	2185.18
677.433	2254.81
677.624	2250.72
677.814	2230.24
678.005	2154.46
678.195	2293.72
678.386	2140.13
678.576	2254.81
678.767	2252.77
678.957	2236.38
679.148	2312.16
679.338	2170.85
679.529	2185.18
679.719	2150.37
679.909	2084.83
680.1	2117.6
680.29	2246.62
680.481	2043.87
680.671	2287.58
680.861	2129.89
681.052	2179.04
681.242	2136.03
681.432	2125.79
681.622	2054.11
681.813	2133.98
682.003	1968.1
682.193	2004.96
682.383	2015.2
682.573	2035.68
682.764	2101.22
682.954	2076.64
683.144	1994.72
683.334	2088.93
683.524	2058.21
683.714	2031.59
683.904	2002.91
684.094	1935.33
684.284	2029.54
684.474	2142.18
684.664	2093.02
684.854	2033.63
685.044	2068.45
685.234	1984.48
685.424	2017.25
685.614	1992.67
685.804	2072.54
685.994	2002.91
686.184	2099.17
686.374	2019.3
686.564	1925.09
686.753	1959.91
686.943	1947.62
687.133	2041.82
687.323	1916.9
687.513	1945.57
687.702	1978.34
687.892	1841.12
688.082	1980.39
688.272	2066.4
688.461	1945.57
688.651	1875.94
688.841	1808.36
689.03	1880.04
689.22	1970.15
689.41	1898.47
689.599	1914.85
689.789	1906.66
689.979	1884.13
690.168	1877.99
690.358	1853.41
690.547	1937.38
690.737	1884.13
690.926	1771.49
691.116	1708.01
691.305	1959.91
691.495	1773.54
691.684	1763.3
691.874	1712.1
692.063	1695.72
692.252	1685.48
692.442	1765.35
692.631	1691.62
692.82	1802.21
693.01	1675.24
693.199	1695.72
693.388	1753.06
693.578	1716.2
693.767	1728.49
693.956	1677.29
694.146	1654.76
694.335	1605.61
694.524	1744.87
694.713	1626.09
694.902	1703.91
695.092	1732.58
695.281	1691.62
695.47	1671.14
695.659	1646.57
695.848	1708.01
696.037	1574.89
696.226	1654.76
696.415	1503.21
696.604	1687.53
696.793	1603.56
696.982	1601.51
697.171	1712.1
697.36	1589.22
697.549	1605.61
697.738	1626.09
697.927	1507.3
698.116	1591.27
698.305	1578.98
698.494	1638.38
698.683	1632.23
698.872	1550.31
699.061	1562.6
699.25	1554.41
699.438	1636.33
699.627	1617.9
699.816	1507.3
700.005	1609.7
700.193	1458.15
700.382	1581.03
700.571	1654.76
700.76	1599.46
700.948	1634.28
701.137	1593.32
701.326	1595.37
701.514	1634.28
701.703	1583.08
701.892	1525.74
702.08	1638.38
702.269	1615.85
702.457	1589.22
702.646	1605.61
702.834	1564.65
703.023	1544.17
703.212	1603.56
703.4	1662.95
703.589	1566.7
703.777	1564.65
703.965	1619.94
704.154	1757.16
704.342	1564.65
704.531	1603.56
704.719	1587.18
704.907	1615.85
705.096	1558.5
705.284	1492.97
705.472	1572.84
705.661	1566.7
705.849	1533.93
706.037	1533.93
706.226	1665
706.414	1669.09
706.602	1677.29
706.79	1554.41
706.979	1546.22
707.167	1673.19
707.355	1562.6
707.543	1648.61
707.731	1660.9
707.919	1527.78
708.107	1554.41
708.296	1593.32
708.484	1570.79
708.672	1615.85
708.86	1515.5
709.048	1593.32
709.236	1574.89
709.424	1599.46
709.612	1601.51
709.8	1505.26
709.988	1589.22
710.176	1605.61
710.364	1740.77
710.551	1554.41
710.739	1638.38
710.927	1621.99
711.115	1613.8
711.303	1638.38
711.491	1599.46
711.679	1550.31
711.866	1564.65
712.054	1652.71
712.242	1597.42
712.43	1603.56
712.617	1644.52
712.805	1607.66
712.993	1599.46
713.181	1411.05
713.368	1607.66
713.556	1667.05
713.744	1564.65
713.931	1572.84
714.119	1587.18
714.306	1632.23
714.494	1693.67
714.682	1761.25
714.869	1531.88
715.057	1581.03
715.244	1597.42
715.432	1708.01
715.619	1624.04
715.807	1597.42
715.994	1587.18
716.182	1621.99
716.369	1585.13
716.556	1724.39
716.744	1634.28
716.931	1665
717.119	1677.29
717.306	1591.27
717.493	1722.34
717.681	1638.38
717.868	1607.66
718.055	1628.14
718.242	1665
718.43	1724.39
718.617	1542.12
718.804	1777.64
718.991	1658.85
719.179	1589.22
719.366	1583.08
719.553	1732.58
719.74	1736.68
719.927	1566.7
720.114	1656.81
720.301	1560.55
720.488	1593.32
720.676	1568.74
720.863	1630.18
721.05	1804.26
721.237	1654.76
721.424	1699.81
721.611	1740.77
721.798	1599.46
721.985	1609.7
722.172	1667.05
722.358	1662.95
722.545	1583.08
722.732	1607.66
722.919	1757.16
723.106	1687.53
723.293	1572.84
723.48	1746.92
723.667	1560.55
723.853	1705.96
724.04	1675.24
724.227	1753.06
724.414	1775.59
724.6	1646.57
724.787	1699.81
724.974	1728.49
725.161	1705.96
725.347	1681.38
725.534	1744.87
725.72	1624.04
725.907	1791.97
726.094	1638.38
726.28	1779.68
726.467	1640.42
726.653	1679.33
726.84	1810.4
727.027	1667.05
727.213	1624.04
727.4	1695.72
727.586	1732.58
727.773	1681.38
727.959	1701.86
728.145	1769.44
728.332	1720.29
728.518	1708.01
728.705	1798.12
728.891	1650.66
729.077	1677.29
729.264	1716.2
729.45	1765.35
729.636	1712.1
729.823	1703.91
730.009	1712.1
730.195	1746.92
730.382	1826.79
730.568	1746.92
730.754	1748.97
730.94	1773.54
731.126	1875.94
731.313	1738.73
731.499	1726.44
731.685	1851.36
731.871	1769.44
732.057	1710.05
732.243	1734.63
732.429	1728.49
732.615	1724.39
732.801	1853.41
732.987	1679.33
733.173	1753.06
733.359	1746.92
733.545	1728.49
733.731	1810.4
733.917	1695.72
734.103	1763.3
734.289	1724.39
734.475	1734.63
734.661	1746.92
734.847	1662.95
735.033	1869.8
735.219	1691.62
735.404	1781.73
735.59	1710.05
735.776	1677.29
735.962	1826.79
736.148	1763.3
736.333	1687.53
736.519	1710.05
736.705	1724.39
736.89	1898.47
737.076	1794.02
737.262	1757.16
737.447	1796.07
737.633	1779.68
737.819	1781.73
738.004	1695.72
738.19	1689.57
738.375	1648.61
738.561	1687.53
738.747	1724.39
738.932	1748.97
739.118	1732.58
739.303	1697.77
739.489	1660.9
739.674	1669.09
739.859	1785.83
740.045	1781.73
740.23	1679.33
740.416	1636.33
740.601	1744.87
740.786	1626.09
740.972	1603.56
741.157	1673.19
741.342	1624.04
741.528	1640.42
741.713	1632.23
741.898	1697.77
742.084	1603.56
742.269	1527.78
742.454	1636.33
742.639	1648.61
742.824	1654.76
743.01	1683.43
743.195	1624.04
743.38	1587.18
743.565	1648.61
743.75	1568.74
743.935	1648.61
744.12	1679.33
744.305	1589.22
744.49	1574.89
744.675	1601.51
744.86	1650.66
745.045	1535.98
745.23	1542.12
745.415	1521.64
745.6	1671.14
745.785	1458.15
745.97	1562.6
746.155	1538.02
746.34	1468.39
746.525	1613.8
746.71	1533.93
746.895	1447.91
747.079	1484.78
747.264	1488.87
747.449	1425.39
747.634	1503.21
747.819	1417.19
748.003	1433.58
748.188	1433.58
748.373	1435.63
748.557	1449.96
748.742	1458.15
748.927	1390.57
749.111	1486.83
749.296	1320.94
749.481	1384.43
749.665	1370.09
749.85	1345.52
750.034	1325.04
750.219	1335.28
750.404	1329.13
750.588	1351.66
750.773	1261.55
750.957	1355.76
751.141	1306.6
751.326	1302.51
751.51	1284.08
751.695	1288.17
751.879	1343.47
752.064	1288.17
752.248	1228.78
752.432	1304.56
752.617	1282.03
752.801	1294.32
752.985	1288.17
753.17	1230.83
753.354	1206.25
753.538	1251.31
753.722	1173.49
753.907	1212.4
754.091	1142.77
754.275	1173.49
754.459	1103.86
754.643	1052.66
754.828	1161.2
755.012	1103.86
755.196	1138.67
755.38	1122.29
755.564	1093.62
755.748	1175.53
755.932	1171.44
756.116	1042.42
756.3	1087.47
756.484	1093.62
756.668	1112.05
756.852	1097.71
757.036	1046.51
757.22	999.41
757.404	1064.94
757.588	1003.5
757.772	968.69
757.956	1058.8
758.14	999.41
758.323	1015.79
758.507	1019.89
758.691	1032.18
758.875	1009.65
759.059	1001.46
759.242	911.35
759.426	1001.46
759.61	948.21
759.794	925.68
759.977	925.68
760.161	972.79
760.345	888.82
760.528	978.93
760.712	929.78
760.895	905.2
761.079	911.35
761.263	897.01
761.446	913.39
761.63	894.96
761.813	901.11
761.997	819.19
762.18	866.29
762.364	872.43
762.547	841.72
762.731	978.93
762.914	966.64
763.098	923.63
763.281	804.85
763.464	860.15
763.648	858.1
763.831	911.35
764.015	823.28
764.198	811
764.381	860.15
764.564	829.43
764.748	733.17
764.931	825.33
765.114	755.7
765.297	811
765.481	743.41
765.664	819.19
765.847	772.08
766.03	860.15
766.213	808.95
766.397	856.05
766.58	767.99
766.763	862.19
766.946	849.91
767.129	718.84
767.312	690.17
767.495	745.46
767.678	741.36
767.861	833.52
768.044	851.95
768.227	788.47
768.41	767.99
768.593	757.75
768.776	808.95
768.959	704.5
769.142	819.19
769.324	706.55
769.507	780.28
769.69	806.9
769.873	739.32
770.056	727.03
770.239	798.71
770.421	731.12
770.604	772.08
770.787	710.65
770.97	739.32
771.152	813.04
771.335	704.5
771.518	737.27
771.7	784.37
771.883	641.01
772.066	704.5
772.248	724.98
772.431	661.49
772.613	800.76
772.796	681.97
772.978	655.35
773.161	684.02
773.343	718.84
773.526	593.91
773.708	706.55
773.891	696.31
774.073	686.07
774.256	614.39
774.438	655.35
774.621	583.67
774.803	667.64
774.985	638.97
775.168	714.74
775.35	645.11
775.532	610.29
775.715	583.67
775.897	641.01
776.079	610.29
776.261	704.5
776.444	628.73
776.626	493.56
776.808	561.14
776.99	643.06
777.173	542.71
777.355	602.1
777.537	600.05
777.719	557.05
777.901	540.66
778.083	598.01
778.265	524.28
778.447	540.66
778.629	585.72
778.811	489.46
778.993	514.04
779.175	575.48
779.357	509.94
779.539	532.47
779.721	542.71
779.903	466.94
780.085	471.03
780.267	528.38
780.449	458.74
780.631	507.9
780.812	471.03
780.994	462.84
781.176	516.09
781.358	520.18
781.54	444.41
781.721	493.56
781.903	520.18
782.085	382.97
782.267	460.79
782.448	434.17
782.63	468.98
782.812	505.85
782.993	436.22
783.175	464.89
783.357	516.09
783.538	475.13
783.72	444.41
783.901	483.32
784.083	411.64
784.264	425.98
784.446	407.55
784.627	409.59
784.809	419.83
784.99	413.69
785.172	428.03
785.353	397.31
785.535	448.51
785.716	425.98
785.897	382.97
786.079	348.15
786.26	393.21
786.441	466.94
786.623	372.73
786.804	382.97
786.985	360.44
787.167	376.83
787.348	391.16
787.529	303.1
787.71	415.74
787.891	423.93
788.073	280.57
788.254	321.53
788.435	389.11
788.616	354.3
788.797	278.52
788.978	243.71
789.159	311.29
789.34	327.67
789.522	360.44
789.703	331.77
789.884	331.77
790.065	301.05
790.246	346.11
790.427	436.22
790.607	245.76
790.788	342.01
790.969	409.59
791.15	364.54
791.331	325.63
791.512	352.25
791.693	303.1
791.874	333.82
792.054	385.02
792.235	264.19
792.416	294.91
792.597	178.17
792.778	262.14
792.958	362.49
793.139	241.66
793.32	325.63
793.5	229.37
793.681	323.58
793.862	335.87
794.042	321.53
794.223	286.72
794.404	348.15
794.584	278.52
794.765	288.76
794.945	350.2
795.126	278.52
795.306	292.86
795.487	303.1
795.667	278.52
795.848	202.75
796.028	233.47
796.209	278.52
796.389	296.96
796.57	243.71
796.75	217.08
796.93	272.38
797.111	212.99
797.291	247.8
797.471	172.03
797.652	292.86
797.832	215.04
798.012	231.42
798.192	260.09
798.373	184.32
798.553	194.56
798.733	202.75
798.913	114.69
799.093	172.03
799.274	223.23
799.454	198.65
799.634	192.51
799.814	274.43
799.994	262.14
800.174	223.23
800.354	182.27
800.534	149.5
800.714	174.08
800.894	206.84
801.074	270.33
801.254	243.71
801.434	212.99
801.614	245.76
801.794	133.12
801.974	772.08
802.154	251.9
802.334	274.43
802.514	174.08
802.693	176.13
802.873	198.65
803.053	200.7
803.233	225.28
803.413	262.14
803.592	180.22
803.772	204.8
803.952	204.8
804.131	172.03
804.311	186.37
804.491	221.18
804.67	165.89
804.85	239.61
805.03	231.42
805.209	241.66
805.389	188.41
805.568	155.65
805.748	161.79
805.928	227.32
806.107	172.03
806.287	215.04
806.466	145.41
806.646	192.51
806.825	186.37
807.004	198.65
807.184	139.26
807.363	208.89
807.543	260.09
807.722	212.99
807.901	106.49
808.081	233.47
808.26	114.69
808.439	167.93
808.619	169.98
808.798	147.45
808.977	86.01
809.156	186.37
809.336	182.27
809.515	198.65
809.694	145.41
809.873	223.23
810.052	178.17
810.231	200.7
810.411	131.07
810.59	159.74
810.769	110.59
810.948	147.45
811.127	100.35
811.306	143.36
811.485	190.46
811.664	260.09
811.843	126.97
812.022	116.73
812.201	161.79
812.38	163.84
812.559	147.45
812.737	290.81
812.916	151.55
813.095	153.6
813.274	106.49
813.453	114.69
813.632	143.36
813.811	131.07
813.989	98.3
814.168	90.11
814.347	106.49
814.526	163.84
814.704	92.16
814.883	129.02
815.062	75.77
815.24	237.56
815.419	98.3
815.598	126.97
815.776	122.88
815.955	161.79
816.133	145.41
816.312	88.06
816.49	155.65
816.669	139.26
816.847	92.16
817.026	202.75
817.204	122.88
817.383	92.16
817.561	57.34
817.74	120.83
817.918	159.74
818.097	73.73
818.275	75.77
818.453	155.65
818.632	145.41
818.81	129.02
818.988	108.54
819.167	106.49
819.345	167.93
819.523	100.35
819.701	43.01
819.879	53.25
820.058	149.5
820.236	116.73
820.414	131.07
820.592	102.4
820.77	108.54
820.948	81.92
821.127	98.3
821.305	124.93
821.483	79.87
821.661	135.17
821.839	133.12
822.017	131.07
822.195	133.12
822.373	118.78
822.551	83.97
822.729	192.51
822.907	88.06
823.085	110.59
823.262	100.35
823.44	81.92
823.618	147.45
823.796	86.01
823.974	55.3
824.152	79.87
824.329	57.34
824.507	59.39
824.685	57.34
824.863	178.17
825.04	210.94
825.218	90.11
825.396	172.03
825.574	86.01
825.751	18.43
825.929	133.12
826.107	98.3
826.284	71.68
826.462	86.01
826.639	65.53
826.817	-30.72
826.994	108.54
827.172	126.97
827.349	133.12
827.527	102.4
827.704	98.3
827.882	61.44
828.059	116.73
828.237	45.06
828.414	133.12
828.591	65.53
828.769	124.93
828.946	53.25
829.124	90.11
829.301	141.31
829.478	63.49
829.655	96.25
829.833	96.25
830.01	-22.53
830.187	108.54
830.364	139.26
830.542	51.2
830.719	129.02
830.896	26.62
831.073	106.49
831.25	83.97
831.427	69.63
831.604	69.63
831.782	57.34
831.959	102.4
832.136	114.69
832.313	67.58
832.49	81.92
832.667	73.73
832.844	110.59
833.021	75.77
833.198	45.06
833.374	40.96
833.551	86.01
833.728	135.17
833.905	90.11
834.082	90.11
834.259	114.69
834.436	147.45
834.612	10.24
834.789	192.51
834.966	77.82
835.143	49.15
835.319	0
835.496	59.39
835.673	59.39
835.85	40.96
836.026	73.73
836.203	67.58
836.38	36.86
836.556	129.02
836.733	131.07
836.909	108.54
837.086	-18.43
837.262	69.63
837.439	73.73
837.616	57.34
837.792	57.34
837.968	43.01
838.145	38.91
838.321	92.16
838.498	116.73
838.674	106.49
838.851	120.83
839.027	8.19
839.203	8.19
839.38	34.82
839.556	57.34
839.732	51.2
839.909	55.3
840.085	51.2
840.261	26.62
840.437	53.25
840.614	14.34
840.79	104.45
840.966	53.25
841.142	47.1
841.318	40.96
841.494	90.11
841.671	67.58
841.847	49.15
842.023	40.96
842.199	73.73
842.375	43.01
842.551	30.72
842.727	81.92
842.903	86.01
843.079	81.92
843.255	92.16
843.431	63.49
843.607	59.39
843.783	94.21
843.959	100.35
844.134	18.43
844.31	65.53
844.486	77.82
844.662	88.06
844.838	40.96
845.013	67.58
845.189	75.77
845.365	32.77
845.541	18.43
845.716	67.58
845.892	71.68
846.068	-40.96
846.244	-14.34
846.419	124.93
846.595	12.29
846.77	51.2
846.946	110.59
847.122	131.07
847.297	30.72
847.473	16.38
847.648	8.19
847.824	81.92
847.999	-47.1
848.175	34.82
848.35	8.19
848.526	90.11
848.701	26.62
848.876	49.15
849.052	104.45
849.227	88.06
849.403	26.62
849.578	20.48
849.753	16.38
849.929	8.19
850.104	32.77
850.279	-16.38
850.454	0
850.63	26.62
850.805	83.97
850.98	24.58
851.155	53.25
851.33	-2.05
851.505	-18.43
851.681	141.31
851.856	43.01
852.031	67.58
852.206	38.91
852.381	34.82
852.556	100.35
852.731	-20.48
852.906	4.1
853.081	16.38
853.256	45.06
853.431	57.34
853.606	40.96
853.781	75.77
853.956	12.29
854.131	26.62
854.305	55.3
854.48	73.73
854.655	83.97
854.83	51.2
855.005	40.96
855.18	12.29
855.354	-32.77
855.529	16.38
855.704	69.63
855.879	12.29
856.053	-26.62
856.228	57.34
856.403	-6.14
856.577	65.53
856.752	40.96
856.926	79.87
857.101	100.35
857.276	32.77
857.45	10.24
857.625	2.05
857.799	12.29
857.974	43.01
858.148	-12.29
858.323	55.3
858.497	-32.77
858.672	28.67
858.846	18.43
859.02	22.53
859.195	16.38
859.369	6.14
859.543	-8.19
859.718	49.15
859.892	-43.01
860.066	81.92
860.241	51.2
860.415	-24.58
860.589	-96.25
860.763	24.58
860.938	61.44
861.112	4.1
861.286	18.43
861.46	40.96
861.634	16.38
861.808	102.4
861.982	-16.38
862.157	26.62
862.331	32.77
862.505	79.87
862.679	14.34
862.853	0
863.027	47.1
863.201	104.45
863.375	-12.29
863.549	16.38
863.722	40.96
863.896	122.88
864.07	12.29
864.244	45.06
864.418	51.2
864.592	16.38
864.766	20.48
864.939	90.11
865.113	4.1
865.287	81.92
865.461	16.38
865.634	26.62
865.808	24.58
865.982	0
866.156	53.25
866.329	2.05
866.503	53.25
866.676	32.77
866.85	63.49
867.024	40.96
867.197	43.01
867.371	102.4
867.544	57.34
867.718	26.62
867.891	28.67
868.065	94.21
868.238	34.82
868.412	75.77
868.585	-22.53
868.759	34.82
868.932	-36.86
869.105	22.53
869.279	16.38
869.452	-20.48
869.625	69.63
869.799	36.86
869.972	-38.91
870.145	8.19
870.319	6.14
870.492	0
870.665	36.86
870.838	24.58
871.011	14.34
871.185	75.77
871.358	2.05
871.531	137.21
871.704	-16.38
871.877	24.58
872.05	-65.54
872.223	18.43
872.396	81.92
872.569	83.97
872.742	-26.62
872.915	26.62
873.088	-40.96
873.261	-26.62
873.434	-12.29
873.607	-49.15
873.78	22.53
873.953	55.3
874.126	-4.1
874.299	30.72
874.471	83.97
874.644	47.1
874.817	26.62
874.99	-6.14
875.163	108.54
875.335	16.38
875.508	-45.06
875.681	94.21
875.853	65.53
876.026	-28.67
876.199	61.44
876.371	-30.72
876.544	4.1
876.717	18.43
876.889	36.86
877.062	-8.19
877.234	69.63
877.407	16.38
877.579	10.24
877.752	14.34
877.924	88.06
878.097	32.77
878.269	2.05
878.442	51.2
878.614	94.21
878.786	59.39
878.959	30.72
879.131	-49.15
879.303	71.68
879.476	-20.48
879.648	16.38
879.82	-22.53
879.993	40.96
880.165	26.62
880.337	-34.82
880.509	59.39
880.681	-32.77
880.854	-24.58
881.026	32.77
881.198	67.58
881.37	49.15
881.542	88.06
881.714	47.1
881.886	53.25
882.058	-38.91
882.23	28.67
882.402	12.29
882.574	16.38
882.746	34.82
882.918	92.16
883.09	14.34
883.262	2.05
883.434	-6.14
883.606	40.96
883.778	59.39
883.95	81.92
884.122	53.25
884.293	96.25
884.465	12.29
884.637	8.19
884.809	10.24
884.98	4.1
885.152	-38.91
885.324	36.86
885.496	69.63
885.667	8.19
885.839	-8.19
886.011	88.06
886.182	47.1
886.354	8.19
886.525	-12.29
886.697	6.14
886.869	57.34
887.04	0
887.212	81.92
887.383	73.73
887.555	-45.06
887.726	-26.62
887.897	-34.82
888.069	83.97
888.24	10.24
888.412	6.14
888.583	-24.58
888.754	-4.1
888.926	2.05
889.097	63.49
889.268	-45.06
889.44	51.2
889.611	-36.86
889.782	-90.11
889.953	-81.92
890.125	83.97
890.296	38.91
890.467	47.1
890.638	-61.44
890.809	-26.62
890.98	-36.86
891.151	-26.62
891.323	49.15
891.494	-86.01
891.665	34.82
891.836	43.01
892.007	12.29
892.178	49.15
892.349	22.53
892.52	92.16
892.691	77.82
892.862	-2.05
893.032	63.49
893.203	-49.15
893.374	-53.25
893.545	36.86
893.716	24.58
893.887	57.34
894.057	-14.34
894.228	14.34
894.399	16.38
894.57	0
894.74	-26.62
894.911	-12.29
895.082	-53.25
895.253	49.15
895.423	16.38
895.594	32.77
895.764	51.2
895.935	8.19
896.106	28.67
896.276	-8.19
896.447	26.62
896.617	55.3
896.788	-30.72
896.958	30.72
897.129	-12.29
897.299	51.2
897.47	24.58
897.64	-18.43
897.81	-28.67
897.981	32.77
898.151	2.05
898.322	8.19
898.492	12.29
898.662	10.24
898.832	-14.34
899.003	51.2
899.173	-20.48
899.343	-20.48
899.513	-16.38
