Data from USB4F104151__9__13-10-21-446.txt Node

Date: Fri Mar 14 13:10:21 EDT 2025
User: louis
Spectrometer: USB4F10415
Trigger mode: 4
Integration Time (sec): 2.000000E-2
Scans to average: 1
Electric dark correction enabled: true
Nonlinearity correction enabled: false
Boxcar width: 0
XAxis mode: Wavelengths
Number of Pixels in Spectrum: 3648
>>>>>Begin Spectral Data<<<<<
178.204	-135.85
178.424	-135.85
178.644	-135.85
178.864	-103.08
179.084	-80.55
179.304	-8.87
179.524	-45.74
179.744	3.41
179.964	30.04
180.184	5.46
180.404	58.71
180.624	-29.35
180.844	36.18
181.064	-25.26
181.283	-37.55
181.503	-21.16
181.723	34.13
181.943	-41.64
182.163	-0.68
182.383	17.75
182.602	32.08
182.822	73.04
183.042	95.57
183.262	1.37
183.482	11.61
183.701	9.56
183.921	13.65
184.141	11.61
184.361	7.51
184.58	17.75
184.8	71
185.02	128.34
185.239	103.76
185.459	30.04
185.679	46.42
185.898	-45.74
186.118	97.62
186.338	46.42
186.557	56.66
186.777	-12.97
186.997	95.57
187.216	50.52
187.436	42.32
187.655	-17.07
187.875	-0.68
188.095	52.56
188.314	11.61
188.534	54.61
188.753	7.51
188.973	52.56
189.192	34.13
189.412	-4.78
189.631	-17.07
189.851	36.18
190.07	126.29
190.29	23.89
190.509	-12.97
190.729	52.56
190.948	77.14
191.168	118.1
191.387	56.66
191.607	-29.35
191.826	-4.78
192.045	38.23
192.265	36.18
192.484	-17.07
192.704	25.94
192.923	42.32
193.142	152.92
193.362	40.28
193.581	142.68
193.8	23.89
194.02	46.42
194.239	25.94
194.458	9.56
194.678	17.75
194.897	68.95
195.116	52.56
195.335	3.41
195.555	66.9
195.774	50.52
195.993	32.08
196.212	30.04
196.432	-41.64
196.651	52.56
196.87	21.85
197.089	103.76
197.308	124.24
197.528	77.14
197.747	52.56
197.966	34.13
198.185	89.43
198.404	48.47
198.623	-17.07
198.842	97.62
199.062	83.28
199.281	19.8
199.5	5.46
199.719	30.04
199.938	15.7
200.157	52.56
200.376	62.8
200.595	27.99
200.814	60.76
201.033	-21.16
201.252	79.19
201.471	11.61
201.69	154.96
201.909	66.9
202.128	50.52
202.347	52.56
202.566	3.41
202.785	11.61
203.004	-25.26
203.223	97.62
203.442	30.04
203.661	19.8
203.879	73.04
204.098	44.37
204.317	-6.83
204.536	21.85
204.755	32.08
204.974	-19.11
205.193	42.32
205.411	120.15
205.63	27.99
205.849	13.65
206.068	-49.83
206.287	44.37
206.505	-10.92
206.724	11.61
206.943	48.47
207.162	3.41
207.381	60.76
207.599	60.76
207.818	85.33
208.037	-55.98
208.255	93.52
208.474	75.09
208.693	1.37
208.911	15.7
209.13	95.57
209.349	97.62
209.567	79.19
209.786	-8.87
210.005	21.85
210.223	91.48
210.442	15.7
210.661	-4.78
210.879	62.8
211.098	52.56
211.316	27.99
211.535	73.04
211.753	68.95
211.972	-2.73
212.191	-0.68
212.409	32.08
212.628	-19.11
212.846	32.08
213.065	30.04
213.283	-21.16
213.502	23.89
213.72	19.8
213.938	32.08
214.157	48.47
214.375	13.65
214.594	25.94
214.812	30.04
215.031	7.51
215.249	62.8
215.467	-0.68
215.686	32.08
215.904	38.23
216.122	19.8
216.341	54.61
216.559	25.94
216.778	25.94
216.996	46.42
217.214	-53.93
217.432	128.34
217.651	7.51
217.869	9.56
218.087	-12.97
218.306	-4.78
218.524	-29.35
218.742	60.76
218.96	44.37
219.179	93.52
219.397	62.8
219.615	34.13
219.833	81.24
220.051	-27.31
220.27	73.04
220.488	52.56
220.706	44.37
220.924	11.61
221.142	44.37
221.36	1.37
221.578	44.37
221.796	11.61
222.015	54.61
222.233	42.32
222.451	66.9
222.669	44.37
222.887	30.04
223.105	27.99
223.323	-2.73
223.541	-8.87
223.759	17.75
223.977	52.56
224.195	34.13
224.413	30.04
224.631	118.1
224.849	-4.78
225.067	103.76
225.285	-21.16
225.503	-21.16
225.721	-35.5
225.939	93.52
226.157	71
226.375	27.99
226.592	71
226.81	-23.21
227.028	34.13
227.246	111.96
227.464	-41.64
227.682	-0.68
227.9	91.48
228.117	93.52
228.335	-0.68
228.553	7.51
228.771	52.56
228.989	68.95
229.206	11.61
229.424	-25.26
229.642	48.47
229.86	124.24
230.077	93.52
230.295	9.56
230.513	11.61
230.731	85.33
230.948	81.24
231.166	62.8
231.384	1.37
231.601	3.41
231.819	27.99
232.037	-45.74
232.254	5.46
232.472	66.9
232.689	17.75
232.907	40.28
233.125	-12.97
233.342	-39.59
233.56	19.8
233.777	27.99
233.995	25.94
234.213	19.8
234.43	19.8
234.648	85.33
234.865	81.24
235.083	58.71
235.3	27.99
235.518	30.04
235.735	-72.36
235.953	77.14
236.17	68.95
236.388	42.32
236.605	68.95
236.822	-31.4
237.04	52.56
237.257	27.99
237.475	17.75
237.692	-29.35
237.909	38.23
238.127	9.56
238.344	62.8
238.562	-8.87
238.779	13.65
238.996	-72.36
239.214	87.38
239.431	21.85
239.648	34.13
239.865	52.56
240.083	36.18
240.3	44.37
240.517	42.32
240.735	134.48
240.952	54.61
241.169	68.95
241.386	-58.03
241.603	44.37
241.821	21.85
242.038	79.19
242.255	46.42
242.472	71
242.689	109.91
242.907	23.89
243.124	105.81
243.341	44.37
243.558	-49.83
243.775	46.42
243.992	1.37
244.209	54.61
244.426	40.28
244.643	21.85
244.86	-25.26
245.078	-53.93
245.295	44.37
245.512	23.89
245.729	40.28
245.946	56.66
246.163	87.38
246.38	-4.78
246.597	81.24
246.814	54.61
247.031	50.52
247.248	52.56
247.464	21.85
247.681	79.19
247.898	50.52
248.115	13.65
248.332	-15.02
248.549	150.87
248.766	34.13
248.983	60.76
249.2	64.85
249.417	5.46
249.633	5.46
249.85	66.9
250.067	81.24
250.284	87.38
250.501	36.18
250.717	60.76
250.934	44.37
251.151	60.76
251.368	46.42
251.585	54.61
251.801	62.8
252.018	36.18
252.235	68.95
252.451	-45.74
252.668	-4.78
252.885	30.04
253.102	56.66
253.318	71
253.535	30.04
253.752	36.18
253.968	3.41
254.185	32.08
254.401	79.19
254.618	75.09
254.835	-37.55
255.051	126.29
255.268	56.66
255.484	40.28
255.701	25.94
255.917	19.8
256.134	19.8
256.351	42.32
256.567	-53.93
256.784	-33.45
257	13.65
257.217	40.28
257.433	126.29
257.65	27.99
257.866	-37.55
258.082	95.57
258.299	-47.79
258.515	116.05
258.732	30.04
258.948	-19.11
259.165	97.62
259.381	-8.87
259.597	91.48
259.814	1.37
260.03	-8.87
260.246	77.14
260.463	-58.03
260.679	52.56
260.895	3.41
261.112	54.61
261.328	-53.93
261.544	73.04
261.761	116.05
261.977	32.08
262.193	1.37
262.409	130.39
262.626	77.14
262.842	-8.87
263.058	30.04
263.274	52.56
263.49	40.28
263.707	111.96
263.923	62.8
264.139	-35.5
264.355	32.08
264.571	77.14
264.787	-43.69
265.004	58.71
265.22	52.56
265.436	36.18
265.652	3.41
265.868	122.2
266.084	-25.26
266.3	27.99
266.516	25.94
266.732	68.95
266.948	-82.6
267.164	-17.07
267.38	34.13
267.596	48.47
267.812	42.32
268.028	3.41
268.244	-8.87
268.46	-10.92
268.676	77.14
268.892	40.28
269.108	30.04
269.324	-29.35
269.54	54.61
269.756	52.56
269.972	25.94
270.188	-8.87
270.403	56.66
270.619	46.42
270.835	-4.78
271.051	3.41
271.267	-4.78
271.483	21.85
271.698	-12.97
271.914	-27.31
272.13	-8.87
272.346	52.56
272.562	42.32
272.777	52.56
272.993	-0.68
273.209	36.18
273.425	58.71
273.64	-0.68
273.856	46.42
274.072	32.08
274.287	54.61
274.503	79.19
274.719	40.28
274.934	19.8
275.15	-58.03
275.366	56.66
275.581	54.61
275.797	68.95
276.012	42.32
276.228	60.76
276.444	62.8
276.659	114
276.875	56.66
277.09	27.99
277.306	36.18
277.521	54.61
277.737	-12.97
277.952	13.65
278.168	105.81
278.383	66.9
278.599	-27.31
278.814	159.06
279.03	120.15
279.245	79.19
279.461	62.8
279.676	77.14
279.892	11.61
280.107	25.94
280.322	25.94
280.538	56.66
280.753	-6.83
280.969	83.28
281.184	-0.68
281.399	54.61
281.615	44.37
281.83	11.61
282.045	3.41
282.26	85.33
282.476	9.56
282.691	32.08
282.906	19.8
283.122	13.65
283.337	11.61
283.552	36.18
283.767	15.7
283.983	114
284.198	60.76
284.413	30.04
284.628	36.18
284.843	15.7
285.058	23.89
285.274	42.32
285.489	-19.11
285.704	56.66
285.919	-66.22
286.134	62.8
286.349	34.13
286.564	40.28
286.779	58.71
286.995	11.61
287.21	56.66
287.425	107.86
287.64	103.76
287.855	68.95
288.07	11.61
288.285	64.85
288.5	87.38
288.715	77.14
288.93	60.76
289.145	83.28
289.36	159.06
289.575	27.99
289.79	21.85
290.004	52.56
290.219	38.23
290.434	27.99
290.649	17.75
290.864	77.14
291.079	58.71
291.294	154.96
291.509	77.14
291.724	-25.26
291.938	17.75
292.153	58.71
292.368	13.65
292.583	17.75
292.798	40.28
293.012	5.46
293.227	79.19
293.442	-12.97
293.657	107.86
293.871	89.43
294.086	62.8
294.301	87.38
294.516	83.28
294.73	111.96
294.945	3.41
295.16	-41.64
295.374	75.09
295.589	36.18
295.804	34.13
296.018	79.19
296.233	23.89
296.447	93.52
296.662	30.04
296.877	40.28
297.091	21.85
297.306	77.14
297.52	34.13
297.735	54.61
297.949	-10.92
298.164	27.99
298.378	-4.78
298.593	-27.31
298.807	87.38
299.022	42.32
299.236	62.8
299.451	48.47
299.665	52.56
299.88	68.95
300.094	60.76
300.309	60.76
300.523	62.8
300.737	-19.11
300.952	107.86
301.166	-12.97
301.381	-25.26
301.595	87.38
301.809	7.51
302.024	23.89
302.238	7.51
302.452	-6.83
302.667	11.61
302.881	128.34
303.095	13.65
303.309	19.8
303.524	17.75
303.738	64.85
303.952	27.99
304.166	91.48
304.381	-4.78
304.595	73.04
304.809	13.65
305.023	83.28
305.237	-15.02
305.452	32.08
305.666	42.32
305.88	77.14
306.094	50.52
306.308	46.42
306.522	101.72
306.736	30.04
306.95	5.46
307.164	54.61
307.379	77.14
307.593	132.44
307.807	128.34
308.021	3.41
308.235	48.47
308.449	71
308.663	36.18
308.877	111.96
309.091	109.91
309.305	73.04
309.519	40.28
309.733	68.95
309.947	9.56
310.161	52.56
310.374	50.52
310.588	105.81
310.802	-23.21
311.016	46.42
311.23	30.04
311.444	-23.21
311.658	52.56
311.872	105.81
312.085	9.56
312.299	25.94
312.513	89.43
312.727	68.95
312.941	118.1
313.154	54.61
313.368	44.37
313.582	54.61
313.796	19.8
314.009	142.68
314.223	114
314.437	120.15
314.651	15.7
314.864	3.41
315.078	32.08
315.292	91.48
315.505	32.08
315.719	89.43
315.933	130.39
316.146	99.67
316.36	32.08
316.573	56.66
316.787	114
317.001	134.48
317.214	-12.97
317.428	81.24
317.641	-21.16
317.855	54.61
318.068	83.28
318.282	56.66
318.495	56.66
318.709	27.99
318.922	13.65
319.136	85.33
319.349	101.72
319.563	95.57
319.776	36.18
319.99	46.42
320.203	36.18
320.417	36.18
320.63	68.95
320.843	52.56
321.057	13.65
321.27	21.85
321.483	44.37
321.697	71
321.91	36.18
322.124	13.65
322.337	27.99
322.55	-2.73
322.763	75.09
322.977	95.57
323.19	81.24
323.403	62.8
323.617	23.89
323.83	32.08
324.043	-15.02
324.256	27.99
324.469	83.28
324.683	105.81
324.896	7.51
325.109	-21.16
325.322	36.18
325.535	93.52
325.748	130.39
325.962	66.9
326.175	40.28
326.388	91.48
326.601	44.37
326.814	11.61
327.027	73.04
327.24	48.47
327.453	30.04
327.666	9.56
327.879	73.04
328.092	89.43
328.305	77.14
328.518	23.89
328.731	27.99
328.944	66.9
329.157	34.13
329.37	27.99
329.583	81.24
329.796	173.39
330.009	-19.11
330.222	62.8
330.435	-4.78
330.648	30.04
330.861	77.14
331.073	62.8
331.286	52.56
331.499	36.18
331.712	13.65
331.925	77.14
332.138	60.76
332.35	30.04
332.563	23.89
332.776	60.76
332.989	13.65
333.202	44.37
333.414	19.8
333.627	58.71
333.84	-25.26
334.053	40.28
334.265	66.9
334.478	21.85
334.691	-41.64
334.903	27.99
335.116	56.66
335.329	-17.07
335.541	109.91
335.754	128.34
335.966	109.91
336.179	34.13
336.392	1.37
336.604	62.8
336.817	-27.31
337.029	68.95
337.242	46.42
337.454	95.57
337.667	11.61
337.88	64.85
338.092	62.8
338.305	-10.92
338.517	-29.35
338.729	62.8
338.942	118.1
339.154	101.72
339.367	64.85
339.579	42.32
339.792	62.8
340.004	56.66
340.217	32.08
340.429	54.61
340.641	25.94
340.854	91.48
341.066	3.41
341.278	56.66
341.491	85.33
341.703	7.51
341.915	-39.59
342.128	101.72
342.34	15.7
342.552	32.08
342.764	44.37
342.977	38.23
343.189	11.61
343.401	56.66
343.613	34.13
343.826	73.04
344.038	46.42
344.25	62.8
344.462	68.95
344.674	87.38
344.886	9.56
345.099	27.99
345.311	46.42
345.523	68.95
345.735	21.85
345.947	118.1
346.159	93.52
346.371	77.14
346.583	66.9
346.795	107.86
347.007	68.95
347.219	79.19
347.431	15.7
347.643	48.47
347.855	36.18
348.067	97.62
348.279	34.13
348.491	25.94
348.703	36.18
348.915	19.8
349.127	-15.02
349.339	91.48
349.551	48.47
349.763	77.14
349.975	-4.78
350.187	87.38
350.399	58.71
350.61	-2.73
350.822	3.41
351.034	99.67
351.246	-15.02
351.458	91.48
351.669	81.24
351.881	118.1
352.093	83.28
352.305	142.68
352.517	-10.92
352.728	46.42
352.94	44.37
353.152	52.56
353.363	3.41
353.575	52.56
353.787	120.15
353.999	71
354.21	79.19
354.422	126.29
354.633	77.14
354.845	44.37
355.057	62.8
355.268	89.43
355.48	46.42
355.692	40.28
355.903	60.76
356.115	19.8
356.326	7.51
356.538	77.14
356.749	54.61
356.961	99.67
357.172	62.8
357.384	79.19
357.595	48.47
357.807	3.41
358.018	42.32
358.23	111.96
358.441	79.19
358.653	-2.73
358.864	38.23
359.075	116.05
359.287	109.91
359.498	85.33
359.709	71
359.921	73.04
360.132	73.04
360.344	71
360.555	128.34
360.766	-2.73
360.977	54.61
361.189	52.56
361.4	89.43
361.611	140.63
361.823	101.72
362.034	68.95
362.245	36.18
362.456	3.41
362.667	109.91
362.879	36.18
363.09	34.13
363.301	46.42
363.512	58.71
363.723	105.81
363.935	62.8
364.146	66.9
364.357	71
364.568	81.24
364.779	52.56
364.99	87.38
365.201	81.24
365.412	126.29
365.623	23.89
365.834	56.66
366.045	25.94
366.256	52.56
366.467	60.76
366.678	7.51
366.889	71
367.1	-2.73
367.311	87.38
367.522	48.47
367.733	40.28
367.944	73.04
368.155	17.75
368.366	107.86
368.577	79.19
368.788	109.91
368.999	25.94
369.209	77.14
369.42	46.42
369.631	11.61
369.842	-21.16
370.053	95.57
370.264	85.33
370.474	27.99
370.685	21.85
370.896	34.13
371.107	50.52
371.317	30.04
371.528	9.56
371.739	81.24
371.95	68.95
372.16	77.14
372.371	68.95
372.582	46.42
372.792	75.09
373.003	68.95
373.214	36.18
373.424	68.95
373.635	95.57
373.846	44.37
374.056	68.95
374.267	93.52
374.477	60.76
374.688	21.85
374.898	48.47
375.109	62.8
375.319	44.37
375.53	58.71
375.74	52.56
375.951	114
376.161	42.32
376.372	103.76
376.582	13.65
376.793	54.61
377.003	27.99
377.214	-23.21
377.424	46.42
377.635	107.86
377.845	17.75
378.055	95.57
378.266	77.14
378.476	200.02
378.686	75.09
378.897	38.23
379.107	48.47
379.317	95.57
379.528	52.56
379.738	21.85
379.948	34.13
380.158	85.33
380.369	30.04
380.579	107.86
380.789	-4.78
380.999	40.28
381.21	124.24
381.42	191.83
381.63	27.99
381.84	95.57
382.05	-4.78
382.261	89.43
382.471	30.04
382.681	62.8
382.891	73.04
383.101	25.94
383.311	32.08
383.521	27.99
383.731	68.95
383.941	109.91
384.151	128.34
384.361	77.14
384.571	27.99
384.781	93.52
384.991	56.66
385.201	116.05
385.411	73.04
385.621	91.48
385.831	68.95
386.041	42.32
386.251	64.85
386.461	52.56
386.671	54.61
386.881	101.72
387.091	5.46
387.301	60.76
387.511	79.19
387.72	107.86
387.93	60.76
388.14	44.37
388.35	38.23
388.56	40.28
388.769	32.08
388.979	62.8
389.189	38.23
389.399	154.96
389.609	62.8
389.818	54.61
390.028	68.95
390.238	77.14
390.447	38.23
390.657	95.57
390.867	46.42
391.076	27.99
391.286	44.37
391.496	93.52
391.705	17.75
391.915	93.52
392.125	109.91
392.334	25.94
392.544	85.33
392.753	146.77
392.963	-4.78
393.172	38.23
393.382	83.28
393.591	105.81
393.801	36.18
394.01	134.48
394.22	48.47
394.429	107.86
394.639	163.15
394.848	114
395.058	109.91
395.267	136.53
395.477	118.1
395.686	163.15
395.895	114
396.105	169.3
396.314	169.3
396.524	109.91
396.733	79.19
396.942	52.56
397.152	97.62
397.361	128.34
397.57	116.05
397.78	146.77
397.989	132.44
398.198	181.59
398.407	60.76
398.617	93.52
398.826	124.24
399.035	85.33
399.244	138.58
399.453	89.43
399.663	64.85
399.872	134.48
400.081	85.33
400.29	181.59
400.499	44.37
400.708	130.39
400.917	163.15
401.127	134.48
401.336	134.48
401.545	134.48
401.754	240.98
401.963	107.86
402.172	120.15
402.381	99.67
402.59	210.26
402.799	109.91
403.008	105.81
403.217	195.92
403.426	150.87
403.635	103.76
403.844	118.1
404.053	122.2
404.262	122.2
404.471	220.5
404.68	144.72
404.888	193.87
405.097	134.48
405.306	206.16
405.515	167.25
405.724	101.72
405.933	126.29
406.142	177.49
406.35	169.3
406.559	154.96
406.768	171.35
406.977	271.7
407.185	290.13
407.394	257.36
407.603	247.12
407.812	226.64
408.02	281.94
408.229	222.55
408.438	175.44
408.646	277.84
408.855	279.89
409.064	318.8
409.272	255.31
409.481	234.83
409.69	230.74
409.898	376.14
410.107	404.82
410.315	353.62
410.524	345.42
410.733	343.38
410.941	240.98
411.15	382.29
411.358	363.86
411.567	476.49
411.775	400.72
411.984	410.96
412.192	449.87
412.401	441.68
412.609	517.45
412.818	511.31
413.026	503.12
413.234	503.12
413.443	587.08
413.651	486.73
413.86	568.65
414.068	619.85
414.276	748.87
414.485	677.2
414.693	709.96
414.901	699.72
415.11	726.35
415.318	685.39
415.526	767.31
415.734	806.22
415.943	843.08
416.151	808.27
416.359	765.26
416.567	830.79
416.776	1047.88
416.984	965.96
417.192	1002.82
417.4	1051.97
417.608	990.53
417.817	1062.21
418.025	1176.9
418.233	1172.8
418.441	1170.76
418.649	1160.52
418.857	1371.46
419.065	1338.69
419.273	1279.3
419.481	1377.6
419.689	1453.38
419.897	1609.02
420.105	1561.92
420.313	1639.74
420.521	1729.85
420.729	1774.91
420.937	1815.87
421.145	1727.8
421.353	1871.16
421.561	1936.7
421.769	1971.51
421.977	2114.87
422.185	2080.05
422.393	2202.93
422.601	2383.15
422.809	2487.6
423.017	2370.87
423.224	2405.68
423.432	2731.31
423.64	2725.16
423.848	2790.7
424.056	2716.97
424.263	3042.6
424.471	2995.5
424.679	2979.11
424.887	3167.53
425.094	3300.64
425.302	3327.27
425.51	3423.52
425.718	3400.99
425.925	3558.69
426.133	3632.41
426.341	3857.69
426.548	3999
426.756	3955.99
426.964	4042.01
427.171	4410.64
427.379	4377.87
427.586	4486.42
427.794	4613.39
428.001	4914.44
428.209	5068.04
428.417	5147.91
428.624	5420.29
428.832	5258.5
429.039	5289.22
429.247	5399.81
429.454	5924.09
429.662	6350.07
429.869	5772.54
430.076	6175.99
430.284	6169.85
430.491	6212.85
430.699	6788.33
430.906	6786.29
431.114	6921.45
431.321	7068.91
431.528	7183.59
431.736	7470.31
431.943	8187.1
432.15	7728.35
432.358	7754.97
432.565	8387.8
432.772	8334.55
432.979	8731.86
433.187	8877.26
433.394	8961.23
433.601	9573.57
433.808	9804.99
434.016	9419.97
434.223	9710.79
434.43	10423.48
434.637	10392.76
434.844	11091.12
435.052	11031.72
435.259	11078.83
435.466	11213.99
435.673	11091.12
435.88	11795.62
436.087	12530.84
436.294	12397.72
436.501	12416.15
436.708	12477.59
436.915	13040.78
437.122	13405.32
437.329	13292.68
437.537	13905.03
437.743	14089.34
437.95	13743.24
438.157	14482.55
438.364	15133.81
438.571	15117.42
438.778	15246.44
438.985	16665.69
439.192	16039.01
439.399	16446.55
439.606	16174.17
439.813	16921.68
440.02	18101.31
440.227	17763.4
440.433	17448.01
440.64	18336.83
440.847	17986.63
441.054	18433.08
441.261	19471.4
441.467	19418.16
441.674	19661.87
441.881	20714.52
442.088	20685.85
442.294	20329.5
442.501	20821.02
442.708	21253.14
442.914	22303.74
443.121	23348.21
443.328	22453.25
443.534	24247.27
443.741	23600.11
443.948	23098.36
444.154	25066.45
444.361	24970.2
444.568	24859.61
444.774	24589.28
444.981	24808.41
445.187	26340.29
445.394	27063.22
445.6	26852.28
445.807	29320.09
446.013	28160.94
446.22	28572.58
446.426	29318.04
446.633	29977.48
446.839	31183.74
447.046	29610.9
447.252	31279.99
447.459	31048.57
447.665	31097.72
447.871	32781.15
448.078	33897.3
448.284	32635.75
448.491	33559.38
448.697	34349.9
448.903	35367.74
449.11	35466.04
449.316	34954.05
449.522	35459.9
449.728	36332.33
449.935	36766.5
450.141	36770.6
450.347	37335.84
450.553	36547.37
450.76	37131.04
450.966	37939.99
451.172	37501.72
451.378	38763.27
451.584	37894.93
451.791	39287.55
451.997	38929.16
452.203	39633.66
452.409	39490.3
452.615	39365.37
452.821	37837.59
453.027	37708.57
453.233	39973.62
453.44	38261.52
453.646	38744.84
453.852	38837
454.058	39600.89
454.264	37804.82
454.47	39164.67
454.676	38255.37
454.882	39248.64
455.088	35803.95
455.294	36668.2
455.5	37350.17
455.705	37421.85
455.911	36107.05
456.117	35388.22
456.323	34915.14
456.529	33278.81
456.735	34906.94
456.941	34061.13
457.147	33000.29
457.352	32324.46
457.558	32113.52
457.764	32146.28
457.97	31644.53
458.176	30442.37
458.381	30618.5
458.587	29375.38
458.793	29338.52
458.999	27751.34
459.204	29705.1
459.41	28707.74
459.616	27077.56
459.821	27091.9
460.027	26946.49
460.233	26473.41
460.438	25119.7
460.644	25293.78
460.85	24095.72
461.055	23854.06
461.261	23790.57
461.466	22125.57
461.672	21427.21
461.878	23002.1
462.083	21404.69
462.289	21025.81
462.494	20855.83
462.7	19688.49
462.905	19557.42
463.111	19983.4
463.316	19889.19
463.522	19596.33
463.727	19590.19
463.932	19848.23
464.138	19242.03
464.343	19510.32
464.549	19029.04
464.754	19528.75
464.959	19184.69
465.165	19231.79
465.37	18179.14
465.575	17935.43
465.781	18646.07
465.986	18490.43
466.191	18084.93
466.397	17620.04
466.602	16835.67
466.807	17626.18
467.012	17615.94
467.218	17142.86
467.423	17091.66
467.628	17464.39
467.833	17886.28
468.038	17163.34
468.244	16870.48
468.449	17501.26
468.654	16854.1
468.859	16954.45
469.064	16796.76
469.269	15991.91
469.474	16276.57
469.679	16544.86
469.885	16133.22
470.09	16110.69
470.295	16272.48
470.5	15793.25
470.705	16043.1
470.91	15674.47
471.115	15408.23
471.32	15543.4
471.525	15397.99
471.73	15109.23
471.935	15000.69
472.139	14654.58
472.344	14681.21
472.549	14662.77
472.754	14486.65
472.959	14224.51
473.164	14152.83
473.369	13782.15
473.574	14290.04
473.778	14089.34
473.983	13915.26
474.188	13788.29
474.393	13083.79
474.598	13329.55
474.802	13188.24
475.007	13147.28
475.212	13038.73
475.417	12815.51
475.621	13030.54
475.826	12776.59
476.031	12311.71
476.235	12135.58
476.44	12397.72
476.645	12307.61
476.849	12453.02
477.054	12115.1
477.259	11924.64
477.463	11734.18
477.668	11695.27
477.872	11629.73
478.077	11476.13
478.282	11230.38
478.486	11312.3
478.691	11191.47
478.895	11033.77
479.1	11017.39
479.304	10941.61
479.509	10843.31
479.713	11099.31
479.918	10757.3
480.122	10515.64
480.326	10771.63
480.531	10728.63
480.735	10497.21
480.94	10558.64
481.144	10620.08
481.348	10173.63
481.553	10214.59
481.757	10196.15
481.961	10288.31
482.166	10409.14
482.37	10269.88
482.574	10077.37
482.778	10171.58
482.983	10431.67
483.187	10042.56
483.391	10298.55
483.595	10130.62
483.8	10153.15
484.004	10226.87
484.208	10304.7
484.412	10245.3
484.616	10276.02
484.821	10212.54
485.025	9874.62
485.229	10396.85
485.433	10206.39
485.637	10183.87
485.841	9966.78
486.045	10282.17
486.249	9997.5
486.453	10005.69
486.657	10151.1
486.861	10130.62
487.065	9944.25
487.269	10042.56
487.473	9874.62
487.677	10280.12
487.881	10128.57
488.085	10106.04
488.289	10169.53
488.493	9981.12
488.697	10364.09
488.901	10038.46
489.105	10484.92
489.309	10327.22
489.512	10218.68
489.716	10304.7
489.92	10382.52
490.124	10230.97
490.328	10290.36
490.531	10478.77
490.735	10540.21
490.939	10368.18
491.143	10400.95
491.346	10245.3
491.55	10460.34
491.754	10591.41
491.958	10710.19
492.161	10638.51
492.365	10679.47
492.569	10593.46
492.772	10767.54
492.976	11005.1
493.18	11089.07
493.383	10718.39
493.587	11072.68
493.79	11097.26
493.994	10970.29
494.197	10884.27
494.401	11197.61
494.605	11242.67
494.808	11345.06
495.012	11422.89
495.215	11297.96
495.419	11672.74
495.622	11361.45
495.825	11807.91
496.029	11744.42
496.232	12035.23
496.436	11906.21
496.639	12323.99
496.843	12068
497.046	12422.3
497.249	12463.26
497.453	12676.24
497.656	12635.28
497.859	12840.08
498.063	12985.49
498.266	13255.82
498.469	13329.55
498.673	13225.1
498.876	13520.01
499.079	13587.59
499.282	13530.25
499.485	13900.93
499.689	13988.99
499.892	13939.84
500.095	14273.66
500.298	14517.37
500.501	14539.9
500.705	14949.49
500.908	14996.59
501.111	14855.28
501.314	15305.84
501.517	15418.47
501.72	15776.87
501.923	15365.23
502.126	15885.41
502.329	16186.46
502.532	16364.64
502.735	16364.64
502.938	16807
503.141	16792.66
503.344	16964.69
503.547	16927.83
503.75	16989.27
503.953	17679.43
504.156	17585.23
504.359	17880.13
504.562	17859.65
504.765	18222.14
504.968	18193.47
505.17	18707.51
505.373	18736.18
505.576	18928.69
505.779	19391.53
505.982	19461.16
506.185	20003.88
506.387	19911.72
506.59	19948.58
506.793	20431.9
506.996	20411.42
507.198	20732.95
507.401	20970.52
507.604	21031.96
507.807	21566.48
508.009	21476.37
508.212	21744.65
508.415	21892.1
508.617	21836.81
508.82	22451.2
509.022	22215.68
509.225	22744.06
509.428	22909.94
509.63	23196.66
509.833	23157.75
510.035	23745.51
510.238	23415.79
510.44	24136.68
510.643	24349.67
510.845	24507.36
511.048	24775.64
511.25	25005.02
511.453	25252.82
511.655	25744.33
511.858	25914.31
512.06	25770.96
512.262	26432.45
512.465	25938.89
512.667	26653.63
512.87	26614.72
513.072	26717.12
513.274	27253.69
513.477	27757.49
513.679	27669.42
513.881	28539.81
514.084	28765.09
514.286	28394.4
514.488	28660.64
514.69	29447.06
514.893	29641.62
515.095	30014.35
515.297	30116.75
515.499	30204.81
515.701	30368.65
515.904	31062.91
516.106	30960.51
516.308	31421.3
516.51	31533.94
516.712	31562.61
516.914	32058.22
517.116	32465.77
517.318	32594.79
517.52	32361.32
517.722	32895.84
517.925	33346.39
518.127	33354.58
518.329	33778.51
518.531	33848.14
518.733	34292.55
518.935	34681.67
519.136	34528.07
519.338	35341.11
519.54	35705.65
519.742	35636.02
519.944	35197.76
520.146	36229.93
520.348	36731.68
520.55	36485.93
520.752	36907.81
520.954	37456.67
521.155	37722.9
521.357	37978.9
521.559	37960.47
521.761	38806.28
521.963	38714.12
522.164	38929.16
522.366	39002.88
522.568	39428.86
522.77	39213.82
522.971	40463.08
523.173	39789.3
523.375	40499.95
523.576	40526.57
523.778	40047.35
523.98	41229.02
524.181	41018.08
524.383	41394.91
524.584	42033.88
524.786	41648.86
524.988	41525.98
525.189	41837.27
525.391	42500.81
525.592	42767.05
525.794	42814.15
525.995	43018.95
526.197	42982.09
526.398	43094.72
526.6	43248.32
526.801	43418.3
527.003	43635.39
527.204	43737.79
527.406	43825.85
527.607	44188.34
527.808	44255.92
528.01	43365.06
528.211	43985.59
528.412	45386.4
528.614	44589.74
528.815	44550.83
529.016	45173.41
529.218	44651.18
529.419	44972.71
529.62	44872.36
529.822	44882.6
530.023	44874.41
530.224	45218.47
530.425	44673.71
530.626	45152.93
530.828	44731.05
531.029	45828.76
531.23	45152.93
531.431	45271.71
531.632	45613.73
531.833	45752.99
532.035	45484.7
532.236	45775.51
532.437	46260.88
532.638	45613.73
532.839	46049.94
533.04	46234.26
533.241	45623.97
533.442	46512.78
533.643	46115.48
533.844	45871.77
534.045	46475.92
534.246	45441.7
534.447	46492.3
534.648	46459.54
534.849	46164.63
535.05	45875.87
535.251	46791.31
535.451	46312.08
535.652	46008.98
535.853	46416.53
536.054	46422.67
536.255	46893.71
536.456	46152.34
536.657	46934.67
536.857	45972.12
537.058	46170.77
537.259	46371.47
537.46	46613.13
537.66	45984.41
537.861	46295.7
538.062	46144.15
538.263	46672.53
538.463	46224.02
538.664	45990.55
538.865	46531.22
539.065	46662.29
539.266	45918.87
539.466	46619.28
539.667	46482.06
539.868	46664.33
540.068	46398.1
540.269	46021.27
540.469	46320.27
540.67	46226.07
540.87	46205.59
541.071	46492.3
541.271	46443.15
541.472	46088.85
541.672	45875.87
541.873	46299.79
542.073	45697.69
542.274	46338.71
542.474	45896.34
542.675	45873.82
542.875	46359.19
543.075	45795.99
543.276	45712.03
543.476	46402.19
543.676	45955.74
543.877	46398.1
544.077	46498.45
544.277	46150.29
544.478	46029.46
544.678	46056.09
544.878	46183.06
545.078	45898.39
545.279	45406.88
545.479	45857.43
545.679	46508.69
545.879	45734.56
546.079	45853.34
546.28	45810.33
546.48	45621.92
546.68	45968.02
546.88	46006.94
547.08	45972.12
547.28	45808.28
547.48	45623.97
547.68	45777.56
547.88	45750.94
548.081	46086.81
548.281	45626.01
548.481	45839
548.681	46234.26
548.881	45640.35
549.081	45718.17
549.28	45628.06
549.48	45669.02
549.68	45658.78
549.88	46125.72
550.08	45554.33
550.28	45963.93
550.48	46086.81
550.68	45755.04
550.88	45699.74
551.08	45595.29
551.279	45462.18
551.479	45714.08
551.679	45623.97
551.879	45267.62
552.079	45826.71
552.278	45562.53
552.478	45677.21
552.678	45601.44
552.878	45859.48
553.077	45527.71
553.277	44806.83
553.477	45841.05
553.676	45292.19
553.876	45345.44
554.076	45329.06
554.275	45044.39
554.475	44436.14
554.674	45238.95
554.874	45505.18
555.074	45355.68
555.273	45529.76
555.473	45257.38
555.672	44765.87
555.872	44894.89
556.071	44636.84
556.271	45308.58
556.47	44681.9
556.67	44532.4
556.869	44901.03
557.068	44841.64
557.268	44618.41
557.467	44835.5
557.667	44645.04
557.866	44774.06
558.065	44552.88
558.265	44810.92
558.464	43940.53
558.663	44556.97
558.863	44075.7
559.062	44931.75
559.261	43985.59
559.461	44960.42
559.66	43682.49
559.859	44448.43
560.058	43778.75
560.258	44016.31
560.457	43944.63
560.656	43801.27
560.855	43752.12
561.054	43930.29
561.253	43514.56
561.453	43510.46
561.652	43596.48
561.851	43784.89
562.05	43565.76
562.249	43260.61
562.448	43444.93
562.647	43080.39
562.846	43358.91
563.045	43416.25
563.244	42754.76
563.443	43850.42
563.642	42953.41
563.841	42877.64
564.04	43082.44
564.239	42969.8
564.438	42539.72
564.637	42466
564.836	42611.4
565.035	42123.99
565.234	42363.6
565.432	42093.27
565.631	42029.78
565.83	42218.19
566.029	42091.22
566.228	41593.56
566.427	41831.13
566.625	41685.72
566.824	41384.67
567.023	41767.64
567.222	41005.8
567.42	41747.16
567.619	41183.97
567.818	41429.73
568.016	41265.89
568.215	41437.92
568.414	41192.16
568.612	41667.29
568.811	41165.54
569.01	41102.05
569.208	40616.68
569.407	40909.54
569.605	40413.93
569.804	40805.09
570.002	39951.09
570.201	40682.22
570.4	40071.92
570.598	40104.69
570.797	39953.14
570.995	40469.23
571.193	39588.6
571.392	40385.26
571.59	39308.03
571.789	39613.18
571.987	39172.86
572.186	39473.91
572.384	39410.43
572.582	39453.44
572.781	39308.03
572.979	38652.68
573.177	38943.49
573.376	39070.47
573.574	38738.69
573.772	38757.13
573.971	38537.99
574.169	38599.43
574.367	38423.31
574.565	38535.95
574.763	37972.75
574.962	38238.99
575.16	38355.72
575.358	38075.15
575.556	37411.61
575.754	38380.3
575.952	37626.65
576.151	37753.62
576.349	37112.61
576.547	37206.81
576.745	37274.4
576.943	37462.81
577.141	37501.72
577.339	37329.69
577.537	37233.44
577.735	36801.32
577.933	37122.85
578.131	37266.2
578.329	36680.49
578.527	36485.93
578.725	36461.35
578.923	36985.63
579.121	36203.31
579.319	36174.64
579.516	36342.57
579.714	36115.25
579.912	35916.59
580.11	35879.73
580.308	35765.04
580.506	35947.31
580.704	35777.33
580.901	35717.94
581.099	35699.51
581.297	35261.24
581.495	35580.73
581.692	35719.99
581.89	34749.25
582.088	35210.04
582.285	35095.36
582.483	35111.74
582.681	35009.34
582.878	34757.44
583.076	34530.12
583.274	34755.39
583.471	34378.57
583.669	34700.1
583.866	33846.1
584.064	34552.65
584.262	33796.95
584.459	34642.76
584.657	34114.38
584.854	34081.61
585.052	33536.85
585.249	34005.84
585.447	33618.77
585.644	33524.57
585.841	33252.19
586.039	33448.79
586.236	33497.94
586.434	32891.74
586.631	32973.66
586.828	33080.16
587.026	32932.7
587.223	32934.75
587.42	32850.78
587.618	32680.8
587.815	32170.86
588.012	32158.57
588.21	32338.79
588.407	32924.51
588.604	32570.21
588.801	32136.04
588.999	32119.66
589.196	31837.04
589.393	31730.55
589.59	31916.91
589.787	31875.95
589.984	31415.16
590.182	31341.43
590.379	31808.37
590.576	31441.78
590.773	31290.23
590.97	31288.18
591.167	31120.25
591.364	30661.51
591.561	30907.26
591.758	30542.72
591.955	30737.28
592.152	30882.69
592.349	30550.92
592.546	30714.75
592.743	30548.87
592.94	29985.68
593.137	30210.95
593.334	30524.29
593.531	29719.44
593.727	29977.48
593.924	29965.2
594.121	29907.85
594.318	29856.65
594.515	29469.59
594.712	29651.86
594.908	29242.26
595.105	29649.81
595.302	29328.28
595.499	29334.42
595.696	29283.22
595.892	28820.38
596.089	29272.98
596.286	29158.3
596.482	28918.68
596.679	28838.81
596.876	29025.18
597.072	28455.84
597.269	28365.73
597.466	28107.69
597.662	28318.63
597.859	28099.5
598.055	28461.99
598.252	28167.08
598.448	27993
598.645	27982.76
598.841	27984.81
599.038	27952.04
599.234	27851.69
599.431	27501.49
599.627	27605.94
599.824	27364.28
600.02	27526.07
600.217	27562.93
600.413	27157.43
600.609	27063.22
600.806	27009.98
601.002	27204.53
601.198	26803.13
601.395	26448.83
601.591	26778.56
601.787	26940.35
601.984	26387.39
602.18	26833.85
602.376	26416.07
602.572	26158.02
602.769	26631.1
602.965	25971.66
603.161	26289.09
603.357	25822.16
603.553	26033.1
603.75	25854.92
603.946	25615.31
604.142	26065.86
604.338	25367.51
604.534	25752.52
604.73	25164.76
604.926	25418.71
605.122	25369.55
605.318	25060.31
605.514	25267.16
605.71	25342.93
605.906	25031.64
606.102	24912.86
606.298	25037.78
606.494	25138.13
606.69	24935.38
606.886	24767.45
607.082	24177.64
607.278	24783.84
607.474	24245.22
607.67	24867.8
607.866	24026.09
608.062	24912.86
608.257	24525.79
608.453	24435.68
608.649	24683.48
608.845	23841.77
609.041	24073.19
609.236	24116.2
609.432	23804.91
609.628	24120.29
609.824	23823.34
610.019	23978.98
610.215	24028.13
610.411	23829.48
610.606	23978.98
610.802	23626.73
610.998	23788.52
611.193	23532.53
611.389	23600.11
611.584	23383.02
611.78	23297.01
611.976	23401.46
612.171	23262.19
612.367	23497.71
612.562	23079.93
612.758	23143.41
612.953	23129.08
613.149	23342.07
613.344	22866.94
613.539	23290.87
613.735	22864.89
613.93	23200.76
614.126	22952.95
614.321	23065.59
614.517	22961.14
614.712	22760.44
614.907	22733.82
615.103	22739.96
615.298	22594.56
615.493	22766.59
615.688	22383.62
615.884	22969.33
616.079	22242.31
616.274	22733.82
616.47	22313.98
616.665	22471.68
616.86	22258.69
617.055	22215.68
617.25	22057.99
617.445	22119.43
617.641	21879.82
617.836	22352.9
618.031	21806.09
618.226	22320.13
618.421	21971.97
618.616	21873.67
618.811	21517.33
619.006	21924.87
619.201	21459.98
619.396	21529.61
619.591	21187.6
619.786	21414.93
619.981	20655.13
620.176	21060.63
620.371	20845.59
620.566	20737.05
620.761	20976.66
620.956	20696.09
621.151	20614.17
621.346	20884.5
621.541	20206.62
621.735	20638.75
621.93	20081.7
622.125	20366.37
622.32	20108.32
622.515	20046.88
622.709	19739.69
622.904	19813.42
623.099	19616.81
623.294	19622.95
623.488	19639.34
623.683	19569.71
623.878	19244.08
624.072	19280.94
624.267	19168.3
624.462	18895.92
624.656	18816.05
624.851	19209.26
625.046	18775.09
625.24	18680.89
625.435	18373.69
625.629	18484.28
625.824	18404.41
626.018	18224.19
626.213	17765.45
626.407	17929.28
626.602	17792.07
626.796	18078.79
626.991	17656.9
627.185	17966.15
627.38	17736.77
627.574	17294.41
627.768	17327.18
627.963	17304.65
628.157	17198.16
628.352	17073.23
628.546	17013.84
628.74	16897.11
628.935	16852.05
629.129	17042.51
629.323	16526.43
629.517	16305.24
629.712	16581.72
629.906	16223.33
630.1	16024.67
630.294	16505.95
630.489	16327.77
630.683	16260.19
630.877	15889.51
631.071	15914.08
631.265	15805.54
631.459	15608.94
631.653	15506.54
631.848	15674.47
632.042	15694.95
632.236	15617.13
632.43	15264.88
632.624	15330.41
632.818	15158.38
633.012	15060.08
633.206	15078.51
633.4	14789.75
633.594	14716.02
633.788	15019.12
633.982	14918.77
634.176	14537.85
634.369	14732.4
634.563	14472.31
634.757	14572.66
634.951	14222.46
635.145	14132.35
635.339	14331
635.533	14152.83
635.726	14208.12
635.92	13933.7
636.114	13915.26
636.308	13956.22
636.501	14058.62
636.695	13841.54
636.889	13429.9
637.083	13587.59
637.276	13542.53
637.47	13180.04
637.664	13243.53
637.857	13137.04
638.051	13667.46
638.244	12962.96
638.438	13051.02
638.632	13032.59
638.825	12788.88
639.019	12907.66
639.212	12625.04
639.406	12792.98
639.599	12881.04
639.793	12756.11
639.986	12518.55
640.18	12565.65
640.373	12532.89
640.567	12178.59
640.76	12289.18
640.954	12051.61
641.147	12135.58
641.34	11812
641.534	12002.46
641.727	12137.63
641.92	11807.91
642.114	11869.34
642.307	11777.19
642.5	11558.05
642.694	11541.67
642.887	11439.27
643.08	11623.59
643.273	11326.63
643.467	11476.13
643.66	11379.88
643.853	11568.29
644.046	11136.17
644.239	11400.36
644.432	11123.88
644.626	10994.86
644.819	10900.65
645.012	11033.77
645.205	11213.99
645.398	10761.39
645.591	10857.65
645.784	10513.59
645.977	10665.14
646.17	10693.81
646.363	10482.87
646.556	10292.41
646.749	10491.06
646.942	10339.51
647.135	10435.77
647.328	10167.48
647.521	10097.85
647.714	10079.42
647.907	10091.71
648.099	9952.45
648.292	10140.86
648.485	10005.69
648.678	9909.44
648.871	9968.83
649.064	9737.41
649.256	9712.83
649.449	9751.74
649.642	9651.39
649.835	9454.79
650.027	9684.16
650.22	9397.45
650.413	9489.6
650.605	9440.45
650.798	9307.34
650.991	9252.04
651.183	9018.57
651.376	8891.6
651.568	9098.44
651.761	9168.07
651.954	9088.2
652.146	9161.93
652.339	9082.06
652.531	8932.56
652.724	8850.64
652.916	8768.72
653.109	8803.53
653.301	8867.02
653.494	8738
653.686	8393.94
653.879	8547.54
654.071	8492.24
654.263	8463.57
654.456	8463.57
654.648	8373.46
654.84	8309.97
655.033	8355.03
655.225	8330.45
655.417	8162.52
655.61	8015.07
655.802	8264.92
655.994	8019.16
656.186	8060.12
656.379	7982.3
656.571	8025.31
656.763	7974.11
656.955	7986.4
657.148	7810.27
657.34	7777.5
657.532	7611.62
657.724	7650.53
657.916	7750.88
658.108	7695.58
658.3	7490.79
658.492	7605.47
658.684	7386.34
658.876	7558.37
659.068	7453.92
659.26	7386.34
659.452	7283.94
659.644	7394.53
659.836	7234.79
660.028	7130.34
660.22	7009.51
660.412	7183.59
660.604	7103.72
660.796	7025.9
660.988	7093.48
661.18	6911.21
661.372	6868.2
661.563	6913.26
661.755	6796.53
661.947	6790.38
662.139	6841.58
662.331	6710.51
662.522	6634.74
662.714	6763.76
662.906	6653.17
663.097	6733.04
663.289	6550.77
663.481	6511.86
663.673	6524.15
663.864	6409.46
664.056	6452.47
664.247	6446.32
664.439	6255.86
664.631	6329.59
664.822	6145.27
665.014	6302.97
665.205	6262.01
665.397	6083.83
665.588	6229.24
665.78	6194.42
665.971	6147.32
666.163	6135.03
666.354	6135.03
666.546	6036.73
666.737	6001.91
666.929	5895.42
667.12	5854.46
667.311	5758.21
667.503	5797.12
667.694	5872.89
667.885	5704.96
668.077	5643.52
668.268	5678.33
668.459	5551.36
668.651	5627.14
668.842	5651.71
669.033	5516.55
669.224	5522.69
669.416	5555.46
669.607	5391.62
669.798	5444.87
669.989	5356.8
670.18	5444.87
670.371	5340.42
670.563	5369.09
670.754	5344.52
670.945	5268.74
671.136	5127.43
671.327	5283.08
671.518	5125.38
671.709	5164.29
671.9	5233.93
672.091	5176.58
672.282	5125.38
672.473	5141.77
672.664	5225.73
672.855	5014.79
673.046	5000.46
673.237	5078.28
673.428	4975.88
673.619	4873.48
673.809	4861.2
674	4875.53
674.191	4883.72
674.382	5000.46
674.573	4879.63
674.764	4697.36
674.954	4850.96
675.145	4795.66
675.336	4676.88
675.527	4654.35
675.717	4783.37
675.908	4656.4
676.099	4705.55
676.289	4670.73
676.48	4762.89
676.671	4687.12
676.861	4617.49
677.052	4467.99
677.243	4367.63
677.433	4451.6
677.624	4422.93
677.814	4459.79
678.005	4431.12
678.195	4418.83
678.386	4513.04
678.576	4283.67
678.767	4298
678.957	4293.91
679.148	4287.76
679.338	4199.7
679.529	4306.2
679.719	4125.97
679.909	4308.24
680.1	4205.85
680.29	4175.13
680.481	4046.1
680.671	4054.3
680.861	4058.39
681.052	4042.01
681.242	4064.54
681.432	4070.68
681.622	4099.35
681.813	4011.29
682.003	4158.74
682.193	3896.6
682.383	4042.01
682.573	3826.97
682.764	3996.95
682.954	3859.74
683.144	3931.42
683.334	3810.59
683.524	3667.23
683.714	3753.24
683.904	3869.98
684.094	3880.22
684.284	3826.97
684.474	3681.57
684.664	3724.57
684.854	3855.64
685.044	3767.58
685.234	3726.62
685.424	3761.44
685.614	3765.53
685.804	3607.84
685.994	3663.13
686.184	3626.27
686.374	3804.44
686.564	3695.9
686.753	3656.99
686.943	3640.61
687.133	3697.95
687.323	3517.73
687.513	3538.21
687.702	3511.58
687.892	3405.09
688.082	3560.74
688.272	3542.3
688.461	3444
688.651	3366.18
688.841	3411.23
689.03	3491.1
689.22	3390.75
689.41	3403.04
689.599	3396.9
689.789	3370.27
689.979	3245.35
690.168	3462.43
690.358	3450.14
690.547	3194.15
690.737	3409.19
690.926	3407.14
691.116	3169.57
691.305	3437.86
691.495	3218.72
691.684	3013.93
691.874	3298.6
692.063	3087.65
692.252	3196.2
692.442	3212.58
692.631	3108.13
692.82	3157.29
693.01	3093.8
693.199	3149.09
693.388	3110.18
693.578	3124.52
693.767	3089.7
693.956	3142.95
694.146	3112.23
694.335	2934.06
694.524	2970.92
694.713	2944.3
694.902	2921.77
695.092	3138.85
695.281	3040.55
695.47	3042.6
695.659	2966.82
695.848	3015.98
696.037	2954.54
696.226	2880.81
696.415	2815.27
696.604	2979.11
696.793	2819.37
696.982	2929.96
697.171	2821.42
697.36	2983.21
697.549	2889
697.738	2848.04
697.927	2977.06
698.116	2794.79
698.305	2811.18
698.494	2831.66
698.683	2805.03
698.872	2880.81
699.061	2911.53
699.25	2766.12
699.438	2856.23
699.627	2889
699.816	2811.18
700.005	2764.08
700.193	2843.95
700.382	2796.84
700.571	2813.23
700.76	2923.82
700.948	2807.08
701.137	2950.44
701.326	2682.16
701.514	2860.33
701.703	2903.34
701.892	2784.55
702.08	2868.52
702.269	2710.83
702.457	2651.44
702.646	2671.92
702.834	2786.6
703.023	2712.88
703.212	2751.79
703.4	2706.73
703.589	2692.4
703.777	2661.68
703.965	2557.23
704.154	2585.9
704.342	2723.12
704.531	2643.25
704.719	2600.24
704.907	2829.61
705.096	2661.68
705.284	2610.48
705.472	2569.52
705.661	2618.67
705.849	2696.49
706.037	2633.01
706.226	2637.1
706.414	2602.29
706.602	2542.89
706.79	2686.25
706.979	2567.47
707.167	2714.92
707.355	2633.01
707.543	2602.29
707.731	2602.29
707.919	2649.39
708.107	2712.88
708.296	2561.33
708.484	2635.05
708.672	2602.29
708.86	2579.76
709.048	2557.23
709.236	2538.8
709.424	2686.25
709.612	2526.51
709.8	2575.66
709.988	2604.33
710.176	2526.51
710.364	2604.33
710.551	2497.84
710.739	2651.44
710.927	2538.8
711.115	2551.09
711.303	2497.84
711.491	2538.8
711.679	2460.98
711.866	2481.46
712.054	2659.63
712.242	2510.13
712.43	2671.92
712.617	2520.37
712.805	2518.32
712.993	2444.59
713.181	2440.5
713.368	2477.36
713.556	2456.88
713.744	2452.78
713.931	2463.02
714.119	2391.34
714.306	2487.6
714.494	2528.56
714.682	2471.22
714.869	2495.79
715.057	2485.55
715.244	2315.57
715.432	2481.46
715.619	2372.91
715.807	2411.82
715.994	2454.83
716.182	2448.69
716.369	2534.7
716.556	2460.98
716.744	2374.96
716.931	2499.89
717.119	2428.21
717.306	2387.25
717.493	2417.97
717.681	2395.44
717.868	2346.29
718.055	2436.4
718.242	2434.35
718.43	2307.38
718.617	2444.59
718.804	2346.29
718.991	2452.78
719.179	2405.68
719.366	2395.44
719.553	2334
719.74	2483.5
719.927	2387.25
720.114	2428.21
720.301	2401.58
720.488	2329.91
720.676	2231.6
720.863	2481.46
721.05	2420.02
721.237	2282.8
721.424	2411.82
721.611	2397.49
721.798	2327.86
721.985	2307.38
722.172	2383.15
722.358	2305.33
722.545	2401.58
722.732	2297.14
722.919	2297.14
723.106	2315.57
723.293	2413.87
723.48	2284.85
723.667	2403.63
723.853	2241.84
724.04	2438.45
724.227	2299.19
724.414	2213.17
724.6	2237.75
724.787	2264.37
724.974	2268.47
725.161	2274.61
725.347	2221.36
725.534	2245.94
725.72	2329.91
725.907	2270.51
726.094	2331.95
726.28	2221.36
726.467	2192.69
726.653	2299.19
726.84	2114.87
727.027	2299.19
727.213	2280.75
727.4	2231.6
727.586	2225.46
727.773	2282.8
727.959	2323.76
728.145	2264.37
728.332	2225.46
728.518	2155.83
728.705	2180.4
728.891	2145.59
729.077	2108.73
729.264	2186.55
729.45	2223.41
729.636	2190.64
729.823	2059.57
730.009	2219.32
730.195	2075.96
730.382	2096.44
730.568	2157.88
730.754	2129.2
730.94	2123.06
731.126	2114.87
731.313	2282.8
731.499	2133.3
731.685	2207.03
731.871	2168.12
732.057	2182.45
732.243	2133.3
732.429	2194.74
732.615	2100.53
732.801	2209.08
732.987	2078.01
733.173	2186.55
733.359	2075.96
733.545	2180.4
733.731	2198.84
733.917	2131.25
734.103	2061.62
734.289	2112.82
734.475	2069.81
734.661	2161.97
734.847	2041.14
735.033	2094.39
735.219	2075.96
735.404	2106.68
735.59	2252.08
735.776	2039.09
735.962	2125.11
736.148	2053.43
736.333	2129.2
736.519	2010.42
736.705	2184.5
736.89	2069.81
737.076	1957.18
737.262	2069.81
737.447	2049.33
737.633	1977.66
737.819	1989.94
738.004	2018.61
738.19	1922.36
738.375	1973.56
738.561	2043.19
738.747	1957.18
738.932	2061.62
739.118	2075.96
739.303	1910.07
739.489	1912.12
739.674	1830.2
739.859	1987.9
740.045	1948.98
740.23	1930.55
740.416	1963.32
740.601	2012.47
740.786	1973.56
740.972	1895.74
741.157	1951.03
741.342	1828.15
741.528	1797.43
741.713	1910.07
741.898	1752.38
742.084	1856.83
742.269	1828.15
742.454	1957.18
742.639	1838.39
742.824	1817.91
743.01	1783.1
743.195	1758.52
743.38	1674.56
743.565	1885.5
743.75	1776.95
743.935	1799.48
744.12	1770.81
744.305	1684.8
744.49	1783.1
744.675	1711.42
744.86	1756.47
745.045	1660.22
745.23	1635.64
745.415	1731.9
745.6	1799.48
745.785	1791.29
745.97	1643.84
746.155	1682.75
746.34	1654.08
746.525	1600.83
746.71	1606.97
746.895	1580.35
747.079	1695.04
747.264	1514.81
747.449	1713.47
747.634	1598.78
747.819	1611.07
748.003	1594.69
748.188	1600.83
748.373	1578.3
748.557	1590.59
748.742	1625.4
748.927	1568.06
749.111	1590.59
749.296	1408.32
749.481	1563.97
749.665	1590.59
749.85	1420.61
750.034	1539.39
750.219	1563.97
750.404	1453.38
750.588	1508.67
750.773	1346.88
750.957	1486.14
751.141	1494.33
751.326	1457.47
751.51	1389.89
751.695	1457.47
751.879	1404.22
752.064	1410.37
752.248	1398.08
752.432	1402.18
752.617	1469.76
752.801	1471.81
752.985	1287.49
753.17	1402.18
753.354	1262.91
753.538	1332.55
753.722	1279.3
753.907	1199.43
754.091	1373.5
754.275	1250.63
754.459	1381.7
754.643	1289.54
754.828	1269.06
755.012	1371.46
755.196	1283.39
755.38	1316.16
755.564	1207.62
755.748	1170.76
755.932	1293.63
756.116	1275.2
756.3	1105.22
756.484	1176.9
756.668	1246.53
756.852	1183.04
757.036	1185.09
757.22	1176.9
757.404	1236.29
757.588	1144.13
757.772	1181
757.956	1197.38
758.14	1203.52
758.323	1054.02
758.507	1092.93
758.691	1099.08
758.875	1127.75
759.059	1082.69
759.242	1154.37
759.426	1068.36
759.61	1068.36
759.794	1121.6
759.977	1080.64
760.161	1156.42
760.345	1029.45
760.528	1080.64
760.712	1023.3
760.895	1086.79
761.079	1119.56
761.263	1054.02
761.446	1002.82
761.63	957.77
761.813	959.81
761.997	1051.97
762.18	988.49
762.364	949.57
762.547	943.43
762.731	972.1
762.914	972.1
763.098	1084.74
763.281	1029.45
763.464	937.29
763.648	1088.84
763.831	953.67
764.015	947.53
764.198	951.62
764.381	1004.87
764.564	943.43
764.748	1002.82
764.931	982.34
765.114	941.38
765.297	953.67
765.481	879.94
765.664	939.34
765.847	933.19
766.03	953.67
766.213	904.52
766.397	871.75
766.58	879.94
766.763	918.86
766.946	865.61
767.129	857.42
767.312	765.26
767.495	896.33
767.678	830.79
767.861	925
768.044	912.71
768.227	933.19
768.41	822.6
768.593	832.84
768.776	892.23
768.959	845.13
769.142	974.15
769.324	922.95
769.507	869.7
769.69	855.37
769.873	814.41
770.056	865.61
770.239	904.52
770.421	935.24
770.604	830.79
770.787	822.6
770.97	816.46
771.152	789.83
771.335	843.08
771.518	826.7
771.7	781.64
771.883	925
772.066	806.22
772.248	812.36
772.431	740.68
772.613	849.22
772.796	798.03
772.978	759.11
773.161	806.22
773.343	810.31
773.526	855.37
773.708	724.3
773.891	748.87
774.073	742.73
774.256	767.31
774.438	793.93
774.621	740.68
774.803	740.68
774.985	759.11
775.168	791.88
775.35	728.39
775.532	720.2
775.715	773.45
775.897	699.72
776.079	669
776.261	798.03
776.444	716.11
776.626	675.15
776.808	734.54
776.99	773.45
777.173	673.1
777.355	734.54
777.537	777.55
777.719	683.34
777.901	707.91
778.083	699.72
778.265	691.53
778.447	597.32
778.629	646.48
778.811	728.39
778.993	587.08
779.175	636.24
779.357	580.94
779.539	650.57
779.721	642.38
779.903	601.42
780.085	669
780.267	609.61
780.449	644.43
780.631	574.8
780.812	568.65
780.994	503.12
781.176	564.56
781.358	652.62
781.54	593.23
781.721	617.8
781.903	552.27
782.085	669
782.267	595.28
782.448	505.17
782.63	494.93
782.812	560.46
782.993	533.84
783.175	482.64
783.357	503.12
783.538	496.97
783.72	503.12
783.901	537.93
784.083	511.31
784.264	527.69
784.446	546.13
784.627	470.35
784.809	490.83
784.99	437.58
785.172	449.87
785.353	527.69
785.535	421.2
785.716	490.83
785.897	458.06
786.079	486.73
786.26	546.13
786.441	521.55
786.623	505.17
786.804	382.29
786.985	372.05
787.167	505.17
787.348	406.86
787.529	492.88
787.71	521.55
787.891	441.68
788.073	400.72
788.254	425.29
788.435	390.48
788.616	468.3
788.797	417.1
788.978	306.51
789.159	339.28
789.34	462.16
789.522	396.62
789.703	404.82
789.884	406.86
790.065	398.67
790.246	425.29
790.427	331.09
790.607	419.15
790.788	372.05
790.969	380.24
791.15	386.38
791.331	347.47
791.512	370
791.693	363.86
791.874	449.87
792.054	406.86
792.235	353.62
792.416	349.52
792.597	277.84
792.778	365.9
792.958	363.86
793.139	281.94
793.32	415.06
793.5	365.9
793.681	378.19
793.862	329.04
794.042	413.01
794.223	324.94
794.404	255.31
794.584	296.27
794.765	255.31
794.945	275.79
795.126	388.43
795.306	351.57
795.487	257.36
795.667	320.85
795.848	306.51
796.028	343.38
796.209	320.85
796.389	337.23
796.57	298.32
796.75	335.18
796.93	261.46
797.111	224.59
797.291	183.63
797.471	232.79
797.652	283.99
797.832	243.03
798.012	357.71
798.192	277.84
798.373	208.21
798.553	296.27
798.733	240.98
798.913	243.03
799.093	240.98
799.274	253.27
799.454	331.09
799.634	269.65
799.814	302.42
799.994	300.37
800.174	253.27
800.354	222.55
800.534	230.74
800.714	275.79
800.894	171.35
801.074	224.59
801.254	273.75
801.434	269.65
801.614	193.87
801.794	220.5
801.974	791.88
802.154	187.73
802.334	314.7
802.514	185.68
802.693	232.79
802.873	316.75
803.053	257.36
803.233	159.06
803.413	245.07
803.592	247.12
803.772	249.17
803.952	212.31
804.131	187.73
804.311	200.02
804.491	257.36
804.67	259.41
804.85	189.78
805.03	259.41
805.209	240.98
805.389	212.31
805.568	181.59
805.748	157.01
805.928	273.75
806.107	238.93
806.287	279.89
806.466	189.78
806.646	218.45
806.825	267.6
807.004	228.69
807.184	222.55
807.363	208.21
807.543	249.17
807.722	189.78
807.901	226.64
808.081	134.48
808.26	148.82
808.439	220.5
808.619	253.27
808.798	214.35
808.977	177.49
809.156	191.83
809.336	202.07
809.515	220.5
809.694	161.11
809.873	175.44
810.052	118.1
810.231	191.83
810.411	175.44
810.59	197.97
810.769	197.97
810.948	142.68
811.127	142.68
811.306	202.07
811.485	210.26
811.664	152.92
811.843	134.48
812.022	91.48
812.201	126.29
812.38	191.83
812.559	95.57
812.737	191.83
812.916	144.72
813.095	148.82
813.274	218.45
813.453	208.21
813.632	167.25
813.811	169.3
813.989	122.2
814.168	136.53
814.347	169.3
814.526	200.02
814.704	152.92
814.883	154.96
815.062	150.87
815.24	118.1
815.419	99.67
815.598	95.57
815.776	146.77
815.955	114
816.133	77.14
816.312	150.87
816.49	122.2
816.669	118.1
816.847	118.1
817.026	130.39
817.204	150.87
817.383	251.22
817.561	175.44
817.74	152.92
817.918	95.57
818.097	138.58
818.275	109.91
818.453	189.78
818.632	118.1
818.81	122.2
818.988	163.15
819.167	134.48
819.345	109.91
819.523	130.39
819.701	140.63
819.879	118.1
820.058	85.33
820.236	197.97
820.414	107.86
820.592	118.1
820.77	120.15
820.948	95.57
821.127	118.1
821.305	111.96
821.483	111.96
821.661	138.58
821.839	56.66
822.017	118.1
822.195	97.62
822.373	120.15
822.551	148.82
822.729	150.87
822.907	60.76
823.085	161.11
823.262	167.25
823.44	89.43
823.618	109.91
823.796	142.68
823.974	54.61
824.152	150.87
824.329	89.43
824.507	73.04
824.685	124.24
824.863	118.1
825.04	120.15
825.218	120.15
825.396	126.29
825.574	130.39
825.751	183.63
825.929	64.85
826.107	132.44
826.284	95.57
826.462	126.29
826.639	58.71
826.817	105.81
826.994	3.41
827.172	68.95
827.349	175.44
827.527	128.34
827.704	136.53
827.882	134.48
828.059	175.44
828.237	52.56
828.414	99.67
828.591	87.38
828.769	30.04
828.946	134.48
829.124	52.56
829.301	85.33
829.478	118.1
829.655	87.38
829.833	116.05
830.01	79.19
830.187	118.1
830.364	34.13
830.542	101.72
830.719	75.09
830.896	83.28
831.073	154.96
831.25	107.86
831.427	132.44
831.604	91.48
831.782	140.63
831.959	73.04
832.136	85.33
832.313	42.32
832.49	105.81
832.667	73.04
832.844	48.47
833.021	68.95
833.198	128.34
833.374	109.91
833.551	93.52
833.728	66.9
833.905	134.48
834.082	68.95
834.259	46.42
834.436	142.68
834.612	77.14
834.789	62.8
834.966	15.7
835.143	36.18
835.319	79.19
835.496	177.49
835.673	25.94
835.85	81.24
836.026	120.15
836.203	89.43
836.38	124.24
836.556	81.24
836.733	23.89
836.909	118.1
837.086	7.51
837.262	13.65
837.439	120.15
837.616	85.33
837.792	154.96
837.968	7.51
838.145	42.32
838.321	52.56
838.498	93.52
838.674	19.8
838.851	40.28
839.027	109.91
839.203	116.05
839.38	91.48
839.556	48.47
839.732	116.05
839.909	56.66
840.085	68.95
840.261	79.19
840.437	64.85
840.614	7.51
840.79	128.34
840.966	56.66
841.142	40.28
841.318	60.76
841.494	11.61
841.671	73.04
841.847	-4.78
842.023	71
842.199	140.63
842.375	5.46
842.551	13.65
842.727	116.05
842.903	105.81
843.079	60.76
843.255	19.8
843.431	11.61
843.607	95.57
843.783	32.08
843.959	75.09
844.134	60.76
844.31	83.28
844.486	93.52
844.662	54.61
844.838	81.24
845.013	87.38
845.189	89.43
845.365	101.72
845.541	60.76
845.716	23.89
845.892	89.43
846.068	-8.87
846.244	95.57
846.419	93.52
846.595	40.28
846.77	60.76
846.946	34.13
847.122	23.89
847.297	93.52
847.473	77.14
847.648	27.99
847.824	111.96
847.999	58.71
848.175	15.7
848.35	79.19
848.526	54.61
848.701	15.7
848.876	85.33
849.052	103.76
849.227	48.47
849.403	85.33
849.578	-21.16
849.753	58.71
849.929	77.14
850.104	34.13
850.279	27.99
850.454	95.57
850.63	87.38
850.805	48.47
850.98	58.71
851.155	75.09
851.33	62.8
851.505	36.18
851.681	114
851.856	38.23
852.031	27.99
852.206	30.04
852.381	-53.93
852.556	21.85
852.731	3.41
852.906	50.52
853.081	60.76
853.256	138.58
853.431	64.85
853.606	19.8
853.781	32.08
853.956	3.41
854.131	77.14
854.305	-23.21
854.48	77.14
854.655	11.61
854.83	-51.88
855.005	83.28
855.18	83.28
855.354	95.57
855.529	81.24
855.704	-25.26
855.879	87.38
856.053	11.61
856.228	21.85
856.403	-0.68
856.577	75.09
856.752	42.32
856.926	34.13
857.101	89.43
857.276	13.65
857.45	68.95
857.625	32.08
857.799	64.85
857.974	-2.73
858.148	50.52
858.323	95.57
858.497	-31.4
858.672	71
858.846	58.71
859.02	81.24
859.195	27.99
859.369	1.37
859.543	56.66
859.718	68.95
859.892	17.75
860.066	30.04
860.241	11.61
860.415	58.71
860.589	27.99
860.763	71
860.938	15.7
861.112	46.42
861.286	34.13
861.46	85.33
861.634	44.37
861.808	111.96
861.982	13.65
862.157	60.76
862.331	23.89
862.505	44.37
862.679	11.61
862.853	79.19
863.027	68.95
863.201	101.72
863.375	3.41
863.549	7.51
863.722	-29.35
863.896	1.37
864.07	1.37
864.244	44.37
864.418	71
864.592	50.52
864.766	-43.69
864.939	-2.73
865.113	48.47
865.287	75.09
865.461	3.41
865.634	79.19
865.808	58.71
865.982	95.57
866.156	-15.02
866.329	42.32
866.503	-12.97
866.676	-10.92
866.85	25.94
867.024	23.89
867.197	62.8
867.371	40.28
867.544	-8.87
867.718	-25.26
867.891	27.99
868.065	44.37
868.238	30.04
868.412	36.18
868.585	-15.02
868.759	-58.03
868.932	11.61
869.105	-29.35
869.279	19.8
869.452	5.46
869.625	71
869.799	56.66
869.972	-21.16
870.145	32.08
870.319	5.46
870.492	5.46
870.665	48.47
870.838	-4.78
871.011	-29.35
871.185	68.95
871.358	60.76
871.531	48.47
871.704	-35.5
871.877	19.8
872.05	-29.35
872.223	-68.27
872.396	-41.64
872.569	54.61
872.742	-19.11
872.915	48.47
873.088	79.19
873.261	-35.5
873.434	77.14
873.607	54.61
873.78	32.08
873.953	93.52
874.126	5.46
874.299	105.81
874.471	48.47
874.644	-2.73
874.817	13.65
874.99	54.61
875.163	1.37
875.335	15.7
875.508	27.99
875.681	58.71
875.853	38.23
876.026	3.41
876.199	32.08
876.371	79.19
876.544	-25.26
876.717	19.8
876.889	-0.68
877.062	75.09
877.234	-53.93
877.407	-12.97
877.579	101.72
877.752	-31.4
877.924	23.89
878.097	-27.31
878.269	-29.35
878.442	-17.07
878.614	27.99
878.786	-4.78
878.959	19.8
879.131	40.28
879.303	-82.6
879.476	7.51
879.648	54.61
879.82	34.13
879.993	-29.35
880.165	-12.97
880.337	-62.12
880.509	-2.73
880.681	-25.26
880.854	-8.87
881.026	-29.35
881.198	15.7
881.37	81.24
881.542	7.51
881.714	13.65
881.886	-21.16
882.058	11.61
882.23	17.75
882.402	-92.84
882.574	5.46
882.746	17.75
882.918	71
883.09	-10.92
883.262	3.41
883.434	-8.87
883.606	52.56
883.778	3.41
883.95	36.18
884.122	-23.21
884.293	79.19
884.465	36.18
884.637	11.61
884.809	-21.16
884.98	5.46
885.152	5.46
885.324	7.51
885.496	-41.64
885.667	52.56
885.839	17.75
886.011	19.8
886.182	23.89
886.354	32.08
886.525	-2.73
886.697	44.37
886.869	38.23
887.04	-27.31
887.212	1.37
887.383	54.61
887.555	81.24
887.726	62.8
887.897	-25.26
888.069	114
888.24	75.09
888.412	7.51
888.583	56.66
888.754	50.52
888.926	30.04
889.097	17.75
889.268	13.65
889.44	81.24
889.611	-39.59
889.782	19.8
889.953	-41.64
890.125	60.76
890.296	-51.88
890.467	-27.31
890.638	-37.55
890.809	30.04
890.98	-6.83
891.151	-10.92
891.323	68.95
891.494	5.46
891.665	23.89
891.836	-19.11
892.007	3.41
892.178	-29.35
892.349	-21.16
892.52	50.52
892.691	3.41
892.862	36.18
893.032	15.7
893.203	-31.4
893.374	36.18
893.545	81.24
893.716	42.32
893.887	23.89
894.057	-37.55
894.228	58.71
894.399	40.28
894.57	60.76
894.74	-29.35
894.911	68.95
895.082	-2.73
895.253	60.76
895.423	-31.4
895.594	11.61
895.764	-10.92
895.935	-35.5
896.106	77.14
896.276	-8.87
896.447	13.65
896.617	-66.22
896.788	19.8
896.958	-27.31
897.129	30.04
897.299	30.04
897.47	7.51
897.64	32.08
897.81	23.89
897.981	89.43
898.151	-39.59
898.322	-19.11
898.492	-45.74
898.662	23.89
898.832	52.56
899.003	17.75
899.173	62.8
899.343	-37.55
899.513	-15.02
