Data from USB4F104151__59__13-11-57-957.txt Node

Date: Fri Mar 14 13:11:57 EDT 2025
User: louis
Spectrometer: USB4F10415
Trigger mode: 4
Integration Time (sec): 2.000000E-2
Scans to average: 1
Electric dark correction enabled: true
Nonlinearity correction enabled: false
Boxcar width: 0
XAxis mode: Wavelengths
Number of Pixels in Spectrum: 3648
>>>>>Begin Spectral Data<<<<<
178.204	-73.73
178.424	-73.73
178.644	-73.73
178.864	-114.69
179.084	-102.4
179.304	-34.82
179.524	-12.29
179.744	-69.63
179.964	106.49
180.184	4.1
180.404	-8.19
180.624	6.14
180.844	53.25
181.064	-6.14
181.283	-32.77
181.503	-18.43
181.723	12.29
181.943	51.2
182.163	102.4
182.383	32.77
182.602	63.49
182.822	90.11
183.042	73.73
183.262	-43.01
183.482	67.58
183.701	34.82
183.921	32.77
184.141	10.24
184.361	131.07
184.58	67.58
184.8	2.05
185.02	49.15
185.239	61.44
185.459	32.77
185.679	73.73
185.898	-10.24
186.118	16.38
186.338	28.67
186.557	-18.43
186.777	73.73
186.997	118.78
187.216	53.25
187.436	112.64
187.655	4.1
187.875	104.45
188.095	57.34
188.314	71.68
188.534	110.59
188.753	47.1
188.973	45.06
189.192	53.25
189.412	53.25
189.631	79.87
189.851	-14.34
190.07	12.29
190.29	-77.82
190.509	-22.53
190.729	0
190.948	73.73
191.168	75.77
191.387	65.53
191.607	32.77
191.826	47.1
192.045	71.68
192.265	63.49
192.484	71.68
192.704	34.82
192.923	47.1
193.142	120.83
193.362	34.82
193.581	141.31
193.8	26.62
194.02	57.34
194.239	-26.62
194.458	88.06
194.678	40.96
194.897	14.34
195.116	12.29
195.335	96.25
195.555	14.34
195.774	102.4
195.993	67.58
196.212	36.86
196.432	77.82
196.651	-26.62
196.87	14.34
197.089	71.68
197.308	45.06
197.528	108.54
197.747	59.39
197.966	79.87
198.185	96.25
198.404	34.82
198.623	36.86
198.842	63.49
199.062	79.87
199.281	14.34
199.5	90.11
199.719	16.38
199.938	112.64
200.157	32.77
200.376	10.24
200.595	86.01
200.814	149.5
201.033	-88.06
201.252	75.77
201.471	69.63
201.69	22.53
201.909	28.67
202.128	53.25
202.347	-47.1
202.566	40.96
202.785	51.2
203.004	61.44
203.223	20.48
203.442	63.49
203.661	104.45
203.879	36.86
204.098	104.45
204.317	18.43
204.536	75.77
204.755	12.29
204.974	53.25
205.193	-22.53
205.411	139.26
205.63	24.58
205.849	4.1
206.068	49.15
206.287	55.3
206.505	49.15
206.724	-2.05
206.943	86.01
207.162	43.01
207.381	90.11
207.599	8.19
207.818	110.59
208.037	-26.62
208.255	12.29
208.474	73.73
208.693	83.97
208.911	40.96
209.13	79.87
209.349	110.59
209.567	112.64
209.786	49.15
210.005	57.34
210.223	28.67
210.442	28.67
210.661	77.82
210.879	53.25
211.098	61.44
211.316	77.82
211.535	59.39
211.753	120.83
211.972	92.16
212.191	2.05
212.409	-4.1
212.628	120.83
212.846	71.68
213.065	110.59
213.283	118.78
213.502	63.49
213.72	38.91
213.938	8.19
214.157	63.49
214.375	16.38
214.594	34.82
214.812	43.01
215.031	77.82
215.249	49.15
215.467	133.12
215.686	0
215.904	124.93
216.122	12.29
216.341	28.67
216.559	4.1
216.778	65.53
216.996	106.49
217.214	63.49
217.432	-22.53
217.651	36.86
217.869	77.82
218.087	49.15
218.306	26.62
218.524	94.21
218.742	34.82
218.96	16.38
219.179	-53.25
219.397	12.29
219.615	47.1
219.833	-10.24
220.051	55.3
220.27	126.97
220.488	47.1
220.706	71.68
220.924	18.43
221.142	28.67
221.36	4.1
221.578	65.53
221.796	-20.48
222.015	69.63
222.233	12.29
222.451	122.88
222.669	-28.67
222.887	49.15
223.105	0
223.323	22.53
223.541	-4.1
223.759	30.72
223.977	77.82
224.195	38.91
224.413	49.15
224.631	32.77
224.849	16.38
225.067	0
225.285	34.82
225.503	122.88
225.721	-61.44
225.939	90.11
226.157	26.62
226.375	96.25
226.592	47.1
226.81	94.21
227.028	94.21
227.246	141.31
227.464	53.25
227.682	133.12
227.9	45.06
228.117	90.11
228.335	49.15
228.553	124.93
228.771	-16.38
228.989	65.53
229.206	40.96
229.424	47.1
229.642	47.1
229.86	77.82
230.077	0
230.295	61.44
230.513	98.3
230.731	47.1
230.948	114.69
231.166	-20.48
231.384	16.38
231.601	2.05
231.819	53.25
232.037	40.96
232.254	-16.38
232.472	79.87
232.689	-14.34
232.907	63.49
233.125	32.77
233.342	22.53
233.56	20.48
233.777	24.58
233.995	47.1
234.213	104.45
234.43	98.3
234.648	38.91
234.865	53.25
235.083	36.86
235.3	63.49
235.518	45.06
235.735	83.97
235.953	122.88
236.17	-4.1
236.388	-2.05
236.605	57.34
236.822	88.06
237.04	0
237.257	-32.77
237.475	73.73
237.692	73.73
237.909	-61.44
238.127	18.43
238.344	40.96
238.562	45.06
238.779	-18.43
238.996	-28.67
239.214	83.97
239.431	75.77
239.648	20.48
239.865	12.29
240.083	38.91
240.3	24.58
240.517	83.97
240.735	122.88
240.952	-20.48
241.169	36.86
241.386	-81.92
241.603	51.2
241.821	77.82
242.038	88.06
242.255	153.6
242.472	24.58
242.689	55.3
242.907	69.63
243.124	43.01
243.341	73.73
243.558	98.3
243.775	6.14
243.992	-49.15
244.209	53.25
244.426	69.63
244.643	137.21
244.86	-4.1
245.078	30.72
245.295	100.35
245.512	4.1
245.729	-49.15
245.946	63.49
246.163	40.96
246.38	59.39
246.597	12.29
246.814	61.44
247.031	110.59
247.248	14.34
247.464	63.49
247.681	98.3
247.898	10.24
248.115	120.83
248.332	43.01
248.549	71.68
248.766	43.01
248.983	51.2
249.2	22.53
249.417	12.29
249.633	69.63
249.85	135.17
250.067	51.2
250.284	-6.14
250.501	69.63
250.717	71.68
250.934	34.82
251.151	4.1
251.368	96.25
251.585	67.58
251.801	22.53
252.018	69.63
252.235	47.1
252.451	-18.43
252.668	47.1
252.885	61.44
253.102	-28.67
253.318	98.3
253.535	77.82
253.752	96.25
253.968	36.86
254.185	32.77
254.401	94.21
254.618	88.06
254.835	22.53
255.051	38.91
255.268	28.67
255.484	86.01
255.701	20.48
255.917	6.14
256.134	43.01
256.351	88.06
256.567	-22.53
256.784	118.78
257	61.44
257.217	4.1
257.433	20.48
257.65	28.67
257.866	36.86
258.082	47.1
258.299	55.3
258.515	38.91
258.732	53.25
258.948	-4.1
259.165	126.97
259.381	69.63
259.597	69.63
259.814	71.68
260.03	-18.43
260.246	24.58
260.463	147.45
260.679	38.91
260.895	36.86
261.112	79.87
261.328	16.38
261.544	16.38
261.761	81.92
261.977	38.91
262.193	77.82
262.409	102.4
262.626	49.15
262.842	77.82
263.058	14.34
263.274	-2.05
263.49	18.43
263.707	77.82
263.923	32.77
264.139	55.3
264.355	51.2
264.571	108.54
264.787	122.88
265.004	30.72
265.22	71.68
265.436	86.01
265.652	38.91
265.868	-12.29
266.084	-22.53
266.3	20.48
266.516	16.38
266.732	12.29
266.948	47.1
267.164	77.82
267.38	47.1
267.596	96.25
267.812	108.54
268.028	55.3
268.244	126.97
268.46	47.1
268.676	20.48
268.892	55.3
269.108	63.49
269.324	45.06
269.54	26.62
269.756	61.44
269.972	4.1
270.188	57.34
270.403	30.72
270.619	79.87
270.835	22.53
271.051	71.68
271.267	47.1
271.483	28.67
271.698	63.49
271.914	98.3
272.13	-14.34
272.346	88.06
272.562	-16.38
272.777	90.11
272.993	45.06
273.209	51.2
273.425	90.11
273.64	20.48
273.856	57.34
274.072	2.05
274.287	10.24
274.503	-20.48
274.719	16.38
274.934	45.06
275.15	69.63
275.366	-2.05
275.581	49.15
275.797	49.15
276.012	43.01
276.228	73.73
276.444	-8.19
276.659	114.69
276.875	108.54
277.09	36.86
277.306	8.19
277.521	22.53
277.737	38.91
277.952	40.96
278.168	73.73
278.383	4.1
278.599	28.67
278.814	6.14
279.03	24.58
279.245	73.73
279.461	86.01
279.676	79.87
279.892	10.24
280.107	81.92
280.322	-8.19
280.538	81.92
280.753	53.25
280.969	81.92
281.184	36.86
281.399	0
281.615	53.25
281.83	61.44
282.045	6.14
282.26	24.58
282.476	69.63
282.691	47.1
282.906	18.43
283.122	20.48
283.337	96.25
283.552	40.96
283.767	88.06
283.983	118.78
284.198	57.34
284.413	12.29
284.628	-4.1
284.843	73.73
285.058	10.24
285.274	-28.67
285.489	32.77
285.704	161.79
285.919	36.86
286.134	73.73
286.349	81.92
286.564	20.48
286.779	96.25
286.995	30.72
287.21	28.67
287.425	57.34
287.64	75.77
287.855	73.73
288.07	53.25
288.285	28.67
288.5	92.16
288.715	73.73
288.93	61.44
289.145	71.68
289.36	153.6
289.575	94.21
289.79	20.48
290.004	79.87
290.219	122.88
290.434	22.53
290.649	32.77
290.864	59.39
291.079	30.72
291.294	75.77
291.509	43.01
291.724	18.43
291.938	4.1
292.153	71.68
292.368	22.53
292.583	94.21
292.798	61.44
293.012	59.39
293.227	14.34
293.442	55.3
293.657	12.29
293.871	61.44
294.086	-18.43
294.301	67.58
294.516	77.82
294.73	81.92
294.945	63.49
295.16	-8.19
295.374	71.68
295.589	135.17
295.804	96.25
296.018	92.16
296.233	28.67
296.447	75.77
296.662	59.39
296.877	110.59
297.091	14.34
297.306	-2.05
297.52	-8.19
297.735	59.39
297.949	51.2
298.164	120.83
298.378	-45.06
298.593	36.86
298.807	22.53
299.022	112.64
299.236	12.29
299.451	106.49
299.665	135.17
299.88	24.58
300.094	49.15
300.309	45.06
300.523	63.49
300.737	57.34
300.952	116.73
301.166	118.78
301.381	94.21
301.595	71.68
301.809	22.53
302.024	-12.29
302.238	34.82
302.452	122.88
302.667	-28.67
302.881	133.12
303.095	20.48
303.309	43.01
303.524	63.49
303.738	63.49
303.952	24.58
304.166	-20.48
304.381	8.19
304.595	129.02
304.809	0
305.023	-8.19
305.237	32.77
305.452	18.43
305.666	73.73
305.88	40.96
306.094	28.67
306.308	126.97
306.522	24.58
306.736	79.87
306.95	-8.19
307.164	90.11
307.379	2.05
307.593	73.73
307.807	75.77
308.021	104.45
308.235	112.64
308.449	49.15
308.663	-63.49
308.877	96.25
309.091	-16.38
309.305	26.62
309.519	-57.34
309.733	81.92
309.947	53.25
310.161	6.14
310.374	-10.24
310.588	79.87
310.802	12.29
311.016	86.01
311.23	-4.1
311.444	96.25
311.658	79.87
311.872	143.36
312.085	77.82
312.299	36.86
312.513	131.07
312.727	36.86
312.941	57.34
313.154	36.86
313.368	86.01
313.582	4.1
313.796	63.49
314.009	45.06
314.223	-6.14
314.437	71.68
314.651	40.96
314.864	69.63
315.078	83.97
315.292	32.77
315.505	133.12
315.719	38.91
315.933	40.96
316.146	24.58
316.36	22.53
316.573	14.34
316.787	53.25
317.001	28.67
317.214	40.96
317.428	40.96
317.641	53.25
317.855	55.3
318.068	73.73
318.282	53.25
318.495	90.11
318.709	38.91
318.922	36.86
319.136	110.59
319.349	71.68
319.563	-18.43
319.776	71.68
319.99	69.63
320.203	67.58
320.417	98.3
320.63	88.06
320.843	63.49
321.057	30.72
321.27	122.88
321.483	32.77
321.697	118.78
321.91	28.67
322.124	55.3
322.337	57.34
322.55	38.91
322.763	38.91
322.977	61.44
323.19	-12.29
323.403	-2.05
323.617	16.38
323.83	141.31
324.043	-20.48
324.256	59.39
324.469	94.21
324.683	30.72
324.896	45.06
325.109	61.44
325.322	43.01
325.535	81.92
325.748	102.4
325.962	8.19
326.175	24.58
326.388	49.15
326.601	141.31
326.814	75.77
327.027	30.72
327.24	34.82
327.453	24.58
327.666	135.17
327.879	86.01
328.092	45.06
328.305	10.24
328.518	88.06
328.731	-12.29
328.944	40.96
329.157	8.19
329.37	112.64
329.583	69.63
329.796	49.15
330.009	-65.54
330.222	22.53
330.435	57.34
330.648	12.29
330.861	36.86
331.073	55.3
331.286	34.82
331.499	47.1
331.712	-26.62
331.925	24.58
332.138	-10.24
332.35	88.06
332.563	110.59
332.776	69.63
332.989	116.73
333.202	30.72
333.414	8.19
333.627	118.78
333.84	61.44
334.053	61.44
334.265	86.01
334.478	94.21
334.691	34.82
334.903	-16.38
335.116	69.63
335.329	20.48
335.541	45.06
335.754	40.96
335.966	53.25
336.179	18.43
336.392	92.16
336.604	-45.06
336.817	110.59
337.029	-22.53
337.242	51.2
337.454	55.3
337.667	-2.05
337.88	90.11
338.092	69.63
338.305	53.25
338.517	61.44
338.729	94.21
338.942	81.92
339.154	10.24
339.367	45.06
339.579	59.39
339.792	12.29
340.004	86.01
340.217	108.54
340.429	118.78
340.641	77.82
340.854	116.73
341.066	55.3
341.278	59.39
341.491	69.63
341.703	28.67
341.915	57.34
342.128	69.63
342.34	38.91
342.552	26.62
342.764	28.67
342.977	73.73
343.189	155.65
343.401	-18.43
343.613	24.58
343.826	112.64
344.038	30.72
344.25	40.96
344.462	14.34
344.674	49.15
344.886	14.34
345.099	47.1
345.311	61.44
345.523	71.68
345.735	28.67
345.947	65.53
346.159	71.68
346.371	-12.29
346.583	28.67
346.795	116.73
347.007	69.63
347.219	45.06
347.431	-2.05
347.643	8.19
347.855	77.82
348.067	18.43
348.279	102.4
348.491	36.86
348.703	102.4
348.915	53.25
349.127	59.39
349.339	47.1
349.551	24.58
349.763	73.73
349.975	61.44
350.187	129.02
350.399	-53.25
350.61	55.3
350.822	86.01
351.034	79.87
351.246	61.44
351.458	22.53
351.669	118.78
351.881	108.54
352.093	51.2
352.305	145.41
352.517	96.25
352.728	100.35
352.94	59.39
353.152	-14.34
353.363	63.49
353.575	57.34
353.787	104.45
353.999	8.19
354.21	92.16
354.422	28.67
354.633	57.34
354.845	96.25
355.057	49.15
355.268	22.53
355.48	53.25
355.692	67.58
355.903	96.25
356.115	24.58
356.326	0
356.538	114.69
356.749	86.01
356.961	104.45
357.172	22.53
357.384	55.3
357.595	102.4
357.807	22.53
358.018	36.86
358.23	38.91
358.441	40.96
358.653	65.53
358.864	10.24
359.075	24.58
359.287	8.19
359.498	112.64
359.709	108.54
359.921	61.44
360.132	86.01
360.344	8.19
360.555	-26.62
360.766	106.49
360.977	-12.29
361.189	106.49
361.4	118.78
361.611	73.73
361.823	77.82
362.034	36.86
362.245	22.53
362.456	86.01
362.667	20.48
362.879	153.6
363.09	14.34
363.301	47.1
363.512	53.25
363.723	28.67
363.935	63.49
364.146	129.02
364.357	10.24
364.568	90.11
364.779	53.25
364.99	126.97
365.201	63.49
365.412	102.4
365.623	-32.77
365.834	92.16
366.045	26.62
366.256	83.97
366.467	98.3
366.678	24.58
366.889	75.77
367.1	55.3
367.311	77.82
367.522	47.1
367.733	30.72
367.944	96.25
368.155	45.06
368.366	61.44
368.577	114.69
368.788	65.53
368.999	40.96
369.209	36.86
369.42	57.34
369.631	73.73
369.842	32.77
370.053	90.11
370.264	77.82
370.474	110.59
370.685	4.1
370.896	43.01
371.107	-45.06
371.317	86.01
371.528	57.34
371.739	90.11
371.95	71.68
372.16	155.65
372.371	40.96
372.582	112.64
372.792	96.25
373.003	-8.19
373.214	53.25
373.424	69.63
373.635	71.68
373.846	135.17
374.056	0
374.267	20.48
374.477	67.58
374.688	61.44
374.898	133.12
375.109	40.96
375.319	-14.34
375.53	86.01
375.74	49.15
375.951	71.68
376.161	65.53
376.372	59.39
376.582	69.63
376.793	47.1
377.003	-34.82
377.214	61.44
377.424	86.01
377.635	81.92
377.845	71.68
378.055	98.3
378.266	43.01
378.476	90.11
378.686	92.16
378.897	59.39
379.107	79.87
379.317	88.06
379.528	63.49
379.738	69.63
379.948	-6.14
380.158	77.82
380.369	59.39
380.579	88.06
380.789	-40.96
380.999	92.16
381.21	149.5
381.42	61.44
381.63	126.97
381.84	90.11
382.05	65.53
382.261	149.5
382.471	47.1
382.681	40.96
382.891	96.25
383.101	57.34
383.311	59.39
383.521	114.69
383.731	102.4
383.941	45.06
384.151	71.68
384.361	38.91
384.571	51.2
384.781	71.68
384.991	83.97
385.201	77.82
385.411	53.25
385.621	61.44
385.831	49.15
386.041	55.3
386.251	73.73
386.461	47.1
386.671	12.29
386.881	79.87
387.091	94.21
387.301	53.25
387.511	47.1
387.72	104.45
387.93	88.06
388.14	22.53
388.35	81.92
388.56	124.93
388.769	79.87
388.979	28.67
389.189	22.53
389.399	45.06
389.609	30.72
389.818	104.45
390.028	20.48
390.238	120.83
390.447	45.06
390.657	28.67
390.867	69.63
391.076	96.25
391.286	63.49
391.496	77.82
391.705	30.72
391.915	22.53
392.125	53.25
392.334	24.58
392.544	53.25
392.753	104.45
392.963	47.1
393.172	26.62
393.382	79.87
393.591	94.21
393.801	43.01
394.01	69.63
394.22	118.78
394.429	63.49
394.639	43.01
394.848	75.77
395.058	155.65
395.267	55.3
395.477	147.45
395.686	79.87
395.895	133.12
396.105	77.82
396.314	65.53
396.524	159.74
396.733	26.62
396.942	77.82
397.152	81.92
397.361	129.02
397.57	120.83
397.78	94.21
397.989	69.63
398.198	112.64
398.407	133.12
398.617	28.67
398.826	100.35
399.035	110.59
399.244	102.4
399.453	135.17
399.663	92.16
399.872	79.87
400.081	90.11
400.29	167.93
400.499	32.77
400.708	145.41
400.917	124.93
401.127	100.35
401.336	81.92
401.545	106.49
401.754	184.32
401.963	151.55
402.172	176.13
402.381	151.55
402.59	129.02
402.799	77.82
403.008	102.4
403.217	81.92
403.426	118.78
403.635	94.21
403.844	94.21
404.053	118.78
404.262	165.89
404.471	247.8
404.68	147.45
404.888	161.79
405.097	100.35
405.306	141.31
405.515	120.83
405.724	135.17
405.933	172.03
406.142	188.41
406.35	92.16
406.559	184.32
406.768	208.89
406.977	178.17
407.185	126.97
407.394	188.41
407.603	149.5
407.812	292.86
408.02	180.22
408.229	126.97
408.438	161.79
408.646	100.35
408.855	133.12
409.064	180.22
409.272	178.17
409.481	241.66
409.69	278.52
409.898	143.36
410.107	167.93
410.315	270.33
410.524	231.42
410.733	280.57
410.941	307.2
411.15	270.33
411.358	288.76
411.567	374.78
411.775	284.67
411.984	256
412.192	303.1
412.401	290.81
412.609	391.16
412.818	323.58
413.026	376.83
413.234	432.12
413.443	413.69
413.651	397.31
413.86	448.51
414.068	495.61
414.276	376.83
414.485	405.5
414.693	503.8
414.901	530.42
415.11	448.51
415.318	524.28
415.526	522.23
415.734	524.28
415.943	555
416.151	581.62
416.359	550.9
416.567	604.15
416.776	643.06
416.984	735.22
417.192	706.55
417.4	679.93
417.608	690.17
417.817	661.49
418.025	727.03
418.233	862.19
418.441	856.05
418.649	835.57
418.857	997.36
419.065	970.74
419.273	917.49
419.481	1040.37
419.689	974.83
419.897	993.26
420.105	1060.85
420.313	1081.33
420.521	1112.05
420.729	1114.1
420.937	1208.3
421.145	1273.84
421.353	1288.17
421.561	1322.99
421.769	1347.56
421.977	1417.19
422.185	1478.63
422.393	1546.22
422.601	1574.89
422.809	1562.6
423.017	1589.22
423.224	1658.85
423.432	1677.29
423.64	1734.63
423.848	1853.41
424.056	1855.46
424.263	2107.36
424.471	1939.43
424.679	2037.73
424.887	2111.46
425.094	2224.09
425.302	2138.08
425.51	2396.12
425.718	2344.92
425.925	2301.92
426.133	2461.66
426.341	2602.97
426.548	2783.19
426.756	2772.95
426.964	2830.29
427.171	2893.78
427.379	3033.04
427.586	3082.19
427.794	3162.06
428.001	3313.61
428.209	3428.3
428.417	3291.09
428.624	3612.62
428.832	3616.71
429.039	3702.73
429.247	3649.48
429.454	3993.54
429.662	4247.49
429.869	4020.16
430.076	4294.59
430.284	4100.03
430.491	4364.22
430.699	4415.42
430.906	4440
431.114	4575.16
431.321	4790.2
431.528	4902.84
431.736	5216.18
431.943	5443.5
432.15	5263.28
432.358	5199.79
432.565	5621.67
432.772	5623.72
432.979	5785.51
433.187	5943.21
433.394	5986.21
433.601	6475.68
433.808	6365.09
434.016	6369.18
434.223	6655.9
434.43	7040.92
434.637	6977.43
434.844	7421.84
435.052	7337.87
435.259	7348.11
435.466	7524.24
435.673	7438.22
435.88	7794.57
436.087	8417.15
436.294	8353.66
436.501	8232.83
436.708	8210.31
436.915	8585.08
437.122	9097.08
437.329	9011.06
437.537	9217.91
437.743	9342.83
437.95	9115.51
438.157	9846.63
438.364	10078.05
438.571	10020.71
438.778	10317.67
438.985	11370.32
439.192	10600.29
439.399	11097.94
439.606	10798.94
439.813	11532.11
440.02	12027.72
440.227	11747.15
440.433	11753.29
440.64	12250.95
440.847	12101.45
441.054	12273.48
441.261	13276.98
441.467	13080.38
441.674	13193.01
441.881	13776.69
442.088	13709.1
442.294	13664.05
442.501	14104.36
442.708	14520.1
442.914	14921.5
443.121	15613.71
443.328	15089.43
443.534	16097.03
443.741	15650.58
443.948	15331.09
444.154	16523.01
444.361	16117.51
444.568	16865.02
444.774	16899.84
444.981	16873.21
445.187	17313.53
445.394	18140.91
445.6	17905.39
445.807	19685.08
446.013	19023.58
446.22	18908.9
446.426	20201.16
446.633	20092.62
446.839	20766.4
447.046	19785.43
447.252	20942.53
447.459	21063.36
447.665	20809.41
447.871	21966.51
448.078	22845.09
448.284	21673.65
448.491	22443.69
448.697	23320.22
448.903	23846.55
449.11	23750.29
449.316	23309.98
449.522	23748.25
449.728	24534.67
449.935	24708.74
450.141	24690.31
450.347	25190.02
450.553	24438.41
450.76	24848
450.966	25730.68
451.172	25382.52
451.378	26240.62
451.584	25781.88
451.791	26570.35
451.997	26381.93
452.203	26549.87
452.409	26605.16
452.615	26621.55
452.821	25470.59
453.027	25343.61
453.233	26746.47
453.44	25493.12
453.646	25906.8
453.852	25726.58
454.058	26271.34
454.264	25822.84
454.47	26271.34
454.676	25421.44
454.882	26287.73
455.088	24379.02
455.294	24610.44
455.5	24964.74
455.705	25243.26
455.911	24274.57
456.117	23772.82
456.323	23400.09
456.529	22122.16
456.735	23160.48
456.941	22867.62
457.147	22193.84
457.352	21462.71
457.558	21358.27
457.764	21642.93
457.97	20885.19
458.176	20700.87
458.381	20694.72
458.587	19685.08
458.793	19551.96
458.999	18620.13
459.204	19830.48
459.41	19125.98
459.616	18077.42
459.821	18142.96
460.027	18058.99
460.233	17954.54
460.438	17135.35
460.644	17004.28
460.85	16264.97
461.055	15929.1
461.261	16111.37
461.466	14681.89
461.672	14411.56
461.878	15144.73
462.083	14061.35
462.289	14169.9
462.494	13944.62
462.7	13133.62
462.905	13049.66
463.111	13428.53
463.316	13238.07
463.522	13104.95
463.727	13274.93
463.932	13186.87
464.138	12908.35
464.343	12922.68
464.549	12814.14
464.754	13145.91
464.959	12955.45
465.165	12898.11
465.37	12152.65
465.575	11933.51
465.781	12562.24
465.986	12564.29
466.191	11972.43
466.397	12011.34
466.602	11417.43
466.807	11970.38
467.012	11892.55
467.218	11794.25
467.423	11792.2
467.628	11568.98
467.833	12042.06
468.038	11736.91
468.244	11353.94
468.449	11956.04
468.654	11343.7
468.859	11485.01
469.064	11276.12
469.269	11052.89
469.474	10940.25
469.679	11241.3
469.885	10721.12
470.09	10936.15
470.295	10794.84
470.5	10540.9
470.705	10669.92
470.91	10489.7
471.115	10407.78
471.32	10710.88
471.525	10524.51
471.73	10311.52
471.935	10383.2
472.139	9809.77
472.344	9934.7
472.549	10024.81
472.754	9852.78
472.959	9641.84
473.164	9367.41
473.369	9469.81
473.574	9643.88
473.778	9631.6
473.983	9334.64
474.188	9531.25
474.393	9009.01
474.598	8976.25
474.802	8986.49
475.007	8857.46
475.212	8867.7
475.417	8664.96
475.621	8554.37
475.826	8515.45
476.031	8466.3
476.235	8136.58
476.44	8222.59
476.645	8236.93
476.849	8155.01
477.054	8085.38
477.259	8294.27
477.463	8138.63
477.668	7729.03
477.872	7976.84
478.077	7769.99
478.282	7483.28
478.486	7557
478.691	7514
478.895	7442.32
479.1	7511.95
479.304	7581.58
479.509	7219.09
479.713	7389.07
479.918	7182.23
480.122	7212.95
480.326	7298.96
480.531	7262.1
480.735	7178.13
480.94	7114.64
481.144	7157.65
481.348	6975.38
481.553	7020.44
481.757	6848.41
481.961	7010.2
482.166	7042.96
482.37	7077.78
482.574	6827.93
482.778	7014.29
482.983	7081.88
483.187	6819.74
483.391	6999.96
483.595	6930.33
483.8	6858.65
484.004	6854.55
484.208	7204.75
484.412	6881.17
484.616	6713.24
484.821	6979.48
485.025	6688.67
485.229	6918.04
485.433	6827.93
485.637	6969.24
485.841	6895.51
486.045	6789.02
486.249	6905.75
486.453	6909.85
486.657	6856.6
486.861	7073.68
487.065	6539.16
487.269	7032.72
487.473	6625.18
487.677	6961.05
487.881	6938.52
488.085	6907.8
488.289	6983.57
488.493	6844.31
488.697	6870.94
488.901	6932.37
489.105	6827.93
489.309	6999.96
489.512	6944.66
489.716	7071.64
489.92	7088.02
490.124	6967.19
490.328	7198.61
490.531	6895.51
490.735	7163.79
490.939	7184.27
491.143	7053.2
491.346	7055.25
491.55	7190.42
491.754	7174.03
491.958	7276.43
492.161	7180.18
492.365	7286.67
492.569	7274.39
492.772	7315.34
492.976	7352.21
493.18	7544.72
493.383	7514
493.587	7645.07
493.79	7634.83
493.994	7491.47
494.197	7581.58
494.401	7729.03
494.605	7696.27
494.808	7671.69
495.012	7712.65
495.215	7942.02
495.419	8030.09
495.622	7944.07
495.825	8071.04
496.029	7999.37
496.232	8011.65
496.436	8114.05
496.639	8396.67
496.843	8261.51
497.046	8390.53
497.249	8501.12
497.453	8548.22
497.656	8642.43
497.859	8804.22
498.063	8916.86
498.266	9041.78
498.469	9066.36
498.673	9060.21
498.876	9174.9
499.079	9344.88
499.282	9181.04
499.485	9385.84
499.689	9549.68
499.892	9662.32
500.095	9793.39
500.298	9836.39
500.501	9797.48
500.705	10016.62
500.908	10327.91
501.111	10497.89
501.314	10477.41
501.517	10551.13
501.72	10755.93
501.923	10667.87
502.126	10948.44
502.329	11059.03
502.532	10868.57
502.735	11028.31
502.938	11439.95
503.141	11513.68
503.344	11624.27
503.547	11681.61
503.75	11898.7
503.953	12046.15
504.156	12066.63
504.359	11997
504.562	12558.14
504.765	12375.88
504.968	12441.41
505.17	12756.8
505.373	12726.08
505.576	13324.08
505.779	13180.73
505.982	13356.85
506.185	13492.02
506.387	13432.63
506.59	13840.17
506.793	14038.83
506.996	13715.25
507.198	14108.46
507.401	14296.87
507.604	14401.32
507.807	14655.26
508.009	14941.98
508.212	14905.12
508.415	15032.09
508.617	15169.3
508.82	15204.12
509.022	15359.77
509.225	15693.58
509.428	15861.52
509.63	15830.8
509.833	16047.88
510.035	16387.85
510.238	16185.1
510.44	16807.68
510.643	16883.45
510.845	17004.28
511.048	17075.96
511.25	17125.11
511.453	17133.31
511.655	18050.8
511.858	17676.02
512.06	17923.82
512.262	17911.53
512.465	18169.58
512.667	18259.69
512.87	18654.95
513.072	18548.45
513.274	18910.94
513.477	18990.81
513.679	19089.12
513.881	19320.54
514.084	19812.05
514.286	19511
514.488	19826.39
514.69	20414.15
514.893	20696.77
515.095	20602.57
515.297	20942.53
515.499	20973.25
515.701	21282.49
515.904	21634.74
516.106	21563.06
516.308	21829.3
516.51	21919.41
516.712	21878.45
516.914	22253.23
517.116	22843.04
517.318	22648.49
517.52	22802.08
517.722	22912.67
517.925	23340.7
518.127	23723.67
518.329	23660.18
518.531	23436.95
518.733	24196.75
518.935	24077.97
519.136	24395.4
519.338	24936.07
519.54	24788.61
519.742	25194.11
519.944	25290.37
520.146	25659
520.348	25943.67
520.55	25996.92
520.752	25970.29
520.954	26222.19
521.155	26117.75
521.357	26738.28
521.559	26910.31
521.761	27184.74
521.963	26936.93
522.164	27532.89
522.366	27391.58
522.568	27803.22
522.77	28139.09
522.971	28356.18
523.173	28282.45
523.375	28626.51
523.576	28667.47
523.778	28700.23
523.98	29038.15
524.181	29017.67
524.383	29425.22
524.584	29552.19
524.786	29490.75
524.988	29748.79
525.189	30047.8
525.391	30205.49
525.592	30266.93
525.794	30443.06
525.995	30346.8
526.197	30729.77
526.398	30778.92
526.6	31118.89
526.801	30993.96
527.003	31112.74
527.204	31022.63
527.406	31188.52
527.607	31688.22
527.808	31614.49
528.01	31538.72
528.211	31469.09
528.412	32183.83
528.614	31907.35
528.815	32157.21
529.016	32192.02
529.218	31956.5
529.419	32486.93
529.62	32169.49
529.822	32306.71
530.023	32450.06
530.224	32271.89
530.425	32441.87
530.626	32335.38
530.828	32114.2
531.029	33082.89
531.23	32693.77
531.431	32798.22
531.632	32683.53
531.833	32960.01
532.035	32890.38
532.236	32818.7
532.437	33588.74
532.638	32798.22
532.839	33367.55
533.04	33353.22
533.241	33136.13
533.442	33953.27
533.643	32814.6
533.844	33076.74
534.045	33050.12
534.246	33089.03
534.447	33353.22
534.648	32996.87
534.849	33281.54
535.05	33216.01
535.251	33809.92
535.451	33263.11
535.652	33816.06
535.853	33111.56
536.054	33670.65
536.255	33627.65
536.456	33588.74
536.657	33754.62
536.857	33523.2
537.058	33236.48
537.259	33900.03
537.46	33598.98
537.66	33189.38
537.861	33609.22
538.062	33185.29
538.263	33465.86
538.463	33183.24
538.664	33228.29
538.865	33312.26
539.065	33664.51
539.266	33445.38
539.466	33451.52
539.667	33170.95
539.868	33398.27
540.068	33394.18
540.269	33609.22
540.469	33629.69
540.67	33297.92
540.87	33531.39
541.071	33390.08
541.271	33498.62
541.472	33818.11
541.672	33271.3
541.873	33281.54
542.073	32839.18
542.274	33519.1
542.474	33746.43
542.675	33213.96
542.875	33670.65
543.075	33492.48
543.276	33095.17
543.476	33605.12
543.676	33273.35
543.877	33240.58
544.077	33035.78
544.277	33025.54
544.478	33054.22
544.678	33234.44
544.878	32902.67
545.078	33441.28
545.279	33070.6
545.479	32923.15
545.679	33463.81
545.879	33336.84
546.079	33383.94
546.28	33007.11
546.48	32814.6
546.68	33211.91
546.88	33402.37
547.08	33179.14
547.28	33363.46
547.48	32767.5
547.68	33218.05
547.88	32720.4
548.081	32904.71
548.281	33017.35
548.481	32865.8
548.681	33385.99
548.881	33232.39
549.081	33125.89
549.28	32957.96
549.48	33189.38
549.68	32988.68
549.88	33195.53
550.08	32876.04
550.28	33181.19
550.48	33179.14
550.68	33250.82
550.88	32706.06
551.08	32880.14
551.279	32873.99
551.479	32945.67
551.679	32976.39
551.879	32906.76
552.079	32900.62
552.278	32722.44
552.478	32919.05
552.678	32865.8
552.878	33295.88
553.077	32730.64
553.277	32744.97
553.477	33259.01
553.676	32761.36
553.876	33195.53
554.076	32665.1
554.275	32599.57
554.475	32714.25
554.674	32949.77
554.874	32673.29
555.074	32597.52
555.273	32708.11
555.473	32673.29
555.672	32079.38
555.872	32607.76
556.071	32318.99
556.271	32417.3
556.47	32251.41
556.67	32177.69
556.869	32214.55
557.068	32181.78
557.268	32042.52
557.467	32316.95
557.667	32183.83
557.866	32308.76
558.065	32110.1
558.265	31927.83
558.464	31950.36
558.663	32149.01
558.863	31755.8
559.062	32329.23
559.261	31499.81
559.461	32302.61
559.66	31548.96
559.859	31698.46
560.058	31639.07
560.258	31536.67
560.457	31577.63
560.656	31653.41
560.855	31360.55
561.054	31743.52
561.253	31225.38
561.453	31204.9
561.652	31206.95
561.851	31311.39
562.05	31297.06
562.249	30955.05
562.448	31446.56
562.647	31045.16
562.846	31061.54
563.045	30934.57
563.244	30830.12
563.443	31295.01
563.642	30629.42
563.841	30807.59
564.04	30543.41
564.239	30930.47
564.438	30615.08
564.637	30799.4
564.836	30391.86
565.035	30080.56
565.234	30277.17
565.432	30361.14
565.631	30250.55
565.83	30158.39
566.029	29890.1
566.228	30115.38
566.427	29871.67
566.625	29867.58
566.824	29683.26
567.023	29838.9
567.222	29013.57
567.42	29947.45
567.619	29492.8
567.818	29355.58
568.016	29335.1
568.215	29437.5
568.414	29230.66
568.612	29603.39
568.811	29107.78
569.01	29244.99
569.208	28909.13
569.407	28935.75
569.605	28655.18
569.804	29087.3
570.002	28550.73
570.201	28857.93
570.4	28481.1
570.598	28739.15
570.797	28304.98
570.995	28350.03
571.193	28208.72
571.392	28390.99
571.59	27876.95
571.789	28202.58
571.987	28190.29
572.186	27866.71
572.384	27719.26
572.582	28065.36
572.781	27790.94
572.979	27469.4
573.177	27498.08
573.376	27364.96
573.574	27539.04
573.772	27780.7
573.971	27117.15
574.169	27080.29
574.367	27065.96
574.565	27025
574.763	26967.65
574.962	27176.55
575.16	26394.22
575.358	26820.2
575.556	26584.68
575.754	26928.74
575.952	26504.81
576.151	26760.81
576.349	26136.18
576.547	26408.56
576.745	26228.34
576.943	26267.25
577.141	26156.66
577.339	26134.13
577.537	26029.68
577.735	26214
577.933	25790.07
578.131	26027.63
578.329	25675.38
578.527	25585.27
578.725	25659
578.923	25609.85
579.121	25433.72
579.319	25407.1
579.516	25321.09
579.714	25704.06
579.912	25114.24
580.11	24972.93
580.308	25239.17
580.506	24946.31
580.704	24772.23
580.901	24878.72
581.099	25132.67
581.297	24874.63
581.495	24675.98
581.692	24733.32
581.89	24549
582.088	24778.37
582.285	24372.88
582.483	24630.92
582.681	24481.42
582.878	24215.18
583.076	24030.87
583.274	24270.48
583.471	23830.16
583.669	23922.32
583.866	23946.9
584.064	24000.15
584.262	23447.19
584.459	24043.15
584.657	23645.85
584.854	23592.6
585.052	23279.26
585.249	23410.33
585.447	23594.65
585.644	23203.49
585.841	23393.95
586.039	23375.52
586.236	22826.66
586.434	22920.87
586.631	22927.01
586.828	22929.06
587.026	22824.61
587.223	22929.06
587.42	22662.82
587.618	22871.72
587.815	22591.14
588.012	22511.27
588.21	22367.91
588.407	22658.73
588.604	22529.7
588.801	22406.83
588.999	22103.73
589.196	22351.53
589.393	22544.04
589.59	22204.08
589.787	21991.09
589.984	22003.38
590.182	21589.69
590.379	21898.93
590.576	21692.08
590.773	21839.54
590.97	21558.97
591.167	21728.95
591.364	21335.74
591.561	21540.54
591.758	21311.16
591.955	21415.61
592.152	21526.2
592.349	21169.85
592.546	21479.1
592.743	21092.03
592.94	20911.81
593.137	20926.14
593.334	20967.1
593.531	20594.37
593.727	21227.2
593.924	20934.34
594.121	20573.89
594.318	20797.12
594.515	20299.47
594.712	20745.92
594.908	20408.01
595.105	20416.2
595.302	20225.74
595.499	20389.58
595.696	20401.86
595.892	20123.34
596.089	20131.53
596.286	20391.62
596.482	20092.62
596.679	19902.16
596.876	19881.68
597.072	19793.62
597.269	19683.03
597.466	19678.93
597.662	19631.83
597.859	19754.71
598.055	19488.47
598.252	19105.5
598.448	19654.36
598.645	19445.46
598.841	19162.84
599.038	19467.99
599.234	19156.7
599.431	18984.67
599.627	19205.85
599.824	19283.67
600.02	18910.94
600.217	18949.85
600.413	18726.63
600.609	18878.18
600.806	18474.73
601.002	18812.64
601.198	18378.47
601.395	18347.75
601.591	18474.73
601.787	18403.05
601.984	18331.37
602.18	18542.31
602.376	18173.67
602.572	18161.39
602.769	18394.86
602.965	18173.67
603.161	18020.08
603.357	17733.36
603.553	18050.8
603.75	17585.91
603.946	17700.59
604.142	17884.91
604.338	17671.92
604.534	18011.89
604.73	17493.75
604.926	17344.25
605.122	17475.32
605.318	17563.38
605.514	17278.71
605.71	17166.07
605.906	16938.75
606.102	17383.16
606.298	17092.35
606.494	17096.44
606.69	17213.18
606.886	16940.8
607.082	16854.78
607.278	17078.01
607.474	16654.08
607.67	16768.77
607.866	16592.64
608.062	16946.94
608.257	17239.8
608.453	16922.37
608.649	16803.58
608.845	16604.93
609.041	16789.25
609.236	16604.93
609.432	16590.59
609.628	16402.18
609.824	16271.11
610.019	16449.28
610.215	16391.94
610.411	16584.45
610.606	16275.21
610.802	16428.81
610.998	16299.78
611.193	16240.39
611.389	16178.95
611.584	16121.61
611.78	15927.05
611.976	16320.26
612.171	15994.64
612.367	15867.66
612.562	15861.52
612.758	15605.52
612.953	15781.65
613.149	16051.98
613.344	15669.01
613.539	15972.11
613.735	15769.36
613.93	15726.35
614.126	15566.61
614.321	15632.15
614.517	15595.28
614.712	15849.23
614.907	15390.49
615.103	15603.47
615.298	15531.8
615.493	15695.63
615.688	15353.62
615.884	15718.16
616.079	14962.46
616.274	15413.01
616.47	15316.76
616.665	15251.22
616.86	15568.66
617.055	15273.75
617.25	15058.71
617.445	15038.23
617.641	14991.13
617.836	15011.61
618.031	14864.16
618.226	15058.71
618.421	14792.48
618.616	15136.54
618.811	14810.91
619.006	15032.09
619.201	14626.59
619.396	14593.83
619.591	14313.25
619.786	14688.03
619.981	14346.02
620.176	14516
620.371	14112.55
620.566	14323.49
620.761	14190.38
620.956	14511.91
621.151	14180.14
621.346	14012.2
621.541	13975.34
621.735	14217
621.93	13690.67
622.125	13741.87
622.32	13541.17
622.515	13967.15
622.709	13432.63
622.904	13532.98
623.099	13721.39
623.294	13520.69
623.488	13287.22
623.683	13440.82
623.878	13037.37
624.072	13279.03
624.267	13045.56
624.462	12855.1
624.656	12926.78
624.851	12799.8
625.046	12754.75
625.24	12539.71
625.435	12611.39
625.629	12582.72
625.824	12361.54
626.018	12508.99
626.213	12224.33
626.407	12310.34
626.602	12277.57
626.796	12150.6
626.991	12193.61
627.185	12234.57
627.38	12035.91
627.574	11775.82
627.768	11722.57
627.963	11814.73
628.157	11476.82
628.352	11595.6
628.546	11487.06
628.74	11626.32
628.935	11562.83
629.129	11374.42
629.323	11319.12
629.517	11329.36
629.712	11439.95
629.906	11018.07
630.1	11056.98
630.294	11108.18
630.489	10991.45
630.683	11022.17
630.877	10708.83
631.071	10833.75
631.265	10778.46
631.459	10708.83
631.653	10757.98
631.848	10604.38
632.042	10661.73
632.236	10616.67
632.43	10413.92
632.624	10327.91
632.818	10420.06
633.012	10243.94
633.206	10073.96
633.4	10372.96
633.594	10026.85
633.788	9922.41
633.982	10180.45
634.176	10047.33
634.369	9901.93
634.563	9863.02
634.757	9664.36
634.951	9783.15
635.145	9791.34
635.339	9721.71
635.533	9756.52
635.726	9396.08
635.92	9389.94
636.114	9486.19
636.308	9580.4
636.501	9570.16
636.695	9322.35
636.889	9092.98
637.083	9234.29
637.276	9052.02
637.47	9052.02
637.664	9123.7
637.857	9111.41
638.051	9041.78
638.244	8982.39
638.438	8974.2
638.632	8865.66
638.825	8820.6
639.019	8691.58
639.212	8656.76
639.406	8832.89
639.599	8574.85
639.793	8492.93
639.986	8314.75
640.18	8585.08
640.373	8576.89
640.567	8372.1
640.76	8429.44
640.954	8388.48
641.147	8034.18
641.34	8337.28
641.534	8245.12
641.727	8152.96
641.92	8179.59
642.114	8140.68
642.307	8114.05
642.5	7950.21
642.694	7741.32
642.887	7835.53
643.08	7999.37
643.273	7784.33
643.467	7683.98
643.66	7636.88
643.853	7669.64
644.046	7575.44
644.239	7640.97
644.432	7569.29
644.626	7546.76
644.819	7501.71
645.012	7440.27
645.205	7436.17
645.398	7360.4
645.591	7245.71
645.784	7446.41
645.977	7057.3
646.17	7319.44
646.363	7260.05
646.556	6987.67
646.749	7098.26
646.942	7049.11
647.135	6963.09
647.328	6975.38
647.521	6860.7
647.714	6739.87
647.907	7051.16
648.099	6793.11
648.292	6815.64
648.485	6815.64
648.678	6576.03
648.871	6670.23
649.064	6559.64
649.256	6612.89
649.449	6426.53
649.642	6410.14
649.835	6598.56
650.027	6426.53
650.22	6320.03
650.413	6336.42
650.605	6311.84
650.798	6309.79
650.991	6145.95
651.183	6274.98
651.376	6215.59
651.568	6184.87
651.761	6191.01
651.954	6172.58
652.146	6150.05
652.339	6113.19
652.531	5937.06
652.724	5918.63
652.916	5822.38
653.109	6010.79
653.301	5765.03
653.494	5853.09
653.686	5754.79
653.879	5750.7
654.071	5865.38
654.263	5668.78
654.456	5601.19
654.648	5724.07
654.84	5642.15
655.033	5595.05
655.225	5500.84
655.417	5511.08
655.61	5674.92
655.802	5640.11
655.994	5545.9
656.186	5341.1
656.379	5570.47
656.571	5339.05
656.763	5371.82
656.955	5296.05
657.148	5445.55
657.34	5410.73
657.532	5107.63
657.724	5259.18
657.916	5459.88
658.108	5197.74
658.3	5140.4
658.492	5167.03
658.684	5150.64
658.876	5011.38
659.068	5103.54
659.26	4919.22
659.452	5023.67
659.644	4999.09
659.836	4849.59
660.028	4833.21
660.22	4917.17
660.412	4804.53
660.604	4890.55
660.796	4800.44
660.988	4636.6
661.18	4698.04
661.372	4820.92
661.563	4962.23
661.755	4659.13
661.947	4755.38
662.139	4695.99
662.331	4706.23
662.522	4513.72
662.714	4642.75
662.906	4528.06
663.097	4485.05
663.289	4435.9
663.481	4460.48
663.673	4435.9
663.864	4327.36
664.056	4429.76
664.247	4290.49
664.439	4292.54
664.631	4378.56
664.822	4343.74
665.014	4292.54
665.205	4419.52
665.397	4300.73
665.588	4186.05
665.78	4042.69
665.971	4132.8
666.163	4206.53
666.354	4227.01
666.546	4020.16
666.737	3995.59
666.929	4120.51
667.12	4124.61
667.311	3917.76
667.503	4005.83
667.694	3901.38
667.885	3987.4
668.077	3952.58
668.268	3841.99
668.459	3878.85
668.651	3839.94
668.842	3803.08
669.033	3837.89
669.224	3858.37
669.416	4042.69
669.607	3733.45
669.798	3737.54
669.989	3815.37
670.18	3772.36
670.371	3760.07
670.563	3719.11
670.754	3590.09
670.945	3631.05
671.136	3637.19
671.327	3710.92
671.518	3672.01
671.709	3606.47
671.9	3620.81
672.091	3516.36
672.282	3495.88
672.473	3518.41
672.664	3452.88
672.855	3444.68
673.046	3502.03
673.237	3485.64
673.428	3448.78
673.619	3545.03
673.809	3534.79
674	3391.44
674.191	3358.67
674.382	3422.16
674.573	3440.59
674.764	3338.19
674.954	3319.76
675.145	3348.43
675.336	3280.85
675.527	3319.76
675.717	3397.58
675.908	3276.75
676.099	3317.71
676.289	3342.28
676.48	3250.13
676.671	3274.7
676.861	3196.88
677.052	3190.74
677.243	3172.3
677.433	3194.83
677.624	3174.35
677.814	3135.44
678.005	3094.48
678.195	3061.71
678.386	3194.83
678.576	3084.24
678.767	3129.3
678.957	3084.24
679.148	3170.26
679.338	3112.91
679.529	2998.23
679.719	3012.56
679.909	3166.16
680.1	3018.71
680.29	3086.29
680.481	3033.04
680.671	3047.38
680.861	3078.1
681.052	3010.51
681.242	3080.14
681.432	3088.34
681.622	3008.47
681.813	2998.23
682.003	2912.21
682.193	2969.55
682.383	3024.85
682.573	2987.99
682.764	2889.68
682.954	2938.84
683.144	2906.07
683.334	2912.21
683.524	2887.64
683.714	2899.92
683.904	2887.64
684.094	2838.48
684.284	2867.16
684.474	2873.3
684.664	2742.23
684.854	2826.2
685.044	2904.02
685.234	2856.92
685.424	2772.95
685.614	2838.48
685.804	2822.1
685.994	2660.31
686.184	2912.21
686.374	2736.09
686.564	2662.36
686.753	2676.7
686.943	2766.81
687.133	2594.78
687.323	2742.23
687.513	2588.63
687.702	2668.5
687.892	2674.65
688.082	2668.5
688.272	2688.98
688.461	2676.7
688.651	2697.17
688.841	2611.16
689.03	2744.28
689.22	2555.86
689.41	2682.84
689.599	2547.67
689.789	2562.01
689.979	2557.91
690.168	2654.17
690.358	2578.39
690.547	2543.58
690.737	2588.63
690.926	2549.72
691.116	2480.09
691.305	2439.13
691.495	2541.53
691.684	2623.45
691.874	2535.39
692.063	2461.66
692.252	2420.7
692.442	2488.28
692.631	2389.98
692.82	2379.74
693.01	2414.56
693.199	2412.51
693.388	2355.16
693.578	2543.58
693.767	2469.85
693.956	2361.31
694.146	2316.25
694.335	2416.6
694.524	2291.68
694.713	2463.71
694.902	2273.25
695.092	2447.32
695.281	2242.53
695.47	2273.25
695.659	2408.41
695.848	2263.01
696.037	2400.22
696.226	2336.73
696.415	2289.63
696.604	2318.3
696.793	2250.72
696.982	2338.78
697.171	2295.77
697.36	2336.73
697.549	2316.25
697.738	2265.05
697.927	2185.18
698.116	2187.23
698.305	2242.53
698.494	2291.68
698.683	2195.42
698.872	2215.9
699.061	2275.29
699.25	2148.32
699.438	2283.49
699.627	2127.84
699.816	2205.66
700.005	2140.13
700.193	2156.51
700.382	2113.5
700.571	2220
700.76	2136.03
700.948	2279.39
701.137	2064.35
701.326	2220
701.514	2189.28
701.703	2269.15
701.892	2246.62
702.08	2254.81
702.269	2234.33
702.457	2152.42
702.646	2109.41
702.834	2133.98
703.023	2185.18
703.212	2099.17
703.4	2168.8
703.589	2203.61
703.777	2142.18
703.965	2101.22
704.154	2129.89
704.342	2207.71
704.531	2025.44
704.719	2068.45
704.907	2101.22
705.096	2125.79
705.284	2109.41
705.472	2101.22
705.661	2179.04
705.849	2093.02
706.037	2133.98
706.226	2136.03
706.414	2138.08
706.602	2148.32
706.79	2111.46
706.979	2068.45
707.167	2101.22
707.355	2103.26
707.543	2043.87
707.731	2181.09
707.919	2095.07
708.107	2062.3
708.296	2142.18
708.484	2183.13
708.672	2078.69
708.86	2103.26
709.048	1996.77
709.236	2093.02
709.424	2084.83
709.612	2185.18
709.8	2088.93
709.988	2172.89
710.176	2205.66
710.364	2162.65
710.551	2158.56
710.739	2105.31
710.927	2050.02
711.115	2125.79
711.303	2156.51
711.491	2146.27
711.679	2045.92
711.866	2140.13
712.054	2172.89
712.242	2072.54
712.43	2140.13
712.617	2111.46
712.805	1984.48
712.993	2070.5
713.181	2052.06
713.368	2133.98
713.556	2080.74
713.744	2027.49
713.931	2105.31
714.119	2082.78
714.306	1998.82
714.494	2152.42
714.682	2047.97
714.869	2019.3
715.057	2115.55
715.244	1984.48
715.432	2117.6
715.619	2068.45
715.807	2064.35
715.994	1994.72
716.182	2035.68
716.369	2043.87
716.556	2056.16
716.744	2121.7
716.931	1949.67
717.119	2056.16
717.306	2125.79
717.493	2119.65
717.681	1943.52
717.868	2136.03
718.055	2146.27
718.242	2236.38
718.43	2078.69
718.617	2058.21
718.804	2019.3
718.991	1986.53
719.179	2017.25
719.366	1996.77
719.553	2076.64
719.74	2109.41
719.927	2064.35
720.114	2060.26
720.301	2080.74
720.488	2103.26
720.676	2033.63
720.863	2093.02
721.05	2093.02
721.237	1957.86
721.424	1966.05
721.611	2168.8
721.798	2062.3
721.985	2113.5
722.172	2000.87
722.358	2070.5
722.545	2117.6
722.732	2070.5
722.919	2082.78
723.106	2015.2
723.293	2142.18
723.48	2088.93
723.667	2078.69
723.853	1961.95
724.04	2025.44
724.227	2138.08
724.414	2021.35
724.6	2060.26
724.787	2011.11
724.974	2174.94
725.161	1947.62
725.347	2035.68
725.534	1986.53
725.72	2029.54
725.907	2129.89
726.094	1953.76
726.28	2119.65
726.467	1939.43
726.653	2019.3
726.84	2002.91
727.027	2127.84
727.213	1953.76
727.4	2027.49
727.586	2009.06
727.773	2007.01
727.959	2105.31
728.145	1871.84
728.332	2039.78
728.518	1947.62
728.705	1873.89
728.891	2043.87
729.077	1994.72
729.264	1988.58
729.45	2047.97
729.636	1939.43
729.823	2009.06
730.009	2047.97
730.195	2058.21
730.382	2050.02
730.568	2002.91
730.754	1927.14
730.94	1996.77
731.126	1933.28
731.313	1978.34
731.499	1992.67
731.685	1912.8
731.871	1880.04
732.057	1986.53
732.243	1980.39
732.429	2013.15
732.615	1998.82
732.801	1945.57
732.987	1947.62
733.173	1994.72
733.359	2029.54
733.545	1978.34
733.731	2080.74
733.917	2015.2
734.103	1945.57
734.289	2070.5
734.475	1863.65
734.661	2011.11
734.847	1943.52
735.033	1945.57
735.219	1912.8
735.404	1998.82
735.59	1920.99
735.776	1953.76
735.962	2041.82
736.148	1982.43
736.333	2070.5
736.519	2027.49
736.705	1984.48
736.89	1931.23
737.076	1970.15
737.262	1884.13
737.447	1931.23
737.633	1855.46
737.819	1888.23
738.004	1970.15
738.19	1857.51
738.375	1949.67
738.561	1925.09
738.747	1904.61
738.932	1900.51
739.118	1941.47
739.303	1824.74
739.489	1834.98
739.674	1728.49
739.859	1865.7
740.045	1916.9
740.23	1882.08
740.416	1832.93
740.601	1980.39
740.786	1939.43
740.972	1904.61
741.157	1800.16
741.342	1822.69
741.528	1763.3
741.713	2007.01
741.898	1796.07
742.084	1804.26
742.269	1810.4
742.454	1931.23
742.639	1740.77
742.824	1824.74
743.01	1841.12
743.195	1822.69
743.38	1679.33
743.565	1699.81
743.75	1658.85
743.935	1765.35
744.12	1849.32
744.305	1732.58
744.49	1693.67
744.675	1701.86
744.86	1765.35
745.045	1652.71
745.23	1615.85
745.415	1675.24
745.6	1714.15
745.785	1642.47
745.97	1656.81
746.155	1685.48
746.34	1550.31
746.525	1644.52
746.71	1679.33
746.895	1591.27
747.079	1597.42
747.264	1634.28
747.449	1679.33
747.634	1607.66
747.819	1585.13
748.003	1587.18
748.188	1544.17
748.373	1615.85
748.557	1507.31
748.742	1658.85
748.927	1552.36
749.111	1497.07
749.296	1527.78
749.481	1576.94
749.665	1540.07
749.85	1525.74
750.034	1548.26
750.219	1406.95
750.404	1515.5
750.588	1417.19
750.773	1447.91
750.957	1503.21
751.141	1472.49
751.326	1519.59
751.51	1361.9
751.695	1392.62
751.879	1337.32
752.064	1400.81
752.248	1363.95
752.432	1351.66
752.617	1370.09
752.801	1349.61
752.985	1349.61
753.17	1318.89
753.354	1327.08
753.538	1329.13
753.722	1253.36
753.907	1267.69
754.091	1368.04
754.275	1300.46
754.459	1339.37
754.643	1193.97
754.828	1306.6
755.012	1157.1
755.196	1302.51
755.38	1212.4
755.564	1159.15
755.748	1179.63
755.932	1286.12
756.116	1208.3
756.3	1204.21
756.484	1232.88
756.668	1173.49
756.852	1202.16
757.036	1173.49
757.22	1142.77
757.404	1183.73
757.588	1144.81
757.772	1101.81
757.956	1112.05
758.14	1095.66
758.323	1138.67
758.507	1118.19
758.691	1046.51
758.875	1103.86
759.059	1095.66
759.242	1028.08
759.426	1101.81
759.61	1036.27
759.794	1085.42
759.977	1081.33
760.161	1122.29
760.345	1013.74
760.528	1026.03
760.712	1019.89
760.895	1075.18
761.079	1089.52
761.263	993.26
761.446	946.16
761.63	1007.6
761.813	1056.75
761.997	974.83
762.18	987.12
762.364	1003.5
762.547	952.31
762.731	976.88
762.914	862.19
763.098	909.3
763.281	980.98
763.464	948.21
763.648	935.92
763.831	872.43
764.015	964.59
764.198	907.25
764.381	925.68
764.564	950.26
764.748	958.45
764.931	933.87
765.114	921.59
765.297	942.07
765.481	811
765.664	923.63
765.847	909.3
766.03	931.83
766.213	851.95
766.397	884.72
766.58	964.59
766.763	944.11
766.946	819.19
767.129	837.62
767.312	788.47
767.495	841.72
767.678	776.18
767.861	829.43
768.044	806.9
768.227	782.32
768.41	874.48
768.593	833.52
768.776	794.61
768.959	917.49
769.142	806.9
769.324	786.42
769.507	888.82
769.69	819.19
769.873	899.06
770.056	862.19
770.239	749.56
770.421	808.95
770.604	802.8
770.787	827.38
770.97	794.61
771.152	829.43
771.335	767.99
771.518	684.02
771.7	808.95
771.883	843.76
772.066	774.13
772.248	694.26
772.431	815.09
772.613	757.75
772.796	733.17
772.978	735.22
773.161	690.17
773.343	733.17
773.526	688.12
773.708	688.12
773.891	712.69
774.073	741.36
774.256	724.98
774.438	724.98
774.621	696.31
774.803	813.04
774.985	722.93
775.168	626.68
775.35	770.04
775.532	729.08
775.715	645.11
775.897	659.45
776.079	798.71
776.261	636.92
776.444	634.87
776.626	655.35
776.808	643.06
776.99	679.93
777.173	651.25
777.355	546.81
777.537	643.06
777.719	614.39
777.901	696.31
778.083	628.73
778.265	636.92
778.447	612.34
778.629	536.57
778.811	526.33
778.993	645.11
779.175	626.68
779.357	569.34
779.539	573.43
779.721	595.96
779.903	497.66
780.085	540.66
780.267	544.76
780.449	550.9
780.631	589.81
780.812	528.38
780.994	593.91
781.176	589.81
781.358	532.47
781.54	569.34
781.721	481.27
781.903	573.43
782.085	612.34
782.267	516.09
782.448	372.73
782.63	526.33
782.812	534.52
782.993	538.62
783.175	579.58
783.357	499.7
783.538	481.27
783.72	458.74
783.901	511.99
784.083	471.03
784.264	511.99
784.446	438.27
784.627	464.89
784.809	544.76
784.99	425.98
785.172	495.61
785.353	389.11
785.535	446.46
785.716	399.35
785.897	366.59
786.079	423.93
786.26	446.46
786.441	423.93
786.623	376.83
786.804	380.92
786.985	466.94
787.167	393.21
787.348	397.31
787.529	421.88
787.71	491.51
787.891	378.87
788.073	409.59
788.254	372.73
788.435	442.36
788.616	372.73
788.797	342.01
788.978	350.2
789.159	335.87
789.34	374.78
789.522	333.82
789.703	360.44
789.884	423.93
790.065	366.59
790.246	364.54
790.427	399.35
790.607	487.42
790.788	372.73
790.969	346.11
791.15	366.59
791.331	317.44
791.512	311.29
791.693	362.49
791.874	276.48
792.054	299
792.235	397.31
792.416	360.44
792.597	311.29
792.778	356.35
792.958	352.25
793.139	311.29
793.32	413.69
793.5	223.23
793.681	339.96
793.862	358.39
794.042	258.04
794.223	270.33
794.404	262.14
794.584	264.19
794.765	317.44
794.945	294.91
795.126	356.35
795.306	321.53
795.487	321.53
795.667	268.28
795.848	292.86
796.028	315.39
796.209	202.75
796.389	282.62
796.57	253.95
796.75	219.13
796.93	272.38
797.111	335.87
797.291	264.19
797.471	311.29
797.652	272.38
797.832	266.24
798.012	352.25
798.192	139.26
798.373	303.1
798.553	176.13
798.733	276.48
798.913	262.14
799.093	264.19
799.274	260.09
799.454	327.67
799.634	239.61
799.814	319.48
799.994	274.43
800.174	253.95
800.354	268.28
800.534	174.08
800.714	266.24
800.894	274.43
801.074	243.71
801.254	278.52
801.434	206.84
801.614	249.85
801.794	186.37
801.974	739.32
802.154	204.8
802.334	282.62
802.514	284.67
802.693	206.84
802.873	256
803.053	266.24
803.233	227.32
803.413	190.46
803.592	223.23
803.772	217.08
803.952	186.37
804.131	153.6
804.311	208.89
804.491	251.9
804.67	233.47
804.85	151.55
805.03	208.89
805.209	264.19
805.389	184.32
805.568	124.93
805.748	225.28
805.928	206.84
806.107	124.93
806.287	182.27
806.466	264.19
806.646	237.56
806.825	196.61
807.004	194.56
807.184	208.89
807.363	290.81
807.543	212.99
807.722	204.8
807.901	204.8
808.081	204.8
808.26	133.12
808.439	159.74
808.619	139.26
808.798	241.66
808.977	186.37
809.156	249.85
809.336	161.79
809.515	276.48
809.694	188.41
809.873	176.13
810.052	155.65
810.231	204.8
810.411	202.75
810.59	139.26
810.769	147.45
810.948	159.74
811.127	217.08
811.306	131.07
811.485	139.26
811.664	217.08
811.843	124.93
812.022	243.71
812.201	135.17
812.38	86.01
812.559	114.69
812.737	157.69
812.916	174.08
813.095	137.21
813.274	210.94
813.453	137.21
813.632	137.21
813.811	145.41
813.989	153.6
814.168	217.08
814.347	75.77
814.526	94.21
814.704	178.17
814.883	118.78
815.062	194.56
815.24	194.56
815.419	129.02
815.598	110.59
815.776	129.02
815.955	135.17
816.133	129.02
816.312	190.46
816.49	112.64
816.669	182.27
816.847	180.22
817.026	126.97
817.204	149.5
817.383	141.31
817.561	100.35
817.74	92.16
817.918	243.71
818.097	159.74
818.275	83.97
818.453	159.74
818.632	102.4
818.81	104.45
818.988	131.07
819.167	135.17
819.345	151.55
819.523	118.78
819.701	110.59
819.879	108.54
820.058	204.8
820.236	143.36
820.414	180.22
820.592	108.54
820.77	147.45
820.948	61.44
821.127	34.82
821.305	61.44
821.483	112.64
821.661	180.22
821.839	102.4
822.017	159.74
822.195	204.8
822.373	110.59
822.551	120.83
822.729	139.26
822.907	147.45
823.085	137.21
823.262	112.64
823.44	94.21
823.618	143.36
823.796	98.3
823.974	110.59
824.152	143.36
824.329	126.97
824.507	126.97
824.685	120.83
824.863	114.69
825.04	108.54
825.218	163.84
825.396	98.3
825.574	129.02
825.751	192.51
825.929	112.64
826.107	120.83
826.284	126.97
826.462	176.13
826.639	145.41
826.817	114.69
826.994	108.54
827.172	71.68
827.349	102.4
827.527	167.93
827.704	114.69
827.882	122.88
828.059	86.01
828.237	6.14
828.414	178.17
828.591	26.62
828.769	98.3
828.946	61.44
829.124	59.39
829.301	65.53
829.478	124.93
829.655	135.17
829.833	129.02
830.01	40.96
830.187	163.84
830.364	94.21
830.542	71.68
830.719	110.59
830.896	71.68
831.073	79.87
831.25	102.4
831.427	120.83
831.604	122.88
831.782	141.31
831.959	79.87
832.136	135.17
832.313	131.07
832.49	69.63
832.667	155.65
832.844	92.16
833.021	79.87
833.198	94.21
833.374	178.17
833.551	120.83
833.728	131.07
833.905	88.06
834.082	88.06
834.259	110.59
834.436	165.89
834.612	133.12
834.789	110.59
834.966	73.73
835.143	151.55
835.319	38.91
835.496	106.49
835.673	79.87
835.85	126.97
836.026	49.15
836.203	69.63
836.38	112.64
836.556	63.49
836.733	104.45
836.909	26.62
837.086	77.82
837.262	100.35
837.439	114.69
837.616	102.4
837.792	86.01
837.968	161.79
838.145	59.39
838.321	137.21
838.498	135.17
838.674	126.97
838.851	124.93
839.027	131.07
839.203	43.01
839.38	155.65
839.556	59.39
839.732	194.56
839.909	129.02
840.085	77.82
840.261	14.34
840.437	63.49
840.614	20.48
840.79	63.49
840.966	131.07
841.142	110.59
841.318	30.72
841.494	118.78
841.671	79.87
841.847	40.96
842.023	61.44
842.199	106.49
842.375	165.89
842.551	71.68
842.727	-4.1
842.903	141.31
843.079	126.97
843.255	110.59
843.431	79.87
843.607	77.82
843.783	16.38
843.959	57.34
844.134	59.39
844.31	98.3
844.486	90.11
844.662	59.39
844.838	77.82
845.013	71.68
845.189	40.96
845.365	-20.48
845.541	40.96
845.716	10.24
845.892	100.35
846.068	-8.19
846.244	40.96
846.419	139.26
846.595	-18.43
846.77	22.53
846.946	65.53
847.122	75.77
847.297	24.58
847.473	145.41
847.648	55.3
847.824	49.15
847.999	61.44
848.175	63.49
848.35	77.82
848.526	161.79
848.701	47.1
848.876	90.11
849.052	139.26
849.227	32.77
849.403	34.82
849.578	77.82
849.753	49.15
849.929	28.67
850.104	65.53
850.279	83.97
850.454	2.05
850.63	86.01
850.805	55.3
850.98	10.24
851.155	94.21
851.33	6.14
851.505	10.24
851.681	18.43
851.856	18.43
852.031	24.58
852.206	57.34
852.381	14.34
852.556	-40.96
852.731	-24.58
852.906	38.91
853.081	110.59
853.256	131.07
853.431	12.29
853.606	86.01
853.781	45.06
853.956	38.91
854.131	77.82
854.305	36.86
854.48	20.48
854.655	45.06
854.83	45.06
855.005	86.01
855.18	38.91
855.354	49.15
855.529	151.55
855.704	36.86
855.879	45.06
856.053	16.38
856.228	43.01
856.403	59.39
856.577	53.25
856.752	77.82
856.926	81.92
857.101	45.06
857.276	75.77
857.45	12.29
857.625	16.38
857.799	102.4
857.974	112.64
858.148	73.73
858.323	36.86
858.497	18.43
858.672	32.77
858.846	40.96
859.02	30.72
859.195	4.1
859.369	43.01
859.543	73.73
859.718	86.01
859.892	47.1
860.066	77.82
860.241	59.39
860.415	75.77
860.589	-22.53
860.763	-10.24
860.938	40.96
861.112	36.86
861.286	-36.86
861.46	45.06
861.634	24.58
861.808	161.79
861.982	-2.05
862.157	40.96
862.331	14.34
862.505	61.44
862.679	20.48
862.853	-32.77
863.027	45.06
863.201	96.25
863.375	22.53
863.549	28.67
863.722	0
863.896	102.4
864.07	49.15
864.244	0
864.418	2.05
864.592	38.91
864.766	16.38
864.939	49.15
865.113	36.86
865.287	38.91
865.461	63.49
865.634	0
865.808	-12.29
865.982	30.72
866.156	0
866.329	-12.29
866.503	-4.1
866.676	71.68
866.85	30.72
867.024	49.15
867.197	43.01
867.371	53.25
867.544	22.53
867.718	6.14
867.891	81.92
868.065	47.1
868.238	26.62
868.412	47.1
868.585	22.53
868.759	57.34
868.932	28.67
869.105	69.63
869.279	100.35
869.452	49.15
869.625	108.54
869.799	16.38
869.972	-22.53
870.145	12.29
870.319	77.82
870.492	61.44
870.665	86.01
870.838	43.01
871.011	-36.86
871.185	53.25
871.358	-10.24
871.531	-4.1
871.704	45.06
871.877	79.87
872.05	28.67
872.223	30.72
872.396	10.24
872.569	40.96
872.742	43.01
872.915	28.67
873.088	40.96
873.261	36.86
873.434	34.82
873.607	49.15
873.78	-16.38
873.953	34.82
874.126	6.14
874.299	59.39
874.471	59.39
874.644	18.43
874.817	100.35
874.99	110.59
875.163	-4.1
875.335	14.34
875.508	90.11
875.681	57.34
875.853	-20.48
876.026	22.53
876.199	-12.29
876.371	36.86
876.544	36.86
876.717	12.29
876.889	4.1
877.062	77.82
877.234	-14.34
877.407	34.82
877.579	28.67
877.752	67.58
877.924	-22.53
878.097	18.43
878.269	38.91
878.442	22.53
878.614	22.53
878.786	12.29
878.959	12.29
879.131	61.44
879.303	-24.58
879.476	61.44
879.648	-22.53
879.82	77.82
879.993	26.62
880.165	-16.38
880.337	53.25
880.509	55.3
880.681	-10.24
880.854	55.3
881.026	-24.58
881.198	86.01
881.37	-53.25
881.542	28.67
881.714	4.1
881.886	16.38
882.058	2.05
882.23	10.24
882.402	20.48
882.574	-16.38
882.746	90.11
882.918	49.15
883.09	40.96
883.262	73.73
883.434	36.86
883.606	75.77
883.778	59.39
883.95	47.1
884.122	55.3
884.293	86.01
884.465	-10.24
884.637	12.29
884.809	26.62
884.98	8.19
885.152	-2.05
885.324	20.48
885.496	38.91
885.667	-10.24
885.839	-4.1
886.011	65.53
886.182	-4.1
886.354	-4.1
886.525	38.91
886.697	40.96
886.869	45.06
887.04	-20.48
887.212	34.82
887.383	112.64
887.555	36.86
887.726	38.91
887.897	-10.24
888.069	14.34
888.24	75.77
888.412	106.49
888.583	20.48
888.754	49.15
888.926	32.77
889.097	53.25
889.268	38.91
889.44	59.39
889.611	73.73
889.782	77.82
889.953	4.1
890.125	81.92
890.296	45.06
890.467	49.15
890.638	26.62
890.809	45.06
890.98	61.44
891.151	51.2
891.323	32.77
891.494	-26.62
891.665	22.53
891.836	135.17
892.007	22.53
892.178	-18.43
892.349	12.29
892.52	18.43
892.691	-20.48
892.862	45.06
893.032	61.44
893.203	-10.24
893.374	45.06
893.545	28.67
893.716	12.29
893.887	-55.3
894.057	47.1
894.228	-4.1
894.399	77.82
894.57	-24.58
894.74	-30.72
894.911	53.25
895.082	81.92
895.253	28.67
895.423	8.19
895.594	36.86
895.764	51.2
895.935	-49.15
896.106	47.1
896.276	2.05
896.447	14.34
896.617	-8.19
896.788	61.44
896.958	43.01
897.129	0
897.299	10.24
897.47	22.53
897.64	81.92
897.81	8.19
897.981	-18.43
898.151	94.21
898.322	94.21
898.492	-26.62
898.662	10.24
898.832	59.39
899.003	-57.34
899.173	73.73
899.343	6.14
899.513	-4.1
