Data from USB4F104151__67__13-12-04-616.txt Node

Date: Fri Mar 14 13:12:04 EDT 2025
User: louis
Spectrometer: USB4F10415
Trigger mode: 4
Integration Time (sec): 2.000000E-2
Scans to average: 1
Electric dark correction enabled: true
Nonlinearity correction enabled: false
Boxcar width: 0
XAxis mode: Wavelengths
Number of Pixels in Spectrum: 3648
>>>>>Begin Spectral Data<<<<<
178.204	-93.01
178.424	-93.01
178.644	-93.01
178.864	-86.87
179.084	-99.16
179.304	17.58
179.524	-21.33
179.744	58.54
179.964	13.48
180.184	25.77
180.404	-15.19
180.624	36.01
180.844	-31.57
181.064	-52.05
181.283	25.77
181.503	-43.86
181.723	-13.14
181.943	29.87
182.163	17.58
182.383	-88.92
182.602	50.35
182.822	54.44
183.042	81.07
183.262	27.82
183.482	25.77
183.701	-2.9
183.921	-23.38
184.141	-13.14
184.361	25.77
184.58	-101.2
184.8	36.01
185.02	27.82
185.239	46.25
185.459	-0.85
185.679	103.59
185.898	7.34
186.118	13.48
186.338	66.73
186.557	109.74
186.777	40.11
186.997	-4.95
187.216	74.92
187.436	109.74
187.655	68.78
187.875	72.87
188.095	60.59
188.314	21.67
188.534	87.21
188.753	11.43
188.973	66.73
189.192	81.07
189.412	60.59
189.631	5.29
189.851	21.67
190.07	36.01
190.29	-29.52
190.509	-58.2
190.729	-11.09
190.948	25.77
191.168	25.77
191.387	42.15
191.607	5.29
191.826	9.39
192.045	21.67
192.265	97.45
192.484	64.68
192.704	19.63
192.923	-15.19
193.142	126.12
193.362	46.25
193.581	33.96
193.8	36.01
194.02	11.43
194.239	64.68
194.458	62.63
194.678	66.73
194.897	56.49
195.116	-2.9
195.335	44.2
195.555	17.58
195.774	-54.1
195.993	72.87
196.212	33.96
196.432	3.24
196.651	83.11
196.87	-17.24
197.089	40.11
197.308	111.78
197.528	95.4
197.747	38.06
197.966	33.96
198.185	91.31
198.404	-9.05
198.623	93.35
198.842	52.39
199.062	58.54
199.281	85.16
199.5	48.3
199.719	25.77
199.938	54.44
200.157	87.21
200.376	101.55
200.595	42.15
200.814	44.2
201.033	17.58
201.252	-11.09
201.471	27.82
201.69	-9.05
201.909	54.44
202.128	31.91
202.347	52.39
202.566	38.06
202.785	79.02
203.004	13.48
203.223	105.64
203.442	81.07
203.661	15.53
203.879	-17.24
204.098	21.67
204.317	-11.09
204.536	23.72
204.755	74.92
204.974	-0.85
205.193	3.24
205.411	115.88
205.63	36.01
205.849	52.39
206.068	58.54
206.287	50.35
206.505	21.67
206.724	-15.19
206.943	36.01
207.162	44.2
207.381	83.11
207.599	60.59
207.818	27.82
208.037	46.25
208.255	-35.67
208.474	85.16
208.693	29.87
208.911	115.88
209.13	1.19
209.349	31.91
209.567	-31.57
209.786	25.77
210.005	-66.39
210.223	-4.95
210.442	-31.57
210.661	89.26
210.879	54.44
211.098	23.72
211.316	85.16
211.535	64.68
211.753	-13.14
211.972	11.43
212.191	-25.43
212.409	66.73
212.628	-2.9
212.846	21.67
213.065	-68.44
213.283	124.07
213.502	15.53
213.72	52.39
213.938	23.72
214.157	7.34
214.375	44.2
214.594	29.87
214.812	-37.72
215.031	68.78
215.249	31.91
215.467	-29.52
215.686	15.53
215.904	83.11
216.122	-27.48
216.341	107.69
216.559	38.06
216.778	66.73
216.996	74.92
217.214	54.44
217.432	5.29
217.651	1.19
217.869	23.72
218.087	-27.48
218.306	66.73
218.524	66.73
218.742	74.92
218.96	-4.95
219.179	-11.09
219.397	33.96
219.615	70.83
219.833	-15.19
220.051	21.67
220.27	-13.14
220.488	44.2
220.706	46.25
220.924	72.87
221.142	-23.38
221.36	29.87
221.578	-23.38
221.796	13.48
222.015	3.24
222.233	42.15
222.451	124.07
222.669	60.59
222.887	83.11
223.105	-0.85
223.323	66.73
223.541	1.19
223.759	29.87
223.977	83.11
224.195	5.29
224.413	-0.85
224.631	-4.95
224.849	1.19
225.067	126.12
225.285	3.24
225.503	58.54
225.721	31.91
225.939	58.54
226.157	46.25
226.375	158.89
226.592	-70.48
226.81	-23.38
227.028	58.54
227.246	85.16
227.464	-50
227.682	15.53
227.9	85.16
228.117	25.77
228.335	-27.48
228.553	72.87
228.771	31.91
228.989	33.96
229.206	7.34
229.424	13.48
229.642	-9.05
229.86	29.87
230.077	38.06
230.295	7.34
230.513	48.3
230.731	83.11
230.948	113.83
231.166	38.06
231.384	-50
231.601	33.96
231.819	21.67
232.037	68.78
232.254	-7
232.472	19.63
232.689	50.35
232.907	119.98
233.125	19.63
233.342	87.21
233.56	-2.9
233.777	31.91
233.995	44.2
234.213	25.77
234.43	-13.14
234.648	-0.85
234.865	9.39
235.083	-33.62
235.3	19.63
235.518	99.5
235.735	52.39
235.953	27.82
236.17	25.77
236.388	27.82
236.605	85.16
236.822	-21.33
237.04	-2.9
237.257	68.78
237.475	33.96
237.692	42.15
237.909	40.11
238.127	-17.24
238.344	54.44
238.562	52.39
238.779	48.3
238.996	11.43
239.214	68.78
239.431	109.74
239.648	-2.9
239.865	42.15
240.083	54.44
240.3	11.43
240.517	44.2
240.735	60.59
240.952	76.97
241.169	91.31
241.386	-39.76
241.603	17.58
241.821	27.82
242.038	40.11
242.255	19.63
242.472	27.82
242.689	64.68
242.907	29.87
243.124	-9.05
243.341	42.15
243.558	-2.9
243.775	52.39
243.992	48.3
244.209	85.16
244.426	66.73
244.643	119.98
244.86	83.11
245.078	36.01
245.295	23.72
245.512	83.11
245.729	74.92
245.946	42.15
246.163	91.31
246.38	19.63
246.597	60.59
246.814	15.53
247.031	15.53
247.248	83.11
247.464	70.83
247.681	42.15
247.898	64.68
248.115	31.91
248.332	-27.48
248.549	101.55
248.766	54.44
248.983	60.59
249.2	13.48
249.417	-7
249.633	11.43
249.85	60.59
250.067	52.39
250.284	33.96
250.501	29.87
250.717	23.72
250.934	58.54
251.151	58.54
251.368	-21.33
251.585	-2.9
251.801	-27.48
252.018	91.31
252.235	-21.33
252.451	19.63
252.668	52.39
252.885	50.35
253.102	56.49
253.318	-9.05
253.535	52.39
253.752	-29.52
253.968	79.02
254.185	23.72
254.401	54.44
254.618	50.35
254.835	19.63
255.051	9.39
255.268	56.49
255.484	1.19
255.701	-27.48
255.917	107.69
256.134	-47.96
256.351	38.06
256.567	11.43
256.784	87.21
257	83.11
257.217	36.01
257.433	46.25
257.65	23.72
257.866	33.96
258.082	70.83
258.299	74.92
258.515	17.58
258.732	70.83
258.948	9.39
259.165	-19.29
259.381	31.91
259.597	-7
259.814	11.43
260.03	-66.39
260.246	54.44
260.463	31.91
260.679	52.39
260.895	29.87
261.112	46.25
261.328	15.53
261.544	13.48
261.761	25.77
261.977	-2.9
262.193	-9.05
262.409	13.48
262.626	21.67
262.842	85.16
263.058	-0.85
263.274	60.59
263.49	5.29
263.707	58.54
263.923	-25.43
264.139	-27.48
264.355	-15.19
264.571	111.78
264.787	27.82
265.004	-0.85
265.22	3.24
265.436	101.55
265.652	83.11
265.868	74.92
266.084	50.35
266.3	15.53
266.516	33.96
266.732	13.48
266.948	33.96
267.164	46.25
267.38	40.11
267.596	70.83
267.812	36.01
268.028	58.54
268.244	42.15
268.46	42.15
268.676	33.96
268.892	76.97
269.108	103.59
269.324	62.63
269.54	44.2
269.756	91.31
269.972	-15.19
270.188	31.91
270.403	-4.95
270.619	38.06
270.835	54.44
271.051	13.48
271.267	68.78
271.483	-2.9
271.698	31.91
271.914	44.2
272.13	58.54
272.346	101.55
272.562	42.15
272.777	48.3
272.993	33.96
273.209	36.01
273.425	48.3
273.64	29.87
273.856	74.92
274.072	56.49
274.287	27.82
274.503	68.78
274.719	36.01
274.934	66.73
275.15	-7
275.366	-7
275.581	-29.52
275.797	31.91
276.012	81.07
276.228	50.35
276.444	-43.86
276.659	60.59
276.875	9.39
277.09	-13.14
277.306	58.54
277.521	1.19
277.737	-11.09
277.952	46.25
278.168	-25.43
278.383	103.59
278.599	25.77
278.814	31.91
279.03	17.58
279.245	33.96
279.461	-19.29
279.676	140.46
279.892	9.39
280.107	-25.43
280.322	38.06
280.538	-13.14
280.753	50.35
280.969	13.48
281.184	-19.29
281.399	119.98
281.615	9.39
281.83	52.39
282.045	1.19
282.26	21.67
282.476	72.87
282.691	72.87
282.906	36.01
283.122	17.58
283.337	9.39
283.552	103.59
283.767	-2.9
283.983	62.63
284.198	60.59
284.413	27.82
284.628	-37.72
284.843	85.16
285.058	56.49
285.274	29.87
285.489	-37.72
285.704	52.39
285.919	-21.33
286.134	-13.14
286.349	66.73
286.564	52.39
286.779	56.49
286.995	52.39
287.21	-17.24
287.425	40.11
287.64	-29.52
287.855	89.26
288.07	1.19
288.285	44.2
288.5	-0.85
288.715	11.43
288.93	3.24
289.145	21.67
289.36	21.67
289.575	13.48
289.79	91.31
290.004	13.48
290.219	46.25
290.434	52.39
290.649	13.48
290.864	-11.09
291.079	-41.81
291.294	15.53
291.509	11.43
291.724	25.77
291.938	60.59
292.153	68.78
292.368	27.82
292.583	11.43
292.798	107.69
293.012	-4.95
293.227	31.91
293.442	62.63
293.657	33.96
293.871	33.96
294.086	-7
294.301	76.97
294.516	3.24
294.73	17.58
294.945	3.24
295.16	79.02
295.374	44.2
295.589	44.2
295.804	-66.39
296.018	17.58
296.233	132.26
296.447	31.91
296.662	25.77
296.877	27.82
297.091	79.02
297.306	29.87
297.52	15.53
297.735	89.26
297.949	-13.14
298.164	66.73
298.378	-37.72
298.593	-15.19
298.807	-23.38
299.022	19.63
299.236	70.83
299.451	103.59
299.665	-19.29
299.88	54.44
300.094	46.25
300.309	46.25
300.523	9.39
300.737	1.19
300.952	38.06
301.166	-25.43
301.381	-7
301.595	21.67
301.809	29.87
302.024	101.55
302.238	-7
302.452	68.78
302.667	33.96
302.881	64.68
303.095	76.97
303.309	13.48
303.524	56.49
303.738	99.5
303.952	44.2
304.166	48.3
304.381	44.2
304.595	60.59
304.809	-7
305.023	103.59
305.237	58.54
305.452	60.59
305.666	-19.29
305.88	72.87
306.094	-2.9
306.308	-0.85
306.522	-0.85
306.736	74.92
306.95	-7
307.164	27.82
307.379	-13.14
307.593	25.77
307.807	91.31
308.021	9.39
308.235	87.21
308.449	58.54
308.663	38.06
308.877	99.5
309.091	97.45
309.305	134.31
309.519	46.25
309.733	81.07
309.947	107.69
310.161	76.97
310.374	52.39
310.588	79.02
310.802	13.48
311.016	13.48
311.23	33.96
311.444	7.34
311.658	134.31
311.872	42.15
312.085	115.88
312.299	64.68
312.513	23.72
312.727	5.29
312.941	-2.9
313.154	40.11
313.368	3.24
313.582	19.63
313.796	76.97
314.009	1.19
314.223	-21.33
314.437	81.07
314.651	95.4
314.864	23.72
315.078	56.49
315.292	33.96
315.505	21.67
315.719	60.59
315.933	152.74
316.146	25.77
316.36	44.2
316.573	25.77
316.787	103.59
317.001	70.83
317.214	25.77
317.428	5.29
317.641	11.43
317.855	27.82
318.068	-29.52
318.282	68.78
318.495	21.67
318.709	72.87
318.922	25.77
319.136	38.06
319.349	-17.24
319.563	15.53
319.776	25.77
319.99	23.72
320.203	91.31
320.417	52.39
320.63	117.93
320.843	85.16
321.057	-7
321.27	62.63
321.483	3.24
321.697	87.21
321.91	11.43
322.124	79.02
322.337	115.88
322.55	-39.76
322.763	-7
322.977	42.15
323.19	-7
323.403	36.01
323.617	44.2
323.83	42.15
324.043	42.15
324.256	38.06
324.469	-2.9
324.683	76.97
324.896	-72.53
325.109	7.34
325.322	-25.43
325.535	-29.52
325.748	5.29
325.962	50.35
326.175	97.45
326.388	60.59
326.601	36.01
326.814	58.54
327.027	21.67
327.24	115.88
327.453	42.15
327.666	62.63
327.879	42.15
328.092	91.31
328.305	-2.9
328.518	83.11
328.731	38.06
328.944	44.2
329.157	87.21
329.37	23.72
329.583	13.48
329.796	66.73
330.009	-27.48
330.222	138.41
330.435	5.29
330.648	-4.95
330.861	66.73
331.073	56.49
331.286	66.73
331.499	27.82
331.712	62.63
331.925	66.73
332.138	-29.52
332.35	138.41
332.563	76.97
332.776	5.29
332.989	3.24
333.202	124.07
333.414	1.19
333.627	17.58
333.84	33.96
334.053	66.73
334.265	38.06
334.478	13.48
334.691	54.44
334.903	64.68
335.116	13.48
335.329	33.96
335.541	83.11
335.754	76.97
335.966	17.58
336.179	115.88
336.392	31.91
336.604	-15.19
336.817	91.31
337.029	126.12
337.242	-15.19
337.454	66.73
337.667	36.01
337.88	91.31
338.092	87.21
338.305	66.73
338.517	-29.52
338.729	42.15
338.942	66.73
339.154	36.01
339.367	-7
339.579	89.26
339.792	52.39
340.004	85.16
340.217	46.25
340.429	76.97
340.641	-2.9
340.854	58.54
341.066	40.11
341.278	-23.38
341.491	122.02
341.703	81.07
341.915	38.06
342.128	79.02
342.34	33.96
342.552	-31.57
342.764	58.54
342.977	25.77
343.189	56.49
343.401	38.06
343.613	89.26
343.826	50.35
344.038	-43.86
344.25	40.11
344.462	66.73
344.674	93.35
344.886	-97.11
345.099	111.78
345.311	-0.85
345.523	-23.38
345.735	64.68
345.947	107.69
346.159	56.49
346.371	48.3
346.583	3.24
346.795	119.98
347.007	-7
347.219	9.39
347.431	38.06
347.643	44.2
347.855	42.15
348.067	119.98
348.279	-31.57
348.491	27.82
348.703	42.15
348.915	76.97
349.127	27.82
349.339	85.16
349.551	29.87
349.763	58.54
349.975	93.35
350.187	101.55
350.399	103.59
350.61	19.63
350.822	50.35
351.034	19.63
351.246	21.67
351.458	103.59
351.669	56.49
351.881	119.98
352.093	58.54
352.305	9.39
352.517	109.74
352.728	42.15
352.94	74.92
353.152	-0.85
353.363	103.59
353.575	144.55
353.787	107.69
353.999	76.97
354.21	15.53
354.422	-2.9
354.633	46.25
354.845	68.78
355.057	48.3
355.268	42.15
355.48	13.48
355.692	44.2
355.903	3.24
356.115	46.25
356.326	17.58
356.538	93.35
356.749	31.91
356.961	85.16
357.172	-4.95
357.384	50.35
357.595	60.59
357.807	58.54
358.018	101.55
358.23	76.97
358.441	89.26
358.653	124.07
358.864	48.3
359.075	62.63
359.287	109.74
359.498	66.73
359.709	50.35
359.921	85.16
360.132	-13.14
360.344	107.69
360.555	99.5
360.766	23.72
360.977	3.24
361.189	17.58
361.4	66.73
361.611	79.02
361.823	91.31
362.034	87.21
362.245	11.43
362.456	-23.38
362.667	79.02
362.879	17.58
363.09	-21.33
363.301	38.06
363.512	95.4
363.723	54.44
363.935	27.82
364.146	44.2
364.357	-25.43
364.568	-7
364.779	-21.33
364.99	54.44
365.201	7.34
365.412	76.97
365.623	13.48
365.834	36.01
366.045	50.35
366.256	54.44
366.467	89.26
366.678	29.87
366.889	19.63
367.1	42.15
367.311	95.4
367.522	33.96
367.733	142.5
367.944	85.16
368.155	17.58
368.366	33.96
368.577	89.26
368.788	85.16
368.999	-0.85
369.209	99.5
369.42	42.15
369.631	50.35
369.842	58.54
370.053	58.54
370.264	76.97
370.474	79.02
370.685	54.44
370.896	68.78
371.107	52.39
371.317	31.91
371.528	21.67
371.739	62.63
371.95	15.53
372.16	54.44
372.371	-25.43
372.582	21.67
372.792	17.58
373.003	27.82
373.214	40.11
373.424	62.63
373.635	13.48
373.846	72.87
374.056	3.24
374.267	36.01
374.477	60.59
374.688	-52.05
374.898	23.72
375.109	81.07
375.319	44.2
375.53	136.36
375.74	74.92
375.951	83.11
376.161	66.73
376.372	29.87
376.582	-41.81
376.793	85.16
377.003	19.63
377.214	21.67
377.424	64.68
377.635	-21.33
377.845	15.53
378.055	119.98
378.266	5.29
378.476	-41.81
378.686	3.24
378.897	64.68
379.107	62.63
379.317	27.82
379.528	21.67
379.738	101.55
379.948	81.07
380.158	-7
380.369	-13.14
380.579	136.36
380.789	-2.9
380.999	91.31
381.21	19.63
381.42	126.12
381.63	1.19
381.84	74.92
382.05	25.77
382.261	46.25
382.471	62.63
382.681	107.69
382.891	91.31
383.101	109.74
383.311	29.87
383.521	40.11
383.731	142.5
383.941	27.82
384.151	91.31
384.361	42.15
384.571	19.63
384.781	19.63
384.991	89.26
385.201	62.63
385.411	91.31
385.621	165.03
385.831	62.63
386.041	70.83
386.251	11.43
386.461	68.78
386.671	54.44
386.881	42.15
387.091	85.16
387.301	38.06
387.511	109.74
387.72	9.39
387.93	124.07
388.14	-0.85
388.35	142.5
388.56	1.19
388.769	15.53
388.979	124.07
389.189	70.83
389.399	66.73
389.609	99.5
389.818	66.73
390.028	56.49
390.238	62.63
390.447	42.15
390.657	56.49
390.867	89.26
391.076	66.73
391.286	46.25
391.496	5.29
391.705	17.58
391.915	89.26
392.125	52.39
392.334	15.53
392.544	44.2
392.753	91.31
392.963	-7
393.172	5.29
393.382	50.35
393.591	128.17
393.801	152.74
394.01	27.82
394.22	175.27
394.429	136.36
394.639	42.15
394.848	111.78
395.058	50.35
395.267	68.78
395.477	70.83
395.686	60.59
395.895	193.7
396.105	101.55
396.314	154.79
396.524	66.73
396.733	72.87
396.942	148.65
397.152	85.16
397.361	31.91
397.57	126.12
397.78	81.07
397.989	105.64
398.198	95.4
398.407	119.98
398.617	85.16
398.826	74.92
399.035	60.59
399.244	21.67
399.453	107.69
399.663	181.42
399.872	93.35
400.081	68.78
400.29	150.7
400.499	85.16
400.708	101.55
400.917	76.97
401.127	58.54
401.336	46.25
401.545	130.22
401.754	134.31
401.963	134.31
402.172	27.82
402.381	128.17
402.59	152.74
402.799	21.67
403.008	113.83
403.217	101.55
403.426	74.92
403.635	85.16
403.844	128.17
404.053	136.36
404.262	142.5
404.471	119.98
404.68	95.4
404.888	74.92
405.097	60.59
405.306	76.97
405.515	115.88
405.724	158.89
405.933	179.37
406.142	160.94
406.35	150.7
406.559	150.7
406.768	97.45
406.977	189.61
407.185	222.38
407.394	173.22
407.603	97.45
407.812	242.85
408.02	144.55
408.229	201.9
408.438	179.37
408.646	210.09
408.855	265.38
409.064	85.16
409.272	201.9
409.481	281.77
409.69	296.1
409.898	267.43
410.107	263.33
410.315	216.23
410.524	242.85
410.733	298.15
410.941	306.34
411.15	357.54
411.358	302.25
411.567	378.02
411.775	349.35
411.984	410.79
412.192	361.64
412.401	345.25
412.609	453.8
412.818	437.41
413.026	427.17
413.234	447.65
413.443	459.94
413.651	396.45
413.86	543.91
414.068	543.91
414.276	513.19
414.485	507.04
414.693	535.71
414.901	492.71
415.11	619.68
415.318	629.92
415.526	607.39
415.734	664.74
415.943	697.5
416.151	771.23
416.359	732.32
416.567	781.47
416.776	707.74
416.984	851.1
417.192	781.47
417.4	816.29
417.608	840.86
417.817	849.05
418.025	883.87
418.233	1037.47
418.441	945.31
418.649	949.4
418.857	1072.28
419.065	1062.04
419.273	1146.01
419.481	1041.56
419.689	1264.79
419.897	1242.26
420.105	1389.72
420.313	1418.39
420.521	1289.37
420.729	1402.01
420.937	1569.94
421.145	1586.32
421.353	1625.23
421.561	1664.15
421.769	1660.05
421.977	1776.78
422.185	1733.78
422.393	1920.14
422.601	1825.93
422.809	1926.29
423.017	1922.19
423.224	1989.77
423.432	2079.88
423.64	1987.72
423.848	2380.93
424.056	2331.78
424.263	2442.37
424.471	2458.76
424.679	2559.11
424.887	2518.15
425.094	2643.07
425.302	2851.97
425.51	2835.58
425.718	2837.63
425.925	2851.97
426.133	3060.86
426.341	3302.52
426.548	3308.66
426.756	3425.4
426.964	3345.53
427.171	3644.53
427.379	3716.21
427.586	3794.03
427.794	3822.7
428.001	3902.58
428.209	4185.19
428.417	4062.32
428.624	4523.11
428.832	4416.62
429.039	4367.46
429.247	4482.15
429.454	4719.71
429.662	5055.58
429.869	4703.33
430.076	5080.16
430.284	4867.17
430.491	5342.3
430.699	5463.13
430.906	5442.65
431.114	5653.59
431.321	5792.85
431.528	5755.99
431.736	6169.68
431.943	6511.69
432.15	6335.56
432.358	6239.31
432.565	6589.51
432.772	6767.68
432.979	7185.47
433.187	7300.16
433.394	7185.47
433.601	7779.38
433.808	7791.67
434.016	7736.37
434.223	8008.75
434.43	8533.03
434.637	8381.48
434.844	8889.38
435.052	9102.37
435.259	8956.96
435.466	9028.64
435.673	9073.7
435.88	9604.12
436.087	10107.92
436.294	10142.74
436.501	9788.44
436.708	10177.55
436.915	10454.03
437.122	10920.96
437.329	10855.43
437.537	11088.9
437.743	11412.48
437.95	11142.14
438.157	11899.89
438.364	12489.71
438.571	12182.51
438.778	12346.35
438.985	13609.95
439.192	12932.07
439.399	13497.31
439.606	13069.28
439.813	13937.62
440.02	14646.22
440.227	14398.41
440.433	14547.92
440.64	14545.87
440.847	14746.57
441.054	14937.03
441.261	15639.48
441.467	15633.34
441.674	16118.71
441.881	16495.53
442.088	16642.99
442.294	16399.28
442.501	17034.15
442.708	17179.56
442.914	17888.15
443.121	18744.2
443.328	18013.08
443.534	19530.62
443.741	18998.15
443.948	18813.84
444.154	19901.31
444.361	20034.42
444.568	20185.97
444.774	19880.83
444.981	20226.93
445.187	21015.4
445.394	21730.14
445.6	21506.91
445.807	23315.27
446.013	22670.16
446.22	22905.68
446.426	23835.45
446.633	24144.7
446.839	25041.71
447.046	23860.03
447.252	24959.79
447.459	25148.2
447.665	25119.53
447.871	26565.4
448.078	27523.85
448.284	26061.6
448.491	26739.47
448.697	28119.81
448.903	28027.65
449.11	28637.94
449.316	28216.06
449.522	28476.15
449.728	29371.11
449.935	29229.8
450.141	29813.48
450.347	30083.81
450.553	29262.57
450.76	29616.87
450.966	30931.67
451.172	30434.01
451.378	31324.88
451.584	30661.33
451.791	31597.26
451.997	30982.87
452.203	31750.85
452.409	31795.91
452.615	31572.68
452.821	30329.56
453.027	30159.58
453.233	31462.09
453.44	30784.21
453.646	30997.2
453.852	31220.43
454.058	31519.43
454.264	30517.98
454.47	31056.59
454.676	30665.43
454.882	31894.21
455.088	28560.12
455.294	29207.28
455.5	29500.14
455.705	30067.42
455.911	28670.71
456.117	28533.5
456.323	28146.43
456.529	26452.76
456.735	27896.58
456.941	27331.34
457.147	26673.94
457.352	25701.15
457.558	25649.96
457.764	25754.4
457.97	25361.19
458.176	24658.74
458.381	24789.81
458.587	23690.05
458.793	23739.2
458.999	21969.76
459.204	23753.54
459.41	23141.19
459.616	21629.79
459.821	21695.33
460.027	21468
460.233	21105.51
460.438	20349.81
460.644	20308.85
460.85	19440.51
461.055	19026.82
461.261	19016.58
461.466	17605.53
461.672	17179.56
461.878	18123.67
462.083	17019.81
462.289	16882.6
462.494	16565.17
462.7	15807.42
462.905	15530.94
463.111	16253.87
463.316	15944.63
463.522	15610.81
463.727	15805.37
463.932	15715.26
464.138	15475.65
464.343	15639.48
464.549	14859.21
464.754	15705.02
464.959	15424.45
465.165	15528.89
465.37	14771.15
465.575	14351.31
465.781	14881.74
465.986	15014.85
466.191	14523.34
466.397	14281.68
466.602	13538.27
466.807	13706.2
467.012	14021.59
467.218	13921.24
467.423	13853.66
467.628	13724.63
467.833	14685.13
468.038	13845.46
468.244	13558.75
468.449	14261.2
468.654	13423.58
468.859	13202.4
469.064	13437.92
469.269	12782.57
469.474	12913.64
469.679	13327.33
469.885	12854.25
470.09	12827.62
470.295	12860.39
470.5	12567.53
470.705	12651.5
470.91	12479.47
471.115	12463.08
471.32	12585.96
471.525	12475.37
471.73	12284.91
471.935	12119.03
472.139	11791.35
472.344	11809.78
472.549	11650.04
472.754	11764.73
472.959	11410.43
473.164	11187.2
473.369	10773.51
473.574	11351.04
473.778	11297.79
473.983	11152.38
474.188	11228.16
474.393	10669.06
474.598	10988.55
474.802	10619.91
475.007	10646.54
475.212	10642.44
475.417	9962.51
475.621	10169.36
475.826	10028.05
476.031	10007.57
476.235	9849.88
476.44	10023.95
476.645	9780.25
476.849	9612.31
477.054	9387.04
477.259	9425.95
477.463	9559.06
477.668	9301.02
477.872	9167.9
478.077	9212.96
478.282	8995.87
478.486	8903.71
478.691	8754.21
478.895	8766.5
479.1	8713.25
479.304	8991.78
479.509	8608.81
479.713	8586.28
479.918	8412.2
480.122	8487.98
480.326	8492.07
480.531	8682.53
480.735	8498.22
480.94	8137.77
481.144	8416.3
481.348	8264.75
481.553	8211.5
481.757	8094.77
481.961	8209.45
482.166	8410.15
482.37	8248.36
482.574	8059.95
482.778	8246.32
482.983	8352.81
483.187	8086.58
483.391	8229.93
483.595	8250.41
483.8	8086.58
484.004	8092.72
484.208	8227.89
484.412	8059.95
484.616	8221.74
484.821	8193.07
485.025	8143.92
485.229	8186.93
485.433	8201.26
485.637	8254.51
485.841	7947.31
486.045	8098.86
486.249	8100.91
486.453	8117.29
486.657	8111.15
486.861	8043.57
487.065	7969.84
487.269	8121.39
487.473	8021.04
487.677	8062
487.881	8064.05
488.085	8074.29
488.289	8062
488.493	8078.38
488.697	8172.59
488.901	8135.73
489.105	8070.19
489.309	8029.23
489.512	8283.18
489.716	8131.63
489.92	8199.21
490.124	8145.97
490.328	8299.56
490.531	8322.09
490.735	8283.18
490.939	8330.28
491.143	8387.63
491.346	8358.96
491.55	8330.28
491.754	8598.57
491.958	8383.53
492.161	8444.97
492.365	8580.14
492.569	8442.92
492.772	8563.75
492.976	8635.43
493.18	8571.94
493.383	8870.95
493.587	8721.45
493.79	9020.45
493.994	8651.81
494.197	8854.56
494.401	8909.86
494.605	9036.83
494.808	8952.87
495.012	9169.95
495.215	9100.32
495.419	9172
495.622	9094.18
495.825	9399.32
496.029	9229.34
496.232	9401.37
496.436	9462.81
496.639	9643.03
496.843	9565.21
497.046	9976.85
497.249	9954.32
497.453	9944.08
497.656	10003.47
497.859	10116.11
498.063	10181.65
498.266	10464.27
498.469	10329.1
498.673	10646.54
498.876	10640.39
499.079	10722.31
499.282	10783.75
499.485	11045.89
499.689	11181.06
499.892	11334.65
500.095	11287.55
500.298	11482.11
500.501	11480.06
500.705	11664.38
500.908	11877.37
501.111	11987.96
501.314	12121.07
501.517	12043.25
501.72	12293.1
501.923	12338.16
502.126	12551.15
502.329	12563.43
502.532	12727.27
502.735	12807.14
502.938	13186.02
503.141	13323.23
503.344	13376.48
503.547	13329.38
503.75	13732.83
503.953	13880.28
504.156	13831.13
504.359	13824.98
504.562	14087.12
504.765	14253.01
504.968	14601.16
505.17	14597.07
505.373	14603.21
505.576	14844.87
505.779	15023.05
505.982	15125.44
506.185	15666.11
506.387	15549.37
506.59	15696.83
506.793	16124.85
506.996	15838.14
507.198	16329.65
507.401	16190.39
507.604	16489.39
507.807	16663.47
508.009	16729
508.212	17071.01
508.415	17210.28
508.617	17351.59
508.82	17474.46
509.022	17200.04
509.225	17759.13
509.428	17752.99
509.63	18008.98
509.833	18387.86
510.035	18774.92
510.238	18520.98
510.44	18533.26
510.643	19235.72
510.845	19211.14
511.048	18965.39
511.25	19534.72
511.453	19682.17
511.655	20050.81
511.858	20128.63
512.06	20419.44
512.262	20702.06
512.465	20636.53
512.667	20988.78
512.87	20546.42
513.072	20962.15
513.274	21220.2
513.477	21695.33
513.679	21629.79
513.881	21793.63
514.084	22047.58
514.286	22025.05
514.488	22422.36
514.69	22782.8
514.893	22940.49
515.095	22926.16
515.297	23085.9
515.499	23188.3
515.701	23675.71
515.904	23882.56
516.106	23962.43
516.308	24187.71
516.51	24402.74
516.712	24167.23
516.914	24818.48
517.116	25264.94
517.318	25219.88
517.52	25152.3
517.722	25322.28
517.925	25748.26
518.127	25858.85
518.329	26157.85
518.531	26225.43
518.733	26571.54
518.935	26600.21
519.136	26661.65
519.338	27050.77
519.54	26927.89
519.742	27558.66
519.944	27652.87
520.146	27974.4
520.348	28388.09
520.55	28418.81
520.752	28353.27
520.954	28969.71
521.155	28361.47
521.357	29410.03
521.559	29287.15
521.761	29993.7
521.963	29610.73
522.164	29995.74
522.366	29635.3
522.568	30393.05
522.77	30188.25
522.971	30702.29
523.173	30540.5
523.375	30915.28
523.576	30939.86
523.778	31048.4
523.98	31605.45
524.181	31498.95
524.383	31754.95
524.584	32236.22
524.786	32121.54
524.988	32154.3
525.189	32144.06
525.391	32301.76
525.592	32621.24
525.794	32768.69
525.995	32950.96
526.197	32975.54
526.398	33055.41
526.6	32977.59
526.801	33321.65
527.003	33645.23
527.204	33055.41
527.406	33610.41
527.607	33331.89
527.808	33964.71
528.01	33370.8
528.211	33903.27
528.412	34341.53
528.614	34368.16
528.815	34314.91
529.016	34507.42
529.218	34171.55
529.419	34210.46
529.62	34415.26
529.822	34597.53
530.023	34603.67
530.224	34568.86
530.425	34564.76
530.626	34443.93
530.828	34368.16
531.029	35130
531.23	34470.56
531.431	34806.42
531.632	35058.32
531.833	34874.01
532.035	35058.32
532.236	35183.25
532.437	35074.71
532.638	35025.56
532.839	35383.95
533.04	35445.39
533.241	34828.95
533.442	35134.1
533.643	35091.09
533.844	35289.74
534.045	35234.45
534.246	34714.26
534.447	35248.78
534.648	35134.1
534.849	35039.89
535.05	34914.97
535.251	35009.17
535.451	35342.99
535.652	35332.75
535.853	35142.29
536.054	35586.7
536.255	35256.98
536.456	35293.84
536.657	35488.4
536.857	35416.72
537.058	35357.33
537.259	35773.06
537.46	35236.5
537.66	35207.83
537.861	35439.25
538.062	35263.12
538.263	35527.31
538.463	35402.38
538.664	35322.51
538.865	35218.07
539.065	35508.88
539.266	34896.53
539.466	35201.68
539.667	34706.07
539.868	35879.56
540.068	35248.78
540.269	35187.35
540.469	35347.09
540.67	35418.77
540.87	35517.07
541.071	35052.18
541.271	35328.66
541.472	34833.05
541.672	34949.78
541.873	34966.17
542.073	34775.7
542.274	35504.78
542.474	35187.35
542.675	35369.61
542.875	35371.66
543.075	35066.52
543.276	34822.81
543.476	35613.32
543.676	34929.3
543.877	35328.66
544.077	35111.57
544.277	35179.15
544.478	34697.88
544.678	35103.38
544.878	35216.02
545.078	35017.36
545.279	34841.24
545.479	34675.35
545.679	35089.04
545.879	34976.4
546.079	34849.43
546.28	35271.31
546.48	35074.71
546.68	34947.73
546.88	34955.93
547.08	34892.44
547.28	34921.11
547.48	34302.62
547.68	34599.58
547.88	34603.67
548.081	34896.53
548.281	34833.05
548.481	34615.96
548.681	35207.83
548.881	34701.98
549.081	34642.59
549.28	34747.03
549.48	34931.35
549.68	34751.13
549.88	35095.19
550.08	34839.19
550.28	34804.38
550.48	34734.74
550.68	35158.67
550.88	34609.82
551.08	34601.63
551.279	34874.01
551.479	34351.77
551.679	34671.26
551.879	34462.36
552.079	34808.47
552.278	34656.92
552.478	34654.87
552.678	34474.65
552.878	34357.92
553.077	34368.16
553.277	34394.78
553.477	34771.61
553.676	34357.92
553.876	34538.14
554.076	34378.4
554.275	34495.13
554.475	34106.02
554.674	34493.08
554.874	34212.51
555.074	34384.54
555.273	34149.03
555.473	34175.65
555.672	33788.58
555.872	34017.96
556.071	34171.55
556.271	34427.55
556.47	34185.89
556.67	33729.19
556.869	33831.59
557.068	34108.07
557.268	33727.14
557.467	33821.35
557.667	33706.66
557.866	33882.79
558.065	33913.51
558.265	33598.12
558.464	33677.99
558.663	33895.08
558.863	33374.89
559.062	34136.74
559.261	33325.74
559.461	33618.6
559.66	33309.36
559.859	33321.65
560.058	33213.1
560.258	33243.82
560.457	32729.78
560.656	33854.12
560.855	33069.75
561.054	33368.75
561.253	32803.51
561.453	32989.88
561.652	33278.64
561.851	33333.93
562.05	33401.52
562.249	32955.06
562.448	33047.22
562.647	32946.87
562.846	32598.71
563.045	32836.28
563.244	32639.67
563.443	33147.57
563.642	32398.01
563.841	32662.2
564.04	32232.13
564.239	32473.79
564.438	32379.58
564.637	32543.42
564.836	32500.41
565.035	31967.94
565.234	32236.22
565.432	31951.56
565.631	32119.49
565.83	32105.15
566.029	31740.61
566.228	31804.1
566.427	31619.78
566.625	31718.09
566.824	31603.4
567.023	31636.17
567.222	31245.01
567.42	31847.11
567.619	31335.12
567.818	31525.58
568.016	31083.22
568.215	31331.02
568.414	31296.21
568.612	31576.78
568.811	31136.46
569.01	30997.2
569.208	30735.06
569.407	31335.12
569.605	30667.48
569.804	30984.91
570.002	30919.38
570.201	30622.42
570.4	30507.74
570.598	30268.12
570.797	30304.99
570.995	30313.18
571.193	29987.55
571.392	30225.12
571.59	29942.5
571.789	29862.63
571.987	29999.84
572.186	29958.88
572.384	29778.66
572.582	29674.21
572.781	29987.55
572.979	29661.93
573.177	29608.68
573.376	29983.46
573.574	29614.82
573.772	29827.81
573.971	29258.48
574.169	29199.09
574.367	29033.2
574.565	29315.82
574.763	28982
574.962	29231.85
575.16	28625.65
575.358	28814.07
575.556	28617.46
575.754	28953.33
575.952	28672.76
576.151	28736.24
576.349	28449.53
576.547	28230.4
576.745	28451.58
576.943	28445.43
577.141	28316.41
577.339	28590.84
577.537	28396.28
577.735	28318.46
577.933	27835.14
578.131	27988.74
578.329	27968.26
578.527	27867.91
578.725	27888.39
578.923	27851.52
579.121	27960.06
579.319	27595.53
579.516	27853.57
579.714	27458.31
579.912	27435.78
580.11	27593.48
580.308	27435.78
580.506	27093.77
580.704	26985.23
580.901	27269.9
581.099	27263.75
581.297	26825.49
581.495	26735.38
581.692	27185.93
581.89	26841.87
582.088	26759.95
582.285	27022.09
582.483	26755.86
582.681	26712.85
582.878	26645.27
583.076	26164
583.274	26753.81
583.471	26071.84
583.669	26225.43
583.866	25762.59
584.064	26362.65
584.262	25987.87
584.459	26243.87
584.657	25957.15
584.854	26172.19
585.052	25486.12
585.249	26016.54
585.447	25672.48
585.644	25590.56
585.841	25686.82
586.039	25793.31
586.236	25230.12
586.434	25094.96
586.631	24853.3
586.828	25436.97
587.026	25199.4
587.223	25121.58
587.42	25037.61
587.618	25221.93
587.815	24761.14
588.012	24691.51
588.21	24795.95
588.407	25058.09
588.604	24566.58
588.801	24560.44
588.999	24359.73
589.196	24580.92
589.393	24488.76
589.59	24261.43
589.787	24314.68
589.984	23960.38
590.182	23946.05
590.379	24535.86
590.576	24077.12
590.773	23925.57
590.97	23907.13
591.167	23857.98
591.364	23536.45
591.561	23448.39
591.758	23475.01
591.955	23372.61
592.152	23673.67
592.349	23333.7
592.546	23233.35
592.743	23452.48
592.94	23194.44
593.137	23405.38
593.334	23094.09
593.531	23094.09
593.727	23003.98
593.924	22635.35
594.121	22731.6
594.318	22803.28
594.515	22231.9
594.712	22799.18
594.908	22692.69
595.105	22485.84
595.302	22235.99
595.499	22309.72
595.696	22514.52
595.892	21916.51
596.089	22408.02
596.286	22076.25
596.482	22037.34
596.679	22227.8
596.876	22305.62
597.072	21893.98
597.269	21990.24
597.466	21793.63
597.662	21601.12
597.859	21664.61
598.055	21388.13
598.252	21197.67
598.448	21306.21
598.645	21314.41
598.841	21082.98
599.038	21111.66
599.234	21443.43
599.431	21066.6
599.627	20835.18
599.824	21136.23
600.02	20792.17
600.217	21068.65
600.413	20677.49
600.609	20702.06
600.806	20687.73
601.002	20657.01
601.198	20452.21
601.395	20439.92
601.591	20331.38
601.787	20540.27
601.984	20335.48
602.18	20466.55
602.376	19981.18
602.572	20349.81
602.769	20194.17
602.965	20159.35
603.161	20056.95
603.357	19862.4
603.553	19800.96
603.75	19788.67
603.946	19745.66
604.142	19760
604.338	19397.51
604.534	19762.05
604.73	19440.51
604.926	19147.65
605.122	19395.46
605.318	19268.48
605.514	19307.4
605.71	18992.01
605.906	19252.1
606.102	18994.06
606.298	19149.7
606.494	19231.62
606.69	19176.33
606.886	19350.4
607.082	18752.4
607.278	19135.37
607.474	18715.53
607.67	18926.47
607.866	18705.29
608.062	18834.32
608.257	18836.36
608.453	18508.69
608.649	18367.38
608.845	18322.32
609.041	18705.29
609.236	18424.72
609.432	18316.18
609.628	18176.92
609.824	18432.91
610.019	18385.81
610.215	18125.72
610.411	18342.8
610.606	17916.83
610.802	18224.02
610.998	18123.67
611.193	18336.66
611.389	17798.04
611.584	17845.15
611.78	17830.81
611.976	18021.27
612.171	18252.69
612.367	17869.72
612.562	17959.83
612.758	17685.4
612.953	17683.36
613.149	17755.04
613.344	17628.06
613.539	17886.11
613.735	17613.73
613.93	17652.64
614.126	17609.63
614.321	17548.19
614.517	17451.94
614.712	17488.8
614.907	17398.69
615.103	17470.37
615.298	17419.17
615.493	17540
615.688	17349.54
615.884	17349.54
616.079	16884.65
616.274	17101.73
616.47	17257.38
616.665	17154.98
616.86	17169.32
617.055	17132.45
617.25	17077.16
617.445	17019.81
617.641	16548.78
617.836	17202.08
618.031	16810.92
618.226	16866.22
618.421	16862.12
618.616	16847.79
618.811	16655.28
619.006	16802.73
619.201	16434.1
619.396	16458.67
619.591	16407.47
619.786	16438.19
619.981	16110.52
620.176	16239.54
620.371	15870.9
620.566	16184.24
620.761	16049.08
620.956	15954.87
621.151	15838.14
621.346	16114.61
621.541	15713.21
621.735	15774.65
621.93	15440.83
622.125	15449.02
622.32	15260.61
622.515	15479.74
622.709	15229.89
622.904	15430.59
623.099	15137.73
623.294	15199.17
623.488	15033.29
623.683	15135.68
623.878	14726.09
624.072	14715.85
624.267	14879.69
624.462	14511.05
624.656	14488.53
624.851	14713.8
625.046	14476.24
625.24	14316.5
625.435	14181.33
625.629	14216.15
625.824	14171.09
626.018	14091.22
626.213	14105.56
626.407	13908.95
626.602	13911
626.796	14017.49
626.991	13655
627.185	13708.25
627.38	13665.24
627.574	13255.65
627.768	13331.42
627.963	13298.66
628.157	13183.97
628.352	13177.83
628.546	13061.09
628.74	13036.52
628.935	12792.81
629.129	12870.63
629.323	12813.29
629.517	12739.56
629.712	12690.41
629.906	12620.78
630.1	12422.13
630.294	12555.24
630.489	12354.54
630.683	12262.38
630.877	11883.51
631.071	12076.02
631.265	12086.26
631.459	12280.82
631.653	11908.08
631.848	12069.87
632.042	11824.12
632.236	11957.24
632.43	11840.5
632.624	11822.07
632.818	11736.06
633.012	11578.36
633.206	11412.48
633.4	11557.88
633.594	11445.24
633.788	11555.83
633.982	11482.11
634.176	11287.55
634.369	11285.5
634.563	11154.43
634.757	11080.71
634.951	11078.66
635.145	11111.43
635.339	11064.32
635.533	10753.03
635.726	10912.77
635.92	10472.46
636.114	10906.63
636.308	10769.41
636.501	10660.87
636.695	10470.41
636.889	10476.55
637.083	10359.82
637.276	10353.68
637.47	10406.92
637.664	10232.85
637.857	10349.58
638.051	10155.02
638.244	9919.51
638.438	10017.81
638.632	10128.4
638.825	9944.08
639.019	9864.21
639.212	9919.51
639.406	9800.73
639.599	9542.68
639.793	9860.12
639.986	9540.63
640.18	9636.89
640.373	9589.78
640.567	9546.78
640.76	9434.14
640.954	9548.82
641.147	9315.36
641.34	9368.6
641.534	9094.18
641.727	9272.35
641.92	9378.84
642.114	9085.98
642.307	8909.86
642.5	9059.36
642.694	8795.17
642.887	8963.11
643.08	8784.93
643.273	8803.36
643.467	8776.74
643.66	8873
643.853	8647.72
644.046	8635.43
644.239	8604.71
644.432	8565.8
644.626	8465.45
644.819	8508.46
645.012	8479.79
645.205	8586.28
645.398	8510.5
645.591	8234.03
645.784	8447.02
645.977	8285.23
646.17	8250.41
646.363	8168.49
646.556	7930.93
646.749	8090.67
646.942	8148.01
647.135	7859.25
647.328	7928.88
647.521	7963.7
647.714	7906.35
647.907	7943.22
648.099	7775.28
648.292	7732.28
648.485	7599.16
648.678	7597.11
648.871	7525.43
649.064	7420.99
649.256	7603.25
649.449	7547.96
649.642	7486.52
649.835	7463.99
650.027	7328.83
650.22	7334.97
650.413	7244.86
650.605	7324.73
650.798	7226.43
650.991	7154.75
651.183	7042.11
651.376	7089.21
651.568	6978.62
651.761	7056.45
651.954	6945.86
652.146	6896.71
652.339	6966.34
652.531	7021.63
652.724	6827.07
652.916	6798.4
653.109	6708.29
653.301	6663.24
653.494	6917.19
653.686	6532.17
653.879	6544.45
654.071	6679.62
654.263	6595.65
654.456	6657.09
654.648	6478.92
654.84	6313.03
655.033	6480.97
655.225	6489.16
655.417	6472.78
655.61	6243.4
655.802	6157.39
655.994	6251.6
656.186	6308.94
656.379	6169.68
656.571	6169.68
656.763	6263.88
656.955	6171.72
657.148	6241.36
657.34	6050.89
657.532	5887.06
657.724	6167.63
657.916	5899.34
658.108	5874.77
658.3	5893.2
658.492	5878.86
658.684	5819.47
658.876	5907.54
659.068	5708.88
659.26	5694.55
659.452	5852.24
659.644	5686.36
659.836	5665.88
660.028	5702.74
660.22	5663.83
660.412	5608.53
660.604	5551.19
660.796	5450.84
660.988	5465.18
661.18	5413.98
661.372	5303.39
661.563	5350.49
661.755	5467.22
661.947	5256.28
662.139	5321.82
662.331	5237.85
662.522	5133.4
662.714	5254.23
662.906	5268.57
663.097	5194.84
663.289	5203.04
663.481	5096.54
663.673	5069.92
663.864	4961.37
664.056	5106.78
664.247	5033.05
664.439	4879.46
664.631	4881.5
664.822	4965.47
665.014	5037.15
665.205	4924.51
665.397	4865.12
665.588	4914.27
665.78	4824.16
665.971	4740.19
666.163	4801.63
666.354	4686.95
666.546	4844.64
666.737	4678.76
666.929	4607.08
667.12	4664.42
667.311	4629.6
667.503	4547.69
667.694	4621.41
667.885	4537.45
668.077	4596.84
668.268	4492.39
668.459	4389.99
668.651	4465.77
668.842	4437.09
669.033	4435.05
669.224	4473.96
669.416	4377.7
669.607	4336.74
669.798	4265.07
669.989	4484.2
670.18	4400.23
670.371	4447.33
670.563	4283.5
670.754	4355.18
670.945	4144.24
671.136	4084.84
671.327	4238.44
671.518	4209.77
671.709	4125.8
671.9	4220.01
672.091	3931.25
672.282	4002.93
672.473	4123.76
672.664	4011.12
672.855	4041.84
673.046	3941.49
673.237	3916.91
673.428	4078.7
673.619	3834.99
673.809	3953.77
674	3957.87
674.191	3869.81
674.382	3916.91
674.573	3818.61
674.764	3701.87
674.954	3964.01
675.145	3857.52
675.336	3878
675.527	3888.24
675.717	3787.89
675.908	3662.96
676.099	3759.22
676.289	3712.11
676.48	3609.72
676.671	3669.11
676.861	3615.86
677.052	3585.14
677.243	3697.78
677.433	3714.16
677.624	3609.72
677.814	3648.63
678.005	3576.95
678.195	3587.19
678.386	3550.32
678.576	3579
678.767	3476.6
678.957	3544.18
679.148	3507.32
679.338	3632.24
679.529	3486.84
679.719	3449.97
679.909	3531.89
680.1	3525.75
680.29	3417.21
680.481	3404.92
680.671	3474.55
680.861	3409.01
681.052	3392.63
681.242	3425.4
681.432	3355.77
681.622	3449.97
681.813	3300.47
682.003	3359.86
682.193	3308.66
682.383	3439.73
682.573	3368.06
682.764	3290.23
682.954	3288.18
683.144	3384.44
683.334	3320.95
683.524	3204.22
683.714	3253.37
683.904	3204.22
684.094	3255.42
684.284	3204.22
684.474	3142.78
684.664	3126.39
684.854	3206.27
685.044	3101.82
685.234	3001.47
685.424	3042.43
685.614	3140.73
685.804	3089.53
685.994	3077.24
686.184	3071.1
686.374	2999.42
686.564	3167.35
686.753	3101.82
686.943	3091.58
687.133	3116.16
687.323	2925.69
687.513	3019.9
687.702	3009.66
687.892	2985.09
688.082	2923.65
688.272	2950.27
688.461	3040.38
688.651	2989.18
688.841	2882.69
689.03	3024
689.22	2944.13
689.41	2964.61
689.599	2806.91
689.789	2847.87
689.979	2901.12
690.168	2808.96
690.358	2823.3
690.547	2829.44
690.737	2753.66
690.926	2757.76
691.116	2681.99
691.305	2776.19
691.495	2808.96
691.684	2608.26
691.874	2755.71
692.063	2681.99
692.252	2657.41
692.442	2667.65
692.631	2733.18
692.82	2587.78
693.01	2649.22
693.199	2643.07
693.388	2606.21
693.578	2540.68
693.767	2595.97
693.956	2522.24
694.146	2579.59
694.335	2526.34
694.524	2661.51
694.713	2544.77
694.902	2495.62
695.092	2591.88
695.281	2462.85
695.47	2389.13
695.659	2587.78
695.848	2395.27
696.037	2444.42
696.226	2450.57
696.415	2438.28
696.604	2362.5
696.793	2475.14
696.982	2405.51
697.171	2362.5
697.36	2483.33
697.549	2344.07
697.738	2458.76
697.927	2391.17
698.116	2507.91
698.305	2299.02
698.494	2366.6
698.683	2333.83
698.872	2335.88
699.061	2223.24
699.25	2374.79
699.438	2253.96
699.627	2469
699.816	2446.47
700.005	2313.35
700.193	2288.78
700.382	2266.25
700.571	2180.23
700.76	2208.9
700.948	2229.38
701.137	2327.69
701.326	2296.97
701.514	2192.52
701.703	2253.96
701.892	2299.02
702.08	2307.21
702.269	2329.74
702.457	2059.4
702.646	2225.29
702.834	2167.95
703.023	2239.62
703.212	2243.72
703.4	2315.4
703.589	2266.25
703.777	2180.23
703.965	2165.9
704.154	2129.03
704.342	2241.67
704.531	2155.66
704.719	2071.69
704.907	2126.99
705.096	2126.99
705.284	2032.78
705.472	2155.66
705.661	2106.51
705.849	2163.85
706.037	2149.51
706.226	2223.24
706.414	2215.05
706.602	2049.16
706.79	2155.66
706.979	2204.81
707.167	2180.23
707.355	2077.83
707.543	2137.23
707.731	2274.44
707.919	2239.62
708.107	2086.03
708.296	2151.56
708.484	2159.75
708.672	2186.38
708.86	2098.31
709.048	2204.81
709.236	2045.07
709.424	2049.16
709.612	2163.85
709.8	2129.03
709.988	2071.69
710.176	2131.08
710.364	2239.62
710.551	2196.62
710.739	2225.29
710.927	2096.27
711.115	2169.99
711.303	2131.08
711.491	2034.83
711.679	1961.1
711.866	2063.5
712.054	2253.96
712.242	2182.28
712.43	2178.19
712.617	2106.51
712.805	2100.36
712.993	2180.23
713.181	2104.46
713.368	2106.51
713.556	2151.56
713.744	2118.79
713.931	2139.27
714.119	2073.74
714.306	2094.22
714.494	2184.33
714.682	2118.79
714.869	2174.09
715.057	2153.61
715.244	2131.08
715.432	2114.7
715.619	2192.52
715.807	2059.4
715.994	2155.66
716.182	2055.31
716.369	2122.89
716.556	2139.27
716.744	2180.23
716.931	2067.6
717.119	2131.08
717.306	2131.08
717.493	2012.3
717.681	2196.62
717.868	2157.71
718.055	2088.07
718.242	2116.75
718.43	2159.75
718.617	2100.36
718.804	2088.07
718.991	2071.69
719.179	2210.95
719.366	2202.76
719.553	2141.32
719.74	2040.97
719.927	2118.79
720.114	2034.83
720.301	2184.33
720.488	2159.75
720.676	2004.11
720.863	2116.75
721.05	2077.83
721.237	2165.9
721.424	2096.27
721.611	2135.18
721.798	2004.11
721.985	2086.03
722.172	2053.26
722.358	2018.44
722.545	2143.37
722.732	2157.71
722.919	2184.33
723.106	2149.51
723.293	2202.76
723.48	2069.64
723.667	2057.36
723.853	2172.04
724.04	2153.61
724.227	2118.79
724.414	2045.07
724.6	2186.38
724.787	2135.18
724.974	2178.19
725.161	2124.94
725.347	2135.18
725.534	2151.56
725.72	2090.12
725.907	2165.9
726.094	2213
726.28	2210.95
726.467	2196.62
726.653	2108.55
726.84	2260.1
727.027	2065.55
727.213	2067.6
727.4	2169.99
727.586	2120.84
727.773	2249.86
727.959	2161.8
728.145	2217.1
728.332	2137.23
728.518	2122.89
728.705	2194.57
728.891	2075.79
729.077	2073.74
729.264	2102.41
729.45	2090.12
729.636	2176.14
729.823	2034.83
730.009	2251.91
730.195	2141.32
730.382	2114.7
730.568	2106.51
730.754	2098.31
730.94	2081.93
731.126	2147.47
731.313	2139.27
731.499	2149.51
731.685	2145.42
731.871	2169.99
732.057	2090.12
732.243	2106.51
732.429	2153.61
732.615	2190.47
732.801	2163.85
732.987	2092.17
733.173	2106.51
733.359	2163.85
733.545	2155.66
733.731	2159.75
733.917	2206.86
734.103	2073.74
734.289	2098.31
734.475	2073.74
734.661	2196.62
734.847	2051.21
735.033	2106.51
735.219	2131.08
735.404	2178.19
735.59	2196.62
735.776	2075.79
735.962	2028.68
736.148	2018.44
736.333	2083.98
736.519	2036.88
736.705	2069.64
736.89	2139.27
737.076	2124.94
737.262	2126.99
737.447	2081.93
737.633	2100.36
737.819	2047.12
738.004	2077.83
738.19	2108.55
738.375	2153.61
738.561	2036.88
738.747	2008.2
738.932	2067.6
739.118	2126.99
739.303	1995.92
739.489	2114.7
739.674	2081.93
739.859	2016.4
740.045	2081.93
740.23	1975.44
740.416	2010.25
740.601	2186.38
740.786	1993.87
740.972	1905.81
741.157	2102.41
741.342	2036.88
741.528	1885.33
741.713	1997.96
741.898	1975.44
742.084	1967.24
742.269	1975.44
742.454	2065.55
742.639	2030.73
742.824	1918.09
743.01	2010.25
743.195	1903.76
743.38	1930.38
743.565	1909.9
743.75	1891.47
743.935	1934.48
744.12	1873.04
744.305	1944.72
744.49	1854.61
744.675	1870.99
744.86	1905.81
745.045	1950.86
745.23	1911.95
745.415	1897.61
745.6	1895.57
745.785	1848.46
745.97	1907.85
746.155	1862.8
746.34	1801.36
746.525	1793.17
746.71	1770.64
746.895	1791.12
747.079	1719.44
747.264	1797.26
747.449	1735.82
747.634	1696.91
747.819	1731.73
748.003	1637.52
748.188	1780.88
748.373	1674.39
748.557	1676.43
748.742	1725.58
748.927	1731.73
749.111	1653.91
749.296	1713.3
749.481	1666.19
749.665	1545.36
749.85	1623.19
750.034	1475.73
750.219	1559.7
750.404	1578.13
750.588	1647.76
750.773	1586.32
750.957	1629.33
751.141	1571.99
751.326	1635.47
751.51	1451.16
751.695	1590.42
751.879	1541.27
752.064	1621.14
752.248	1555.6
752.432	1645.71
752.617	1635.47
752.801	1604.75
752.985	1471.64
753.17	1498.26
753.354	1518.74
753.538	1541.27
753.722	1301.65
753.907	1432.72
754.091	1496.21
754.275	1402.01
754.459	1453.2
754.643	1387.67
754.828	1377.43
755.012	1496.21
755.196	1295.51
755.38	1352.85
755.564	1330.33
755.748	1379.48
755.932	1295.51
756.116	1346.71
756.3	1277.08
756.484	1311.89
756.668	1322.13
756.852	1295.51
757.036	1238.17
757.22	1266.84
757.404	1295.51
757.588	1270.94
757.772	1193.11
757.956	1205.4
758.14	1197.21
758.323	1213.59
758.507	1127.58
758.691	1223.83
758.875	1258.65
759.059	1143.96
759.242	1172.63
759.426	1135.77
759.61	1168.54
759.794	1156.25
759.977	1191.06
760.161	1193.11
760.345	1238.17
760.528	1127.58
760.712	1180.82
760.895	1168.54
761.079	1074.33
761.263	1103
761.446	1100.95
761.63	1141.91
761.813	1131.67
761.997	1070.23
762.18	1000.6
762.364	1125.53
762.547	1012.89
762.731	1084.57
762.914	1111.19
763.098	1033.37
763.281	1064.09
763.464	1121.43
763.648	998.56
763.831	1107.1
764.015	1098.91
764.198	1084.57
764.381	1059.99
764.564	951.45
764.748	978.08
764.931	1002.65
765.114	973.98
765.297	1084.57
765.481	994.46
765.664	1012.89
765.847	928.92
766.03	1082.52
766.213	908.44
766.397	1037.47
766.58	969.88
766.763	1004.7
766.946	984.22
767.129	986.27
767.312	1000.6
767.495	928.92
767.678	961.69
767.861	1000.6
768.044	922.78
768.227	992.41
768.41	906.4
768.593	965.79
768.776	994.46
768.959	926.88
769.142	986.27
769.324	924.83
769.507	804
769.69	926.88
769.873	806.05
770.056	910.49
770.239	906.4
770.421	937.12
770.604	1004.7
770.787	834.72
770.97	865.44
771.152	887.97
771.335	869.53
771.518	795.81
771.7	840.86
771.883	849.05
772.066	824.48
772.248	869.53
772.431	842.91
772.613	810.14
772.796	885.92
772.978	844.96
773.161	791.71
773.343	871.58
773.526	820.38
773.708	795.81
773.891	720.03
774.073	771.23
774.256	738.46
774.438	820.38
774.621	758.94
774.803	797.85
774.985	771.23
775.168	814.24
775.35	787.61
775.532	769.18
775.715	738.46
775.897	746.66
776.079	730.27
776.261	773.28
776.444	765.09
776.626	660.64
776.808	722.08
776.99	631.97
777.173	677.02
777.355	681.12
777.537	765.09
777.719	783.52
777.901	709.79
778.083	730.27
778.265	650.4
778.447	738.46
778.629	576.67
778.811	732.32
778.993	736.42
779.175	642.21
779.357	584.87
779.539	691.36
779.721	654.5
779.903	640.16
780.085	572.58
780.267	636.06
780.449	687.26
780.631	562.34
780.812	664.74
780.994	607.39
781.176	650.4
781.358	656.54
781.54	631.97
781.721	531.62
781.903	550.05
782.085	498.85
782.267	517.28
782.448	543.91
782.63	543.91
782.812	566.43
782.993	525.47
783.175	484.52
783.357	523.43
783.538	519.33
783.72	476.32
783.901	558.24
784.083	529.57
784.264	595.11
784.446	441.51
784.627	511.14
784.809	478.37
784.99	468.13
785.172	504.99
785.353	519.33
785.535	504.99
785.716	447.65
785.897	392.36
786.079	601.25
786.26	502.95
786.441	402.6
786.623	414.88
786.804	373.92
786.985	468.13
787.167	439.46
787.348	445.6
787.529	455.84
787.71	490.66
787.891	437.41
788.073	339.11
788.254	394.4
788.435	435.36
788.616	441.51
788.797	294.05
788.978	363.69
789.159	414.88
789.34	421.03
789.522	431.27
789.703	371.88
789.884	388.26
790.065	369.83
790.246	441.51
790.427	388.26
790.607	363.69
790.788	439.46
790.969	318.63
791.15	363.69
791.331	375.97
791.512	425.12
791.693	246.95
791.874	369.83
792.054	382.12
792.235	392.36
792.416	388.26
792.597	273.57
792.778	343.21
792.958	369.83
793.139	281.77
793.32	388.26
793.5	390.31
793.681	322.73
793.862	345.25
794.042	308.39
794.223	339.11
794.404	394.4
794.584	400.55
794.765	330.92
794.945	337.06
795.126	281.77
795.306	294.05
795.487	302.25
795.667	271.53
795.848	251.05
796.028	285.86
796.209	281.77
796.389	322.73
796.57	267.43
796.75	306.34
796.93	281.77
797.111	326.82
797.291	328.87
797.471	320.68
797.652	308.39
797.832	197.8
798.012	279.72
798.192	244.9
798.373	257.19
798.553	275.62
798.733	339.11
798.913	242.85
799.093	275.62
799.274	347.3
799.454	263.33
799.634	158.89
799.814	179.37
799.994	263.33
800.174	249
800.354	228.52
800.534	234.66
800.714	294.05
800.894	234.66
801.074	238.76
801.254	304.29
801.434	224.42
801.614	308.39
801.794	205.99
801.974	730.27
802.154	175.27
802.334	242.85
802.514	259.24
802.693	208.04
802.873	222.38
803.053	244.9
803.233	205.99
803.413	255.14
803.592	230.57
803.772	267.43
803.952	220.33
804.131	175.27
804.311	226.47
804.491	232.62
804.67	255.14
804.85	249
805.03	304.29
805.209	220.33
805.389	183.46
805.568	218.28
805.748	242.85
805.928	171.18
806.107	173.22
806.287	197.8
806.466	273.57
806.646	152.74
806.825	158.89
807.004	246.95
807.184	261.29
807.363	296.1
807.543	228.52
807.722	216.23
807.901	203.94
808.081	191.66
808.26	154.79
808.439	218.28
808.619	210.09
808.798	154.79
808.977	165.03
809.156	191.66
809.336	222.38
809.515	238.76
809.694	175.27
809.873	197.8
810.052	165.03
810.231	226.47
810.411	249
810.59	238.76
810.769	109.74
810.948	228.52
811.127	122.02
811.306	167.08
811.485	162.98
811.664	205.99
811.843	181.42
812.022	191.66
812.201	240.81
812.38	150.7
812.559	208.04
812.737	179.37
812.916	146.6
813.095	103.59
813.274	165.03
813.453	144.55
813.632	173.22
813.811	197.8
813.989	72.87
814.168	203.94
814.347	107.69
814.526	124.07
814.704	165.03
814.883	181.42
815.062	89.26
815.24	226.47
815.419	152.74
815.598	173.22
815.776	134.31
815.955	140.46
816.133	122.02
816.312	85.16
816.49	126.12
816.669	138.41
816.847	148.65
817.026	115.88
817.204	136.36
817.383	181.42
817.561	152.74
817.74	193.7
817.918	134.31
818.097	142.5
818.275	140.46
818.453	124.07
818.632	160.94
818.81	105.64
818.988	117.93
819.167	115.88
819.345	124.07
819.523	115.88
819.701	126.12
819.879	244.9
820.058	187.56
820.236	140.46
820.414	152.74
820.592	119.98
820.77	109.74
820.948	169.13
821.127	105.64
821.305	169.13
821.483	169.13
821.661	148.65
821.839	111.78
822.017	54.44
822.195	152.74
822.373	150.7
822.551	128.17
822.729	177.32
822.907	56.49
823.085	91.31
823.262	109.74
823.44	156.84
823.618	50.35
823.796	140.46
823.974	158.89
824.152	83.11
824.329	130.22
824.507	58.54
824.685	101.55
824.863	148.65
825.04	117.93
825.218	165.03
825.396	122.02
825.574	62.63
825.751	48.3
825.929	154.79
826.107	56.49
826.284	99.5
826.462	117.93
826.639	117.93
826.817	136.36
826.994	154.79
827.172	68.78
827.349	62.63
827.527	66.73
827.704	83.11
827.882	40.11
828.059	136.36
828.237	58.54
828.414	130.22
828.591	7.34
828.769	154.79
828.946	50.35
829.124	126.12
829.301	40.11
829.478	117.93
829.655	115.88
829.833	117.93
830.01	15.53
830.187	-21.33
830.364	54.44
830.542	89.26
830.719	148.65
830.896	109.74
831.073	132.26
831.25	119.98
831.427	89.26
831.604	119.98
831.782	93.35
831.959	85.16
832.136	46.25
832.313	95.4
832.49	83.11
832.667	91.31
832.844	79.02
833.021	85.16
833.198	81.07
833.374	54.44
833.551	119.98
833.728	68.78
833.905	93.35
834.082	95.4
834.259	101.55
834.436	105.64
834.612	40.11
834.789	-7
834.966	70.83
835.143	95.4
835.319	23.72
835.496	36.01
835.673	103.59
835.85	64.68
836.026	50.35
836.203	58.54
836.38	99.5
836.556	91.31
836.733	126.12
836.909	156.84
837.086	83.11
837.262	64.68
837.439	62.63
837.616	60.59
837.792	85.16
837.968	85.16
838.145	60.59
838.321	97.45
838.498	66.73
838.674	109.74
838.851	83.11
839.027	44.2
839.203	74.92
839.38	95.4
839.556	72.87
839.732	83.11
839.909	66.73
840.085	130.22
840.261	66.73
840.437	83.11
840.614	44.2
840.79	107.69
840.966	36.01
841.142	144.55
841.318	91.31
841.494	93.35
841.671	76.97
841.847	42.15
842.023	9.39
842.199	124.07
842.375	103.59
842.551	-23.38
842.727	27.82
842.903	52.39
843.079	81.07
843.255	50.35
843.431	130.22
843.607	72.87
843.783	31.91
843.959	52.39
844.134	-27.48
844.31	60.59
844.486	3.24
844.662	33.96
844.838	60.59
845.013	124.07
845.189	99.5
845.365	29.87
845.541	66.73
845.716	79.02
845.892	91.31
846.068	42.15
846.244	60.59
846.419	89.26
846.595	66.73
846.77	72.87
846.946	64.68
847.122	122.02
847.297	17.58
847.473	66.73
847.648	29.87
847.824	36.01
847.999	-15.19
848.175	85.16
848.35	-64.34
848.526	54.44
848.701	91.31
848.876	113.83
849.052	85.16
849.227	95.4
849.403	58.54
849.578	42.15
849.753	-39.76
849.929	31.91
850.104	17.58
850.279	56.49
850.454	70.83
850.63	79.02
850.805	74.92
850.98	-4.95
851.155	25.77
851.33	50.35
851.505	-7
851.681	76.97
851.856	101.55
852.031	58.54
852.206	113.83
852.381	25.77
852.556	93.35
852.731	60.59
852.906	15.53
853.081	-13.14
853.256	33.96
853.431	29.87
853.606	21.67
853.781	29.87
853.956	68.78
854.131	72.87
854.305	13.48
854.48	56.49
854.655	9.39
854.83	52.39
855.005	42.15
855.18	79.02
855.354	31.91
855.529	44.2
855.704	19.63
855.879	40.11
856.053	-15.19
856.228	66.73
856.403	-19.29
856.577	-7
856.752	31.91
856.926	38.06
857.101	27.82
857.276	38.06
857.45	31.91
857.625	44.2
857.799	25.77
857.974	54.44
858.148	33.96
858.323	-7
858.497	9.39
858.672	13.48
858.846	11.43
859.02	66.73
859.195	23.72
859.369	1.19
859.543	62.63
859.718	70.83
859.892	68.78
860.066	66.73
860.241	-0.85
860.415	13.48
860.589	83.11
860.763	40.11
860.938	9.39
861.112	66.73
861.286	-2.9
861.46	-33.62
861.634	64.68
861.808	76.97
861.982	11.43
862.157	107.69
862.331	-11.09
862.505	38.06
862.679	21.67
862.853	60.59
863.027	3.24
863.201	83.11
863.375	-43.86
863.549	15.53
863.722	-7
863.896	83.11
864.07	-41.81
864.244	25.77
864.418	68.78
864.592	-11.09
864.766	3.24
864.939	33.96
865.113	60.59
865.287	138.41
865.461	-9.05
865.634	70.83
865.808	-35.67
865.982	-9.05
866.156	9.39
866.329	36.01
866.503	-64.34
866.676	56.49
866.85	11.43
867.024	-7
867.197	-2.9
867.371	-0.85
867.544	42.15
867.718	109.74
867.891	76.97
868.065	42.15
868.238	3.24
868.412	1.19
868.585	23.72
868.759	-11.09
868.932	44.2
869.105	5.29
869.279	-62.29
869.452	81.07
869.625	17.58
869.799	-4.95
869.972	46.25
870.145	11.43
870.319	54.44
870.492	52.39
870.665	64.68
870.838	-39.76
871.011	1.19
871.185	-47.96
871.358	-7
871.531	68.78
871.704	40.11
871.877	68.78
872.05	3.24
872.223	-23.38
872.396	91.31
872.569	31.91
872.742	-27.48
872.915	42.15
873.088	1.19
873.261	76.97
873.434	-17.24
873.607	33.96
873.78	-7
873.953	-7
874.126	15.53
874.299	40.11
874.471	9.39
874.644	89.26
874.817	46.25
874.99	-15.19
875.163	-0.85
875.335	33.96
875.508	44.2
875.681	91.31
875.853	17.58
876.026	25.77
876.199	91.31
876.371	25.77
876.544	-7
876.717	7.34
876.889	-7
877.062	52.39
877.234	13.48
877.407	-23.38
877.579	72.87
877.752	11.43
877.924	13.48
878.097	-37.72
878.269	1.19
878.442	31.91
878.614	-17.24
878.786	7.34
878.959	-31.57
879.131	25.77
879.303	9.39
879.476	99.5
879.648	33.96
879.82	29.87
879.993	-27.48
880.165	87.21
880.337	62.63
880.509	83.11
880.681	9.39
880.854	40.11
881.026	19.63
881.198	29.87
881.37	-35.67
881.542	-21.33
881.714	29.87
881.886	29.87
882.058	-9.05
882.23	111.78
882.402	23.72
882.574	-0.85
882.746	-25.43
882.918	66.73
883.09	79.02
883.262	33.96
883.434	38.06
883.606	27.82
883.778	-9.05
883.95	-2.9
884.122	72.87
884.293	52.39
884.465	5.29
884.637	54.44
884.809	31.91
884.98	76.97
885.152	15.53
885.324	5.29
885.496	-13.14
885.667	17.58
885.839	-13.14
886.011	11.43
886.182	27.82
886.354	3.24
886.525	9.39
886.697	58.54
886.869	-15.19
887.04	15.53
887.212	54.44
887.383	60.59
887.555	62.63
887.726	-35.67
887.897	23.72
888.069	23.72
888.24	64.68
888.412	44.2
888.583	-25.43
888.754	13.48
888.926	5.29
889.097	33.96
889.268	36.01
889.44	46.25
889.611	38.06
889.782	-15.19
889.953	-11.09
890.125	62.63
890.296	-39.76
890.467	-0.85
890.638	25.77
890.809	25.77
890.98	44.2
891.151	21.67
891.323	27.82
891.494	33.96
891.665	13.48
891.836	17.58
892.007	46.25
892.178	29.87
892.349	46.25
892.52	60.59
892.691	9.39
892.862	27.82
893.032	-25.43
893.203	25.77
893.374	87.21
893.545	54.44
893.716	-52.05
893.887	44.2
894.057	-4.95
894.228	25.77
894.399	54.44
894.57	9.39
894.74	-37.72
894.911	52.39
895.082	17.58
895.253	58.54
895.423	21.67
895.594	60.59
895.764	44.2
895.935	11.43
896.106	42.15
896.276	3.24
896.447	-56.15
896.617	-45.91
896.788	-60.24
896.958	3.24
897.129	-23.38
897.299	-0.85
897.47	-11.09
897.64	11.43
897.81	31.91
897.981	-60.24
898.151	21.67
898.322	103.59
898.492	42.15
898.662	-4.95
898.832	-21.33
899.003	-17.24
899.173	54.44
899.343	5.29
899.513	29.87
