Data from USB4F104151__64__13-12-03-596.txt Node

Date: Fri Mar 14 13:12:03 EDT 2025
User: louis
Spectrometer: USB4F10415
Trigger mode: 4
Integration Time (sec): 2.000000E-2
Scans to average: 1
Electric dark correction enabled: true
Nonlinearity correction enabled: false
Boxcar width: 0
XAxis mode: Wavelengths
Number of Pixels in Spectrum: 3648
>>>>>Begin Spectral Data<<<<<
178.204	-137.38
178.424	-137.38
178.644	-137.38
178.864	-94.38
179.084	-2.22
179.304	-0.17
179.524	20.31
179.744	30.55
179.964	22.36
180.184	30.55
180.404	32.6
180.624	-63.66
180.844	-18.6
181.064	20.31
181.283	20.31
181.503	-55.47
181.723	-39.08
181.943	-45.23
182.163	89.94
182.383	-2.22
182.602	18.26
182.822	32.6
183.042	16.21
183.262	20.31
183.482	-20.65
183.701	20.31
183.921	38.74
184.141	65.36
184.361	63.32
184.58	-4.27
184.8	24.4
185.02	16.21
185.239	28.5
185.459	63.32
185.679	18.26
185.898	-4.27
186.118	85.84
186.338	16.21
186.557	53.08
186.777	30.55
186.997	42.84
187.216	-37.03
187.436	8.02
187.655	10.07
187.875	-32.94
188.095	-4.27
188.314	102.23
188.534	110.42
188.753	22.36
188.973	38.74
189.192	20.31
189.412	26.45
189.631	20.31
189.851	57.17
190.07	108.37
190.29	1.88
190.509	20.31
190.729	5.97
190.948	83.8
191.168	149.33
191.387	73.56
191.607	-26.79
191.826	3.93
192.045	36.69
192.265	-28.84
192.484	36.69
192.704	-51.37
192.923	40.79
193.142	124.76
193.362	-57.51
193.581	46.93
193.8	5.97
194.02	16.21
194.239	-67.75
194.458	1.88
194.678	28.5
194.897	28.5
195.116	38.74
195.335	36.69
195.555	32.6
195.774	5.97
195.993	14.17
196.212	-59.56
196.432	-18.6
196.651	28.5
196.87	-43.18
197.089	44.88
197.308	79.7
197.528	85.84
197.747	30.55
197.966	44.88
198.185	55.12
198.404	55.12
198.623	44.88
198.842	26.45
199.062	67.41
199.281	69.46
199.5	18.26
199.719	24.4
199.938	8.02
200.157	-6.31
200.376	73.56
200.595	16.21
200.814	51.03
201.033	53.08
201.252	36.69
201.471	57.17
201.69	5.97
201.909	-26.79
202.128	20.31
202.347	53.08
202.566	65.36
202.785	12.12
203.004	32.6
203.223	87.89
203.442	3.93
203.661	75.6
203.879	46.93
204.098	83.8
204.317	-24.75
204.536	77.65
204.755	55.12
204.974	-20.65
205.193	26.45
205.411	83.8
205.63	-4.27
205.849	71.51
206.068	30.55
206.287	-26.79
206.505	61.27
206.724	-55.47
206.943	-2.22
207.162	61.27
207.381	22.36
207.599	65.36
207.818	-57.51
208.037	-57.51
208.255	-24.75
208.474	65.36
208.693	10.07
208.911	61.27
209.13	32.6
209.349	77.65
209.567	81.75
209.786	77.65
210.005	40.79
210.223	48.98
210.442	18.26
210.661	79.7
210.879	18.26
211.098	63.32
211.316	5.97
211.535	69.46
211.753	73.56
211.972	20.31
212.191	12.12
212.409	71.51
212.628	30.55
212.846	51.03
213.065	89.94
213.283	65.36
213.502	3.93
213.72	-2.22
213.938	44.88
214.157	14.17
214.375	42.84
214.594	44.88
214.812	16.21
215.031	-8.36
215.249	10.07
215.467	98.13
215.686	42.84
215.904	77.65
216.122	-49.32
216.341	1.88
216.559	1.88
216.778	57.17
216.996	73.56
217.214	-18.6
217.432	-39.08
217.651	40.79
217.869	-8.36
218.087	1.88
218.306	61.27
218.524	48.98
218.742	-37.03
218.96	14.17
219.179	53.08
219.397	-22.7
219.615	85.84
219.833	-20.65
220.051	-16.55
220.27	73.56
220.488	48.98
220.706	53.08
220.924	22.36
221.142	-24.75
221.36	30.55
221.578	-4.27
221.796	12.12
222.015	118.61
222.233	77.65
222.451	79.7
222.669	22.36
222.887	24.4
223.105	59.22
223.323	18.26
223.541	-8.36
223.759	57.17
223.977	16.21
224.195	61.27
224.413	53.08
224.631	24.4
224.849	-51.37
225.067	100.18
225.285	12.12
225.503	38.74
225.721	30.55
225.939	-20.65
226.157	40.79
226.375	79.7
226.592	-116.9
226.81	69.46
227.028	22.36
227.246	69.46
227.464	100.18
227.682	100.18
227.9	44.88
228.117	59.22
228.335	83.8
228.553	53.08
228.771	81.75
228.989	53.08
229.206	36.69
229.424	36.69
229.642	53.08
229.86	-34.99
230.077	102.23
230.295	51.03
230.513	53.08
230.731	59.22
230.948	26.45
231.166	87.89
231.384	-20.65
231.601	-32.94
231.819	81.75
232.037	-12.46
232.254	36.69
232.472	16.21
232.689	108.37
232.907	16.21
233.125	-2.22
233.342	12.12
233.56	-49.32
233.777	36.69
233.995	-26.79
234.213	44.88
234.43	40.79
234.648	8.02
234.865	3.93
235.083	26.45
235.3	18.26
235.518	-32.94
235.735	89.94
235.953	48.98
236.17	24.4
236.388	30.55
236.605	-41.13
236.822	22.36
237.04	40.79
237.257	-26.79
237.475	102.23
237.692	44.88
237.909	79.7
238.127	-16.55
238.344	-24.75
238.562	77.65
238.779	3.93
238.996	-51.37
239.214	44.88
239.431	40.79
239.648	55.12
239.865	63.32
240.083	67.41
240.3	28.5
240.517	87.89
240.735	100.18
240.952	143.19
241.169	73.56
241.386	8.02
241.603	36.69
241.821	-37.03
242.038	28.5
242.255	40.79
242.472	-26.79
242.689	71.51
242.907	20.31
243.124	-18.6
243.341	63.32
243.558	-2.22
243.775	-10.41
243.992	10.07
244.209	16.21
244.426	81.75
244.643	38.74
244.86	16.21
245.078	46.93
245.295	36.69
245.512	77.65
245.729	3.93
245.946	32.6
246.163	69.46
246.38	-4.27
246.597	36.69
246.814	3.93
247.031	22.36
247.248	22.36
247.464	34.64
247.681	26.45
247.898	16.21
248.115	-37.03
248.332	-18.6
248.549	30.55
248.766	-4.27
248.983	114.52
249.2	75.6
249.417	65.36
249.633	42.84
249.85	30.55
250.067	53.08
250.284	55.12
250.501	44.88
250.717	36.69
250.934	-26.79
251.151	5.97
251.368	22.36
251.585	61.27
251.801	51.03
252.018	26.45
252.235	8.02
252.451	53.08
252.668	20.31
252.885	34.64
253.102	22.36
253.318	83.8
253.535	44.88
253.752	32.6
253.968	-26.79
254.185	-28.84
254.401	87.89
254.618	-2.22
254.835	12.12
255.051	110.42
255.268	71.51
255.484	51.03
255.701	32.6
255.917	77.65
256.134	5.97
256.351	30.55
256.567	46.93
256.784	-34.99
257	-20.65
257.217	71.51
257.433	38.74
257.65	44.88
257.866	38.74
258.082	59.22
258.299	-0.17
258.515	-4.27
258.732	38.74
258.948	57.17
259.165	16.21
259.381	5.97
259.597	14.17
259.814	18.26
260.03	-37.03
260.246	3.93
260.463	1.88
260.679	63.32
260.895	48.98
261.112	-0.17
261.328	14.17
261.544	20.31
261.761	114.52
261.977	8.02
262.193	24.4
262.409	-69.8
262.626	38.74
262.842	63.32
263.058	-26.79
263.274	67.41
263.49	48.98
263.707	36.69
263.923	36.69
264.139	-49.32
264.355	32.6
264.571	46.93
264.787	34.64
265.004	30.55
265.22	16.21
265.436	48.98
265.652	12.12
265.868	-4.27
266.084	-57.51
266.3	32.6
266.516	-18.6
266.732	-10.41
266.948	-6.31
267.164	38.74
267.38	100.18
267.596	28.5
267.812	61.27
268.028	67.41
268.244	16.21
268.46	30.55
268.676	94.04
268.892	73.56
269.108	3.93
269.324	32.6
269.54	22.36
269.756	102.23
269.972	-59.56
270.188	-47.27
270.403	73.56
270.619	30.55
270.835	24.4
271.051	-20.65
271.267	-16.55
271.483	14.17
271.698	53.08
271.914	69.46
272.13	51.03
272.346	100.18
272.562	-16.55
272.777	38.74
272.993	-45.23
273.209	-32.94
273.425	57.17
273.64	71.51
273.856	94.04
274.072	73.56
274.287	-4.27
274.503	-8.36
274.719	36.69
274.934	-22.7
275.15	-69.8
275.366	-26.79
275.581	-39.08
275.797	1.88
276.012	-37.03
276.228	26.45
276.444	40.79
276.659	44.88
276.875	94.04
277.09	22.36
277.306	42.84
277.521	59.22
277.737	55.12
277.952	94.04
278.168	14.17
278.383	89.94
278.599	32.6
278.814	24.4
279.03	87.89
279.245	73.56
279.461	14.17
279.676	57.17
279.892	12.12
280.107	34.64
280.322	14.17
280.538	94.04
280.753	10.07
280.969	55.12
281.184	-16.55
281.399	126.8
281.615	-2.22
281.83	40.79
282.045	38.74
282.26	-6.31
282.476	-39.08
282.691	-6.31
282.906	32.6
283.122	36.69
283.337	40.79
283.552	44.88
283.767	36.69
283.983	-2.22
284.198	-18.6
284.413	30.55
284.628	-10.41
284.843	89.94
285.058	-0.17
285.274	69.46
285.489	12.12
285.704	53.08
285.919	-18.6
286.134	20.31
286.349	30.55
286.564	79.7
286.779	46.93
286.995	65.36
287.21	46.93
287.425	63.32
287.64	-0.17
287.855	48.98
288.07	20.31
288.285	-6.31
288.5	3.93
288.715	34.64
288.93	-10.41
289.145	57.17
289.36	-0.17
289.575	30.55
289.79	89.94
290.004	24.4
290.219	75.6
290.434	10.07
290.649	-4.27
290.864	22.36
291.079	-4.27
291.294	71.51
291.509	-8.36
291.724	22.36
291.938	48.98
292.153	69.46
292.368	-12.46
292.583	57.17
292.798	18.26
293.012	79.7
293.227	135
293.442	-37.03
293.657	24.4
293.871	46.93
294.086	-16.55
294.301	65.36
294.516	57.17
294.73	-10.41
294.945	-32.94
295.16	-16.55
295.374	85.84
295.589	24.4
295.804	20.31
296.018	36.69
296.233	59.22
296.447	63.32
296.662	-14.51
296.877	48.98
297.091	96.08
297.306	44.88
297.52	-24.75
297.735	10.07
297.949	24.4
298.164	94.04
298.378	100.18
298.593	26.45
298.807	-2.22
299.022	-2.22
299.236	55.12
299.451	24.4
299.665	18.26
299.88	57.17
300.094	55.12
300.309	-2.22
300.523	18.26
300.737	79.7
300.952	8.02
301.166	79.7
301.381	20.31
301.595	8.02
301.809	-8.36
302.024	53.08
302.238	48.98
302.452	18.26
302.667	-18.6
302.881	81.75
303.095	85.84
303.309	46.93
303.524	85.84
303.738	20.31
303.952	28.5
304.166	20.31
304.381	-123.05
304.595	104.28
304.809	28.5
305.023	130.9
305.237	1.88
305.452	51.03
305.666	48.98
305.88	61.27
306.094	57.17
306.308	102.23
306.522	22.36
306.736	87.89
306.95	10.07
307.164	85.84
307.379	1.88
307.593	102.23
307.807	71.51
308.021	69.46
308.235	12.12
308.449	28.5
308.663	30.55
308.877	32.6
309.091	-14.51
309.305	65.36
309.519	-20.65
309.733	61.27
309.947	-34.99
310.161	-45.23
310.374	16.21
310.588	67.41
310.802	30.55
311.016	53.08
311.23	3.93
311.444	-10.41
311.658	12.12
311.872	73.56
312.085	32.6
312.299	110.42
312.513	34.64
312.727	8.02
312.941	1.88
313.154	-4.27
313.368	65.36
313.582	26.45
313.796	61.27
314.009	38.74
314.223	28.5
314.437	65.36
314.651	-4.27
314.864	12.12
315.078	28.5
315.292	18.26
315.505	20.31
315.719	38.74
315.933	110.42
316.146	3.93
316.36	-12.46
316.573	81.75
316.787	-4.27
317.001	32.6
317.214	-26.79
317.428	-2.22
317.641	10.07
317.855	30.55
318.068	57.17
318.282	8.02
318.495	69.46
318.709	65.36
318.922	24.4
319.136	53.08
319.349	48.98
319.563	98.13
319.776	18.26
319.99	77.65
320.203	44.88
320.417	10.07
320.63	16.21
320.843	145.24
321.057	-30.89
321.27	67.41
321.483	53.08
321.697	28.5
321.91	89.94
322.124	20.31
322.337	-30.89
322.55	98.13
322.763	44.88
322.977	20.31
323.19	24.4
323.403	65.36
323.617	51.03
323.83	63.32
324.043	12.12
324.256	20.31
324.469	-73.9
324.683	55.12
324.896	22.36
325.109	-26.79
325.322	34.64
325.535	32.6
325.748	-8.36
325.962	36.69
326.175	69.46
326.388	36.69
326.601	63.32
326.814	30.55
327.027	24.4
327.24	85.84
327.453	-28.84
327.666	3.93
327.879	40.79
328.092	5.97
328.305	46.93
328.518	81.75
328.731	-8.36
328.944	85.84
329.157	28.5
329.37	87.89
329.583	61.27
329.796	5.97
330.009	-0.17
330.222	81.75
330.435	51.03
330.648	24.4
330.861	59.22
331.073	85.84
331.286	153.43
331.499	-0.17
331.712	-20.65
331.925	61.27
332.138	36.69
332.35	46.93
332.563	53.08
332.776	83.8
332.989	8.02
333.202	46.93
333.414	-28.84
333.627	22.36
333.84	-16.55
334.053	-16.55
334.265	14.17
334.478	3.93
334.691	51.03
334.903	1.88
335.116	42.84
335.329	48.98
335.541	46.93
335.754	98.13
335.966	20.31
336.179	-26.79
336.392	28.5
336.604	53.08
336.817	36.69
337.029	3.93
337.242	-12.46
337.454	73.56
337.667	1.88
337.88	20.31
338.092	28.5
338.305	38.74
338.517	-4.27
338.729	153.43
338.942	75.6
339.154	20.31
339.367	22.36
339.579	-6.31
339.792	-20.65
340.004	14.17
340.217	57.17
340.429	40.79
340.641	14.17
340.854	94.04
341.066	5.97
341.278	63.32
341.491	28.5
341.703	20.31
341.915	-10.41
342.128	94.04
342.34	65.36
342.552	85.84
342.764	12.12
342.977	-4.27
343.189	116.56
343.401	-16.55
343.613	8.02
343.826	110.42
344.038	-18.6
344.25	3.93
344.462	-20.65
344.674	59.22
344.886	30.55
345.099	20.31
345.311	-10.41
345.523	59.22
345.735	20.31
345.947	-2.22
346.159	-47.27
346.371	16.21
346.583	-10.41
346.795	98.13
347.007	71.51
347.219	83.8
347.431	8.02
347.643	30.55
347.855	22.36
348.067	102.23
348.279	14.17
348.491	22.36
348.703	20.31
348.915	18.26
349.127	-110.76
349.339	67.41
349.551	71.51
349.763	135
349.975	-24.75
350.187	89.94
350.399	38.74
350.61	28.5
350.822	12.12
351.034	-2.22
351.246	16.21
351.458	59.22
351.669	69.46
351.881	110.42
352.093	22.36
352.305	55.12
352.517	91.99
352.728	98.13
352.94	20.31
353.152	42.84
353.363	-0.17
353.575	-4.27
353.787	-2.22
353.999	36.69
354.21	81.75
354.422	26.45
354.633	14.17
354.845	3.93
355.057	77.65
355.268	44.88
355.48	91.99
355.692	71.51
355.903	24.4
356.115	42.84
356.326	34.64
356.538	46.93
356.749	-4.27
356.961	14.17
357.172	14.17
357.384	16.21
357.595	61.27
357.807	-12.46
358.018	98.13
358.23	38.74
358.441	32.6
358.653	75.6
358.864	22.36
359.075	44.88
359.287	48.98
359.498	55.12
359.709	24.4
359.921	-2.22
360.132	-43.18
360.344	24.4
360.555	53.08
360.766	114.52
360.977	69.46
361.189	55.12
361.4	-4.27
361.611	18.26
361.823	108.37
362.034	-6.31
362.245	-26.79
362.456	85.84
362.667	-30.89
362.879	5.97
363.09	83.8
363.301	38.74
363.512	57.17
363.723	59.22
363.935	55.12
364.146	48.98
364.357	89.94
364.568	85.84
364.779	-18.6
364.99	24.4
365.201	-0.17
365.412	61.27
365.623	65.36
365.834	112.47
366.045	22.36
366.256	112.47
366.467	34.64
366.678	46.93
366.889	16.21
367.1	53.08
367.311	38.74
367.522	98.13
367.733	34.64
367.944	71.51
368.155	24.4
368.366	155.47
368.577	12.12
368.788	114.52
368.999	28.5
369.209	18.26
369.42	53.08
369.631	108.37
369.842	22.36
370.053	77.65
370.264	61.27
370.474	3.93
370.685	22.36
370.896	91.99
371.107	51.03
371.317	102.23
371.528	-2.22
371.739	73.56
371.95	18.26
372.16	65.36
372.371	3.93
372.582	18.26
372.792	110.42
373.003	3.93
373.214	122.71
373.424	67.41
373.635	20.31
373.846	69.46
374.056	40.79
374.267	-0.17
374.477	53.08
374.688	30.55
374.898	1.88
375.109	98.13
375.319	-37.03
375.53	94.04
375.74	51.03
375.951	16.21
376.161	55.12
376.372	59.22
376.582	20.31
376.793	83.8
377.003	-69.8
377.214	44.88
377.424	16.21
377.635	55.12
377.845	26.45
378.055	59.22
378.266	-37.03
378.476	94.04
378.686	59.22
378.897	46.93
379.107	81.75
379.317	59.22
379.528	34.64
379.738	51.03
379.948	16.21
380.158	38.74
380.369	1.88
380.579	69.46
380.789	42.84
380.999	67.41
381.21	8.02
381.42	110.42
381.63	63.32
381.84	20.31
382.05	-12.46
382.261	61.27
382.471	32.6
382.681	20.31
382.891	124.76
383.101	46.93
383.311	28.5
383.521	-4.27
383.731	106.32
383.941	79.7
384.151	26.45
384.361	57.17
384.571	30.55
384.781	79.7
384.991	55.12
385.201	118.61
385.411	110.42
385.621	77.65
385.831	12.12
386.041	18.26
386.251	36.69
386.461	69.46
386.671	-20.65
386.881	122.71
387.091	69.46
387.301	67.41
387.511	20.31
387.72	14.17
387.93	16.21
388.14	44.88
388.35	-16.55
388.56	-4.27
388.769	106.32
388.979	-0.17
389.189	8.02
389.399	38.74
389.609	18.26
389.818	20.31
390.028	10.07
390.238	65.36
390.447	12.12
390.657	94.04
390.867	135
391.076	-2.22
391.286	75.6
391.496	-10.41
391.705	18.26
391.915	83.8
392.125	112.47
392.334	-2.22
392.544	79.7
392.753	20.31
392.963	94.04
393.172	30.55
393.382	73.56
393.591	94.04
393.801	18.26
394.01	65.36
394.22	53.08
394.429	51.03
394.639	-37.03
394.848	89.94
395.058	73.56
395.267	65.36
395.477	83.8
395.686	118.61
395.895	38.74
396.105	67.41
396.314	16.21
396.524	44.88
396.733	120.66
396.942	81.75
397.152	61.27
397.361	65.36
397.57	89.94
397.78	42.84
397.989	83.8
398.198	110.42
398.407	147.28
398.617	83.8
398.826	57.17
399.035	48.98
399.244	81.75
399.453	145.24
399.663	1.88
399.872	94.04
400.081	73.56
400.29	114.52
400.499	32.6
400.708	122.71
400.917	30.55
401.127	194.39
401.336	77.65
401.545	159.57
401.754	102.23
401.963	67.41
402.172	40.79
402.381	40.79
402.59	89.94
402.799	102.23
403.008	89.94
403.217	130.9
403.426	104.28
403.635	44.88
403.844	106.32
404.053	128.85
404.262	89.94
404.471	157.52
404.68	118.61
404.888	71.51
405.097	128.85
405.306	120.66
405.515	98.13
405.724	180.05
405.933	130.9
406.142	186.19
406.35	132.95
406.559	175.95
406.768	249.68
406.977	81.75
407.185	128.85
407.394	163.67
407.603	206.67
407.812	202.58
408.02	192.34
408.229	135
408.438	190.29
408.646	167.76
408.855	208.72
409.064	218.96
409.272	253.78
409.481	196.43
409.69	194.39
409.898	225.11
410.107	259.92
410.315	243.54
410.524	282.45
410.733	280.4
410.941	288.59
411.15	282.45
411.358	300.88
411.567	372.56
411.775	415.57
411.984	350.03
412.192	401.23
412.401	341.84
412.609	386.9
412.818	347.98
413.026	335.7
413.234	399.18
413.443	436.05
413.651	452.43
413.86	477.01
414.068	517.97
414.276	550.73
414.485	495.44
414.693	505.68
414.901	548.68
415.11	581.45
415.318	624.46
415.526	532.3
415.734	698.19
415.943	763.72
416.151	720.71
416.359	673.61
416.567	649.04
416.776	753.48
416.984	782.15
417.192	868.17
417.4	812.87
417.608	868.17
417.817	831.3
418.025	943.94
418.233	1001.29
418.441	952.13
418.649	962.37
418.857	1118.02
419.065	1068.87
419.273	1111.88
419.481	1109.83
419.689	1167.17
419.897	1251.14
420.105	1285.95
420.313	1376.06
420.521	1423.17
420.729	1361.73
420.937	1455.94
421.145	1455.94
421.353	1503.04
421.561	1691.45
421.769	1691.45
421.977	1765.18
422.185	1699.64
422.393	1732.41
422.601	1974.07
422.809	1851.19
423.017	1986.36
423.224	2012.98
423.432	2082.61
423.64	2168.63
423.848	2256.69
424.056	2209.59
424.263	2295.6
424.471	2422.58
424.679	2445.1
424.887	2600.75
425.094	2608.94
425.302	2670.38
425.51	2774.83
425.718	2969.38
425.925	2877.23
426.133	2885.42
426.341	3182.37
426.548	3264.29
426.756	3368.74
426.964	3411.75
427.171	3546.91
427.379	3567.39
427.586	3706.65
427.794	3761.95
428.001	3909.4
428.209	4026.14
428.417	4026.14
428.624	4286.23
428.832	4280.08
429.039	4208.41
429.247	4261.65
429.454	4871.95
429.662	5033.74
429.869	4771.6
430.076	5027.59
430.284	5037.83
430.491	5197.57
430.699	5488.39
430.906	5592.83
431.114	5480.19
431.321	5639.94
431.528	5951.23
431.736	6176.5
431.943	6491.89
432.15	6391.54
432.358	6432.5
432.565	6772.46
432.772	6536.95
432.979	7026.41
433.187	7268.07
433.394	7210.73
433.601	7722.72
433.808	7638.75
434.016	7804.64
434.223	7950.04
434.43	8562.39
434.637	8464.08
434.844	8865.49
435.052	9051.85
435.259	8883.92
435.466	9080.52
435.673	9082.57
435.88	9541.32
436.087	10049.21
436.294	9993.92
436.501	9817.79
436.708	9926.33
436.915	10303.16
437.122	10698.42
437.329	10870.45
437.537	11372.2
437.743	11314.86
437.95	11288.23
438.157	11630.24
438.364	12304.03
438.571	12123.8
438.778	12119.71
438.985	13342.35
439.192	12730
439.399	13334.15
439.606	13137.55
439.813	13796.99
440.02	14663.29
440.227	14450.3
440.433	14237.31
440.64	14540.41
440.847	14681.72
441.054	15150.7
441.261	15855.2
441.467	15535.72
441.674	16166.49
441.881	16414.3
442.088	16670.29
442.294	16334.43
442.501	16842.32
442.708	17026.64
442.914	17899.08
443.121	18677.3
443.328	17962.56
443.534	19045.94
443.741	18875.96
443.948	18394.68
444.154	20162.08
444.361	19750.44
444.568	20010.53
444.774	20149.79
444.981	20055.59
445.187	20782.62
445.394	21536.27
445.6	21442.06
445.807	23377.39
446.013	22404.61
446.22	22912.5
446.426	23655.92
446.633	24014.31
446.839	24872.41
447.046	23801.32
447.252	25118.17
447.459	25322.96
447.665	24968.66
447.871	26310.08
448.078	27467.19
448.284	26181.06
448.491	26627.52
448.697	28108.2
448.903	28263.85
449.11	28663.2
449.316	27966.89
449.522	28417.44
449.728	29439.38
449.935	29296.02
450.141	29683.09
450.347	30188.94
450.553	29214.1
450.76	29810.06
450.966	30823.81
451.172	30514.56
451.378	31059.32
451.584	30395.78
451.791	31225.21
451.997	31159.67
452.203	31616.37
452.409	31587.7
452.615	31526.26
452.821	30303.62
453.027	30164.36
453.233	31911.28
453.44	30694.78
453.646	30829.95
453.852	30877.05
454.058	31516.02
454.264	30678.4
454.47	31257.98
454.676	30379.4
454.882	31448.44
455.088	29013.4
455.294	28908.96
455.5	29955.47
455.705	30033.29
455.911	28837.28
456.117	28370.34
456.323	27915.69
456.529	26627.52
456.735	27938.22
456.941	26975.67
457.147	26584.51
457.352	25845.19
457.558	25325.01
457.764	25587.15
457.97	25415.12
458.176	24487.39
458.381	24679.9
458.587	23330.29
458.793	23281.14
458.999	22087.17
459.204	23811.56
459.41	23193.08
459.616	21331.47
459.821	21544.46
460.027	21622.28
460.233	21222.93
460.438	20055.59
460.644	20565.53
460.85	19041.84
461.055	19265.07
461.261	19279.41
461.466	17663.56
461.672	16952.91
461.878	18206.27
462.083	17036.88
462.289	16563.8
462.494	16469.59
462.7	15697.51
462.905	15310.44
463.111	16025.18
463.316	15986.27
463.522	15339.12
463.727	15562.34
463.932	15640.17
464.138	15474.28
464.343	15646.31
464.549	15064.69
464.754	15588.97
464.959	15681.13
465.165	15345.26
465.37	14747.25
465.575	14202.49
465.781	14775.92
465.986	15169.13
466.191	14413.43
466.397	13835.91
466.602	13360.78
466.807	13829.76
467.012	14061.18
467.218	13837.95
467.423	13618.82
467.628	13555.33
467.833	14407.29
468.038	13778.56
468.244	13258.38
468.449	14030.46
468.654	13434.5
468.859	13434.5
469.064	13418.12
469.269	12820.11
469.474	12826.26
469.679	13168.27
469.885	12781.2
470.09	13012.62
470.295	12940.94
470.5	12490.39
470.705	12689.04
470.91	12394.14
471.115	12435.1
471.32	12553.88
471.525	12562.07
471.73	12228.25
471.935	12111.52
472.139	11812.51
472.344	11714.21
472.549	11898.53
472.754	11640.48
472.959	11386.54
473.164	11048.62
473.369	11040.43
473.574	11400.87
473.778	11394.73
473.983	11013.81
474.188	11148.97
474.393	10774.19
474.598	10694.32
474.802	10530.48
475.007	10587.83
475.212	10448.57
475.417	10153.66
475.621	10122.94
475.826	10108.6
476.031	10014.4
476.235	9664.19
476.44	9809.6
476.645	9678.53
476.849	9950.91
477.054	9875.13
477.259	9598.66
477.463	9608.9
477.668	9158.35
477.872	9529.03
478.077	9160.39
478.282	8963.79
478.486	8828.62
478.691	8871.63
478.895	8793.81
479.1	8638.16
479.304	8810.19
479.509	8441.56
479.713	8713.94
479.918	8490.71
480.122	8197.85
480.326	8433.36
480.531	8345.3
480.735	8171.22
480.94	8298.2
481.144	8466.13
481.348	8115.93
481.553	8269.53
481.757	8007.39
481.961	8234.71
482.166	8242.9
482.37	8163.03
482.574	8169.18
482.778	8066.78
482.983	8220.38
483.187	8171.22
483.391	8103.64
483.595	8113.88
483.8	8005.34
484.004	7911.13
484.208	8267.48
484.412	8109.79
484.616	8124.12
484.821	8095.45
485.025	7995.1
485.229	8152.79
485.433	8050.39
485.637	8138.46
485.841	7784.16
486.045	8031.96
486.249	8019.67
486.453	7980.76
486.657	8077.02
486.861	8091.35
487.065	7821.02
487.269	8105.69
487.473	7816.93
487.677	7937.76
487.881	8103.64
488.085	8152.79
488.289	8201.94
488.493	8101.59
488.697	8034.01
488.901	8099.55
489.105	8179.42
489.309	8318.68
489.512	7988.96
489.716	8257.24
489.92	8210.14
490.124	7925.47
490.328	8111.83
490.531	8056.54
490.735	8388.31
490.939	8193.75
491.143	8312.53
491.346	8203.99
491.55	8498.9
491.754	8476.37
491.958	8482.52
492.161	8443.6
492.365	8539.86
492.569	8222.42
492.772	8347.35
492.976	8621.78
493.18	8695.5
493.383	8773.33
493.587	8584.91
493.79	8826.57
493.994	8595.15
494.197	8750.8
494.401	8916.69
494.605	8799.95
494.808	8969.93
495.012	9166.54
495.215	9197.26
495.419	9092.81
495.622	9033.42
495.825	9313.99
496.029	9332.42
496.232	9600.71
496.436	9434.82
496.639	9592.51
496.843	9565.89
497.046	9762.5
497.249	9901.76
497.453	10016.44
497.656	10055.36
497.859	10075.84
498.063	10104.51
498.266	10325.69
498.469	10538.68
498.673	10399.41
498.876	10469.05
499.079	10858.16
499.282	10745.52
499.485	10825.39
499.689	11079.34
499.892	11255.47
500.095	11210.41
500.298	11419.3
500.501	11357.86
500.705	11566.76
500.908	11925.15
501.111	11865.76
501.314	12045.98
501.517	12113.56
501.72	12197.53
501.923	12357.27
502.126	12603.03
502.329	12551.83
502.532	12709.52
502.735	12779.15
502.938	13266.57
503.141	13069.97
503.344	13391.5
503.547	13502.09
503.75	13541
503.953	13680.26
504.156	13917.82
504.359	14048.89
504.562	14182.01
504.765	14333.56
504.968	14364.28
505.17	14622.33
505.373	14501.5
505.576	14943.86
505.779	15023.73
505.982	14917.23
506.185	15421.03
506.387	15371.88
506.59	15486.57
506.793	15871.59
506.996	15830.63
507.198	16445.02
507.401	16348.76
507.604	16481.88
507.807	16619.1
508.009	16948.82
508.212	16868.95
508.415	17051.22
508.617	17344.08
508.82	17137.23
509.022	17280.59
509.225	17995.33
509.428	17897.03
509.63	18079.3
509.833	17958.47
510.035	18572.86
510.238	18509.37
510.44	18460.22
510.643	18957.88
510.845	18837.05
511.048	18902.58
511.25	19101.23
511.453	19344.94
511.655	20321.82
511.858	19875.37
512.06	20162.08
512.262	20112.93
512.465	20497.95
512.667	20368.93
512.87	20803.1
513.072	20729.37
513.274	21186.07
513.477	21669.39
513.679	21810.7
513.881	21900.81
514.084	22040.07
514.286	21749.26
514.488	22148.61
514.69	22789.63
514.893	22556.16
515.095	22951.42
515.297	23031.29
515.499	23309.81
515.701	23336.43
515.904	23533.04
516.106	23946.73
516.308	24344.03
516.51	24620.51
516.712	24278.5
516.914	24649.18
517.116	25040.34
517.318	25294.29
517.52	25533.9
517.722	25058.77
517.925	25710.03
518.127	25818.57
518.329	25976.26
518.531	25802.19
518.733	26213.83
518.935	26412.48
519.136	26772.92
519.338	27155.89
519.54	27418.03
519.742	27522.48
519.944	27823.53
520.146	28122.54
520.348	28198.31
520.55	28165.54
520.752	28005.8
520.954	28710.3
521.155	28427.68
521.357	29265.3
521.559	29351.32
521.761	29670.8
521.963	29103.51
522.164	29549.97
522.366	29707.66
522.568	30289.29
522.77	30295.43
522.971	30608.77
523.173	30244.23
523.375	31079.8
523.576	30866.81
523.778	31137.15
523.98	31171.96
524.181	31094.14
524.383	31511.92
524.584	32036.2
524.786	31671.67
524.988	31690.1
525.189	32607.59
525.391	32075.12
525.592	32415.08
525.794	32769.38
525.995	32462.18
526.197	32492.9
526.398	32853.34
526.6	33072.48
526.801	33402.2
527.003	33310.04
527.204	33328.47
527.406	33742.16
527.607	33535.32
527.808	33822.03
528.01	33443.16
528.211	33807.7
528.412	34411.85
528.614	33987.92
528.815	34168.14
529.016	34628.93
529.218	34254.15
529.419	34393.42
529.62	34442.57
529.822	33836.37
530.023	34774.34
530.224	34692.42
530.425	34477.38
530.626	34399.56
530.828	34475.34
531.029	35415.35
531.23	34659.65
531.431	34512.2
531.632	34725.19
531.833	35104.06
532.035	34635.08
532.236	34905.41
532.437	35030.33
532.638	34772.29
532.839	35071.29
533.04	35194.17
533.241	34684.23
533.442	35394.87
533.643	35106.11
533.844	35089.73
534.045	35188.03
534.246	34934.08
534.447	35450.17
534.648	34964.8
534.849	35480.89
535.05	35040.57
535.251	35241.28
535.451	35044.67
535.652	35249.47
535.853	35183.93
536.054	35233.08
536.255	35231.04
536.456	34792.77
536.657	35448.12
536.857	35335.48
537.058	34956.61
537.259	35505.46
537.46	35454.26
537.66	35104.06
537.861	35274.04
538.062	35018.05
538.263	35208.51
538.463	35169.6
538.664	35466.55
538.865	35503.42
539.065	35360.06
539.266	34960.7
539.466	35360.06
539.667	34835.78
539.868	35530.04
540.068	35269.95
540.269	35394.87
540.469	35487.03
540.67	35104.06
540.87	34983.23
541.071	34999.62
541.271	35245.37
541.472	35108.16
541.672	35239.23
541.873	35028.29
542.073	34430.28
542.274	35175.74
542.474	35063.1
542.675	34905.41
542.875	35458.36
543.075	34925.89
543.276	34725.19
543.476	35050.81
543.676	34948.42
543.877	35235.13
544.077	34940.22
544.277	35048.77
544.478	34671.94
544.678	34821.44
544.878	34872.64
545.078	34825.54
545.279	34641.22
545.479	34798.91
545.679	35020.09
545.879	34839.87
546.079	35048.77
546.28	34598.21
546.48	34563.4
546.68	34852.16
546.88	35112.25
547.08	34651.46
547.28	34583.88
547.48	34669.89
547.68	34794.82
547.88	34385.22
548.081	34649.41
548.281	34829.63
548.481	34708.8
548.681	35022.14
548.881	34643.27
549.081	34501.96
549.28	35059.01
549.48	34997.57
549.68	34649.41
549.88	35132.73
550.08	34811.2
550.28	34587.97
550.48	34510.15
550.68	34954.56
550.88	34471.24
551.08	34540.87
551.279	34575.69
551.479	34073.93
551.679	34594.12
551.879	34340.17
552.079	34860.35
552.278	34461
552.478	34917.7
552.678	34463.05
552.878	34428.23
553.077	34448.71
553.277	34452.81
553.477	34614.6
553.676	34186.57
553.876	34399.56
554.076	34372.94
554.275	33965.39
554.475	33858.9
554.674	34135.37
554.874	34256.2
555.074	34088.27
555.273	34094.41
555.473	34458.95
555.672	33697.11
555.872	34262.35
556.071	34202.96
556.271	34184.52
556.47	33951.06
556.67	33559.89
556.869	33498.45
557.068	33992.01
557.268	33772.88
557.467	33914.19
557.667	33832.27
557.866	33729.87
558.065	33717.59
558.265	33543.51
558.464	33613.14
558.663	33813.84
558.863	33215.83
559.062	33791.31
559.261	33385.82
559.461	33627.48
559.66	32992.61
559.859	33555.8
560.058	33031.52
560.258	33377.62
560.457	32685.41
560.656	33660.24
560.855	32861.54
561.054	33181.02
561.253	32882.02
561.453	32939.36
561.652	32898.4
561.851	33131.87
562.05	32912.74
562.249	32738.66
562.448	32705.89
562.647	32505.19
562.846	32548.2
563.045	32423.27
563.244	32200.04
563.443	32660.83
563.642	32066.92
563.841	32353.64
564.04	32574.82
564.239	32642.4
564.438	32050.54
564.637	32281.96
564.836	32073.07
565.035	32013.68
565.234	31993.2
565.432	31747.44
565.631	31974.77
565.83	31987.05
566.029	31505.78
566.228	32038.25
566.427	31741.3
566.625	31450.49
566.824	31473.01
567.023	31620.47
567.222	31434.1
567.42	31524.21
567.619	31321.46
567.818	31278.46
568.016	31276.41
568.215	31219.06
568.414	31335.8
568.612	31169.91
568.811	30791.04
569.01	31034.75
569.208	30637.44
569.407	30913.92
569.605	30147.98
569.804	30840.19
570.002	30330.25
570.201	30455.17
570.4	30369.16
570.598	30539.14
570.797	30168.46
570.995	30406.02
571.193	29803.92
571.392	30514.56
571.59	29930.89
571.789	29967.76
571.987	30045.58
572.186	30197.13
572.384	29437.33
572.582	29865.36
572.781	29857.17
572.979	29549.97
573.177	29707.66
573.376	29283.73
573.574	29386.13
573.772	29789.58
573.971	29101.47
574.169	29388.18
574.367	29201.82
574.565	29250.97
574.763	29005.21
574.962	28960.16
575.16	28904.86
575.358	28771.74
575.556	28667.3
575.754	28894.62
575.952	28476.83
576.151	28755.36
576.349	28437.92
576.547	28487.07
576.745	28593.57
576.943	28456.36
577.141	28218.79
577.339	28143.02
577.537	27897.26
577.735	28032.43
577.933	27676.08
578.131	28231.08
578.329	27952.55
578.527	27680.17
578.725	27823.53
578.923	27919.79
579.121	27846.06
579.319	27592.11
579.516	27516.34
579.714	27645.36
579.912	27379.12
580.11	27483.57
580.308	27291.06
580.506	27139.51
580.704	26676.67
580.901	27270.58
581.099	27256.25
581.297	27065.78
581.495	26803.64
581.692	26910.14
581.89	26758.59
582.088	26983.87
582.285	26475.97
582.483	26754.49
582.681	26443.2
582.878	26371.52
583.076	26236.36
583.274	26496.45
583.471	26242.5
583.669	26242.5
583.866	26213.83
584.064	26228.17
584.262	25935.31
584.459	26174.92
584.657	26060.23
584.854	26017.22
585.052	25490.9
585.249	26031.56
585.447	25875.91
585.644	25140.69
585.841	25472.46
586.039	25568.72
586.236	24925.66
586.434	25290.2
586.631	24960.47
586.828	25368.02
587.026	25251.28
587.223	24909.27
587.42	25011.67
587.618	24978.9
587.815	24565.21
588.012	24538.59
588.21	24651.23
588.407	24786.4
588.604	24421.86
588.801	24460.77
588.999	24255.97
589.196	24526.3
589.393	24428
589.59	24542.69
589.787	24249.83
589.984	24002.02
590.182	23899.62
590.379	23928.3
590.576	24104.42
590.773	23741.93
590.97	23844.33
591.167	23827.95
591.364	23504.37
591.561	23815.66
591.758	23440.88
591.955	23182.84
592.152	23743.98
592.349	23078.39
592.546	23379.44
592.743	23561.71
592.94	23074.29
593.137	23191.03
593.334	23094.77
593.531	22687.23
593.727	23162.36
593.924	22459.9
594.121	22408.7
594.318	22992.37
594.515	22547.97
594.712	22787.58
594.908	22412.8
595.105	22554.11
595.302	22218.24
595.499	22357.5
595.696	22134.28
595.892	21990.92
596.089	22105.6
596.286	22298.11
596.482	21812.74
596.679	21990.92
596.876	22113.8
597.072	21784.07
597.269	21788.17
597.466	21501.45
597.662	21655.05
597.859	21556.75
598.055	21392.91
598.252	21376.53
598.448	21480.97
598.645	21308.94
598.841	21124.63
599.038	21204.5
599.234	21304.85
599.431	21032.47
599.627	21282.32
599.824	21075.48
600.02	20827.67
600.217	21149.2
600.413	20592.16
600.609	20661.79
600.806	20387.36
601.002	20764.18
601.198	20438.56
601.395	20319.78
601.591	20282.91
601.787	20366.88
601.984	20424.22
602.18	20407.84
602.376	20207.14
602.572	19955.24
602.769	20311.58
602.965	19867.17
603.161	19967.52
603.357	19783.21
603.553	19901.99
603.75	20004.39
603.946	19605.03
604.142	19852.84
604.338	19480.11
604.534	19447.34
604.73	19256.88
604.926	19351.09
605.122	19506.73
605.318	19303.98
605.514	19121.71
605.71	19166.77
605.906	19250.74
606.102	19041.84
606.298	18929.2
606.494	18640.44
606.69	18951.73
606.886	18980.4
607.082	19017.27
607.278	18968.12
607.474	18472.51
607.67	18703.93
607.866	18501.18
608.062	18902.58
608.257	18634.3
608.453	18370.11
608.649	18421.31
608.845	18390.59
609.041	18343.49
609.236	18460.22
609.432	18394.68
609.628	18374.2
609.824	18390.59
610.019	18263.61
610.215	18318.91
610.411	18103.87
610.606	18292.29
610.802	18253.37
610.998	18234.94
611.193	18146.88
611.389	18030.15
611.584	18069.06
611.78	17952.32
611.976	17972.8
612.171	17964.61
612.367	17671.75
612.562	17684.04
612.758	17727.05
612.953	17598.02
613.149	17569.35
613.344	17552.97
613.539	17876.55
613.735	17503.82
613.93	17755.72
614.126	17434.19
614.321	17559.11
614.517	17649.22
614.712	17239.63
614.907	17573.45
615.103	17507.91
615.298	17260.11
615.493	17475.15
615.688	17098.32
615.884	17407.56
616.079	17067.6
616.274	17256.01
616.47	16864.85
616.665	17040.98
616.86	17057.36
617.055	17065.55
617.25	17067.6
617.445	16858.71
617.641	16780.89
617.836	16838.23
618.031	16701.01
618.226	16961.11
618.421	16676.44
618.616	16615
618.811	16445.02
619.006	16760.41
619.201	16344.67
619.396	16469.59
619.591	16107.1
619.786	16359
619.981	16209.5
620.176	16346.72
620.371	16123.49
620.566	15896.16
620.761	15941.22
620.956	15963.75
621.151	15523.43
621.346	15793.76
621.541	15490.66
621.735	15683.17
621.93	15416.94
622.125	15662.69
622.32	15285.87
622.515	15507.05
622.709	15271.53
622.904	15119.98
623.099	15074.93
623.294	15216.24
623.488	15048.3
623.683	15072.88
623.878	14782.07
624.072	14737.01
624.267	14906.99
624.462	14433.91
624.656	14462.58
624.851	14390.91
625.046	14331.51
625.24	14521.98
625.435	14182.01
625.629	14085.76
625.824	14171.77
626.018	13942.4
626.213	13723.27
626.407	13737.6
626.602	13676.16
626.796	13547.14
626.991	13811.33
627.185	13588.1
627.38	13442.7
627.574	13551.24
627.768	13285
627.963	13090.45
628.157	13182.6
628.352	13041.29
628.546	12859.03
628.74	13051.53
628.935	12975.76
629.129	12797.59
629.323	12875.41
629.517	12549.78
629.712	12877.46
629.906	12582.55
630.1	12351.13
630.294	12332.7
630.489	12277.4
630.683	12451.48
630.877	12132
631.071	12199.58
631.265	12170.91
631.459	12056.22
631.653	11976.35
631.848	11980.45
632.042	11835.04
632.236	11730.59
632.43	11583.14
632.624	11726.5
632.818	11804.32
633.012	11556.52
633.206	11321
633.4	11703.97
633.594	11349.67
633.788	11486.89
633.982	11179.69
634.176	11091.63
634.369	10991.28
634.563	11163.31
634.757	11112.11
634.951	11067.05
635.145	10737.33
635.339	10905.26
635.533	10907.31
635.726	10841.78
635.92	10645.17
636.114	10608.31
636.308	10809.01
636.501	10636.98
636.695	10538.68
636.889	10366.65
637.083	10344.12
637.276	10462.9
637.47	10286.78
637.664	10129.08
637.857	10188.47
638.051	10145.47
638.244	10104.51
638.438	10067.64
638.632	10022.59
638.825	9785.02
639.019	9696.96
639.212	9948.86
639.406	9811.65
639.599	9762.5
639.793	9639.62
639.986	9561.8
640.18	9541.32
640.373	9463.49
640.567	9295.56
640.76	9529.03
640.954	9412.29
641.147	9268.94
641.34	9275.08
641.534	9115.34
641.727	9270.98
641.92	9240.26
642.114	8990.41
642.307	9058
642.5	9127.63
642.694	8969.93
642.887	8793.81
643.08	8974.03
643.273	8808.14
643.467	8834.77
643.66	8689.36
643.853	8709.84
644.046	8513.24
644.239	8816.33
644.432	8632.02
644.626	8421.08
644.819	8490.71
645.012	8376.02
645.205	8507.09
645.398	8404.69
645.591	8318.68
645.784	8269.53
645.977	7997.15
646.17	8228.57
646.363	8066.78
646.556	8091.35
646.749	8009.44
646.942	8056.54
647.135	8083.16
647.328	7831.26
647.521	7851.74
647.714	7790.3
647.907	7745.25
648.099	7769.82
648.292	7780.06
648.485	7499.49
648.678	7552.74
648.871	7556.83
649.064	7632.61
649.256	7493.35
649.449	7483.11
649.642	7505.63
649.835	7481.06
650.027	7263.97
650.22	7497.44
650.413	7470.82
650.605	7413.48
650.798	7192.3
650.991	7237.35
651.183	7220.97
651.376	7073.51
651.568	7155.43
651.761	7050.99
651.954	6956.78
652.146	7005.93
652.339	6846.19
652.531	6952.68
652.724	6704.88
652.916	6754.03
653.109	6561.52
653.301	6770.41
653.494	6713.07
653.686	6653.68
653.879	6768.37
654.071	6526.71
654.263	6594.29
654.456	6500.08
654.648	6657.78
654.84	6481.65
655.033	6350.58
655.225	6455.03
655.417	6295.29
655.61	6448.88
655.802	6196.98
655.994	6205.17
656.186	6186.74
656.379	6264.57
656.571	6172.41
656.763	6090.49
656.955	5934.84
657.148	6002.43
657.34	5940.99
657.532	5877.5
657.724	6035.19
657.916	6018.81
658.108	5867.26
658.3	5838.59
658.492	5801.72
658.684	5754.62
658.876	5584.64
659.068	5648.13
659.26	5678.85
659.452	5754.62
659.644	5541.63
659.836	5588.74
660.028	5664.51
660.22	5641.98
660.412	5531.39
660.604	5457.67
660.796	5539.58
660.988	5537.54
661.18	5631.74
661.372	5216.01
661.563	5447.43
661.755	5265.16
661.947	5277.44
662.139	5191.43
662.331	5306.12
662.522	5199.62
662.714	5132.04
662.906	5146.37
663.097	5148.42
663.289	5109.51
663.481	5115.66
663.673	5123.85
663.864	5013.26
664.056	5158.66
664.247	5084.94
664.439	4962.06
664.631	5064.46
664.822	4980.49
665.014	4814.6
665.205	4882.19
665.397	4710.16
665.588	4888.33
665.78	4802.32
665.971	4714.25
666.163	4701.97
666.354	4661.01
666.546	4710.16
666.737	4681.49
666.929	4624.14
667.12	4675.34
667.311	4611.85
667.503	4634.38
667.694	4558.61
667.885	4390.67
668.077	4570.9
668.268	4536.08
668.459	4437.78
668.651	4505.36
668.842	4562.7
669.033	4499.22
669.224	4409.11
669.416	4376.34
669.607	4302.61
669.798	4355.86
669.989	4329.24
670.18	4419.35
670.371	4144.92
670.563	4374.29
670.754	4298.52
670.945	4241.17
671.136	4263.7
671.327	4251.41
671.518	4050.71
671.709	4259.6
671.9	4046.62
672.091	4103.96
672.282	4083.48
672.473	4028.18
672.664	4114.2
672.855	4083.48
673.046	3970.84
673.237	3985.18
673.428	3872.54
673.619	4032.28
673.809	3995.42
674	3897.11
674.191	4046.62
674.382	3890.97
674.573	3772.19
674.764	3985.18
674.954	3823.39
675.145	3825.43
675.336	3878.68
675.527	3729.18
675.717	3841.82
675.908	3833.63
676.099	3770.14
676.289	3827.48
676.48	3608.35
676.671	3600.16
676.861	3827.48
677.052	3694.36
677.243	3669.79
677.433	3510.05
677.624	3653.41
677.814	3716.89
678.005	3690.27
678.195	3594.01
678.386	3485.47
678.576	3534.62
678.767	3499.81
678.957	3520.29
679.148	3526.43
679.338	3534.62
679.529	3645.21
679.719	3510.05
679.909	3551.01
680.1	3473.18
680.29	3454.75
680.481	3499.81
680.671	3503.9
680.861	3444.51
681.052	3436.32
681.242	3411.75
681.432	3497.76
681.622	3319.59
681.813	3241.76
682.003	3407.65
682.193	3405.6
682.383	3528.48
682.573	3303.2
682.764	3372.83
682.954	3407.65
683.144	3264.29
683.334	3362.59
683.524	3301.15
683.714	3165.99
683.904	3180.32
684.094	3258.15
684.284	3297.06
684.474	3241.76
684.664	3323.68
684.854	3139.37
685.044	3245.86
685.234	3151.65
685.424	3116.84
685.614	3061.54
685.804	3200.8
685.994	3153.7
686.184	3209
686.374	3188.52
686.564	2993.96
686.753	3045.16
686.943	3026.73
687.133	3069.73
687.323	2996.01
687.513	3096.36
687.702	2983.72
687.892	3057.45
688.082	2979.62
688.272	3004.2
688.461	3043.11
688.651	2959.14
688.841	2940.71
689.03	2907.94
689.22	2809.64
689.41	2946.86
689.599	2944.81
689.789	2946.86
689.979	2936.62
690.168	2852.65
690.358	2875.18
690.547	2873.13
690.737	2801.45
690.926	2735.92
691.116	2744.11
691.305	2723.63
691.495	2684.72
691.684	2725.68
691.874	2699.05
692.063	2660.14
692.252	2610.99
692.442	2608.94
692.631	2658.09
692.82	2754.35
693.01	2588.46
693.199	2610.99
693.388	2643.76
693.578	2537.26
693.767	2567.98
693.956	2506.54
694.146	2469.68
694.335	2567.98
694.524	2600.75
694.713	2610.99
694.902	2527.02
695.092	2504.5
695.281	2610.99
695.47	2561.84
695.659	2414.38
695.848	2447.15
696.037	2455.34
696.226	2432.82
696.415	2463.54
696.604	2414.38
696.793	2447.15
696.982	2498.35
697.171	2473.78
697.36	2451.25
697.549	2412.34
697.738	2354.99
697.927	2387.76
698.116	2338.61
698.305	2322.23
698.494	2322.23
698.683	2391.86
698.872	2365.23
699.061	2426.67
699.25	2232.12
699.438	2307.89
699.627	2340.66
699.816	2395.95
700.005	2322.23
700.193	2307.89
700.382	2381.62
700.571	2283.31
700.76	2305.84
700.948	2314.03
701.137	2287.41
701.326	2291.51
701.514	2338.61
701.703	2299.7
701.892	2234.16
702.08	2250.55
702.269	2228.02
702.457	2264.88
702.646	2285.36
702.834	2225.97
703.023	2264.88
703.212	2185.01
703.4	2301.75
703.589	2279.22
703.777	2330.42
703.965	2250.55
704.154	2223.92
704.342	2252.59
704.531	2225.97
704.719	2201.4
704.907	2297.65
705.096	2131.76
705.284	2133.81
705.472	2156.34
705.661	2176.82
705.849	2201.4
706.037	2246.45
706.226	2125.62
706.414	2225.97
706.602	2334.51
706.79	2221.88
706.979	2129.72
707.167	2291.51
707.355	2119.48
707.543	2254.64
707.731	2199.35
707.919	2203.44
708.107	2180.92
708.296	2148.15
708.484	2193.2
708.672	2123.57
708.86	2236.21
709.048	2086.71
709.236	2203.44
709.424	2189.11
709.612	2170.68
709.8	2182.96
709.988	2086.71
710.176	2068.28
710.364	2158.39
710.551	2133.81
710.739	2258.74
710.927	2144.05
711.115	2195.25
711.303	2207.54
711.491	2193.2
711.679	2182.96
711.866	2086.71
712.054	2166.58
712.242	2076.47
712.43	2111.29
712.617	2119.48
712.805	2135.86
712.993	2123.57
713.181	2123.57
713.368	2150.2
713.556	2178.87
713.744	2142
713.931	2154.29
714.119	2090.81
714.306	2174.77
714.494	2129.72
714.682	2174.77
714.869	2068.28
715.057	2191.16
715.244	2041.65
715.432	2252.59
715.619	2203.44
715.807	2203.44
715.994	2174.77
716.182	2146.1
716.369	2191.16
716.556	2223.92
716.744	2142
716.931	2135.86
717.119	2225.97
717.306	2146.1
717.493	2154.29
717.681	2023.22
717.868	2223.92
718.055	2039.61
718.242	2170.68
718.43	2015.03
718.617	2197.3
718.804	2099
718.991	2168.63
719.179	2015.03
719.366	2066.23
719.553	2137.91
719.74	2029.37
719.927	2107.19
720.114	2223.92
720.301	2139.96
720.488	2187.06
720.676	2129.72
720.863	2248.5
721.05	2135.86
721.237	2133.81
721.424	2201.4
721.611	2213.68
721.798	1969.98
721.985	2070.33
722.172	2129.72
722.358	2209.59
722.545	2221.88
722.732	2031.41
722.919	2303.79
723.106	2158.39
723.293	2215.73
723.48	2105.14
723.667	2090.81
723.853	2109.24
724.04	2252.59
724.227	2142
724.414	2225.97
724.6	2152.24
724.787	2158.39
724.974	2146.1
725.161	2109.24
725.347	2131.76
725.534	2185.01
725.72	2158.39
725.907	2248.5
726.094	2133.81
726.28	2070.33
726.467	2168.63
726.653	2131.76
726.84	2182.96
727.027	2236.21
727.213	2133.81
727.4	2115.38
727.586	2086.71
727.773	2074.42
727.959	2182.96
728.145	2111.29
728.332	2189.11
728.518	2123.57
728.705	2127.67
728.891	2187.06
729.077	2070.33
729.264	2070.33
729.45	2137.91
729.636	2160.44
729.823	2209.59
730.009	2137.91
730.195	2211.64
730.382	2010.93
730.568	2193.2
730.754	2174.77
730.94	2166.58
731.126	2228.02
731.313	2182.96
731.499	2148.15
731.685	2201.4
731.871	2076.47
732.057	2127.67
732.243	2211.64
732.429	2225.97
732.615	2203.44
732.801	2080.57
732.987	2099
733.173	2117.43
733.359	2139.96
733.545	2185.01
733.731	2176.82
733.917	2113.33
734.103	2180.92
734.289	2117.43
734.475	2068.28
734.661	2230.07
734.847	2129.72
735.033	2156.34
735.219	2041.65
735.404	2170.68
735.59	2078.52
735.776	2055.99
735.962	2084.66
736.148	2080.57
736.333	2252.59
736.519	2101.05
736.705	2082.61
736.89	2156.34
737.076	2000.69
737.262	2178.87
737.447	2129.72
737.633	2045.75
737.819	2055.99
738.004	2240.31
738.19	2099
738.375	1978.17
738.561	2158.39
738.747	2135.86
738.932	2109.24
739.118	2125.62
739.303	2146.1
739.489	2115.38
739.674	2066.23
739.859	2068.28
740.045	2082.61
740.23	2062.13
740.416	2051.89
740.601	2119.48
740.786	2070.33
740.972	1986.36
741.157	2027.32
741.342	1945.4
741.528	1945.4
741.713	2055.99
741.898	1941.3
742.084	2006.84
742.269	1922.87
742.454	1926.97
742.639	1943.35
742.824	1982.26
743.01	1941.3
743.195	2008.89
743.38	1955.64
743.565	1912.63
743.75	1863.48
743.935	2045.75
744.12	1990.45
744.305	1937.21
744.49	1890.1
744.675	1886.01
744.86	1926.97
745.045	1838.91
745.23	1920.82
745.415	1939.26
745.6	1955.64
745.785	1883.96
745.97	1904.44
746.155	1793.85
746.34	1935.16
746.525	1797.95
746.71	1843
746.895	1756.99
747.079	1746.75
747.264	1777.47
747.449	1834.81
747.634	1795.9
747.819	1750.84
748.003	1779.51
748.188	1697.6
748.373	1681.21
748.557	1781.56
748.742	1746.75
748.927	1707.84
749.111	1716.03
749.296	1722.17
749.481	1740.6
749.665	1716.03
749.85	1673.02
750.034	1689.4
750.219	1648.44
750.404	1607.48
750.588	1623.87
750.773	1675.07
750.957	1627.96
751.141	1572.67
751.326	1582.91
751.51	1591.1
751.695	1513.28
751.879	1509.18
752.064	1625.92
752.248	1558.33
752.432	1464.13
752.617	1623.87
752.801	1539.9
752.985	1462.08
753.17	1472.32
753.354	1513.28
753.538	1421.12
753.722	1480.51
753.907	1417.02
754.091	1447.74
754.275	1421.12
754.459	1421.12
754.643	1380.16
754.828	1298.24
755.012	1455.94
755.196	1318.72
755.38	1421.12
755.564	1283.91
755.748	1345.34
755.932	1412.93
756.116	1343.3
756.3	1267.52
756.484	1335.1
756.668	1316.67
756.852	1267.52
757.036	1240.9
757.22	1357.63
757.404	1255.23
757.588	1322.82
757.772	1324.87
757.956	1283.91
758.14	1244.99
758.323	1234.75
758.507	1259.33
758.691	1142.6
758.875	1177.41
759.059	1288
759.242	1179.46
759.426	1165.12
759.61	1261.38
759.794	1142.6
759.977	1218.37
760.161	1308.48
760.345	1185.6
760.528	1183.56
760.712	1179.46
760.895	1103.68
761.079	1169.22
761.263	1001.29
761.446	1095.49
761.63	1142.6
761.813	1093.44
761.997	1120.07
762.18	1070.92
762.364	1087.3
762.547	1122.12
762.731	1060.68
762.914	1161.03
763.098	1046.34
763.281	1085.25
763.464	1093.44
763.648	1048.39
763.831	1011.53
764.015	1038.15
764.198	1040.2
764.381	931.66
764.564	1052.49
764.748	950.09
764.931	1003.33
765.114	1036.1
765.297	1036.1
765.481	913.22
765.664	1011.53
765.847	964.42
766.03	1013.57
766.213	999.24
766.397	1023.81
766.58	1005.38
766.763	976.71
766.946	954.18
767.129	939.85
767.312	1009.48
767.495	948.04
767.678	964.42
767.861	847.69
768.044	892.74
768.227	939.85
768.41	999.24
768.593	945.99
768.776	941.89
768.959	829.26
769.142	915.27
769.324	917.32
769.507	970.57
769.69	800.59
769.873	880.46
770.056	939.85
770.239	905.03
770.421	874.31
770.604	991.05
770.787	900.94
770.97	919.37
771.152	929.61
771.335	835.4
771.518	816.97
771.7	843.59
771.883	874.31
772.066	888.65
772.248	769.87
772.431	839.5
772.613	896.84
772.796	888.65
772.978	735.05
773.161	798.54
773.343	808.78
773.526	776.01
773.708	778.06
773.891	792.39
774.073	806.73
774.256	802.63
774.438	751.43
774.621	868.17
774.803	831.3
774.985	780.11
775.168	866.12
775.35	763.72
775.532	808.78
775.715	765.77
775.897	771.91
776.079	763.72
776.261	786.25
776.444	741.19
776.626	694.09
776.808	724.81
776.99	716.62
777.173	737.1
777.355	700.23
777.537	733
777.719	694.09
777.901	655.18
778.083	669.52
778.265	636.75
778.447	689.99
778.629	692.04
778.811	702.28
778.993	667.47
779.175	708.43
779.357	646.99
779.539	644.94
779.721	618.32
779.903	587.6
780.085	593.74
780.267	558.92
780.449	620.36
780.631	560.97
780.812	601.93
780.994	614.22
781.176	646.99
781.358	671.56
781.54	544.59
781.721	626.51
781.903	552.78
782.085	569.16
782.267	595.79
782.448	556.88
782.63	520.01
782.812	565.07
782.993	497.49
783.175	544.59
783.357	511.82
783.538	638.8
783.72	522.06
783.901	489.29
784.083	581.45
784.264	386.9
784.446	456.53
784.627	491.34
784.809	495.44
784.99	479.05
785.172	513.87
785.353	530.25
785.535	411.47
785.716	446.29
785.897	479.05
786.079	542.54
786.26	487.25
786.441	446.29
786.623	485.2
786.804	438.09
786.985	493.39
787.167	429.9
787.348	442.19
787.529	438.09
787.71	468.81
787.891	454.48
788.073	429.9
788.254	384.85
788.435	477.01
788.616	354.13
788.797	413.52
788.978	507.73
789.159	380.75
789.34	483.15
789.522	325.46
789.703	417.61
789.884	376.66
790.065	450.38
790.246	438.09
790.427	341.84
790.607	411.47
790.788	374.61
790.969	319.31
791.15	341.84
791.331	317.26
791.512	350.03
791.693	331.6
791.874	397.14
792.054	393.04
792.235	413.52
792.416	278.35
792.597	325.46
792.778	319.31
792.958	427.85
793.139	362.32
793.32	300.88
793.5	268.11
793.681	372.56
793.862	380.75
794.042	321.36
794.223	307.02
794.404	298.83
794.584	282.45
794.765	323.41
794.945	245.59
795.126	362.32
795.306	331.6
795.487	388.94
795.667	243.54
795.848	284.5
796.028	210.77
796.209	288.59
796.389	317.26
796.57	276.31
796.75	280.4
796.93	360.27
797.111	231.25
797.291	259.92
797.471	298.83
797.652	298.83
797.832	259.92
798.012	366.42
798.192	257.87
798.373	243.54
798.553	288.59
798.733	321.36
798.913	212.82
799.093	284.5
799.274	159.57
799.454	292.69
799.634	298.83
799.814	309.07
799.994	270.16
800.174	274.26
800.354	229.2
800.534	257.87
800.714	233.3
800.894	257.87
801.074	194.39
801.254	251.73
801.434	173.91
801.614	259.92
801.794	192.34
801.974	724.81
802.154	173.91
802.334	259.92
802.514	227.15
802.693	175.95
802.873	208.72
803.053	214.87
803.233	235.35
803.413	251.73
803.592	171.86
803.772	235.35
803.952	241.49
804.131	227.15
804.311	161.62
804.491	253.78
804.67	137.04
804.85	210.77
805.03	202.58
805.209	231.25
805.389	231.25
805.568	204.63
805.748	135
805.928	259.92
806.107	216.91
806.287	225.11
806.466	253.78
806.646	225.11
806.825	120.66
807.004	243.54
807.184	204.63
807.363	270.16
807.543	200.53
807.722	104.28
807.901	225.11
808.081	145.24
808.26	118.61
808.439	282.45
808.619	214.87
808.798	167.76
808.977	171.86
809.156	261.97
809.336	241.49
809.515	210.77
809.694	259.92
809.873	223.06
810.052	178
810.231	247.63
810.411	159.57
810.59	147.28
810.769	210.77
810.948	200.53
811.127	116.56
811.306	149.33
811.485	126.8
811.664	237.39
811.843	208.72
812.022	161.62
812.201	192.34
812.38	159.57
812.559	149.33
812.737	165.71
812.916	137.04
813.095	128.85
813.274	130.9
813.453	61.27
813.632	173.91
813.811	159.57
813.989	178
814.168	161.62
814.347	149.33
814.526	110.42
814.704	159.57
814.883	173.91
815.062	208.72
815.24	169.81
815.419	151.38
815.598	167.76
815.776	104.28
815.955	159.57
816.133	141.14
816.312	163.67
816.49	143.19
816.669	175.95
816.847	159.57
817.026	169.81
817.204	159.57
817.383	167.76
817.561	106.32
817.74	196.43
817.918	169.81
818.097	98.13
818.275	141.14
818.453	149.33
818.632	182.1
818.81	151.38
818.988	124.76
819.167	104.28
819.345	118.61
819.523	100.18
819.701	175.95
819.879	147.28
820.058	151.38
820.236	182.1
820.414	89.94
820.592	16.21
820.77	159.57
820.948	85.84
821.127	147.28
821.305	135
821.483	139.09
821.661	128.85
821.839	122.71
822.017	79.7
822.195	132.95
822.373	118.61
822.551	61.27
822.729	182.1
822.907	112.47
823.085	108.37
823.262	91.99
823.44	112.47
823.618	118.61
823.796	79.7
823.974	96.08
824.152	94.04
824.329	163.67
824.507	77.65
824.685	116.56
824.863	102.23
825.04	135
825.218	120.66
825.396	100.18
825.574	77.65
825.751	106.32
825.929	100.18
826.107	46.93
826.284	139.09
826.462	126.8
826.639	89.94
826.817	102.23
826.994	137.04
827.172	38.74
827.349	132.95
827.527	77.65
827.704	94.04
827.882	91.99
828.059	104.28
828.237	94.04
828.414	96.08
828.591	57.17
828.769	34.64
828.946	65.36
829.124	139.09
829.301	73.56
829.478	161.62
829.655	110.42
829.833	79.7
830.01	85.84
830.187	16.21
830.364	89.94
830.542	38.74
830.719	132.95
830.896	71.51
831.073	83.8
831.25	28.5
831.427	106.32
831.604	89.94
831.782	65.36
831.959	116.56
832.136	44.88
832.313	96.08
832.49	36.69
832.667	77.65
832.844	116.56
833.021	89.94
833.198	110.42
833.374	108.37
833.551	71.51
833.728	126.8
833.905	116.56
834.082	53.08
834.259	135
834.436	143.19
834.612	67.41
834.789	75.6
834.966	36.69
835.143	36.69
835.319	46.93
835.496	71.51
835.673	114.52
835.85	91.99
836.026	104.28
836.203	98.13
836.38	24.4
836.556	5.97
836.733	40.79
836.909	153.43
837.086	67.41
837.262	114.52
837.439	20.31
837.616	112.47
837.792	67.41
837.968	42.84
838.145	48.98
838.321	81.75
838.498	73.56
838.674	85.84
838.851	96.08
839.027	110.42
839.203	30.55
839.38	104.28
839.556	83.8
839.732	153.43
839.909	44.88
840.085	69.46
840.261	94.04
840.437	100.18
840.614	-18.6
840.79	67.41
840.966	87.89
841.142	83.8
841.318	94.04
841.494	26.45
841.671	124.76
841.847	-28.84
842.023	26.45
842.199	14.17
842.375	36.69
842.551	16.21
842.727	77.65
842.903	128.85
843.079	5.97
843.255	85.84
843.431	75.6
843.607	102.23
843.783	-8.36
843.959	102.23
844.134	8.02
844.31	61.27
844.486	85.84
844.662	46.93
844.838	108.37
845.013	69.46
845.189	69.46
845.365	81.75
845.541	30.55
845.716	75.6
845.892	81.75
846.068	59.22
846.244	61.27
846.419	26.45
846.595	-110.76
846.77	-4.27
846.946	53.08
847.122	89.94
847.297	-8.36
847.473	89.94
847.648	-59.56
847.824	96.08
847.999	63.32
848.175	69.46
848.35	59.22
848.526	55.12
848.701	83.8
848.876	55.12
849.052	38.74
849.227	-12.46
849.403	40.79
849.578	91.99
849.753	73.56
849.929	75.6
850.104	42.84
850.279	40.79
850.454	-45.23
850.63	38.74
850.805	12.12
850.98	94.04
851.155	26.45
851.33	61.27
851.505	-26.79
851.681	83.8
851.856	28.5
852.031	16.21
852.206	57.17
852.381	-20.65
852.556	30.55
852.731	-16.55
852.906	-0.17
853.081	5.97
853.256	77.65
853.431	42.84
853.606	-2.22
853.781	36.69
853.956	-14.51
854.131	55.12
854.305	-24.75
854.48	63.32
854.655	65.36
854.83	55.12
855.005	-20.65
855.18	22.36
855.354	-12.46
855.529	61.27
855.704	16.21
855.879	20.31
856.053	51.03
856.228	-18.6
856.403	12.12
856.577	71.51
856.752	28.5
856.926	87.89
857.101	44.88
857.276	-18.6
857.45	46.93
857.625	24.4
857.799	85.84
857.974	83.8
858.148	-92.33
858.323	51.03
858.497	26.45
858.672	26.45
858.846	-0.17
859.02	5.97
859.195	8.02
859.369	61.27
859.543	22.36
859.718	-37.03
859.892	12.12
860.066	-0.17
860.241	61.27
860.415	-26.79
860.589	36.69
860.763	-4.27
860.938	3.93
861.112	120.66
861.286	16.21
861.46	-6.31
861.634	61.27
861.808	36.69
861.982	46.93
862.157	-20.65
862.331	104.28
862.505	40.79
862.679	59.22
862.853	-2.22
863.027	32.6
863.201	79.7
863.375	-18.6
863.549	61.27
863.722	-22.7
863.896	126.8
864.07	-49.32
864.244	44.88
864.418	44.88
864.592	-12.46
864.766	44.88
864.939	44.88
865.113	1.88
865.287	-34.99
865.461	44.88
865.634	28.5
865.808	-34.99
865.982	-12.46
866.156	-73.9
866.329	-4.27
866.503	16.21
866.676	61.27
866.85	3.93
867.024	-26.79
867.197	42.84
867.371	22.36
867.544	5.97
867.718	30.55
867.891	65.36
868.065	53.08
868.238	-12.46
868.412	102.23
868.585	-39.08
868.759	96.08
868.932	-34.99
869.105	-32.94
869.279	-39.08
869.452	14.17
869.625	-2.22
869.799	30.55
869.972	8.02
870.145	-28.84
870.319	-20.65
870.492	22.36
870.665	-30.89
870.838	79.7
871.011	-43.18
871.185	16.21
871.358	-6.31
871.531	40.79
871.704	16.21
871.877	-12.46
872.05	-6.31
872.223	28.5
872.396	44.88
872.569	12.12
872.742	73.56
872.915	28.5
873.088	-16.55
873.261	32.6
873.434	-4.27
873.607	-32.94
873.78	18.26
873.953	12.12
874.126	5.97
874.299	61.27
874.471	-41.13
874.644	-20.65
874.817	-20.65
874.99	8.02
875.163	3.93
875.335	53.08
875.508	44.88
875.681	40.79
875.853	18.26
876.026	-28.84
876.199	28.5
876.371	8.02
876.544	53.08
876.717	3.93
876.889	24.4
877.062	-16.55
877.234	28.5
877.407	12.12
877.579	71.51
877.752	40.79
877.924	-39.08
878.097	3.93
878.269	-22.7
878.442	8.02
878.614	61.27
878.786	69.46
878.959	-34.99
879.131	-55.47
879.303	-43.18
879.476	65.36
879.648	55.12
879.82	30.55
879.993	-2.22
880.165	53.08
880.337	-10.41
880.509	42.84
880.681	-20.65
880.854	-10.41
881.026	-8.36
881.198	44.88
881.37	5.97
881.542	-34.99
881.714	38.74
881.886	20.31
882.058	12.12
882.23	53.08
882.402	-43.18
882.574	42.84
882.746	-77.99
882.918	-20.65
883.09	14.17
883.262	-2.22
883.434	12.12
883.606	-12.46
883.778	-10.41
883.95	8.02
884.122	-8.36
884.293	32.6
884.465	-59.56
884.637	36.69
884.809	-10.41
884.98	-2.22
885.152	63.32
885.324	34.64
885.496	28.5
885.667	44.88
885.839	-8.36
886.011	48.98
886.182	61.27
886.354	61.27
886.525	3.93
886.697	12.12
886.869	-20.65
887.04	-45.23
887.212	83.8
887.383	32.6
887.555	-26.79
887.726	61.27
887.897	-8.36
888.069	16.21
888.24	30.55
888.412	63.32
888.583	-20.65
888.754	-53.42
888.926	-45.23
889.097	24.4
889.268	16.21
889.44	28.5
889.611	-34.99
889.782	30.55
889.953	-51.37
890.125	55.12
890.296	-53.42
890.467	28.5
890.638	-16.55
890.809	12.12
890.98	-6.31
891.151	-2.22
891.323	14.17
891.494	77.65
891.665	1.88
891.836	-10.41
892.007	-55.47
892.178	-28.84
892.349	-6.31
892.52	36.69
892.691	36.69
892.862	34.64
893.032	-41.13
893.203	1.88
893.374	28.5
893.545	65.36
893.716	-24.75
893.887	34.64
894.057	-34.99
894.228	32.6
894.399	-59.56
894.57	-24.75
894.74	46.93
894.911	61.27
895.082	16.21
895.253	-6.31
895.423	20.31
895.594	-16.55
895.764	10.07
895.935	-57.51
896.106	53.08
896.276	-6.31
896.447	-28.84
896.617	-53.42
896.788	-16.55
896.958	-57.51
897.129	40.79
897.299	87.89
897.47	24.4
897.64	28.5
897.81	30.55
897.981	10.07
898.151	20.31
898.322	55.12
898.492	-30.89
898.662	22.36
898.832	38.74
899.003	26.45
899.173	-61.61
899.343	20.31
899.513	-4.27
