Data from USB4F104151__41__13-11-08-422.txt Node

Date: Fri Mar 14 13:11:08 EDT 2025
User: louis
Spectrometer: USB4F10415
Trigger mode: 4
Integration Time (sec): 2.000000E-2
Scans to average: 1
Electric dark correction enabled: true
Nonlinearity correction enabled: false
Boxcar width: 0
XAxis mode: Wavelengths
Number of Pixels in Spectrum: 3648
>>>>>Begin Spectral Data<<<<<
178.204	-58.54
178.424	-58.54
178.644	-58.54
178.864	-124.07
179.084	-76.97
179.304	-46.25
179.524	2.9
179.744	2.9
179.964	64.34
180.184	29.52
180.404	-33.96
180.624	15.19
180.844	0.85
181.064	-11.43
181.283	-46.25
181.503	35.67
181.723	-13.48
181.943	-36.01
182.163	-7.34
182.383	23.38
182.602	39.76
182.822	31.57
183.042	35.67
183.262	31.57
183.482	-13.48
183.701	52.05
183.921	15.19
184.141	-50.35
184.361	7
184.58	27.48
184.8	31.57
185.02	-23.72
185.239	58.2
185.459	90.96
185.679	25.43
185.898	-19.63
186.118	43.86
186.338	33.62
186.557	37.72
186.777	-42.15
186.997	4.95
187.216	-36.01
187.436	56.15
187.655	60.24
187.875	-9.39
188.095	23.38
188.314	41.81
188.534	-15.53
188.753	11.09
188.973	15.19
189.192	43.86
189.412	-44.2
189.631	-74.92
189.851	68.44
190.07	-5.29
190.29	-15.53
190.509	76.63
190.729	-3.24
190.948	27.48
191.168	176.98
191.387	33.62
191.607	21.33
191.826	54.1
192.045	35.67
192.265	47.96
192.484	47.96
192.704	60.24
192.923	62.29
193.142	82.77
193.362	7
193.581	11.09
193.8	-17.58
194.02	-29.87
194.239	-1.19
194.458	70.48
194.678	-7.34
194.897	68.44
195.116	74.58
195.335	39.76
195.555	-3.24
195.774	11.09
195.993	62.29
196.212	15.19
196.432	23.38
196.651	39.76
196.87	56.15
197.089	-56.49
197.308	2.9
197.528	15.19
197.747	68.44
197.966	7
198.185	35.67
198.404	58.2
198.623	80.72
198.842	-19.63
199.062	-15.53
199.281	86.87
199.5	-23.72
199.719	72.53
199.938	17.24
200.157	68.44
200.376	68.44
200.595	31.57
200.814	-1.19
201.033	-9.39
201.252	9.05
201.471	29.52
201.69	66.39
201.909	-17.58
202.128	-21.67
202.347	-17.58
202.566	41.81
202.785	-5.29
203.004	-40.11
203.223	105.3
203.442	-3.24
203.661	-23.72
203.879	25.43
204.098	-9.39
204.317	2.9
204.536	31.57
204.755	27.48
204.974	105.3
205.193	0.85
205.411	115.54
205.63	7
205.849	74.58
206.068	-17.58
206.287	19.29
206.505	-11.43
206.724	-74.92
206.943	4.95
207.162	-40.11
207.381	-1.19
207.599	15.19
207.818	31.57
208.037	-7.34
208.255	-31.91
208.474	76.63
208.693	0.85
208.911	15.19
209.13	23.38
209.349	15.19
209.567	-70.83
209.786	72.53
210.005	-9.39
210.223	23.38
210.442	45.91
210.661	47.96
210.879	-19.63
211.098	60.24
211.316	76.63
211.535	-1.19
211.753	13.14
211.972	23.38
212.191	-21.67
212.409	-25.77
212.628	-11.43
212.846	56.15
213.065	-3.24
213.283	15.19
213.502	56.15
213.72	60.24
213.938	11.09
214.157	-72.87
214.375	-29.87
214.594	-42.15
214.812	43.86
215.031	25.43
215.249	39.76
215.467	25.43
215.686	-42.15
215.904	-3.24
216.122	56.15
216.341	-23.72
216.559	43.86
216.778	11.09
216.996	21.33
217.214	54.1
217.432	9.05
217.651	-17.58
217.869	-9.39
218.087	19.29
218.306	82.77
218.524	27.48
218.742	-1.19
218.96	11.09
219.179	43.86
219.397	-27.82
219.615	90.96
219.833	80.72
220.051	-64.68
220.27	52.05
220.488	43.86
220.706	11.09
220.924	25.43
221.142	25.43
221.36	70.48
221.578	-1.19
221.796	13.14
222.015	52.05
222.233	39.76
222.451	90.96
222.669	-40.11
222.887	13.14
223.105	4.95
223.323	93.01
223.541	37.72
223.759	-1.19
223.977	15.19
224.195	-15.53
224.413	-25.77
224.631	33.62
224.849	27.48
225.067	84.82
225.285	25.43
225.503	27.48
225.721	-9.39
225.939	9.05
226.157	109.4
226.375	66.39
226.592	-3.24
226.81	43.86
227.028	58.2
227.246	35.67
227.464	47.96
227.682	95.06
227.9	27.48
228.117	7
228.335	21.33
228.553	-15.53
228.771	-1.19
228.989	2.9
229.206	2.9
229.424	11.09
229.642	-17.58
229.86	11.09
230.077	-1.19
230.295	15.19
230.513	9.05
230.731	-23.72
230.948	50
231.166	23.38
231.384	15.19
231.601	17.24
231.819	25.43
232.037	25.43
232.254	58.2
232.472	17.24
232.689	-5.29
232.907	-31.91
233.125	-40.11
233.342	-72.87
233.56	-15.53
233.777	33.62
233.995	2.9
234.213	-29.87
234.43	107.35
234.648	66.39
234.865	-23.72
235.083	86.87
235.3	-33.96
235.518	-9.39
235.735	41.81
235.953	21.33
236.17	105.3
236.388	-21.67
236.605	66.39
236.822	-7.34
237.04	-15.53
237.257	-52.39
237.475	41.81
237.692	41.81
237.909	-25.77
238.127	-21.67
238.344	35.67
238.562	41.81
238.779	-56.49
238.996	-50.35
239.214	-17.58
239.431	29.52
239.648	47.96
239.865	-31.91
240.083	-23.72
240.3	72.53
240.517	0.85
240.735	76.63
240.952	50
241.169	27.48
241.386	13.14
241.603	82.77
241.821	-40.11
242.038	72.53
242.255	-23.72
242.472	-15.53
242.689	43.86
242.907	25.43
243.124	62.29
243.341	11.09
243.558	21.33
243.775	4.95
243.992	-44.2
244.209	99.16
244.426	45.91
244.643	9.05
244.86	0.85
245.078	23.38
245.295	29.52
245.512	7
245.729	15.19
245.946	19.29
246.163	-5.29
246.38	35.67
246.597	-25.77
246.814	2.9
247.031	74.58
247.248	84.82
247.464	25.43
247.681	25.43
247.898	-19.63
248.115	15.19
248.332	13.14
248.549	-7.34
248.766	52.05
248.983	97.11
249.2	-33.96
249.417	41.81
249.633	56.15
249.85	23.38
250.067	4.95
250.284	23.38
250.501	45.91
250.717	50
250.934	-62.63
251.151	-7.34
251.368	-13.48
251.585	19.29
251.801	50
252.018	19.29
252.235	50
252.451	74.58
252.668	-13.48
252.885	47.96
253.102	-33.96
253.318	90.96
253.535	82.77
253.752	56.15
253.968	21.33
254.185	-50.35
254.401	27.48
254.618	97.11
254.835	15.19
255.051	17.24
255.268	21.33
255.484	-21.67
255.701	19.29
255.917	23.38
256.134	-36.01
256.351	78.68
256.567	-54.44
256.784	-5.29
257	43.86
257.217	0.85
257.433	54.1
257.65	15.19
257.866	-1.19
258.082	-74.92
258.299	11.09
258.515	-15.53
258.732	-31.91
258.948	-21.67
259.165	15.19
259.381	-13.48
259.597	-50.35
259.814	-17.58
260.03	2.9
260.246	-1.19
260.463	39.76
260.679	50
260.895	-1.19
261.112	0.85
261.328	11.09
261.544	56.15
261.761	80.72
261.977	-11.43
262.193	-23.72
262.409	27.48
262.626	37.72
262.842	74.58
263.058	25.43
263.274	17.24
263.49	58.2
263.707	17.24
263.923	9.05
264.139	-42.15
264.355	-25.77
264.571	7
264.787	-1.19
265.004	68.44
265.22	58.2
265.436	-15.53
265.652	-7.34
265.868	47.96
266.084	-31.91
266.3	82.77
266.516	-68.78
266.732	-48.3
266.948	15.19
267.164	-7.34
267.38	-17.58
267.596	58.2
267.812	21.33
268.028	31.57
268.244	7
268.46	45.91
268.676	19.29
268.892	23.38
269.108	-60.59
269.324	-29.87
269.54	15.19
269.756	45.91
269.972	-7.34
270.188	113.49
270.403	-3.24
270.619	84.82
270.835	56.15
271.051	31.57
271.267	39.76
271.483	2.9
271.698	-48.3
271.914	52.05
272.13	33.62
272.346	-33.96
272.562	-62.63
272.777	31.57
272.993	54.1
273.209	64.34
273.425	60.24
273.64	-3.24
273.856	9.05
274.072	27.48
274.287	66.39
274.503	2.9
274.719	54.1
274.934	41.81
275.15	15.19
275.366	-1.19
275.581	17.24
275.797	-52.39
276.012	-5.29
276.228	35.67
276.444	27.48
276.659	2.9
276.875	-7.34
277.09	99.16
277.306	0.85
277.521	37.72
277.737	62.29
277.952	47.96
278.168	101.2
278.383	-3.24
278.599	50
278.814	138.07
279.03	35.67
279.245	47.96
279.461	45.91
279.676	90.96
279.892	19.29
280.107	-5.29
280.322	-29.87
280.538	88.92
280.753	4.95
280.969	-9.39
281.184	-27.82
281.399	54.1
281.615	52.05
281.83	33.62
282.045	-23.72
282.26	-64.68
282.476	-15.53
282.691	-15.53
282.906	17.24
283.122	56.15
283.337	-31.91
283.552	76.63
283.767	58.2
283.983	7
284.198	-107.69
284.413	17.24
284.628	-19.63
284.843	50
285.058	9.05
285.274	9.05
285.489	-7.34
285.704	7
285.919	2.9
286.134	52.05
286.349	-9.39
286.564	-3.24
286.779	93.01
286.995	-1.19
287.21	-17.58
287.425	-1.19
287.64	-5.29
287.855	82.77
288.07	-15.53
288.285	93.01
288.5	19.29
288.715	-17.58
288.93	52.05
289.145	-5.29
289.36	-7.34
289.575	-17.58
289.79	39.76
290.004	39.76
290.219	-7.34
290.434	45.91
290.649	29.52
290.864	33.62
291.079	27.48
291.294	19.29
291.509	-11.43
291.724	37.72
291.938	-13.48
292.153	15.19
292.368	62.29
292.583	4.95
292.798	9.05
293.012	9.05
293.227	80.72
293.442	17.24
293.657	15.19
293.871	50
294.086	60.24
294.301	35.67
294.516	25.43
294.73	23.38
294.945	-9.39
295.16	58.2
295.374	72.53
295.589	41.81
295.804	2.9
296.018	13.14
296.233	43.86
296.447	109.4
296.662	52.05
296.877	50
297.091	80.72
297.306	-40.11
297.52	9.05
297.735	93.01
297.949	-11.43
298.164	47.96
298.378	115.54
298.593	7
298.807	56.15
299.022	19.29
299.236	90.96
299.451	-7.34
299.665	25.43
299.88	56.15
300.094	37.72
300.309	45.91
300.523	70.48
300.737	11.09
300.952	17.24
301.166	33.62
301.381	19.29
301.595	80.72
301.809	-46.25
302.024	-19.63
302.238	-54.44
302.452	43.86
302.667	78.68
302.881	41.81
303.095	52.05
303.309	64.34
303.524	29.52
303.738	-1.19
303.952	23.38
304.166	-1.19
304.381	31.57
304.595	66.39
304.809	-38.06
305.023	15.19
305.237	-3.24
305.452	2.9
305.666	93.01
305.88	39.76
306.094	39.76
306.308	19.29
306.522	33.62
306.736	43.86
306.95	39.76
307.164	47.96
307.379	-7.34
307.593	50
307.807	15.19
308.021	88.92
308.235	-11.43
308.449	-38.06
308.663	19.29
308.877	74.58
309.091	35.67
309.305	72.53
309.519	-58.54
309.733	105.3
309.947	-50.35
310.161	58.2
310.374	-7.34
310.588	70.48
310.802	93.01
311.016	-9.39
311.23	35.67
311.444	-31.91
311.658	68.44
311.872	-3.24
312.085	11.09
312.299	39.76
312.513	105.3
312.727	43.86
312.941	-3.24
313.154	11.09
313.368	15.19
313.582	90.96
313.796	-7.34
314.009	-23.72
314.223	105.3
314.437	19.29
314.651	117.59
314.864	78.68
315.078	-62.63
315.292	19.29
315.505	136.02
315.719	15.19
315.933	56.15
316.146	35.67
316.36	23.38
316.573	105.3
316.787	43.86
317.001	64.34
317.214	78.68
317.428	4.95
317.641	66.39
317.855	-38.06
318.068	64.34
318.282	47.96
318.495	31.57
318.709	56.15
318.922	15.19
319.136	21.33
319.349	31.57
319.563	-25.77
319.776	82.77
319.99	-23.72
320.203	-5.29
320.417	88.92
320.63	13.14
320.843	88.92
321.057	7
321.27	47.96
321.483	60.24
321.697	17.24
321.91	93.01
322.124	41.81
322.337	-11.43
322.55	56.15
322.763	-3.24
322.977	25.43
323.19	-38.06
323.403	-5.29
323.617	60.24
323.83	37.72
324.043	31.57
324.256	-15.53
324.469	43.86
324.683	-15.53
324.896	-3.24
325.109	-7.34
325.322	23.38
325.535	9.05
325.748	58.2
325.962	2.9
326.175	62.29
326.388	70.48
326.601	19.29
326.814	56.15
327.027	21.33
327.24	129.88
327.453	9.05
327.666	66.39
327.879	99.16
328.092	25.43
328.305	9.05
328.518	-54.44
328.731	-7.34
328.944	27.48
329.157	56.15
329.37	23.38
329.583	76.63
329.796	21.33
330.009	74.58
330.222	82.77
330.435	43.86
330.648	-1.19
330.861	-64.68
331.073	50
331.286	39.76
331.499	58.2
331.712	17.24
331.925	15.19
332.138	33.62
332.35	138.07
332.563	54.1
332.776	60.24
332.989	-31.91
333.202	23.38
333.414	31.57
333.627	7
333.84	-31.91
334.053	19.29
334.265	52.05
334.478	27.48
334.691	64.34
334.903	33.62
335.116	-15.53
335.329	41.81
335.541	66.39
335.754	-7.34
335.966	74.58
336.179	0.85
336.392	58.2
336.604	11.09
336.817	84.82
337.029	17.24
337.242	-17.58
337.454	47.96
337.667	43.86
337.88	107.35
338.092	19.29
338.305	27.48
338.517	43.86
338.729	-9.39
338.942	19.29
339.154	52.05
339.367	-40.11
339.579	52.05
339.792	4.95
340.004	41.81
340.217	-33.96
340.429	70.48
340.641	-17.58
340.854	7
341.066	-27.82
341.278	2.9
341.491	21.33
341.703	11.09
341.915	2.9
342.128	84.82
342.34	33.62
342.552	-25.77
342.764	-33.96
342.977	105.3
343.189	66.39
343.401	-50.35
343.613	-115.88
343.826	60.24
344.038	-5.29
344.25	88.92
344.462	-33.96
344.674	41.81
344.886	33.62
345.099	15.19
345.311	68.44
345.523	64.34
345.735	31.57
345.947	64.34
346.159	84.82
346.371	-7.34
346.583	47.96
346.795	50
347.007	-31.91
347.219	127.83
347.431	13.14
347.643	21.33
347.855	-11.43
348.067	13.14
348.279	-40.11
348.491	-31.91
348.703	109.4
348.915	47.96
349.127	-9.39
349.339	84.82
349.551	-46.25
349.763	60.24
349.975	-31.91
350.187	-44.2
350.399	45.91
350.61	-79.02
350.822	39.76
351.034	19.29
351.246	84.82
351.458	-1.19
351.669	39.76
351.881	25.43
352.093	66.39
352.305	56.15
352.517	35.67
352.728	7
352.94	7
353.152	39.76
353.363	-36.01
353.575	107.35
353.787	-25.77
353.999	25.43
354.21	64.34
354.422	23.38
354.633	76.63
354.845	-33.96
355.057	58.2
355.268	11.09
355.48	7
355.692	58.2
355.903	-3.24
356.115	-33.96
356.326	-11.43
356.538	93.01
356.749	21.33
356.961	15.19
357.172	-15.53
357.384	39.76
357.595	82.77
357.807	-5.29
358.018	21.33
358.23	70.48
358.441	25.43
358.653	103.25
358.864	17.24
359.075	-40.11
359.287	52.05
359.498	29.52
359.709	0.85
359.921	-3.24
360.132	-15.53
360.344	4.95
360.555	-5.29
360.766	13.14
360.977	0.85
361.189	45.91
361.4	47.96
361.611	-15.53
361.823	-21.67
362.034	-66.73
362.245	-5.29
362.456	-33.96
362.667	27.48
362.879	23.38
363.09	21.33
363.301	52.05
363.512	-17.58
363.723	-40.11
363.935	64.34
364.146	31.57
364.357	-1.19
364.568	80.72
364.779	27.48
364.99	15.19
365.201	7
365.412	33.62
365.623	-17.58
365.834	17.24
366.045	33.62
366.256	37.72
366.467	31.57
366.678	-15.53
366.889	-11.43
367.1	4.95
367.311	7
367.522	7
367.733	82.77
367.944	11.09
368.155	52.05
368.366	80.72
368.577	19.29
368.788	31.57
368.999	88.92
369.209	7
369.42	23.38
369.631	105.3
369.842	17.24
370.053	47.96
370.264	43.86
370.474	60.24
370.685	-25.77
370.896	93.01
371.107	33.62
371.317	25.43
371.528	88.92
371.739	43.86
371.95	31.57
372.16	88.92
372.371	56.15
372.582	39.76
372.792	9.05
373.003	-87.21
373.214	19.29
373.424	17.24
373.635	70.48
373.846	29.52
374.056	9.05
374.267	29.52
374.477	31.57
374.688	-17.58
374.898	33.62
375.109	23.38
375.319	52.05
375.53	43.86
375.74	15.19
375.951	37.72
376.161	4.95
376.372	60.24
376.582	-9.39
376.793	109.4
377.003	0.85
377.214	23.38
377.424	66.39
377.635	-9.39
377.845	7
378.055	82.77
378.266	50
378.476	-42.15
378.686	9.05
378.897	-1.19
379.107	25.43
379.317	25.43
379.528	-19.63
379.738	25.43
379.948	19.29
380.158	2.9
380.369	4.95
380.579	136.02
380.789	21.33
380.999	45.91
381.21	45.91
381.42	27.48
381.63	-25.77
381.84	7
382.05	17.24
382.261	19.29
382.471	39.76
382.681	19.29
382.891	54.1
383.101	23.38
383.311	-1.19
383.521	84.82
383.731	84.82
383.941	78.68
384.151	60.24
384.361	-9.39
384.571	7
384.781	97.11
384.991	52.05
385.201	56.15
385.411	93.01
385.621	13.14
385.831	60.24
386.041	27.48
386.251	39.76
386.461	7
386.671	15.19
386.881	78.68
387.091	-36.01
387.301	97.11
387.511	-9.39
387.72	60.24
387.93	64.34
388.14	56.15
388.35	-21.67
388.56	86.87
388.769	93.01
388.979	93.01
389.189	7
389.399	-7.34
389.609	0.85
389.818	33.62
390.028	58.2
390.238	52.05
390.447	31.57
390.657	68.44
390.867	35.67
391.076	33.62
391.286	35.67
391.496	127.83
391.705	107.35
391.915	99.16
392.125	-19.63
392.334	50
392.544	50
392.753	21.33
392.963	21.33
393.172	56.15
393.382	-33.96
393.591	84.82
393.801	84.82
394.01	70.48
394.22	84.82
394.429	41.81
394.639	64.34
394.848	82.77
395.058	4.95
395.267	54.1
395.477	109.4
395.686	97.11
395.895	27.48
396.105	23.38
396.314	58.2
396.524	37.72
396.733	-27.82
396.942	76.63
397.152	66.39
397.361	66.39
397.57	72.53
397.78	11.09
397.989	2.9
398.198	117.59
398.407	25.43
398.617	23.38
398.826	50
399.035	52.05
399.244	50
399.453	-5.29
399.663	84.82
399.872	101.2
400.081	68.44
400.29	15.19
400.499	72.53
400.708	39.76
400.917	17.24
401.127	107.35
401.336	56.15
401.545	109.4
401.754	76.63
401.963	19.29
402.172	50
402.381	105.3
402.59	41.81
402.799	74.58
403.008	35.67
403.217	17.24
403.426	35.67
403.635	41.81
403.844	31.57
404.053	131.92
404.262	0.85
404.471	140.12
404.68	113.49
404.888	183.12
405.097	74.58
405.306	113.49
405.515	72.53
405.724	113.49
405.933	142.16
406.142	97.11
406.35	140.12
406.559	140.12
406.768	88.92
406.977	105.3
407.185	136.02
407.394	74.58
407.603	88.92
407.812	123.73
408.02	150.36
408.229	97.11
408.438	95.06
408.646	115.54
408.855	181.07
409.064	93.01
409.272	111.44
409.481	146.26
409.69	72.53
409.898	127.83
410.107	189.27
410.315	115.54
410.524	107.35
410.733	262.99
410.941	197.46
411.15	226.13
411.358	217.94
411.567	269.14
411.775	228.18
411.984	205.65
412.192	191.31
412.401	181.07
412.609	228.18
412.818	283.47
413.026	301.9
413.234	308.05
413.443	338.77
413.651	285.52
413.86	252.75
414.068	377.68
414.276	318.29
414.485	349.01
414.693	330.58
414.901	383.82
415.11	344.91
415.318	367.44
415.526	394.06
415.734	377.68
415.943	408.4
416.151	486.22
416.359	457.55
416.567	432.97
416.776	473.93
416.984	516.94
417.192	475.98
417.4	529.23
417.608	453.45
417.817	572.24
418.025	506.7
418.233	590.67
418.441	613.2
418.649	652.11
418.857	684.87
419.065	707.4
419.273	703.31
419.481	658.25
419.689	772.94
419.897	752.46
420.105	826.18
420.313	858.95
420.521	932.68
420.729	854.86
420.937	891.72
421.145	865.1
421.353	998.21
421.561	1045.32
421.769	973.64
421.977	981.83
422.185	1018.69
422.393	1182.53
422.601	1188.68
422.809	1135.43
423.017	1186.63
423.224	1229.63
423.432	1319.75
423.64	1231.68
423.848	1506.11
424.056	1481.53
424.263	1471.29
424.471	1440.58
424.679	1522.49
424.887	1547.07
425.094	1581.89
425.302	1567.55
425.51	1686.33
425.718	1653.56
425.925	1676.09
426.133	1841.98
426.341	1956.66
426.548	2128.69
426.756	2046.77
426.964	2112.31
427.171	2118.45
427.379	2323.25
427.586	2292.53
427.794	2325.3
428.001	2442.03
428.209	2513.71
428.417	2503.47
428.624	2575.15
428.832	2624.3
429.039	2562.86
429.247	2597.68
429.454	3015.46
429.662	3124.01
429.869	2958.12
430.076	3011.37
430.284	2997.03
430.491	3132.2
430.699	3361.57
430.906	3336.99
431.114	3253.03
431.321	3433.25
431.528	3537.7
431.736	3705.63
431.943	3926.81
432.15	3855.13
432.358	3851.03
432.565	3984.15
432.772	4053.78
432.979	4199.19
433.187	4342.55
433.394	4322.07
433.601	4602.64
433.808	4621.07
434.016	4758.28
434.223	4850.44
434.43	5042.95
434.637	5192.45
434.844	5360.39
435.052	5526.27
435.259	5520.13
435.466	5477.12
435.673	5352.2
435.88	5808.89
436.087	6161.14
436.294	6144.76
436.501	6011.64
436.708	6073.08
436.915	6300.41
437.122	6611.7
437.329	6458.1
437.537	6879.98
437.743	6814.45
437.95	6779.63
438.157	7095.02
438.364	7310.05
438.571	7494.37
438.778	7441.12
438.985	7967.45
439.192	7914.2
439.399	7955.16
439.606	7975.64
439.813	8241.88
440.02	8760.02
440.227	8608.47
440.433	8475.35
440.64	8784.59
440.847	8805.07
441.054	8837.84
441.261	9587.4
441.467	9501.38
441.674	9650.88
441.881	10185.4
442.088	10033.85
442.294	9919.17
442.501	10138.3
442.708	10310.33
442.914	10683.06
443.121	11164.33
443.328	10910.38
443.534	11797.15
443.741	11395.75
443.948	11319.98
444.154	11985.57
444.361	11897.5
444.568	12040.86
444.774	12229.27
444.981	12092.06
445.187	12536.47
445.394	13021.84
445.6	12958.35
445.807	14359.16
446.013	13529.73
446.22	13863.55
446.426	14602.87
446.633	14445.18
446.839	15153.77
447.046	14359.16
447.252	15288.94
447.459	15235.69
447.665	14977.65
447.871	15809.12
448.078	16429.66
448.284	15800.93
448.491	16310.88
448.697	16876.12
448.903	17324.62
449.11	17300.05
449.316	16982.61
449.522	17154.64
449.728	17527.37
449.935	18055.75
450.141	17779.27
450.347	18434.62
450.553	17656.39
450.76	18227.78
450.966	18629.18
451.172	18252.35
451.378	19006
451.584	18723.38
451.791	19194.42
451.997	19114.55
452.203	19092.02
452.409	19212.85
452.615	19151.41
452.821	18606.65
453.027	18571.83
453.233	19374.64
453.44	18487.87
453.646	18721.34
453.852	18864.69
454.058	19413.55
454.264	18776.63
454.47	19313.2
454.676	18790.97
454.882	19274.29
455.088	17625.67
455.294	18004.55
455.5	18434.62
455.705	18461.24
455.911	17697.35
456.117	17373.77
456.323	16982.61
456.529	16231.01
456.735	17015.38
456.941	16679.51
457.147	16181.85
457.352	15663.72
457.558	15592.04
457.764	15604.33
457.97	15272.56
458.176	14727.8
458.381	14707.32
458.587	14453.37
458.793	14219.9
458.999	13427.34
459.204	14469.75
459.41	14043.78
459.616	13290.12
459.821	13193.87
460.027	13185.68
460.233	12954.26
460.438	12233.37
460.644	12268.19
460.85	11844.26
461.055	11537.06
461.261	11637.41
461.466	10760.88
461.672	10414.77
461.878	11139.76
462.083	10705.59
462.289	10263.22
462.494	10324.66
462.7	9685.7
462.905	9294.54
463.111	9697.99
463.316	9675.46
463.522	9605.83
463.727	9544.39
463.932	9695.94
464.138	9409.22
464.343	9538.24
464.549	9394.89
464.754	9503.43
464.959	9390.79
465.165	9413.32
465.37	8848.08
465.575	8854.22
465.781	8874.7
465.986	9077.45
466.191	8737.49
466.397	8549.07
466.602	8366.81
466.807	8465.11
467.012	8651.47
467.218	8495.83
467.423	8211.16
467.628	8583.89
467.833	8647.38
468.038	8379.09
468.244	8284.89
468.449	8264.41
468.654	8354.52
468.859	8188.63
469.064	8280.79
469.269	7789.28
469.474	8182.49
469.679	8004.32
469.885	7910.11
470.09	7887.58
470.295	7762.65
470.5	7744.22
470.705	7674.59
470.91	7733.98
471.115	7588.58
471.32	7695.07
471.525	7637.73
471.73	7482.08
471.935	7441.12
472.139	7056.11
472.344	7232.23
472.549	7070.44
472.754	7195.37
472.959	7058.15
473.164	6879.98
473.369	6898.41
473.574	7041.77
473.778	6841.07
473.983	6904.56
474.188	6781.68
474.393	6464.24
474.598	6560.5
474.802	6404.85
475.007	6472.43
475.212	6394.61
475.417	6169.34
475.621	6187.77
475.826	6142.71
476.031	6267.64
476.235	5952.25
476.44	5980.92
476.645	6011.64
476.849	5995.26
477.054	6005.5
477.259	5894.91
477.463	5765.89
477.668	5696.25
477.872	5745.41
478.077	5569.28
478.282	5421.83
478.486	5540.61
478.691	5466.88
478.895	5440.26
479.1	5468.93
479.304	5264.13
479.509	5284.61
479.713	5341.96
479.918	5253.89
480.122	4987.66
480.326	5260.04
480.531	5202.69
480.735	5049.1
480.94	5085.96
481.144	5217.03
481.348	5065.48
481.553	5116.68
481.757	4899.59
481.961	5120.78
482.166	5114.63
482.37	5032.71
482.574	5038.86
482.778	5036.81
482.983	5180.17
483.187	5053.19
483.391	4907.79
483.595	5118.73
483.8	5067.53
484.004	5016.33
484.208	5118.73
484.412	4971.27
484.616	4954.89
484.821	5133.06
485.025	4895.5
485.229	5131.02
485.433	4954.89
485.637	4956.94
485.841	4967.18
486.045	5008.14
486.249	5022.47
486.453	5001.99
486.657	5030.66
486.861	5169.93
487.065	4950.79
487.269	5014.28
487.473	4944.65
487.677	5073.67
487.881	5032.71
488.085	5067.53
488.289	5024.52
488.493	5049.1
488.697	5094.15
488.901	5120.78
489.105	5120.78
489.309	5001.99
489.512	5190.41
489.716	5014.28
489.92	5061.38
490.124	4881.16
490.328	5290.76
490.531	5210.89
490.735	5147.4
490.939	5231.37
491.143	5188.36
491.346	5161.73
491.55	5321.48
491.754	5309.19
491.958	5204.74
492.161	5303.04
492.365	5243.65
492.569	5296.9
492.772	5323.52
492.976	5292.8
493.18	5270.28
493.383	5470.98
493.587	5411.59
493.79	5556.99
493.994	5487.36
494.197	5649.15
494.401	5538.56
494.605	5393.16
494.808	5716.73
495.012	5757.69
495.215	5815.04
495.419	5692.16
495.622	5669.63
495.825	5772.03
496.029	5669.63
496.232	6052.6
496.436	5937.91
496.639	6050.55
496.843	5792.51
497.046	6179.58
497.249	6083.32
497.453	6394.61
497.656	6294.26
497.859	6343.41
498.063	6320.88
498.266	6472.43
498.469	6529.78
498.673	6591.22
498.876	6640.37
499.079	6640.37
499.282	6705.9
499.485	6851.31
499.689	6941.42
499.892	7017.19
500.095	7054.06
500.298	7109.35
500.501	7125.74
500.705	7363.3
500.908	7330.53
501.111	7422.69
501.314	7594.72
501.517	7629.54
501.72	7783.13
501.923	7731.94
502.126	7711.46
502.329	8071.9
502.532	7908.06
502.735	7942.88
502.938	8221.4
503.141	8375
503.344	8364.76
503.547	8358.61
503.75	8596.18
503.953	8633.04
504.156	8624.85
504.359	8927.95
504.562	8706.77
504.765	9061.07
504.968	9067.21
505.17	9229
505.373	9308.87
505.576	9429.7
505.779	9423.56
505.982	9462.47
506.185	9568.96
506.387	9730.75
506.59	9861.82
506.793	9923.26
506.996	9935.55
507.198	10457.78
507.401	10377.91
507.604	10220.22
507.807	10377.91
508.009	10621.62
508.212	10681.01
508.415	10918.57
508.617	10859.18
508.82	10920.62
509.022	10842.8
509.225	11117.23
509.428	11379.37
509.63	11461.29
509.833	11569.83
510.035	11768.48
510.238	11821.73
510.44	11879.07
510.643	11993.76
510.845	12143.26
511.048	12090.01
511.25	12339.87
511.453	12135.07
511.655	12806.8
511.858	12501.65
512.06	12675.73
512.262	12804.75
512.465	13032.08
512.667	12810.9
512.87	13288.07
513.072	13443.72
513.274	13464.2
513.477	13617.8
513.679	13771.4
513.881	13863.55
514.084	13982.34
514.286	13824.64
514.488	14213.76
514.69	14533.24
514.893	14615.16
515.095	14334.59
515.297	14735.99
515.499	14731.89
515.701	15235.69
515.904	15245.93
516.106	15305.32
516.308	15280.75
516.51	15633
516.712	15284.84
516.914	15839.84
517.116	16144.99
517.318	16030.3
517.52	16149.09
517.722	16411.23
517.925	16351.84
518.127	16816.72
518.329	16708.18
518.531	16675.41
518.733	17216.08
518.935	17334.86
519.136	17400.4
519.338	17334.86
519.54	17664.58
519.742	17920.58
519.944	17599.05
520.146	18293.31
520.348	18113.09
520.55	18416.19
520.752	18184.77
520.954	18651.7
521.155	18403.9
521.357	18942.52
521.559	19038.77
521.761	19391.02
521.963	19362.35
522.164	19364.4
522.366	19325.49
522.568	19782.18
522.77	19769.9
522.971	20073
523.173	19946.02
523.375	19888.68
523.576	20068.9
523.778	20075.04
523.98	20562.46
524.181	20449.82
524.383	20707.87
524.584	20955.67
524.786	20896.28
524.988	20699.67
525.189	20990.49
525.391	21309.97
525.592	21219.86
525.794	21283.34
525.995	21199.38
526.197	21510.67
526.398	21924.36
526.6	21864.97
526.801	21918.21
527.003	21565.96
527.204	21748.23
527.406	22092.29
527.607	22123.01
527.808	22280.71
528.01	22106.63
528.211	22004.23
528.412	22354.43
528.614	22618.62
528.815	22737.4
529.016	22940.15
529.218	22581.76
529.419	22835.7
529.62	22483.45
529.822	22749.69
530.023	22899.19
530.224	22809.08
530.425	22903.29
530.626	22839.8
530.828	22739.45
531.029	23429.62
531.23	22979.06
531.431	22946.3
531.632	23325.17
531.833	23411.18
532.035	23187.96
532.236	23357.94
532.437	23634.41
532.638	23267.83
532.839	23417.33
533.04	23372.27
533.241	23161.33
533.442	23581.17
533.643	23355.89
533.844	23525.87
534.045	23779.82
534.246	23226.87
534.447	23763.43
534.648	23409.14
534.849	23499.25
535.05	23595.5
535.251	23546.35
535.451	23753.19
535.652	23587.31
535.853	23593.45
536.054	23878.12
536.255	23618.03
536.456	23538.16
536.657	23992.81
536.857	23435.76
537.058	23828.97
537.259	23882.22
537.46	23470.58
537.66	23378.42
537.861	23390.7
538.062	23609.84
538.263	23529.97
538.463	23572.97
538.664	23323.12
538.865	23532.01
539.065	23529.97
539.266	23497.2
539.466	23788.01
539.667	23521.77
539.868	23552.49
540.068	23777.77
540.269	23646.7
540.469	24068.58
540.67	23376.37
540.87	23595.5
541.071	23587.31
541.271	23675.37
541.472	23706.09
541.672	23505.39
541.873	23394.8
542.073	23173.62
542.274	23503.34
542.474	23419.38
542.675	23665.13
542.875	23734.76
543.075	23413.23
543.276	23407.09
543.476	23534.06
543.676	23489.01
543.877	23734.76
544.077	23529.97
544.277	23495.15
544.478	23329.27
544.678	23624.17
544.878	23562.73
545.078	23597.55
545.279	23198.2
545.479	23495.15
545.679	23511.53
545.879	23656.94
546.079	23564.78
546.28	23273.97
546.48	23140.85
546.68	23699.95
546.88	23458.29
547.08	22995.45
547.28	23298.55
547.48	23259.63
547.68	23558.64
547.88	23173.62
548.081	23362.03
548.281	23509.49
548.481	23224.82
548.681	23450.1
548.881	23710.19
549.081	23505.39
549.28	23034.36
549.48	23446
549.68	23300.59
549.88	23843.31
550.08	23650.8
550.28	23177.72
550.48	23187.96
550.68	23486.96
550.88	23310.83
551.08	23337.46
551.279	23511.53
551.479	23132.66
551.679	23312.88
551.879	23366.13
552.079	23425.52
552.278	23458.29
552.478	23329.27
552.678	23304.69
552.878	23337.46
553.077	23245.3
553.277	22600.19
553.477	23450.1
553.676	22991.35
553.876	23126.52
554.076	23040.5
554.275	22968.82
554.475	22680.06
554.674	23190
554.874	22977.01
555.074	22909.43
555.273	23214.58
555.473	22995.45
555.672	22886.9
555.872	22807.03
556.071	23071.22
556.271	22979.06
556.47	22858.23
556.67	22761.98
556.869	22716.92
557.068	23042.55
557.268	22563.33
557.467	22673.92
557.667	22749.69
557.866	22858.23
558.065	23009.78
558.265	22340.1
558.464	22317.57
558.663	22854.14
558.863	22520.32
559.062	23028.21
559.261	22383.1
559.461	22952.44
559.66	22465.02
559.859	22393.34
560.058	22249.99
560.258	22477.31
560.457	22323.71
560.656	22450.69
560.855	22288.9
561.054	22409.73
561.253	22092.29
561.453	22123.01
561.652	22133.25
561.851	22315.52
562.05	22168.07
562.249	22215.17
562.448	22065.67
562.647	22221.31
562.846	21701.13
563.045	21983.75
563.244	21727.75
563.443	22182.4
563.642	21760.52
563.841	21912.07
564.04	21961.22
564.239	21873.16
564.438	21527.05
564.637	21436.94
564.836	21635.6
565.035	21365.26
565.234	21750.28
565.432	21426.7
565.631	21375.5
565.83	21150.23
566.029	21543.44
566.228	21160.47
566.427	21383.7
566.625	21027.35
566.824	20990.49
567.023	21303.82
567.222	20711.96
567.42	21467.66
567.619	20961.81
567.818	21131.79
568.016	20781.59
568.215	20900.37
568.414	20785.69
568.612	20816.41
568.811	20738.58
569.01	20683.29
569.208	20314.66
569.407	20584.99
569.605	20326.94
569.804	20498.97
570.002	20167.2
570.201	20480.54
570.4	19925.54
570.598	20220.45
570.797	19878.44
570.995	19919.4
571.193	19935.78
571.392	20120.1
571.59	19855.91
571.789	19993.12
571.987	19700.26
572.186	19765.8
572.384	19599.91
572.582	19935.78
572.781	19860.01
572.979	19808.81
573.177	19434.03
573.376	19497.52
573.574	19458.6
573.772	19440.17
573.971	19245.62
574.169	19472.94
574.367	19448.36
574.565	18983.48
574.763	19112.5
574.962	18917.94
575.16	19075.63
575.358	19145.27
575.556	18936.37
575.754	19245.62
575.952	19192.37
576.151	19020.34
576.349	18737.72
576.547	18698.81
576.745	18909.75
576.943	18760.25
577.141	18645.56
577.339	18539.07
577.537	18653.75
577.735	18788.92
577.933	18696.76
578.131	18553.4
578.329	18238.02
578.527	18281.02
578.725	18291.26
578.923	18362.94
579.121	17986.11
579.319	18004.55
579.516	18291.26
579.714	18131.52
579.912	17934.92
580.11	17824.33
580.308	18164.29
580.506	17951.3
580.704	17728.07
580.901	17869.38
581.099	17883.72
581.297	17644.1
581.495	17654.34
581.692	17463.88
581.89	17615.43
582.088	17678.92
582.285	17574.47
582.483	17615.43
582.681	17607.24
582.878	17242.7
583.076	17009.23
583.274	17422.92
583.471	17218.13
583.669	17394.25
583.866	17138.26
584.064	17265.23
584.262	16835.16
584.459	17195.6
584.657	17123.92
584.854	17195.6
585.052	16863.83
585.249	17080.91
585.447	16955.99
585.644	16726.61
585.841	16910.93
586.039	17257.04
586.236	16560.73
586.434	16523.87
586.631	16497.24
586.828	16433.75
587.026	16593.5
587.223	16581.21
587.42	16501.34
587.618	16411.23
587.815	16237.15
588.012	16116.32
588.21	16267.87
588.407	16323.16
588.604	15899.23
588.801	16073.31
588.999	16009.83
589.196	15915.62
589.393	16044.64
589.59	15964.77
589.787	15743.59
589.984	15663.72
590.182	15716.97
590.379	15903.33
590.576	15817.32
590.773	15745.64
590.97	15876.71
591.167	15538.79
591.364	15585.9
591.561	15204.97
591.758	15424.11
591.955	15321.71
592.152	15352.43
592.349	15364.71
592.546	15344.24
592.743	15295.08
592.94	15161.97
593.137	15295.08
593.334	15145.58
593.531	14940.79
593.727	15108.72
593.924	15049.33
594.121	14813.81
594.318	14998.13
594.515	14797.43
594.712	14815.86
594.908	14795.38
595.105	14783.09
595.302	14690.93
595.499	14867.06
595.696	14512.76
595.892	14455.42
596.089	14424.7
596.286	14459.51
596.482	14537.34
596.679	14166.65
596.876	14410.36
597.072	14576.25
597.269	14473.85
597.466	14125.69
597.662	14123.65
597.859	14369.4
598.055	14279.29
598.252	14080.64
598.448	13888.13
598.645	14119.55
598.841	14047.87
599.038	13900.42
599.234	13894.27
599.431	13898.37
599.627	13658.76
599.824	13730.44
600.02	13609.61
600.217	13861.51
600.413	13664.9
600.609	13490.82
600.806	13386.38
601.002	13701.76
601.198	13492.87
601.395	13564.55
601.591	13380.23
601.787	13144.72
601.984	13175.44
602.18	13302.41
602.376	13265.55
602.572	13251.21
602.769	13202.06
602.965	13193.87
603.161	13126.29
603.357	12812.95
603.553	13103.76
603.75	13290.12
603.946	12780.18
604.142	12933.78
604.338	12804.75
604.534	12837.52
604.73	12792.47
604.926	12771.99
605.122	12915.34
605.318	12845.71
605.514	12663.44
605.71	12458.65
605.906	12477.08
606.102	12405.4
606.298	12645.01
606.494	12499.61
606.69	12446.36
606.886	12585.62
607.082	12143.26
607.278	12321.43
607.474	12354.2
607.67	12169.88
607.866	12065.44
608.062	12264.09
608.257	12147.36
608.453	12272.28
608.649	12194.46
608.845	11913.89
609.041	11825.82
609.236	12210.84
609.432	12069.53
609.628	12016.29
609.824	12014.24
610.019	11950.75
610.215	11936.42
610.411	12110.49
610.606	11926.18
610.802	11844.26
610.998	11678.37
611.193	11766.43
611.389	11952.8
611.584	11723.43
611.78	11725.47
611.976	11799.2
612.171	11825.82
612.367	11621.03
612.562	11510.44
612.758	11500.2
612.953	11473.57
613.149	11881.12
613.344	11520.68
613.539	11791.01
613.735	11543.21
613.93	11750.05
614.126	11311.78
614.321	11647.65
614.517	11451.05
614.712	11178.67
614.907	11455.14
615.103	11459.24
615.298	11358.89
615.493	11518.63
615.688	11145.9
615.884	11670.18
616.079	11170.47
616.274	11199.15
616.47	11379.37
616.665	11023.02
616.86	11244.2
617.055	11246.25
617.25	11156.14
617.445	11205.29
617.641	10853.04
617.836	11055.79
618.031	10943.15
618.226	11125.42
618.421	10986.16
618.616	11002.54
618.811	10984.11
619.006	10848.94
619.201	10599.09
619.396	10807.98
619.591	10777.26
619.786	10601.14
619.981	10468.02
620.176	10599.09
620.371	10332.86
620.566	10533.56
620.761	10494.65
620.956	10523.32
621.151	10164.92
621.346	10488.5
621.541	10222.27
621.735	10265.27
621.93	9931.45
622.125	10271.42
622.32	10128.06
622.515	10279.61
622.709	10019.52
622.904	9902.78
623.099	10042.04
623.294	9956.03
623.488	9702.08
623.683	9958.08
623.878	9833.15
624.072	9831.1
624.267	9661.12
624.462	9677.51
624.656	9566.92
624.851	9614.02
625.046	9290.44
625.24	9390.79
625.435	9435.85
625.629	9214.66
625.824	9374.41
626.018	9241.29
626.213	9272.01
626.407	9038.54
626.602	8915.66
626.796	8923.85
626.991	8915.66
627.185	8856.27
627.38	8708.82
627.574	8841.93
627.768	8786.64
627.963	8706.77
628.157	8680.14
628.352	8641.23
628.546	8444.63
628.74	8469.2
628.935	8444.63
629.129	8409.81
629.323	8368.85
629.517	8452.82
629.712	8493.78
629.906	8352.47
630.1	8108.76
630.294	8309.46
630.489	8129.24
630.683	8190.68
630.877	8194.78
631.071	8200.92
631.265	8174.3
631.459	7934.68
631.653	8008.41
631.848	7883.49
632.042	7674.59
632.236	7869.15
632.43	7705.31
632.624	7785.18
632.818	7619.3
633.012	7715.55
633.206	7699.17
633.4	7535.33
633.594	7529.19
633.788	7430.88
633.982	7643.87
634.176	7465.7
634.369	7488.23
634.563	7201.51
634.757	7221.99
634.951	7303.91
635.145	7238.37
635.339	7070.44
635.533	7170.79
635.726	7170.79
635.92	7027.43
636.114	7078.63
636.308	7105.26
636.501	7127.78
636.695	7023.34
636.889	6888.17
637.083	6865.64
637.276	6877.93
637.47	6886.12
637.664	6861.55
637.857	6871.79
638.051	6646.51
638.244	6753.01
638.438	6628.08
638.632	6619.89
638.825	6595.31
639.019	6464.24
639.212	6486.77
639.406	6443.76
639.599	6607.6
639.793	6433.52
639.986	6261.49
640.18	6316.79
640.373	6300.41
640.567	6185.72
640.76	6220.53
640.954	6126.33
641.147	6238.97
641.34	6114.04
641.534	6068.98
641.727	6064.89
641.92	6298.36
642.114	6093.56
642.307	6085.37
642.5	6177.53
642.694	5899
642.887	5841.66
643.08	5960.44
643.273	5858.04
643.467	5786.37
643.66	5765.89
643.853	5710.59
644.046	5800.7
644.239	5661.44
644.432	5643.01
644.626	5665.53
644.819	5538.56
645.012	5608.19
645.205	5505.79
645.398	5497.6
645.591	5530.37
645.784	5495.55
645.977	5315.33
646.17	5585.66
646.363	5229.32
646.556	5378.82
646.749	5241.61
646.942	5522.18
647.135	5128.97
647.328	5360.39
647.521	5176.07
647.714	5139.21
647.907	5309.19
648.099	5153.54
648.292	5184.26
648.485	5045
648.678	4875.02
648.871	4995.85
649.064	4877.07
649.256	4977.42
649.449	4956.94
649.642	4946.7
649.835	4858.64
650.027	4825.87
650.22	4946.7
650.413	4789
650.605	4872.97
650.798	4815.63
650.991	4815.63
651.183	4915.98
651.376	4682.51
651.568	4836.11
651.761	4739.85
651.954	4676.37
652.146	4590.35
652.339	4651.79
652.531	4606.74
652.724	4479.76
652.916	4553.49
653.109	4391.7
653.301	4385.55
653.494	4440.85
653.686	4348.69
653.879	4487.95
654.071	4358.93
654.263	4397.84
654.456	4332.31
654.648	4500.24
654.84	4315.92
655.033	4373.27
655.225	4268.82
655.417	4152.09
655.61	4088.6
655.802	4207.38
655.994	4262.68
656.186	4121.37
656.379	4139.8
656.571	4182.81
656.763	4070.17
656.955	4076.31
657.148	4078.36
657.34	3910.43
657.532	3969.82
657.724	3953.43
657.916	3896.09
658.108	4082.46
658.3	3914.52
658.492	3928.86
658.684	3738.4
658.876	3840.79
659.068	3842.84
659.26	3889.95
659.452	3758.88
659.644	3799.84
659.836	3785.5
660.028	3724.06
660.22	3705.63
660.412	3689.25
660.604	3742.49
660.796	3779.36
660.988	3693.34
661.18	3611.42
661.372	3672.86
661.563	3592.99
661.755	3658.53
661.947	3679.01
662.139	3506.98
662.331	3619.61
662.522	3564.32
662.714	3488.54
662.906	3554.08
663.097	3377.95
663.289	3439.39
663.481	3382.05
663.673	3455.78
663.864	3427.11
664.056	3423.01
664.247	3476.26
664.439	3336.99
664.631	3226.4
664.822	3427.11
665.014	3396.39
665.205	3336.99
665.397	3181.35
665.588	3150.63
665.78	3146.53
665.971	3246.88
666.163	3281.7
666.354	3271.46
666.546	3169.06
666.737	3054.37
666.929	3140.39
667.12	3144.49
667.311	3142.44
667.503	2972.46
667.694	3052.33
667.885	3124.01
668.077	3068.71
668.268	2994.98
668.459	2984.74
668.651	3009.32
668.842	3029.8
669.033	2818.86
669.224	2945.83
669.416	3033.9
669.607	2865.96
669.798	2781.99
669.989	2863.91
670.18	3029.8
670.371	2908.97
670.563	2808.62
670.754	2841.39
670.945	2859.82
671.136	2825
671.327	2874.15
671.518	2743.08
671.709	2728.75
671.9	2833.19
672.091	2818.86
672.282	2730.8
672.473	2773.8
672.664	2644.78
672.855	2685.74
673.046	2743.08
673.237	2751.28
673.428	2640.69
673.619	2702.12
673.809	2683.69
674	2734.89
674.191	2603.82
674.382	2624.3
674.573	2728.75
674.764	2671.4
674.954	2702.12
675.145	2599.73
675.336	2519.85
675.527	2620.21
675.717	2612.01
675.908	2460.46
676.099	2452.27
676.289	2589.49
676.48	2542.38
676.671	2519.85
676.861	2501.42
677.052	2480.94
677.243	2444.08
677.433	2444.08
677.624	2474.8
677.814	2487.09
678.005	2458.42
678.195	2478.9
678.386	2382.64
678.576	2358.07
678.767	2396.98
678.957	2407.22
679.148	2376.5
679.338	2329.39
679.529	2362.16
679.719	2351.92
679.909	2509.62
680.1	2399.02
680.29	2392.88
680.481	2380.59
680.671	2353.97
680.861	2448.18
681.052	2286.39
681.242	2315.06
681.432	2446.13
681.622	2306.87
681.813	2333.49
682.003	2401.07
682.193	2306.87
682.383	2227
682.573	2347.83
682.764	2351.92
682.954	2372.4
683.144	2292.53
683.334	2325.3
683.524	2270
683.714	2163.51
683.904	2282.29
684.094	2243.38
684.284	2155.32
684.474	2186.04
684.664	2186.04
684.854	2288.43
685.044	2138.93
685.234	2120.5
685.424	2194.23
685.614	2024.25
685.804	2235.19
685.994	2263.86
686.184	2188.08
686.374	2192.18
686.564	2229.04
686.753	2179.89
686.943	2120.5
687.133	2046.77
687.323	2183.99
687.513	2108.21
687.702	2171.7
687.892	2114.36
688.082	2114.36
688.272	2116.41
688.461	2054.97
688.651	2061.11
688.841	1950.52
689.03	1936.18
689.22	2054.97
689.41	1983.29
689.599	2054.97
689.789	1991.48
689.979	1940.28
690.168	1946.42
690.358	1925.94
690.547	2022.2
690.737	1932.09
690.926	1907.51
691.116	2034.49
691.305	2022.2
691.495	1905.46
691.684	1829.69
691.874	1983.29
692.063	1936.18
692.252	1954.62
692.442	1909.56
692.631	1841.98
692.82	1805.11
693.01	1819.45
693.199	1829.69
693.388	1915.7
693.578	1723.2
693.767	1858.36
693.956	1850.17
694.146	1809.21
694.335	1772.35
694.524	1837.88
694.713	1790.78
694.902	1686.33
695.092	1755.96
695.281	1745.72
695.47	1727.29
695.659	1813.31
695.848	1825.59
696.037	1786.68
696.226	1788.73
696.415	1696.57
696.604	1751.87
696.793	1694.52
696.982	1696.57
697.171	1817.4
697.36	1821.5
697.549	1577.79
697.738	1774.39
697.927	1710.91
698.116	1696.57
698.305	1655.61
698.494	1733.43
698.683	1559.36
698.872	1731.39
699.061	1577.79
699.25	1768.25
699.438	1690.43
699.627	1729.34
699.816	1669.95
700.005	1694.52
700.193	1622.84
700.382	1633.08
700.571	1686.33
700.76	1669.95
700.948	1688.38
701.137	1620.8
701.326	1735.48
701.514	1704.76
701.703	1739.58
701.892	1639.23
702.08	1706.81
702.269	1565.5
702.457	1678.14
702.646	1723.2
702.834	1551.17
703.023	1571.65
703.212	1747.77
703.4	1590.08
703.589	1573.69
703.777	1588.03
703.965	1631.04
704.154	1633.08
704.342	1641.28
704.531	1536.83
704.719	1614.65
704.907	1692.48
705.096	1571.65
705.284	1645.37
705.472	1715
705.661	1723.2
705.849	1663.8
706.037	1655.61
706.226	1692.48
706.414	1624.89
706.602	1680.19
706.79	1672
706.979	1653.56
707.167	1583.93
707.355	1590.08
707.543	1674.04
707.731	1647.42
707.919	1563.45
708.107	1669.95
708.296	1575.74
708.484	1516.35
708.672	1604.41
708.86	1694.52
709.048	1665.85
709.236	1762.11
709.424	1731.39
709.612	1723.2
709.8	1579.84
709.988	1669.95
710.176	1702.72
710.364	1635.13
710.551	1618.75
710.739	1583.93
710.927	1631.04
711.115	1631.04
711.303	1719.1
711.491	1669.95
711.679	1686.33
711.866	1631.04
712.054	1606.46
712.242	1620.8
712.43	1721.15
712.617	1651.52
712.805	1706.81
712.993	1655.61
713.181	1571.65
713.368	1688.38
713.556	1725.24
713.744	1602.36
713.931	1639.23
714.119	1702.72
714.306	1641.28
714.494	1653.56
714.682	1672
714.869	1612.6
715.057	1585.98
715.244	1686.33
715.432	1667.9
715.619	1680.19
715.807	1635.13
715.994	1688.38
716.182	1645.37
716.369	1674.04
716.556	1653.56
716.744	1700.67
716.931	1596.22
717.119	1747.77
717.306	1743.67
717.493	1672
717.681	1690.43
717.868	1680.19
718.055	1733.43
718.242	1633.08
718.43	1790.78
718.617	1674.04
718.804	1663.8
718.991	1645.37
719.179	1774.39
719.366	1721.15
719.553	1733.43
719.74	1686.33
719.927	1639.23
720.114	1760.06
720.301	1751.87
720.488	1737.53
720.676	1614.65
720.863	1614.65
721.05	1674.04
721.237	1696.57
721.424	1708.86
721.611	1678.14
721.798	1698.62
721.985	1669.95
722.172	1717.05
722.358	1692.48
722.545	1704.76
722.732	1721.15
722.919	1831.74
723.106	1598.27
723.293	1846.07
723.48	1686.33
723.667	1751.87
723.853	1899.32
724.04	1772.35
724.227	1669.95
724.414	1794.87
724.6	1743.67
724.787	1805.11
724.974	1762.11
725.161	1739.58
725.347	1663.8
725.534	1792.83
725.72	1786.68
725.907	1735.48
726.094	1772.35
726.28	1788.73
726.467	1715
726.653	1749.82
726.84	1858.36
727.027	1743.67
727.213	1729.34
727.4	1702.72
727.586	1696.57
727.773	1780.54
727.959	1760.06
728.145	1856.31
728.332	1813.31
728.518	1669.95
728.705	1835.83
728.891	1768.25
729.077	1727.29
729.264	1702.72
729.45	1782.59
729.636	1796.92
729.823	1762.11
730.009	1839.93
730.195	1841.98
730.382	1694.52
730.568	1827.64
730.754	1829.69
730.94	1786.68
731.126	1884.98
731.313	1897.27
731.499	1696.57
731.685	1817.4
731.871	1856.31
732.057	1921.85
732.243	1778.49
732.429	1645.37
732.615	1823.55
732.801	1796.92
732.987	1841.98
733.173	1755.96
733.359	1897.27
733.545	1831.74
733.731	1747.77
733.917	1844.03
734.103	1737.53
734.289	1907.51
734.475	1721.15
734.661	1854.27
734.847	1645.37
735.033	1774.39
735.219	1733.43
735.404	1813.31
735.59	1731.39
735.776	1729.34
735.962	1758.01
736.148	1743.67
736.333	1719.1
736.519	1844.03
736.705	1631.04
736.89	1839.93
737.076	1712.96
737.262	1839.93
737.447	1768.25
737.633	1794.87
737.819	1823.55
738.004	1733.43
738.19	1747.77
738.375	1868.6
738.561	1760.06
738.747	1835.83
738.932	1719.1
739.118	1801.02
739.303	1723.2
739.489	1794.87
739.674	1710.91
739.859	1669.95
740.045	1776.44
740.23	1794.87
740.416	1669.95
740.601	1706.81
740.786	1829.69
740.972	1764.15
741.157	1821.5
741.342	1725.24
741.528	1604.41
741.713	1755.96
741.898	1637.18
742.084	1704.76
742.269	1710.91
742.454	1772.35
742.639	1725.24
742.824	1661.76
743.01	1721.15
743.195	1655.61
743.38	1655.61
743.565	1612.6
743.75	1708.86
743.935	1659.71
744.12	1626.94
744.305	1559.36
744.49	1667.9
744.675	1510.21
744.86	1669.95
745.045	1657.66
745.23	1606.46
745.415	1659.71
745.6	1600.32
745.785	1540.93
745.97	1653.56
746.155	1669.95
746.34	1661.76
746.525	1499.97
746.71	1532.73
746.895	1467.2
747.079	1450.82
747.264	1522.49
747.449	1522.49
747.634	1459.01
747.819	1467.2
748.003	1424.19
748.188	1536.83
748.373	1522.49
748.557	1452.86
748.742	1526.59
748.927	1430.34
749.111	1491.77
749.296	1489.73
749.481	1375.04
749.665	1342.27
749.85	1346.37
750.034	1413.95
750.219	1538.88
750.404	1327.94
750.588	1426.24
750.773	1375.04
750.957	1336.13
751.141	1370.94
751.326	1276.74
751.51	1325.89
751.695	1313.6
751.879	1307.46
752.064	1434.43
752.248	1362.75
752.432	1309.51
752.617	1270.59
752.801	1405.76
752.985	1325.89
753.17	1237.83
753.354	1327.94
753.538	1295.17
753.722	1235.78
753.907	1266.5
754.091	1190.72
754.275	1248.07
754.459	1178.44
754.643	1190.72
754.828	1168.2
755.012	1211.2
755.196	1172.29
755.38	1155.91
755.564	1227.59
755.748	1198.92
755.932	1133.38
756.116	1061.7
756.3	1094.47
756.484	1082.18
756.668	1133.38
756.852	1145.67
757.036	1035.08
757.22	1088.32
757.404	1078.08
757.588	1102.66
757.772	1153.86
757.956	1168.2
758.14	1073.99
758.323	1088.32
758.507	963.4
758.691	998.21
758.875	1030.98
759.059	1047.37
759.242	1016.65
759.426	1073.99
759.61	985.93
759.794	965.45
759.977	969.54
760.161	1055.56
760.345	1006.41
760.528	916.3
760.712	1026.89
760.895	990.02
761.079	1014.6
761.263	883.53
761.446	854.86
761.63	996.17
761.813	983.88
761.997	932.68
762.18	858.95
762.364	965.45
762.547	955.21
762.731	834.38
762.914	983.88
763.098	981.83
763.281	879.43
763.464	875.34
763.648	875.34
763.831	893.77
764.015	899.91
764.198	891.72
764.381	865.1
764.564	850.76
764.748	817.99
764.931	906.06
765.114	789.32
765.297	920.39
765.481	768.84
765.664	889.67
765.847	863.05
766.03	883.53
766.213	924.49
766.397	809.8
766.58	854.86
766.763	895.82
766.946	844.62
767.129	764.75
767.312	752.46
767.495	832.33
767.678	848.71
767.861	793.42
768.044	867.14
768.227	863.05
768.41	760.65
768.593	856.9
768.776	846.66
768.959	803.66
769.142	893.77
769.324	703.31
769.507	824.14
769.69	820.04
769.873	772.94
770.056	787.27
770.239	842.57
770.421	736.07
770.604	809.8
770.787	754.51
770.97	774.99
771.152	707.4
771.335	807.75
771.518	713.55
771.7	754.51
771.883	766.79
772.066	738.12
772.248	758.6
772.431	721.74
772.613	645.96
772.796	682.83
772.978	734.03
773.161	695.11
773.343	727.88
773.526	779.08
773.708	664.4
773.891	588.62
774.073	684.87
774.256	674.64
774.438	785.23
774.621	654.16
774.803	572.24
774.985	596.81
775.168	633.68
775.35	602.96
775.532	576.33
775.715	635.72
775.897	588.62
776.079	596.81
776.261	658.25
776.444	592.72
776.626	613.2
776.808	570.19
776.99	588.62
777.173	562
777.355	674.64
777.537	662.35
777.719	670.54
777.901	637.77
778.083	582.48
778.265	533.33
778.447	594.76
778.629	605
778.811	619.34
778.993	557.9
779.175	549.71
779.357	572.24
779.539	523.09
779.721	613.2
779.903	605
780.085	547.66
780.267	484.17
780.449	543.57
780.631	518.99
780.812	508.75
780.994	496.46
781.176	555.85
781.358	457.55
781.54	469.84
781.721	547.66
781.903	443.21
782.085	521.04
782.267	447.31
782.448	502.61
782.63	459.6
782.812	502.61
782.993	478.03
783.175	453.45
783.357	441.17
783.538	486.22
783.72	424.78
783.901	430.93
784.083	385.87
784.264	467.79
784.446	404.3
784.627	441.17
784.809	492.37
784.99	453.45
785.172	441.17
785.353	424.78
785.535	416.59
785.716	377.68
785.897	295.76
786.079	342.86
786.26	375.63
786.441	430.93
786.623	414.54
786.804	387.92
786.985	359.25
787.167	392.02
787.348	412.5
787.529	369.49
787.71	402.26
787.891	353.1
788.073	408.4
788.254	367.44
788.435	365.39
788.616	310.1
788.797	326.48
788.978	322.38
789.159	346.96
789.34	410.45
789.522	357.2
789.703	338.77
789.884	338.77
790.065	324.43
790.246	295.76
790.427	330.58
790.607	318.29
790.788	344.91
790.969	306
791.15	359.25
791.331	349.01
791.512	357.2
791.693	260.95
791.874	281.43
792.054	324.43
792.235	387.92
792.416	316.24
792.597	236.37
792.778	287.57
792.958	293.71
793.139	303.95
793.32	310.1
793.5	250.71
793.681	389.97
793.862	314.19
794.042	322.38
794.223	207.7
794.404	287.57
794.584	316.24
794.765	254.8
794.945	189.27
795.126	308.05
795.306	281.43
795.487	285.52
795.667	283.47
795.848	314.19
796.028	342.86
796.209	228.18
796.389	342.86
796.57	314.19
796.75	271.19
796.93	248.66
797.111	291.66
797.291	244.56
797.471	226.13
797.652	297.81
797.832	250.71
798.012	262.99
798.192	211.79
798.373	234.32
798.553	191.31
798.733	222.03
798.913	226.13
799.093	217.94
799.274	203.6
799.454	254.8
799.634	205.65
799.814	226.13
799.994	252.75
800.174	281.43
800.354	265.04
800.534	201.55
800.714	301.9
800.894	156.5
801.074	195.41
801.254	162.64
801.434	230.23
801.614	187.22
801.794	211.79
801.974	666.44
802.154	293.71
802.334	148.31
802.514	148.31
802.693	205.65
802.873	197.46
803.053	203.6
803.233	222.03
803.413	248.66
803.592	140.12
803.772	168.79
803.952	78.68
804.131	262.99
804.311	189.27
804.491	172.88
804.67	232.27
804.85	193.36
805.03	140.12
805.209	183.12
805.389	254.8
805.568	146.26
805.748	215.89
805.928	150.36
806.107	209.75
806.287	250.71
806.466	262.99
806.646	183.12
806.825	148.31
807.004	226.13
807.184	148.31
807.363	230.23
807.543	213.84
807.722	131.92
807.901	148.31
808.081	148.31
808.26	189.27
808.439	68.44
808.619	207.7
808.798	156.5
808.977	174.93
809.156	174.93
809.336	203.6
809.515	203.6
809.694	127.83
809.873	93.01
810.052	234.32
810.231	176.98
810.411	101.2
810.59	113.49
810.769	113.49
810.948	174.93
811.127	90.96
811.306	205.65
811.485	123.73
811.664	150.36
811.843	68.44
812.022	269.14
812.201	121.68
812.38	152.4
812.559	146.26
812.737	119.64
812.916	86.87
813.095	70.48
813.274	140.12
813.453	144.21
813.632	154.45
813.811	236.37
813.989	164.69
814.168	121.68
814.347	156.5
814.526	138.07
814.704	162.64
814.883	140.12
815.062	93.01
815.24	146.26
815.419	150.36
815.598	127.83
815.776	86.87
815.955	156.5
816.133	64.34
816.312	136.02
816.49	203.6
816.669	33.62
816.847	154.45
817.026	54.1
817.204	136.02
817.383	131.92
817.561	129.88
817.74	78.68
817.918	115.54
818.097	154.45
818.275	160.59
818.453	113.49
818.632	129.88
818.81	88.92
818.988	54.1
819.167	117.59
819.345	88.92
819.523	117.59
819.701	88.92
819.879	121.68
820.058	119.64
820.236	123.73
820.414	47.96
820.592	164.69
820.77	115.54
820.948	97.11
821.127	142.16
821.305	47.96
821.483	93.01
821.661	154.45
821.839	78.68
822.017	103.25
822.195	13.14
822.373	131.92
822.551	60.24
822.729	154.45
822.907	15.19
823.085	93.01
823.262	138.07
823.44	107.35
823.618	80.72
823.796	58.2
823.974	144.21
824.152	70.48
824.329	107.35
824.507	103.25
824.685	97.11
824.863	93.01
825.04	50
825.218	101.2
825.396	58.2
825.574	15.19
825.751	27.48
825.929	35.67
826.107	19.29
826.284	129.88
826.462	107.35
826.639	37.72
826.817	56.15
826.994	39.76
827.172	109.4
827.349	72.53
827.527	93.01
827.704	121.68
827.882	121.68
828.059	125.78
828.237	103.25
828.414	54.1
828.591	37.72
828.769	115.54
828.946	121.68
829.124	78.68
829.301	107.35
829.478	99.16
829.655	90.96
829.833	97.11
830.01	80.72
830.187	54.1
830.364	33.62
830.542	95.06
830.719	84.82
830.896	99.16
831.073	45.91
831.25	76.63
831.427	158.55
831.604	68.44
831.782	101.2
831.959	70.48
832.136	72.53
832.313	88.92
832.49	31.57
832.667	103.25
832.844	64.34
833.021	84.82
833.198	84.82
833.374	119.64
833.551	19.29
833.728	88.92
833.905	88.92
834.082	19.29
834.259	62.29
834.436	115.54
834.612	52.05
834.789	84.82
834.966	62.29
835.143	146.26
835.319	72.53
835.496	76.63
835.673	9.05
835.85	115.54
836.026	127.83
836.203	56.15
836.38	35.67
836.556	82.77
836.733	21.33
836.909	138.07
837.086	72.53
837.262	41.81
837.439	90.96
837.616	27.48
837.792	62.29
837.968	47.96
838.145	19.29
838.321	82.77
838.498	111.44
838.674	76.63
838.851	60.24
839.027	29.52
839.203	113.49
839.38	47.96
839.556	-7.34
839.732	56.15
839.909	25.43
840.085	144.21
840.261	52.05
840.437	-48.3
840.614	-13.48
840.79	60.24
840.966	66.39
841.142	84.82
841.318	84.82
841.494	-5.29
841.671	72.53
841.847	15.19
842.023	-23.72
842.199	66.39
842.375	64.34
842.551	23.38
842.727	105.3
842.903	115.54
843.079	27.48
843.255	58.2
843.431	23.38
843.607	-1.19
843.783	43.86
843.959	2.9
844.134	66.39
844.31	45.91
844.486	52.05
844.662	35.67
844.838	50
845.013	107.35
845.189	60.24
845.365	-13.48
845.541	23.38
845.716	105.3
845.892	78.68
846.068	35.67
846.244	64.34
846.419	25.43
846.595	56.15
846.77	74.58
846.946	117.59
847.122	60.24
847.297	0.85
847.473	99.16
847.648	41.81
847.824	111.44
847.999	-7.34
848.175	95.06
848.35	19.29
848.526	7
848.701	84.82
848.876	95.06
849.052	41.81
849.227	43.86
849.403	21.33
849.578	74.58
849.753	23.38
849.929	0.85
850.104	-36.01
850.279	84.82
850.454	39.76
850.63	72.53
850.805	72.53
850.98	23.38
851.155	58.2
851.33	54.1
851.505	21.33
851.681	7
851.856	-56.49
852.031	52.05
852.206	11.09
852.381	-9.39
852.556	66.39
852.731	-31.91
852.906	15.19
853.081	13.14
853.256	23.38
853.431	64.34
853.606	4.95
853.781	47.96
853.956	-5.29
854.131	47.96
854.305	54.1
854.48	27.48
854.655	-15.53
854.83	2.9
855.005	-9.39
855.18	27.48
855.354	33.62
855.529	37.72
855.704	-21.67
855.879	47.96
856.053	0.85
856.228	45.91
856.403	56.15
856.577	109.4
856.752	9.05
856.926	-9.39
857.101	-3.24
857.276	27.48
857.45	41.81
857.625	19.29
857.799	4.95
857.974	37.72
858.148	-7.34
858.323	9.05
858.497	39.76
858.672	-5.29
858.846	-13.48
859.02	7
859.195	25.43
859.369	-11.43
859.543	31.57
859.718	-19.63
859.892	-17.58
860.066	35.67
860.241	-11.43
860.415	-5.29
860.589	0.85
860.763	-7.34
860.938	2.9
861.112	45.91
861.286	11.09
861.46	-23.72
861.634	93.01
861.808	50
861.982	31.57
862.157	62.29
862.331	-5.29
862.505	25.43
862.679	-13.48
862.853	31.57
863.027	21.33
863.201	7
863.375	13.14
863.549	50
863.722	-5.29
863.896	88.92
864.07	21.33
864.244	13.14
864.418	13.14
864.592	-9.39
864.766	21.33
864.939	41.81
865.113	47.96
865.287	56.15
865.461	0.85
865.634	54.1
865.808	25.43
865.982	31.57
866.156	-44.2
866.329	19.29
866.503	50
866.676	-19.63
866.85	23.38
867.024	54.1
867.197	45.91
867.371	52.05
867.544	-23.72
867.718	31.57
867.891	29.52
868.065	9.05
868.238	47.96
868.412	68.44
868.585	-25.77
868.759	-54.44
868.932	9.05
869.105	4.95
869.279	-38.06
869.452	-3.24
869.625	7
869.799	15.19
869.972	7
870.145	17.24
870.319	15.19
870.492	-42.15
870.665	-17.58
870.838	56.15
871.011	2.9
871.185	-9.39
871.358	2.9
871.531	25.43
871.704	43.86
871.877	0.85
872.05	21.33
872.223	-58.54
872.396	64.34
872.569	-33.96
872.742	17.24
872.915	-68.78
873.088	47.96
873.261	-7.34
873.434	-9.39
873.607	21.33
873.78	95.06
873.953	107.35
874.126	47.96
874.299	52.05
874.471	31.57
874.644	25.43
874.817	39.76
874.99	43.86
875.163	27.48
875.335	33.62
875.508	11.09
875.681	-21.67
875.853	41.81
876.026	-13.48
876.199	43.86
876.371	35.67
876.544	47.96
876.717	-25.77
876.889	-1.19
877.062	-19.63
877.234	-19.63
877.407	56.15
877.579	-74.92
877.752	66.39
877.924	15.19
878.097	19.29
878.269	9.05
878.442	-17.58
878.614	11.09
878.786	37.72
878.959	29.52
879.131	-27.82
879.303	-52.39
879.476	-62.63
879.648	2.9
879.82	-72.87
879.993	0.85
880.165	25.43
880.337	-17.58
880.509	17.24
880.681	11.09
880.854	-48.3
881.026	21.33
881.198	41.81
881.37	-31.91
881.542	9.05
881.714	27.48
881.886	-7.34
882.058	-29.87
882.23	56.15
882.402	-11.43
882.574	7
882.746	33.62
882.918	35.67
883.09	13.14
883.262	7
883.434	-3.24
883.606	-72.87
883.778	17.24
883.95	82.77
884.122	-62.63
884.293	13.14
884.465	-33.96
884.637	68.44
884.809	-17.58
884.98	41.81
885.152	43.86
885.324	-25.77
885.496	-5.29
885.667	-36.01
885.839	33.62
886.011	70.48
886.182	29.52
886.354	-5.29
886.525	-23.72
886.697	90.96
886.869	90.96
887.04	41.81
887.212	41.81
887.383	105.3
887.555	-27.82
887.726	0.85
887.897	72.53
888.069	45.91
888.24	-87.21
888.412	47.96
888.583	25.43
888.754	43.86
888.926	-89.26
889.097	-9.39
889.268	-31.91
889.44	4.95
889.611	-15.53
889.782	-83.11
889.953	-3.24
890.125	84.82
890.296	-56.49
890.467	39.76
890.638	-42.15
890.809	33.62
890.98	25.43
891.151	-13.48
891.323	17.24
891.494	-56.49
891.665	-21.67
891.836	-9.39
892.007	33.62
892.178	50
892.349	66.39
892.52	76.63
892.691	-27.82
892.862	-33.96
893.032	-48.3
893.203	9.05
893.374	-38.06
893.545	2.9
893.716	4.95
893.887	39.76
894.057	-48.3
894.228	-29.87
894.399	-9.39
894.57	-40.11
894.74	-1.19
894.911	21.33
895.082	-58.54
895.253	-36.01
895.423	-42.15
895.594	35.67
895.764	-56.49
895.935	-29.87
896.106	-25.77
896.276	-11.43
896.447	-13.48
896.617	84.82
896.788	-13.48
896.958	78.68
897.129	45.91
897.299	35.67
897.47	-5.29
897.64	-46.25
897.81	-72.87
897.981	31.57
898.151	-27.82
898.322	33.62
898.492	52.05
898.662	47.96
898.832	-31.91
899.003	-7.34
899.173	43.86
899.343	54.1
899.513	23.38
