Data from USB4F104151__51__13-11-27-960.txt Node

Date: Fri Mar 14 13:11:27 EDT 2025
User: louis
Spectrometer: USB4F10415
Trigger mode: 4
Integration Time (sec): 2.000000E-2
Scans to average: 1
Electric dark correction enabled: true
Nonlinearity correction enabled: false
Boxcar width: 0
XAxis mode: Wavelengths
Number of Pixels in Spectrum: 3648
>>>>>Begin Spectral Data<<<<<
178.204	-62.12
178.424	-62.12
178.644	-62.12
178.864	-131.75
179.084	-111.27
179.304	-29.35
179.524	44.37
179.744	-35.5
179.964	-51.88
180.184	-15.02
180.404	-2.73
180.624	-12.97
180.844	50.52
181.064	34.13
181.283	38.23
181.503	17.75
181.723	-37.55
181.943	-25.26
182.163	109.91
182.383	-17.07
182.602	-15.02
182.822	40.28
183.042	32.08
183.262	-27.31
183.482	-21.16
183.701	-74.41
183.921	5.46
184.141	-103.08
184.361	-25.26
184.58	21.85
184.8	17.75
185.02	44.37
185.239	103.76
185.459	42.32
185.679	68.95
185.898	42.32
186.118	50.52
186.338	-2.73
186.557	-43.69
186.777	-45.74
186.997	27.99
187.216	-37.55
187.436	54.61
187.655	7.51
187.875	11.61
188.095	52.56
188.314	3.41
188.534	23.89
188.753	52.56
188.973	27.99
189.192	44.37
189.412	-6.83
189.631	75.09
189.851	52.56
190.07	-35.5
190.29	-23.21
190.509	34.13
190.729	-8.87
190.948	34.13
191.168	13.65
191.387	-0.68
191.607	77.14
191.826	60.76
192.045	95.57
192.265	40.28
192.484	93.52
192.704	13.65
192.923	-27.31
193.142	32.08
193.362	-55.98
193.581	-10.92
193.8	-31.4
194.02	-2.73
194.239	85.33
194.458	38.23
194.678	-23.21
194.897	30.04
195.116	27.99
195.335	-51.88
195.555	7.51
195.774	75.09
195.993	17.75
196.212	48.47
196.432	-47.79
196.651	15.7
196.87	-15.02
197.089	77.14
197.308	15.7
197.528	19.8
197.747	30.04
197.966	93.52
198.185	11.61
198.404	-96.94
198.623	54.61
198.842	15.7
199.062	-2.73
199.281	19.8
199.5	-41.64
199.719	81.24
199.938	-6.83
200.157	27.99
200.376	60.76
200.595	58.71
200.814	38.23
201.033	-27.31
201.252	-6.83
201.471	-47.79
201.69	48.47
201.909	73.04
202.128	40.28
202.347	60.76
202.566	46.42
202.785	73.04
203.004	32.08
203.223	109.91
203.442	64.85
203.661	-0.68
203.879	36.18
204.098	21.85
204.317	-41.64
204.536	36.18
204.755	-41.64
204.974	-47.79
205.193	-12.97
205.411	64.85
205.63	36.18
205.849	32.08
206.068	21.85
206.287	9.56
206.505	79.19
206.724	-0.68
206.943	44.37
207.162	21.85
207.381	77.14
207.599	5.46
207.818	3.41
208.037	48.47
208.255	44.37
208.474	36.18
208.693	77.14
208.911	44.37
209.13	3.41
209.349	19.8
209.567	-8.87
209.786	42.32
210.005	52.56
210.223	3.41
210.442	36.18
210.661	46.42
210.879	-12.97
211.098	-0.68
211.316	15.7
211.535	56.66
211.753	13.65
211.972	15.7
212.191	21.85
212.409	-4.78
212.628	13.65
212.846	40.28
213.065	34.13
213.283	44.37
213.502	-15.02
213.72	-2.73
213.938	-12.97
214.157	-8.87
214.375	58.71
214.594	114
214.812	89.43
215.031	-37.55
215.249	-49.83
215.467	89.43
215.686	-19.11
215.904	23.89
216.122	13.65
216.341	83.28
216.559	48.47
216.778	40.28
216.996	89.43
217.214	77.14
217.432	-6.83
217.651	46.42
217.869	-51.88
218.087	-0.68
218.306	25.94
218.524	71
218.742	-41.64
218.96	30.04
219.179	30.04
219.397	11.61
219.615	73.04
219.833	54.61
220.051	32.08
220.27	66.9
220.488	89.43
220.706	34.13
220.924	30.04
221.142	30.04
221.36	11.61
221.578	23.89
221.796	48.47
222.015	105.81
222.233	3.41
222.451	38.23
222.669	-31.4
222.887	21.85
223.105	-10.92
223.323	-4.78
223.541	71
223.759	19.8
223.977	23.89
224.195	-37.55
224.413	36.18
224.631	11.61
224.849	48.47
225.067	19.8
225.285	77.14
225.503	15.7
225.721	-33.45
225.939	-62.12
226.157	-10.92
226.375	150.87
226.592	-68.27
226.81	44.37
227.028	-53.93
227.246	64.85
227.464	-31.4
227.682	19.8
227.9	-21.16
228.117	23.89
228.335	-21.16
228.553	60.76
228.771	40.28
228.989	-23.21
229.206	25.94
229.424	60.76
229.642	13.65
229.86	-25.26
230.077	60.76
230.295	81.24
230.513	19.8
230.731	54.61
230.948	30.04
231.166	56.66
231.384	77.14
231.601	-27.31
231.819	79.19
232.037	54.61
232.254	48.47
232.472	13.65
232.689	52.56
232.907	30.04
233.125	-6.83
233.342	58.71
233.56	114
233.777	-15.02
233.995	48.47
234.213	7.51
234.43	-78.51
234.648	79.19
234.865	-17.07
235.083	9.56
235.3	3.41
235.518	64.85
235.735	81.24
235.953	79.19
236.17	-6.83
236.388	3.41
236.605	21.85
236.822	-2.73
237.04	107.86
237.257	-53.93
237.475	-37.55
237.692	-4.78
237.909	-19.11
238.127	27.99
238.344	64.85
238.562	32.08
238.779	30.04
238.996	58.71
239.214	54.61
239.431	50.52
239.648	40.28
239.865	19.8
240.083	52.56
240.3	56.66
240.517	11.61
240.735	81.24
240.952	56.66
241.169	36.18
241.386	-6.83
241.603	21.85
241.821	13.65
242.038	1.37
242.255	3.41
242.472	17.75
242.689	-25.26
242.907	73.04
243.124	19.8
243.341	-53.93
243.558	1.37
243.775	9.56
243.992	-25.26
244.209	68.95
244.426	120.15
244.643	5.46
244.86	-49.83
245.078	58.71
245.295	13.65
245.512	19.8
245.729	27.99
245.946	-35.5
246.163	-41.64
246.38	25.94
246.597	44.37
246.814	21.85
247.031	79.19
247.248	81.24
247.464	30.04
247.681	5.46
247.898	13.65
248.115	23.89
248.332	-33.45
248.549	46.42
248.766	27.99
248.983	32.08
249.2	19.8
249.417	-19.11
249.633	9.56
249.85	40.28
250.067	-25.26
250.284	36.18
250.501	52.56
250.717	27.99
250.934	13.65
251.151	1.37
251.368	-23.21
251.585	32.08
251.801	17.75
252.018	54.61
252.235	15.7
252.451	-45.74
252.668	-2.73
252.885	95.57
253.102	7.51
253.318	15.7
253.535	7.51
253.752	-53.93
253.968	27.99
254.185	-31.4
254.401	3.41
254.618	46.42
254.835	44.37
255.051	3.41
255.268	-10.92
255.484	-2.73
255.701	71
255.917	38.23
256.134	-27.31
256.351	-17.07
256.567	-101.03
256.784	9.56
257	-2.73
257.217	-21.16
257.433	21.85
257.65	36.18
257.866	15.7
258.082	-31.4
258.299	56.66
258.515	-21.16
258.732	13.65
258.948	5.46
259.165	15.7
259.381	-82.6
259.597	107.86
259.814	-35.5
260.03	11.61
260.246	34.13
260.463	-8.87
260.679	58.71
260.895	42.32
261.112	-10.92
261.328	-6.83
261.544	1.37
261.761	60.76
261.977	95.57
262.193	40.28
262.409	7.51
262.626	68.95
262.842	23.89
263.058	-15.02
263.274	-0.68
263.49	-29.35
263.707	13.65
263.923	79.19
264.139	17.75
264.355	36.18
264.571	87.38
264.787	7.51
265.004	68.95
265.22	79.19
265.436	-29.35
265.652	68.95
265.868	46.42
266.084	-6.83
266.3	91.48
266.516	-19.11
266.732	38.23
266.948	81.24
267.164	52.56
267.38	75.09
267.596	27.99
267.812	66.9
268.028	5.46
268.244	-29.35
268.46	-21.16
268.676	27.99
268.892	83.28
269.108	64.85
269.324	-12.97
269.54	11.61
269.756	21.85
269.972	-19.11
270.188	5.46
270.403	60.76
270.619	21.85
270.835	-51.88
271.051	56.66
271.267	-21.16
271.483	-35.5
271.698	3.41
271.914	9.56
272.13	17.75
272.346	-6.83
272.562	73.04
272.777	54.61
272.993	40.28
273.209	3.41
273.425	21.85
273.64	40.28
273.856	-51.88
274.072	34.13
274.287	-90.79
274.503	58.71
274.719	48.47
274.934	32.08
275.15	-4.78
275.366	58.71
275.581	-10.92
275.797	93.52
276.012	60.76
276.228	81.24
276.444	17.75
276.659	52.56
276.875	-55.98
277.09	11.61
277.306	-19.11
277.521	79.19
277.737	3.41
277.952	99.67
278.168	-15.02
278.383	-4.78
278.599	-29.35
278.814	34.13
279.03	-58.03
279.245	7.51
279.461	-6.83
279.676	44.37
279.892	-53.93
280.107	5.46
280.322	17.75
280.538	77.14
280.753	62.8
280.969	52.56
281.184	40.28
281.399	21.85
281.615	11.61
281.83	-27.31
282.045	13.65
282.26	1.37
282.476	-12.97
282.691	27.99
282.906	1.37
283.122	-12.97
283.337	89.43
283.552	5.46
283.767	-31.4
283.983	-29.35
284.198	-17.07
284.413	40.28
284.628	-10.92
284.843	-10.92
285.058	7.51
285.274	-12.97
285.489	11.61
285.704	44.37
285.919	-41.64
286.134	3.41
286.349	60.76
286.564	-10.92
286.779	64.85
286.995	30.04
287.21	44.37
287.425	32.08
287.64	34.13
287.855	44.37
288.07	52.56
288.285	-21.16
288.5	11.61
288.715	66.9
288.93	-23.21
289.145	17.75
289.36	3.41
289.575	32.08
289.79	1.37
290.004	-43.69
290.219	9.56
290.434	-8.87
290.649	15.7
290.864	-17.07
291.079	15.7
291.294	89.43
291.509	66.9
291.724	54.61
291.938	36.18
292.153	97.62
292.368	-58.03
292.583	-0.68
292.798	38.23
293.012	-19.11
293.227	36.18
293.442	-19.11
293.657	-19.11
293.871	77.14
294.086	-53.93
294.301	36.18
294.516	81.24
294.73	48.47
294.945	23.89
295.16	-35.5
295.374	44.37
295.589	11.61
295.804	-31.4
296.018	44.37
296.233	7.51
296.447	34.13
296.662	68.95
296.877	32.08
297.091	66.9
297.306	23.89
297.52	3.41
297.735	44.37
297.949	-6.83
298.164	38.23
298.378	-2.73
298.593	1.37
298.807	15.7
299.022	-31.4
299.236	23.89
299.451	-70.31
299.665	40.28
299.88	68.95
300.094	9.56
300.309	25.94
300.523	27.99
300.737	38.23
300.952	-19.11
301.166	87.38
301.381	116.05
301.595	25.94
301.809	-6.83
302.024	91.48
302.238	-6.83
302.452	5.46
302.667	-12.97
302.881	83.28
303.095	68.95
303.309	107.86
303.524	34.13
303.738	5.46
303.952	-31.4
304.166	71
304.381	-39.59
304.595	52.56
304.809	30.04
305.023	-6.83
305.237	9.56
305.452	-19.11
305.666	38.23
305.88	-6.83
306.094	103.76
306.308	27.99
306.522	-27.31
306.736	46.42
306.95	5.46
307.164	-15.02
307.379	-4.78
307.593	126.29
307.807	71
308.021	25.94
308.235	32.08
308.449	19.8
308.663	-51.88
308.877	-27.31
309.091	48.47
309.305	91.48
309.519	21.85
309.733	62.8
309.947	-45.74
310.161	27.99
310.374	-27.31
310.588	36.18
310.802	-23.21
311.016	50.52
311.23	64.85
311.444	32.08
311.658	-49.83
311.872	97.62
312.085	21.85
312.299	54.61
312.513	42.32
312.727	40.28
312.941	-4.78
313.154	-47.79
313.368	40.28
313.582	-17.07
313.796	85.33
314.009	89.43
314.223	34.13
314.437	-21.16
314.651	46.42
314.864	9.56
315.078	-6.83
315.292	15.7
315.505	5.46
315.719	36.18
315.933	30.04
316.146	19.8
316.36	71
316.573	19.8
316.787	23.89
317.001	52.56
317.214	-8.87
317.428	54.61
317.641	34.13
317.855	27.99
318.068	42.32
318.282	136.53
318.495	15.7
318.709	15.7
318.922	-17.07
319.136	75.09
319.349	-10.92
319.563	-2.73
319.776	60.76
319.99	36.18
320.203	7.51
320.417	34.13
320.63	-6.83
320.843	25.94
321.057	21.85
321.27	-23.21
321.483	-2.73
321.697	-41.64
321.91	-10.92
322.124	3.41
322.337	-70.31
322.55	27.99
322.763	-41.64
322.977	27.99
323.19	13.65
323.403	-15.02
323.617	21.85
323.83	60.76
324.043	21.85
324.256	15.7
324.469	21.85
324.683	27.99
324.896	-15.02
325.109	44.37
325.322	-27.31
325.535	68.95
325.748	-0.68
325.962	83.28
326.175	42.32
326.388	66.9
326.601	52.56
326.814	-27.31
327.027	62.8
327.24	54.61
327.453	-0.68
327.666	32.08
327.879	62.8
328.092	5.46
328.305	-45.74
328.518	-23.21
328.731	-35.5
328.944	-43.69
329.157	13.65
329.37	44.37
329.583	23.89
329.796	52.56
330.009	-21.16
330.222	27.99
330.435	77.14
330.648	-0.68
330.861	-15.02
331.073	91.48
331.286	36.18
331.499	25.94
331.712	15.7
331.925	11.61
332.138	38.23
332.35	77.14
332.563	7.51
332.776	60.76
332.989	27.99
333.202	9.56
333.414	-21.16
333.627	-2.73
333.84	-6.83
334.053	-4.78
334.265	-60.07
334.478	-27.31
334.691	30.04
334.903	-25.26
335.116	27.99
335.329	34.13
335.541	25.94
335.754	54.61
335.966	1.37
336.179	79.19
336.392	15.7
336.604	38.23
336.817	42.32
337.029	1.37
337.242	36.18
337.454	83.28
337.667	-8.87
337.88	48.47
338.092	64.85
338.305	34.13
338.517	40.28
338.729	52.56
338.942	32.08
339.154	-4.78
339.367	9.56
339.579	25.94
339.792	-17.07
340.004	44.37
340.217	75.09
340.429	5.46
340.641	-2.73
340.854	25.94
341.066	11.61
341.278	97.62
341.491	87.38
341.703	-19.11
341.915	23.89
342.128	-25.26
342.34	-4.78
342.552	46.42
342.764	-21.16
342.977	56.66
343.189	97.62
343.401	71
343.613	36.18
343.826	60.76
344.038	-51.88
344.25	38.23
344.462	-10.92
344.674	87.38
344.886	-58.03
345.099	44.37
345.311	-43.69
345.523	50.52
345.735	79.19
345.947	87.38
346.159	73.04
346.371	27.99
346.583	5.46
346.795	58.71
347.007	-12.97
347.219	85.33
347.431	-4.78
347.643	-31.4
347.855	-21.16
348.067	3.41
348.279	5.46
348.491	79.19
348.703	66.9
348.915	32.08
349.127	42.32
349.339	27.99
349.551	-17.07
349.763	27.99
349.975	38.23
350.187	27.99
350.399	13.65
350.61	73.04
350.822	15.7
351.034	11.61
351.246	126.29
351.458	64.85
351.669	27.99
351.881	114
352.093	105.81
352.305	-2.73
352.517	13.65
352.728	75.09
352.94	48.47
353.152	15.7
353.363	-0.68
353.575	68.95
353.787	93.52
353.999	71
354.21	40.28
354.422	-39.59
354.633	3.41
354.845	30.04
355.057	36.18
355.268	34.13
355.48	7.51
355.692	13.65
355.903	38.23
356.115	38.23
356.326	23.89
356.538	46.42
356.749	30.04
356.961	-2.73
357.172	38.23
357.384	1.37
357.595	109.91
357.807	-21.16
358.018	19.8
358.23	-53.93
358.441	36.18
358.653	56.66
358.864	3.41
359.075	83.28
359.287	25.94
359.498	101.72
359.709	-10.92
359.921	3.41
360.132	36.18
360.344	5.46
360.555	1.37
360.766	-4.78
360.977	-39.59
361.189	15.7
361.4	-33.45
361.611	-10.92
361.823	-4.78
362.034	64.85
362.245	46.42
362.456	-29.35
362.667	23.89
362.879	54.61
363.09	68.95
363.301	-2.73
363.512	23.89
363.723	66.9
363.935	11.61
364.146	9.56
364.357	13.65
364.568	77.14
364.779	-29.35
364.99	97.62
365.201	56.66
365.412	60.76
365.623	58.71
365.834	62.8
366.045	87.38
366.256	79.19
366.467	77.14
366.678	77.14
366.889	-66.22
367.1	-12.97
367.311	48.47
367.522	32.08
367.733	27.99
367.944	73.04
368.155	111.96
368.366	7.51
368.577	56.66
368.788	23.89
368.999	-62.12
369.209	46.42
369.42	-49.83
369.631	83.28
369.842	64.85
370.053	30.04
370.264	-2.73
370.474	-10.92
370.685	15.7
370.896	27.99
371.107	77.14
371.317	87.38
371.528	58.71
371.739	85.33
371.95	32.08
372.16	-0.68
372.371	-37.55
372.582	25.94
372.792	50.52
373.003	1.37
373.214	89.43
373.424	25.94
373.635	48.47
373.846	-49.83
374.056	-51.88
374.267	52.56
374.477	52.56
374.688	85.33
374.898	19.8
375.109	56.66
375.319	-15.02
375.53	-12.97
375.74	30.04
375.951	-2.73
376.161	-41.64
376.372	101.72
376.582	44.37
376.793	56.66
377.003	9.56
377.214	44.37
377.424	36.18
377.635	-4.78
377.845	-8.87
378.055	3.41
378.266	7.51
378.476	-19.11
378.686	13.65
378.897	60.76
379.107	44.37
379.317	-2.73
379.528	9.56
379.738	36.18
379.948	79.19
380.158	58.71
380.369	11.61
380.579	5.46
380.789	71
380.999	-0.68
381.21	64.85
381.42	40.28
381.63	-8.87
381.84	-10.92
382.05	97.62
382.261	64.85
382.471	124.24
382.681	54.61
382.891	48.47
383.101	-12.97
383.311	-37.55
383.521	-0.68
383.731	-4.78
383.941	-12.97
384.151	42.32
384.361	-27.31
384.571	40.28
384.781	87.38
384.991	5.46
385.201	77.14
385.411	36.18
385.621	1.37
385.831	36.18
386.041	15.7
386.251	17.75
386.461	95.57
386.671	17.75
386.881	23.89
387.091	-37.55
387.301	36.18
387.511	30.04
387.72	62.8
387.93	50.52
388.14	-19.11
388.35	13.65
388.56	79.19
388.769	15.7
388.979	-31.4
389.189	44.37
389.399	95.57
389.609	-12.97
389.818	60.76
390.028	-27.31
390.238	-25.26
390.447	-58.03
390.657	124.24
390.867	-10.92
391.076	-23.21
391.286	93.52
391.496	27.99
391.705	58.71
391.915	66.9
392.125	-12.97
392.334	56.66
392.544	50.52
392.753	9.56
392.963	118.1
393.172	77.14
393.382	7.51
393.591	71
393.801	32.08
394.01	128.34
394.22	85.33
394.429	109.91
394.639	34.13
394.848	38.23
395.058	89.43
395.267	60.76
395.477	60.76
395.686	52.56
395.895	56.66
396.105	105.81
396.314	13.65
396.524	42.32
396.733	85.33
396.942	91.48
397.152	54.61
397.361	5.46
397.57	71
397.78	46.42
397.989	50.52
398.198	126.29
398.407	25.94
398.617	52.56
398.826	93.52
399.035	40.28
399.244	52.56
399.453	46.42
399.663	103.76
399.872	83.28
400.081	32.08
400.29	1.37
400.499	-21.16
400.708	87.38
400.917	38.23
401.127	13.65
401.336	85.33
401.545	30.04
401.754	54.61
401.963	77.14
402.172	38.23
402.381	17.75
402.59	-19.11
402.799	85.33
403.008	103.76
403.217	27.99
403.426	75.09
403.635	3.41
403.844	15.7
404.053	91.48
404.262	-4.78
404.471	128.34
404.68	111.96
404.888	56.66
405.097	52.56
405.306	54.61
405.515	60.76
405.724	126.29
405.933	81.24
406.142	79.19
406.35	124.24
406.559	40.28
406.768	27.99
406.977	130.39
407.185	99.67
407.394	71
407.603	144.72
407.812	144.72
408.02	107.86
408.229	163.15
408.438	114
408.646	144.72
408.855	101.72
409.064	97.62
409.272	111.96
409.481	185.68
409.69	95.57
409.898	97.62
410.107	40.28
410.315	173.39
410.524	93.52
410.733	157.01
410.941	150.87
411.15	202.07
411.358	210.26
411.567	161.11
411.775	101.72
411.984	200.02
412.192	161.11
412.401	195.92
412.609	228.69
412.818	234.83
413.026	230.74
413.234	183.63
413.443	238.93
413.651	216.4
413.86	279.89
414.068	290.13
414.276	310.61
414.485	396.62
414.693	253.27
414.901	331.09
415.11	310.61
415.318	314.7
415.526	306.51
415.734	380.24
415.943	316.75
416.151	443.73
416.359	419.15
416.567	376.14
416.776	408.91
416.984	415.05
417.192	431.44
417.4	472.4
417.608	449.87
417.817	480.59
418.025	464.21
418.233	589.13
418.441	562.51
418.649	593.23
418.857	560.46
419.065	597.32
419.273	564.56
419.481	593.23
419.689	601.42
419.897	728.39
420.105	724.3
420.313	757.07
420.521	699.72
420.729	793.93
420.937	886.09
421.145	867.66
421.353	748.87
421.561	896.33
421.769	906.57
421.977	1000.77
422.185	902.47
422.393	1015.11
422.601	961.86
422.809	1094.98
423.017	1097.03
423.224	1125.7
423.432	1144.13
423.64	1174.85
423.848	1289.54
424.056	1238.34
424.263	1363.26
424.471	1365.31
424.679	1301.83
424.887	1443.14
425.094	1449.28
425.302	1523.01
425.51	1606.97
425.718	1596.73
425.925	1572.16
426.133	1781.05
426.341	1785.15
426.548	1817.91
426.756	1873.21
426.964	1799.48
427.171	1944.89
427.379	1938.74
427.586	2012.47
427.794	2118.97
428.001	2202.93
428.209	2340.15
428.417	2178.36
428.624	2323.76
428.832	2463.02
429.039	2393.39
429.247	2477.36
429.454	2600.24
429.662	2739.5
429.869	2544.94
430.076	2802.99
430.284	2821.42
430.491	2823.47
430.699	2968.87
430.906	3032.36
431.114	3036.45
431.321	3118.37
431.528	3317.03
431.736	3444
431.943	3648.8
432.15	3429.66
432.358	3597.6
432.565	3829.02
432.772	3603.74
432.979	3751.2
433.187	3947.8
433.394	3863.83
433.601	4222.23
433.808	4277.52
434.016	4189.46
434.223	4216.09
434.43	4631.82
434.637	4605.2
434.844	4771.08
435.052	4885.77
435.259	4822.28
435.466	5027.08
435.673	4910.35
435.88	5319.94
436.087	5596.42
436.294	5571.84
436.501	5397.76
436.708	5467.39
436.915	5782.78
437.122	5821.69
437.329	5876.99
437.537	6016.25
437.743	6321.4
437.95	6329.59
438.157	6352.12
438.364	6634.74
438.571	6616.3
438.778	6671.6
438.985	7437.54
439.192	6995.18
439.399	7187.69
439.606	7304.42
439.813	7519.46
440.02	7976.16
440.227	7769.31
440.433	7783.65
440.64	8099.03
440.847	8041.69
441.054	8162.52
441.261	8555.73
441.467	8449.24
441.674	8615.12
441.881	9145.55
442.088	9141.45
442.294	8950.99
442.501	9297.1
442.708	9483.46
442.914	9727.17
443.121	10269.88
443.328	9827.52
443.534	10669.23
443.741	10265.78
443.948	10196.15
444.154	10736.82
444.361	10917.04
444.568	10855.6
444.774	11142.32
444.981	11066.54
445.187	11463.85
445.394	11797.67
445.6	11793.57
445.807	12895.38
446.013	12342.42
446.22	12534.93
446.426	12997.77
446.633	13464.71
446.839	13501.58
447.046	12950.67
447.252	13751.43
447.459	13831.3
447.665	13689.99
447.871	14290.04
448.078	15019.12
448.284	14427.26
448.491	14601.33
448.697	15383.66
448.903	15529.06
449.11	15574.12
449.316	15434.86
449.522	15555.69
449.728	16100.45
449.935	16139.36
450.141	16075.87
450.347	16634.97
450.553	16086.11
450.76	16391.26
450.966	17034.32
451.172	16720.98
451.378	16954.45
451.584	16714.84
451.791	17286.22
451.997	17095.76
452.203	17507.4
452.409	17212.49
452.615	17482.83
452.821	16876.63
453.027	16682.07
453.233	17704.01
453.44	16821.33
453.646	17065.04
453.852	17194.06
454.058	17267.79
454.264	17009.75
454.47	17480.78
454.676	16622.68
454.882	17448.01
455.088	15907.94
455.294	16198.75
455.5	16436.31
455.705	16505.95
455.911	16008.29
456.117	15617.13
456.323	15484.01
456.529	14574.71
456.735	15529.06
456.941	14797.94
457.147	14806.13
457.352	14222.46
457.558	13929.6
457.764	14206.08
457.97	13683.84
458.176	13536.39
458.381	13687.94
458.587	12745.87
458.793	12713.11
458.999	12199.07
459.204	13020.3
459.41	12668.05
459.616	12022.94
459.821	11881.63
460.027	11859.1
460.233	11525.29
460.438	11103.4
460.644	11058.35
460.85	10597.56
461.055	10329.27
461.261	10486.97
461.466	9592
461.672	9387.21
461.878	10077.37
462.083	9356.49
462.289	9395.4
462.494	9014.48
462.7	8721.62
462.905	8619.22
463.111	8803.53
463.316	8705.23
463.522	8672.46
463.727	8776.91
463.932	8641.75
464.138	8365.27
464.343	8541.39
464.549	8469.72
464.754	8441.04
464.959	8369.37
465.165	8447.19
465.37	8121.56
465.575	7789.79
465.781	8309.97
465.986	8133.85
466.191	7918.81
466.397	7783.65
466.602	7365.86
466.807	7576.8
467.012	7722.21
467.218	7820.51
467.423	7544.03
467.628	7711.97
467.833	7886.04
468.038	7623.9
468.244	7279.85
468.449	7666.91
468.654	7523.55
468.859	7404.77
469.064	7421.16
469.269	7171.3
469.474	7120.1
469.679	7335.14
469.885	7132.39
470.09	7146.73
470.295	7101.67
470.5	7046.38
470.705	6954.22
470.91	6911.21
471.115	6757.61
471.32	6870.25
471.525	6786.29
471.73	6780.14
471.935	6591.73
472.139	6440.18
472.344	6624.5
472.549	6634.74
472.754	6436.08
472.959	6499.57
473.164	6243.57
473.369	6081.78
473.574	6221.05
473.778	6157.56
473.983	6200.57
474.188	6313.2
474.393	5876.99
474.598	5872.89
474.802	5881.08
475.007	5942.52
475.212	5979.39
475.417	5582.08
475.621	5713.15
475.826	5657.85
476.031	5571.84
476.235	5481.73
476.44	5522.69
476.645	5504.26
476.849	5455.11
477.054	5321.99
477.259	5375.24
477.463	5274.88
477.668	5121.29
477.872	5156.1
478.077	5065.99
478.282	4893.96
478.486	4926.73
478.691	4967.69
478.895	4869.39
479.1	4826.38
479.304	4904.2
479.509	4793.61
479.713	4855.05
479.918	4789.52
480.122	4740.36
480.326	4875.53
480.531	4801.8
480.735	4496.66
480.94	4541.71
481.144	4889.87
481.348	4603.15
481.553	4566.29
481.757	4486.42
481.961	4680.97
482.166	4574.48
482.37	4703.5
482.574	4545.81
482.778	4603.15
482.983	4619.53
483.187	4517.14
483.391	4558.1
483.595	4556.05
483.8	4412.69
484.004	4418.83
484.208	4586.77
484.412	4381.97
484.616	4490.51
484.821	4580.62
485.025	4488.46
485.229	4535.57
485.433	4551.95
485.637	4529.42
485.841	4625.68
486.045	4537.62
486.249	4615.44
486.453	4410.64
486.657	4615.44
486.861	4472.08
487.065	4449.55
487.269	4533.52
487.473	4392.21
487.677	4433.17
487.881	4541.71
488.085	4445.46
488.289	4480.27
488.493	4554
488.697	4465.94
488.901	4658.45
489.105	4523.28
489.309	4582.67
489.512	4572.43
489.716	4572.43
489.92	4617.49
490.124	4500.75
490.328	4590.86
490.531	4687.12
490.735	4652.3
490.939	4637.97
491.143	4607.25
491.346	4650.25
491.55	4754.7
491.754	4828.43
491.958	4846.86
492.161	4615.44
492.365	4769.04
492.569	4717.84
492.772	4781.32
492.976	4742.41
493.18	4869.39
493.383	4699.41
493.587	4889.87
493.79	4969.74
493.994	4969.74
494.197	4879.63
494.401	5057.8
494.605	5025.03
494.808	5018.89
495.012	5147.91
495.215	5162.25
495.419	4932.87
495.622	5074.18
495.825	5395.72
496.029	5229.83
496.232	5379.33
496.436	5424.39
496.639	5461.25
496.843	5414.15
497.046	5448.96
497.249	5586.18
497.453	5577.98
497.656	5676.29
497.859	5641.47
498.063	5629.18
498.266	5881.08
498.469	5813.5
498.673	5840.12
498.876	5950.71
499.079	6141.18
499.282	5991.67
499.485	6180.09
499.689	6290.68
499.892	6178.04
500.095	6251.77
500.298	6608.11
500.501	6253.81
500.705	6395.12
500.908	6673.65
501.111	6771.95
501.314	6847.72
501.517	6884.59
501.72	6946.03
501.923	7214.31
502.126	7214.31
502.329	7173.35
502.532	7339.24
502.735	7122.15
502.938	7398.63
503.141	7441.64
503.344	7568.61
503.547	7490.79
503.75	7769.31
503.953	7857.37
504.156	7728.35
504.359	7896.28
504.562	8203.48
504.765	8060.12
504.968	8283.35
505.17	8428.76
505.373	8375.51
505.576	8709.33
505.779	8574.16
505.982	8719.57
506.185	8660.18
506.387	8903.89
506.59	8815.82
506.793	9153.74
506.996	9069.77
507.198	9419.97
507.401	9319.62
507.604	9241.8
507.807	9587.91
508.009	9669.83
508.212	9606.34
508.415	9854.14
508.617	9919.68
508.82	9940.16
509.022	10052.8
509.225	9925.82
509.428	10226.87
509.63	10470.58
509.833	10462.39
510.035	10722.48
510.238	10710.19
510.44	10931.37
510.643	11029.68
510.845	10888.37
511.048	11185.32
511.25	11177.13
511.453	11046.06
511.655	11609.25
511.858	11504.81
512.06	11756.71
512.262	11508.9
512.465	11676.84
512.667	11975.84
512.87	12135.58
513.072	11975.84
513.274	12379.29
513.477	12233.88
513.679	12530.84
513.881	12616.85
514.084	12940.43
514.286	12792.98
514.488	13077.65
514.69	13270.15
514.893	13446.28
515.095	13194.38
515.297	13606.02
515.499	13456.52
515.701	13599.88
515.904	13816.96
516.106	13933.7
516.308	14130.3
516.51	14419.07
516.712	14214.27
516.914	14312.57
517.116	14752.88
517.318	14761.08
517.52	15146.09
517.722	14789.75
517.925	15146.09
518.127	15256.68
518.329	15371.37
518.531	15381.61
518.733	15801.44
518.935	15948.9
519.136	15996
519.338	16047.2
519.54	16256.09
519.742	16426.07
519.944	16188.51
520.146	16827.48
520.348	17040.47
520.55	16792.66
520.752	17120.34
520.954	17091.66
521.155	17138.77
521.357	17400.91
521.559	17632.33
521.761	17880.13
521.963	18041.92
522.164	17939.52
522.366	17994.82
522.568	18359.36
522.77	18433.08
522.971	18465.85
523.173	18609.21
523.375	18644.02
523.576	18676.79
523.778	18607.16
523.98	18969.65
524.181	19104.82
524.383	19315.76
524.584	19407.92
524.786	19446.83
524.988	19534.89
525.189	19754.02
525.391	19756.07
525.592	19977.25
525.794	20063.27
525.995	20053.03
526.197	19731.5
526.398	20349.98
526.6	20354.08
526.801	20642.84
527.003	20397.09
527.204	20579.36
527.406	20599.83
527.607	20763.67
527.808	20884.5
528.01	20565.02
528.211	20638.75
528.412	21273.62
528.614	21357.58
528.815	21197.84
529.016	21414.93
529.218	20980.76
529.419	21222.42
529.62	21300.24
529.822	21480.46
530.023	21570.57
530.224	21758.99
530.425	21457.93
530.626	21472.27
530.828	21257.23
531.029	21769.23
531.23	21584.91
531.431	21664.78
531.632	21754.89
531.833	21904.39
532.035	21779.47
532.236	21818.38
532.437	22402.05
532.638	21761.03
532.839	22197.25
533.04	22043.65
533.241	22125.57
533.442	22234.11
533.643	22098.95
533.844	22037.51
534.045	22187.01
534.246	21818.38
534.447	22103.04
534.648	21828.62
534.849	22273.03
535.05	22096.9
535.251	22094.85
535.451	22002.69
535.652	22389.76
535.853	22199.3
536.054	22055.94
536.255	22340.61
536.456	22043.65
536.657	22533.12
536.857	22356.99
537.058	22307.84
537.259	22268.93
537.46	22135.81
537.66	22270.98
537.861	22293.51
538.062	22078.47
538.263	22567.93
538.463	22309.89
538.664	22256.64
538.865	22227.97
539.065	22256.64
539.266	22094.85
539.466	22342.66
539.667	22232.07
539.868	22461.44
540.068	22313.98
540.269	22436.86
540.469	22434.81
540.67	22162.44
540.87	22213.63
541.071	22080.52
541.271	22225.92
541.472	22137.86
541.672	22121.48
541.873	22342.66
542.073	21918.73
542.274	22617.08
542.474	22029.32
542.675	21752.84
542.875	22387.71
543.075	22211.59
543.276	22025.22
543.476	22502.4
543.676	21804.04
543.877	22154.24
544.077	22144
544.277	22182.91
544.478	22133.76
544.678	22383.62
544.878	22266.88
545.078	22115.33
545.279	22162.44
545.479	22135.81
545.679	22094.85
545.879	21838.86
546.079	22260.74
546.28	21795.85
546.48	21758.99
546.68	21969.93
546.88	22107.14
547.08	22230.02
547.28	22035.46
547.48	21640.2
547.68	22103.04
547.88	22068.23
548.081	22250.5
548.281	21992.45
548.481	21904.39
548.681	22045.7
548.881	22191.11
549.081	21931.01
549.28	21769.23
549.48	22313.98
549.68	22008.84
549.88	22166.53
550.08	21666.83
550.28	21615.63
550.48	22209.54
550.68	22014.98
550.88	22088.71
551.08	21787.66
551.279	22066.18
551.479	21910.53
551.679	21914.63
551.879	21662.73
552.079	22076.42
552.278	22045.7
552.478	22164.48
552.678	21885.96
552.878	22111.24
553.077	21806.09
553.277	21705.74
553.477	22320.13
553.676	22043.65
553.876	21732.36
554.076	21801.99
554.275	21824.52
554.475	21414.93
554.674	21992.45
554.874	21509.13
555.074	21902.34
555.273	21470.22
555.473	21771.27
555.672	21566.48
555.872	21636.11
556.071	21482.51
556.271	21750.79
556.47	21597.2
556.67	21533.71
556.869	21584.91
557.068	21646.35
557.268	21521.42
557.467	21611.53
557.667	21548.04
557.866	21214.23
558.065	21144.59
558.265	21425.17
558.464	21275.66
558.663	21478.41
558.863	21150.74
559.062	21273.62
559.261	21163.03
559.461	21064.72
559.66	20986.9
559.859	21036.05
560.058	20757.53
560.258	21056.53
560.457	20859.93
560.656	21062.68
560.855	20849.69
561.054	20929.56
561.253	20444.19
561.453	20775.96
561.652	20841.5
561.851	20759.58
562.05	20714.52
562.249	20515.87
562.448	20896.79
562.647	20528.16
562.846	20405.28
563.045	20558.88
563.244	20360.22
563.443	20685.85
563.642	20100.13
563.841	20415.52
564.04	20335.65
564.239	20431.9
564.438	20155.43
564.637	20272.16
564.836	20352.03
565.035	20173.86
565.234	19868.71
565.432	19895.33
565.631	19948.58
565.83	19766.31
566.029	19934.25
566.228	19487.79
566.427	19618.86
566.625	19575.85
566.824	19377.2
567.023	19655.72
567.222	19330.09
567.42	19481.64
567.619	19418.16
567.818	19432.49
568.016	19129.39
568.215	19422.25
568.414	19221.55
568.612	19446.83
568.811	19229.74
569.01	19504.17
569.208	18959.41
569.407	19074.1
569.605	18910.26
569.804	19094.58
570.002	18848.82
570.201	18891.83
570.4	18578.49
570.598	18605.11
570.797	18283.58
570.995	18652.22
571.193	18388.03
571.392	18633.78
571.59	18230.34
571.789	18553.91
571.987	18299.97
572.186	18168.9
572.384	18234.43
572.582	18455.61
572.781	18336.83
572.979	17839.17
573.177	17933.38
573.376	18263.1
573.574	18111.55
573.772	17775.69
573.971	17964.1
574.169	17837.13
574.367	17818.69
574.565	17695.82
574.763	17759.3
574.962	17771.59
575.16	17124.43
575.358	17509.45
575.556	17456.2
575.754	17613.9
575.952	17163.34
576.151	17591.37
576.349	17103.95
576.547	17208.4
576.745	17347.66
576.943	17435.72
577.141	17052.75
577.339	16989.27
577.537	17036.37
577.735	17116.24
577.933	16720.98
578.131	16915.54
578.329	16966.74
578.527	16692.31
578.725	16913.49
578.923	16716.89
579.121	16716.89
579.319	16438.36
579.516	16585.82
579.714	16657.5
579.912	16591.96
580.11	16479.32
580.308	16483.42
580.506	16333.92
580.704	16254.05
580.901	16219.23
581.099	16278.62
581.297	16026.72
581.495	16338.01
581.692	16172.13
581.89	16071.78
582.088	16034.91
582.285	15795.3
582.483	15961.19
582.681	15737.96
582.878	15778.92
583.076	15830.12
583.274	15895.65
583.471	15823.97
583.669	15819.88
583.866	15436.91
584.064	15688.81
584.262	15197.29
584.459	15551.59
584.657	15600.74
584.854	15598.7
585.052	15197.29
585.249	15547.5
585.447	15170.67
585.644	15090.8
585.841	15047.79
586.039	15250.54
586.236	14976.11
586.434	15357.03
586.631	15037.55
586.828	14961.78
587.026	15045.74
587.223	15015.02
587.42	14787.7
587.618	14787.7
587.815	14732.4
588.012	14658.68
588.21	14421.11
588.407	14836.85
588.604	14644.34
588.801	14433.4
588.999	14402.68
589.196	14374.01
589.393	14742.64
589.59	14392.44
589.787	14378.11
589.984	14216.32
590.182	14029.95
590.379	14423.16
590.576	14150.78
590.773	14154.88
590.97	13986.94
591.167	14271.61
591.364	13993.09
591.561	13917.31
591.758	13978.75
591.955	13782.15
592.152	13999.23
592.349	13675.65
592.546	13724.8
592.743	14029.95
592.94	13507.72
593.137	13685.89
593.334	13679.75
593.531	13495.43
593.727	13495.43
593.924	13526.15
594.121	13550.73
594.318	13552.77
594.515	13339.79
594.712	13601.93
594.908	13094.03
595.105	13468.81
595.302	13083.79
595.499	13274.25
595.696	13216.91
595.892	13096.08
596.089	13216.91
596.286	13071.5
596.482	13114.51
596.679	13028.49
596.876	12960.91
597.072	13087.89
597.269	13106.32
597.466	12577.94
597.662	12670.1
597.859	12821.65
598.055	12942.48
598.252	12657.81
598.448	12739.73
598.645	12618.9
598.841	12483.73
599.038	12467.35
599.234	12508.31
599.431	12485.78
599.627	12145.82
599.824	12526.74
600.02	12323.99
600.217	12422.3
600.413	12500.12
600.609	12438.68
600.806	12180.64
601.002	12223.64
601.198	11971.74
601.395	12098.72
601.591	11924.64
601.787	11947.17
601.984	11791.52
602.18	12117.15
602.376	12061.85
602.572	11996.32
602.769	11898.02
602.965	11973.79
603.161	11697.31
603.357	11742.37
603.553	11775.14
603.75	12063.9
603.946	11510.95
604.142	11488.42
604.338	11453.61
604.534	11490.47
604.73	11472.04
604.926	11398.31
605.122	11601.06
605.318	11359.4
605.514	11332.78
605.71	11244.71
605.906	11328.68
606.102	11297.96
606.298	11216.04
606.494	11320.49
606.69	11302.06
606.886	11191.47
607.082	10783.92
607.278	11170.99
607.474	11041.96
607.67	10878.13
607.866	10773.68
608.062	11134.12
608.257	11031.72
608.453	10955.95
608.649	11017.39
608.845	10910.89
609.041	10859.7
609.236	10857.65
609.432	10861.74
609.628	10779.82
609.824	10804.4
610.019	10835.12
610.215	10689.71
610.411	10605.75
610.606	10781.87
610.802	10665.14
610.998	10638.51
611.193	10734.77
611.389	10433.72
611.584	10566.84
611.78	10435.77
611.976	10417.33
612.171	10564.79
612.367	10534.07
612.562	10556.6
612.758	10597.56
612.953	10327.22
613.149	10417.33
613.344	10181.82
613.539	10499.25
613.735	10333.37
613.93	10251.45
614.126	10300.6
614.321	10255.54
614.517	10302.65
614.712	10202.3
614.907	10022.08
615.103	10341.56
615.298	10222.78
615.493	10149.05
615.688	9845.95
615.884	10067.13
616.079	10046.65
616.274	10267.83
616.47	10017.98
616.665	10239.16
616.86	10032.32
617.055	9950.4
617.25	9956.54
617.445	9936.06
617.641	9700.55
617.836	10022.08
618.031	9792.7
618.226	9815.23
618.421	9854.14
618.616	9936.06
618.811	9768.13
619.006	9540.8
619.201	9628.87
619.396	9718.98
619.591	9473.22
619.786	9288.9
619.981	9317.58
620.176	9567.43
620.371	9387.21
620.566	9477.32
620.761	9399.49
620.956	9327.81
621.151	9280.71
621.346	9329.86
621.541	9196.74
621.735	9067.72
621.93	9055.44
622.125	9104.59
622.32	8953.04
622.515	8950.99
622.709	8914.13
622.904	8983.76
623.099	8692.94
623.294	8852.69
623.488	8807.63
623.683	8795.34
623.878	8576.21
624.072	8699.09
624.267	8393.94
624.462	8545.49
624.656	8269.02
624.851	8494.29
625.046	8414.42
625.24	8387.8
625.435	8301.78
625.629	8262.87
625.824	8492.24
626.018	8256.73
626.213	7808.22
626.407	8115.42
626.602	7990.49
626.796	7988.44
626.991	7943.39
627.185	8010.97
627.38	7853.28
627.574	7812.32
627.768	7838.94
627.963	7730.4
628.157	7679.2
628.352	7654.62
628.546	7593.19
628.74	7572.71
628.935	7668.96
629.129	7408.87
629.323	7423.2
629.517	7386.34
629.712	7453.92
629.906	7277.8
630.1	7337.19
630.294	7425.25
630.489	7142.63
630.683	7273.7
630.877	7097.58
631.071	7032.04
631.265	7251.17
631.459	6989.03
631.653	6989.03
631.848	6933.74
632.042	6835.44
632.236	6802.67
632.43	6888.68
632.624	6927.6
632.818	6765.81
633.012	6677.74
633.206	6737.13
633.4	6706.41
633.594	6579.44
633.788	6710.51
633.982	6667.5
634.176	6696.18
634.369	6497.52
634.563	6735.09
634.757	6550.77
634.951	6427.89
635.145	6499.57
635.339	6431.99
635.533	6321.4
635.726	6405.36
635.92	6126.84
636.114	6288.63
636.308	6151.42
636.501	6106.36
636.695	6237.43
636.889	6067.45
637.083	5987.58
637.276	5997.82
637.47	5999.87
637.664	5868.8
637.857	6038.78
638.051	6032.63
638.244	5995.77
638.438	5844.22
638.632	5838.08
638.825	5770.49
639.019	5817.6
639.212	5631.23
639.406	5678.33
639.599	5778.69
639.793	5723.39
639.986	5600.51
640.18	5614.85
640.373	5559.55
640.567	5422.34
640.76	5481.73
640.954	5557.5
641.147	5446.91
641.34	5389.57
641.534	5315.84
641.727	5307.65
641.92	5309.7
642.114	5049.61
642.307	5276.93
642.5	5418.24
642.694	5102.86
642.887	5240.07
643.08	5281.03
643.273	5242.12
643.467	5125.38
643.66	5098.76
643.853	5113.1
644.046	5010.7
644.239	4979.98
644.432	4951.31
644.626	4916.49
644.819	5059.85
645.012	4828.43
645.205	4766.99
645.398	4898.06
645.591	4824.33
645.784	4824.33
645.977	4742.41
646.17	4766.99
646.363	4685.07
646.556	4584.72
646.749	4803.85
646.942	4646.16
647.135	4670.73
647.328	4574.48
647.521	4699.41
647.714	4554
647.907	4453.65
648.099	4467.99
648.292	4590.86
648.485	4508.94
648.678	4449.55
648.871	4619.53
649.064	4336.92
649.256	4547.86
649.449	4259.09
649.642	4336.92
649.835	4205.85
650.027	4238.61
650.22	4285.72
650.413	4300.05
650.605	4117.78
650.798	4191.51
650.991	4218.13
651.183	4056.34
651.376	4123.93
651.568	4162.84
651.761	4050.2
651.954	4117.78
652.146	4039.96
652.339	4095.25
652.531	3968.28
652.724	3931.42
652.916	3855.64
653.109	3968.28
653.301	3915.03
653.494	3966.23
653.686	3806.49
653.879	3925.27
654.071	3837.21
654.263	3884.31
654.456	3790.11
654.648	3882.27
654.84	3724.57
655.033	3726.62
655.225	3786.01
655.417	3673.37
655.61	3740.96
655.802	3743
655.994	3736.86
656.186	3642.65
656.379	3517.73
656.571	3642.65
656.763	3595.55
656.955	3503.39
657.148	3591.45
657.34	3616.03
657.532	3546.4
657.724	3511.58
657.916	3650.85
658.108	3534.11
658.3	3456.29
658.492	3345.7
658.684	3495.2
658.876	3517.73
659.068	3390.75
659.26	3282.21
659.452	3372.32
659.644	3306.79
659.836	3349.79
660.028	3349.79
660.22	3235.11
660.412	3218.72
660.604	3245.35
660.796	3231.01
660.988	3183.91
661.18	3173.67
661.372	3089.7
661.563	3140.9
661.755	3140.9
661.947	3081.51
662.139	2987.3
662.331	3112.23
662.522	3087.65
662.714	3054.89
662.906	2942.25
663.097	3136.81
663.289	3044.65
663.481	2938.15
663.673	2985.26
663.864	2954.54
664.056	2905.39
664.247	2905.39
664.439	2934.06
664.631	2895.15
664.822	2944.3
665.014	2868.52
665.205	2805.03
665.397	2872.62
665.588	2837.8
665.78	2841.9
665.971	2766.12
666.163	2845.99
666.354	2733.36
666.546	2663.72
666.737	2823.47
666.929	2712.88
667.12	2805.03
667.311	2706.73
667.503	2757.93
667.694	2694.44
667.885	2682.16
668.077	2725.16
668.268	2573.61
668.459	2657.58
668.651	2575.66
668.842	2708.78
669.033	2628.91
669.224	2614.57
669.416	2628.91
669.607	2485.55
669.798	2561.33
669.989	2635.05
670.18	2432.3
670.371	2485.55
670.563	2479.41
670.754	2495.79
670.945	2469.17
671.136	2598.19
671.327	2399.54
671.518	2440.5
671.709	2577.71
671.9	2460.98
672.091	2518.32
672.282	2393.39
672.473	2301.23
672.664	2460.98
672.855	2436.4
673.046	2397.49
673.237	2303.28
673.428	2315.57
673.619	2348.34
673.809	2405.68
674	2348.34
674.191	2264.37
674.382	2311.47
674.573	2325.81
674.764	2356.53
674.954	2399.54
675.145	2252.08
675.336	2360.63
675.527	2319.67
675.717	2231.6
675.908	2114.87
676.099	2252.08
676.289	2125.11
676.48	2192.69
676.671	2241.84
676.861	2198.84
677.052	2200.88
677.243	2225.46
677.433	2127.16
677.624	2176.31
677.814	2174.26
678.005	2100.53
678.195	2192.69
678.386	2213.17
678.576	2125.11
678.767	2080.05
678.957	2233.65
679.148	2168.12
679.338	2118.97
679.529	2123.06
679.719	2075.96
679.909	2153.78
680.1	2153.78
680.29	2090.29
680.481	2059.57
680.671	2078.01
680.861	2170.16
681.052	2067.77
681.242	2043.19
681.432	2084.15
681.622	2045.24
681.813	2032.95
682.003	1996.09
682.193	2018.61
682.383	2133.3
682.573	2090.29
682.764	2012.47
682.954	2071.86
683.144	2028.85
683.334	1981.75
683.524	2110.77
683.714	1955.13
683.904	1916.22
684.094	2028.85
684.284	2010.42
684.474	2004.28
684.664	2094.39
684.854	2051.38
685.044	1938.74
685.234	1916.22
685.424	1920.31
685.614	1963.32
685.804	2004.28
685.994	2004.28
686.184	1955.13
686.374	1942.84
686.564	1893.69
686.753	1826.11
686.943	1807.67
687.133	1834.3
687.323	1854.78
687.513	1932.6
687.702	1817.91
687.892	1813.82
688.082	1932.6
688.272	1819.96
688.461	1922.36
688.651	1875.26
688.841	1860.92
689.03	1891.64
689.22	1883.45
689.41	1770.81
689.599	1807.67
689.789	1834.3
689.979	1848.63
690.168	1803.58
690.358	1643.84
690.547	1809.72
690.737	1813.82
690.926	1797.43
691.116	1658.17
691.305	1795.39
691.495	1760.57
691.684	1748.28
691.874	1740.09
692.063	1764.67
692.252	1692.99
692.442	1688.89
692.631	1723.71
692.82	1682.75
693.01	1676.6
693.199	1695.04
693.388	1658.17
693.578	1789.24
693.767	1580.35
693.956	1594.68
694.146	1699.13
694.335	1627.45
694.524	1572.16
694.713	1662.27
694.902	1578.3
695.092	1600.83
695.281	1682.75
695.47	1533.25
695.659	1633.6
695.848	1494.33
696.037	1576.25
696.226	1580.35
696.415	1553.73
696.604	1611.07
696.793	1656.12
696.982	1776.95
697.171	1533.25
697.36	1602.88
697.549	1639.74
697.738	1598.78
697.927	1674.56
698.116	1402.18
698.305	1506.62
698.494	1572.16
698.683	1604.92
698.872	1633.6
699.061	1625.4
699.25	1527.1
699.438	1563.97
699.627	1561.92
699.816	1553.73
700.005	1482.05
700.193	1523.01
700.382	1561.92
700.571	1537.34
700.76	1455.42
700.948	1570.11
701.137	1557.82
701.326	1615.16
701.514	1537.34
701.703	1611.07
701.892	1518.91
702.08	1625.4
702.269	1471.81
702.457	1506.62
702.646	1615.16
702.834	1637.69
703.023	1461.57
703.212	1492.29
703.4	1510.72
703.589	1475.9
703.777	1527.1
703.965	1432.9
704.154	1580.35
704.342	1439.04
704.531	1498.43
704.719	1543.49
704.907	1594.68
705.096	1535.29
705.284	1467.71
705.472	1426.75
705.661	1584.45
705.849	1523.01
706.037	1496.38
706.226	1553.73
706.414	1555.77
706.602	1539.39
706.79	1676.6
706.979	1580.35
707.167	1488.19
707.355	1496.38
707.543	1561.92
707.731	1541.44
707.919	1633.6
708.107	1482.05
708.296	1568.06
708.484	1516.86
708.672	1523.01
708.86	1629.5
709.048	1537.34
709.236	1592.64
709.424	1617.21
709.612	1568.06
709.8	1508.67
709.988	1426.75
710.176	1506.62
710.364	1543.49
710.551	1412.42
710.739	1523.01
710.927	1674.56
711.115	1492.29
711.303	1533.25
711.491	1561.92
711.679	1549.63
711.866	1541.44
712.054	1606.97
712.242	1654.08
712.43	1688.89
712.617	1580.35
712.805	1670.46
712.993	1580.35
713.181	1535.29
713.368	1633.6
713.556	1656.12
713.744	1518.91
713.931	1527.1
714.119	1633.6
714.306	1518.91
714.494	1602.88
714.682	1629.5
714.869	1563.97
715.057	1594.68
715.244	1615.16
715.432	1611.07
715.619	1586.49
715.807	1574.21
715.994	1631.55
716.182	1604.92
716.369	1619.26
716.556	1541.44
716.744	1596.73
716.931	1682.75
717.119	1639.74
717.306	1611.07
717.493	1643.84
717.681	1568.06
717.868	1613.12
718.055	1553.73
718.242	1609.02
718.43	1572.16
718.617	1602.88
718.804	1641.79
718.991	1662.27
719.179	1723.71
719.366	1604.92
719.553	1731.9
719.74	1666.36
719.927	1611.07
720.114	1715.52
720.301	1742.14
720.488	1568.06
720.676	1561.92
720.863	1727.8
721.05	1563.97
721.237	1699.13
721.424	1645.88
721.611	1649.98
721.798	1606.97
721.985	1674.56
722.172	1676.6
722.358	1654.08
722.545	1662.27
722.732	1701.18
722.919	1649.98
723.106	1682.75
723.293	1633.6
723.48	1643.84
723.667	1658.17
723.853	1711.42
724.04	1639.74
724.227	1674.56
724.414	1586.49
724.6	1621.31
724.787	1752.38
724.974	1701.18
725.161	1703.23
725.347	1627.45
725.534	1799.48
725.72	1615.16
725.907	1611.07
726.094	1649.98
726.28	1750.33
726.467	1576.25
726.653	1649.98
726.84	1715.52
727.027	1699.13
727.213	1654.08
727.4	1764.67
727.586	1645.88
727.773	1746.23
727.959	1641.79
728.145	1744.19
728.332	1682.75
728.518	1729.85
728.705	1676.6
728.891	1545.53
729.077	1678.65
729.264	1645.88
729.45	1692.99
729.636	1762.62
729.823	1772.86
730.009	1746.23
730.195	1670.46
730.382	1779
730.568	1697.08
730.754	1705.28
730.94	1682.75
731.126	1799.48
731.313	1719.61
731.499	1686.84
731.685	1744.19
731.871	1654.08
732.057	1731.9
732.243	1670.46
732.429	1654.08
732.615	1688.89
732.801	1697.08
732.987	1666.36
733.173	1783.1
733.359	1695.04
733.545	1754.43
733.731	1660.22
733.917	1740.09
734.103	1666.36
734.289	1809.72
734.475	1606.97
734.661	1795.39
734.847	1768.76
735.033	1705.28
735.219	1690.94
735.404	1752.38
735.59	1793.34
735.776	1559.87
735.962	1797.43
736.148	1654.08
736.333	1758.52
736.519	1723.71
736.705	1764.67
736.89	1756.47
737.076	1772.86
737.262	1774.91
737.447	1793.34
737.633	1813.82
737.819	1748.28
738.004	1768.76
738.19	1670.46
738.375	1762.62
738.561	1733.95
738.747	1787.19
738.932	1674.56
739.118	1660.22
739.303	1649.98
739.489	1658.17
739.674	1518.91
739.859	1723.71
740.045	1660.22
740.23	1748.28
740.416	1631.55
740.601	1690.94
740.786	1635.64
740.972	1641.79
741.157	1613.12
741.342	1580.35
741.528	1637.69
741.713	1699.13
741.898	1559.87
742.084	1592.64
742.269	1617.21
742.454	1525.05
742.639	1664.32
742.824	1527.1
743.01	1580.35
743.195	1617.21
743.38	1520.96
743.565	1520.96
743.75	1631.55
743.935	1580.35
744.12	1510.72
744.305	1510.72
744.49	1523.01
744.675	1596.73
744.86	1543.49
745.045	1580.35
745.23	1494.33
745.415	1572.16
745.6	1520.96
745.785	1469.76
745.97	1441.09
746.155	1557.82
746.34	1443.14
746.525	1404.22
746.71	1480
746.895	1471.81
747.079	1414.46
747.264	1469.76
747.449	1328.45
747.634	1432.9
747.819	1455.42
748.003	1416.51
748.188	1385.79
748.373	1359.17
748.557	1383.74
748.742	1381.7
748.927	1326.4
749.111	1324.35
749.296	1426.75
749.481	1322.31
749.665	1365.31
749.85	1287.49
750.034	1307.97
750.219	1256.77
750.404	1262.91
750.588	1301.83
750.773	1326.4
750.957	1332.54
751.141	1381.7
751.326	1219.91
751.51	1318.21
751.695	1273.15
751.879	1199.43
752.064	1185.09
752.248	1258.82
752.432	1224
752.617	1242.43
752.801	1191.24
752.985	1207.62
753.17	1203.52
753.354	1209.67
753.538	1156.42
753.722	1111.36
753.907	1172.8
754.091	1105.22
754.275	1152.32
754.459	1101.12
754.643	1092.93
754.828	1133.89
755.012	1125.7
755.196	1113.41
755.38	1084.74
755.564	1060.17
755.748	1115.46
755.932	1064.26
756.116	1109.32
756.3	1115.46
756.484	1131.84
756.668	1105.22
756.852	1054.02
757.036	961.86
757.22	1113.41
757.404	974.15
757.588	970.05
757.772	1060.17
757.956	996.68
758.14	1074.5
758.323	970.05
758.507	955.72
758.691	1037.64
758.875	1086.79
759.059	1006.92
759.242	1035.59
759.426	896.33
759.61	1051.97
759.794	959.81
759.977	961.86
760.161	1002.82
760.345	918.86
760.528	996.68
760.712	879.94
760.895	892.23
761.079	886.09
761.263	861.51
761.446	892.23
761.63	998.73
761.813	927.05
761.997	968.01
762.18	855.37
762.364	871.75
762.547	824.65
762.731	941.38
762.914	828.74
763.098	843.08
763.281	791.88
763.464	810.31
763.648	816.46
763.831	793.93
764.015	810.31
764.198	843.08
764.381	826.7
764.564	793.93
764.748	881.99
764.931	824.65
765.114	824.65
765.297	832.84
765.481	785.74
765.664	822.6
765.847	867.66
766.03	732.49
766.213	769.35
766.397	777.55
766.58	728.39
766.763	804.17
766.946	855.37
767.129	759.11
767.312	785.74
767.495	791.88
767.678	752.97
767.861	732.49
768.044	726.35
768.227	761.16
768.41	759.11
768.593	750.92
768.776	724.3
768.959	701.77
769.142	859.46
769.324	718.15
769.507	720.2
769.69	691.53
769.873	656.72
770.056	707.91
770.239	675.15
770.421	699.72
770.604	642.38
770.787	724.3
770.97	769.35
771.152	748.87
771.335	697.67
771.518	617.8
771.7	734.54
771.883	707.91
772.066	716.11
772.248	644.43
772.431	740.68
772.613	652.62
772.796	652.62
772.978	675.15
773.161	652.62
773.343	662.86
773.526	601.42
773.708	589.13
773.891	634.19
774.073	601.42
774.256	677.19
774.438	634.19
774.621	609.61
774.803	619.85
774.985	595.28
775.168	677.19
775.35	609.61
775.532	589.13
775.715	570.7
775.897	716.11
776.079	599.37
776.261	587.08
776.444	603.47
776.626	546.12
776.808	570.7
776.99	570.7
777.173	607.56
777.355	595.28
777.537	537.93
777.719	648.52
777.901	621.9
778.083	505.17
778.265	464.21
778.447	585.04
778.629	519.5
778.811	654.67
778.993	513.36
779.175	564.56
779.357	544.08
779.539	466.25
779.721	503.12
779.903	511.31
780.085	421.2
780.267	509.26
780.449	513.36
780.631	533.84
780.812	548.17
780.994	572.75
781.176	505.17
781.358	433.49
781.54	478.54
781.721	478.54
781.903	511.31
782.085	386.38
782.267	492.88
782.448	382.29
782.63	392.53
782.812	404.82
782.993	503.12
783.175	433.49
783.357	396.62
783.538	406.86
783.72	421.2
783.901	341.33
784.083	509.26
784.264	410.96
784.446	341.33
784.627	445.77
784.809	363.86
784.99	339.28
785.172	400.72
785.353	359.76
785.535	406.86
785.716	396.62
785.897	427.34
786.079	410.96
786.26	390.48
786.441	355.66
786.623	339.28
786.804	320.85
786.985	380.24
787.167	310.61
787.348	329.04
787.529	347.47
787.71	359.76
787.891	355.66
788.073	341.33
788.254	316.75
788.435	421.2
788.616	372.05
788.797	259.41
788.978	376.14
789.159	351.57
789.34	421.2
789.522	359.76
789.703	302.42
789.884	298.32
790.065	388.43
790.246	380.24
790.427	277.84
790.607	265.55
790.788	326.99
790.969	220.5
791.15	337.23
791.331	314.7
791.512	302.42
791.693	218.45
791.874	331.09
792.054	365.9
792.235	271.7
792.416	286.03
792.597	279.89
792.778	322.9
792.958	232.79
793.139	259.41
793.32	312.66
793.5	210.26
793.681	306.51
793.862	306.51
794.042	222.55
794.223	271.7
794.404	234.83
794.584	267.6
794.765	226.64
794.945	212.31
795.126	312.66
795.306	273.75
795.487	259.41
795.667	243.03
795.848	206.16
796.028	257.36
796.209	206.16
796.389	208.21
796.57	351.57
796.75	253.27
796.93	226.64
797.111	200.02
797.291	261.46
797.471	173.39
797.652	240.98
797.832	206.16
798.012	247.12
798.192	185.68
798.373	236.88
798.553	228.69
798.733	179.54
798.913	263.51
799.093	234.83
799.274	189.78
799.454	226.64
799.634	224.59
799.814	251.22
799.994	171.35
800.174	220.5
800.354	206.16
800.534	197.97
800.714	200.02
800.894	181.59
801.074	197.97
801.254	204.11
801.434	273.75
801.614	224.59
801.794	191.83
801.974	707.91
802.154	222.55
802.334	214.35
802.514	136.53
802.693	167.25
802.873	197.97
803.053	216.4
803.233	216.4
803.413	138.58
803.592	214.35
803.772	124.24
803.952	157.01
804.131	142.68
804.311	228.69
804.491	195.92
804.67	122.2
804.85	200.02
805.03	230.74
805.209	191.83
805.389	134.48
805.568	200.02
805.748	126.29
805.928	167.25
806.107	171.35
806.287	152.91
806.466	116.05
806.646	142.68
806.825	126.29
807.004	240.98
807.184	138.58
807.363	197.97
807.543	144.72
807.722	138.58
807.901	163.15
808.081	97.62
808.26	128.34
808.439	111.96
808.619	140.63
808.798	154.96
808.977	191.83
809.156	210.26
809.336	91.48
809.515	202.07
809.694	134.48
809.873	136.53
810.052	234.83
810.231	142.68
810.411	175.44
810.59	167.25
810.769	150.87
810.948	175.44
811.127	128.34
811.306	97.62
811.485	126.29
811.664	81.24
811.843	93.52
812.022	114
812.201	183.63
812.38	122.2
812.559	148.82
812.737	138.58
812.916	150.87
813.095	64.85
813.274	191.83
813.453	73.04
813.632	109.91
813.811	146.77
813.989	173.39
814.168	165.2
814.347	91.48
814.526	120.15
814.704	-4.78
814.883	163.15
815.062	159.06
815.24	193.87
815.419	56.66
815.598	93.52
815.776	42.32
815.955	126.29
816.133	87.38
816.312	152.91
816.49	120.15
816.669	118.1
816.847	118.1
817.026	173.39
817.204	81.24
817.383	48.47
817.561	77.14
817.74	167.25
817.918	77.14
818.097	136.53
818.275	60.76
818.453	140.63
818.632	130.39
818.81	114
818.988	40.28
819.167	130.39
819.345	122.2
819.523	60.76
819.701	99.67
819.879	161.11
820.058	60.76
820.236	66.9
820.414	60.76
820.592	62.8
820.77	68.95
820.948	87.38
821.127	152.91
821.305	114
821.483	79.19
821.661	52.56
821.839	122.2
822.017	-19.11
822.195	52.56
822.373	81.24
822.551	71
822.729	103.76
822.907	52.56
823.085	83.28
823.262	27.99
823.44	116.05
823.618	-0.68
823.796	87.38
823.974	91.48
824.152	32.08
824.329	91.48
824.507	52.56
824.685	109.91
824.863	85.33
825.04	124.24
825.218	130.39
825.396	114
825.574	136.53
825.751	58.71
825.929	87.38
826.107	32.08
826.284	27.99
826.462	54.61
826.639	87.38
826.817	19.8
826.994	85.33
827.172	107.86
827.349	109.91
827.527	58.71
827.704	46.42
827.882	36.18
828.059	48.47
828.237	126.29
828.414	120.15
828.591	11.61
828.769	146.77
828.946	130.39
829.124	128.34
829.301	105.81
829.478	52.56
829.655	85.33
829.833	75.09
830.01	-8.87
830.187	38.23
830.364	48.47
830.542	101.72
830.719	50.52
830.896	85.33
831.073	27.99
831.25	114
831.427	32.08
831.604	56.66
831.782	44.37
831.959	163.15
832.136	5.46
832.313	19.8
832.49	75.09
832.667	56.66
832.844	19.8
833.021	58.71
833.198	52.56
833.374	19.8
833.551	17.75
833.728	52.56
833.905	128.34
834.082	21.85
834.259	40.28
834.436	107.86
834.612	124.24
834.789	-2.73
834.966	105.81
835.143	75.09
835.319	3.41
835.496	50.52
835.673	77.14
835.85	58.71
836.026	42.32
836.203	52.56
836.38	44.37
836.556	71
836.733	-4.78
836.909	60.76
837.086	64.85
837.262	7.51
837.439	9.56
837.616	64.85
837.792	9.56
837.968	32.08
838.145	27.99
838.321	-8.87
838.498	103.76
838.674	13.65
838.851	25.94
839.027	-10.92
839.203	107.86
839.38	111.96
839.556	17.75
839.732	77.14
839.909	44.37
840.085	13.65
840.261	73.04
840.437	48.47
840.614	68.95
840.79	83.28
840.966	62.8
841.142	-2.73
841.318	-31.4
841.494	48.47
841.671	56.66
841.847	17.75
842.023	68.95
842.199	13.65
842.375	54.61
842.551	56.66
842.727	-2.73
842.903	38.23
843.079	56.66
843.255	77.14
843.431	1.37
843.607	107.86
843.783	73.04
843.959	44.37
844.134	-29.35
844.31	75.09
844.486	-4.78
844.662	44.37
844.838	-8.87
845.013	44.37
845.189	-0.68
845.365	77.14
845.541	-103.08
845.716	-6.83
845.892	56.66
846.068	30.04
846.244	73.04
846.419	95.57
846.595	-33.45
846.77	23.89
846.946	87.38
847.122	5.46
847.297	21.85
847.473	81.24
847.648	42.32
847.824	97.62
847.999	-4.78
848.175	60.76
848.35	13.65
848.526	91.48
848.701	68.95
848.876	15.7
849.052	-8.87
849.227	7.51
849.403	64.85
849.578	21.85
849.753	36.18
849.929	32.08
850.104	27.99
850.279	85.33
850.454	21.85
850.63	11.61
850.805	-12.97
850.98	75.09
851.155	30.04
851.33	13.65
851.505	54.61
851.681	56.66
851.856	52.56
852.031	93.52
852.206	9.56
852.381	97.62
852.556	54.61
852.731	73.04
852.906	19.8
853.081	77.14
853.256	-15.02
853.431	38.23
853.606	-25.26
853.781	64.85
853.956	-37.55
854.131	-17.07
854.305	-0.68
854.48	73.04
854.655	13.65
854.83	-25.26
855.005	60.76
855.18	5.46
855.354	48.47
855.529	44.37
855.704	-4.78
855.879	13.65
856.053	58.71
856.228	46.42
856.403	3.41
856.577	25.94
856.752	44.37
856.926	7.51
857.101	15.7
857.276	89.43
857.45	105.81
857.625	99.67
857.799	-8.87
857.974	17.75
858.148	-43.69
858.323	50.52
858.497	-4.78
858.672	-82.6
858.846	-21.16
859.02	48.47
859.195	25.94
859.369	27.99
859.543	30.04
859.718	62.8
859.892	27.99
860.066	52.56
860.241	93.52
860.415	50.52
860.589	9.56
860.763	-4.78
860.938	-12.97
861.112	7.51
861.286	11.61
861.46	-27.31
861.634	13.65
861.808	58.71
861.982	81.24
862.157	30.04
862.331	32.08
862.505	-10.92
862.679	-49.83
862.853	-41.64
863.027	27.99
863.201	77.14
863.375	-12.97
863.549	42.32
863.722	7.51
863.896	42.32
864.07	-25.26
864.244	23.89
864.418	9.56
864.592	-12.97
864.766	32.08
864.939	32.08
865.113	-43.69
865.287	64.85
865.461	71
865.634	50.52
865.808	36.18
865.982	9.56
866.156	-53.93
866.329	-21.16
866.503	-29.35
866.676	77.14
866.85	-0.68
867.024	-19.11
867.197	19.8
867.371	19.8
867.544	62.8
867.718	9.56
867.891	32.08
868.065	52.56
868.238	-58.03
868.412	36.18
868.585	5.46
868.759	46.42
868.932	-12.97
869.105	-27.31
869.279	3.41
869.452	-4.78
869.625	62.8
869.799	25.94
869.972	34.13
870.145	-45.74
870.319	114
870.492	-4.78
870.665	9.56
870.838	19.8
871.011	5.46
871.185	-23.21
871.358	-29.35
871.531	91.48
871.704	-21.16
871.877	-43.69
872.05	3.41
872.223	-64.17
872.396	40.28
872.569	-0.68
872.742	-8.87
872.915	91.48
873.088	89.43
873.261	3.41
873.434	75.09
873.607	-4.78
873.78	1.37
873.953	-53.93
874.126	44.37
874.299	56.66
874.471	32.08
874.644	36.18
874.817	-0.68
874.99	17.75
875.163	-27.31
875.335	-51.88
875.508	11.61
875.681	99.67
875.853	38.23
876.026	48.47
876.199	-12.97
876.371	-17.07
876.544	-8.87
876.717	38.23
876.889	23.89
877.062	-4.78
877.234	25.94
877.407	27.99
877.579	15.7
877.752	15.7
877.924	44.37
878.097	89.43
878.269	-39.59
878.442	77.14
878.614	23.89
878.786	19.8
878.959	34.13
879.131	27.99
879.303	-0.68
879.476	11.61
879.648	54.61
879.82	-68.27
879.993	73.04
880.165	27.99
880.337	-25.26
880.509	13.65
880.681	-0.68
880.854	50.52
881.026	-4.78
881.198	36.18
881.37	17.75
881.542	-55.98
881.714	-58.03
881.886	-4.78
882.058	-51.88
882.23	13.65
882.402	-10.92
882.574	-2.73
882.746	-33.45
882.918	-25.26
883.09	-19.11
883.262	13.65
883.434	3.41
883.606	-29.35
883.778	73.04
883.95	-47.79
884.122	-0.68
884.293	19.8
884.465	27.99
884.637	79.19
884.809	27.99
884.98	64.85
885.152	-53.93
885.324	-53.93
885.496	-12.97
885.667	-23.21
885.839	-25.26
886.011	-10.92
886.182	-2.73
886.354	11.61
886.525	-43.69
886.697	60.76
886.869	9.56
887.04	25.94
887.212	19.8
887.383	77.14
887.555	44.37
887.726	-2.73
887.897	-27.31
888.069	-47.79
888.24	17.75
888.412	-12.97
888.583	1.37
888.754	-19.11
888.926	-2.73
889.097	30.04
889.268	-27.31
889.44	1.37
889.611	-64.17
889.782	-25.26
889.953	-33.45
890.125	36.18
890.296	-23.21
890.467	11.61
890.638	-2.73
890.809	23.89
890.98	17.75
891.151	60.76
891.323	30.04
891.494	27.99
891.665	13.65
891.836	30.04
892.007	-2.73
892.178	40.28
892.349	9.56
892.52	-4.78
892.691	7.51
892.862	3.41
893.032	-31.4
893.203	40.28
893.374	-4.78
893.545	75.09
893.716	-21.16
893.887	54.61
894.057	-43.69
894.228	17.75
894.399	-8.87
894.57	62.8
894.74	-29.35
894.911	40.28
895.082	34.13
895.253	15.7
895.423	58.71
895.594	3.41
895.764	-15.02
895.935	-17.07
896.106	36.18
896.276	32.08
896.447	60.76
896.617	-4.78
896.788	-66.22
896.958	-66.22
897.129	21.85
897.299	34.13
897.47	87.38
897.64	44.37
897.81	34.13
897.981	77.14
898.151	-12.97
898.322	34.13
898.492	50.52
898.662	-25.26
898.832	-37.55
899.003	27.99
899.173	62.8
899.343	-19.11
899.513	-27.31
