Data from USB4F104151__60__13-11-58-316.txt Node

Date: Fri Mar 14 13:11:58 EDT 2025
User: louis
Spectrometer: USB4F10415
Trigger mode: 4
Integration Time (sec): 2.000000E-2
Scans to average: 1
Electric dark correction enabled: true
Nonlinearity correction enabled: false
Boxcar width: 0
XAxis mode: Wavelengths
Number of Pixels in Spectrum: 3648
>>>>>Begin Spectral Data<<<<<
178.204	-61.61
178.424	-61.61
178.644	-61.61
178.864	-104.62
179.084	-71.85
179.304	3.93
179.524	-14.51
179.744	-28.84
179.964	-18.6
180.184	71.51
180.404	14.17
180.624	1.88
180.844	8.02
181.064	-14.51
181.283	-18.6
181.503	-55.47
181.723	51.03
181.943	-88.23
182.163	126.8
182.383	-14.51
182.602	16.21
182.822	57.17
183.042	-43.18
183.262	-8.36
183.482	-12.46
183.701	10.07
183.921	34.64
184.141	-39.08
184.361	-6.31
184.58	71.51
184.8	124.76
185.02	16.21
185.239	87.89
185.459	-75.95
185.679	32.6
185.898	-16.55
186.118	10.07
186.338	61.27
186.557	110.42
186.777	26.45
186.997	51.03
187.216	-14.51
187.436	75.6
187.655	18.26
187.875	120.66
188.095	102.23
188.314	98.13
188.534	28.5
188.753	57.17
188.973	-26.79
189.192	40.79
189.412	38.74
189.631	5.97
189.851	51.03
190.07	124.76
190.29	8.02
190.509	3.93
190.729	46.93
190.948	40.79
191.168	81.75
191.387	79.7
191.607	94.04
191.826	-4.27
192.045	-20.65
192.265	94.04
192.484	-49.32
192.704	46.93
192.923	10.07
193.142	83.8
193.362	1.88
193.581	28.5
193.8	16.21
194.02	67.41
194.239	22.36
194.458	124.76
194.678	73.56
194.897	3.93
195.116	-37.03
195.335	22.36
195.555	16.21
195.774	59.22
195.993	22.36
196.212	124.76
196.432	22.36
196.651	1.88
196.87	3.93
197.089	28.5
197.308	53.08
197.528	24.4
197.747	5.97
197.966	57.17
198.185	85.84
198.404	26.45
198.623	22.36
198.842	22.36
199.062	77.65
199.281	34.64
199.5	48.98
199.719	18.26
199.938	42.84
200.157	67.41
200.376	36.69
200.595	83.8
200.814	36.69
201.033	26.45
201.252	55.12
201.471	59.22
201.69	77.65
201.909	46.93
202.128	36.69
202.347	59.22
202.566	20.31
202.785	12.12
203.004	30.55
203.223	71.51
203.442	-20.65
203.661	28.5
203.879	77.65
204.098	34.64
204.317	51.03
204.536	30.55
204.755	3.93
204.974	36.69
205.193	-37.03
205.411	53.08
205.63	5.97
205.849	110.42
206.068	12.12
206.287	32.6
206.505	46.93
206.724	28.5
206.943	30.55
207.162	-14.51
207.381	28.5
207.599	12.12
207.818	1.88
208.037	67.41
208.255	-47.27
208.474	51.03
208.693	34.64
208.911	94.04
209.13	46.93
209.349	59.22
209.567	28.5
209.786	34.64
210.005	57.17
210.223	-26.79
210.442	-45.23
210.661	87.89
210.879	71.51
211.098	40.79
211.316	1.88
211.535	135
211.753	-20.65
211.972	-32.94
212.191	-61.61
212.409	48.98
212.628	1.88
212.846	-2.22
213.065	20.31
213.283	69.46
213.502	57.17
213.72	55.12
213.938	-14.51
214.157	71.51
214.375	51.03
214.594	26.45
214.812	12.12
215.031	26.45
215.249	38.74
215.467	36.69
215.686	3.93
215.904	55.12
216.122	63.32
216.341	51.03
216.559	-18.6
216.778	53.08
216.996	-18.6
217.214	20.31
217.432	5.97
217.651	26.45
217.869	22.36
218.087	81.75
218.306	-18.6
218.524	63.32
218.742	-43.18
218.96	69.46
219.179	32.6
219.397	34.64
219.615	32.6
219.833	-14.51
220.051	48.98
220.27	-30.89
220.488	26.45
220.706	112.47
220.924	42.84
221.142	51.03
221.36	42.84
221.578	34.64
221.796	38.74
222.015	83.8
222.233	16.21
222.451	67.41
222.669	-14.51
222.887	28.5
223.105	30.55
223.323	-37.03
223.541	51.03
223.759	59.22
223.977	26.45
224.195	10.07
224.413	-2.22
224.631	-0.17
224.849	-37.03
225.067	98.13
225.285	-37.03
225.503	57.17
225.721	75.6
225.939	12.12
226.157	75.6
226.375	63.32
226.592	14.17
226.81	38.74
227.028	65.36
227.246	110.42
227.464	44.88
227.682	75.6
227.9	36.69
228.117	96.08
228.335	44.88
228.553	36.69
228.771	3.93
228.989	38.74
229.206	63.32
229.424	34.64
229.642	3.93
229.86	-73.9
230.077	38.74
230.295	53.08
230.513	63.32
230.731	44.88
230.948	18.26
231.166	-6.31
231.384	30.55
231.601	-4.27
231.819	24.4
232.037	-18.6
232.254	20.31
232.472	-6.31
232.689	-0.17
232.907	75.6
233.125	102.23
233.342	10.07
233.56	75.6
233.777	67.41
233.995	5.97
234.213	98.13
234.43	63.32
234.648	-10.41
234.865	94.04
235.083	69.46
235.3	18.26
235.518	91.99
235.735	-4.27
235.953	71.51
236.17	-30.89
236.388	16.21
236.605	51.03
236.822	53.08
237.04	-12.46
237.257	57.17
237.475	-16.55
237.692	42.84
237.909	116.56
238.127	26.45
238.344	48.98
238.562	34.64
238.779	1.88
238.996	-55.47
239.214	53.08
239.431	96.08
239.648	-10.41
239.865	-22.7
240.083	3.93
240.3	34.64
240.517	10.07
240.735	46.93
240.952	20.31
241.169	83.8
241.386	85.84
241.603	51.03
241.821	116.56
242.038	-4.27
242.255	59.22
242.472	-30.89
242.689	69.46
242.907	67.41
243.124	44.88
243.341	28.5
243.558	-59.56
243.775	-2.22
243.992	61.27
244.209	40.79
244.426	28.5
244.643	71.51
244.86	-4.27
245.078	-2.22
245.295	67.41
245.512	30.55
245.729	5.97
245.946	75.6
246.163	30.55
246.38	44.88
246.597	102.23
246.814	44.88
247.031	-14.51
247.248	51.03
247.464	24.4
247.681	-24.75
247.898	44.88
248.115	83.8
248.332	-10.41
248.549	96.08
248.766	75.6
248.983	34.64
249.2	26.45
249.417	-45.23
249.633	46.93
249.85	-10.41
250.067	81.75
250.284	63.32
250.501	53.08
250.717	55.12
250.934	-37.03
251.151	-0.17
251.368	18.26
251.585	-16.55
251.801	96.08
252.018	-20.65
252.235	-6.31
252.451	36.69
252.668	55.12
252.885	112.47
253.102	-8.36
253.318	10.07
253.535	57.17
253.752	20.31
253.968	-14.51
254.185	-65.71
254.401	-10.41
254.618	46.93
254.835	18.26
255.051	96.08
255.268	14.17
255.484	-12.46
255.701	18.26
255.917	34.64
256.134	12.12
256.351	51.03
256.567	32.6
256.784	12.12
257	-59.56
257.217	-20.65
257.433	100.18
257.65	51.03
257.866	65.36
258.082	51.03
258.299	-26.79
258.515	-6.31
258.732	-14.51
258.948	5.97
259.165	-24.75
259.381	87.89
259.597	-0.17
259.814	36.69
260.03	14.17
260.246	-22.7
260.463	20.31
260.679	26.45
260.895	22.36
261.112	3.93
261.328	-49.32
261.544	77.65
261.761	165.71
261.977	-10.41
262.193	-16.55
262.409	83.8
262.626	34.64
262.842	91.99
263.058	12.12
263.274	22.36
263.49	10.07
263.707	28.5
263.923	112.47
264.139	59.22
264.355	-0.17
264.571	-12.46
264.787	34.64
265.004	3.93
265.22	51.03
265.436	34.64
265.652	-6.31
265.868	5.97
266.084	77.65
266.3	46.93
266.516	-12.46
266.732	75.6
266.948	67.41
267.164	91.99
267.38	-10.41
267.596	108.37
267.812	34.64
268.028	40.79
268.244	55.12
268.46	-0.17
268.676	30.55
268.892	71.51
269.108	42.84
269.324	63.32
269.54	-2.22
269.756	100.18
269.972	-28.84
270.188	24.4
270.403	-4.27
270.619	14.17
270.835	-2.22
271.051	42.84
271.267	5.97
271.483	22.36
271.698	-22.7
271.914	38.74
272.13	-32.94
272.346	40.79
272.562	46.93
272.777	75.6
272.993	40.79
273.209	18.26
273.425	22.36
273.64	91.99
273.856	-30.89
274.072	67.41
274.287	-80.04
274.503	-20.65
274.719	12.12
274.934	10.07
275.15	40.79
275.366	46.93
275.581	14.17
275.797	-4.27
276.012	8.02
276.228	-10.41
276.444	-6.31
276.659	96.08
276.875	36.69
277.09	28.5
277.306	20.31
277.521	128.85
277.737	30.55
277.952	38.74
278.168	48.98
278.383	-4.27
278.599	36.69
278.814	-4.27
279.03	3.93
279.245	61.27
279.461	-22.7
279.676	14.17
279.892	-16.55
280.107	61.27
280.322	-14.51
280.538	8.02
280.753	1.88
280.969	124.76
281.184	-4.27
281.399	65.36
281.615	51.03
281.83	8.02
282.045	10.07
282.26	18.26
282.476	-37.03
282.691	112.47
282.906	26.45
283.122	-6.31
283.337	59.22
283.552	48.98
283.767	83.8
283.983	112.47
284.198	3.93
284.413	55.12
284.628	20.31
284.843	96.08
285.058	-43.18
285.274	71.51
285.489	57.17
285.704	71.51
285.919	71.51
286.134	-39.08
286.349	71.51
286.564	30.55
286.779	48.98
286.995	65.36
287.21	20.31
287.425	67.41
287.64	14.17
287.855	22.36
288.07	-18.6
288.285	26.45
288.5	130.9
288.715	85.84
288.93	12.12
289.145	-12.46
289.36	114.52
289.575	85.84
289.79	75.6
290.004	-39.08
290.219	83.8
290.434	53.08
290.649	34.64
290.864	26.45
291.079	75.6
291.294	26.45
291.509	34.64
291.724	42.84
291.938	42.84
292.153	-18.6
292.368	26.45
292.583	-2.22
292.798	71.51
293.012	53.08
293.227	73.56
293.442	46.93
293.657	59.22
293.871	44.88
294.086	20.31
294.301	36.69
294.516	20.31
294.73	65.36
294.945	55.12
295.16	46.93
295.374	102.23
295.589	-2.22
295.804	-8.36
296.018	5.97
296.233	87.89
296.447	75.6
296.662	71.51
296.877	71.51
297.091	83.8
297.306	32.6
297.52	91.99
297.735	-10.41
297.949	18.26
298.164	12.12
298.378	30.55
298.593	10.07
298.807	-10.41
299.022	1.88
299.236	79.7
299.451	-4.27
299.665	-12.46
299.88	51.03
300.094	100.18
300.309	57.17
300.523	36.69
300.737	20.31
300.952	63.32
301.166	38.74
301.381	-84.14
301.595	-6.31
301.809	-6.31
302.024	83.8
302.238	36.69
302.452	32.6
302.667	1.88
302.881	53.08
303.095	81.75
303.309	42.84
303.524	59.22
303.738	104.28
303.952	-8.36
304.166	22.36
304.381	-39.08
304.595	100.18
304.809	110.42
305.023	110.42
305.237	20.31
305.452	51.03
305.666	79.7
305.88	81.75
306.094	87.89
306.308	-37.03
306.522	67.41
306.736	-6.31
306.95	55.12
307.164	-4.27
307.379	-22.7
307.593	89.94
307.807	57.17
308.021	73.56
308.235	10.07
308.449	3.93
308.663	96.08
308.877	83.8
309.091	34.64
309.305	34.64
309.519	18.26
309.733	104.28
309.947	14.17
310.161	36.69
310.374	1.88
310.588	65.36
310.802	30.55
311.016	-30.89
311.23	-4.27
311.444	-0.17
311.658	10.07
311.872	22.36
312.085	126.8
312.299	34.64
312.513	-24.75
312.727	83.8
312.941	59.22
313.154	-37.03
313.368	87.89
313.582	30.55
313.796	69.46
314.009	24.4
314.223	34.64
314.437	-6.31
314.651	83.8
314.864	34.64
315.078	59.22
315.292	-20.65
315.505	-39.08
315.719	85.84
315.933	18.26
316.146	-4.27
316.36	40.79
316.573	20.31
316.787	77.65
317.001	63.32
317.214	3.93
317.428	79.7
317.641	-2.22
317.855	26.45
318.068	3.93
318.282	59.22
318.495	75.6
318.709	53.08
318.922	28.5
319.136	98.13
319.349	94.04
319.563	-18.6
319.776	10.07
319.99	-8.36
320.203	79.7
320.417	53.08
320.63	55.12
320.843	34.64
321.057	-12.46
321.27	22.36
321.483	18.26
321.697	51.03
321.91	85.84
322.124	22.36
322.337	-18.6
322.55	12.12
322.763	28.5
322.977	30.55
323.19	-6.31
323.403	-2.22
323.617	63.32
323.83	12.12
324.043	-4.27
324.256	110.42
324.469	34.64
324.683	-61.61
324.896	-47.27
325.109	53.08
325.322	-16.55
325.535	89.94
325.748	91.99
325.962	24.4
326.175	36.69
326.388	-0.17
326.601	106.32
326.814	65.36
327.027	5.97
327.24	106.32
327.453	-45.23
327.666	18.26
327.879	46.93
328.092	145.24
328.305	18.26
328.518	3.93
328.731	-22.7
328.944	20.31
329.157	55.12
329.37	22.36
329.583	26.45
329.796	81.75
330.009	118.61
330.222	-22.7
330.435	42.84
330.648	28.5
330.861	-4.27
331.073	137.04
331.286	-2.22
331.499	48.98
331.712	-14.51
331.925	110.42
332.138	128.85
332.35	91.99
332.563	-6.31
332.776	61.27
332.989	14.17
333.202	1.88
333.414	51.03
333.627	85.84
333.84	-16.55
334.053	-39.08
334.265	-2.22
334.478	51.03
334.691	1.88
334.903	67.41
335.116	30.55
335.329	44.88
335.541	16.21
335.754	69.46
335.966	-53.42
336.179	91.99
336.392	118.61
336.604	12.12
336.817	-20.65
337.029	44.88
337.242	-16.55
337.454	18.26
337.667	79.7
337.88	32.6
338.092	71.51
338.305	100.18
338.517	26.45
338.729	18.26
338.942	59.22
339.154	1.88
339.367	26.45
339.579	48.98
339.792	79.7
340.004	57.17
340.217	79.7
340.429	59.22
340.641	-8.36
340.854	1.88
341.066	-0.17
341.278	-12.46
341.491	30.55
341.703	-2.22
341.915	63.32
342.128	67.41
342.34	16.21
342.552	32.6
342.764	-16.55
342.977	77.65
343.189	42.84
343.401	65.36
343.613	18.26
343.826	-2.22
344.038	-14.51
344.25	100.18
344.462	-30.89
344.674	57.17
344.886	77.65
345.099	34.64
345.311	5.97
345.523	-22.7
345.735	89.94
345.947	73.56
346.159	-14.51
346.371	48.98
346.583	28.5
346.795	51.03
347.007	14.17
347.219	18.26
347.431	61.27
347.643	46.93
347.855	-41.13
348.067	-28.84
348.279	10.07
348.491	44.88
348.703	48.98
348.915	-6.31
349.127	87.89
349.339	59.22
349.551	20.31
349.763	22.36
349.975	24.4
350.187	173.91
350.399	57.17
350.61	36.69
350.822	51.03
351.034	-2.22
351.246	59.22
351.458	55.12
351.669	10.07
351.881	59.22
352.093	81.75
352.305	44.88
352.517	26.45
352.728	85.84
352.94	14.17
353.152	59.22
353.363	57.17
353.575	57.17
353.787	79.7
353.999	67.41
354.21	79.7
354.422	83.8
354.633	96.08
354.845	100.18
355.057	-2.22
355.268	51.03
355.48	26.45
355.692	-37.03
355.903	32.6
356.115	10.07
356.326	48.98
356.538	5.97
356.749	55.12
356.961	132.95
357.172	83.8
357.384	5.97
357.595	94.04
357.807	75.6
358.018	-8.36
358.23	51.03
358.441	120.66
358.653	67.41
358.864	14.17
359.075	16.21
359.287	30.55
359.498	67.41
359.709	65.36
359.921	87.89
360.132	59.22
360.344	-12.46
360.555	-34.99
360.766	20.31
360.977	59.22
361.189	1.88
361.4	12.12
361.611	10.07
361.823	110.42
362.034	10.07
362.245	14.17
362.456	51.03
362.667	69.46
362.879	-6.31
363.09	67.41
363.301	79.7
363.512	3.93
363.723	51.03
363.935	-43.18
364.146	63.32
364.357	-6.31
364.568	59.22
364.779	-18.6
364.99	91.99
365.201	18.26
365.412	96.08
365.623	46.93
365.834	46.93
366.045	-28.84
366.256	96.08
366.467	126.8
366.678	96.08
366.889	32.6
367.1	51.03
367.311	77.65
367.522	-37.03
367.733	57.17
367.944	55.12
368.155	20.31
368.366	87.89
368.577	59.22
368.788	81.75
368.999	-8.36
369.209	100.18
369.42	118.61
369.631	67.41
369.842	24.4
370.053	-20.65
370.264	10.07
370.474	79.7
370.685	16.21
370.896	55.12
371.107	36.69
371.317	34.64
371.528	10.07
371.739	137.04
371.95	91.99
372.16	38.74
372.371	46.93
372.582	48.98
372.792	42.84
373.003	79.7
373.214	87.89
373.424	38.74
373.635	94.04
373.846	51.03
374.056	-22.7
374.267	40.79
374.477	81.75
374.688	42.84
374.898	48.98
375.109	-10.41
375.319	51.03
375.53	69.46
375.74	71.51
375.951	38.74
376.161	96.08
376.372	55.12
376.582	-0.17
376.793	8.02
377.003	53.08
377.214	26.45
377.424	132.95
377.635	69.46
377.845	-8.36
378.055	69.46
378.266	12.12
378.476	16.21
378.686	-12.46
378.897	40.79
379.107	32.6
379.317	30.55
379.528	-10.41
379.738	87.89
379.948	38.74
380.158	89.94
380.369	69.46
380.579	18.26
380.789	-30.89
380.999	26.45
381.21	34.64
381.42	137.04
381.63	-24.75
381.84	32.6
382.05	46.93
382.261	126.8
382.471	34.64
382.681	-43.18
382.891	48.98
383.101	98.13
383.311	-28.84
383.521	53.08
383.731	-8.36
383.941	102.23
384.151	40.79
384.361	77.65
384.571	12.12
384.781	104.28
384.991	87.89
385.201	-4.27
385.411	69.46
385.621	46.93
385.831	91.99
386.041	32.6
386.251	63.32
386.461	137.04
386.671	100.18
386.881	75.6
387.091	55.12
387.301	81.75
387.511	53.08
387.72	67.41
387.93	108.37
388.14	30.55
388.35	24.4
388.56	46.93
388.769	77.65
388.979	44.88
389.189	24.4
389.399	1.88
389.609	22.36
389.818	40.79
390.028	5.97
390.238	83.8
390.447	59.22
390.657	69.46
390.867	34.64
391.076	71.51
391.286	67.41
391.496	3.93
391.705	51.03
391.915	8.02
392.125	110.42
392.334	67.41
392.544	44.88
392.753	51.03
392.963	114.52
393.172	124.76
393.382	-26.79
393.591	59.22
393.801	87.89
394.01	63.32
394.22	77.65
394.429	69.46
394.639	73.56
394.848	59.22
395.058	48.98
395.267	79.7
395.477	67.41
395.686	75.6
395.895	-16.55
396.105	159.57
396.314	67.41
396.524	36.69
396.733	32.6
396.942	112.47
397.152	12.12
397.361	69.46
397.57	42.84
397.78	75.6
397.989	71.51
398.198	159.57
398.407	75.6
398.617	163.67
398.826	53.08
399.035	26.45
399.244	91.99
399.453	75.6
399.663	89.94
399.872	20.31
400.081	63.32
400.29	71.51
400.499	89.94
400.708	98.13
400.917	110.42
401.127	87.89
401.336	61.27
401.545	91.99
401.754	96.08
401.963	79.7
402.172	71.51
402.381	51.03
402.59	96.08
402.799	116.56
403.008	182.1
403.217	-14.51
403.426	108.37
403.635	-4.27
403.844	110.42
404.053	112.47
404.262	124.76
404.471	143.19
404.68	42.84
404.888	83.8
405.097	110.42
405.306	65.36
405.515	110.42
405.724	180.05
405.933	153.43
406.142	137.04
406.35	100.18
406.559	96.08
406.768	208.72
406.977	151.38
407.185	171.86
407.394	165.71
407.603	79.7
407.812	155.47
408.02	143.19
408.229	112.47
408.438	163.67
408.646	218.96
408.855	206.67
409.064	151.38
409.272	223.06
409.481	288.59
409.69	210.77
409.898	266.07
410.107	300.88
410.315	264.02
410.524	290.64
410.733	223.06
410.941	321.36
411.15	317.26
411.358	313.17
411.567	288.59
411.775	288.59
411.984	307.02
412.192	354.13
412.401	319.31
412.609	282.45
412.818	333.65
413.026	386.9
413.234	284.5
413.443	370.51
413.651	403.28
413.86	425.81
414.068	468.81
414.276	448.33
414.485	485.2
414.693	460.62
414.901	481.1
415.11	401.23
415.318	479.05
415.526	599.88
415.734	606.03
415.943	558.92
416.151	542.54
416.359	640.84
416.567	573.26
416.776	649.04
416.984	677.71
417.192	704.33
417.4	737.1
417.608	720.71
417.817	735.05
418.025	806.73
418.233	909.13
418.441	776.01
418.649	759.63
418.857	968.52
419.065	870.22
419.273	913.22
419.481	866.12
419.689	1058.63
419.897	1009.48
420.105	1029.96
420.313	1099.59
420.521	1097.54
420.729	1128.26
420.937	1113.92
421.145	1214.27
421.353	1328.96
421.561	1279.81
421.769	1369.92
421.977	1402.69
422.185	1443.65
422.393	1476.41
422.601	1605.44
422.809	1544
423.017	1660.73
423.224	1707.84
423.432	1804.09
423.64	1756.99
423.848	1943.35
424.056	1779.51
424.263	1967.93
424.471	1969.98
424.679	2074.42
424.887	2111.29
425.094	2150.2
425.302	2223.92
425.51	2484.02
425.718	2383.66
425.925	2377.52
426.133	2430.77
426.341	2694.96
426.548	2717.48
426.756	2737.96
426.964	2807.59
427.171	2895.66
427.379	3057.45
427.586	3131.17
427.794	3096.36
428.001	3327.78
428.209	3438.37
428.417	3385.12
428.624	3690.27
428.832	3665.69
429.039	3471.14
429.247	3649.31
429.454	3997.46
429.662	4077.34
429.869	4028.18
430.076	4245.27
430.284	4056.86
430.491	4220.69
430.699	4556.56
430.906	4525.84
431.114	4618
431.321	4716.3
431.528	4849.42
431.736	5234.44
431.943	5388.04
432.15	5240.58
432.358	5140.23
432.565	5687.04
432.772	5609.22
432.979	5940.99
433.187	5930.75
433.394	6070.01
433.601	6532.85
433.808	6504.18
434.016	6297.33
434.223	6782.7
434.43	6987.5
434.637	6895.34
434.844	7442.15
435.052	7601.89
435.259	7501.54
435.466	7669.47
435.673	7579.36
435.88	7974.62
436.087	8310.49
436.294	8406.74
436.501	8087.26
436.708	8396.5
436.915	8627.92
437.122	8945.36
437.329	9086.67
437.537	9477.83
437.743	9541.32
437.95	9291.46
438.157	9989.82
438.364	10272.44
438.571	10217.15
438.778	10237.63
438.985	11130.54
439.192	10657.46
439.399	11153.07
439.606	10788.53
439.813	11572.9
440.02	12306.07
440.227	11910.82
440.433	11982.49
440.64	12228.25
440.847	12109.47
441.054	12414.62
441.261	13119.12
441.467	13168.27
441.674	13502.09
441.881	13801.09
442.088	13866.63
442.294	13469.32
442.501	14149.25
442.708	14374.52
442.914	14937.71
443.121	15482.47
443.328	15199.85
443.534	16021.09
443.741	15818.34
443.948	15646.31
444.154	16969.3
444.361	16868.95
444.568	16647.77
444.774	16909.91
444.981	16942.67
445.187	17274.45
445.394	17960.52
445.6	17919.56
445.807	19801.64
446.013	18785.85
446.22	19097.14
446.426	20063.78
446.633	20188.71
446.839	20850.2
447.046	19826.21
447.252	20803.1
447.459	21132.82
447.665	21442.06
447.871	22220.29
448.078	23205.36
448.284	21956.1
448.491	22621.69
448.697	23457.26
448.903	24030.69
449.11	24038.89
449.316	23522.8
449.522	24341.99
449.728	24870.36
449.935	24673.76
450.141	24665.56
450.347	25548.24
450.553	24753.63
450.76	24892.89
450.966	25855.43
451.172	25794
451.378	26467.78
451.584	25566.67
451.791	26023.37
451.997	26219.97
452.203	26897.85
452.409	26740.16
452.615	26586.56
452.821	25687.5
453.027	25617.87
453.233	26932.67
453.44	25865.67
453.646	25871.82
453.852	26144.2
454.058	26545.6
454.264	26006.98
454.47	26449.35
454.676	25789.9
454.882	26637.76
455.088	24307.17
455.294	24698.33
455.5	25277.91
455.705	25558.48
455.911	24684
456.117	24090.09
456.323	23778.79
456.529	22640.12
456.735	23291.38
456.941	22826.49
457.147	22511.1
457.352	21802.5
457.558	21681.67
457.764	21636.62
457.97	21079.57
458.176	20723.23
458.381	20692.51
458.587	19752.49
458.793	19818.02
458.999	18660.92
459.204	19959.33
459.41	19336.75
459.616	18318.91
459.821	18259.52
460.027	18218.56
460.233	17716.81
460.438	16868.95
460.644	17403.47
460.85	16516.7
461.055	16113.25
461.261	16080.48
461.466	14982.77
461.672	14517.88
461.878	15447.66
462.083	14175.87
462.289	14016.13
462.494	14139.01
462.7	13330.06
462.905	12957.33
463.111	13588.1
463.316	13706.88
463.522	13291.15
463.727	13401.74
463.932	13262.47
464.138	13072.01
464.343	13282.95
464.549	12906.13
464.754	13256.33
464.959	12969.62
465.165	12883.6
465.37	12379.8
465.575	12119.71
465.781	12641.94
465.986	12594.84
466.191	12021.41
466.397	11939.49
466.602	11415.21
466.807	12152.48
467.012	11984.54
467.218	11579.04
467.423	11685.54
467.628	11630.24
467.833	12050.08
468.038	11646.63
468.244	11288.23
468.449	11849.38
468.654	11454.12
468.859	11511.46
469.064	11282.09
469.269	10866.35
469.474	10974.89
469.679	11022
469.885	10931.89
470.09	11044.52
470.295	11007.66
470.5	10708.66
470.705	10571.44
470.91	10479.29
471.115	10305.21
471.32	10639.03
471.525	10718.9
471.73	10376.89
471.935	10215.1
472.139	9793.22
472.344	10192.57
472.549	9825.98
472.754	9856.7
472.959	9707.2
473.164	9307.85
473.369	9379.53
473.574	9563.84
473.778	9400.01
473.983	9273.03
474.188	9469.64
474.393	8992.46
474.598	9078.47
474.802	9242.31
475.007	8881.87
475.212	9111.24
475.417	8586.96
475.621	8591.06
475.826	8546
476.031	8419.03
476.235	8269.53
476.44	8384.21
476.645	8394.45
476.849	8181.46
477.054	8324.82
477.259	7980.76
477.463	7954.14
477.668	7874.27
477.872	8066.78
478.077	7794.4
478.282	7540.45
478.486	7509.73
478.691	7636.7
478.895	7472.87
479.1	7466.72
479.304	7608.03
479.509	7233.25
479.713	7651.04
479.918	7104.23
480.122	7124.71
480.326	7286.5
480.531	7300.84
480.735	6993.64
480.94	7053.03
481.144	7177.96
481.348	7243.49
481.553	7163.62
481.757	6897.39
481.961	7055.08
482.166	6907.63
482.37	7075.56
482.574	7010.03
482.778	6846.19
482.983	6985.45
483.187	7106.28
483.391	6999.79
483.595	6895.34
483.8	6721.26
484.004	7100.14
484.208	6760.17
484.412	6905.58
484.616	7028.46
484.821	7087.85
485.025	6903.53
485.229	7120.62
485.433	6934.25
485.637	6962.92
485.841	6942.44
486.045	6905.58
486.249	7010.03
486.453	6751.98
486.657	6893.29
486.861	6911.72
487.065	6794.99
487.269	7005.93
487.473	6805.23
487.677	6995.69
487.881	6924.01
488.085	7118.57
488.289	6989.55
488.493	6895.34
488.697	6991.59
488.901	6942.44
489.105	7026.41
489.309	6930.16
489.512	7059.18
489.716	7018.22
489.92	7048.94
490.124	7036.65
490.328	7306.98
490.531	6983.4
490.735	7128.81
490.939	7259.88
491.143	7079.66
491.346	7112.42
491.55	7282.41
491.754	7134.95
491.958	7268.07
492.161	7278.31
492.365	7210.73
492.569	7257.83
492.772	7352.04
492.976	7339.75
493.18	7511.78
493.383	7644.9
493.587	7515.87
493.79	7593.7
493.994	7694.05
494.197	7565.03
494.401	7726.82
494.605	7831.26
494.808	7794.4
495.012	7851.74
495.215	7902.94
495.419	7941.85
495.622	7812.83
495.825	8124.12
496.029	7968.48
496.232	8218.33
496.436	7958.24
496.639	8247
496.843	8326.87
497.046	8408.79
497.249	8744.66
497.453	8687.31
497.656	8765.14
497.859	8697.55
498.063	8756.94
498.266	9084.62
498.469	8955.6
498.673	8951.5
498.876	9336.52
499.079	9330.37
499.282	9367.24
499.485	9676.48
499.689	9803.46
499.892	9780.93
500.095	9651.91
500.298	9926.33
500.501	9944.77
500.705	10188.47
500.908	10354.36
501.111	10354.36
501.314	10497.72
501.517	10544.82
501.72	10872.5
501.923	10716.85
502.126	10968.75
502.329	11271.85
502.532	11300.52
502.735	11323.05
502.938	11699.87
503.141	11617.96
503.344	11642.53
503.547	11529.89
503.75	11908.77
503.953	11876
504.156	12338.84
504.359	12332.7
504.562	12357.27
504.765	12881.55
504.968	12818.07
505.17	12781.2
505.373	12832.4
505.576	12996.24
505.779	13235.85
505.982	13358.73
506.185	13598.34
506.387	13639.3
506.59	14009.98
506.793	13868.67
506.996	14016.13
507.198	14378.62
507.401	14239.36
507.604	14458.49
507.807	14726.77
508.009	14739.06
508.212	14794.36
508.415	15206
508.617	15322.73
508.82	15294.06
509.022	15263.34
509.225	15724.13
509.428	16004.71
509.63	15900.26
509.833	15969.89
510.035	16543.32
510.238	16707.16
510.44	16905.81
510.643	16709.21
510.845	16971.35
511.048	16944.72
511.25	17237.58
511.453	17280.59
511.655	17841.73
511.858	17790.53
512.06	18077.25
512.262	18286.14
512.465	18339.39
512.667	18525.75
512.87	18540.09
513.072	18654.78
513.274	19090.99
513.477	19236.4
513.679	19435.05
513.881	19549.74
514.084	20004.39
514.286	19877.41
514.488	19822.12
514.69	20436.51
514.893	20532.76
515.095	20768.28
515.297	20809.24
515.499	20862.49
515.701	21390.86
515.904	21380.62
516.106	21802.5
516.308	21818.89
516.51	22033.93
516.712	21882.38
516.914	22519.29
517.116	22826.49
517.318	22750.71
517.52	22781.43
517.722	23170.55
517.925	23387.63
518.127	23743.98
518.329	23959.02
518.531	23805.42
518.733	24358.37
518.935	24804.83
519.136	24311.27
519.338	24817.11
519.54	25030.1
519.742	25552.34
519.944	25183.7
520.146	25800.14
520.348	25972.17
520.55	25865.67
520.752	26371.52
520.954	26668.48
521.155	26453.44
521.357	26959.29
521.559	26877.37
521.761	27520.43
521.963	27803.05
522.164	27434.42
522.366	27641.26
522.568	28249.51
522.77	28110.25
522.971	28452.26
523.173	28327.33
523.375	28800.41
523.576	28593.57
523.778	28646.82
523.98	29324.69
524.181	29300.12
524.383	29504.92
524.584	29633.94
524.786	29779.34
524.988	29631.89
525.189	29875.6
525.391	30360.97
525.592	30391.69
525.794	30627.2
525.995	30756.22
526.197	30557.57
526.398	30819.71
526.6	31096.19
526.801	31397.24
527.003	30987.64
527.204	31341.94
527.406	31759.73
527.607	31901.04
527.808	31767.92
528.01	31565.17
528.211	31731.06
528.412	32343.4
528.614	32210.28
528.815	32140.65
529.016	32578.92
529.218	32390.5
529.419	32396.65
529.62	32466.28
529.822	32697.7
530.023	32714.08
530.224	32548.2
530.425	32820.58
530.626	32675.17
530.828	32779.62
531.029	33394.01
531.23	32820.58
531.431	32734.56
531.632	32888.16
531.833	33183.07
532.035	32869.73
532.236	33289.56
532.437	33385.82
532.638	33035.61
532.839	33375.58
533.04	33477.97
533.241	33011.04
533.442	33838.42
533.643	33561.94
533.844	33432.92
534.045	34106.7
534.246	33404.25
534.447	33815.89
534.648	33359.19
534.849	33584.47
535.05	33363.29
535.251	33348.95
535.451	33668.44
535.652	33500.5
535.853	33533.27
536.054	33742.16
536.255	33676.63
536.456	33279.32
536.657	33901.9
536.857	33269.08
537.058	33475.93
537.259	34002.25
537.46	33754.45
537.66	33607
537.861	33719.63
538.062	33506.65
538.263	33563.99
538.463	33645.91
538.664	33645.91
538.865	33752.4
539.065	33961.3
539.266	33639.76
539.466	34030.93
539.667	33328.47
539.868	34139.47
540.068	33793.36
540.269	33697.11
540.469	33670.48
540.67	33625.43
540.87	33592.66
541.071	33746.26
541.271	33322.33
541.472	33727.83
541.672	33592.66
541.873	33486.17
542.073	33256.79
542.274	33805.65
542.474	33717.59
542.675	33281.37
542.875	33946.96
543.075	33510.74
543.276	33324.38
543.476	33785.17
543.676	33248.6
543.877	33602.9
544.077	33584.47
544.277	33482.07
544.478	33477.97
544.678	33613.14
544.878	33693.01
545.078	33561.94
545.279	33199.45
545.479	32945.5
545.679	33332.57
545.879	33174.88
546.079	33443.16
546.28	33367.38
546.48	33291.61
546.68	33269.08
546.88	33611.09
547.08	33416.54
547.28	33029.47
547.48	32836.96
547.68	33281.37
547.88	32970.08
548.081	33500.5
548.281	33129.82
548.481	32992.61
548.681	33637.72
548.881	33373.53
549.081	33379.67
549.28	33047.9
549.48	33336.66
549.68	32961.89
549.88	33781.07
550.08	33023.33
550.28	33365.34
550.48	33058.14
550.68	33787.22
550.88	33162.59
551.08	32828.77
551.279	33441.11
551.479	32888.16
551.679	32970.08
551.879	32542.05
552.079	33275.23
552.278	33189.21
552.478	33101.15
552.678	33097.05
552.878	33293.66
553.077	32818.53
553.277	32562.53
553.477	32974.17
553.676	32728.42
553.876	32683.36
554.076	33011.04
554.275	32742.75
554.475	32249.19
554.674	32736.61
554.874	33033.57
555.074	32849.25
555.273	33152.35
555.473	33066.33
555.672	32423.27
555.872	32730.47
556.071	32521.57
556.271	32982.37
556.47	32718.18
556.67	32234.86
556.869	32564.58
557.068	32671.07
557.268	32390.5
557.467	32449.89
557.667	32081.26
557.866	32677.22
558.065	32507.24
558.265	32152.94
558.464	32136.55
558.663	32443.75
558.863	31741.3
559.062	32212.33
559.261	31534.45
559.461	32230.76
559.66	31647.09
559.859	32128.36
560.058	31380.85
560.258	31561.08
560.457	31565.17
560.656	31782.26
560.855	31747.44
561.054	31454.58
561.253	31337.85
561.453	31855.98
561.652	31964.53
561.851	31497.59
562.05	31274.36
562.249	31067.52
562.448	31430.01
562.647	31362.42
562.846	31391.09
563.045	31079.8
563.244	30772.61
563.443	31155.58
563.642	30557.57
563.841	30932.35
564.04	30893.44
564.239	31055.23
564.438	30516.61
564.637	30772.61
564.836	30700.93
565.035	30252.42
565.234	30612.87
565.432	30508.42
565.631	30277
565.83	30430.6
566.029	30010.76
566.228	30172.55
566.427	29922.7
566.625	30066.06
566.824	29828.49
567.023	30215.56
567.222	29404.56
567.42	30277
567.619	29713.81
567.818	29535.63
568.016	29500.82
568.215	29799.82
568.414	29271.45
568.612	29472.15
568.811	29255.06
569.01	29214.1
569.208	28861.85
569.407	28992.92
569.605	29093.27
569.804	28730.78
570.002	28405.16
570.201	29087.13
570.4	28601.76
570.598	28331.43
570.797	28687.78
570.995	28425.64
571.193	28157.35
571.392	28196.26
571.59	28192.17
571.789	28245.41
571.987	28278.18
572.186	28030.38
572.384	28259.75
572.582	27839.92
572.781	28192.17
572.979	27758
573.177	27671.98
573.376	28073.38
573.574	27344.31
573.772	27954.6
573.971	27162.04
574.169	27467.19
574.367	27256.25
574.565	27270.58
574.763	26973.63
574.962	27067.83
575.16	26779.07
575.358	26869.18
575.556	26514.88
575.754	27055.54
575.952	26613.18
576.151	26717.63
576.349	26365.38
576.547	26518.98
576.745	26557.89
576.943	26271.17
577.141	26262.98
577.339	26318.28
577.537	26164.68
577.735	26127.81
577.933	25986.5
578.131	25853.39
578.329	25791.95
578.527	25996.74
578.725	25894.35
578.923	25939.4
579.121	25396.69
579.319	25654.73
579.516	25583.05
579.714	25429.46
579.912	24997.34
580.11	25294.29
580.308	25267.67
580.506	25185.75
580.704	24997.34
580.901	24987.1
581.099	25200.08
581.297	24966.62
581.495	24720.86
581.692	25122.26
581.89	24618.46
582.088	24731.1
582.285	24626.65
582.483	24464.86
582.681	24159.72
582.878	24413.66
583.076	24575.45
583.274	24370.66
583.471	23887.34
583.669	24278.5
583.866	23997.93
584.064	24118.76
584.262	23850.47
584.459	24182.24
584.657	23823.85
584.854	23846.38
585.052	23518.7
585.249	23836.14
585.447	23571.95
585.644	23535.09
585.841	23631.34
586.039	23733.74
586.236	23315.95
586.434	23025.14
586.631	22932.98
586.828	23160.31
587.026	22801.91
587.223	22883.83
587.42	23023.09
587.618	22687.23
587.815	22803.96
588.012	22838.78
588.21	22468.09
588.407	23000.57
588.604	22468.09
588.801	22269.44
588.999	22652.41
589.196	22332.93
589.393	22332.93
589.59	22304.26
589.787	22234.63
589.984	21847.56
590.182	21777.93
590.379	21839.37
590.576	21937.67
590.773	21704.2
590.97	21595.66
591.167	21990.92
591.364	21501.45
591.561	21577.23
591.758	21319.18
591.955	21401.1
592.152	21677.58
592.349	21218.83
592.546	21503.5
592.743	21204.5
592.94	20803.1
593.137	21022.23
593.334	21196.31
593.531	20608.54
593.727	20809.24
593.924	20942.36
594.121	21138.96
594.318	21081.62
594.515	20319.78
594.712	20825.62
594.908	20362.78
595.105	20567.58
595.302	20248.1
595.499	20432.41
595.696	20500
595.892	20395.55
596.089	20354.59
596.286	20338.21
596.482	20004.39
596.679	20010.53
596.876	19961.38
597.072	19957.28
597.269	19785.26
597.466	19723.82
597.662	19584.55
597.859	19703.34
598.055	19736.1
598.252	19537.45
598.448	19656.23
598.645	19658.28
598.841	19312.17
599.038	19394.09
599.234	19217.97
599.431	19062.32
599.627	19090.99
599.824	19523.12
600.02	18900.53
600.217	19004.98
600.413	18841.14
600.609	18959.92
600.806	18671.16
601.002	18832.95
601.198	18720.31
601.395	18458.17
601.591	18341.44
601.787	18609.72
601.984	18470.46
602.18	18486.84
602.376	18431.55
602.572	18263.61
602.769	18232.9
602.965	18032.19
603.161	18142.78
603.357	17968.71
603.553	17923.65
603.75	18267.71
603.946	17610.31
604.142	17843.78
604.338	17450.57
604.534	17690.18
604.73	17481.29
604.926	17532.49
605.122	17563.21
605.318	17507.91
605.514	17428.04
605.71	17223.25
605.906	17548.87
606.102	17509.96
606.298	17458.76
606.494	17141.33
606.69	17182.29
606.886	17321.55
607.082	16932.43
607.278	17012.31
607.474	16856.66
607.67	17247.82
607.866	16821.84
608.062	16954.96
608.257	16758.36
608.453	16791.13
608.649	16973.39
608.845	16586.33
609.041	16791.13
609.236	16701.01
609.432	16817.75
609.628	16553.56
609.824	16846.42
610.019	16543.32
610.215	16455.26
610.411	16418.39
610.606	16141.92
610.802	16434.78
610.998	16359
611.193	16244.32
611.389	16158.3
611.584	16060
611.78	16270.94
611.976	16035.42
612.171	16076.38
612.367	15912.55
612.562	16215.65
612.758	15904.35
612.953	15818.34
613.149	16019.04
613.344	15959.65
613.539	16033.38
613.735	15881.83
613.93	15777.38
614.126	15707.75
614.321	15984.23
614.517	15992.42
614.712	15783.52
614.907	15730.28
615.103	15582.82
615.298	15498.86
615.493	15634.02
615.688	15343.21
615.884	15685.22
616.079	15402.6
616.274	15435.37
616.47	15492.71
616.665	15525.48
616.86	15267.44
617.055	15154.8
617.25	15156.85
617.445	15173.23
617.641	14851.7
617.836	15162.99
618.031	14935.67
618.226	15418.99
618.421	14847.6
618.616	15281.77
618.811	14804.6
619.006	14870.13
619.201	14673.53
619.396	14859.89
619.591	14489.21
619.786	14964.34
619.981	14640.76
620.176	14567.03
620.371	14333.56
620.566	14720.63
620.761	14444.15
620.956	14511.74
621.151	14229.12
621.346	14059.13
621.541	13817.47
621.735	14239.36
621.93	13928.06
622.125	13811.33
622.32	13594.25
622.515	13706.88
622.709	13819.52
622.904	13483.66
623.099	13543.05
623.294	13536.9
623.488	13317.77
623.683	13432.46
623.878	13074.06
624.072	13227.66
624.267	13149.84
624.462	12959.38
624.656	12887.7
624.851	13096.59
625.046	13057.68
625.24	12904.08
625.435	12725.91
625.629	12711.57
625.824	12789.39
626.018	12635.8
626.213	12166.81
626.407	12447.38
626.602	12050.08
626.796	12183.2
626.991	12127.9
627.185	12132
627.38	12031.65
627.574	12064.41
627.768	11925.15
627.963	11806.37
628.157	11697.83
628.352	11798.18
628.546	11634.34
628.74	11857.57
628.935	11488.93
629.129	11558.56
629.323	11413.16
629.517	11368.1
629.712	11577
629.906	11261.61
630.1	11273.9
630.294	11290.28
630.489	11054.76
630.683	10978.99
630.877	10938.03
631.071	10768.05
631.265	10831.54
631.459	10737.33
631.653	10825.39
631.848	10657.46
632.042	10684.08
632.236	10872.5
632.43	10469.05
632.624	10442.42
632.818	10415.8
633.012	10266.3
633.206	10380.98
633.4	10307.26
633.594	10094.27
633.788	10139.32
633.982	10227.39
634.176	10000.06
634.369	10088.12
634.563	9989.82
634.757	9936.57
634.951	10036.92
635.145	9830.08
635.339	9744.06
635.533	9621.19
635.726	9555.65
635.92	9592.51
636.114	9500.36
636.308	9266.89
636.501	9350.85
636.695	9397.96
636.889	9313.99
637.083	9299.66
637.276	9299.66
637.47	9236.17
637.664	9055.95
637.857	9029.32
638.051	9123.53
638.244	9021.13
638.438	8974.03
638.632	9064.14
638.825	8974.03
639.019	8885.97
639.212	8689.36
639.406	8720.08
639.599	8767.18
639.793	8662.74
639.986	8470.23
640.18	8515.28
640.373	8627.92
640.567	8259.29
640.76	8466.13
640.954	8275.67
641.147	8437.46
641.34	8193.75
641.534	8361.69
641.727	8111.83
641.92	8089.31
642.114	8013.53
642.307	7997.15
642.5	8105.69
642.694	7737.06
642.887	7980.76
643.08	7904.99
643.273	7915.23
643.467	7821.02
643.66	7694.05
643.853	7542.5
644.046	7524.07
644.239	7593.7
644.432	7579.36
644.626	7487.2
644.819	7499.49
645.012	7583.46
645.205	7597.79
645.398	7401.19
645.591	7431.91
645.784	7255.78
645.977	7282.41
646.17	7251.69
646.363	7227.11
646.556	7186.15
646.749	7005.93
646.942	6942.44
647.135	7116.52
647.328	7057.13
647.521	6911.72
647.714	6840.04
647.907	6889.2
648.099	6733.55
648.292	6817.52
648.485	6756.08
648.678	6776.56
648.871	6704.88
649.064	6604.53
649.256	6674.16
649.449	6498.03
649.642	6571.76
649.835	6563.57
650.027	6387.44
650.22	6457.07
650.413	6489.84
650.605	6346.48
650.798	6317.81
650.991	6418.16
651.183	6428.4
651.376	6186.74
651.568	6262.52
651.761	6225.65
651.954	6080.25
652.146	6203.13
652.339	6239.99
652.531	6137.59
652.724	6110.97
652.916	6070.01
653.109	5936.89
653.301	5861.12
653.494	5965.56
653.686	5881.6
653.879	5922.55
654.071	5644.03
654.263	5711.61
654.456	5801.72
654.648	6057.72
654.84	5820.16
655.033	5523.2
655.225	5529.34
655.417	5555.97
655.61	5613.31
655.802	5529.34
655.994	5525.25
656.186	5570.3
656.379	5433.09
656.571	5490.43
656.763	5285.64
656.955	5418.75
657.148	5402.37
657.34	5345.03
657.532	5394.18
657.724	5361.41
657.916	4982.54
658.108	5179.14
658.3	5199.62
658.492	5070.6
658.684	5064.46
658.876	5111.56
659.068	5132.04
659.26	4910.86
659.452	4960.01
659.644	4917
659.836	4951.82
660.028	5007.11
660.22	4970.25
660.412	4716.3
660.604	4792.08
660.796	4878.09
660.988	4822.8
661.18	4876.04
661.372	4970.25
661.563	4802.32
661.755	4658.96
661.947	4654.86
662.139	4736.78
662.331	4669.2
662.522	4546.32
662.714	4513.55
662.906	4552.46
663.097	4466.45
663.289	4466.45
663.481	4374.29
663.673	4400.91
663.864	4427.54
664.056	4364.05
664.247	4247.32
664.439	4390.67
664.631	4265.75
664.822	4294.42
665.014	4308.76
665.205	4261.65
665.397	4142.87
665.588	4200.21
665.78	4071.19
665.971	4275.99
666.163	4175.64
666.354	4134.68
666.546	4073.24
666.737	4026.14
666.929	3999.51
667.12	3925.79
667.311	4038.42
667.503	4030.23
667.694	3956.5
667.885	4003.61
668.077	3991.32
668.268	4005.66
668.459	3911.45
668.651	3753.76
668.842	3833.63
669.033	3811.1
669.224	3870.49
669.416	3864.35
669.607	3745.56
669.798	3817.24
669.989	3729.18
670.18	3565.34
670.371	3680.03
670.563	3702.56
670.754	3581.73
670.945	3622.69
671.136	3677.98
671.327	3495.71
671.518	3585.82
671.709	3757.85
671.9	3520.29
672.091	3485.47
672.282	3559.2
672.473	3655.45
672.664	3661.6
672.855	3647.26
673.046	3669.79
673.237	3528.48
673.428	3454.75
673.619	3473.18
673.809	3362.59
674	3442.46
674.191	3360.55
674.382	3378.98
674.573	3460.9
674.764	3399.46
674.954	3331.87
675.145	3249.96
675.336	3229.48
675.527	3409.7
675.717	3317.54
675.908	3397.41
676.099	3260.2
676.289	3331.87
676.48	3165.99
676.671	3290.92
676.861	3106.6
677.052	3159.85
677.243	3317.54
677.433	3206.95
677.624	3100.45
677.814	3217.19
678.005	3176.23
678.195	3190.56
678.386	3174.18
678.576	3067.69
678.767	3065.64
678.957	3120.93
679.148	3254.05
679.338	3036.97
679.529	3098.41
679.719	2993.96
679.909	3168.04
680.1	3049.25
680.29	2950.95
680.481	2905.9
680.671	3106.6
680.861	2959.14
681.052	2957.1
681.242	2961.19
681.432	2881.32
681.622	2895.66
681.813	2959.14
682.003	2991.91
682.193	2950.95
682.383	2838.31
682.573	2883.37
682.764	2914.09
682.954	2864.94
683.144	2953
683.334	2877.23
683.524	2873.13
683.714	2903.85
683.904	2944.81
684.094	2871.08
684.284	2887.47
684.474	2901.8
684.664	2828.07
684.854	2830.12
685.044	2938.66
685.234	2834.22
685.424	2803.5
685.614	2830.12
685.804	2746.16
685.994	2750.25
686.184	2686.76
686.374	2733.87
686.564	2805.55
686.753	2742.06
686.943	2688.81
687.133	2688.81
687.323	2740.01
687.513	2774.83
687.702	2770.73
687.892	2684.72
688.082	2686.76
688.272	2690.86
688.461	2676.52
688.651	2723.63
688.841	2627.37
689.03	2699.05
689.22	2697
689.41	2672.43
689.599	2600.75
689.789	2619.18
689.979	2510.64
690.168	2684.72
690.358	2660.14
690.547	2484.02
690.737	2498.35
690.926	2434.86
691.116	2529.07
691.305	2531.12
691.495	2436.91
691.684	2395.95
691.874	2438.96
692.063	2651.95
692.252	2449.2
692.442	2461.49
692.631	2451.25
692.82	2447.15
693.01	2502.45
693.199	2430.77
693.388	2314.03
693.578	2447.15
693.767	2299.7
693.956	2459.44
694.146	2371.38
694.335	2271.03
694.524	2357.04
694.713	2266.93
694.902	2322.23
695.092	2303.79
695.281	2441.01
695.47	2320.18
695.659	2234.16
695.848	2393.9
696.037	2477.87
696.226	2322.23
696.415	2281.27
696.604	2248.5
696.793	2197.3
696.982	2311.99
697.171	2314.03
697.36	2303.79
697.549	2256.69
697.738	2285.36
697.927	2207.54
698.116	2242.36
698.305	2252.59
698.494	2219.83
698.683	2207.54
698.872	2324.27
699.061	2252.59
699.25	2219.83
699.438	2301.75
699.627	2189.11
699.816	2191.16
700.005	2150.2
700.193	2189.11
700.382	2256.69
700.571	2160.44
700.76	2250.55
700.948	2211.64
701.137	2131.76
701.326	2185.01
701.514	2185.01
701.703	2197.3
701.892	2154.29
702.08	2289.46
702.269	2144.05
702.457	2051.89
702.646	2150.2
702.834	2223.92
703.023	2156.34
703.212	2215.73
703.4	2148.15
703.589	2137.91
703.777	2170.68
703.965	2168.63
704.154	2086.71
704.342	2076.47
704.531	2197.3
704.719	2168.63
704.907	2117.43
705.096	2088.76
705.284	2115.38
705.472	2125.62
705.661	1922.87
705.849	2285.36
706.037	2119.48
706.226	2117.43
706.414	2144.05
706.602	2146.1
706.79	2156.34
706.979	2064.18
707.167	2144.05
707.355	2086.71
707.543	2035.51
707.731	2137.91
707.919	2070.33
708.107	2041.65
708.296	2078.52
708.484	2084.66
708.672	2062.13
708.86	2158.39
709.048	2051.89
709.236	2119.48
709.424	2099
709.612	2080.57
709.8	2082.61
709.988	2002.74
710.176	2125.62
710.364	2055.99
710.551	2117.43
710.739	2127.67
710.927	2111.29
711.115	2060.09
711.303	2215.73
711.491	2119.48
711.679	2066.23
711.866	2053.94
712.054	2090.81
712.242	1992.5
712.43	2017.08
712.617	2115.38
712.805	2099
712.993	1959.74
713.181	1982.26
713.368	2066.23
713.556	2189.11
713.744	1992.5
713.931	2203.44
714.119	2041.65
714.306	2123.57
714.494	2105.14
714.682	2080.57
714.869	2090.81
715.057	2051.89
715.244	1992.5
715.432	2129.72
715.619	2174.77
715.807	2019.13
715.994	2094.9
716.182	2043.7
716.369	2086.71
716.556	2228.02
716.744	2133.81
716.931	2060.09
717.119	2139.96
717.306	2066.23
717.493	2008.89
717.681	2164.53
717.868	2025.27
718.055	1994.55
718.242	2023.22
718.43	2078.52
718.617	2070.33
718.804	2090.81
718.991	2170.68
719.179	2135.86
719.366	1963.83
719.553	2201.4
719.74	2094.9
719.927	1967.93
720.114	2041.65
720.301	2049.85
720.488	2090.81
720.676	2006.84
720.863	2058.04
721.05	2082.61
721.237	2012.98
721.424	2092.85
721.611	2062.13
721.798	1982.26
721.985	1902.39
722.172	2064.18
722.358	1967.93
722.545	2025.27
722.732	1986.36
722.919	2021.17
723.106	2000.69
723.293	2002.74
723.48	2088.76
723.667	2027.32
723.853	2017.08
724.04	1961.78
724.227	1896.25
724.414	2000.69
724.6	2004.79
724.787	2062.13
724.974	2072.37
725.161	2006.84
725.347	1992.5
725.534	1990.45
725.72	2172.72
725.907	2152.24
726.094	2021.17
726.28	1967.93
726.467	2010.93
726.653	2099
726.84	2053.94
727.027	2123.57
727.213	1879.86
727.4	2113.33
727.586	2080.57
727.773	2109.24
727.959	2055.99
728.145	1992.5
728.332	2090.81
728.518	1910.58
728.705	2203.44
728.891	2033.46
729.077	1992.5
729.264	2035.51
729.45	1959.74
729.636	2035.51
729.823	2045.75
730.009	2029.37
730.195	2084.66
730.382	2133.81
730.568	2107.19
730.754	2049.85
730.94	1972.02
731.126	1935.16
731.313	1912.63
731.499	2004.79
731.685	2062.13
731.871	2000.69
732.057	1988.41
732.243	2142
732.429	2004.79
732.615	2023.22
732.801	2129.72
732.987	1976.12
733.173	1949.5
733.359	1922.87
733.545	1994.55
733.731	1910.58
733.917	2002.74
734.103	1933.11
734.289	2066.23
734.475	1988.41
734.661	2051.89
734.847	2031.41
735.033	2068.28
735.219	1978.17
735.404	1961.78
735.59	1990.45
735.776	2027.32
735.962	1935.16
736.148	1853.24
736.333	1980.22
736.519	1859.38
736.705	1955.64
736.89	1929.02
737.076	1898.3
737.262	1953.59
737.447	1969.98
737.633	1918.78
737.819	1969.98
738.004	1967.93
738.19	1875.77
738.375	1883.96
738.561	1924.92
738.747	1894.2
738.932	1812.28
739.118	1902.39
739.303	1974.07
739.489	1929.02
739.674	1924.92
739.859	1980.22
740.045	1912.63
740.23	1791.8
740.416	1935.16
740.601	1836.86
740.786	1875.77
740.972	1900.34
741.157	1799.99
741.342	1888.06
741.528	1845.05
741.713	1709.88
741.898	1822.52
742.084	1836.86
742.269	1787.71
742.454	1828.67
742.639	1738.55
742.824	1795.9
743.01	1728.31
743.195	1836.86
743.38	1810.23
743.565	1716.03
743.75	1787.71
743.935	1793.85
744.12	1879.86
744.305	1787.71
744.49	1701.69
744.675	1804.09
744.86	1607.48
745.045	1705.79
745.23	1861.43
745.415	1763.13
745.6	1763.13
745.785	1660.73
745.97	1693.5
746.155	1664.83
746.34	1695.55
746.525	1652.54
746.71	1630.01
746.895	1568.57
747.079	1632.06
747.264	1621.82
747.449	1632.06
747.634	1593.15
747.819	1689.4
748.003	1574.72
748.188	1597.24
748.373	1615.68
748.557	1441.6
748.742	1623.87
748.927	1601.34
749.111	1423.17
749.296	1617.72
749.481	1560.38
749.665	1484.61
749.85	1369.92
750.034	1404.74
750.219	1472.32
750.404	1466.17
750.588	1427.26
750.773	1447.74
750.957	1404.74
751.141	1400.64
751.326	1388.35
751.51	1374.02
751.695	1380.16
751.879	1357.63
752.064	1400.64
752.248	1353.54
752.432	1347.39
752.617	1312.58
752.801	1322.82
752.985	1349.44
753.17	1353.54
753.354	1337.15
753.538	1398.59
753.722	1320.77
753.907	1343.3
754.091	1361.73
754.275	1308.48
754.459	1351.49
754.643	1265.47
754.828	1177.41
755.012	1378.11
755.196	1122.12
755.38	1247.04
755.564	1253.19
755.748	1263.43
755.932	1265.47
756.116	1316.67
756.3	1122.12
756.484	1161.03
756.668	1132.36
756.852	1148.74
757.036	1181.51
757.22	1070.92
757.404	1001.29
757.588	1187.65
757.772	1083.2
757.956	1120.07
758.14	1027.91
758.323	1093.44
758.507	1185.6
758.691	1134.4
758.875	1109.83
759.059	1130.31
759.242	1042.25
759.426	995.14
759.61	999.24
759.794	999.24
759.977	1077.06
760.161	972.61
760.345	1034.05
760.528	1068.87
760.712	1042.25
760.895	960.33
761.079	997.19
761.263	1040.2
761.446	974.66
761.63	1075.01
761.813	933.7
761.997	1058.63
762.18	880.46
762.364	1009.48
762.547	878.41
762.731	931.66
762.914	945.99
763.098	984.9
763.281	989
763.464	941.89
763.648	913.22
763.831	1001.29
764.015	888.65
764.198	905.03
764.381	954.18
764.564	917.32
764.748	890.7
764.931	1019.72
765.114	905.03
765.297	968.52
765.481	884.55
765.664	931.66
765.847	835.4
766.03	939.85
766.213	806.73
766.397	935.75
766.58	849.74
766.763	915.27
766.946	880.46
767.129	792.39
767.312	829.26
767.495	880.46
767.678	945.99
767.861	804.68
768.044	870.22
768.227	870.22
768.41	786.25
768.593	837.45
768.776	849.74
768.959	882.5
769.142	802.63
769.324	888.65
769.507	864.07
769.69	771.91
769.873	874.31
770.056	866.12
770.239	712.52
770.421	835.4
770.604	751.43
770.787	702.28
770.97	862.02
771.152	806.73
771.335	776.01
771.518	814.92
771.7	816.97
771.883	825.16
772.066	778.06
772.248	741.19
772.431	835.4
772.613	771.91
772.796	733
772.978	739.15
773.161	778.06
773.343	798.54
773.526	782.15
773.708	735.05
773.891	673.61
774.073	657.23
774.256	698.19
774.438	806.73
774.621	702.28
774.803	702.28
774.985	575.31
775.168	689.99
775.35	675.66
775.532	706.38
775.715	743.24
775.897	698.19
776.079	706.38
776.261	667.47
776.444	624.46
776.626	581.45
776.808	685.9
776.99	675.66
777.173	667.47
777.355	685.9
777.537	638.8
777.719	599.88
777.901	651.08
778.083	685.9
778.265	560.97
778.447	657.23
778.629	526.16
778.811	538.45
778.993	591.69
779.175	653.13
779.357	585.55
779.539	579.4
779.721	657.23
779.903	579.4
780.085	509.77
780.267	569.16
780.449	509.77
780.631	552.78
780.812	464.72
780.994	593.74
781.176	528.21
781.358	495.44
781.54	554.83
781.721	509.77
781.903	520.01
782.085	507.73
782.267	505.68
782.448	487.25
782.63	485.2
782.812	606.03
782.993	532.3
783.175	563.02
783.357	495.44
783.538	386.9
783.72	442.19
783.901	452.43
784.083	505.68
784.264	481.1
784.446	472.91
784.627	509.77
784.809	442.19
784.99	450.38
785.172	460.62
785.353	434
785.535	429.9
785.716	460.62
785.897	409.42
786.079	440.14
786.26	429.9
786.441	401.23
786.623	407.38
786.804	454.48
786.985	438.09
787.167	436.05
787.348	446.29
787.529	362.32
787.71	434
787.891	468.81
788.073	376.66
788.254	395.09
788.435	395.09
788.616	401.23
788.797	347.98
788.978	380.75
789.159	354.13
789.34	345.94
789.522	393.04
789.703	368.46
789.884	304.98
790.065	327.5
790.246	374.61
790.427	337.74
790.607	298.83
790.788	390.99
790.969	343.89
791.15	347.98
791.331	337.74
791.512	378.7
791.693	298.83
791.874	339.79
792.054	298.83
792.235	325.46
792.416	327.5
792.597	307.02
792.778	370.51
792.958	313.17
793.139	329.55
793.32	278.35
793.5	341.84
793.681	337.74
793.862	223.06
794.042	280.4
794.223	198.48
794.404	300.88
794.584	188.24
794.765	266.07
794.945	311.12
795.126	241.49
795.306	296.78
795.487	315.22
795.667	327.5
795.848	268.11
796.028	227.15
796.209	282.45
796.389	270.16
796.57	321.36
796.75	264.02
796.93	257.87
797.111	233.3
797.291	290.64
797.471	227.15
797.652	288.59
797.832	245.59
798.012	264.02
798.192	214.87
798.373	268.11
798.553	200.53
798.733	298.83
798.913	149.33
799.093	239.44
799.274	241.49
799.454	208.72
799.634	247.63
799.814	247.63
799.994	300.88
800.174	229.2
800.354	278.35
800.534	190.29
800.714	313.17
800.894	169.81
801.074	188.24
801.254	225.11
801.434	194.39
801.614	257.87
801.794	161.62
801.974	784.2
802.154	173.91
802.334	257.87
802.514	171.86
802.693	149.33
802.873	229.2
803.053	253.78
803.233	227.15
803.413	245.59
803.592	231.25
803.772	249.68
803.952	264.02
804.131	157.52
804.311	169.81
804.491	184.15
804.67	212.82
804.85	186.19
805.03	192.34
805.209	284.5
805.389	194.39
805.568	243.54
805.748	200.53
805.928	159.57
806.107	233.3
806.287	184.15
806.466	186.19
806.646	141.14
806.825	204.63
807.004	243.54
807.184	192.34
807.363	268.11
807.543	200.53
807.722	178
807.901	139.09
808.081	173.91
808.26	106.32
808.439	214.87
808.619	167.76
808.798	175.95
808.977	145.24
809.156	100.18
809.336	225.11
809.515	169.81
809.694	137.04
809.873	249.68
810.052	214.87
810.231	173.91
810.411	149.33
810.59	266.07
810.769	259.92
810.948	128.85
811.127	204.63
811.306	210.77
811.485	212.82
811.664	216.91
811.843	180.05
812.022	149.33
812.201	198.48
812.38	120.66
812.559	112.47
812.737	147.28
812.916	30.55
813.095	180.05
813.274	110.42
813.453	116.56
813.632	159.57
813.811	218.96
813.989	143.19
814.168	110.42
814.347	46.93
814.526	159.57
814.704	157.52
814.883	165.71
815.062	141.14
815.24	165.71
815.419	104.28
815.598	130.9
815.776	124.76
815.955	165.71
816.133	108.37
816.312	75.6
816.49	96.08
816.669	85.84
816.847	98.13
817.026	153.43
817.204	102.23
817.383	96.08
817.561	139.09
817.74	165.71
817.918	161.62
818.097	110.42
818.275	108.37
818.453	118.61
818.632	212.82
818.81	83.8
818.988	135
819.167	108.37
819.345	116.56
819.523	51.03
819.701	83.8
819.879	143.19
820.058	108.37
820.236	48.98
820.414	108.37
820.592	-6.31
820.77	223.06
820.948	102.23
821.127	91.99
821.305	116.56
821.483	139.09
821.661	112.47
821.839	83.8
822.017	104.28
822.195	42.84
822.373	147.28
822.551	124.76
822.729	124.76
822.907	14.17
823.085	89.94
823.262	108.37
823.44	73.56
823.618	87.89
823.796	141.14
823.974	94.04
824.152	44.88
824.329	59.22
824.507	132.95
824.685	141.14
824.863	135
825.04	55.12
825.218	55.12
825.396	38.74
825.574	178
825.751	98.13
825.929	100.18
826.107	114.52
826.284	-10.41
826.462	122.71
826.639	89.94
826.817	48.98
826.994	128.85
827.172	73.56
827.349	106.32
827.527	-12.46
827.704	83.8
827.882	108.37
828.059	108.37
828.237	75.6
828.414	159.57
828.591	36.69
828.769	75.6
828.946	-20.65
829.124	79.7
829.301	110.42
829.478	124.76
829.655	126.8
829.833	71.51
830.01	71.51
830.187	157.52
830.364	96.08
830.542	42.84
830.719	112.47
830.896	106.32
831.073	59.22
831.25	94.04
831.427	110.42
831.604	108.37
831.782	36.69
831.959	94.04
832.136	-32.94
832.313	75.6
832.49	75.6
832.667	81.75
832.844	3.93
833.021	98.13
833.198	40.79
833.374	44.88
833.551	38.74
833.728	75.6
833.905	51.03
834.082	98.13
834.259	65.36
834.436	132.95
834.612	3.93
834.789	137.04
834.966	100.18
835.143	36.69
835.319	40.79
835.496	96.08
835.673	135
835.85	145.24
836.026	141.14
836.203	51.03
836.38	91.99
836.556	61.27
836.733	30.55
836.909	40.79
837.086	81.75
837.262	30.55
837.439	124.76
837.616	10.07
837.792	42.84
837.968	73.56
838.145	53.08
838.321	53.08
838.498	59.22
838.674	22.36
838.851	120.66
839.027	44.88
839.203	34.64
839.38	118.61
839.556	30.55
839.732	59.22
839.909	22.36
840.085	120.66
840.261	32.6
840.437	71.51
840.614	10.07
840.79	94.04
840.966	36.69
841.142	77.65
841.318	1.88
841.494	120.66
841.671	36.69
841.847	-14.51
842.023	14.17
842.199	67.41
842.375	104.28
842.551	42.84
842.727	151.38
842.903	118.61
843.079	28.5
843.255	81.75
843.431	118.61
843.607	67.41
843.783	32.6
843.959	108.37
844.134	48.98
844.31	63.32
844.486	3.93
844.662	42.84
844.838	57.17
845.013	34.64
845.189	143.19
845.365	110.42
845.541	28.5
845.716	98.13
845.892	44.88
846.068	20.31
846.244	32.6
846.419	67.41
846.595	3.93
846.77	-12.46
846.946	79.7
847.122	104.28
847.297	32.6
847.473	69.46
847.648	-6.31
847.824	14.17
847.999	-39.08
848.175	57.17
848.35	73.56
848.526	18.26
848.701	75.6
848.876	73.56
849.052	18.26
849.227	-6.31
849.403	53.08
849.578	38.74
849.753	51.03
849.929	98.13
850.104	135
850.279	44.88
850.454	94.04
850.63	61.27
850.805	75.6
850.98	24.4
851.155	14.17
851.33	55.12
851.505	34.64
851.681	91.99
851.856	-24.75
852.031	61.27
852.206	42.84
852.381	-22.7
852.556	116.56
852.731	14.17
852.906	28.5
853.081	114.52
853.256	28.5
853.431	55.12
853.606	44.88
853.781	53.08
853.956	10.07
854.131	77.65
854.305	53.08
854.48	3.93
854.655	44.88
854.83	-12.46
855.005	1.88
855.18	34.64
855.354	10.07
855.529	-49.32
855.704	28.5
855.879	36.69
856.053	81.75
856.228	126.8
856.403	20.31
856.577	46.93
856.752	10.07
856.926	36.69
857.101	32.6
857.276	30.55
857.45	18.26
857.625	8.02
857.799	40.79
857.974	20.31
858.148	-14.51
858.323	22.36
858.497	12.12
858.672	73.56
858.846	75.6
859.02	94.04
859.195	18.26
859.369	34.64
859.543	-14.51
859.718	8.02
859.892	34.64
860.066	63.32
860.241	-67.75
860.415	75.6
860.589	-47.27
860.763	118.61
860.938	-14.51
861.112	-98.47
861.286	36.69
861.46	42.84
861.634	59.22
861.808	59.22
861.982	-28.84
862.157	24.4
862.331	48.98
862.505	85.84
862.679	69.46
862.853	-12.46
863.027	57.17
863.201	124.76
863.375	81.75
863.549	-18.6
863.722	-51.37
863.896	16.21
864.07	14.17
864.244	30.55
864.418	-0.17
864.592	40.79
864.766	-2.22
864.939	67.41
865.113	-55.47
865.287	59.22
865.461	44.88
865.634	51.03
865.808	28.5
865.982	73.56
866.156	-45.23
866.329	-26.79
866.503	-37.03
866.676	24.4
866.85	12.12
867.024	18.26
867.197	1.88
867.371	42.84
867.544	48.98
867.718	-14.51
867.891	-10.41
868.065	18.26
868.238	36.69
868.412	32.6
868.585	12.12
868.759	30.55
868.932	-10.41
869.105	-6.31
869.279	51.03
869.452	18.26
869.625	55.12
869.799	-6.31
869.972	-69.8
870.145	-2.22
870.319	87.89
870.492	18.26
870.665	34.64
870.838	-28.84
871.011	-10.41
871.185	14.17
871.358	20.31
871.531	42.84
871.704	22.36
871.877	61.27
872.05	12.12
872.223	22.36
872.396	5.97
872.569	75.6
872.742	-43.18
872.915	104.28
873.088	-59.56
873.261	3.93
873.434	57.17
873.607	-4.27
873.78	102.23
873.953	-30.89
874.126	57.17
874.299	-2.22
874.471	-26.79
874.644	-10.41
874.817	-30.89
874.99	1.88
875.163	5.97
875.335	-51.37
875.508	18.26
875.681	61.27
875.853	26.45
876.026	-12.46
876.199	18.26
876.371	-47.27
876.544	16.21
876.717	91.99
876.889	-32.94
877.062	57.17
877.234	24.4
877.407	-2.22
877.579	36.69
877.752	-30.89
877.924	-37.03
878.097	100.18
878.269	8.02
878.442	44.88
878.614	-10.41
878.786	94.04
878.959	-6.31
879.131	-47.27
879.303	-24.75
879.476	28.5
879.648	34.64
879.82	71.51
879.993	55.12
880.165	3.93
880.337	-61.61
880.509	-51.37
880.681	-8.36
880.854	69.46
881.026	30.55
881.198	57.17
881.37	20.31
881.542	3.93
881.714	46.93
881.886	110.42
882.058	53.08
882.23	3.93
882.402	-20.65
882.574	91.99
882.746	108.37
882.918	28.5
883.09	51.03
883.262	-2.22
883.434	-8.36
883.606	14.17
883.778	18.26
883.95	42.84
884.122	38.74
884.293	55.12
884.465	-63.66
884.637	5.97
884.809	-55.47
884.98	83.8
885.152	-8.36
885.324	51.03
885.496	-30.89
885.667	-28.84
885.839	-14.51
886.011	10.07
886.182	24.4
886.354	16.21
886.525	53.08
886.697	1.88
886.869	-63.66
887.04	-22.7
887.212	36.69
887.383	67.41
887.555	24.4
887.726	5.97
887.897	-26.79
888.069	69.46
888.24	5.97
888.412	14.17
888.583	-6.31
888.754	-26.79
888.926	36.69
889.097	61.27
889.268	-24.75
889.44	5.97
889.611	-14.51
889.782	16.21
889.953	-14.51
890.125	-6.31
890.296	-2.22
890.467	-61.61
890.638	8.02
890.809	-26.79
890.98	-51.37
891.151	-6.31
891.323	36.69
891.494	-4.27
891.665	59.22
891.836	10.07
892.007	8.02
892.178	8.02
892.349	71.51
892.52	-32.94
892.691	55.12
892.862	-22.7
893.032	12.12
893.203	26.45
893.374	-0.17
893.545	61.27
893.716	1.88
893.887	38.74
894.057	14.17
894.228	96.08
894.399	-10.41
894.57	98.13
894.74	57.17
894.911	-2.22
895.082	-30.89
895.253	71.51
895.423	42.84
895.594	-18.6
895.764	-6.31
895.935	44.88
896.106	10.07
896.276	-10.41
896.447	20.31
896.617	1.88
896.788	28.5
896.958	-39.08
897.129	-43.18
897.299	-4.27
897.47	32.6
897.64	-43.18
897.81	10.07
897.981	42.84
898.151	-69.8
898.322	-8.36
898.492	26.45
898.662	75.6
898.832	30.55
899.003	10.07
899.173	18.26
899.343	38.74
899.513	40.79
