Data from USB4F104151__7__12-26-57-717.txt Node

Date: Fri Mar 14 12:26:57 EDT 2025
User: louis
Spectrometer: USB4F10415
Trigger mode: 4
Integration Time (sec): 2.000000E-2
Scans to average: 1
Electric dark correction enabled: true
Nonlinearity correction enabled: false
Boxcar width: 0
XAxis mode: Wavelengths
Number of Pixels in Spectrum: 3648
>>>>>Begin Spectral Data<<<<<
178.204	-105.81
178.424	-105.81
178.644	-105.81
178.864	-46.42
179.084	-44.37
179.304	47.79
179.524	-48.47
179.744	31.4
179.964	31.4
180.184	45.74
180.404	27.31
180.624	-21.85
180.844	-27.99
181.064	-62.8
181.283	-7.51
181.503	-5.46
181.723	-9.56
181.943	2.73
182.163	41.64
182.383	12.97
182.602	-32.08
182.822	-3.41
183.042	66.22
183.262	-30.04
183.482	0.68
183.701	25.26
183.921	53.93
184.141	2.73
184.361	72.36
184.58	4.78
184.8	39.59
185.02	12.97
185.239	90.79
185.459	12.97
185.679	98.99
185.898	-105.81
186.118	62.12
186.338	-19.8
186.557	41.64
186.777	47.79
186.997	15.02
187.216	-21.85
187.436	53.93
187.655	23.21
187.875	27.31
188.095	74.41
188.314	-50.52
188.534	60.07
188.753	64.17
188.973	41.64
189.192	74.41
189.412	17.07
189.631	70.31
189.851	15.02
190.07	55.98
190.29	15.02
190.509	0.68
190.729	43.69
190.948	66.22
191.168	129.7
191.387	10.92
191.607	-25.94
191.826	80.55
192.045	47.79
192.265	68.27
192.484	53.93
192.704	66.22
192.923	8.87
193.142	107.18
193.362	88.75
193.581	29.35
193.8	-52.56
194.02	84.65
194.239	98.99
194.458	76.46
194.678	-19.8
194.897	43.69
195.116	68.27
195.335	33.45
195.555	107.18
195.774	17.07
195.993	96.94
196.212	49.83
196.432	2.73
196.651	55.98
196.87	31.4
197.089	146.09
197.308	35.5
197.528	53.93
197.747	-19.8
197.966	17.07
198.185	35.5
198.404	27.31
198.623	29.35
198.842	12.97
199.062	72.36
199.281	47.79
199.5	17.07
199.719	27.31
199.938	53.93
200.157	23.21
200.376	17.07
200.595	-27.99
200.814	19.11
201.033	45.74
201.252	43.69
201.471	4.78
201.69	84.65
201.909	25.26
202.128	51.88
202.347	19.11
202.566	45.74
202.785	41.64
203.004	21.16
203.223	113.32
203.442	19.11
203.661	-38.23
203.879	53.93
204.098	84.65
204.317	-46.42
204.536	129.7
204.755	43.69
204.974	68.27
205.193	41.64
205.411	121.51
205.63	6.83
205.849	53.93
206.068	-17.75
206.287	35.5
206.505	78.51
206.724	82.6
206.943	76.46
207.162	64.17
207.381	35.5
207.599	27.31
207.818	29.35
208.037	-5.46
208.255	25.26
208.474	35.5
208.693	84.65
208.911	21.16
209.13	-21.85
209.349	45.74
209.567	25.26
209.786	94.89
210.005	53.93
210.223	45.74
210.442	-7.51
210.661	41.64
210.879	19.11
211.098	37.55
211.316	33.45
211.535	0.68
211.753	2.73
211.972	84.65
212.191	27.31
212.409	70.31
212.628	103.08
212.846	-36.18
213.065	37.55
213.283	74.41
213.502	-30.04
213.72	49.83
213.938	21.16
214.157	37.55
214.375	125.61
214.594	4.78
214.812	49.83
215.031	49.83
215.249	37.55
215.467	45.74
215.686	64.17
215.904	98.99
216.122	51.88
216.341	86.7
216.559	31.4
216.778	55.98
216.996	31.4
217.214	6.83
217.432	47.79
217.651	49.83
217.869	-62.8
218.087	90.79
218.306	27.31
218.524	8.87
218.742	19.11
218.96	23.21
219.179	23.21
219.397	68.27
219.615	41.64
219.833	-25.94
220.051	-1.37
220.27	76.46
220.488	-7.51
220.706	17.07
220.924	-1.37
221.142	-7.51
221.36	17.07
221.578	19.11
221.796	76.46
222.015	-7.51
222.233	10.92
222.451	31.4
222.669	37.55
222.887	27.31
223.105	-23.89
223.323	-1.37
223.541	6.83
223.759	12.97
223.977	62.12
224.195	86.7
224.413	-13.65
224.631	84.65
224.849	17.07
225.067	19.11
225.285	53.93
225.503	94.89
225.721	-23.89
225.939	53.93
226.157	17.07
226.375	117.42
226.592	-77.14
226.81	68.27
227.028	12.97
227.246	-7.51
227.464	41.64
227.682	80.55
227.9	49.83
228.117	33.45
228.335	96.94
228.553	64.17
228.771	29.35
228.989	51.88
229.206	78.51
229.424	-27.99
229.642	-46.42
229.86	35.5
230.077	0.68
230.295	49.83
230.513	58.03
230.731	45.74
230.948	35.5
231.166	60.07
231.384	60.07
231.601	25.26
231.819	98.99
232.037	31.4
232.254	6.83
232.472	43.69
232.689	53.93
232.907	82.6
233.125	4.78
233.342	25.26
233.56	-17.75
233.777	-27.99
233.995	-3.41
234.213	-89.43
234.43	-15.7
234.648	58.03
234.865	21.16
235.083	146.09
235.3	15.02
235.518	-21.85
235.735	53.93
235.953	70.31
236.17	4.78
236.388	45.74
236.605	33.45
236.822	72.36
237.04	45.74
237.257	21.16
237.475	29.35
237.692	64.17
237.909	68.27
238.127	37.55
238.344	2.73
238.562	45.74
238.779	27.31
238.996	62.12
239.214	23.21
239.431	43.69
239.648	25.26
239.865	23.21
240.083	12.97
240.3	49.83
240.517	15.02
240.735	-42.32
240.952	121.51
241.169	-9.56
241.386	68.27
241.603	-25.94
241.821	15.02
242.038	64.17
242.255	-5.46
242.472	58.03
242.689	4.78
242.907	51.88
243.124	66.22
243.341	17.07
243.558	0.68
243.775	-25.94
243.992	2.73
244.209	43.69
244.426	105.13
244.643	31.4
244.86	41.64
245.078	135.85
245.295	60.07
245.512	58.03
245.729	-40.28
245.946	72.36
246.163	105.13
246.38	4.78
246.597	62.12
246.814	74.41
247.031	37.55
247.248	72.36
247.464	53.93
247.681	51.88
247.898	150.18
248.115	4.78
248.332	-23.89
248.549	68.27
248.766	55.98
248.983	68.27
249.2	62.12
249.417	72.36
249.633	72.36
249.85	76.46
250.067	-30.04
250.284	43.69
250.501	43.69
250.717	23.21
250.934	-15.7
251.151	-73.04
251.368	53.93
251.585	12.97
251.801	35.5
252.018	-23.89
252.235	111.27
252.451	-9.56
252.668	2.73
252.885	66.22
253.102	66.22
253.318	10.92
253.535	-50.52
253.752	35.5
253.968	10.92
254.185	-21.85
254.401	-3.41
254.618	74.41
254.835	17.07
255.051	109.22
255.268	88.75
255.484	15.02
255.701	25.26
255.917	27.31
256.134	19.11
256.351	62.12
256.567	10.92
256.784	-23.89
257	76.46
257.217	47.79
257.433	39.59
257.65	53.93
257.866	96.94
258.082	12.97
258.299	-1.37
258.515	66.22
258.732	19.11
258.948	45.74
259.165	39.59
259.381	41.64
259.597	74.41
259.814	29.35
260.03	27.31
260.246	72.36
260.463	66.22
260.679	72.36
260.895	43.69
261.112	-19.8
261.328	12.97
261.544	35.5
261.761	135.85
261.977	39.59
262.193	4.78
262.409	76.46
262.626	25.26
262.842	62.12
263.058	74.41
263.274	6.83
263.49	53.93
263.707	92.84
263.923	58.03
264.139	74.41
264.355	15.02
264.571	21.16
264.787	-46.42
265.004	-66.9
265.22	-15.7
265.436	60.07
265.652	41.64
265.868	-1.37
266.084	-11.61
266.3	23.21
266.516	-23.89
266.732	47.79
266.948	27.31
267.164	62.12
267.38	53.93
267.596	-17.75
267.812	80.55
268.028	29.35
268.244	-87.38
268.46	49.83
268.676	19.11
268.892	8.87
269.108	19.11
269.324	53.93
269.54	41.64
269.756	35.5
269.972	4.78
270.188	117.42
270.403	23.21
270.619	39.59
270.835	27.31
271.051	39.59
271.267	8.87
271.483	98.99
271.698	158.38
271.914	19.11
272.13	92.84
272.346	55.98
272.562	41.64
272.777	96.94
272.993	47.79
273.209	-25.94
273.425	2.73
273.64	-3.41
273.856	107.18
274.072	51.88
274.287	21.16
274.503	31.4
274.719	37.55
274.934	23.21
275.15	33.45
275.366	21.16
275.581	8.87
275.797	8.87
276.012	33.45
276.228	0.68
276.444	17.07
276.659	39.59
276.875	-5.46
277.09	51.88
277.306	90.79
277.521	25.26
277.737	43.69
277.952	68.27
278.168	39.59
278.383	10.92
278.599	80.55
278.814	10.92
279.03	19.11
279.245	64.17
279.461	60.07
279.676	92.84
279.892	-25.94
280.107	55.98
280.322	51.88
280.538	-38.23
280.753	35.5
280.969	39.59
281.184	72.36
281.399	35.5
281.615	-17.75
281.83	115.37
282.045	-32.08
282.26	-52.56
282.476	12.97
282.691	72.36
282.906	-44.37
283.122	31.4
283.337	-11.61
283.552	70.31
283.767	84.65
283.983	33.45
284.198	17.07
284.413	47.79
284.628	-23.89
284.843	19.11
285.058	49.83
285.274	74.41
285.489	27.31
285.704	51.88
285.919	58.03
286.134	92.84
286.349	21.16
286.564	-32.08
286.779	-5.46
286.995	84.65
287.21	-9.56
287.425	10.92
287.64	-1.37
287.855	6.83
288.07	-60.76
288.285	6.83
288.5	72.36
288.715	27.31
288.93	-27.99
289.145	-3.41
289.36	0.68
289.575	19.11
289.79	39.59
290.004	43.69
290.219	47.79
290.434	-38.23
290.649	8.87
290.864	47.79
291.079	92.84
291.294	41.64
291.509	37.55
291.724	98.99
291.938	23.21
292.153	23.21
292.368	-3.41
292.583	25.26
292.798	47.79
293.012	74.41
293.227	4.78
293.442	4.78
293.657	31.4
293.871	35.5
294.086	41.64
294.301	64.17
294.516	84.65
294.73	150.18
294.945	21.16
295.16	72.36
295.374	35.5
295.589	25.26
295.804	31.4
296.018	82.6
296.233	31.4
296.447	98.99
296.662	62.12
296.877	45.74
297.091	-7.51
297.306	-1.37
297.52	37.55
297.735	64.17
297.949	31.4
298.164	117.42
298.378	12.97
298.593	101.03
298.807	53.93
299.022	60.07
299.236	-7.51
299.451	10.92
299.665	23.21
299.88	107.18
300.094	35.5
300.309	19.11
300.523	-21.85
300.737	47.79
300.952	19.11
301.166	90.79
301.381	37.55
301.595	4.78
301.809	33.45
302.024	-5.46
302.238	10.92
302.452	-7.51
302.667	4.78
302.881	-9.56
303.095	25.26
303.309	64.17
303.524	-7.51
303.738	47.79
303.952	88.75
304.166	6.83
304.381	0.68
304.595	103.08
304.809	21.16
305.023	12.97
305.237	27.31
305.452	86.7
305.666	35.5
305.88	43.69
306.094	51.88
306.308	12.97
306.522	27.31
306.736	41.64
306.95	-15.7
307.164	72.36
307.379	25.26
307.593	35.5
307.807	8.87
308.021	82.6
308.235	35.5
308.449	-13.65
308.663	74.41
308.877	98.99
309.091	78.51
309.305	64.17
309.519	60.07
309.733	68.27
309.947	-1.37
310.161	41.64
310.374	-15.7
310.588	19.11
310.802	21.16
311.016	-30.04
311.23	66.22
311.444	29.35
311.658	39.59
311.872	4.78
312.085	37.55
312.299	6.83
312.513	33.45
312.727	-52.56
312.941	39.59
313.154	55.98
313.368	49.83
313.582	15.02
313.796	103.08
314.009	47.79
314.223	37.55
314.437	31.4
314.651	-23.89
314.864	58.03
315.078	66.22
315.292	76.46
315.505	64.17
315.719	121.51
315.933	8.87
316.146	51.88
316.36	-34.13
316.573	39.59
316.787	129.7
317.001	29.35
317.214	31.4
317.428	162.47
317.641	-44.37
317.855	78.51
318.068	25.26
318.282	101.03
318.495	90.79
318.709	131.75
318.922	8.87
319.136	41.64
319.349	70.31
319.563	31.4
319.776	49.83
319.99	33.45
320.203	49.83
320.417	78.51
320.63	-30.04
320.843	55.98
321.057	39.59
321.27	74.41
321.483	45.74
321.697	96.94
321.91	60.07
322.124	139.94
322.337	45.74
322.55	49.83
322.763	72.36
322.977	31.4
323.19	58.03
323.403	103.08
323.617	58.03
323.83	45.74
324.043	-34.13
324.256	29.35
324.469	47.79
324.683	17.07
324.896	49.83
325.109	60.07
325.322	41.64
325.535	45.74
325.748	33.45
325.962	72.36
326.175	60.07
326.388	-9.56
326.601	139.94
326.814	107.18
327.027	-36.18
327.24	21.16
327.453	55.98
327.666	90.79
327.879	55.98
328.092	15.02
328.305	41.64
328.518	23.21
328.731	80.55
328.944	25.26
329.157	86.7
329.37	15.02
329.583	51.88
329.796	31.4
330.009	49.83
330.222	25.26
330.435	68.27
330.648	76.46
330.861	6.83
331.073	-25.94
331.286	0.68
331.499	53.93
331.712	115.37
331.925	78.51
332.138	45.74
332.35	45.74
332.563	-27.99
332.776	-30.04
332.989	-3.41
333.202	55.98
333.414	76.46
333.627	33.45
333.84	98.99
334.053	4.78
334.265	17.07
334.478	27.31
334.691	111.27
334.903	19.11
335.116	-21.85
335.329	70.31
335.541	74.41
335.754	62.12
335.966	0.68
336.179	86.7
336.392	6.83
336.604	39.59
336.817	27.31
337.029	21.16
337.242	49.83
337.454	53.93
337.667	21.16
337.88	74.41
338.092	127.66
338.305	53.93
338.517	70.31
338.729	86.7
338.942	49.83
339.154	74.41
339.367	64.17
339.579	103.08
339.792	-1.37
340.004	111.27
340.217	4.78
340.429	62.12
340.641	2.73
340.854	31.4
341.066	51.88
341.278	2.73
341.491	19.11
341.703	51.88
341.915	43.69
342.128	62.12
342.34	78.51
342.552	133.8
342.764	86.7
342.977	23.21
343.189	41.64
343.401	72.36
343.613	21.16
343.826	21.16
344.038	58.03
344.25	62.12
344.462	-13.65
344.674	-23.89
344.886	27.31
345.099	41.64
345.311	66.22
345.523	60.07
345.735	-23.89
345.947	72.36
346.159	47.79
346.371	55.98
346.583	27.31
346.795	94.89
347.007	62.12
347.219	103.08
347.431	12.97
347.643	82.6
347.855	58.03
348.067	96.94
348.279	27.31
348.491	62.12
348.703	43.69
348.915	74.41
349.127	-25.94
349.339	113.32
349.551	29.35
349.763	90.79
349.975	35.5
350.187	60.07
350.399	141.99
350.61	51.88
350.822	43.69
351.034	41.64
351.246	64.17
351.458	45.74
351.669	66.22
351.881	121.51
352.093	109.22
352.305	105.13
352.517	10.92
352.728	-5.46
352.94	37.55
353.152	86.7
353.363	4.78
353.575	88.75
353.787	39.59
353.999	111.27
354.21	43.69
354.422	35.5
354.633	74.41
354.845	47.79
355.057	21.16
355.268	23.21
355.48	15.02
355.692	39.59
355.903	47.79
356.115	66.22
356.326	33.45
356.538	27.31
356.749	98.99
356.961	80.55
357.172	8.87
357.384	15.02
357.595	29.35
357.807	45.74
358.018	17.07
358.23	21.16
358.441	72.36
358.653	66.22
358.864	45.74
359.075	62.12
359.287	109.22
359.498	51.88
359.709	84.65
359.921	31.4
360.132	-44.37
360.344	12.97
360.555	76.46
360.766	15.02
360.977	-1.37
361.189	96.94
361.4	55.98
361.611	2.73
361.823	-1.37
362.034	19.11
362.245	6.83
362.456	-9.56
362.667	53.93
362.879	68.27
363.09	86.7
363.301	39.59
363.512	74.41
363.723	41.64
363.935	8.87
364.146	39.59
364.357	-1.37
364.568	35.5
364.779	-3.41
364.99	68.27
365.201	70.31
365.412	21.16
365.623	-32.08
365.834	107.18
366.045	-7.51
366.256	51.88
366.467	64.17
366.678	64.17
366.889	25.26
367.1	80.55
367.311	70.31
367.522	41.64
367.733	98.99
367.944	15.02
368.155	45.74
368.366	31.4
368.577	98.99
368.788	86.7
368.999	121.51
369.209	35.5
369.42	-15.7
369.631	92.84
369.842	51.88
370.053	105.13
370.264	-23.89
370.474	27.31
370.685	64.17
370.896	51.88
371.107	47.79
371.317	94.89
371.528	127.66
371.739	53.93
371.95	33.45
372.16	27.31
372.371	8.87
372.582	58.03
372.792	68.27
373.003	23.21
373.214	-25.94
373.424	25.26
373.635	82.6
373.846	84.65
374.056	76.46
374.267	51.88
374.477	21.16
374.688	49.83
374.898	58.03
375.109	49.83
375.319	17.07
375.53	35.5
375.74	17.07
375.951	62.12
376.161	58.03
376.372	41.64
376.582	10.92
376.793	98.99
377.003	41.64
377.214	47.79
377.424	88.75
377.635	82.6
377.845	33.45
378.055	90.79
378.266	64.17
378.476	41.64
378.686	86.7
378.897	37.55
379.107	45.74
379.317	33.45
379.528	21.16
379.738	88.75
379.948	86.7
380.158	76.46
380.369	35.5
380.579	41.64
380.789	62.12
380.999	78.51
381.21	27.31
381.42	19.11
381.63	8.87
381.84	23.21
382.05	35.5
382.261	49.83
382.471	55.98
382.681	10.92
382.891	25.26
383.101	58.03
383.311	31.4
383.521	33.45
383.731	98.99
383.941	78.51
384.151	103.08
384.361	2.73
384.571	-7.51
384.781	51.88
384.991	58.03
385.201	154.28
385.411	113.32
385.621	37.55
385.831	90.79
386.041	58.03
386.251	25.26
386.461	148.14
386.671	70.31
386.881	141.99
387.091	62.12
387.301	123.56
387.511	35.5
387.72	45.74
387.93	86.7
388.14	-1.37
388.35	21.16
388.56	29.35
388.769	41.64
388.979	74.41
389.189	88.75
389.399	82.6
389.609	53.93
389.818	98.99
390.028	-30.04
390.238	105.13
390.447	78.51
390.657	76.46
390.867	88.75
391.076	29.35
391.286	35.5
391.496	125.61
391.705	31.4
391.915	80.55
392.125	88.75
392.334	41.64
392.544	78.51
392.753	64.17
392.963	29.35
393.172	-9.56
393.382	64.17
393.591	47.79
393.801	80.55
394.01	119.46
394.22	58.03
394.429	70.31
394.639	35.5
394.848	62.12
395.058	156.33
395.267	92.84
395.477	115.37
395.686	166.57
395.895	74.41
396.105	137.9
396.314	49.83
396.524	51.88
396.733	23.21
396.942	111.27
397.152	84.65
397.361	92.84
397.57	90.79
397.78	60.07
397.989	-21.85
398.198	98.99
398.407	92.84
398.617	43.69
398.826	117.42
399.035	82.6
399.244	55.98
399.453	70.31
399.663	72.36
399.872	82.6
400.081	92.84
400.29	123.56
400.499	107.18
400.708	135.85
400.917	127.66
401.127	47.79
401.336	19.11
401.545	96.94
401.754	96.94
401.963	123.56
402.172	129.7
402.381	123.56
402.59	160.42
402.799	66.22
403.008	78.51
403.217	152.23
403.426	131.75
403.635	162.47
403.844	133.8
404.053	131.75
404.262	111.27
404.471	96.94
404.68	98.99
404.888	160.42
405.097	94.89
405.306	117.42
405.515	111.27
405.724	109.22
405.933	94.89
406.142	113.32
406.35	187.05
406.559	135.85
406.768	168.62
406.977	133.8
407.185	103.08
407.394	158.38
407.603	121.51
407.812	182.95
408.02	260.77
408.229	248.49
408.438	266.92
408.646	107.18
408.855	146.09
409.064	193.19
409.272	228.01
409.481	248.49
409.69	223.91
409.898	166.57
410.107	262.82
410.315	238.25
410.524	279.21
410.733	219.82
410.941	320.17
411.15	285.35
411.358	342.69
411.567	279.21
411.775	381.6
411.984	295.59
412.192	307.88
412.401	305.83
412.609	361.13
412.818	441
413.026	426.66
413.234	451.24
413.443	375.46
413.651	352.93
413.86	457.38
414.068	457.38
414.276	488.1
414.485	510.63
414.693	477.86
414.901	510.63
415.11	588.45
415.318	500.39
415.526	438.95
415.734	565.92
415.943	514.72
416.151	613.03
416.359	600.74
416.567	637.6
416.776	666.27
416.984	756.38
417.192	729.76
417.4	692.9
417.608	686.75
417.817	768.67
418.025	819.87
418.233	873.12
418.441	828.06
418.649	826.01
418.857	981.66
419.065	952.99
419.273	838.3
419.481	1016.48
419.689	1104.54
419.897	1133.21
420.105	1122.97
420.313	1200.79
420.521	1190.55
420.729	1182.36
420.937	1251.99
421.145	1213.08
421.353	1372.82
421.561	1434.26
421.769	1450.64
421.977	1516.18
422.185	1374.87
422.393	1608.34
422.601	1653.39
422.809	1667.73
423.017	1708.69
423.224	1780.37
423.432	1854.09
423.64	1835.66
423.848	2015.88
424.056	1956.49
424.263	2159.24
424.471	2093.71
424.679	2165.39
424.887	2245.26
425.094	2269.83
425.302	2361.99
425.51	2402.95
425.718	2525.83
425.925	2568.84
426.133	2554.5
426.341	2765.44
426.548	2859.65
426.756	2869.89
426.964	2914.94
427.171	3095.16
427.379	3293.82
427.586	3232.38
427.794	3291.77
428.001	3506.81
428.209	3619.44
428.417	3560.05
428.624	3928.69
428.832	3766.9
429.039	3830.38
429.247	3887.73
429.454	4330.09
429.662	4401.77
429.869	4217.45
430.076	4512.36
430.284	4409.96
430.491	4733.54
430.699	4833.89
430.906	4866.66
431.114	4780.64
431.321	5194.33
431.528	5120.6
431.736	5347.93
431.943	5696.08
432.15	5651.03
432.358	5655.12
432.565	6054.48
432.772	5759.57
432.979	6351.43
433.187	6402.63
433.394	6466.12
433.601	6871.62
433.808	6949.44
434.016	6726.21
434.223	7123.52
434.43	7592.5
434.637	7424.57
434.844	7799.35
435.052	8061.49
435.259	7901.75
435.466	8135.21
435.673	7967.28
435.88	8526.38
436.087	8747.56
436.294	8921.63
436.501	8864.29
436.708	9001.51
436.915	9200.16
437.122	9654.81
437.329	9583.13
437.537	10058.26
437.743	9992.72
437.95	9865.75
438.157	10557.96
438.364	10805.77
438.571	10813.96
438.778	10977.8
438.985	12198.38
439.192	11493.88
439.399	11827.7
439.606	11590.14
439.813	12347.89
440.02	13117.92
440.227	12882.41
440.433	12706.28
440.64	12931.56
440.847	12906.98
441.054	13267.42
441.261	14387.66
441.467	14084.56
441.674	14461.39
441.881	14895.56
442.088	14961.09
442.294	14885.32
442.501	15141.32
442.708	15391.17
442.914	16017.85
443.121	16699.82
443.328	16232.88
443.534	17471.9
443.741	16863.66
443.948	17086.89
444.154	18108.82
444.361	18100.63
444.568	18063.77
444.774	18104.73
444.981	18155.93
445.187	18891.15
445.394	19698.05
445.6	19147.14
445.807	21006.7
446.013	20259.19
446.22	20578.67
446.426	21401.96
446.633	21528.93
446.839	22450.52
447.046	21483.87
447.252	22956.36
447.459	22905.17
447.665	22516.05
447.871	23925.05
448.078	24754.48
448.284	23755.07
448.491	24222.01
448.697	25305.38
448.903	25567.52
449.11	25671.97
449.316	25403.69
449.522	25897.25
449.728	26401.05
449.935	26700.05
450.141	26489.11
450.347	27359.5
450.553	26372.38
450.76	26712.34
450.966	27750.66
451.172	27353.35
451.378	27977.98
451.584	27275.53
451.791	28297.47
451.997	28264.7
452.203	28842.23
452.409	28424.44
452.615	28614.9
452.821	27339.02
453.027	27111.69
453.233	28717.3
453.44	27787.52
453.646	27922.69
453.852	27601.16
454.058	28496.12
454.264	27787.52
454.47	28338.43
454.676	27377.93
454.882	28424.44
455.088	25743.65
455.294	26399
455.5	26634.52
455.705	26949.9
455.911	26280.22
456.117	25592.1
456.323	25041.2
456.529	23939.39
456.735	24992.05
456.941	24189.24
457.147	23777.6
457.352	22939.98
457.558	22870.35
457.764	22761.81
457.97	22542.67
458.176	22030.68
458.381	21911.9
458.587	20900.2
458.793	20732.27
458.999	20023.67
459.204	21090.66
459.41	20490.61
459.616	19333.51
459.821	19349.89
460.027	19245.44
460.233	18999.69
460.438	17840.54
460.644	18076.05
460.85	17512.86
461.055	17113.51
461.261	16957.86
461.466	15880.63
461.672	15180.23
461.878	16429.49
462.083	15231.43
462.289	15002.05
462.494	14967.24
462.7	14361.04
462.905	13717.98
463.111	14254.55
463.316	14383.57
463.522	13933.01
463.727	14053.84
463.932	14010.84
464.138	13949.4
464.343	13941.21
464.549	13474.27
464.754	14082.52
464.959	13965.78
465.165	13615.58
465.37	13205.99
465.575	12902.89
465.781	13392.35
465.986	13591
466.191	13031.91
466.397	12567.02
466.602	12145.14
466.807	12671.47
467.012	12591.59
467.218	12577.26
467.423	12397.04
467.628	12351.98
467.833	12843.49
468.038	12339.69
468.244	12200.43
468.449	12585.45
468.654	12218.86
468.859	12016.12
469.064	12067.31
469.269	11608.57
469.474	11606.52
469.679	11954.68
469.885	11682.3
470.09	11760.12
470.295	11627
470.5	11532.79
470.705	11522.55
470.91	11108.87
471.115	11166.21
471.32	11139.58
471.525	11194.88
471.73	10985.99
471.935	10856.96
472.139	10525.19
472.344	10912.26
472.549	10598.92
472.754	10623.5
472.959	10342.92
473.164	10015.25
473.369	9830.93
473.574	10275.34
473.778	10105.36
473.983	10166.8
474.188	9855.51
474.393	9564.7
474.598	9581.08
474.802	9458.2
475.007	9421.34
475.212	9462.3
475.417	9224.73
475.621	9234.97
475.826	9255.45
476.031	8927.78
476.235	9013.79
476.44	8823.33
476.645	8720.93
476.849	8675.88
477.054	8622.63
477.259	8518.18
477.463	8587.82
477.668	8292.91
477.872	8458.79
478.077	8364.59
478.282	8202.8
478.486	8110.64
478.691	8135.21
478.895	8084.02
479.1	7985.71
479.304	8073.78
479.509	7975.47
479.713	7686.71
479.918	7576.12
480.122	7504.44
480.326	7606.84
480.531	7680.57
480.735	7715.38
480.94	7512.63
481.144	7819.83
481.348	7486.01
481.553	7541.3
481.757	7440.95
481.961	7483.96
482.166	7404.09
482.37	7596.6
482.574	7428.67
482.778	7356.99
482.983	7473.72
483.187	7334.46
483.391	7510.58
483.595	7311.93
483.8	7381.56
484.004	7475.77
484.208	7481.91
484.412	7430.71
484.616	7383.61
484.821	7567.93
485.025	7152.19
485.229	7539.26
485.433	7428.67
485.637	7526.97
485.841	7340.6
486.045	7420.47
486.249	7322.17
486.453	7440.95
486.657	7422.52
486.861	7445.05
487.065	7316.03
487.269	7328.31
487.473	7199.29
487.677	7606.84
487.881	7524.92
488.085	7295.55
488.289	7490.1
488.493	7373.37
488.697	7383.61
488.901	7469.62
489.105	7340.6
489.309	7500.34
489.512	7467.58
489.716	7346.75
489.92	7518.78
490.124	7359.03
490.328	7637.56
490.531	7514.68
490.735	7615.03
490.939	7764.53
491.143	7580.21
491.346	7518.78
491.55	7744.05
491.754	7797.3
491.958	7619.13
492.161	7715.38
492.365	7795.25
492.569	7672.37
492.772	7834.16
492.976	7877.17
493.18	7877.17
493.383	8184.37
493.587	7940.66
493.79	8022.58
493.994	8018.48
494.197	8049.2
494.401	8198.7
494.605	8313.39
494.808	8399.4
495.012	8368.68
495.215	8307.24
495.419	8522.28
495.622	8464.94
495.825	8735.27
496.029	8534.57
496.232	8942.11
496.436	8643.11
496.639	8868.39
496.843	8983.07
497.046	9151.01
497.249	9488.92
497.453	9181.73
497.656	9458.2
497.859	9511.45
498.063	9579.03
498.266	9654.81
498.469	9624.09
498.673	9665.05
498.876	10121.74
499.079	9939.47
499.282	10027.54
499.485	10226.19
499.689	10134.03
499.892	10521.1
500.095	10275.34
500.298	10729.99
500.501	10533.39
500.705	10816.01
500.908	10965.51
501.111	11143.68
501.314	11088.39
501.517	11295.23
501.72	11280.89
501.923	11620.86
502.126	11592.19
502.329	11813.37
502.532	11770.36
502.735	11956.72
502.938	12415.47
503.141	12255.73
503.344	12448.24
503.547	12425.71
503.75	12583.4
503.953	12890.6
504.156	12960.23
504.359	12999.14
504.562	13085.15
504.765	13535.71
504.968	13541.85
505.17	13726.17
505.373	13697.5
505.576	13910.49
505.779	14176.72
505.982	14115.28
506.185	14381.52
506.387	14752.2
506.59	14549.45
506.793	14764.49
506.996	14875.08
507.198	15366.59
507.401	15342.02
507.604	15407.55
507.807	15645.12
508.009	15628.73
508.212	15858.1
508.415	16126.39
508.617	16175.54
508.82	16390.58
509.022	16286.13
509.225	16501.17
509.428	16916.9
509.63	16968.1
509.833	16851.37
510.035	17316.26
510.238	17430.94
510.44	17400.23
510.643	17713.56
510.845	17924.51
511.048	17936.79
511.25	18162.07
511.453	18336.15
511.655	18944.39
511.858	18538.9
512.06	18993.54
512.262	19044.74
512.465	19200.39
512.667	19227.01
512.87	19487.11
513.072	19722.62
513.274	20154.74
513.477	20169.08
513.679	20332.92
513.881	20746.61
514.084	20640.11
514.286	20849
514.488	20920.68
514.69	21475.68
514.893	21358.95
515.095	21526.88
515.297	21940.57
515.499	21715.3
515.701	22282.58
515.904	22169.94
516.106	22518.1
516.308	22763.86
516.51	22956.36
516.712	22903.12
516.914	23310.66
517.116	23501.12
517.318	23441.73
517.52	23675.2
517.722	23636.29
517.925	24068.41
518.127	24381.75
518.329	24240.44
518.531	24404.28
518.733	24955.18
518.935	24934.7
519.136	25530.66
519.338	25555.24
519.54	25690.4
519.742	25698.59
519.944	25903.39
520.146	26528.02
520.348	26323.22
520.55	26542.36
520.752	26681.62
520.954	27080.97
521.155	26847.51
521.357	27468.04
521.559	27517.19
521.761	28010.75
521.963	27969.79
522.164	27875.59
522.366	28285.18
522.568	28363
522.77	28735.73
522.971	28936.43
523.173	28584.18
523.375	28965.1
523.576	29145.33
523.778	28829.94
523.98	29778.15
524.181	29593.83
524.383	29839.59
524.584	30122.21
524.786	30179.55
524.988	29890.79
525.189	30243.04
525.391	30562.52
525.592	30705.88
525.794	30902.48
525.995	30693.59
526.197	30593.24
526.398	30746.84
526.6	30839
526.801	30824.66
527.003	31531.21
527.204	31830.21
527.406	31559.88
527.607	31459.53
527.808	31768.77
528.01	31733.96
528.211	31768.77
528.412	32241.85
528.614	32139.46
528.815	31766.73
529.016	32340.16
529.218	32078.02
529.419	32397.5
529.62	32217.28
529.822	32884.92
530.023	32368.83
530.224	32446.65
530.425	32858.29
530.626	32313.53
530.828	32528.57
531.029	33482.92
531.23	32454.84
531.431	32600.25
531.632	33161.39
531.833	32975.03
532.035	32962.74
532.236	33061.04
532.437	32993.46
532.638	32942.26
532.839	33437.87
533.04	33138.86
533.241	33220.78
533.442	33530.03
533.643	33319.09
533.844	33011.89
534.045	33220.78
534.246	32989.36
534.447	33775.78
534.648	33054.9
534.849	33177.78
535.05	33065.14
535.251	33165.49
535.451	33284.27
535.652	33118.39
535.853	33329.33
536.054	33167.54
536.255	33503.4
536.456	33026.23
536.657	33872.04
536.857	33175.73
537.058	33249.46
537.259	33501.36
537.46	33321.13
537.66	33165.49
537.861	33523.88
538.062	33337.52
538.263	33634.47
538.463	33282.22
538.664	33417.39
538.865	33458.35
539.065	33732.78
539.266	33208.5
539.466	33478.83
539.667	33120.43
539.868	33757.35
540.068	33188.02
540.269	33409.2
540.469	33665.19
540.67	33468.59
540.87	32936.12
541.071	33085.62
541.271	33716.39
541.472	33192.11
541.672	33317.04
541.873	33196.21
542.073	33196.21
542.274	33700.01
542.474	32927.92
542.675	33081.52
542.875	33401
543.075	33089.71
543.276	32956.6
543.476	33413.29
543.676	33372.33
543.877	33685.67
544.077	32915.64
544.277	33323.18
544.478	33145.01
544.678	33151.15
544.878	33159.34
545.078	33347.76
545.279	33126.58
545.479	32929.97
545.679	33474.73
545.879	32878.77
546.079	32874.68
546.28	32964.79
546.48	32993.46
546.68	33489.07
546.88	33118.39
547.08	32960.69
547.28	33255.6
547.48	32778.42
547.68	33233.07
547.88	32827.57
548.081	33542.31
548.281	33069.23
548.481	32880.82
548.681	33222.83
548.881	33224.88
549.081	32977.08
549.28	33210.54
549.48	33282.22
549.68	32846.01
549.88	33427.63
550.08	32792.76
550.28	33075.38
550.48	32934.07
550.68	33126.58
550.88	33085.62
551.08	32839.86
551.279	33247.41
551.479	32889.01
551.679	33069.23
551.879	32962.74
552.079	33015.99
552.278	32796.85
552.478	32977.08
552.678	33171.63
552.878	33140.91
553.077	32676.02
553.277	32471.23
553.477	33376.43
553.676	32696.5
553.876	32923.83
554.076	32944.31
554.275	32909.49
554.475	32495.8
554.674	33075.38
554.874	32837.81
555.074	32561.34
555.273	32942.26
555.473	32694.46
555.672	32741.56
555.872	32772.28
556.071	32936.12
556.271	32872.63
556.47	32958.64
556.67	32581.82
556.869	32276.67
557.068	32315.58
557.268	32415.93
557.467	32397.5
557.667	32424.12
557.866	32211.14
558.065	32540.86
558.265	32258.24
558.464	31979.71
558.663	32725.18
558.863	31893.7
559.062	32606.39
559.261	31918.28
559.461	32481.47
559.66	32006.34
559.859	31854.79
560.058	31848.64
560.258	32032.96
560.457	31457.48
560.656	32084.16
560.855	31678.66
561.054	31797.45
561.253	31840.45
561.453	31983.81
561.652	32037.06
561.851	31637.7
562.05	31543.5
562.249	31561.93
562.448	32071.87
562.647	31492.3
562.846	31709.38
563.045	31553.74
563.244	31279.31
563.443	31738.05
563.642	31142.1
563.841	31391.95
564.04	31353.04
564.239	31367.37
564.438	31000.79
564.637	30865.62
564.836	31283.41
565.035	30806.23
565.234	30986.45
565.432	31029.46
565.631	30968.02
565.83	31256.78
566.029	30914.77
566.228	30652.63
566.427	30677.21
566.625	30726.36
566.824	30447.83
567.023	30746.84
567.222	30152.93
567.42	30294.24
567.619	30111.97
567.818	30435.55
568.016	30136.54
568.215	30298.33
568.414	30316.76
568.612	30394.59
568.811	30025.95
569.01	30025.95
569.208	29765.86
569.407	30218.46
569.605	29968.61
569.804	29841.64
570.002	29892.83
570.201	30148.83
570.4	29446.38
570.598	29454.57
570.797	29309.16
570.995	29427.95
571.193	28958.96
571.392	29692.13
571.59	29182.19
571.789	29737.19
571.987	29165.81
572.186	29409.51
572.384	28864.75
572.582	28973.3
572.781	29237.48
572.979	28649.72
573.177	28754.16
573.376	28928.24
573.574	28528.89
573.772	28725.49
573.971	28639.48
574.169	28639.48
574.367	28346.62
574.565	28743.92
574.763	28217.6
574.962	28471.54
575.16	28102.91
575.358	28293.37
575.556	27922.69
575.754	28555.51
575.952	28039.42
576.151	28414.2
576.349	27963.65
576.547	27883.78
576.745	27791.62
576.943	27767.04
577.141	27855.11
577.339	27812.1
577.537	27529.48
577.735	27773.19
577.933	27273.48
578.131	27924.74
578.329	27232.52
578.527	27386.12
578.725	27302.15
578.923	27152.65
579.121	27275.53
579.319	27142.41
579.516	27089.17
579.714	27136.27
579.912	26708.24
580.11	26855.7
580.308	26980.62
580.506	26915.09
580.704	26345.75
580.901	26515.73
581.099	27058.45
581.297	26603.8
581.495	26462.49
581.692	26464.53
581.89	26210.59
582.088	26517.78
582.285	26093.85
582.483	26636.56
582.681	26173.72
582.878	25987.36
583.076	25952.54
583.274	26263.83
583.471	25647.4
583.669	25735.46
583.866	25592.1
584.064	25731.36
584.262	25508.13
584.459	26022.17
584.657	25477.41
584.854	25639.2
585.052	25252.14
585.249	25659.68
585.447	25305.38
585.644	25082.16
585.841	25211.18
586.039	25215.27
586.236	24869.17
586.434	24801.58
586.631	24631.6
586.828	25190.7
587.026	24891.69
587.223	24588.6
587.42	24725.81
587.618	24570.16
587.815	24389.94
588.012	24152.38
588.21	24420.66
588.407	24408.37
588.604	24258.87
588.801	24258.87
588.999	24172.86
589.196	24076.6
589.393	23927.1
589.59	24148.28
589.787	23869.76
589.984	23824.7
590.182	23478.6
590.379	23638.34
590.576	23595.33
590.773	23916.86
590.97	23218.5
591.167	23427.4
591.364	23562.56
591.561	23271.75
591.758	23314.76
591.955	23042.38
592.152	23132.49
592.349	22835.53
592.546	23134.54
592.743	23116.11
592.94	22643.03
593.137	22899.02
593.334	22962.51
593.531	22657.36
593.727	22632.79
593.924	22798.67
594.121	22518.1
594.318	22761.81
594.515	22249.82
594.712	22518.1
594.908	22219.1
595.105	22575.44
595.302	22186.33
595.499	22010.2
595.696	21795.17
595.892	21881.18
596.089	21954.91
596.286	22339.93
596.482	21801.31
596.679	21889.37
596.876	21887.32
597.072	21793.12
597.269	21739.87
597.466	21387.62
597.662	21477.73
597.859	21299.56
598.055	21569.89
598.252	21356.9
598.448	21246.31
598.645	21057.9
598.841	20959.59
599.038	21240.17
599.234	21209.45
599.431	20654.45
599.627	20851.05
599.824	21066.09
600.02	20973.93
600.217	20926.83
600.413	20719.98
600.609	20705.65
600.806	20498.8
601.002	20609.39
601.198	20318.58
601.395	20156.79
601.591	20271.48
601.787	20445.55
601.984	20308.34
602.18	20384.12
602.376	19964.28
602.572	19820.92
602.769	20214.13
602.965	19833.21
603.161	20007.29
603.357	19886.46
603.553	19886.46
603.75	19739.01
603.946	19349.89
604.142	19489.15
604.338	19270.02
604.534	19499.39
604.73	19376.51
604.926	19325.32
605.122	19233.16
605.318	19210.63
605.514	19149.19
605.71	19106.18
605.906	19200.39
606.102	19040.65
606.298	19044.74
606.494	19091.85
606.69	18835.85
606.886	18919.82
607.082	18889.1
607.278	18905.48
607.474	18518.42
607.67	18661.77
607.866	18667.92
608.062	18876.81
608.257	18528.66
608.453	18567.57
608.649	18565.52
608.845	18373.01
609.041	18424.21
609.236	18516.37
609.432	18616.72
609.628	18411.92
609.824	18407.83
610.019	18364.82
610.215	17961.37
610.411	18237.84
610.606	18315.67
610.802	18225.56
610.998	17998.23
611.193	18209.17
611.389	18125.21
611.584	18041.24
611.78	17869.21
611.976	18106.77
612.171	17965.46
612.367	17813.91
612.562	17791.39
612.758	17840.54
612.953	17713.56
613.149	17795.48
613.344	17379.75
613.539	17959.32
613.735	17590.69
613.93	17629.6
614.126	17525.15
614.321	17643.93
614.517	17535.39
614.712	17410.47
614.907	17656.22
615.103	17473.95
615.298	17250.72
615.493	17654.17
615.688	17236.39
615.884	17594.78
616.079	17179.04
616.274	17529.25
616.47	17349.03
616.665	17361.31
616.86	17191.33
617.055	17029.54
617.25	17080.74
617.445	17359.27
617.641	16882.09
617.836	16988.58
618.031	16755.12
618.226	16939.43
618.421	16449.97
618.616	16921
618.811	16849.32
619.006	16697.77
619.201	16464.3
619.396	16794.03
619.591	16277.94
619.786	16517.55
619.981	16073.14
620.176	16521.65
620.371	16271.79
620.566	16435.63
620.761	16245.17
620.956	16054.71
621.151	15767.99
621.346	16011.7
621.541	15782.33
621.735	15843.77
621.93	15528.38
622.125	15479.23
622.32	15321.54
622.515	15811
622.709	15362.5
622.904	15382.98
623.099	15344.06
623.294	15184.32
623.488	14911.94
623.683	15032.77
623.878	14862.79
624.072	15043.01
624.267	14866.89
624.462	14662.09
624.656	14522.83
624.851	14627.28
625.046	14676.43
625.24	14604.75
625.435	14502.35
625.629	14236.11
625.824	14434.77
626.018	14367.18
626.213	13912.53
626.407	14041.56
626.602	13613.53
626.796	13873.62
626.991	13810.14
627.185	13658.59
627.38	13359.58
627.574	13672.92
627.768	13554.14
627.963	13343.2
628.157	13185.51
628.352	13423.07
628.546	13160.93
628.74	13306.34
628.935	13050.34
629.129	13130.21
629.323	12874.21
629.517	12890.6
629.712	12581.35
629.906	12749.29
630.1	12583.4
630.294	12521.96
630.489	12667.37
630.683	12585.45
630.877	12235.25
631.071	12603.88
631.265	12298.73
631.459	12327.41
631.653	12057.07
631.848	12155.38
632.042	11905.52
632.236	12138.99
632.43	12106.23
632.624	11878.9
632.818	11776.5
633.012	11592.19
633.206	11581.95
633.4	11907.57
633.594	11237.89
633.788	11477.5
633.982	11381.24
634.176	11147.78
634.369	11520.51
634.563	11344.38
634.757	11381.24
634.951	11209.22
635.145	11164.16
635.339	11090.43
635.533	11002.37
635.726	10975.75
635.92	10723.85
636.114	10717.7
636.308	10586.63
636.501	10664.46
636.695	10715.66
636.889	10461.71
637.083	10611.21
637.276	10488.33
637.47	10291.73
637.664	10396.17
637.857	10418.7
638.051	10664.46
638.244	10385.93
638.438	10326.54
638.632	10164.75
638.825	10011.15
639.019	10254.86
639.212	9966.1
639.406	9972.24
639.599	9900.56
639.793	9802.26
639.986	9962
640.18	9728.53
640.373	9652.76
640.567	9361.95
640.76	9617.94
640.954	9513.5
641.147	9394.72
641.34	9300.51
641.534	9519.64
641.727	9425.43
641.92	9320.99
642.114	9327.13
642.307	9161.25
642.5	9148.96
642.694	8917.54
642.887	9024.03
643.08	9050.66
643.273	8983.07
643.467	9009.7
643.66	8860.2
643.853	8849.96
644.046	8788.52
644.239	8813.09
644.432	8833.57
644.626	8677.93
644.819	8596.01
645.012	8575.53
645.205	8749.61
645.398	8571.43
645.591	8430.12
645.784	8337.96
645.977	8530.47
646.17	8378.92
646.363	8231.47
646.556	8249.9
646.749	8223.28
646.942	8340.01
647.135	8200.75
647.328	7899.7
647.521	8065.58
647.714	7864.88
647.907	8053.3
648.099	7877.17
648.292	7961.14
648.485	7924.27
648.678	7633.46
648.871	7950.9
649.064	7635.51
649.256	7682.61
649.449	7684.66
649.642	7699
649.835	7580.21
650.027	7633.46
650.22	7559.74
650.413	7127.61
650.605	7297.6
650.798	7316.03
650.991	7305.79
651.183	7160.38
651.376	7125.57
651.568	7234.11
651.761	7348.79
651.954	7080.51
652.146	7055.94
652.339	6896.19
652.531	6953.54
652.724	6986.3
652.916	6859.33
653.109	7006.78
653.301	6933.06
653.494	6844.99
653.686	6820.42
653.879	6840.9
654.071	6844.99
654.263	6582.85
654.456	6810.18
654.648	6728.26
654.84	6654.53
655.033	6586.95
655.225	6595.14
655.417	6668.87
655.61	6603.33
655.802	6574.66
655.994	6545.99
656.186	6390.35
656.379	6351.43
656.571	6349.39
656.763	6244.94
656.955	6246.99
657.148	6216.27
657.34	6300.23
657.532	6134.35
657.724	6320.71
657.916	6132.3
658.108	6287.95
658.3	5988.94
658.492	6113.87
658.684	5995.09
658.876	6113.87
659.068	5990.99
659.26	5851.73
659.452	5818.96
659.644	5925.46
659.836	5909.07
660.028	5739.09
660.22	5757.52
660.412	5691.99
660.604	5698.13
660.796	5673.56
660.988	5751.38
661.18	5644.88
661.372	5683.8
661.563	5546.58
661.755	5390.94
661.947	5499.48
662.139	5501.53
662.331	5493.33
662.522	5462.62
662.714	5376.6
662.906	5419.61
663.097	5337.69
663.289	5196.38
663.481	5419.61
663.673	5407.32
663.864	5180
664.056	5304.92
664.247	5190.24
664.439	5106.27
664.631	5321.31
664.822	5141.08
665.014	4958.81
665.205	5173.85
665.397	5022.3
665.588	5024.35
665.78	5096.03
665.971	5044.83
666.163	4991.58
666.354	5014.11
666.546	4921.95
666.737	4948.58
666.929	4835.94
667.12	4956.77
667.311	4932.19
667.503	4725.35
667.694	4631.14
667.885	4766.31
668.077	4817.51
668.268	4790.88
668.459	4692.58
668.651	4571.75
668.842	4749.92
669.033	4608.61
669.224	4491.88
669.416	4731.49
669.607	4600.42
669.798	4412.01
669.989	4639.33
670.18	4530.79
670.371	4495.97
670.563	4430.44
670.754	4442.73
670.945	4260.46
671.136	4403.82
671.327	4452.97
671.518	4469.35
671.709	4428.39
671.9	4274.79
672.091	4412.01
672.282	4414.06
672.473	4264.55
672.664	4455.01
672.855	4237.93
673.046	4295.27
673.237	4287.08
673.428	4323.94
673.619	4235.88
673.809	4160.11
674	4229.74
674.191	4121.2
674.382	4184.68
674.573	4016.75
674.764	4098.67
674.954	4156.01
675.145	4029.04
675.336	4129.39
675.527	4078.19
675.717	3988.08
675.908	3996.27
676.099	3947.12
676.289	3836.53
676.48	4086.38
676.671	4049.52
676.861	4049.52
677.052	3883.63
677.243	4020.85
677.433	3959.41
677.624	4008.56
677.814	3971.69
678.005	3814
678.195	3832.43
678.386	3900.02
678.576	3840.62
678.767	3824.24
678.957	3848.82
679.148	3758.71
679.338	3779.19
679.529	3859.06
679.719	3744.37
679.909	3859.06
680.1	3713.65
680.29	3742.32
680.481	3773.04
680.671	3859.06
680.861	3762.8
681.052	3770.99
681.242	3664.5
681.432	3639.92
681.622	3889.78
681.813	3598.96
682.003	3662.45
682.193	3641.97
682.383	3617.4
682.573	3732.08
682.764	3562.1
682.954	3578.48
683.144	3641.97
683.334	3502.71
683.524	3535.48
683.714	3601.01
683.904	3701.36
684.094	3515
684.284	3621.49
684.474	3650.16
684.664	3471.99
684.854	3451.51
685.044	3504.76
685.234	3545.72
685.424	3439.22
685.614	3414.65
685.804	3416.69
685.994	3396.21
686.184	3510.9
686.374	3398.26
686.564	3400.31
686.753	3390.07
686.943	3273.34
687.133	3443.32
687.323	3246.71
687.513	3326.58
687.702	3248.76
687.892	3363.45
688.082	3152.51
688.272	3334.78
688.461	3132.03
688.651	3263.1
688.841	3336.82
689.03	3228.28
689.22	3117.69
689.41	3232.38
689.599	3132.03
689.789	3093.12
689.979	3121.79
690.168	3259
690.358	3142.27
690.547	3117.69
690.737	3093.12
690.926	3058.3
691.116	2943.61
691.305	3132.03
691.495	3179.13
691.684	2857.6
691.874	2902.65
692.063	2914.94
692.252	3013.24
692.442	3123.84
692.631	3058.3
692.82	2933.37
693.01	3009.15
693.199	2951.81
693.388	2775.68
693.578	2800.26
693.767	2804.35
693.956	2861.69
694.146	2865.79
694.335	2849.41
694.524	2847.36
694.713	2704
694.902	2759.3
695.092	2916.99
695.281	2830.98
695.47	2765.44
695.659	2609.79
695.848	2736.77
696.037	2712.19
696.226	2642.56
696.415	2753.15
696.604	2871.93
696.793	2744.96
696.982	2792.06
697.171	2816.64
697.36	2665.09
697.549	2738.82
697.738	2812.54
697.927	2671.23
698.116	2728.58
698.305	2548.36
698.494	2550.4
698.683	2585.22
698.872	2560.64
699.061	2646.66
699.25	2650.75
699.438	2540.16
699.627	2634.37
699.816	2564.74
700.005	2495.11
700.193	2611.84
700.382	2589.32
700.571	2597.51
700.76	2597.51
700.948	2624.13
701.137	2660.99
701.326	2628.23
701.514	2568.84
701.703	2562.69
701.892	2495.11
702.08	2640.51
702.269	2515.59
702.457	2554.5
702.646	2630.27
702.834	2519.68
703.023	2542.21
703.212	2572.93
703.4	2613.89
703.589	2474.63
703.777	2658.95
703.965	2568.84
704.154	2570.88
704.342	2437.77
704.531	2351.75
704.719	2495.11
704.907	2568.84
705.096	2536.07
705.284	2460.29
705.472	2368.13
705.661	2542.21
705.849	2454.15
706.037	2497.16
706.226	2476.68
706.414	2439.81
706.602	2431.62
706.79	2577.03
706.979	2448.01
707.167	2540.16
707.355	2400.9
707.543	2505.35
707.731	2491.01
707.919	2460.29
708.107	2280.07
708.296	2398.85
708.484	2464.39
708.672	2421.38
708.86	2411.14
709.048	2497.16
709.236	2509.44
709.424	2529.92
709.612	2429.57
709.8	2374.28
709.988	2271.88
710.176	2378.37
710.364	2429.57
710.551	2376.33
710.739	2452.1
710.927	2306.7
711.115	2456.2
711.303	2439.81
711.491	2318.98
711.679	2433.67
711.866	2372.23
712.054	2345.61
712.242	2335.37
712.43	2321.03
712.617	2448.01
712.805	2456.2
712.993	2521.73
713.181	2380.42
713.368	2464.39
713.556	2480.77
713.744	2331.27
713.931	2488.96
714.119	2439.81
714.306	2394.76
714.494	2382.47
714.682	2357.89
714.869	2357.89
715.057	2441.86
715.244	2407.05
715.432	2507.4
715.619	2388.61
715.807	2343.56
715.994	2419.33
716.182	2282.12
716.369	2351.75
716.556	2448.01
716.744	2486.92
716.931	2421.38
717.119	2546.31
717.306	2470.53
717.493	2318.98
717.681	2345.61
717.868	2376.33
718.055	2519.68
718.242	2345.61
718.43	2421.38
718.617	2265.74
718.804	2421.38
718.991	2341.51
719.179	2435.72
719.366	2448.01
719.553	2525.83
719.74	2511.49
719.927	2421.38
720.114	2339.46
720.301	2392.71
720.488	2409.09
720.676	2405
720.863	2431.62
721.05	2445.96
721.237	2353.8
721.424	2441.86
721.611	2280.07
721.798	2343.56
721.985	2437.77
722.172	2298.5
722.358	2288.26
722.545	2503.3
722.732	2439.81
722.919	2429.57
723.106	2302.6
723.293	2419.33
723.48	2347.65
723.667	2474.63
723.853	2415.24
724.04	2468.48
724.227	2472.58
724.414	2380.42
724.6	2433.67
724.787	2445.96
724.974	2396.81
725.161	2458.25
725.347	2405
725.534	2521.73
725.72	2382.47
725.907	2380.42
726.094	2437.77
726.28	2370.18
726.467	2482.82
726.653	2357.89
726.84	2419.33
727.027	2460.29
727.213	2407.05
727.4	2368.13
727.586	2249.35
727.773	2431.62
727.959	2439.81
728.145	2443.91
728.332	2431.62
728.518	2595.46
728.705	2327.18
728.891	2452.1
729.077	2392.71
729.264	2527.88
729.45	2486.92
729.636	2427.53
729.823	2259.59
730.009	2359.94
730.195	2347.65
730.382	2400.9
730.568	2343.56
730.754	2409.09
730.94	2421.38
731.126	2327.18
731.313	2339.46
731.499	2384.52
731.685	2325.13
731.871	2314.89
732.057	2439.81
732.243	2390.66
732.429	2364.04
732.615	2325.13
732.801	2382.47
732.987	2353.8
733.173	2325.13
733.359	2429.57
733.545	2341.51
733.731	2341.51
733.917	2380.42
734.103	2429.57
734.289	2433.67
734.475	2339.46
734.661	2411.14
734.847	2405
735.033	2341.51
735.219	2390.66
735.404	2392.71
735.59	2327.18
735.776	2361.99
735.962	2368.13
736.148	2493.06
736.333	2405
736.519	2312.84
736.705	2339.46
736.89	2390.66
737.076	2333.32
737.262	2366.09
737.447	2255.5
737.633	2306.7
737.819	2384.52
738.004	2439.81
738.19	2288.26
738.375	2368.13
738.561	2409.09
738.747	2337.41
738.932	2269.83
739.118	2271.88
739.303	2419.33
739.489	2214.54
739.674	2335.37
739.859	2239.11
740.045	2327.18
740.23	2173.58
740.416	2241.16
740.601	2368.13
740.786	2343.56
740.972	2267.78
741.157	2226.82
741.342	2228.87
741.528	2245.26
741.713	2241.16
741.898	2126.47
742.084	2095.75
742.269	2237.06
742.454	2173.58
742.639	2263.69
742.824	2165.39
743.01	2161.29
743.195	2146.95
743.38	2202.25
743.565	2126.47
743.75	2177.67
743.935	2030.22
744.12	2200.2
744.305	2079.37
744.49	2124.43
744.675	2140.81
744.86	2034.32
745.045	2081.42
745.23	2095.75
745.415	2024.08
745.6	1983.12
745.785	2030.22
745.97	1991.31
746.155	2017.93
746.34	2005.64
746.525	2015.88
746.71	2013.84
746.895	1987.21
747.079	1974.92
747.264	1964.68
747.449	2032.27
747.634	1952.4
747.819	1944.2
748.003	1888.91
748.188	1893.01
748.373	1815.18
748.557	1866.38
748.742	1981.07
748.927	1852.05
749.111	1811.09
749.296	1897.1
749.481	1860.24
749.665	1761.94
749.85	1798.8
750.034	1731.22
750.219	1804.94
750.404	1790.61
750.588	1790.61
750.773	1770.13
750.957	1667.73
751.141	1665.68
751.326	1669.78
751.51	1704.59
751.695	1579.67
751.879	1743.5
752.064	1581.71
752.248	1667.73
752.432	1661.59
752.617	1620.63
752.801	1665.68
752.985	1616.53
753.17	1585.81
753.354	1553.04
753.538	1624.72
753.722	1614.48
753.907	1643.15
754.091	1544.85
754.275	1538.71
754.459	1557.14
754.643	1536.66
754.828	1505.94
755.012	1411.73
755.196	1505.94
755.38	1454.74
755.564	1503.89
755.748	1452.69
755.932	1434.26
756.116	1385.11
756.3	1327.77
756.484	1426.07
756.668	1387.16
756.852	1362.58
757.036	1473.17
757.22	1344.15
757.404	1346.2
757.588	1329.81
757.772	1321.62
757.956	1254.04
758.14	1340.05
758.323	1335.96
758.507	1270.42
758.691	1292.95
758.875	1243.8
759.059	1229.46
759.242	1280.66
759.426	1323.67
759.61	1239.7
759.794	1327.77
759.977	1280.66
760.161	1211.03
760.345	1190.55
760.528	1321.62
760.712	1198.74
760.895	1237.66
761.079	1204.89
761.263	1178.26
761.446	1096.35
761.63	1125.02
761.813	1256.09
761.997	1237.66
762.18	1137.31
762.364	1208.98
762.547	1096.35
762.731	1043.1
762.914	1073.82
763.098	1034.91
763.281	1165.98
763.464	1061.53
763.648	1075.87
763.831	1084.06
764.015	1143.45
764.198	1051.29
764.381	1122.97
764.564	1086.11
764.748	1063.58
764.931	1030.81
765.114	1055.39
765.297	1079.96
765.481	1079.96
765.664	959.13
765.847	969.37
766.03	1088.15
766.213	1014.43
766.397	1075.87
766.58	977.56
766.763	1114.78
766.946	1026.71
767.129	989.85
767.312	948.89
767.495	1006.24
767.678	1028.76
767.861	983.71
768.044	993.95
768.227	1018.52
768.41	950.94
768.593	955.04
768.776	858.78
768.959	1069.72
769.142	1051.29
769.324	938.65
769.507	946.84
769.69	957.08
769.873	920.22
770.056	928.41
770.239	936.6
770.421	909.98
770.604	930.46
770.787	998.04
770.97	903.84
771.152	881.31
771.335	797.34
771.518	899.74
771.7	912.03
771.883	920.22
772.066	930.46
772.248	846.49
772.431	862.88
772.613	850.59
772.796	879.26
772.978	899.74
773.161	852.64
773.343	864.93
773.526	764.58
773.708	842.4
773.891	750.24
774.073	836.25
774.256	768.67
774.438	877.21
774.621	832.16
774.803	783.01
774.985	787.1
775.168	885.41
775.35	823.97
775.532	731.81
775.715	768.67
775.897	760.48
776.079	776.86
776.261	809.63
776.444	723.62
776.626	723.62
776.808	778.91
776.99	617.12
777.173	666.27
777.355	727.71
777.537	717.47
777.719	658.08
777.901	692.9
778.083	686.75
778.265	711.33
778.447	619.17
778.629	676.51
778.811	686.75
778.993	658.08
779.175	631.46
779.357	672.42
779.539	629.41
779.721	615.07
779.903	707.23
780.085	572.07
780.267	682.66
780.449	580.26
780.631	664.22
780.812	631.46
780.994	613.03
781.176	596.64
781.358	682.66
781.54	596.64
781.721	647.84
781.903	555.68
782.085	590.5
782.267	561.83
782.448	516.77
782.63	535.2
782.812	559.78
782.993	549.54
783.175	578.21
783.357	504.48
783.538	631.46
783.72	527.01
783.901	625.31
784.083	496.29
784.264	555.68
784.446	488.1
784.627	551.59
784.809	527.01
784.99	565.92
785.172	567.97
785.353	475.81
785.535	471.72
785.716	473.76
785.897	481.96
786.079	436.9
786.26	496.29
786.441	520.87
786.623	408.23
786.804	441
786.985	430.76
787.167	451.24
787.348	461.48
787.529	498.34
787.71	414.37
787.891	467.62
788.073	449.19
788.254	479.91
788.435	412.32
788.616	412.32
788.797	393.89
788.978	402.08
789.159	410.28
789.34	385.7
789.522	402.08
789.703	424.61
789.884	340.65
790.065	414.37
790.246	455.33
790.427	441
790.607	453.28
790.788	434.85
790.969	385.7
791.15	400.04
791.331	418.47
791.512	385.7
791.693	334.5
791.874	391.84
792.054	338.6
792.235	445.09
792.416	342.69
792.597	295.59
792.778	377.51
792.958	381.6
793.139	432.8
793.32	430.76
793.5	295.59
793.681	397.99
793.862	391.84
794.042	326.31
794.223	252.58
794.404	326.31
794.584	311.97
794.765	320.17
794.945	424.61
795.126	287.4
795.306	299.69
795.487	268.97
795.667	330.41
795.848	307.88
796.028	322.21
796.209	338.6
796.389	307.88
796.57	461.48
796.75	361.13
796.93	314.02
797.111	264.87
797.291	326.31
797.471	307.88
797.652	301.73
797.832	178.86
798.012	328.36
798.192	279.21
798.373	309.93
798.553	299.69
798.733	299.69
798.913	299.69
799.093	340.65
799.274	264.87
799.454	221.86
799.634	248.49
799.814	291.49
799.994	197.29
800.174	258.73
800.354	264.87
800.534	252.58
800.714	277.16
800.894	277.16
801.074	293.54
801.254	281.25
801.434	250.53
801.614	303.78
801.794	207.53
801.974	674.46
802.154	293.54
802.334	236.2
802.514	246.44
802.693	221.86
802.873	244.39
803.053	248.49
803.233	248.49
803.413	215.72
803.592	201.38
803.772	287.4
803.952	252.58
804.131	205.48
804.311	258.73
804.491	238.25
804.67	160.42
804.85	213.67
805.03	244.39
805.209	254.63
805.389	203.43
805.568	221.86
805.748	211.62
805.928	197.29
806.107	209.58
806.287	258.73
806.466	209.58
806.646	268.97
806.825	238.25
807.004	236.2
807.184	209.58
807.363	264.87
807.543	146.09
807.722	174.76
807.901	139.94
808.081	262.82
808.26	135.85
808.439	217.77
808.619	234.15
808.798	209.58
808.977	172.71
809.156	213.67
809.336	129.7
809.515	215.72
809.694	242.34
809.873	189.1
810.052	232.1
810.231	191.14
810.411	115.37
810.59	244.39
810.769	160.42
810.948	195.24
811.127	98.99
811.306	154.28
811.485	139.94
811.664	160.42
811.843	221.86
812.022	195.24
812.201	129.7
812.38	129.7
812.559	199.34
812.737	154.28
812.916	160.42
813.095	131.75
813.274	127.66
813.453	131.75
813.632	182.95
813.811	240.29
813.989	199.34
814.168	201.38
814.347	156.33
814.526	195.24
814.704	154.28
814.883	230.06
815.062	123.56
815.24	205.48
815.419	170.66
815.598	135.85
815.776	187.05
815.955	111.27
816.133	107.18
816.312	150.18
816.49	105.13
816.669	228.01
816.847	139.94
817.026	180.9
817.204	164.52
817.383	187.05
817.561	176.81
817.74	170.66
817.918	168.62
818.097	230.06
818.275	135.85
818.453	98.99
818.632	98.99
818.81	205.48
818.988	35.5
819.167	127.66
819.345	156.33
819.523	131.75
819.701	80.55
819.879	203.43
820.058	137.9
820.236	141.99
820.414	152.23
820.592	219.82
820.77	88.75
820.948	84.65
821.127	62.12
821.305	146.09
821.483	146.09
821.661	180.9
821.839	115.37
822.017	82.6
822.195	109.22
822.373	144.04
822.551	166.57
822.729	203.43
822.907	176.81
823.085	135.85
823.262	86.7
823.44	119.46
823.618	131.75
823.796	127.66
823.974	98.99
824.152	115.37
824.329	98.99
824.507	164.52
824.685	86.7
824.863	123.56
825.04	-1.37
825.218	150.18
825.396	90.79
825.574	49.83
825.751	82.6
825.929	162.47
826.107	141.99
826.284	68.27
826.462	101.03
826.639	137.9
826.817	66.22
826.994	113.32
827.172	131.75
827.349	150.18
827.527	213.67
827.704	125.61
827.882	127.66
828.059	182.95
828.237	88.75
828.414	144.04
828.591	64.17
828.769	164.52
828.946	19.11
829.124	111.27
829.301	150.18
829.478	92.84
829.655	68.27
829.833	68.27
830.01	111.27
830.187	45.74
830.364	133.8
830.542	111.27
830.719	82.6
830.896	137.9
831.073	109.22
831.25	23.21
831.427	189.1
831.604	135.85
831.782	70.31
831.959	72.36
832.136	105.13
832.313	31.4
832.49	68.27
832.667	129.7
832.844	76.46
833.021	80.55
833.198	74.41
833.374	82.6
833.551	70.31
833.728	150.18
833.905	76.46
834.082	53.93
834.259	88.75
834.436	29.35
834.612	115.37
834.789	37.55
834.966	123.56
835.143	78.51
835.319	37.55
835.496	144.04
835.673	90.79
835.85	58.03
836.026	33.45
836.203	84.65
836.38	51.88
836.556	27.31
836.733	98.99
836.909	103.08
837.086	74.41
837.262	62.12
837.439	58.03
837.616	55.98
837.792	80.55
837.968	119.46
838.145	31.4
838.321	66.22
838.498	86.7
838.674	115.37
838.851	98.99
839.027	115.37
839.203	43.69
839.38	-1.37
839.556	-7.51
839.732	35.5
839.909	23.21
840.085	39.59
840.261	117.42
840.437	74.41
840.614	43.69
840.79	51.88
840.966	29.35
841.142	27.31
841.318	51.88
841.494	62.12
841.671	141.99
841.847	90.79
842.023	158.38
842.199	55.98
842.375	74.41
842.551	-3.41
842.727	117.42
842.903	31.4
843.079	88.75
843.255	88.75
843.431	80.55
843.607	137.9
843.783	-1.37
843.959	-9.56
844.134	74.41
844.31	94.89
844.486	49.83
844.662	64.17
844.838	74.41
845.013	55.98
845.189	35.5
845.365	55.98
845.541	78.51
845.716	96.94
845.892	58.03
846.068	-5.46
846.244	86.7
846.419	80.55
846.595	58.03
846.77	55.98
846.946	133.8
847.122	78.51
847.297	96.94
847.473	53.93
847.648	35.5
847.824	60.07
847.999	-50.52
848.175	107.18
848.35	33.45
848.526	41.64
848.701	113.32
848.876	107.18
849.052	148.14
849.227	-105.81
849.403	60.07
849.578	62.12
849.753	101.03
849.929	90.79
850.104	-21.85
850.279	19.11
850.454	49.83
850.63	84.65
850.805	103.08
850.98	4.78
851.155	51.88
851.33	43.69
851.505	-7.51
851.681	53.93
851.856	53.93
852.031	121.51
852.206	21.16
852.381	25.26
852.556	72.36
852.731	86.7
852.906	68.27
853.081	51.88
853.256	58.03
853.431	84.65
853.606	41.64
853.781	41.64
853.956	6.83
854.131	58.03
854.305	98.99
854.48	103.08
854.655	29.35
854.83	21.16
855.005	27.31
855.18	88.75
855.354	15.02
855.529	27.31
855.704	92.84
855.879	31.4
856.053	33.45
856.228	31.4
856.403	4.78
856.577	86.7
856.752	55.98
856.926	105.13
857.101	111.27
857.276	2.73
857.45	-7.51
857.625	51.88
857.799	2.73
857.974	58.03
858.148	64.17
858.323	39.59
858.497	-1.37
858.672	39.59
858.846	-7.51
859.02	66.22
859.195	39.59
859.369	37.55
859.543	4.78
859.718	47.79
859.892	49.83
860.066	53.93
860.241	84.65
860.415	-13.65
860.589	-5.46
860.763	43.69
860.938	86.7
861.112	35.5
861.286	19.11
861.46	25.26
861.634	-3.41
861.808	109.22
861.982	10.92
862.157	10.92
862.331	62.12
862.505	105.13
862.679	-17.75
862.853	62.12
863.027	31.4
863.201	86.7
863.375	33.45
863.549	-1.37
863.722	-17.75
863.896	94.89
864.07	33.45
864.244	37.55
864.418	55.98
864.592	-36.18
864.766	-7.51
864.939	-3.41
865.113	4.78
865.287	64.17
865.461	-13.65
865.634	25.26
865.808	43.69
865.982	15.02
866.156	35.5
866.329	-1.37
866.503	41.64
866.676	58.03
866.85	58.03
867.024	107.18
867.197	39.59
867.371	68.27
867.544	17.07
867.718	-21.85
867.891	-1.37
868.065	25.26
868.238	8.87
868.412	43.69
868.585	0.68
868.759	-66.9
868.932	-60.76
869.105	88.75
869.279	-27.99
869.452	-42.32
869.625	-13.65
869.799	84.65
869.972	4.78
870.145	51.88
870.319	35.5
870.492	96.94
870.665	-25.94
870.838	51.88
871.011	-48.47
871.185	17.07
871.358	33.45
871.531	58.03
871.704	-36.18
871.877	21.16
872.05	86.7
872.223	105.13
872.396	45.74
872.569	21.16
872.742	-44.37
872.915	19.11
873.088	6.83
873.261	-5.46
873.434	29.35
873.607	64.17
873.78	49.83
873.953	58.03
874.126	10.92
874.299	-9.56
874.471	-19.8
874.644	72.36
874.817	35.5
874.99	25.26
875.163	8.87
875.335	29.35
875.508	25.26
875.681	74.41
875.853	-13.65
876.026	27.31
876.199	23.21
876.371	4.78
876.544	96.94
876.717	-3.41
876.889	62.12
877.062	78.51
877.234	-62.8
877.407	6.83
877.579	84.65
877.752	15.02
877.924	8.87
878.097	33.45
878.269	-23.89
878.442	-3.41
878.614	29.35
878.786	-1.37
878.959	-32.08
879.131	35.5
879.303	47.79
879.476	-73.04
879.648	41.64
879.82	39.59
879.993	19.11
880.165	25.26
880.337	-36.18
880.509	70.31
880.681	-9.56
880.854	39.59
881.026	80.55
881.198	66.22
881.37	76.46
881.542	55.98
881.714	-23.89
881.886	55.98
882.058	-15.7
882.23	-38.23
882.402	-5.46
882.574	8.87
882.746	74.41
882.918	17.07
883.09	2.73
883.262	31.4
883.434	-13.65
883.606	-3.41
883.778	15.02
883.95	49.83
884.122	66.22
884.293	25.26
884.465	10.92
884.637	17.07
884.809	-42.32
884.98	88.75
885.152	-3.41
885.324	-7.51
885.496	-5.46
885.667	12.97
885.839	45.74
886.011	4.78
886.182	70.31
886.354	-7.51
886.525	43.69
886.697	51.88
886.869	19.11
887.04	41.64
887.212	76.46
887.383	68.27
887.555	19.11
887.726	86.7
887.897	-56.66
888.069	35.5
888.24	25.26
888.412	49.83
888.583	53.93
888.754	-9.56
888.926	6.83
889.097	19.11
889.268	21.16
889.44	103.08
889.611	-3.41
889.782	8.87
889.953	31.4
890.125	23.21
890.296	0.68
890.467	12.97
890.638	62.12
890.809	-34.13
890.98	33.45
891.151	90.79
891.323	-30.04
891.494	25.26
891.665	41.64
891.836	33.45
892.007	37.55
892.178	15.02
892.349	25.26
892.52	10.92
892.691	10.92
892.862	80.55
893.032	-13.65
893.203	0.68
893.374	64.17
893.545	12.97
893.716	-21.85
893.887	55.98
894.057	17.07
894.228	-75.09
894.399	39.59
894.57	27.31
894.74	74.41
894.911	49.83
895.082	-40.28
895.253	-21.85
895.423	2.73
895.594	0.68
895.764	45.74
895.935	-42.32
896.106	-17.75
896.276	8.87
896.447	27.31
896.617	-46.42
896.788	39.59
896.958	23.21
897.129	4.78
897.299	-11.61
897.47	49.83
897.64	58.03
897.81	15.02
897.981	23.21
898.151	43.69
898.322	-30.04
898.492	25.26
898.662	27.31
898.832	-34.13
899.003	19.11
899.173	58.03
899.343	0.68
899.513	15.02
