Data from USB4F104151__3__12-26-54-178.txt Node

Date: Fri Mar 14 12:26:54 EDT 2025
User: louis
Spectrometer: USB4F10415
Trigger mode: 4
Integration Time (sec): 2.000000E-2
Scans to average: 1
Electric dark correction enabled: true
Nonlinearity correction enabled: false
Boxcar width: 0
XAxis mode: Wavelengths
Number of Pixels in Spectrum: 3648
>>>>>Begin Spectral Data<<<<<
178.204	-45.06
178.424	-45.06
178.644	-45.06
178.864	-94.21
179.084	-38.91
179.304	10.24
179.524	-26.62
179.744	18.43
179.964	65.53
180.184	-32.77
180.404	-8.19
180.624	63.49
180.844	-32.77
181.064	-81.92
181.283	-49.15
181.503	-10.24
181.723	83.97
181.943	-18.43
182.163	57.34
182.383	8.19
182.602	59.39
182.822	63.49
183.042	43.01
183.262	43.01
183.482	43.01
183.701	-18.43
183.921	30.72
184.141	-8.19
184.361	34.82
184.58	88.06
184.8	-26.62
185.02	-36.86
185.239	96.25
185.459	0
185.679	14.34
185.898	2.05
186.118	-61.44
186.338	6.14
186.557	18.43
186.777	-4.1
186.997	47.1
187.216	26.62
187.436	81.92
187.655	28.67
187.875	75.77
188.095	-6.14
188.314	-4.1
188.534	34.82
188.753	-36.86
188.973	77.82
189.192	12.29
189.412	2.05
189.631	-24.58
189.851	18.43
190.07	24.58
190.29	10.24
190.509	28.67
190.729	-45.06
190.948	47.1
191.168	96.25
191.387	38.91
191.607	-18.43
191.826	-6.14
192.045	-18.43
192.265	-14.34
192.484	0
192.704	45.06
192.923	12.29
193.142	16.38
193.362	14.34
193.581	65.53
193.8	34.82
194.02	65.53
194.239	28.67
194.458	30.72
194.678	16.38
194.897	34.82
195.116	51.2
195.335	59.39
195.555	24.58
195.774	92.16
195.993	38.91
196.212	59.39
196.432	53.25
196.651	30.72
196.87	-30.72
197.089	108.54
197.308	22.53
197.528	6.14
197.747	-75.77
197.966	22.53
198.185	47.1
198.404	30.72
198.623	81.92
198.842	53.25
199.062	59.39
199.281	30.72
199.5	10.24
199.719	61.44
199.938	20.48
200.157	45.06
200.376	16.38
200.595	-16.38
200.814	-43.01
201.033	83.97
201.252	12.29
201.471	49.15
201.69	32.77
201.909	24.58
202.128	55.3
202.347	47.1
202.566	16.38
202.785	-34.82
203.004	-51.2
203.223	-14.34
203.442	34.82
203.661	12.29
203.879	-53.25
204.098	75.77
204.317	-24.58
204.536	12.29
204.755	-8.19
204.974	12.29
205.193	-8.19
205.411	45.06
205.63	55.3
205.849	28.67
206.068	79.87
206.287	57.34
206.505	24.58
206.724	34.82
206.943	4.1
207.162	92.16
207.381	12.29
207.599	96.25
207.818	30.72
208.037	6.14
208.255	8.19
208.474	83.97
208.693	32.77
208.911	59.39
209.13	8.19
209.349	-2.05
209.567	106.49
209.786	51.2
210.005	71.68
210.223	6.14
210.442	-20.48
210.661	22.53
210.879	26.62
211.098	18.43
211.316	-38.91
211.535	49.15
211.753	45.06
211.972	49.15
212.191	28.67
212.409	30.72
212.628	38.91
212.846	18.43
213.065	40.96
213.283	-2.05
213.502	-12.29
213.72	69.63
213.938	40.96
214.157	-4.1
214.375	53.25
214.594	14.34
214.812	38.91
215.031	43.01
215.249	2.05
215.467	26.62
215.686	34.82
215.904	94.21
216.122	-4.1
216.341	67.58
216.559	45.06
216.778	38.91
216.996	47.1
217.214	69.63
217.432	26.62
217.651	-16.38
217.869	6.14
218.087	14.34
218.306	102.4
218.524	40.96
218.742	-22.53
218.96	49.15
219.179	22.53
219.397	53.25
219.615	124.93
219.833	-24.58
220.051	45.06
220.27	69.63
220.488	94.21
220.706	-6.14
220.924	-12.29
221.142	16.38
221.36	45.06
221.578	57.34
221.796	28.67
222.015	36.86
222.233	26.62
222.451	79.87
222.669	-16.38
222.887	59.39
223.105	2.05
223.323	6.14
223.541	-53.25
223.759	53.25
223.977	38.91
224.195	43.01
224.413	18.43
224.631	24.58
224.849	77.82
225.067	47.1
225.285	38.91
225.503	24.58
225.721	2.05
225.939	10.24
226.157	61.44
226.375	55.3
226.592	45.06
226.81	34.82
227.028	49.15
227.246	131.07
227.464	45.06
227.682	18.43
227.9	79.87
228.117	34.82
228.335	-12.29
228.553	8.19
228.771	32.77
228.989	57.34
229.206	2.05
229.424	26.62
229.642	26.62
229.86	36.86
230.077	81.92
230.295	67.58
230.513	8.19
230.731	47.1
230.948	32.77
231.166	63.49
231.384	16.38
231.601	26.62
231.819	86.01
232.037	65.53
232.254	-26.62
232.472	6.14
232.689	43.01
232.907	61.44
233.125	22.53
233.342	16.38
233.56	-4.1
233.777	34.82
233.995	10.24
234.213	-30.72
234.43	36.86
234.648	38.91
234.865	-8.19
235.083	61.44
235.3	59.39
235.518	-10.24
235.735	12.29
235.953	53.25
236.17	-22.53
236.388	32.77
236.605	108.54
236.822	36.86
237.04	75.77
237.257	45.06
237.475	-12.29
237.692	-10.24
237.909	26.62
238.127	51.2
238.344	59.39
238.562	65.53
238.779	40.96
238.996	-10.24
239.214	75.77
239.431	24.58
239.648	-2.05
239.865	53.25
240.083	-18.43
240.3	30.72
240.517	28.67
240.735	36.86
240.952	49.15
241.169	55.3
241.386	59.39
241.603	26.62
241.821	18.43
242.038	75.77
242.255	-10.24
242.472	16.38
242.689	96.25
242.907	22.53
243.124	24.58
243.341	-26.62
243.558	-32.77
243.775	30.72
243.992	12.29
244.209	53.25
244.426	20.48
244.643	69.63
244.86	16.38
245.078	47.1
245.295	63.49
245.512	-55.3
245.729	63.49
245.946	49.15
246.163	-4.1
246.38	18.43
246.597	57.34
246.814	20.48
247.031	57.34
247.248	69.63
247.464	20.48
247.681	53.25
247.898	34.82
248.115	-51.2
248.332	26.62
248.549	47.1
248.766	-8.19
248.983	30.72
249.2	10.24
249.417	38.91
249.633	53.25
249.85	34.82
250.067	61.44
250.284	14.34
250.501	45.06
250.717	38.91
250.934	10.24
251.151	-16.38
251.368	26.62
251.585	-59.39
251.801	22.53
252.018	-26.62
252.235	6.14
252.451	34.82
252.668	-36.86
252.885	12.29
253.102	36.86
253.318	49.15
253.535	34.82
253.752	55.3
253.968	-32.77
254.185	26.62
254.401	57.34
254.618	36.86
254.835	75.77
255.051	63.49
255.268	26.62
255.484	108.54
255.701	73.73
255.917	79.87
256.134	34.82
256.351	51.2
256.567	-16.38
256.784	32.77
257	-18.43
257.217	-4.1
257.433	32.77
257.65	16.38
257.866	4.1
258.082	43.01
258.299	-55.3
258.515	34.82
258.732	57.34
258.948	96.25
259.165	4.1
259.381	45.06
259.597	53.25
259.814	22.53
260.03	10.24
260.246	112.64
260.463	12.29
260.679	22.53
260.895	34.82
261.112	51.2
261.328	30.72
261.544	-30.72
261.761	-71.68
261.977	32.77
262.193	20.48
262.409	10.24
262.626	6.14
262.842	38.91
263.058	24.58
263.274	32.77
263.49	38.91
263.707	-2.05
263.923	-10.24
264.139	-6.14
264.355	22.53
264.571	47.1
264.787	43.01
265.004	75.77
265.22	26.62
265.436	137.21
265.652	-36.86
265.868	16.38
266.084	81.92
266.3	63.49
266.516	-2.05
266.732	40.96
266.948	86.01
267.164	38.91
267.38	32.77
267.596	24.58
267.812	79.87
268.028	43.01
268.244	-4.1
268.46	-26.62
268.676	45.06
268.892	100.35
269.108	8.19
269.324	-55.3
269.54	71.68
269.756	88.06
269.972	-16.38
270.188	22.53
270.403	0
270.619	0
270.835	112.64
271.051	43.01
271.267	45.06
271.483	51.2
271.698	135.17
271.914	65.53
272.13	45.06
272.346	40.96
272.562	65.53
272.777	26.62
272.993	40.96
273.209	40.96
273.425	137.21
273.64	24.58
273.856	38.91
274.072	69.63
274.287	28.67
274.503	96.25
274.719	51.2
274.934	49.15
275.15	47.1
275.366	10.24
275.581	18.43
275.797	4.1
276.012	14.34
276.228	36.86
276.444	14.34
276.659	92.16
276.875	-16.38
277.09	65.53
277.306	63.49
277.521	112.64
277.737	26.62
277.952	22.53
278.168	8.19
278.383	59.39
278.599	94.21
278.814	90.11
279.03	-16.38
279.245	43.01
279.461	10.24
279.676	40.96
279.892	-4.1
280.107	24.58
280.322	-69.63
280.538	61.44
280.753	2.05
280.969	-2.05
281.184	180.22
281.399	126.97
281.615	32.77
281.83	36.86
282.045	47.1
282.26	-6.14
282.476	38.91
282.691	98.3
282.906	49.15
283.122	47.1
283.337	49.15
283.552	28.67
283.767	-24.58
283.983	57.34
284.198	-6.14
284.413	94.21
284.628	0
284.843	6.14
285.058	45.06
285.274	69.63
285.489	-40.96
285.704	14.34
285.919	-43.01
286.134	22.53
286.349	-2.05
286.564	90.11
286.779	106.49
286.995	40.96
287.21	36.86
287.425	24.58
287.64	-28.67
287.855	49.15
288.07	20.48
288.285	53.25
288.5	4.1
288.715	79.87
288.93	-30.72
289.145	8.19
289.36	38.91
289.575	98.3
289.79	45.06
290.004	24.58
290.219	36.86
290.434	-73.73
290.649	57.34
290.864	36.86
291.079	43.01
291.294	-8.19
291.509	59.39
291.724	22.53
291.938	43.01
292.153	2.05
292.368	-34.82
292.583	34.82
292.798	28.67
293.012	47.1
293.227	40.96
293.442	12.29
293.657	32.77
293.871	-30.72
294.086	71.68
294.301	75.77
294.516	63.49
294.73	51.2
294.945	75.77
295.16	32.77
295.374	6.14
295.589	63.49
295.804	26.62
296.018	104.45
296.233	43.01
296.447	-22.53
296.662	26.62
296.877	49.15
297.091	114.69
297.306	18.43
297.52	8.19
297.735	6.14
297.949	22.53
298.164	-4.1
298.378	61.44
298.593	18.43
298.807	16.38
299.022	49.15
299.236	57.34
299.451	32.77
299.665	34.82
299.88	94.21
300.094	16.38
300.309	49.15
300.523	47.1
300.737	32.77
300.952	30.72
301.166	8.19
301.381	-4.1
301.595	26.62
301.809	55.3
302.024	16.38
302.238	-18.43
302.452	63.49
302.667	36.86
302.881	133.12
303.095	32.77
303.309	112.64
303.524	67.58
303.738	40.96
303.952	8.19
304.166	51.2
304.381	22.53
304.595	-10.24
304.809	59.39
305.023	112.64
305.237	24.58
305.452	51.2
305.666	53.25
305.88	100.35
306.094	-20.48
306.308	51.2
306.522	34.82
306.736	79.87
306.95	86.01
307.164	8.19
307.379	-18.43
307.593	49.15
307.807	98.3
308.021	120.83
308.235	-12.29
308.449	-12.29
308.663	18.43
308.877	14.34
309.091	-8.19
309.305	-4.1
309.519	-2.05
309.733	24.58
309.947	47.1
310.161	49.15
310.374	47.1
310.588	59.39
310.802	8.19
311.016	4.1
311.23	14.34
311.444	-16.38
311.658	0
311.872	94.21
312.085	133.12
312.299	57.34
312.513	61.44
312.727	22.53
312.941	34.82
313.154	-45.06
313.368	-4.1
313.582	28.67
313.796	-65.54
314.009	-43.01
314.223	43.01
314.437	30.72
314.651	67.58
314.864	-20.48
315.078	-12.29
315.292	14.34
315.505	32.77
315.719	22.53
315.933	63.49
316.146	14.34
316.36	67.58
316.573	-8.19
316.787	-12.29
317.001	22.53
317.214	43.01
317.428	88.06
317.641	18.43
317.855	43.01
318.068	0
318.282	40.96
318.495	40.96
318.709	-10.24
318.922	-30.72
319.136	40.96
319.349	94.21
319.563	59.39
319.776	65.53
319.99	-12.29
320.203	59.39
320.417	-36.86
320.63	71.68
320.843	47.1
321.057	-12.29
321.27	96.25
321.483	49.15
321.697	83.97
321.91	26.62
322.124	-4.1
322.337	71.68
322.55	-8.19
322.763	49.15
322.977	-16.38
323.19	57.34
323.403	57.34
323.617	90.11
323.83	137.21
324.043	8.19
324.256	67.58
324.469	26.62
324.683	-20.48
324.896	12.29
325.109	4.1
325.322	79.87
325.535	53.25
325.748	34.82
325.962	30.72
326.175	40.96
326.388	40.96
326.601	86.01
326.814	57.34
327.027	-49.15
327.24	61.44
327.453	-12.29
327.666	65.53
327.879	16.38
328.092	-16.38
328.305	100.35
328.518	63.49
328.731	10.24
328.944	61.44
329.157	-71.68
329.37	24.58
329.583	102.4
329.796	43.01
330.009	16.38
330.222	22.53
330.435	-8.19
330.648	0
330.861	30.72
331.073	-18.43
331.286	43.01
331.499	49.15
331.712	16.38
331.925	14.34
332.138	106.49
332.35	118.78
332.563	-6.14
332.776	43.01
332.989	40.96
333.202	22.53
333.414	28.67
333.627	30.72
333.84	40.96
334.053	45.06
334.265	4.1
334.478	36.86
334.691	-20.48
334.903	-40.96
335.116	28.67
335.329	-2.05
335.541	20.48
335.754	90.11
335.966	86.01
336.179	86.01
336.392	61.44
336.604	63.49
336.817	75.77
337.029	36.86
337.242	116.73
337.454	61.44
337.667	24.58
337.88	61.44
338.092	65.53
338.305	92.16
338.517	77.82
338.729	79.87
338.942	53.25
339.154	24.58
339.367	53.25
339.579	88.06
339.792	38.91
340.004	102.4
340.217	10.24
340.429	43.01
340.641	26.62
340.854	133.12
341.066	65.53
341.278	96.25
341.491	63.49
341.703	65.53
341.915	-6.14
342.128	57.34
342.34	26.62
342.552	-2.05
342.764	45.06
342.977	83.97
343.189	51.2
343.401	20.48
343.613	28.67
343.826	77.82
344.038	16.38
344.25	57.34
344.462	-20.48
344.674	112.64
344.886	28.67
345.099	63.49
345.311	0
345.523	45.06
345.735	-32.77
345.947	26.62
346.159	-6.14
346.371	71.68
346.583	2.05
346.795	51.2
347.007	65.53
347.219	59.39
347.431	18.43
347.643	104.45
347.855	32.77
348.067	47.1
348.279	30.72
348.491	34.82
348.703	55.3
348.915	96.25
349.127	4.1
349.339	61.44
349.551	65.53
349.763	40.96
349.975	6.14
350.187	47.1
350.399	20.48
350.61	10.24
350.822	4.1
351.034	8.19
351.246	32.77
351.458	45.06
351.669	43.01
351.881	104.45
352.093	110.59
352.305	38.91
352.517	59.39
352.728	104.45
352.94	36.86
353.152	51.2
353.363	61.44
353.575	38.91
353.787	59.39
353.999	8.19
354.21	49.15
354.422	16.38
354.633	-18.43
354.845	61.44
355.057	65.53
355.268	6.14
355.48	51.2
355.692	20.48
355.903	55.3
356.115	79.87
356.326	-38.91
356.538	16.38
356.749	51.2
356.961	57.34
357.172	67.58
357.384	73.73
357.595	24.58
357.807	32.77
358.018	81.92
358.23	65.53
358.441	47.1
358.653	69.63
358.864	67.58
359.075	26.62
359.287	49.15
359.498	38.91
359.709	112.64
359.921	-24.58
360.132	49.15
360.344	110.59
360.555	79.87
360.766	40.96
360.977	75.77
361.189	36.86
361.4	63.49
361.611	114.69
361.823	92.16
362.034	14.34
362.245	81.92
362.456	55.3
362.667	30.72
362.879	24.58
363.09	75.77
363.301	18.43
363.512	-26.62
363.723	55.3
363.935	36.86
364.146	131.07
364.357	-6.14
364.568	0
364.779	22.53
364.99	86.01
365.201	40.96
365.412	34.82
365.623	34.82
365.834	100.35
366.045	114.69
366.256	79.87
366.467	67.58
366.678	100.35
366.889	34.82
367.1	36.86
367.311	59.39
367.522	100.35
367.733	88.06
367.944	92.16
368.155	30.72
368.366	43.01
368.577	88.06
368.788	94.21
368.999	53.25
369.209	26.62
369.42	114.69
369.631	114.69
369.842	38.91
370.053	32.77
370.264	57.34
370.474	94.21
370.685	16.38
370.896	71.68
371.107	0
371.317	40.96
371.528	-28.67
371.739	69.63
371.95	40.96
372.16	75.77
372.371	53.25
372.582	2.05
372.792	61.44
373.003	2.05
373.214	61.44
373.424	90.11
373.635	90.11
373.846	55.3
374.056	86.01
374.267	110.59
374.477	73.73
374.688	22.53
374.898	151.55
375.109	28.67
375.319	63.49
375.53	92.16
375.74	77.82
375.951	20.48
376.161	92.16
376.372	71.68
376.582	114.69
376.793	126.97
377.003	-81.92
377.214	112.64
377.424	20.48
377.635	79.87
377.845	49.15
378.055	40.96
378.266	92.16
378.476	49.15
378.686	43.01
378.897	157.69
379.107	69.63
379.317	59.39
379.528	4.1
379.738	69.63
379.948	-28.67
380.158	-2.05
380.369	57.34
380.579	120.83
380.789	-28.67
380.999	79.87
381.21	77.82
381.42	188.41
381.63	73.73
381.84	38.91
382.05	75.77
382.261	98.3
382.471	36.86
382.681	14.34
382.891	36.86
383.101	71.68
383.311	-16.38
383.521	-10.24
383.731	28.67
383.941	71.68
384.151	38.91
384.361	43.01
384.571	69.63
384.781	145.41
384.991	53.25
385.201	75.77
385.411	79.87
385.621	69.63
385.831	16.38
386.041	2.05
386.251	57.34
386.461	118.78
386.671	153.6
386.881	71.68
387.091	69.63
387.301	49.15
387.511	32.77
387.72	45.06
387.93	104.45
388.14	77.82
388.35	28.67
388.56	147.45
388.769	151.55
388.979	63.49
389.189	40.96
389.399	75.77
389.609	151.55
389.818	12.29
390.028	126.97
390.238	118.78
390.447	30.72
390.657	124.93
390.867	43.01
391.076	0
391.286	67.58
391.496	114.69
391.705	4.1
391.915	38.91
392.125	120.83
392.334	94.21
392.544	55.3
392.753	94.21
392.963	59.39
393.172	180.22
393.382	71.68
393.591	90.11
393.801	16.38
394.01	81.92
394.22	81.92
394.429	49.15
394.639	77.82
394.848	137.21
395.058	40.96
395.267	14.34
395.477	47.1
395.686	55.3
395.895	106.49
396.105	79.87
396.314	98.3
396.524	122.88
396.733	112.64
396.942	137.21
397.152	94.21
397.361	59.39
397.57	169.98
397.78	114.69
397.989	34.82
398.198	147.45
398.407	157.69
398.617	73.73
398.826	69.63
399.035	57.34
399.244	147.45
399.453	159.74
399.663	59.39
399.872	143.36
400.081	106.49
400.29	120.83
400.499	108.54
400.708	133.12
400.917	16.38
401.127	43.01
401.336	81.92
401.545	153.6
401.754	96.25
401.963	106.49
402.172	219.13
402.381	161.79
402.59	145.41
402.799	96.25
403.008	120.83
403.217	153.6
403.426	159.74
403.635	135.17
403.844	90.11
404.053	174.08
404.262	126.97
404.471	208.89
404.68	114.69
404.888	114.69
405.097	135.17
405.306	153.6
405.515	153.6
405.724	163.84
405.933	104.45
406.142	157.69
406.35	184.32
406.559	202.75
406.768	245.76
406.977	200.7
407.185	192.51
407.394	223.23
407.603	196.61
407.812	159.74
408.02	253.95
408.229	221.18
408.438	192.51
408.646	180.22
408.855	274.43
409.064	249.85
409.272	249.85
409.481	358.39
409.69	344.06
409.898	262.14
410.107	346.11
410.315	401.4
410.524	339.96
410.733	294.91
410.941	348.15
411.15	247.8
411.358	296.96
411.567	464.89
411.775	370.68
411.984	380.92
412.192	462.84
412.401	380.92
412.609	423.93
412.818	458.74
413.026	550.9
413.234	548.86
413.443	573.43
413.651	581.62
413.86	526.33
414.068	579.58
414.276	509.94
414.485	587.77
414.693	692.21
414.901	657.4
415.11	753.65
415.318	702.45
415.526	739.32
415.734	759.8
415.943	729.08
416.151	796.66
416.359	718.84
416.567	921.59
416.776	921.59
416.984	964.59
417.192	956.4
417.4	1028.08
417.608	897.01
417.817	1097.71
418.025	1064.94
418.233	1118.19
418.441	1200.11
418.649	1200.11
418.857	1187.82
419.065	1341.42
419.273	1267.69
419.481	1308.65
419.689	1419.24
419.897	1538.02
420.105	1503.21
420.313	1626.09
420.521	1581.03
420.729	1527.78
420.937	1679.33
421.145	1759.21
421.353	1830.88
421.561	1964
421.769	2000.87
421.977	2105.31
422.185	1912.8
422.393	2136.03
422.601	2248.67
422.809	2195.42
423.017	2183.13
423.224	2375.64
423.432	2451.42
423.64	2568.15
423.848	2826.2
424.056	2701.27
424.263	2822.1
424.471	2848.72
424.679	2885.59
424.887	3000.27
425.094	3227.6
425.302	3143.63
425.51	3252.17
425.718	3456.97
425.925	3479.5
426.133	3665.86
426.341	3880.9
426.548	3897.28
426.756	3868.61
426.964	3999.68
427.171	4231.1
427.379	4298.69
427.586	4319.17
427.794	4597.69
428.001	4763.58
428.209	4951.99
428.417	4837.3
428.624	5175.22
428.832	5017.52
429.039	5021.62
429.247	5111.73
429.454	5633.96
429.662	6123.43
429.869	5644.2
430.076	6184.87
430.284	5941.16
430.491	6143.91
430.699	6440.86
430.906	6490.01
431.114	6561.69
431.321	6883.22
431.528	7182.23
431.736	7479.18
431.943	7839.62
432.15	7624.59
432.358	7749.51
432.565	7991.17
432.772	7927.69
432.979	8626.04
433.187	8529.79
433.394	8806.27
433.601	9342.83
433.808	9285.49
434.016	9400.18
434.223	9512.81
434.43	10174.31
434.637	10153.83
434.844	10729.31
435.052	11030.36
435.259	10782.56
435.466	10907.48
435.673	10852.19
435.88	11446.1
436.087	11956.04
436.294	12193.61
436.501	12062.54
436.708	11941.71
436.915	12578.62
437.122	13072.18
437.329	13080.38
437.537	13446.96
437.743	13846.32
437.95	13584.18
438.157	14223.14
438.364	14901.02
438.571	15013.66
438.778	14929.69
438.985	16088.84
439.192	15728.4
439.399	16058.12
439.606	15730.45
439.813	16604.93
440.02	17688.31
440.227	17149.69
440.433	17286.9
440.64	17962.73
440.847	17788.66
441.054	18378.47
441.261	19470.04
441.467	19273.43
441.674	19373.78
441.881	20094.67
442.088	20238.03
442.294	20035.28
442.501	20352.71
442.708	20956.86
442.914	21825.2
443.121	22621.86
443.328	21923.51
443.534	23565.98
443.741	23142.05
443.948	22865.57
444.154	24331.92
444.361	24063.63
444.568	24462.99
444.774	24149.65
444.981	24555.15
445.187	25415.29
445.394	26482.28
445.6	26470
445.807	28792.39
446.013	27455.07
446.22	27723.35
446.426	29201.99
446.633	29253.19
446.839	30477.87
447.046	29349.44
447.252	30588.46
447.459	30875.18
447.665	31067.69
447.871	31999.51
448.078	33482.24
448.284	31712.8
448.491	32900.62
448.697	33705.47
448.903	34584.05
449.11	34717.17
449.316	33596.93
449.522	34944.49
449.728	35765.73
449.935	36052.44
450.141	36124.12
450.347	36746.7
450.553	35599.84
450.76	35800.54
450.966	37514.69
451.172	37000.65
451.378	37885.37
451.584	37035.47
451.791	38321.59
451.997	38008.25
452.203	38835.63
452.409	38577.59
452.615	38528.44
452.821	37098.95
453.027	36863.44
453.233	38518.2
453.44	36933.07
453.646	37672.39
453.852	37803.46
454.058	38659.51
454.264	37273.03
454.47	37930.43
454.676	37189.06
454.882	38485.43
455.088	34717.17
455.294	35241.45
455.5	36042.2
455.705	36683.22
455.911	35048.94
456.117	34276.85
456.323	33867.26
456.529	32073.24
456.735	33787.39
456.941	32859.66
457.147	32394.77
457.352	31245.86
457.558	31071.78
457.764	30973.48
457.97	29978.17
458.176	29713.98
458.381	29869.62
458.587	28343.89
458.793	28315.22
458.999	26916.45
459.204	28743.24
459.41	27934.29
459.616	26285.68
459.821	26062.45
460.027	25943.67
460.233	25474.68
460.438	24671.88
460.644	24508.04
460.85	23502.49
461.055	23074.46
461.261	23262.88
461.466	21452.47
461.672	20711.11
461.878	22181.55
462.083	20707.01
462.289	20348.62
462.494	20109.01
462.7	19398.36
462.905	18673.38
463.111	19420.89
463.316	19400.41
463.522	18956
463.727	19173.08
463.932	19107.55
464.138	18673.38
464.343	18745.06
464.549	18159.34
464.754	18910.94
464.959	18818.78
465.165	18712.29
465.37	17966.83
465.575	17585.91
465.781	18099.95
465.986	18271.98
466.191	17547
466.397	17235.71
466.602	16291.59
466.807	17008.38
467.012	16998.14
467.218	16797.44
467.423	16697.09
467.628	16973.57
467.833	17503.99
468.038	17198.84
468.244	16457.48
468.449	16885.5
468.654	16580.35
468.859	16312.07
469.064	16318.21
469.269	15824.65
469.474	15582.99
469.679	16064.27
469.885	15820.56
470.09	15984.4
470.295	15703.82
470.5	15243.03
470.705	15593.23
470.91	15507.22
471.115	15277.85
471.32	15292.18
471.525	15288.09
471.73	14696.22
471.935	14642.98
472.139	14180.14
472.344	14636.83
472.549	14311.21
472.754	14112.55
472.959	13905.71
473.164	13414.2
473.369	13449.01
473.574	13956.91
473.778	13801.26
473.983	13674.29
474.188	13420.34
474.393	12873.53
474.598	13078.33
474.802	13002.55
475.007	12740.41
475.212	12998.46
475.417	12474.18
475.621	12445.51
475.826	12412.74
476.031	12080.97
476.235	11906.89
476.44	12193.61
476.645	11683.66
476.849	12080.97
477.054	11665.23
477.259	11575.12
477.463	11663.18
477.668	11233.11
477.872	11181.91
478.077	11274.07
478.282	11024.22
478.486	10827.61
478.691	10585.95
478.895	10927.96
479.1	11001.69
479.304	10852.19
479.509	10469.22
479.713	10571.61
479.918	10299.23
480.122	10370.91
480.326	10487.65
480.531	10465.12
480.735	10200.93
480.94	10168.16
481.144	10315.62
481.348	10235.75
481.553	10055.53
481.757	10084.2
481.961	10110.82
482.166	10153.83
482.37	10166.12
482.574	9895.78
482.778	10063.72
482.983	10051.43
483.187	9932.65
483.391	10309.47
483.595	10080.1
483.8	9787.24
484.004	10045.29
484.208	10012.52
484.412	9981.8
484.616	10047.33
484.821	9899.88
485.025	10024.81
485.229	10141.54
485.433	10063.72
485.637	9940.84
485.841	9901.93
486.045	9723.76
486.249	9940.84
486.453	9940.84
486.657	10129.25
486.861	9924.46
487.065	9727.85
487.269	9959.27
487.473	9803.63
487.677	9998.18
487.881	10135.4
488.085	10104.68
488.289	9981.8
488.493	9908.07
488.697	10090.34
488.901	10020.71
489.105	9946.98
489.309	9955.18
489.512	9994.09
489.716	9965.42
489.92	10010.47
490.124	9977.7
490.328	10305.38
490.531	10301.28
490.735	10266.47
490.939	10407.78
491.143	10028.9
491.346	10409.83
491.55	10479.46
491.754	10317.67
491.958	10358.63
492.161	10534.75
492.365	10590.05
492.569	10403.68
492.772	10262.37
492.976	10671.97
493.18	10663.77
493.383	10843.99
493.587	10878.81
493.79	10958.68
493.994	10889.05
494.197	10917.72
494.401	11124.57
494.605	11175.77
494.808	11351.89
495.012	11464.53
495.215	11302.74
495.419	11505.49
495.622	11214.68
495.825	11528.02
496.029	11558.74
496.232	11982.67
496.436	11587.41
496.639	12011.34
496.843	11980.62
497.046	12443.46
497.249	12484.42
497.453	12425.03
497.656	12764.99
497.859	12754.75
498.063	12654.4
498.266	12900.16
498.469	12959.55
498.673	13057.85
498.876	13319.99
499.079	13397.81
499.282	13322.04
499.485	13598.51
499.689	13653.81
499.892	14130.98
500.095	14010.15
500.298	14536.48
500.501	14268.2
500.705	14645.02
500.908	14700.32
501.111	14948.12
501.314	15245.08
501.517	15093.53
501.72	15437.59
501.923	15427.35
502.126	15666.96
502.329	16078.6
502.532	16008.97
502.735	16131.85
502.938	16527.11
503.141	16422.66
503.344	16707.33
503.547	17010.43
503.75	16969.47
503.953	17098.49
504.156	17415.93
504.359	17522.42
504.562	17653.49
504.765	18073.32
504.968	18282.22
505.17	18411.24
505.373	18431.72
505.576	18650.85
505.779	18863.84
505.982	18939.62
506.185	19373.78
506.387	19367.64
506.59	19701.46
506.793	20258.51
506.996	20238.03
507.198	20541.13
507.401	20317.9
507.604	20664
507.807	20821.7
508.009	21098.17
508.212	21300.92
508.415	21825.2
508.617	21821.11
508.82	21970.61
509.022	22007.47
509.225	22466.22
509.428	22601.38
509.63	22699.69
509.833	22953.63
510.035	23398.04
510.238	23027.36
510.44	23561.88
510.643	23787.16
510.845	24354.44
511.048	24352.4
511.25	24653.45
511.453	24796.81
511.655	25396.86
511.858	25202.3
512.06	25106.05
512.262	25560.7
512.465	25806.45
512.667	26082.93
512.87	26414.7
513.072	26732.14
513.274	26924.65
513.477	27303.52
513.679	27334.24
513.881	27831.9
514.084	27760.22
514.286	28044.88
514.488	28233.3
514.69	29038.15
514.893	28831.3
515.095	28616.27
515.297	29103.68
515.499	29527.61
515.701	30041.65
515.904	29945.4
516.106	30426.67
516.308	30758.44
516.51	30887.46
516.712	30649.9
516.914	31039.01
517.116	31667.74
517.318	31790.62
517.52	31946.26
517.722	32022.04
517.925	32665.1
518.127	32964.1
518.329	32982.54
518.531	32783.88
518.733	33584.64
518.935	33500.67
519.136	33472
519.338	34014.71
519.54	34528.75
519.742	34682.35
519.944	34639.34
520.146	35274.21
520.348	35696.1
520.55	35689.95
520.752	35661.28
520.954	36435.41
521.155	36128.22
521.357	36832.72
521.559	36926.92
521.761	37686.72
521.963	37299.65
522.164	37365.19
522.366	37746.11
522.568	37762.5
522.77	37778.88
522.971	38569.4
523.173	38448.57
523.375	38481.33
523.576	38856.11
523.778	38845.87
523.98	39237.03
524.181	39388.58
524.383	39841.18
524.584	40023.45
524.786	40064.41
524.988	39859.62
525.189	40474.01
525.391	40736.15
525.592	40850.83
525.794	40824.21
525.995	41239.95
526.197	41047.44
526.398	41205.13
526.6	41727.36
526.801	41461.13
527.003	41805.19
527.204	41768.32
527.406	42196.35
527.607	42356.09
527.808	42296.7
528.01	41854.34
528.211	41981.31
528.412	42997.1
528.614	42505.59
528.815	42886.51
529.016	43171.18
529.218	43099.5
529.419	43240.81
529.62	43046.26
529.822	42491.26
530.023	43040.11
530.224	43103.6
530.425	43072.88
530.626	43005.3
530.828	43636.07
531.029	44125.53
531.23	43363.69
531.431	43887.97
531.632	43658.6
531.833	44062.05
532.035	43926.88
532.236	43658.6
532.437	44365.15
532.638	43588.97
532.839	43998.56
533.04	44115.29
533.241	43625.83
533.442	44651.86
533.643	44156.25
533.844	44434.78
534.045	44219.74
534.246	43945.31
534.447	44250.46
534.648	44103.01
534.849	43994.46
535.05	43722.08
535.251	44621.14
535.451	44072.29
535.652	44115.29
535.853	44103.01
536.054	44352.86
536.255	44088.67
536.456	43873.63
536.657	44447.07
536.857	44131.68
537.058	44320.09
537.259	44348.76
537.46	44291.42
537.66	44533.08
537.861	43828.58
538.062	43697.51
538.263	44395.87
538.463	44068.19
538.664	44436.83
538.865	44569.94
539.065	44756.31
539.266	43838.82
539.466	44850.52
539.667	43715.94
539.868	44713.3
540.068	44279.13
540.269	44053.86
540.469	44406.11
540.67	44160.35
540.87	43853.15
541.071	44275.04
541.271	44014.94
541.472	44156.25
541.672	43892.07
541.873	44326.24
542.073	43648.36
542.274	44328.28
542.474	43953.51
542.675	43736.42
542.875	44492.12
543.075	44123.49
543.276	43736.42
543.476	44209.5
543.676	43572.58
543.877	44248.41
544.077	44012.9
544.277	43787.62
544.478	44143.97
544.678	44166.49
544.878	44035.42
545.078	43971.94
545.279	43713.89
545.479	44002.66
545.679	44115.29
545.879	44107.1
546.079	43640.17
546.28	43881.83
546.48	43533.67
546.68	43701.61
546.88	43881.83
547.08	44127.58
547.28	44100.96
547.48	43601.25
547.68	44016.99
547.88	43533.67
548.081	43996.51
548.281	44043.62
548.481	43402.6
548.681	44219.74
548.881	43967.84
549.081	43892.07
549.28	43758.95
549.48	44053.86
549.68	43672.93
549.88	44215.65
550.08	43849.06
550.28	43953.51
550.48	43638.12
550.68	44162.4
550.88	43638.12
551.08	43824.48
551.279	43638.12
551.479	43742.56
551.679	44010.85
551.879	43627.88
552.079	44002.66
552.278	43359.59
552.478	43898.21
552.678	43541.86
552.878	43711.84
553.077	44000.61
553.277	43447.66
553.477	44330.33
553.676	43527.53
553.876	43408.75
554.076	43134.32
554.275	43267.44
554.475	42997.1
554.674	43810.15
554.874	43691.37
555.074	43326.83
555.273	43558.25
555.473	44012.9
555.672	43122.03
555.872	43201.9
556.071	43201.9
556.271	43525.48
556.47	43273.58
556.67	43169.13
556.869	43273.58
557.068	43312.49
557.268	42757.49
557.467	42839.41
557.667	43369.83
557.866	43253.1
558.065	43003.25
558.265	42954.1
558.464	42478.97
558.663	43461.99
558.863	42491.26
559.062	43224.43
559.261	42909.04
559.461	43052.4
559.66	42452.34
559.859	42417.53
560.058	42521.98
560.258	42929.52
560.457	41915.78
560.656	42704.24
560.855	42218.88
561.054	42405.24
561.253	42122.62
561.453	42507.64
561.652	42583.41
561.851	42329.47
562.05	41940.35
562.249	42116.48
562.448	42577.27
562.647	41663.88
562.846	42386.81
563.045	41608.58
563.244	41768.32
563.443	42196.35
563.642	41526.66
563.841	41485.7
564.04	41964.93
564.239	42077.57
564.438	41297.29
564.637	41825.67
564.836	41870.72
565.035	41416.07
565.234	41438.6
565.432	41684.36
565.631	40916.37
565.83	41418.12
566.029	41190.8
566.228	40797.59
566.427	41108.88
566.625	40838.54
566.824	40488.34
567.023	41135.5
567.222	40474.01
567.42	41510.28
567.619	40881.55
567.818	40691.09
568.016	40381.85
568.215	41024.91
568.414	40424.86
568.612	40537.49
568.811	40289.69
569.01	40322.46
569.208	40043.93
569.407	40543.64
569.605	40095.13
569.804	40181.15
570.002	39632.29
570.201	40373.66
570.4	40041.88
570.598	39810.46
570.797	39597.48
570.995	39730.59
571.193	39622.05
571.392	39493.03
571.59	39228.84
571.789	39632.29
571.987	39564.71
572.186	39280.04
572.384	38837.68
572.582	39200.17
572.781	39298.47
572.979	38772.14
573.177	38962.61
573.376	39120.3
573.574	38385.08
573.772	39097.77
573.971	38649.27
574.169	38327.74
574.367	38438.33
574.565	38391.22
574.763	38299.06
574.962	38165.95
575.16	37817.79
575.358	38264.25
575.556	37717.44
575.754	38309.3
575.952	37647.81
576.151	38251.96
576.349	37993.92
576.547	37670.34
576.745	37737.92
576.943	37739.97
577.141	37682.62
577.339	37754.3
577.537	37385.67
577.735	37561.79
577.933	37375.43
578.131	37221.83
578.329	37047.75
578.527	36916.68
578.725	36763.09
578.923	37008.84
579.121	36724.18
579.319	36865.49
579.516	36802
579.714	37012.94
579.912	36437.46
580.11	36296.15
580.308	36322.77
580.506	36392.4
580.704	35907.04
580.901	36398.55
581.099	36431.32
581.297	35954.14
581.495	35823.07
581.692	36244.95
581.89	35786.21
582.088	35769.82
582.285	35528.16
582.483	35933.66
582.681	35339.75
582.878	35487.2
583.076	34993.64
583.274	35542.5
583.471	34917.87
583.669	35493.35
583.866	35024.36
584.064	35081.7
584.262	34553.33
584.459	35102.18
584.657	34917.87
584.854	34690.54
585.052	34276.85
585.249	34289.14
585.447	34356.72
585.644	34053.62
585.841	34430.45
586.039	34381.3
586.236	34008.57
586.434	34022.9
586.631	34123.26
586.828	33875.45
587.026	33748.48
587.223	33711.61
587.42	33758.72
587.618	33857.02
587.815	33269.25
588.012	33349.12
588.21	33441.28
588.407	33146.37
588.604	32853.51
588.801	32781.84
588.999	33056.26
589.196	32964.1
589.393	32982.54
589.59	33076.74
589.787	32663.05
589.984	32538.13
590.182	32482.83
590.379	32544.27
590.576	32185.88
590.773	32529.94
590.97	32161.3
591.167	32132.63
591.364	32077.33
591.561	31944.22
591.758	31946.26
591.955	31659.55
592.152	31809.05
592.349	31667.74
592.546	31639.07
592.743	31557.15
592.94	31065.64
593.137	31573.53
593.334	31546.91
593.531	31032.87
593.727	30998.06
593.924	31317.54
594.121	31049.25
594.318	31196.71
594.515	30242.35
594.712	30842.41
594.908	30492.21
595.105	30852.65
595.302	30438.96
595.499	30398
595.696	30129.72
595.892	30035.51
596.089	30103.09
596.286	30377.52
596.482	30275.12
596.679	30375.47
596.876	30119.48
597.072	29808.19
597.269	29482.56
597.466	29693.5
597.662	29574.72
597.859	29705.79
598.055	29681.21
598.252	28997.19
598.448	29320.77
598.645	29224.51
598.841	29083.2
599.038	28792.39
599.234	28874.31
599.431	28626.51
599.627	28739.15
599.824	28812.87
600.02	28427.85
600.217	29038.15
600.413	28345.94
600.609	28149.33
600.806	28212.82
601.002	28333.65
601.198	28171.86
601.395	28261.97
601.591	28069.46
601.787	27928.15
601.984	27835.99
602.18	27958.87
602.376	27266.66
602.572	27598.43
602.769	27747.93
602.965	27205.22
603.161	27453.02
603.357	27094.63
603.553	27358.81
603.75	27106.91
603.946	27004.52
604.142	27033.19
604.338	26852.97
604.534	26760.81
604.73	26414.7
604.926	26687.08
605.122	26672.74
605.318	26699.37
605.514	26400.37
605.71	26170.99
605.906	26349.17
606.102	26590.83
606.298	26277.49
606.494	26033.78
606.69	26216.05
606.886	26195.57
607.082	25841.27
607.278	26248.82
607.474	25564.79
607.67	25923.19
607.866	25409.15
608.062	26021.49
608.257	25677.43
608.453	25802.36
608.649	25710.2
608.845	25296.51
609.041	25421.44
609.236	25386.62
609.432	25273.98
609.628	25108.1
609.824	25280.13
610.019	25044.61
610.215	25300.61
610.411	25243.26
610.606	24977.03
610.802	25267.84
610.998	25011.84
611.193	24942.21
611.389	24839.81
611.584	24710.79
611.78	24702.6
611.976	24985.22
612.171	24655.5
612.367	24753.8
612.562	24460.94
612.758	24422.03
612.953	24549
613.149	24753.8
613.344	24426.12
613.539	24665.74
613.735	24510.09
613.93	24721.03
614.126	24467.08
614.321	24696.46
614.517	24157.84
614.712	24434.32
614.907	24043.15
615.103	24215.18
615.298	23803.54
615.493	24393.36
615.688	24188.56
615.884	24653.45
616.079	24028.82
616.274	23961.23
616.47	23963.28
616.665	24252.05
616.86	23760.53
617.055	23948.95
617.25	23707.29
617.445	23914.13
617.641	23494.3
617.836	23692.95
618.031	23600.79
618.226	23680.66
618.421	23301.79
618.616	23600.79
618.811	23369.37
619.006	23590.55
619.201	23031.46
619.396	22996.64
619.591	22841
619.786	23021.22
619.981	22734.5
620.176	22785.7
620.371	22417.07
620.566	22400.68
620.761	22353.58
620.956	22501.03
621.151	22488.74
621.346	22331.05
621.541	22113.97
621.735	22304.43
621.93	21952.18
622.125	21761.72
622.32	21268.16
622.515	22025.9
622.709	21407.42
622.904	21497.53
623.099	21102.27
623.294	21311.16
623.488	20958.91
623.683	20991.68
623.878	20711.11
624.072	21081.79
624.267	20543.17
624.462	20551.37
624.656	20532.93
624.851	20702.92
625.046	20254.41
625.24	20004.56
625.435	20086.48
625.629	20049.61
625.824	19979.98
626.018	19883.73
626.213	19474.13
626.407	19670.74
626.602	19216.09
626.796	19656.4
626.991	19558.1
627.185	19195.61
627.38	19207.9
627.574	19037.92
627.768	18724.58
627.963	18788.07
628.157	18394.86
628.352	18601.7
628.546	18046.7
628.74	18487.01
628.935	18038.51
629.129	18429.67
629.323	17964.78
629.517	18138.86
629.712	17798.9
629.906	17966.83
630.1	17405.69
630.294	17815.28
630.489	17387.25
630.683	17549.04
630.877	17141.5
631.071	17250.04
631.265	17280.76
631.459	17075.96
631.653	17051.39
631.848	17108.73
632.042	16711.42
632.236	16873.21
632.43	16668.42
632.624	16893.69
632.818	16555.78
633.012	16520.96
633.206	16332.55
633.4	16172.81
633.594	15974.16
633.788	16097.03
633.982	16221.96
634.176	15888.14
634.369	15503.12
634.563	15834.89
634.757	15677.2
634.951	15654.67
635.145	15746.83
635.339	15558.42
635.533	15169.3
635.726	15318.81
635.92	15044.38
636.114	15263.51
636.308	15212.31
636.501	14911.26
636.695	14974.75
636.889	14741.28
637.083	14829.34
637.276	14759.71
637.47	14735.14
637.664	14634.78
637.857	14892.83
638.051	14616.35
638.244	14176.04
638.438	14200.62
638.632	14202.66
638.825	14233.38
639.019	14096.17
639.212	14110.5
639.406	14194.47
639.599	13991.72
639.793	14071.59
639.986	13504.31
640.18	13604.66
640.373	13612.85
640.567	13193.01
640.76	13676.34
640.954	13104.95
641.147	13127.48
641.34	13227.83
641.534	13473.59
641.727	13127.48
641.92	13297.46
642.114	12834.62
642.307	13043.51
642.5	13190.97
642.694	12758.85
642.887	12760.89
643.08	13025.08
643.273	12642.11
643.467	12646.21
643.66	12478.27
643.853	12435.27
644.046	12332.87
644.239	12351.3
644.432	12332.87
644.626	11935.56
644.819	12187.46
645.012	11822.92
645.205	11980.62
645.398	12146.5
645.591	11999.05
645.784	11929.42
645.977	11816.78
646.17	11712.33
646.363	11558.74
646.556	11650.89
646.749	11464.53
646.942	11499.34
647.135	11611.98
647.328	11624.27
647.521	11261.78
647.714	11134.81
647.907	11349.84
648.099	11001.69
648.292	11251.54
648.485	11003.74
648.678	10708.83
648.871	11059.03
649.064	10678.11
649.256	10999.64
649.449	10717.02
649.642	10501.98
649.835	10567.52
650.027	10843.99
650.22	10667.87
650.413	10506.08
650.605	10387.3
650.798	10514.27
650.991	10245.99
651.183	10311.52
651.376	10073.96
651.568	10231.65
651.761	10037.09
651.954	10114.92
652.146	9830.25
652.339	9944.94
652.531	9973.61
652.724	9721.71
652.916	9791.34
653.109	9879.4
653.301	9834.35
653.494	9637.74
653.686	9496.43
653.879	9592.69
654.071	9678.7
654.263	9508.72
654.456	9488.24
654.648	9568.11
654.84	9303.92
655.033	9174.9
655.225	9103.22
655.417	9090.93
655.61	9252.72
655.802	9138.04
655.994	9170.8
656.186	9205.62
656.379	8978.3
656.571	8945.53
656.763	8810.36
656.955	8884.09
657.148	8810.36
657.34	8787.83
657.532	8669.05
657.724	8613.76
657.916	8611.71
658.108	8722.3
658.3	8615.8
658.492	8521.6
658.684	8392.58
658.876	8425.34
659.068	8384.38
659.26	8370.05
659.452	8363.9
659.644	8253.31
659.836	8267.65
660.028	8220.55
660.22	7966.6
660.412	8083.33
660.604	8011.65
660.796	7876.49
660.988	7948.17
661.18	7792.52
661.372	7757.71
661.563	7958.41
661.755	7679.88
661.947	7606.16
662.139	7481.23
662.331	7868.3
662.522	7708.55
662.714	7534.48
662.906	7530.38
663.097	7540.62
663.289	7538.57
663.481	7561.1
663.673	7557
663.864	7282.58
664.056	7389.07
664.247	7184.27
664.439	7219.09
664.631	7339.92
664.822	7251.86
665.014	7262.1
665.205	7077.78
665.397	7061.4
665.588	7221.14
665.78	6907.8
665.971	7028.63
666.163	7155.6
666.354	6997.91
666.546	7063.44
666.737	6735.77
666.929	6850.46
667.12	6989.72
667.311	6686.62
667.503	6567.84
667.694	6811.54
667.885	6666.14
668.077	6672.28
668.268	6606.75
668.459	6528.92
668.651	6596.51
668.842	6516.64
669.033	6326.18
669.224	6440.86
669.416	6498.2
669.607	6363.04
669.798	6436.77
669.989	6473.63
670.18	6238.11
670.371	6231.97
670.563	6291.36
670.754	6227.87
670.945	6119.33
671.136	6201.25
671.327	6029.22
671.518	6104.99
671.709	6072.23
671.9	6066.08
672.091	5965.73
672.282	6018.98
672.473	5928.87
672.664	5998.5
672.855	5898.15
673.046	5853.09
673.237	5971.88
673.428	5982.12
673.619	5795.75
673.809	5771.18
674	5822.38
674.191	5738.41
674.382	5699.5
674.573	5584.81
674.764	5644.2
674.954	5654.44
675.145	5547.95
675.336	5693.35
675.527	5545.9
675.717	5611.43
675.908	5533.61
676.099	5529.52
676.289	5451.69
676.48	5496.75
676.671	5341.1
676.861	5480.36
677.052	5337.01
677.243	5298.1
677.433	5195.7
677.624	5324.72
677.814	5205.94
678.005	5298.1
678.195	5253.04
678.386	5240.75
678.576	5273.52
678.767	5275.57
678.957	5173.17
679.148	5183.41
679.338	5107.63
679.529	5162.93
679.719	5121.97
679.909	5244.85
680.1	5103.54
680.29	5199.79
680.481	5019.57
680.671	4984.76
680.861	4974.52
681.052	5058.48
681.242	4904.89
681.432	4976.56
681.622	4908.98
681.813	4947.89
682.003	4882.36
682.193	4845.49
682.383	4976.56
682.573	4888.5
682.764	4851.64
682.954	4888.5
683.144	4935.6
683.334	4927.41
683.524	4841.4
683.714	4687.8
683.904	4552.63
684.094	4683.7
684.284	4603.83
684.474	4693.94
684.664	4822.97
684.854	4663.22
685.044	4558.78
685.234	4616.12
685.424	4636.6
685.614	4591.55
685.804	4595.64
685.994	4419.52
686.184	4571.07
686.374	4657.08
686.564	4663.22
686.753	4495.29
686.943	4370.37
687.133	4495.29
687.323	4423.61
687.513	4392.89
687.702	4227.01
687.892	4380.61
688.082	4392.89
688.272	4399.04
688.461	4251.58
688.651	4396.99
688.841	4294.59
689.03	4155.33
689.22	4253.63
689.41	4247.49
689.599	4136.9
689.789	3995.59
689.979	4184
690.168	4179.9
690.358	4186.05
690.547	4024.26
690.737	4151.23
690.926	3993.54
691.116	3960.77
691.305	4014.02
691.495	3915.72
691.684	4036.55
691.874	3880.9
692.063	3942.34
692.252	3913.67
692.442	3850.18
692.631	3919.81
692.82	3837.89
693.01	3735.49
693.199	3839.94
693.388	3829.7
693.578	3866.56
693.767	3733.45
693.956	3684.3
694.146	3753.93
694.335	3690.44
694.524	3594.19
694.713	3723.21
694.902	3731.4
695.092	3680.2
695.281	3598.28
695.47	3647.43
695.659	3618.76
695.848	3551.18
696.037	3569.61
696.226	3637.19
696.415	3481.55
696.604	3565.51
696.793	3545.03
696.982	3495.88
697.171	3469.26
697.36	3454.92
697.549	3381.2
697.738	3217.36
697.927	3499.98
698.116	3401.68
698.305	3350.48
698.494	3399.63
698.683	3348.43
698.872	3524.55
699.061	3309.52
699.25	3403.72
699.438	3362.76
699.627	3358.67
699.816	3342.28
700.005	3510.22
700.193	3317.71
700.382	3254.22
700.571	3297.23
700.76	3340.24
700.948	3301.33
701.137	3424.2
701.326	3301.33
701.514	3250.13
701.703	3239.89
701.892	3262.41
702.08	3307.47
702.269	3274.7
702.457	3303.37
702.646	3200.98
702.834	3225.55
703.023	3117.01
703.212	3112.91
703.4	3149.78
703.589	3215.31
703.777	3246.03
703.965	3149.78
704.154	3203.02
704.342	3061.71
704.531	3151.82
704.719	3194.83
704.907	3219.41
705.096	3047.38
705.284	3147.73
705.472	3176.4
705.661	3184.59
705.849	3155.92
706.037	3080.14
706.226	3114.96
706.414	3086.29
706.602	3082.19
706.79	3098.58
706.979	3080.14
707.167	3112.91
707.355	3078.1
707.543	3164.11
707.731	3143.63
707.919	3041.23
708.107	3030.99
708.296	3018.71
708.484	3022.8
708.672	3080.14
708.86	3006.42
709.048	3065.81
709.236	2928.6
709.424	3063.76
709.612	2951.12
709.8	3053.52
709.988	2955.22
710.176	2994.13
710.364	3057.62
710.551	2977.75
710.739	2977.75
710.927	3045.33
711.115	2908.12
711.303	2955.22
711.491	3024.85
711.679	3008.47
711.866	3030.99
712.054	3028.95
712.242	2957.27
712.43	2971.6
712.617	2975.7
712.805	2979.79
712.993	2785.24
713.181	2826.2
713.368	2910.16
713.556	3018.71
713.744	2785.24
713.931	2858.96
714.119	2904.02
714.306	2781.14
714.494	2979.79
714.682	2916.31
714.869	2934.74
715.057	2881.49
715.244	2867.16
715.432	2940.88
715.619	2899.92
715.807	2887.64
715.994	2953.17
716.182	2916.31
716.369	2906.07
716.556	2992.08
716.744	2912.21
716.931	2932.69
717.119	2801.62
717.306	2848.72
717.493	2762.71
717.681	2863.06
717.868	2795.48
718.055	2944.98
718.242	2844.63
718.43	2930.64
718.617	2820.05
718.804	2779.09
718.991	2758.61
719.179	2838.48
719.366	2949.07
719.553	2848.72
719.74	2844.63
719.927	2691.03
720.114	2758.61
720.301	2887.64
720.488	2865.11
720.676	3006.42
720.863	2750.42
721.05	2846.68
721.237	2840.53
721.424	2811.86
721.611	2858.96
721.798	2713.56
721.985	2873.3
722.172	2682.84
722.358	2840.53
722.545	2750.42
722.732	2715.61
722.919	2811.86
723.106	2830.29
723.293	2879.44
723.48	2779.09
723.667	2766.81
723.853	2738.13
724.04	2940.88
724.227	2662.36
724.414	2709.46
724.6	2760.66
724.787	2627.54
724.974	2752.47
725.161	2623.45
725.347	2584.54
725.534	2695.13
725.72	2777.05
725.907	2723.8
726.094	2725.85
726.28	2693.08
726.467	2764.76
726.653	2713.56
726.84	2686.93
727.027	2791.38
727.213	2688.98
727.4	2772.95
727.586	2607.06
727.773	2682.84
727.959	2729.94
728.145	2770.9
728.332	2678.74
728.518	2691.03
728.705	2705.37
728.891	2738.13
729.077	2576.34
729.264	2713.56
729.45	2697.17
729.636	2701.27
729.823	2680.79
730.009	2650.07
730.195	2686.93
730.382	2748.37
730.568	2633.69
730.754	2772.95
730.94	2680.79
731.126	2637.78
731.313	2797.53
731.499	2772.95
731.685	2709.46
731.871	2742.23
732.057	2734.04
732.243	2617.3
732.429	2676.7
732.615	2625.5
732.801	2611.16
732.987	2678.74
733.173	2637.78
733.359	2711.51
733.545	2658.26
733.731	2527.19
733.917	2645.98
734.103	2600.92
734.289	2609.11
734.475	2658.26
734.661	2611.16
734.847	2625.5
735.033	2670.55
735.219	2584.54
735.404	2621.4
735.59	2598.87
735.776	2660.31
735.962	2652.12
736.148	2574.3
736.333	2633.69
736.519	2668.5
736.705	2508.76
736.89	2613.21
737.076	2600.92
737.262	2521.05
737.447	2547.67
737.633	2480.09
737.819	2553.82
738.004	2519
738.19	2463.71
738.375	2529.24
738.561	2461.66
738.747	2396.12
738.932	2512.86
739.118	2555.86
739.303	2445.27
739.489	2568.15
739.674	2426.84
739.859	2430.94
740.045	2455.51
740.23	2371.55
740.416	2377.69
740.601	2494.43
740.786	2426.84
740.972	2465.75
741.157	2385.88
741.342	2353.12
741.528	2473.95
741.713	2193.37
741.898	2379.74
742.084	2422.75
742.269	2367.45
742.454	2367.45
742.639	2357.21
742.824	2349.02
743.01	2392.03
743.195	2404.32
743.38	2242.53
743.565	2258.91
743.75	2355.16
743.935	2351.07
744.12	2338.78
744.305	2273.25
744.49	2250.72
744.675	2330.59
744.86	2256.86
745.045	2238.43
745.23	2185.18
745.415	2199.52
745.6	2168.8
745.785	2144.22
745.97	2105.31
746.155	2131.94
746.34	2133.98
746.525	2078.69
746.71	2068.45
746.895	2195.42
747.079	2170.85
747.264	2226.14
747.449	2039.78
747.634	1996.77
747.819	2041.82
748.003	2023.39
748.188	1945.57
748.373	2031.58
748.557	1980.39
748.742	2070.5
748.927	1851.36
749.111	2064.35
749.296	1947.62
749.481	1906.66
749.665	1839.08
749.85	1859.56
750.034	2002.91
750.219	1923.04
750.404	1947.62
750.588	1880.04
750.773	1804.26
750.957	1857.51
751.141	1857.51
751.326	1900.51
751.51	1695.72
751.695	1863.65
751.879	1765.35
752.064	1826.79
752.248	1867.75
752.432	1816.55
752.617	1824.74
752.801	1669.09
752.985	1773.54
753.17	1673.19
753.354	1681.38
753.538	1646.57
753.722	1587.18
753.907	1644.52
754.091	1673.19
754.275	1667.05
754.459	1710.05
754.643	1603.56
754.828	1634.28
755.012	1755.11
755.196	1560.55
755.38	1595.37
755.564	1492.97
755.748	1529.83
755.932	1560.55
756.116	1613.8
756.3	1581.03
756.484	1675.24
756.668	1527.78
756.852	1427.43
757.036	1478.63
757.22	1423.34
757.404	1550.31
757.588	1533.93
757.772	1470.44
757.956	1452.01
758.14	1382.38
758.323	1382.38
758.507	1347.56
758.691	1363.95
758.875	1339.37
759.059	1380.33
759.242	1310.7
759.426	1423.34
759.61	1243.12
759.794	1277.93
759.977	1316.84
760.161	1423.34
760.345	1308.65
760.528	1386.47
760.712	1247.21
760.895	1245.16
761.079	1292.27
761.263	1218.54
761.446	1263.6
761.63	1269.74
761.813	1320.94
761.997	1310.7
762.18	1310.7
762.364	1300.46
762.547	1128.43
762.731	1253.36
762.914	1241.07
763.098	1236.97
763.281	1128.43
763.464	1189.87
763.648	1089.52
763.831	1279.98
764.015	1146.86
764.198	1085.42
764.381	1200.11
764.564	1193.97
764.748	1064.94
764.931	1187.82
765.114	1200.11
765.297	1138.67
765.481	1218.54
765.664	1122.29
765.847	1173.49
766.03	1103.86
766.213	1048.56
766.397	1206.25
766.58	978.93
766.763	1210.35
766.946	1052.66
767.129	1064.94
767.312	1056.75
767.495	1097.71
767.678	1038.32
767.861	1097.71
768.044	989.17
768.227	1050.61
768.41	991.22
768.593	1103.86
768.776	1089.52
768.959	1030.13
769.142	1066.99
769.324	1040.37
769.507	1036.27
769.69	1005.55
769.873	909.3
770.056	1001.46
770.239	1030.13
770.421	997.36
770.604	1083.38
770.787	1003.5
770.97	1042.42
771.152	950.26
771.335	989.17
771.518	903.15
771.7	974.83
771.883	1003.5
772.066	974.83
772.248	849.91
772.431	833.52
772.613	991.22
772.796	923.63
772.978	907.25
773.161	940.02
773.343	956.4
773.526	983.02
773.708	911.35
773.891	890.87
774.073	847.86
774.256	854
774.438	923.63
774.621	851.95
774.803	856.05
774.985	755.7
775.168	866.29
775.35	860.15
775.532	827.38
775.715	929.78
775.897	878.58
776.079	864.24
776.261	796.66
776.444	798.71
776.626	790.52
776.808	794.61
776.99	829.43
777.173	720.88
777.355	755.7
777.537	770.04
777.719	727.03
777.901	806.9
778.083	739.32
778.265	729.08
778.447	800.76
778.629	698.36
778.811	792.56
778.993	718.84
779.175	780.28
779.357	714.74
779.539	671.73
779.721	681.97
779.903	675.83
780.085	659.45
780.267	767.99
780.449	714.74
780.631	641.01
780.812	667.64
780.994	751.6
781.176	708.6
781.358	634.87
781.54	620.53
781.721	636.92
781.903	643.06
782.085	608.25
782.267	595.96
782.448	606.2
782.63	649.21
782.812	669.69
782.993	643.06
783.175	704.5
783.357	567.29
783.538	579.58
783.72	622.58
783.901	579.58
784.083	561.14
784.264	581.62
784.446	565.24
784.627	595.96
784.809	530.42
784.99	526.33
785.172	522.23
785.353	497.66
785.535	575.48
785.716	514.04
785.897	585.72
786.079	544.76
786.26	569.34
786.441	600.05
786.623	471.03
786.804	520.18
786.985	436.22
787.167	530.42
787.348	446.46
787.529	477.18
787.71	446.46
787.891	536.57
788.073	430.07
788.254	438.27
788.435	522.23
788.616	579.58
788.797	487.42
788.978	391.16
789.159	563.19
789.34	471.03
789.522	372.73
789.703	399.35
789.884	487.42
790.065	466.94
790.246	534.52
790.427	374.78
790.607	382.97
790.788	456.7
790.969	405.5
791.15	382.97
791.331	364.54
791.512	356.35
791.693	321.53
791.874	444.41
792.054	419.83
792.235	462.84
792.416	421.88
792.597	337.91
792.778	378.87
792.958	425.98
793.139	458.74
793.32	454.65
793.5	397.31
793.681	335.87
793.862	389.11
794.042	376.83
794.223	352.25
794.404	370.68
794.584	315.39
794.765	321.53
794.945	313.34
795.126	401.4
795.306	391.16
795.487	305.15
795.667	280.57
795.848	393.21
796.028	315.39
796.209	356.35
796.389	344.06
796.57	360.44
796.75	280.57
796.93	294.91
797.111	258.04
797.291	227.32
797.471	305.15
797.652	317.44
797.832	284.67
798.012	262.14
798.192	323.58
798.373	319.48
798.553	372.73
798.733	339.96
798.913	249.85
799.093	264.19
799.274	327.67
799.454	317.44
799.634	200.7
799.814	290.81
799.994	210.94
800.174	309.24
800.354	331.77
800.534	286.72
800.714	305.15
800.894	256
801.074	229.37
801.254	237.56
801.434	270.33
801.614	296.96
801.794	202.75
801.974	667.64
802.154	192.51
802.334	288.76
802.514	286.72
802.693	280.57
802.873	268.28
803.053	311.29
803.233	237.56
803.413	268.28
803.592	204.8
803.772	243.71
803.952	247.8
804.131	194.56
804.311	188.41
804.491	272.38
804.67	241.66
804.85	221.18
805.03	243.71
805.209	270.33
805.389	309.24
805.568	227.32
805.748	294.91
805.928	239.61
806.107	276.48
806.287	301.05
806.466	274.43
806.646	229.37
806.825	268.28
807.004	241.66
807.184	225.28
807.363	294.91
807.543	221.18
807.722	217.08
807.901	292.86
808.081	241.66
808.26	227.32
808.439	192.51
808.619	192.51
808.798	153.6
808.977	229.37
809.156	309.24
809.336	317.44
809.515	120.83
809.694	169.98
809.873	182.27
810.052	120.83
810.231	126.97
810.411	212.99
810.59	233.47
810.769	217.08
810.948	217.08
811.127	204.8
811.306	178.17
811.485	286.72
811.664	258.04
811.843	233.47
812.022	262.14
812.201	204.8
812.38	157.69
812.559	157.69
812.737	124.93
812.916	108.54
813.095	167.93
813.274	120.83
813.453	129.02
813.632	190.46
813.811	172.03
813.989	210.94
814.168	233.47
814.347	192.51
814.526	139.26
814.704	200.7
814.883	178.17
815.062	145.41
815.24	260.09
815.419	145.41
815.598	221.18
815.776	135.17
815.955	210.94
816.133	167.93
816.312	149.5
816.49	129.02
816.669	135.17
816.847	141.31
817.026	266.24
817.204	165.89
817.383	172.03
817.561	169.98
817.74	178.17
817.918	120.83
818.097	139.26
818.275	151.55
818.453	172.03
818.632	153.6
818.81	143.36
818.988	135.17
819.167	92.16
819.345	180.22
819.523	73.73
819.701	163.84
819.879	165.89
820.058	190.46
820.236	133.12
820.414	161.79
820.592	81.92
820.77	192.51
820.948	98.3
821.127	198.65
821.305	71.68
821.483	139.26
821.661	129.02
821.839	167.93
822.017	108.54
822.195	206.84
822.373	137.21
822.551	149.5
822.729	182.27
822.907	108.54
823.085	124.93
823.262	169.98
823.44	157.69
823.618	147.45
823.796	36.86
823.974	83.97
824.152	135.17
824.329	63.49
824.507	145.41
824.685	90.11
824.863	153.6
825.04	83.97
825.218	200.7
825.396	131.07
825.574	194.56
825.751	126.97
825.929	178.17
826.107	161.79
826.284	131.07
826.462	65.53
826.639	34.82
826.817	137.21
826.994	153.6
827.172	45.06
827.349	200.7
827.527	63.49
827.704	129.02
827.882	73.73
828.059	69.63
828.237	114.69
828.414	137.21
828.591	120.83
828.769	16.38
828.946	124.93
829.124	88.06
829.301	59.39
829.478	147.45
829.655	73.73
829.833	118.78
830.01	122.88
830.187	88.06
830.364	159.74
830.542	59.39
830.719	51.2
830.896	100.35
831.073	118.78
831.25	124.93
831.427	30.72
831.604	147.45
831.782	28.67
831.959	86.01
832.136	59.39
832.313	65.53
832.49	26.62
832.667	147.45
832.844	92.16
833.021	112.64
833.198	110.59
833.374	108.54
833.551	61.44
833.728	73.73
833.905	126.97
834.082	-6.14
834.259	116.73
834.436	102.4
834.612	40.96
834.789	104.45
834.966	81.92
835.143	69.63
835.319	49.15
835.496	96.25
835.673	151.55
835.85	90.11
836.026	38.91
836.203	90.11
836.38	100.35
836.556	59.39
836.733	88.06
836.909	169.98
837.086	90.11
837.262	96.25
837.439	20.48
837.616	106.49
837.792	108.54
837.968	32.77
838.145	26.62
838.321	69.63
838.498	112.64
838.674	90.11
838.851	30.72
839.027	81.92
839.203	49.15
839.38	118.78
839.556	75.77
839.732	57.34
839.909	0
840.085	67.58
840.261	59.39
840.437	30.72
840.614	59.39
840.79	49.15
840.966	49.15
841.142	34.82
841.318	77.82
841.494	108.54
841.671	32.77
841.847	38.91
842.023	102.4
842.199	88.06
842.375	131.07
842.551	40.96
842.727	40.96
842.903	59.39
843.079	24.58
843.255	73.73
843.431	32.77
843.607	94.21
843.783	4.1
843.959	114.69
844.134	61.44
844.31	79.87
844.486	100.35
844.662	22.53
844.838	100.35
845.013	65.53
845.189	28.67
845.365	32.77
845.541	61.44
845.716	8.19
845.892	47.1
846.068	32.77
846.244	59.39
846.419	28.67
846.595	71.68
846.77	81.92
846.946	67.58
847.122	-10.24
847.297	14.34
847.473	145.41
847.648	-2.05
847.824	112.64
847.999	34.82
848.175	38.91
848.35	38.91
848.526	6.14
848.701	8.19
848.876	36.86
849.052	49.15
849.227	100.35
849.403	59.39
849.578	49.15
849.753	24.58
849.929	6.14
850.104	-30.72
850.279	51.2
850.454	30.72
850.63	47.1
850.805	59.39
850.98	81.92
851.155	94.21
851.33	36.86
851.505	57.34
851.681	43.01
851.856	53.25
852.031	65.53
852.206	34.82
852.381	71.68
852.556	20.48
852.731	36.86
852.906	24.58
853.081	75.77
853.256	65.53
853.431	102.4
853.606	79.87
853.781	86.01
853.956	-10.24
854.131	4.1
854.305	43.01
854.48	34.82
854.655	92.16
854.83	-10.24
855.005	26.62
855.18	34.82
855.354	75.77
855.529	77.82
855.704	24.58
855.879	63.49
856.053	77.82
856.228	53.25
856.403	100.35
856.577	-22.53
856.752	51.2
856.926	30.72
857.101	53.25
857.276	73.73
857.45	55.3
857.625	137.21
857.799	55.3
857.974	28.67
858.148	-61.44
858.323	75.77
858.497	61.44
858.672	28.67
858.846	-2.05
859.02	67.58
859.195	32.77
859.369	14.34
859.543	32.77
859.718	69.63
859.892	124.93
860.066	-6.14
860.241	40.96
860.415	34.82
860.589	-38.91
860.763	10.24
860.938	-26.62
861.112	49.15
861.286	10.24
861.46	61.44
861.634	-53.25
861.808	81.92
861.982	86.01
862.157	43.01
862.331	-16.38
862.505	34.82
862.679	18.43
862.853	45.06
863.027	24.58
863.201	104.45
863.375	14.34
863.549	32.77
863.722	-4.1
863.896	59.39
864.07	4.1
864.244	71.68
864.418	-69.63
864.592	77.82
864.766	61.44
864.939	67.58
865.113	-10.24
865.287	73.73
865.461	26.62
865.634	-8.19
865.808	-4.1
865.982	47.1
866.156	38.91
866.329	-6.14
866.503	71.68
866.676	65.53
866.85	20.48
867.024	75.77
867.197	36.86
867.371	86.01
867.544	94.21
867.718	-12.29
867.891	92.16
868.065	79.87
868.238	47.1
868.412	73.73
868.585	10.24
868.759	55.3
868.932	-12.29
869.105	16.38
869.279	65.53
869.452	-47.1
869.625	14.34
869.799	26.62
869.972	47.1
870.145	-59.39
870.319	47.1
870.492	53.25
870.665	-18.43
870.838	67.58
871.011	59.39
871.185	24.58
871.358	20.48
871.531	81.92
871.704	-16.38
871.877	67.58
872.05	14.34
872.223	34.82
872.396	51.2
872.569	63.49
872.742	32.77
872.915	45.06
873.088	86.01
873.261	-36.86
873.434	0
873.607	2.05
873.78	28.67
873.953	-28.67
874.126	-14.34
874.299	43.01
874.471	16.38
874.644	14.34
874.817	-43.01
874.99	12.29
875.163	67.58
875.335	2.05
875.508	28.67
875.681	14.34
875.853	-14.34
876.026	51.2
876.199	-6.14
876.371	83.97
876.544	-26.62
876.717	26.62
876.889	-12.29
877.062	57.34
877.234	-26.62
877.407	-75.77
877.579	-8.19
877.752	6.14
877.924	22.53
878.097	110.59
878.269	30.72
878.442	38.91
878.614	24.58
878.786	30.72
878.959	30.72
879.131	32.77
879.303	-36.86
879.476	55.3
879.648	55.3
879.82	0
879.993	-34.82
880.165	-57.34
880.337	-28.67
880.509	30.72
880.681	-49.15
880.854	-18.43
881.026	34.82
881.198	59.39
881.37	-34.82
881.542	16.38
881.714	-2.05
881.886	26.62
882.058	47.1
882.23	40.96
882.402	-28.67
882.574	-65.54
882.746	22.53
882.918	20.48
883.09	26.62
883.262	12.29
883.434	-61.44
883.606	14.34
883.778	49.15
883.95	38.91
884.122	16.38
884.293	49.15
884.465	16.38
884.637	77.82
884.809	36.86
884.98	-8.19
885.152	8.19
885.324	22.53
885.496	18.43
885.667	-34.82
885.839	69.63
886.011	47.1
886.182	24.58
886.354	22.53
886.525	12.29
886.697	-45.06
886.869	49.15
887.04	36.86
887.212	22.53
887.383	57.34
887.555	49.15
887.726	-34.82
887.897	-6.14
888.069	77.82
888.24	-12.29
888.412	30.72
888.583	20.48
888.754	26.62
888.926	-43.01
889.097	38.91
889.268	-59.39
889.44	-6.14
889.611	8.19
889.782	38.91
889.953	10.24
890.125	57.34
890.296	-83.97
890.467	4.1
890.638	26.62
890.809	-6.14
890.98	0
891.151	8.19
891.323	67.58
891.494	32.77
891.665	12.29
891.836	65.53
892.007	114.69
892.178	75.77
892.349	67.58
892.52	-8.19
892.691	30.72
892.862	30.72
893.032	40.96
893.203	-69.63
893.374	45.06
893.545	53.25
893.716	4.1
893.887	45.06
894.057	-34.82
894.228	61.44
894.399	92.16
894.57	22.53
894.74	55.3
894.911	-10.24
895.082	8.19
895.253	36.86
895.423	-22.53
895.594	57.34
895.764	24.58
895.935	63.49
896.106	20.48
896.276	-16.38
896.447	34.82
896.617	45.06
896.788	47.1
896.958	-4.1
897.129	18.43
897.299	2.05
897.47	57.34
897.64	100.35
897.81	-14.34
897.981	0
898.151	-100.35
898.322	69.63
898.492	-83.97
898.662	0
898.832	59.39
899.003	16.38
899.173	47.1
899.343	-14.34
899.513	38.91
