Data from USB4F104151__56__12-27-35-273.txt Node

Date: Fri Mar 14 12:27:35 EDT 2025
User: louis
Spectrometer: USB4F10415
Trigger mode: 4
Integration Time (sec): 2.000000E-2
Scans to average: 1
Electric dark correction enabled: true
Nonlinearity correction enabled: false
Boxcar width: 0
XAxis mode: Wavelengths
Number of Pixels in Spectrum: 3648
>>>>>Begin Spectral Data<<<<<
178.204	-45.57
178.424	-45.57
178.644	-45.57
178.864	-70.14
179.084	-104.96
179.304	-16.9
179.524	13.82
179.744	-10.75
179.964	-12.8
180.184	-20.99
180.404	-10.75
180.624	36.35
180.844	11.78
181.064	3.58
181.283	-12.8
181.503	-23.04
181.723	42.5
181.943	-12.8
182.163	34.3
182.383	73.21
182.602	110.08
182.822	54.78
183.042	48.64
183.262	11.78
183.482	26.11
183.701	42.5
183.921	124.41
184.141	-31.23
184.361	40.45
184.58	67.07
184.8	40.45
185.02	-14.85
185.239	85.5
185.459	36.35
185.679	-31.23
185.898	-12.8
186.118	44.54
186.338	-12.8
186.557	48.64
186.777	-14.85
186.997	56.83
187.216	11.78
187.436	60.93
187.655	-14.85
187.875	34.3
188.095	-25.09
188.314	17.92
188.534	42.5
188.753	44.54
188.973	5.63
189.192	73.21
189.412	-2.56
189.631	15.87
189.851	19.97
190.07	67.07
190.29	-16.9
190.509	52.74
190.729	44.54
190.948	-16.9
191.168	118.27
191.387	65.02
191.607	75.26
191.826	42.5
192.045	52.74
192.265	-6.66
192.484	50.69
192.704	60.93
192.923	-6.66
193.142	95.74
193.362	44.54
193.581	83.45
193.8	75.26
194.02	30.21
194.239	52.74
194.458	26.11
194.678	85.5
194.897	52.74
195.116	7.68
195.335	5.63
195.555	36.35
195.774	28.16
195.993	-16.9
196.212	19.97
196.432	30.21
196.651	50.69
196.87	11.78
197.089	69.12
197.308	24.06
197.528	30.21
197.747	9.73
197.966	-23.04
198.185	77.31
198.404	-70.14
198.623	13.82
198.842	97.79
199.062	-0.51
199.281	28.16
199.5	26.11
199.719	71.17
199.938	19.97
200.157	77.31
200.376	79.36
200.595	28.16
200.814	75.26
201.033	15.87
201.252	-29.18
201.471	28.16
201.69	71.17
201.909	11.78
202.128	71.17
202.347	-20.99
202.566	38.4
202.785	-33.28
203.004	-4.61
203.223	34.3
203.442	26.11
203.661	65.02
203.879	-20.99
204.098	81.41
204.317	15.87
204.536	167.42
204.755	34.3
204.974	46.59
205.193	81.41
205.411	93.69
205.63	-2.56
205.849	32.26
206.068	44.54
206.287	-8.7
206.505	83.45
206.724	75.26
206.943	9.73
207.162	-4.61
207.381	-0.51
207.599	52.74
207.818	5.63
208.037	38.4
208.255	46.59
208.474	30.21
208.693	-2.56
208.911	32.26
209.13	34.3
209.349	81.41
209.567	5.63
209.786	69.12
210.005	58.88
210.223	-12.8
210.442	-18.94
210.661	81.41
210.879	5.63
211.098	60.93
211.316	60.93
211.535	71.17
211.753	11.78
211.972	7.68
212.191	52.74
212.409	69.12
212.628	67.07
212.846	50.69
213.065	7.68
213.283	42.5
213.502	-20.99
213.72	-0.51
213.938	34.3
214.157	-10.75
214.375	1.54
214.594	1.54
214.812	44.54
215.031	48.64
215.249	60.93
215.467	40.45
215.686	22.02
215.904	62.98
216.122	95.74
216.341	5.63
216.559	36.35
216.778	65.02
216.996	28.16
217.214	19.97
217.432	-6.66
217.651	15.87
217.869	81.41
218.087	-4.61
218.306	73.21
218.524	28.16
218.742	77.31
218.96	81.41
219.179	-51.71
219.397	24.06
219.615	130.56
219.833	91.65
220.051	-35.33
220.27	17.92
220.488	-2.56
220.706	71.17
220.924	81.41
221.142	69.12
221.36	40.45
221.578	75.26
221.796	81.41
222.015	42.5
222.233	-10.75
222.451	17.92
222.669	-2.56
222.887	81.41
223.105	-47.62
223.323	22.02
223.541	-14.85
223.759	52.74
223.977	11.78
224.195	5.63
224.413	56.83
224.631	32.26
224.849	54.78
225.067	13.82
225.285	48.64
225.503	42.5
225.721	22.02
225.939	15.87
226.157	54.78
226.375	52.74
226.592	7.68
226.81	36.35
227.028	22.02
227.246	144.89
227.464	13.82
227.682	19.97
227.9	81.41
228.117	67.07
228.335	5.63
228.553	26.11
228.771	60.93
228.989	13.82
229.206	54.78
229.424	81.41
229.642	28.16
229.86	-45.57
230.077	-29.18
230.295	1.54
230.513	48.64
230.731	40.45
230.948	-2.56
231.166	-4.61
231.384	95.74
231.601	58.88
231.819	67.07
232.037	-2.56
232.254	13.82
232.472	54.78
232.689	26.11
232.907	56.83
233.125	5.63
233.342	7.68
233.56	-6.66
233.777	54.78
233.995	-0.51
234.213	28.16
234.43	73.21
234.648	71.17
234.865	24.06
235.083	-8.7
235.3	38.4
235.518	28.16
235.735	65.02
235.953	67.07
236.17	46.59
236.388	17.92
236.605	-14.85
236.822	108.03
237.04	28.16
237.257	46.59
237.475	32.26
237.692	34.3
237.909	62.98
238.127	69.12
238.344	1.54
238.562	-0.51
238.779	-18.94
238.996	22.02
239.214	42.5
239.431	77.31
239.648	5.63
239.865	50.69
240.083	65.02
240.3	-14.85
240.517	-0.51
240.735	15.87
240.952	161.28
241.169	34.3
241.386	48.64
241.603	22.02
241.821	19.97
242.038	44.54
242.255	105.98
242.472	17.92
242.689	62.98
242.907	62.98
243.124	32.26
243.341	44.54
243.558	1.54
243.775	11.78
243.992	56.83
244.209	93.69
244.426	85.5
244.643	99.84
244.86	38.4
245.078	67.07
245.295	75.26
245.512	48.64
245.729	-39.42
245.946	44.54
246.163	40.45
246.38	40.45
246.597	65.02
246.814	56.83
247.031	3.58
247.248	-29.18
247.464	15.87
247.681	91.65
247.898	40.45
248.115	-33.28
248.332	-10.75
248.549	54.78
248.766	38.4
248.983	79.36
249.2	-31.23
249.417	99.84
249.633	-12.8
249.85	81.41
250.067	54.78
250.284	9.73
250.501	48.64
250.717	42.5
250.934	71.17
251.151	42.5
251.368	-14.85
251.585	48.64
251.801	-47.62
252.018	44.54
252.235	-0.51
252.451	46.59
252.668	11.78
252.885	56.83
253.102	52.74
253.318	52.74
253.535	48.64
253.752	32.26
253.968	62.98
254.185	50.69
254.401	-0.51
254.618	40.45
254.835	75.26
255.051	48.64
255.268	67.07
255.484	-27.14
255.701	28.16
255.917	34.3
256.134	79.36
256.351	3.58
256.567	-0.51
256.784	122.37
257	26.11
257.217	48.64
257.433	44.54
257.65	75.26
257.866	-76.29
258.082	-20.99
258.299	26.11
258.515	83.45
258.732	3.58
258.948	30.21
259.165	69.12
259.381	15.87
259.597	-23.04
259.814	34.3
260.03	28.16
260.246	-45.57
260.463	26.11
260.679	95.74
260.895	30.21
261.112	71.17
261.328	-29.18
261.544	28.16
261.761	22.02
261.977	87.55
262.193	-4.61
262.409	46.59
262.626	13.82
262.842	24.06
263.058	42.5
263.274	71.17
263.49	48.64
263.707	91.65
263.923	52.74
264.139	97.79
264.355	50.69
264.571	52.74
264.787	36.35
265.004	69.12
265.22	32.26
265.436	-2.56
265.652	58.88
265.868	44.54
266.084	58.88
266.3	44.54
266.516	-12.8
266.732	95.74
266.948	1.54
267.164	42.5
267.38	-8.7
267.596	155.13
267.812	62.98
268.028	79.36
268.244	7.68
268.46	134.65
268.676	7.68
268.892	67.07
269.108	9.73
269.324	-25.09
269.54	58.88
269.756	116.22
269.972	50.69
270.188	58.88
270.403	50.69
270.619	81.41
270.835	-6.66
271.051	65.02
271.267	19.97
271.483	79.36
271.698	1.54
271.914	81.41
272.13	75.26
272.346	-27.14
272.562	60.93
272.777	54.78
272.993	50.69
273.209	54.78
273.425	40.45
273.64	30.21
273.856	19.97
274.072	46.59
274.287	54.78
274.503	44.54
274.719	77.31
274.934	9.73
275.15	-23.04
275.366	5.63
275.581	9.73
275.797	48.64
276.012	52.74
276.228	114.17
276.444	-2.56
276.659	38.4
276.875	15.87
277.09	71.17
277.306	-25.09
277.521	13.82
277.737	-14.85
277.952	50.69
278.168	15.87
278.383	3.58
278.599	91.65
278.814	71.17
279.03	-6.66
279.245	79.36
279.461	22.02
279.676	36.35
279.892	-12.8
280.107	108.03
280.322	40.45
280.538	9.73
280.753	-55.81
280.969	67.07
281.184	40.45
281.399	-0.51
281.615	7.68
281.83	-35.33
282.045	60.93
282.26	81.41
282.476	11.78
282.691	40.45
282.906	-10.75
283.122	5.63
283.337	-10.75
283.552	40.45
283.767	30.21
283.983	-12.8
284.198	36.35
284.413	69.12
284.628	42.5
284.843	34.3
285.058	75.26
285.274	40.45
285.489	-14.85
285.704	28.16
285.919	-37.38
286.134	-25.09
286.349	-20.99
286.564	73.21
286.779	69.12
286.995	62.98
287.21	56.83
287.425	77.31
287.64	-0.51
287.855	1.54
288.07	-25.09
288.285	22.02
288.5	52.74
288.715	62.98
288.93	54.78
289.145	32.26
289.36	101.89
289.575	65.02
289.79	83.45
290.004	9.73
290.219	32.26
290.434	5.63
290.649	30.21
290.864	38.4
291.079	13.82
291.294	5.63
291.509	-6.66
291.724	42.5
291.938	9.73
292.153	36.35
292.368	40.45
292.583	95.74
292.798	89.6
293.012	67.07
293.227	73.21
293.442	22.02
293.657	5.63
293.871	11.78
294.086	-2.56
294.301	79.36
294.516	118.27
294.73	79.36
294.945	7.68
295.16	24.06
295.374	24.06
295.589	17.92
295.804	28.16
296.018	-14.85
296.233	46.59
296.447	9.73
296.662	-6.66
296.877	171.52
297.091	67.07
297.306	71.17
297.52	-0.51
297.735	26.11
297.949	-35.33
298.164	44.54
298.378	17.92
298.593	3.58
298.807	34.3
299.022	42.5
299.236	19.97
299.451	58.88
299.665	38.4
299.88	38.4
300.094	46.59
300.309	71.17
300.523	17.92
300.737	26.11
300.952	56.83
301.166	77.31
301.381	24.06
301.595	15.87
301.809	46.59
302.024	71.17
302.238	26.11
302.452	97.79
302.667	42.5
302.881	110.08
303.095	24.06
303.309	38.4
303.524	-0.51
303.738	-49.66
303.952	-0.51
304.166	-12.8
304.381	5.63
304.595	50.69
304.809	-16.9
305.023	58.88
305.237	40.45
305.452	13.82
305.666	116.22
305.88	32.26
306.094	34.3
306.308	40.45
306.522	65.02
306.736	54.78
306.95	36.35
307.164	17.92
307.379	-2.56
307.593	83.45
307.807	46.59
308.021	28.16
308.235	15.87
308.449	22.02
308.663	42.5
308.877	85.5
309.091	-47.62
309.305	48.64
309.519	7.68
309.733	73.21
309.947	-20.99
310.161	38.4
310.374	56.83
310.588	5.63
310.802	-39.42
311.016	73.21
311.23	-55.81
311.444	-6.66
311.658	-4.61
311.872	97.79
312.085	48.64
312.299	-6.66
312.513	83.45
312.727	-0.51
312.941	13.82
313.154	30.21
313.368	36.35
313.582	48.64
313.796	46.59
314.009	40.45
314.223	30.21
314.437	19.97
314.651	13.82
314.864	93.69
315.078	38.4
315.292	28.16
315.505	24.06
315.719	65.02
315.933	40.45
316.146	79.36
316.36	-51.71
316.573	77.31
316.787	73.21
317.001	48.64
317.214	-0.51
317.428	95.74
317.641	28.16
317.855	11.78
318.068	30.21
318.282	67.07
318.495	71.17
318.709	108.03
318.922	44.54
319.136	103.93
319.349	60.93
319.563	1.54
319.776	38.4
319.99	13.82
320.203	58.88
320.417	1.54
320.63	93.69
320.843	-14.85
321.057	83.45
321.27	79.36
321.483	-10.75
321.697	91.65
321.91	26.11
322.124	75.26
322.337	36.35
322.55	28.16
322.763	-0.51
322.977	48.64
323.19	52.74
323.403	40.45
323.617	83.45
323.83	48.64
324.043	54.78
324.256	71.17
324.469	30.21
324.683	-10.75
324.896	120.32
325.109	40.45
325.322	-0.51
325.535	44.54
325.748	75.26
325.962	-25.09
326.175	-23.04
326.388	15.87
326.601	62.98
326.814	24.06
327.027	-10.75
327.24	50.69
327.453	34.3
327.666	58.88
327.879	30.21
328.092	56.83
328.305	22.02
328.518	36.35
328.731	-10.75
328.944	26.11
329.157	22.02
329.37	95.74
329.583	73.21
329.796	103.93
330.009	15.87
330.222	60.93
330.435	11.78
330.648	73.21
330.861	-10.75
331.073	52.74
331.286	124.41
331.499	-14.85
331.712	38.4
331.925	42.5
332.138	36.35
332.35	67.07
332.563	7.68
332.776	17.92
332.989	36.35
333.202	9.73
333.414	24.06
333.627	93.69
333.84	79.36
334.053	22.02
334.265	50.69
334.478	22.02
334.691	17.92
334.903	97.79
335.116	83.45
335.329	-27.14
335.541	62.98
335.754	26.11
335.966	19.97
336.179	114.17
336.392	42.5
336.604	103.93
336.817	17.92
337.029	65.02
337.242	22.02
337.454	54.78
337.667	44.54
337.88	40.45
338.092	73.21
338.305	-2.56
338.517	56.83
338.729	28.16
338.942	85.5
339.154	24.06
339.367	26.11
339.579	56.83
339.792	-2.56
340.004	48.64
340.217	54.78
340.429	71.17
340.641	3.58
340.854	75.26
341.066	-16.9
341.278	24.06
341.491	67.07
341.703	-8.7
341.915	1.54
342.128	112.13
342.34	50.69
342.552	81.41
342.764	-51.71
342.977	75.26
343.189	26.11
343.401	58.88
343.613	54.78
343.826	95.74
344.038	30.21
344.25	67.07
344.462	-10.75
344.674	24.06
344.886	99.84
345.099	26.11
345.311	28.16
345.523	-37.38
345.735	26.11
345.947	99.84
346.159	54.78
346.371	114.17
346.583	40.45
346.795	81.41
347.007	48.64
347.219	9.73
347.431	5.63
347.643	71.17
347.855	7.68
348.067	77.31
348.279	77.31
348.491	-35.33
348.703	67.07
348.915	81.41
349.127	-43.52
349.339	32.26
349.551	44.54
349.763	108.03
349.975	83.45
350.187	69.12
350.399	30.21
350.61	73.21
350.822	103.93
351.034	11.78
351.246	7.68
351.458	-25.09
351.669	79.36
351.881	62.98
352.093	19.97
352.305	118.27
352.517	79.36
352.728	73.21
352.94	-8.7
353.152	71.17
353.363	24.06
353.575	67.07
353.787	71.17
353.999	46.59
354.21	112.13
354.422	1.54
354.633	73.21
354.845	38.4
355.057	91.65
355.268	95.74
355.48	58.88
355.692	-2.56
355.903	50.69
356.115	-41.47
356.326	17.92
356.538	44.54
356.749	34.3
356.961	65.02
357.172	101.89
357.384	-35.33
357.595	103.93
357.807	50.69
358.018	52.74
358.23	67.07
358.441	60.93
358.653	91.65
358.864	52.74
359.075	-8.7
359.287	17.92
359.498	101.89
359.709	52.74
359.921	24.06
360.132	7.68
360.344	9.73
360.555	58.88
360.766	9.73
360.977	-10.75
361.189	30.21
361.4	-8.7
361.611	112.13
361.823	32.26
362.034	48.64
362.245	-25.09
362.456	73.21
362.667	79.36
362.879	75.26
363.09	-0.51
363.301	69.12
363.512	-0.51
363.723	11.78
363.935	48.64
364.146	153.09
364.357	-29.18
364.568	-0.51
364.779	24.06
364.99	26.11
365.201	60.93
365.412	122.37
365.623	11.78
365.834	58.88
366.045	17.92
366.256	58.88
366.467	83.45
366.678	-6.66
366.889	-4.61
367.1	50.69
367.311	99.84
367.522	56.83
367.733	73.21
367.944	32.26
368.155	56.83
368.366	75.26
368.577	24.06
368.788	65.02
368.999	110.08
369.209	62.98
369.42	54.78
369.631	85.5
369.842	54.78
370.053	44.54
370.264	9.73
370.474	-12.8
370.685	9.73
370.896	73.21
371.107	22.02
371.317	108.03
371.528	73.21
371.739	73.21
371.95	83.45
372.16	79.36
372.371	81.41
372.582	-6.66
372.792	65.02
373.003	99.84
373.214	38.4
373.424	30.21
373.635	52.74
373.846	42.5
374.056	60.93
374.267	38.4
374.477	40.45
374.688	56.83
374.898	24.06
375.109	30.21
375.319	60.93
375.53	99.84
375.74	34.3
375.951	9.73
376.161	44.54
376.372	19.97
376.582	65.02
376.793	36.35
377.003	89.6
377.214	77.31
377.424	-4.61
377.635	7.68
377.845	11.78
378.055	22.02
378.266	7.68
378.476	11.78
378.686	15.87
378.897	24.06
379.107	62.98
379.317	48.64
379.528	-29.18
379.738	48.64
379.948	71.17
380.158	38.4
380.369	32.26
380.579	89.6
380.789	91.65
380.999	91.65
381.21	24.06
381.42	71.17
381.63	9.73
381.84	-12.8
382.05	42.5
382.261	-14.85
382.471	69.12
382.681	32.26
382.891	36.35
383.101	28.16
383.311	75.26
383.521	13.82
383.731	93.69
383.941	58.88
384.151	-41.47
384.361	40.45
384.571	34.3
384.781	54.78
384.991	75.26
385.201	36.35
385.411	83.45
385.621	67.07
385.831	11.78
386.041	87.55
386.251	85.5
386.461	99.84
386.671	67.07
386.881	40.45
387.091	19.97
387.301	24.06
387.511	56.83
387.72	22.02
387.93	97.79
388.14	42.5
388.35	97.79
388.56	22.02
388.769	120.32
388.979	58.88
389.189	17.92
389.399	48.64
389.609	97.79
389.818	58.88
390.028	112.13
390.238	17.92
390.447	62.98
390.657	108.03
390.867	5.63
391.076	50.69
391.286	40.45
391.496	58.88
391.705	62.98
391.915	112.13
392.125	73.21
392.334	60.93
392.544	81.41
392.753	93.69
392.963	77.31
393.172	40.45
393.382	34.3
393.591	75.26
393.801	38.4
394.01	67.07
394.22	81.41
394.429	108.03
394.639	95.74
394.848	81.41
395.058	89.6
395.267	95.74
395.477	108.03
395.686	93.69
395.895	144.89
396.105	69.12
396.314	81.41
396.524	103.93
396.733	103.93
396.942	38.4
397.152	42.5
397.361	99.84
397.57	75.26
397.78	105.98
397.989	95.74
398.198	26.11
398.407	101.89
398.617	89.6
398.826	85.5
399.035	54.78
399.244	151.04
399.453	116.22
399.663	85.5
399.872	134.65
400.081	81.41
400.29	138.75
400.499	1.54
400.708	110.08
400.917	85.5
401.127	120.32
401.336	-18.94
401.545	187.9
401.754	187.9
401.963	124.41
402.172	40.45
402.381	85.5
402.59	87.55
402.799	40.45
403.008	108.03
403.217	112.13
403.426	95.74
403.635	52.74
403.844	148.99
404.053	73.21
404.262	87.55
404.471	95.74
404.68	65.02
404.888	163.33
405.097	112.13
405.306	81.41
405.515	120.32
405.724	116.22
405.933	157.18
406.142	218.62
406.35	155.13
406.559	112.13
406.768	155.13
406.977	157.18
407.185	226.81
407.394	185.85
407.603	181.76
407.812	97.79
408.02	216.57
408.229	163.33
408.438	179.71
408.646	177.66
408.855	271.87
409.064	151.04
409.272	218.62
409.481	312.83
409.69	155.13
409.898	255.48
410.107	230.91
410.315	253.44
410.524	169.47
410.733	288.25
410.941	237.05
411.15	278.01
411.358	318.97
411.567	310.78
411.775	298.49
411.984	284.16
412.192	343.55
412.401	355.83
412.609	337.4
412.818	343.55
413.026	359.93
413.234	329.21
413.443	347.64
413.651	364.03
413.86	425.47
414.068	456.19
414.276	507.38
414.485	392.7
414.693	552.44
414.901	468.47
415.11	566.78
415.318	443.9
415.526	552.44
415.734	560.63
415.943	566.78
416.151	617.97
416.359	572.92
416.567	603.64
416.776	658.93
416.984	628.21
417.192	677.37
417.4	703.99
417.608	671.22
417.817	738.8
418.025	787.96
418.233	845.3
418.441	839.16
418.649	839.16
418.857	898.55
419.065	919.03
419.273	871.92
419.481	916.98
419.689	1082.86
419.897	1052.14
420.105	1062.38
420.313	1125.87
420.521	1168.88
420.729	1154.54
420.937	1250.8
421.145	1195.5
421.353	1250.8
421.561	1441.26
421.769	1375.72
421.977	1340.91
422.185	1410.54
422.393	1514.98
422.601	1547.75
422.809	1666.53
423.017	1611.24
423.224	1695.21
423.432	1752.55
423.64	1785.32
423.848	1904.1
424.056	1811.94
424.263	1965.54
424.471	1957.35
424.679	2094.56
424.887	2133.47
425.094	2248.16
425.302	2223.58
425.51	2418.14
425.718	2450.91
425.925	2498.01
426.133	2463.19
426.341	2663.9
426.548	2711
426.756	2913.75
426.964	2842.07
427.171	3077.59
427.379	3169.74
427.586	3083.73
427.794	3206.61
428.001	3341.77
428.209	3456.46
428.417	3401.16
428.624	3618.25
428.832	3698.12
429.039	3657.16
429.247	3784.13
429.454	4005.31
429.662	4195.78
429.869	4050.37
430.076	4406.72
430.284	4263.36
430.491	4341.18
430.699	4634.04
430.906	4703.67
431.114	4593.08
431.321	4804.02
431.528	4971.96
431.736	5354.93
431.943	5481.9
432.15	5449.13
432.358	5486
432.565	5721.51
432.772	5721.51
432.979	5979.56
433.187	6102.43
433.394	6272.42
433.601	6473.12
433.808	6761.88
434.016	6452.64
434.223	6888.85
434.43	7359.89
434.637	7093.65
434.844	7456.14
435.052	7599.5
435.259	7763.34
435.466	7730.57
435.673	7644.56
435.88	8062.34
436.087	8652.16
436.294	8639.87
436.501	8455.55
436.708	8447.36
436.915	8920.44
437.122	9151.86
437.329	9252.21
437.537	9491.82
437.743	9629.04
437.95	9641.32
438.157	10067.3
438.364	10452.32
438.571	10413.41
438.778	10425.7
438.985	11232.6
439.192	11105.62
439.399	11371.86
439.606	11087.19
439.813	11765.07
440.02	12524.86
440.227	12383.56
440.433	12150.09
440.64	12764.48
440.847	12287.3
441.054	12533.06
441.261	13495.6
441.467	13593.9
441.674	13679.92
441.881	14118.18
442.088	14345.51
442.294	14058.79
442.501	14726.43
442.708	14843.17
442.914	15146.26
443.121	16055.56
443.328	15383.83
443.534	16530.69
443.741	16303.37
443.948	16061.71
444.154	17231.1
444.361	16999.68
444.568	17126.65
444.774	17290.49
444.981	17599.73
445.187	17698.03
445.394	18646.24
445.6	18431.21
445.807	20358.35
446.013	19539.16
446.22	19637.46
446.426	20704.45
446.633	20647.11
446.839	21439.67
447.046	20499.66
447.252	21591.22
447.459	21564.6
447.665	21384.38
447.871	22588.58
448.078	23635.1
448.284	22645.93
448.491	23129.25
448.697	23887
448.903	24587.4
449.11	24523.91
449.316	24253.58
449.522	24278.16
449.728	25160.83
449.935	25224.32
450.141	25500.79
450.347	25660.54
450.553	25273.47
450.76	25605.24
450.966	26387.57
451.172	26119.28
451.378	26776.68
451.584	26045.55
451.791	26733.67
451.997	26926.18
452.203	27094.11
452.409	27368.54
452.615	26930.28
452.821	25965.68
453.027	25934.96
453.233	27192.42
453.44	26229.87
453.646	26729.58
453.852	26707.05
454.058	27225.18
454.264	26248.3
454.47	26715.24
454.676	26322.03
454.882	27081.83
455.088	24749.19
455.294	25140.35
455.5	25363.58
455.705	25754.74
455.911	24743.05
456.117	24165.52
456.323	24081.55
456.529	22473.9
456.735	23788.69
456.941	23274.65
457.147	22641.83
457.352	22113.45
457.558	21836.98
457.764	21871.79
457.97	21306.55
458.176	20892.87
458.381	20882.63
458.587	19977.42
458.793	19987.66
458.999	19061.98
459.204	20331.72
459.41	19551.45
459.616	18302.18
459.821	18337
460.027	18328.81
460.233	18040.04
460.438	16905.47
460.644	17526
460.85	16303.37
461.055	16049.42
461.261	16121.1
461.466	14890.27
461.672	14474.53
461.878	15768.85
462.083	14277.93
462.289	14267.69
462.494	14230.82
462.7	13419.83
462.905	13258.04
463.111	13409.59
463.316	13679.92
463.522	13520.18
463.727	13356.34
463.932	13325.62
464.138	13106.49
464.343	13378.87
464.549	12547.39
464.754	13337.91
464.959	13020.47
465.165	13145.4
465.37	12610.88
465.575	12035.4
465.781	12571.97
465.986	12676.41
466.191	12537.15
466.397	12057.93
466.602	11584.85
466.807	11734.35
467.012	12033.35
467.218	11959.63
467.423	11771.21
467.628	11844.94
467.833	12059.98
468.038	11873.61
468.244	11720.01
468.449	11984.2
468.654	11562.32
468.859	11318.61
469.064	11486.54
469.269	11079
469.474	11085.14
469.679	11414.87
469.885	11109.72
470.09	11259.22
470.295	10915.16
470.5	10823
470.705	10976.6
470.91	10784.09
471.115	10331.49
471.32	10757.47
471.525	10816.86
471.73	10456.42
471.935	10143.08
472.139	10210.66
472.344	10151.27
472.549	9889.13
472.754	9848.17
472.959	9629.04
473.164	9457.01
473.369	9512.3
473.574	9985.38
473.778	9540.97
473.983	9672.04
474.188	9629.04
474.393	9213.3
474.598	8922.49
474.802	9061.75
475.007	8996.21
475.212	9033.08
475.417	8564.09
475.621	8777.08
475.826	8770.94
476.031	8463.74
476.235	8308.1
476.44	8377.73
476.645	8396.16
476.849	8232.32
477.054	8355.2
477.259	8146.31
477.463	8142.21
477.668	7796.11
477.872	7906.7
478.077	8017.29
478.282	7675.27
478.486	7749
478.691	7634.32
478.895	7617.93
479.1	7505.29
479.304	7525.77
479.509	7368.08
479.713	7380.37
479.918	7140.76
480.122	7138.71
480.326	7325.07
480.531	7390.61
480.735	7204.24
480.94	7107.99
481.144	7581.07
481.348	7015.83
481.553	7107.99
481.757	6944.15
481.961	7249.3
482.166	6956.44
482.37	7112.08
482.574	6989.21
482.778	6870.42
482.983	7234.96
483.187	7077.27
483.391	7040.4
483.595	7024.02
483.8	6833.56
484.004	7044.5
484.208	7017.88
484.412	6972.82
484.616	6909.33
484.821	7138.71
485.025	6792.6
485.229	6997.4
485.433	7015.83
485.637	7046.55
485.841	6964.63
486.045	6927.77
486.249	6839.7
486.453	6948.25
486.657	7048.6
486.861	7118.23
487.065	6731.16
487.269	6895
487.473	6790.55
487.677	7091.6
487.881	7085.46
488.085	7073.17
488.289	7079.32
488.493	7060.88
488.697	7128.47
488.901	7210.39
489.105	6976.92
489.309	7214.48
489.512	7028.12
489.716	7064.98
489.92	6923.67
490.124	7167.38
490.328	7153.04
490.531	7208.34
490.735	7165.33
490.939	7288.21
491.143	7374.22
491.346	7194
491.55	7357.84
491.754	7241.11
491.958	7464.33
492.161	7167.38
492.365	7388.56
492.569	7515.53
492.772	7474.57
492.976	7400.85
493.18	7583.12
493.383	7605.64
493.587	7513.49
493.79	7667.08
493.994	7708.04
494.197	7832.97
494.401	7828.87
494.605	7744.91
494.808	7943.56
495.012	8021.38
495.215	7832.97
495.419	7988.61
495.622	7820.68
495.825	8000.9
496.029	8310.15
496.232	8451.46
496.436	8367.49
496.639	8592.76
496.843	8430.98
497.046	8555.9
497.249	8729.98
497.453	8715.64
497.656	8959.35
497.859	8906.1
498.063	8953.21
498.266	8973.69
498.469	9102.71
498.673	9225.59
498.876	9393.52
499.079	9356.66
499.282	9508.21
499.485	9608.56
499.689	9706.86
499.892	9907.56
500.095	9753.96
500.298	10171.75
500.501	10093.93
500.705	10280.29
500.908	10220.9
501.111	10435.94
501.314	10474.85
501.517	10825.05
501.72	10806.62
501.923	10945.88
502.126	11146.58
502.329	11281.75
502.532	11312.47
502.735	11531.6
502.938	11650.38
503.141	11656.53
503.344	11842.89
503.547	11883.85
503.75	11978.06
503.953	12213.57
504.156	12395.84
504.359	12512.58
504.562	12526.91
504.765	12553.54
504.968	12797.24
505.17	13016.38
505.373	12883.26
505.576	13329.72
505.779	13442.35
505.982	13376.82
506.185	13700.4
506.387	13759.79
506.59	13688.11
506.793	14144.81
506.996	13974.83
507.198	14507.3
507.401	14415.14
507.604	14513.44
507.807	14742.82
508.009	15043.87
508.212	15160.6
508.415	15127.83
508.617	15504.66
508.82	15308.05
509.022	15510.8
509.225	15947.02
509.428	15744.27
509.63	16110.86
509.833	16301.32
510.035	16551.17
510.238	16536.84
510.44	16846.08
510.643	16958.72
510.845	16999.68
511.048	17241.34
511.25	17216.76
511.453	17530.1
511.655	18027.76
511.858	17847.54
512.06	17997.04
512.262	18273.51
512.465	18343.14
512.667	18539.75
512.87	18384.1
513.072	18859.23
513.274	19053.79
513.477	19393.75
513.679	19492.05
513.881	19698.9
514.084	19815.63
514.286	19983.57
514.488	19948.75
514.69	20466.89
514.893	20540.61
515.095	20526.28
515.297	20772.04
515.499	20892.87
515.701	21007.55
515.904	21408.95
516.106	21429.43
516.308	21593.27
516.51	21728.44
516.712	21994.67
516.914	22123.69
517.116	22731.94
517.318	22664.36
517.52	22703.27
517.722	23133.34
517.925	22875.3
518.127	23436.44
518.329	23604.38
518.531	23501.98
518.733	23696.53
518.935	24163.47
519.136	24183.95
519.338	24335.5
519.54	24568.97
519.742	24708.23
519.944	25017.47
520.146	25326.72
520.348	25412.73
520.55	25810.04
520.752	25648.25
520.954	26131.57
521.155	25781.37
521.357	26246.26
521.559	26690.66
521.761	26725.48
521.963	26952.8
522.164	26903.65
522.366	27128.93
522.568	27309.15
522.77	27583.58
522.971	27698.27
523.173	27878.49
523.375	28118.1
523.576	28038.23
523.778	27976.79
523.98	28464.21
524.181	28501.07
524.383	28642.38
524.584	28982.34
524.786	29058.12
524.988	28994.63
525.189	29326.4
525.391	29430.85
525.592	29385.79
525.794	29549.63
525.995	29520.96
526.197	29912.12
526.398	29832.25
526.6	30159.92
526.801	30544.94
527.003	30635.05
527.204	30473.26
527.406	30899.24
527.607	30622.76
527.808	30985.26
528.01	30676.01
528.211	30821.42
528.412	31368.23
528.614	31190.05
528.815	31286.31
529.016	31421.47
529.218	31415.33
529.419	31456.29
529.62	31607.84
529.822	31591.45
530.023	31689.76
530.224	31521.82
530.425	31884.31
530.626	31583.26
530.828	31521.82
531.029	32042.01
531.23	31755.29
531.431	32211.99
531.632	31968.28
531.833	32611.34
532.035	32416.79
532.236	32467.98
532.437	32695.31
532.638	32218.13
532.839	32351.25
533.04	32463.89
533.241	32087.06
533.442	32701.45
533.643	32218.13
533.844	32597.01
534.045	32728.08
534.246	32214.04
534.447	32472.08
534.648	32500.75
534.849	32820.24
535.05	32394.26
535.251	32775.18
535.451	32592.91
535.652	32525.33
535.853	32764.94
536.054	32619.53
536.255	32836.62
536.456	32128.02
536.657	33059.85
536.857	32551.95
537.058	32326.67
537.259	33018.89
537.46	32732.17
537.66	32295.96
537.861	32594.96
538.062	32660.49
538.263	32719.88
538.463	32326.67
538.664	32861.19
538.865	32769.04
539.065	32857.1
539.266	32523.28
539.466	32697.36
539.667	32386.07
539.868	33006.6
540.068	32668.69
540.269	32691.21
540.469	32977.93
540.67	32676.88
540.87	32594.96
541.071	32748.56
541.271	33186.82
541.472	32752.65
541.672	32574.48
541.873	32586.77
542.073	32412.69
542.274	32881.67
542.474	33020.94
542.675	32467.98
542.875	32844.81
543.075	32738.32
543.276	32418.83
543.476	32867.34
543.676	32902.15
543.877	32812.04
544.077	32699.41
544.277	32496.66
544.478	32549.9
544.678	33043.46
544.878	32777.23
545.078	32818.19
545.279	32447.5
545.479	32752.65
545.679	32734.22
545.879	32742.41
546.079	32480.27
546.28	32791.56
546.48	32203.8
546.68	32642.06
546.88	32558.1
547.08	32345.11
547.28	32537.62
547.48	32537.62
547.68	32820.24
547.88	32631.82
548.081	32738.32
548.281	32902.15
548.481	32111.64
548.681	32850.95
548.881	32670.73
549.081	32504.85
549.28	32390.16
549.48	32717.84
549.68	32205.84
549.88	32984.07
550.08	32676.88
550.28	32750.6
550.48	32484.37
550.68	33047.56
550.88	32341.01
551.08	32592.91
551.279	32609.29
551.479	32279.57
551.679	32863.24
551.879	32621.58
552.079	32619.53
552.278	32572.43
552.478	32588.81
552.678	32447.5
552.878	32445.46
553.077	32568.34
553.277	32300.05
553.477	33084.42
553.676	32515.09
553.876	32492.56
554.076	32480.27
554.275	32443.41
554.475	32357.39
554.674	32453.65
554.874	32515.09
555.074	32467.98
555.273	32316.43
555.473	32476.18
555.672	32347.15
555.872	32265.24
556.071	32367.63
556.271	32406.55
556.47	32140.31
556.67	32029.72
556.869	32005.14
557.068	32128.02
557.268	31964.18
557.467	32105.49
557.667	31912.99
557.866	32046.1
558.065	32166.93
558.265	32033.82
558.464	32068.63
558.663	32242.71
558.863	31687.71
559.062	32332.82
559.261	31331.36
559.461	32070.68
559.66	31351.84
559.859	31906.84
560.058	31546.4
560.258	31730.72
560.457	31652.89
560.656	31734.81
560.855	31601.69
561.054	31581.21
561.253	31308.83
561.453	31378.47
561.652	31577.12
561.851	31706.14
562.05	31265.83
562.249	31112.23
562.448	31855.64
562.647	31521.82
562.846	31255.59
563.045	31656.99
563.244	31106.09
563.443	31589.41
563.642	31042.6
563.841	30647.34
564.04	30483.5
564.239	31159.33
564.438	30913.58
564.637	30972.97
564.836	30710.83
565.035	30428.21
565.234	30884.9
565.432	30719.02
565.631	30454.83
565.83	30864.43
566.029	30327.86
566.228	30420.02
566.427	30512.17
566.625	29940.79
566.824	30098.48
567.023	30434.35
567.222	29779
567.42	30106.68
567.619	30198.84
567.818	29668.41
568.016	29920.31
568.215	29981.75
568.414	29889.59
568.612	30254.13
568.811	29754.43
569.01	29688.89
569.208	29436.99
569.407	29770.81
569.605	29219.91
569.804	29576.25
570.002	29393.98
570.201	29688.89
570.4	28982.34
570.598	29281.35
570.797	28908.61
570.995	28994.63
571.193	28933.19
571.392	29246.53
571.59	28765.26
571.789	28965.96
571.987	28822.6
572.186	28873.8
572.384	28558.41
572.582	28675.15
572.781	28634.19
572.979	28140.63
573.177	28499.02
573.376	28410.96
573.574	28388.43
573.772	28445.77
573.971	28499.02
574.169	27804.76
574.367	28157.01
574.565	28335.18
574.763	27823.19
574.962	28007.51
575.16	27614.3
575.358	27962.45
575.556	27352.16
575.754	28230.74
575.952	27499.61
576.151	27815
576.349	27225.18
576.547	27452.51
576.745	27489.37
576.943	27462.75
577.141	27429.98
577.339	27294.82
577.537	27163.75
577.735	27178.08
577.933	26997.86
578.131	27151.46
578.329	26879.08
578.527	26651.75
578.725	26666.09
578.923	27188.32
579.121	26510.44
579.319	26618.99
579.516	27014.24
579.714	26440.81
579.912	26657.9
580.11	26475.63
580.308	26498.16
580.506	26233.97
580.704	26340.46
580.901	26375.28
581.099	26518.64
581.297	26162.29
581.495	26184.82
581.692	26184.82
581.89	26035.31
582.088	26260.59
582.285	25891.96
582.483	26016.88
582.681	25908.34
582.878	25885.81
583.076	25470.08
583.274	25689.21
583.471	25296
583.669	25644.15
583.866	25314.43
584.064	25463.93
584.262	25267.33
584.459	25226.37
584.657	25265.28
584.854	25101.44
585.052	24775.81
585.249	25162.88
585.447	25336.96
585.644	24736.9
585.841	24769.67
586.039	25113.73
586.236	24786.05
586.434	24663.18
586.631	24769.67
586.828	24501.39
587.026	24589.45
587.223	24726.66
587.42	24398.99
587.618	24796.29
587.815	23979.15
588.012	24372.36
588.21	24104.08
588.407	24462.47
588.604	23987.35
588.801	23831.7
588.999	23737.49
589.196	24075.41
589.393	23977.11
589.59	23714.97
589.787	23661.72
589.984	23499.93
590.182	23755.93
590.379	23475.35
590.576	23446.68
590.773	23344.28
590.97	23385.24
591.167	23186.59
591.364	23102.62
591.561	23186.59
591.758	23030.94
591.955	22983.84
592.152	23372.96
592.349	22652.07
592.546	23041.18
592.743	23084.19
592.94	22547.62
593.137	22717.61
593.334	22797.48
593.531	22396.07
593.727	22332.59
593.924	22693.03
594.121	22174.89
594.318	22297.77
594.515	22379.69
594.712	22418.6
594.908	22146.22
595.105	21963.95
595.302	22056.11
595.499	22148.27
595.696	21884.08
595.892	21761.2
596.089	21724.34
596.286	22152.37
596.482	21634.23
596.679	21656.76
596.876	21662.9
597.072	21441.72
597.269	21517.5
597.466	20978.88
597.662	21269.69
597.859	21408.95
598.055	21417.15
598.252	21228.73
598.448	21222.59
598.645	20954.3
598.841	20890.82
599.038	21015.74
599.234	20790.47
599.431	20774.08
599.627	20761.8
599.824	20882.63
600.02	20726.98
600.217	20894.91
600.413	20618.44
600.609	20374.73
600.806	20436.17
601.002	20581.57
601.198	20417.74
601.395	20040.91
601.591	20002
601.787	20214.99
601.984	20110.54
602.18	20188.36
602.376	19879.12
602.572	19825.87
602.769	20204.75
602.965	19811.54
603.161	20053.2
603.357	19492.05
603.553	19684.56
603.75	19823.83
603.946	19401.94
604.142	19397.85
604.338	19260.63
604.534	19369.18
604.73	18973.92
604.926	19338.46
605.122	18935.01
605.318	18982.11
605.514	19217.63
605.71	18900.19
605.906	19107.04
606.102	19002.59
606.298	19074.27
606.494	18875.62
606.69	19113.18
606.886	19057.89
607.082	18625.76
607.278	18840.8
607.474	18482.41
607.67	18937.06
607.866	18443.49
608.062	18775.27
608.257	18572.52
608.453	18713.83
608.649	18875.62
608.845	18355.43
609.041	18537.7
609.236	18545.89
609.432	18349.29
609.628	18318.57
609.824	18287.85
610.019	18038
610.215	18367.72
610.411	18339.05
610.606	18001.13
610.802	18300.14
610.998	18162.92
611.193	18267.37
611.389	17958.13
611.584	18091.24
611.78	17945.84
611.976	18142.44
612.171	17804.53
612.367	18199.79
612.562	17904.88
612.758	17536.24
612.953	17994.99
613.149	18091.24
613.344	17392.89
613.539	18027.76
613.735	17755.38
613.93	18121.96
614.126	17714.42
614.321	17652.98
614.517	17919.21
614.712	17906.93
614.907	17409.27
615.103	17421.56
615.298	17288.44
615.493	17575.16
615.688	17468.66
615.884	17638.64
616.079	17218.81
616.274	17470.71
616.47	17308.92
616.665	17130.75
616.86	17419.51
617.055	17157.37
617.25	17046.78
617.445	17353.98
617.641	16911.61
617.836	17272.06
618.031	17040.64
618.226	17140.99
618.421	16661.76
618.616	17061.12
618.811	16704.77
619.006	16850.17
619.201	16643.33
619.396	16760.06
619.591	16557.32
619.786	16674.05
619.981	16325.89
620.176	16653.57
620.371	16442.63
620.566	16413.96
620.761	16340.23
620.956	16442.63
621.151	15869.2
621.346	16133.39
621.541	15985.93
621.735	16243.98
621.93	15641.87
622.125	15781.14
622.32	15691.02
622.515	15895.82
622.709	15414.55
622.904	15392.02
623.099	15549.71
623.294	15484.18
623.488	15328.53
623.683	15324.44
623.878	15187.22
624.072	15072.54
624.267	15095.07
624.462	14546.21
624.656	14771.49
624.851	14841.12
625.046	14597.41
625.24	14804.25
625.435	14621.98
625.629	14515.49
625.824	14341.41
626.018	14568.74
626.213	14093.61
626.407	14259.49
626.602	14091.56
626.796	14216.49
626.991	14173.48
627.185	13798.7
627.38	13733.17
627.574	13970.73
627.768	13602.1
627.963	13774.13
628.157	13395.25
628.352	13655.34
628.546	13204.79
628.74	13421.88
628.935	13096.25
629.129	13321.52
629.323	13079.86
629.517	12999.99
629.712	13004.09
629.906	13055.29
630.1	12909.88
630.294	12819.77
630.489	12819.77
630.683	13036.86
630.877	12492.1
631.071	12688.7
631.265	12664.13
631.459	12535.1
631.653	12590.4
631.848	12457.28
632.042	12143.94
632.236	12195.14
632.43	12285.25
632.624	12162.37
632.818	12135.75
633.012	11806.03
633.206	11887.95
633.4	11732.3
633.594	11550.03
633.788	11717.97
633.982	11781.45
634.176	11738.44
634.369	11490.64
634.563	11535.7
634.757	11486.54
634.951	11576.66
635.145	11478.35
635.339	11482.45
635.533	11191.64
635.726	11304.28
635.92	10997.08
636.114	11296.08
636.308	11019.61
636.501	10906.97
636.695	10816.86
636.889	10808.67
637.083	10759.52
637.276	10712.41
637.47	10839.39
637.664	10761.56
637.857	10554.72
638.051	10556.77
638.244	10382.69
638.438	10587.49
638.632	10472.8
638.825	10300.77
639.019	10521.95
639.212	10098.02
639.406	10206.56
639.599	10257.76
639.793	10237.28
639.986	9936.23
640.18	9928.04
640.373	9999.72
640.567	9846.12
640.76	9813.35
640.954	9788.78
641.147	9663.85
641.34	9551.21
641.534	9629.04
641.727	9575.79
641.92	9471.34
642.114	9336.18
642.307	9549.17
642.5	9428.34
642.694	9123.19
642.887	9346.42
643.08	9332.08
643.273	9131.38
643.467	9211.25
643.66	8988.02
643.853	9094.52
644.046	9123.19
644.239	9102.71
644.432	8838.52
644.626	9018.74
644.819	8764.79
645.012	8928.63
645.205	8840.57
645.398	8758.65
645.591	8697.21
645.784	8697.21
645.977	8469.89
646.17	8547.71
646.363	8410.5
646.556	8330.62
646.749	8416.64
646.942	8594.81
647.135	8234.37
647.328	8340.86
647.521	8400.26
647.714	7992.71
647.907	8207.75
648.099	8064.39
648.292	8131.97
648.485	7945.61
648.678	8043.91
648.871	8099.2
649.064	7929.22
649.256	7896.46
649.449	7816.58
649.642	7806.34
649.835	7726.47
650.027	7724.43
650.22	7837.06
650.413	7617.93
650.605	7781.77
650.798	7634.32
650.991	7652.75
651.183	7683.47
651.376	7525.77
651.568	7550.35
651.761	7327.12
651.954	7433.61
652.146	7316.88
652.339	7159.19
652.531	7290.26
652.724	7359.89
652.916	7132.56
653.109	7173.52
653.301	7054.74
653.494	7085.46
653.686	7116.18
653.879	7058.84
654.071	7032.21
654.263	6858.14
654.456	6884.76
654.648	7019.92
654.84	6817.18
655.033	6700.44
655.225	6956.44
655.417	6698.39
655.61	6784.41
655.802	6743.45
655.994	6784.41
656.186	6714.78
656.379	6507.93
656.571	6600.09
656.763	6526.36
656.955	6481.31
657.148	6514.08
657.34	6505.88
657.532	6288.8
657.724	6335.9
657.916	6301.09
658.108	6235.55
658.3	6313.38
658.492	6217.12
658.684	6124.96
658.876	6190.5
659.068	5983.65
659.26	6090.15
659.452	6100.39
659.644	6075.81
659.836	6059.43
660.028	5993.89
660.22	6053.28
660.412	5891.49
660.604	6012.32
660.796	5832.1
660.988	5975.46
661.18	5717.42
661.372	5729.7
661.563	5842.34
661.755	5801.38
661.947	5809.58
662.139	5780.9
662.331	5715.37
662.522	5653.93
662.714	5723.56
662.906	5590.44
663.097	5637.55
663.289	5563.82
663.481	5547.44
663.673	5514.67
663.864	5457.32
664.056	5432.75
664.247	5547.44
664.439	5338.54
664.631	5494.19
664.822	5402.03
665.014	5498.28
665.205	5373.36
665.397	5180.85
665.588	5342.64
665.78	5322.16
665.971	5381.55
666.163	5189.04
666.354	5123.51
666.546	5246.38
666.737	5139.89
666.929	5002.68
667.12	5146.03
667.311	4990.39
667.503	5033.4
667.694	5074.35
667.885	4931
668.077	5139.89
668.268	4957.62
668.459	4965.81
668.651	4902.33
668.842	4728.25
669.033	4824.5
669.224	4711.86
669.416	4883.89
669.607	4844.98
669.798	4720.06
669.989	4812.21
670.18	4799.93
670.371	4746.68
670.563	4756.92
670.754	4660.66
670.945	4564.41
671.136	4705.72
671.327	4531.64
671.518	4808.12
671.709	4660.66
671.9	4752.82
672.091	4615.61
672.282	4687.29
672.473	4550.07
672.664	4582.84
672.855	4521.4
673.046	4425.15
673.237	4597.18
673.428	4470.2
673.619	4566.46
673.809	4500.92
674	4384.19
674.191	4492.73
674.382	4298.17
674.573	4367.81
674.764	4558.27
674.954	4353.47
675.145	4367.81
675.336	4353.47
675.527	4242.88
675.717	4492.73
675.908	4345.28
676.099	4453.82
676.289	4343.23
676.48	4134.34
676.671	4156.86
676.861	4236.74
677.052	4263.36
677.243	4144.58
677.433	4306.37
677.624	4267.45
677.814	4222.4
678.005	4314.56
678.195	4322.75
678.386	4232.64
678.576	4150.72
678.767	4283.84
678.957	4140.48
679.148	4251.07
679.338	4120
679.529	4228.54
679.719	4095.43
679.909	4120
680.1	4148.67
680.29	4017.6
680.481	4160.96
680.671	4132.29
680.861	4122.05
681.052	4099.52
681.242	4054.47
681.432	4158.91
681.622	4042.18
681.813	4003.27
682.003	4005.31
682.193	4025.79
682.383	4136.38
682.573	4042.18
682.764	4023.75
682.954	3874.24
683.144	3970.5
683.334	3937.73
683.524	3921.35
683.714	3966.4
683.904	3868.1
684.094	3993.03
684.284	3904.96
684.474	3968.45
684.664	3950.02
684.854	3845.57
685.044	3814.85
685.234	3814.85
685.424	3767.75
685.614	3816.9
685.804	3841.48
685.994	3896.77
686.184	3947.97
686.374	3810.76
686.564	3806.66
686.753	3864.01
686.943	3804.61
687.133	3691.98
687.323	3675.59
687.513	3630.54
687.702	3749.32
687.892	3784.13
688.082	3651.02
688.272	3794.37
688.461	3470.8
688.651	3667.4
688.841	3417.55
689.03	3601.87
689.22	3614.15
689.41	3579.34
689.599	3726.79
689.789	3462.6
689.979	3505.61
690.168	3583.43
690.358	3536.33
690.547	3489.23
690.737	3374.54
690.926	3450.32
691.116	3487.18
691.305	3515.85
691.495	3341.77
691.684	3263.95
691.874	3360.2
692.063	3376.59
692.252	3335.63
692.442	3382.73
692.631	3382.73
692.82	3222.99
693.01	3202.51
693.199	3341.77
693.388	3276.24
693.578	3210.7
693.767	3212.75
693.956	3182.03
694.146	3175.89
694.335	3046.87
694.524	3128.78
694.713	3044.82
694.902	3225.04
695.092	3130.83
695.281	3153.36
695.47	3016.15
695.659	3065.3
695.848	3098.06
696.037	3089.87
696.226	3063.25
696.415	3063.25
696.604	3014.1
696.793	3132.88
696.982	3065.3
697.171	3069.39
697.36	2964.95
697.549	2952.66
697.738	2969.04
697.927	2899.41
698.116	3024.34
698.305	2942.42
698.494	2932.18
698.683	3005.91
698.872	3018.19
699.061	2966.99
699.25	2928.08
699.438	2956.75
699.627	2956.75
699.816	2915.8
700.005	2975.19
700.193	2909.65
700.382	2919.89
700.571	2842.07
700.76	3046.87
700.948	2897.36
701.137	2926.04
701.326	2934.23
701.514	2862.55
701.703	2977.23
701.892	3040.72
702.08	2989.52
702.269	2811.35
702.457	2885.08
702.646	2946.52
702.834	2874.84
703.023	2880.98
703.212	2854.36
703.4	2715.09
703.589	2833.88
703.777	2897.36
703.965	2751.96
704.154	2878.93
704.342	2979.28
704.531	2887.12
704.719	2811.35
704.907	3042.77
705.096	2745.81
705.284	2842.07
705.472	2850.26
705.661	2862.55
705.849	2987.47
706.037	2856.4
706.226	2835.92
706.414	2770.39
706.602	2803.16
706.79	2883.03
706.979	2762.2
707.167	2794.97
707.355	2815.45
707.543	2856.4
707.731	2891.22
707.919	2854.36
708.107	2641.37
708.296	2788.82
708.484	2850.26
708.672	2751.96
708.86	2844.12
709.048	2897.36
709.236	2725.33
709.424	2784.73
709.612	2864.6
709.8	2776.53
709.988	2811.35
710.176	2727.38
710.364	2862.55
710.551	2745.81
710.739	2721.24
710.927	2833.88
711.115	2817.49
711.303	2751.96
711.491	2846.16
711.679	2862.55
711.866	2792.92
712.054	2893.27
712.242	2702.81
712.43	2883.03
712.617	2870.74
712.805	2862.55
712.993	2944.47
713.181	2743.77
713.368	2827.73
713.556	2844.12
713.744	2672.09
713.931	2778.58
714.119	2784.73
714.306	2799.06
714.494	2899.41
714.682	2756.05
714.869	2762.2
715.057	2825.68
715.244	2827.73
715.432	2864.6
715.619	2743.77
715.807	2866.64
715.994	2891.22
716.182	2803.16
716.369	2772.44
716.556	2817.49
716.744	2715.09
716.931	2842.07
717.119	2846.16
717.306	2848.21
717.493	2758.1
717.681	2792.92
717.868	2782.68
718.055	2778.58
718.242	2827.73
718.43	2831.83
718.617	2930.13
718.804	2754.01
718.991	2835.92
719.179	2928.08
719.366	2751.96
719.553	2911.7
719.74	2801.11
719.927	2772.44
720.114	2893.27
720.301	2809.3
720.488	2776.53
720.676	2872.79
720.863	2805.21
721.05	2743.77
721.237	2835.92
721.424	2833.88
721.611	2876.88
721.798	2754.01
721.985	2758.1
722.172	2977.23
722.358	2803.16
722.545	2905.56
722.732	2872.79
722.919	2819.54
723.106	2792.92
723.293	2866.64
723.48	2813.4
723.667	2913.75
723.853	2854.36
724.04	2807.25
724.227	2870.74
724.414	2799.06
724.6	2737.62
724.787	2883.03
724.974	2846.16
725.161	2870.74
725.347	2840.02
725.534	2788.82
725.72	2813.4
725.907	2969.04
726.094	2876.88
726.28	2885.08
726.467	2903.51
726.653	2876.88
726.84	2870.74
727.027	2837.97
727.213	2745.81
727.4	2813.4
727.586	2801.11
727.773	2768.34
727.959	2768.34
728.145	2811.35
728.332	2909.65
728.518	2815.45
728.705	2840.02
728.891	2899.41
729.077	2770.39
729.264	2854.36
729.45	2813.4
729.636	2868.69
729.823	2868.69
730.009	2811.35
730.195	2852.31
730.382	2901.46
730.568	2827.73
730.754	2846.16
730.94	2786.77
731.126	2846.16
731.313	2895.32
731.499	2692.57
731.685	2866.64
731.871	2768.34
732.057	2876.88
732.243	2854.36
732.429	2901.46
732.615	2850.26
732.801	2827.73
732.987	2872.79
733.173	2870.74
733.359	2856.4
733.545	2850.26
733.731	2719.19
733.917	2784.73
734.103	2858.45
734.289	2797.01
734.475	2876.88
734.661	2889.17
734.847	2780.63
735.033	2835.92
735.219	2919.89
735.404	2952.66
735.59	2797.01
735.776	2801.11
735.962	2835.92
736.148	2760.15
736.333	2733.53
736.519	2764.25
736.705	2846.16
736.89	2684.38
737.076	2770.39
737.262	2680.28
737.447	2799.06
737.633	2766.29
737.819	2774.49
738.004	2854.36
738.19	2713.05
738.375	2678.23
738.561	2868.69
738.747	2715.09
738.932	2727.38
739.118	2694.61
739.303	2696.66
739.489	2731.48
739.674	2657.75
739.859	2674.14
740.045	2725.33
740.23	2670.04
740.416	2545.11
740.601	2821.59
740.786	2655.7
740.972	2579.93
741.157	2620.89
741.342	2678.23
741.528	2526.68
741.713	2639.32
741.898	2639.32
742.084	2643.42
742.269	2657.75
742.454	2514.39
742.639	2522.59
742.824	2455
743.01	2561.5
743.195	2561.5
743.38	2473.43
743.565	2592.22
743.75	2518.49
743.935	2557.4
744.12	2487.77
744.305	2514.39
744.49	2371.04
744.675	2483.67
744.86	2395.61
745.045	2389.47
745.23	2416.09
745.415	2418.14
745.6	2422.24
745.785	2321.88
745.97	2432.47
746.155	2317.79
746.34	2358.75
746.525	2418.14
746.71	2401.76
746.895	2305.5
747.079	2219.49
747.264	2280.93
747.449	2305.5
747.634	2196.96
747.819	2252.25
748.003	2264.54
748.188	2242.01
748.373	2358.75
748.557	2227.68
748.742	2209.25
748.927	2350.56
749.111	2127.33
749.296	2207.2
749.481	2188.77
749.665	2196.96
749.85	2026.98
750.034	2117.09
750.219	2000.35
750.404	2129.38
750.588	2051.55
750.773	2076.13
750.957	2096.61
751.141	1918.43
751.326	2072.03
751.51	2059.74
751.695	1971.68
751.879	2035.17
752.064	2092.51
752.248	1981.92
752.432	2088.42
752.617	1963.49
752.801	1914.34
752.985	1963.49
753.17	1916.39
753.354	1889.76
753.538	1730.02
753.722	1844.71
753.907	1754.6
754.091	1861.09
754.275	1734.12
754.459	1732.07
754.643	1748.45
754.828	1770.98
755.012	1826.28
755.196	1764.84
755.38	1803.75
755.564	1658.34
755.748	1637.86
755.932	1701.35
756.116	1713.64
756.3	1664.49
756.484	1609.19
756.668	1580.52
756.852	1670.63
757.036	1654.25
757.22	1605.1
757.404	1603.05
757.588	1619.43
757.772	1609.19
757.956	1574.38
758.14	1572.33
758.323	1572.33
758.507	1596.9
758.691	1502.7
758.875	1578.47
759.059	1553.9
759.242	1484.27
759.426	1590.76
759.61	1529.32
759.794	1533.42
759.977	1504.75
760.161	1469.93
760.345	1416.68
760.528	1451.5
760.712	1402.35
760.895	1379.82
761.079	1451.5
761.263	1256.94
761.446	1371.63
761.63	1480.17
761.813	1297.9
761.997	1388.01
762.18	1295.85
762.364	1412.59
762.547	1277.42
762.731	1383.91
762.914	1398.25
763.098	1302
763.281	1291.76
763.464	1297.9
763.648	1334.76
763.831	1199.6
764.015	1242.61
764.198	1287.66
764.381	1238.51
764.564	1281.52
764.748	1277.42
764.931	1295.85
765.114	1322.48
765.297	1205.74
765.481	1179.12
765.664	1265.13
765.847	1236.46
766.03	1117.68
766.213	1129.97
766.397	1162.73
766.58	1144.3
766.763	1146.35
766.946	1093.1
767.129	1107.44
767.312	1183.21
767.495	1115.63
767.678	1129.97
767.861	1199.6
768.044	1099.25
768.227	1119.73
768.41	1062.38
768.593	1166.83
768.776	1158.64
768.959	1156.59
769.142	1162.73
769.324	1086.96
769.507	1125.87
769.69	1050.1
769.873	1019.38
770.056	1078.77
770.239	1027.57
770.421	1103.34
770.604	1080.82
770.787	1017.33
770.97	1046
771.152	1025.52
771.335	1064.43
771.518	984.56
771.7	1009.14
771.883	1062.38
772.066	1052.14
772.248	1043.95
772.431	982.51
772.613	1048.05
772.796	1033.71
772.978	992.75
773.161	998.9
773.343	1002.99
773.526	990.7
773.708	1013.23
773.891	888.31
774.073	1009.14
774.256	931.31
774.438	931.31
774.621	959.99
774.803	863.73
774.985	949.75
775.168	921.07
775.35	828.92
775.532	855.54
775.715	792.05
775.897	847.35
776.079	804.34
776.261	912.88
776.444	912.88
776.626	876.02
776.808	869.87
776.99	886.26
777.173	863.73
777.355	894.45
777.537	855.54
777.719	859.63
777.901	826.87
778.083	949.75
778.265	718.33
778.447	769.52
778.629	728.56
778.811	824.82
778.993	701.94
779.175	785.91
779.357	736.76
779.539	706.04
779.721	747
779.903	798.2
780.085	767.48
780.267	757.24
780.449	693.75
780.631	722.42
780.812	677.37
780.994	790
781.176	656.89
781.358	669.17
781.54	675.32
781.721	677.37
781.903	644.6
782.085	681.46
782.267	638.45
782.448	558.58
782.63	669.17
782.812	648.69
782.993	695.8
783.175	620.02
783.357	595.45
783.538	572.92
783.72	611.83
783.901	642.55
784.083	687.61
784.264	658.93
784.446	548.34
784.627	476.66
784.809	568.82
784.99	581.11
785.172	534.01
785.353	626.17
785.535	617.97
785.716	579.06
785.897	501.24
786.079	546.3
786.26	611.83
786.441	599.54
786.623	486.9
786.804	472.57
786.985	562.68
787.167	548.34
787.348	521.72
787.529	437.75
787.71	585.21
787.891	497.14
788.073	474.62
788.254	476.66
788.435	476.66
788.616	591.35
788.797	404.99
788.978	450.04
789.159	460.28
789.34	495.1
789.522	521.72
789.703	452.09
789.884	439.8
790.065	497.14
790.246	462.33
790.427	417.27
790.607	437.75
790.788	499.19
790.969	439.8
791.15	370.17
791.331	429.56
791.512	468.47
791.693	361.98
791.874	421.37
792.054	476.66
792.235	372.22
792.416	380.41
792.597	372.22
792.778	458.23
792.958	417.27
793.139	374.27
793.32	466.42
793.5	341.5
793.681	429.56
793.862	382.46
794.042	372.22
794.223	329.21
794.404	394.75
794.584	353.79
794.765	308.73
794.945	396.79
795.126	378.36
795.306	361.98
795.487	433.66
795.667	308.73
795.848	351.74
796.028	343.55
796.209	347.64
796.389	409.08
796.57	359.93
796.75	343.55
796.93	327.16
797.111	398.84
797.291	343.55
797.471	318.97
797.652	413.18
797.832	290.3
798.012	343.55
798.192	214.52
798.373	263.68
798.553	253.44
798.733	347.64
798.913	298.49
799.093	286.2
799.274	294.4
799.454	337.4
799.634	316.92
799.814	310.78
799.994	298.49
800.174	312.83
800.354	335.35
800.534	353.79
800.714	290.3
800.894	239.1
801.074	308.73
801.254	337.4
801.434	333.31
801.614	257.53
801.794	292.35
801.974	816.63
802.154	239.1
802.334	351.74
802.514	251.39
802.693	259.58
802.873	306.68
803.053	409.08
803.233	259.58
803.413	359.93
803.592	265.72
803.772	212.48
803.952	241.15
804.131	224.76
804.311	286.2
804.491	263.68
804.67	194.05
804.85	288.25
805.03	218.62
805.209	216.57
805.389	257.53
805.568	255.48
805.748	206.33
805.928	278.01
806.107	245.24
806.287	282.11
806.466	228.86
806.646	212.48
806.825	224.76
807.004	144.89
807.184	216.57
807.363	212.48
807.543	204.28
807.722	200.19
807.901	263.68
808.081	247.29
808.26	249.34
808.439	255.48
808.619	257.53
808.798	251.39
808.977	251.39
809.156	323.07
809.336	99.84
809.515	259.58
809.694	202.24
809.873	210.43
810.052	300.54
810.231	278.01
810.411	218.62
810.59	245.24
810.769	249.34
810.948	226.81
811.127	153.09
811.306	181.76
811.485	169.47
811.664	163.33
811.843	224.76
812.022	210.43
812.201	228.86
812.38	249.34
812.559	169.47
812.737	122.37
812.916	230.91
813.095	153.09
813.274	192
813.453	116.22
813.632	138.75
813.811	325.12
813.989	153.09
814.168	261.63
814.347	198.14
814.526	138.75
814.704	171.52
814.883	216.57
815.062	185.85
815.24	181.76
815.419	161.28
815.598	116.22
815.776	140.8
815.955	204.28
816.133	153.09
816.312	171.52
816.49	169.47
816.669	167.42
816.847	118.27
817.026	185.85
817.204	173.57
817.383	134.65
817.561	142.85
817.74	200.19
817.918	165.37
818.097	222.72
818.275	161.28
818.453	146.94
818.632	118.27
818.81	230.91
818.988	101.89
819.167	165.37
819.345	153.09
819.523	171.52
819.701	196.09
819.879	167.42
820.058	146.94
820.236	232.96
820.414	171.52
820.592	173.57
820.77	42.5
820.948	128.51
821.127	118.27
821.305	235
821.483	67.07
821.661	181.76
821.839	95.74
822.017	124.41
822.195	126.46
822.373	167.42
822.551	181.76
822.729	198.14
822.907	153.09
823.085	216.57
823.262	157.18
823.44	214.52
823.618	130.56
823.796	124.41
823.974	159.23
824.152	67.07
824.329	110.08
824.507	159.23
824.685	108.03
824.863	132.61
825.04	153.09
825.218	151.04
825.396	142.85
825.574	196.09
825.751	130.56
825.929	187.9
826.107	91.65
826.284	157.18
826.462	79.36
826.639	153.09
826.817	159.23
826.994	132.61
827.172	30.21
827.349	177.66
827.527	110.08
827.704	142.85
827.882	128.51
828.059	85.5
828.237	99.84
828.414	126.46
828.591	44.54
828.769	69.12
828.946	114.17
829.124	159.23
829.301	116.22
829.478	114.17
829.655	-0.51
829.833	87.55
830.01	134.65
830.187	140.8
830.364	120.32
830.542	75.26
830.719	153.09
830.896	71.17
831.073	128.51
831.25	142.85
831.427	71.17
831.604	167.42
831.782	105.98
831.959	136.7
832.136	97.79
832.313	138.75
832.49	120.32
832.667	110.08
832.844	89.6
833.021	157.18
833.198	71.17
833.374	173.57
833.551	69.12
833.728	83.45
833.905	136.7
834.082	112.13
834.259	83.45
834.436	118.27
834.612	118.27
834.789	163.33
834.966	122.37
835.143	157.18
835.319	116.22
835.496	148.99
835.673	81.41
835.85	114.17
836.026	79.36
836.203	67.07
836.38	126.46
836.556	40.45
836.733	163.33
836.909	110.08
837.086	7.68
837.262	155.13
837.439	48.64
837.616	17.92
837.792	101.89
837.968	9.73
838.145	48.64
838.321	52.74
838.498	130.56
838.674	130.56
838.851	132.61
839.027	89.6
839.203	58.88
839.38	112.13
839.556	19.97
839.732	130.56
839.909	91.65
840.085	146.94
840.261	110.08
840.437	89.6
840.614	99.84
840.79	87.55
840.966	56.83
841.142	105.98
841.318	103.93
841.494	85.5
841.671	116.22
841.847	22.02
842.023	-0.51
842.199	85.5
842.375	52.74
842.551	105.98
842.727	38.4
842.903	101.89
843.079	48.64
843.255	81.41
843.431	71.17
843.607	163.33
843.783	-18.94
843.959	93.69
844.134	95.74
844.31	83.45
844.486	110.08
844.662	40.45
844.838	1.54
845.013	48.64
845.189	56.83
845.365	73.21
845.541	56.83
845.716	13.82
845.892	48.64
846.068	-0.51
846.244	52.74
846.419	-2.56
846.595	89.6
846.77	42.5
846.946	71.17
847.122	108.03
847.297	44.54
847.473	22.02
847.648	42.5
847.824	67.07
847.999	65.02
848.175	77.31
848.35	95.74
848.526	69.12
848.701	11.78
848.876	97.79
849.052	69.12
849.227	85.5
849.403	75.26
849.578	101.89
849.753	46.59
849.929	120.32
850.104	50.69
850.279	58.88
850.454	95.74
850.63	19.97
850.805	40.45
850.98	73.21
851.155	44.54
851.33	87.55
851.505	118.27
851.681	44.54
851.856	-16.9
852.031	54.78
852.206	38.4
852.381	54.78
852.556	54.78
852.731	71.17
852.906	71.17
853.081	81.41
853.256	75.26
853.431	54.78
853.606	69.12
853.781	24.06
853.956	48.64
854.131	85.5
854.305	19.97
854.48	44.54
854.655	28.16
854.83	32.26
855.005	58.88
855.18	15.87
855.354	-0.51
855.529	-29.18
855.704	77.31
855.879	36.35
856.053	112.13
856.228	7.68
856.403	75.26
856.577	-23.04
856.752	30.21
856.926	42.5
857.101	-25.09
857.276	83.45
857.45	-0.51
857.625	81.41
857.799	-10.75
857.974	-0.51
858.148	67.07
858.323	-16.9
858.497	32.26
858.672	28.16
858.846	1.54
859.02	75.26
859.195	22.02
859.369	58.88
859.543	-49.66
859.718	54.78
859.892	36.35
860.066	50.69
860.241	17.92
860.415	38.4
860.589	65.02
860.763	9.73
860.938	65.02
861.112	101.89
861.286	89.6
861.46	46.59
861.634	75.26
861.808	85.5
861.982	-8.7
862.157	50.69
862.331	-59.9
862.505	77.31
862.679	34.3
862.853	46.59
863.027	46.59
863.201	136.7
863.375	-0.51
863.549	13.82
863.722	75.26
863.896	83.45
864.07	52.74
864.244	44.54
864.418	124.41
864.592	5.63
864.766	-14.85
864.939	67.07
865.113	79.36
865.287	69.12
865.461	50.69
865.634	-25.09
865.808	24.06
865.982	11.78
866.156	36.35
866.329	50.69
866.503	32.26
866.676	108.03
866.85	67.07
867.024	-14.85
867.197	81.41
867.371	108.03
867.544	62.98
867.718	-49.66
867.891	112.13
868.065	30.21
868.238	38.4
868.412	85.5
868.585	50.69
868.759	62.98
868.932	5.63
869.105	19.97
869.279	58.88
869.452	-10.75
869.625	65.02
869.799	58.88
869.972	-10.75
870.145	9.73
870.319	26.11
870.492	1.54
870.665	65.02
870.838	42.5
871.011	48.64
871.185	91.65
871.358	-43.52
871.531	7.68
871.704	-29.18
871.877	-25.09
872.05	22.02
872.223	-4.61
872.396	-39.42
872.569	-35.33
872.742	15.87
872.915	50.69
873.088	17.92
873.261	34.3
873.434	-14.85
873.607	116.22
873.78	71.17
873.953	24.06
874.126	81.41
874.299	36.35
874.471	-0.51
874.644	13.82
874.817	30.21
874.99	60.93
875.163	3.58
875.335	9.73
875.508	28.16
875.681	65.02
875.853	44.54
876.026	-23.04
876.199	71.17
876.371	26.11
876.544	42.5
876.717	11.78
876.889	19.97
877.062	19.97
877.234	-29.18
877.407	58.88
877.579	-37.38
877.752	-2.56
877.924	65.02
878.097	-4.61
878.269	11.78
878.442	32.26
878.614	-80.38
878.786	87.55
878.959	110.08
879.131	24.06
879.303	-18.94
879.476	13.82
879.648	7.68
879.82	-51.71
879.993	-10.75
880.165	1.54
880.337	3.58
880.509	71.17
880.681	69.12
880.854	-29.18
881.026	11.78
881.198	50.69
881.37	1.54
881.542	3.58
881.714	50.69
881.886	11.78
882.058	-12.8
882.23	-4.61
882.402	-2.56
882.574	-23.04
882.746	-20.99
882.918	-14.85
883.09	26.11
883.262	-2.56
883.434	-12.8
883.606	15.87
883.778	1.54
883.95	58.88
884.122	81.41
884.293	19.97
884.465	1.54
884.637	9.73
884.809	58.88
884.98	15.87
885.152	48.64
885.324	5.63
885.496	-37.38
885.667	40.45
885.839	30.21
886.011	89.6
886.182	28.16
886.354	73.21
886.525	24.06
886.697	-14.85
886.869	34.3
887.04	-0.51
887.212	91.65
887.383	91.65
887.555	46.59
887.726	56.83
887.897	-2.56
888.069	81.41
888.24	-49.66
888.412	-45.57
888.583	40.45
888.754	13.82
888.926	-51.71
889.097	24.06
889.268	9.73
889.44	97.79
889.611	34.3
889.782	42.5
889.953	-18.94
890.125	60.93
890.296	-8.7
890.467	46.59
890.638	-43.52
890.809	9.73
890.98	65.02
891.151	-23.04
891.323	65.02
891.494	67.07
891.665	38.4
891.836	7.68
892.007	40.45
892.178	112.13
892.349	54.78
892.52	-64
892.691	71.17
892.862	40.45
893.032	-51.71
893.203	13.82
893.374	40.45
893.545	85.5
893.716	15.87
893.887	60.93
894.057	11.78
894.228	28.16
894.399	56.83
894.57	-12.8
894.74	34.3
894.911	71.17
895.082	17.92
895.253	26.11
895.423	-8.7
895.594	44.54
895.764	30.21
895.935	-18.94
896.106	50.69
896.276	38.4
896.447	22.02
896.617	9.73
896.788	9.73
896.958	32.26
897.129	91.65
897.299	42.5
897.47	52.74
897.64	19.97
897.81	79.36
897.981	54.78
898.151	36.35
898.322	32.26
898.492	28.16
898.662	-23.04
898.832	28.16
899.003	1.54
899.173	46.59
899.343	75.26
899.513	-55.81
