Data from USB4F104151__14__12-27-02-516.txt Node

Date: Fri Mar 14 12:27:02 EDT 2025
User: louis
Spectrometer: USB4F10415
Trigger mode: 4
Integration Time (sec): 2.000000E-2
Scans to average: 1
Electric dark correction enabled: true
Nonlinearity correction enabled: false
Boxcar width: 0
XAxis mode: Wavelengths
Number of Pixels in Spectrum: 3648
>>>>>Begin Spectral Data<<<<<
178.204	-49.15
178.424	-49.15
178.644	-49.15
178.864	-90.11
179.084	-43.01
179.304	-53.25
179.524	-32.77
179.744	-65.54
179.964	73.73
180.184	-20.48
180.404	18.43
180.624	-8.19
180.844	55.3
181.064	-49.15
181.283	92.16
181.503	-88.06
181.723	77.82
181.943	-18.43
182.163	51.2
182.383	-26.62
182.602	34.82
182.822	4.1
183.042	98.3
183.262	26.62
183.482	0
183.701	22.53
183.921	-10.24
184.141	-26.62
184.361	83.97
184.58	16.38
184.8	10.24
185.02	2.05
185.239	4.1
185.459	16.38
185.679	16.38
185.898	12.29
186.118	71.68
186.338	-12.29
186.557	75.77
186.777	26.62
186.997	40.96
187.216	20.48
187.436	30.72
187.655	47.1
187.875	-16.38
188.095	-77.82
188.314	51.2
188.534	6.14
188.753	63.49
188.973	34.82
189.192	16.38
189.412	0
189.631	-59.39
189.851	38.91
190.07	57.34
190.29	-12.29
190.509	0
190.729	-20.48
190.948	65.53
191.168	16.38
191.387	18.43
191.607	65.53
191.826	38.91
192.045	-55.3
192.265	104.45
192.484	-12.29
192.704	-16.38
192.923	-40.96
193.142	32.77
193.362	61.44
193.581	69.63
193.8	86.01
194.02	45.06
194.239	79.87
194.458	14.34
194.678	-30.72
194.897	22.53
195.116	45.06
195.335	38.91
195.555	43.01
195.774	10.24
195.993	59.39
196.212	96.25
196.432	24.58
196.651	-10.24
196.87	51.2
197.089	47.1
197.308	14.34
197.528	67.58
197.747	34.82
197.966	79.87
198.185	14.34
198.404	-6.14
198.623	18.43
198.842	45.06
199.062	28.67
199.281	98.3
199.5	-24.58
199.719	32.77
199.938	73.73
200.157	122.88
200.376	22.53
200.595	55.3
200.814	55.3
201.033	26.62
201.252	92.16
201.471	30.72
201.69	-10.24
201.909	-2.05
202.128	124.93
202.347	32.77
202.566	28.67
202.785	-14.34
203.004	26.62
203.223	151.55
203.442	26.62
203.661	65.53
203.879	18.43
204.098	49.15
204.317	-24.58
204.536	38.91
204.755	40.96
204.974	34.82
205.193	-38.91
205.411	47.1
205.63	118.78
205.849	26.62
206.068	-28.67
206.287	114.69
206.505	-32.77
206.724	6.14
206.943	45.06
207.162	-28.67
207.381	45.06
207.599	55.3
207.818	-12.29
208.037	2.05
208.255	-6.14
208.474	38.91
208.693	-12.29
208.911	28.67
209.13	28.67
209.349	4.1
209.567	-2.05
209.786	75.77
210.005	61.44
210.223	-26.62
210.442	6.14
210.661	24.58
210.879	28.67
211.098	18.43
211.316	63.49
211.535	77.82
211.753	2.05
211.972	-16.38
212.191	10.24
212.409	30.72
212.628	63.49
212.846	65.53
213.065	83.97
213.283	86.01
213.502	34.82
213.72	8.19
213.938	-36.86
214.157	6.14
214.375	30.72
214.594	-63.49
214.812	139.26
215.031	-22.53
215.249	-4.1
215.467	20.48
215.686	79.87
215.904	14.34
216.122	20.48
216.341	59.39
216.559	2.05
216.778	47.1
216.996	6.14
217.214	59.39
217.432	14.34
217.651	-38.91
217.869	16.38
218.087	16.38
218.306	4.1
218.524	0
218.742	65.53
218.96	55.3
219.179	51.2
219.397	47.1
219.615	73.73
219.833	110.59
220.051	22.53
220.27	65.53
220.488	51.2
220.706	51.2
220.924	10.24
221.142	-20.48
221.36	71.68
221.578	-16.38
221.796	30.72
222.015	63.49
222.233	38.91
222.451	100.35
222.669	12.29
222.887	75.77
223.105	73.73
223.323	55.3
223.541	26.62
223.759	45.06
223.977	104.45
224.195	110.59
224.413	-6.14
224.631	8.19
224.849	57.34
225.067	-24.58
225.285	4.1
225.503	20.48
225.721	-14.34
225.939	43.01
226.157	55.3
226.375	90.11
226.592	-83.97
226.81	26.62
227.028	40.96
227.246	40.96
227.464	53.25
227.682	96.25
227.9	49.15
228.117	-36.86
228.335	55.3
228.553	112.64
228.771	0
228.989	104.45
229.206	-2.05
229.424	-22.53
229.642	12.29
229.86	20.48
230.077	8.19
230.295	59.39
230.513	4.1
230.731	57.34
230.948	51.2
231.166	20.48
231.384	98.3
231.601	88.06
231.819	40.96
232.037	55.3
232.254	38.91
232.472	47.1
232.689	61.44
232.907	32.77
233.125	18.43
233.342	-16.38
233.56	22.53
233.777	-51.2
233.995	49.15
234.213	24.58
234.43	-6.14
234.648	75.77
234.865	-18.43
235.083	77.82
235.3	32.77
235.518	-90.11
235.735	55.3
235.953	69.63
236.17	71.68
236.388	14.34
236.605	47.1
236.822	108.54
237.04	32.77
237.257	81.92
237.475	34.82
237.692	36.86
237.909	-2.05
238.127	-32.77
238.344	108.54
238.562	126.97
238.779	0
238.996	59.39
239.214	38.91
239.431	63.49
239.648	-8.19
239.865	45.06
240.083	63.49
240.3	100.35
240.517	45.06
240.735	30.72
240.952	69.63
241.169	57.34
241.386	-26.62
241.603	57.34
241.821	47.1
242.038	81.92
242.255	45.06
242.472	40.96
242.689	38.91
242.907	32.77
243.124	75.77
243.341	102.4
243.558	20.48
243.775	67.58
243.992	51.2
244.209	53.25
244.426	55.3
244.643	10.24
244.86	79.87
245.078	81.92
245.295	6.14
245.512	45.06
245.729	24.58
245.946	30.72
246.163	36.86
246.38	-32.77
246.597	40.96
246.814	86.01
247.031	-8.19
247.248	40.96
247.464	12.29
247.681	-14.34
247.898	28.67
248.115	51.2
248.332	-47.1
248.549	59.39
248.766	83.97
248.983	32.77
249.2	49.15
249.417	75.77
249.633	2.05
249.85	43.01
250.067	6.14
250.284	49.15
250.501	32.77
250.717	137.21
250.934	4.1
251.151	86.01
251.368	45.06
251.585	32.77
251.801	65.53
252.018	24.58
252.235	2.05
252.451	-90.11
252.668	8.19
252.885	65.53
253.102	61.44
253.318	45.06
253.535	30.72
253.752	-28.67
253.968	-30.72
254.185	63.49
254.401	69.63
254.618	43.01
254.835	116.73
255.051	36.86
255.268	-12.29
255.484	122.88
255.701	-18.43
255.917	6.14
256.134	-18.43
256.351	-36.86
256.567	-4.1
256.784	-8.19
257	73.73
257.217	38.91
257.433	2.05
257.65	55.3
257.866	65.53
258.082	55.3
258.299	-32.77
258.515	38.91
258.732	-38.91
258.948	30.72
259.165	-30.72
259.381	90.11
259.597	2.05
259.814	6.14
260.03	30.72
260.246	73.73
260.463	149.5
260.679	34.82
260.895	10.24
261.112	32.77
261.328	-4.1
261.544	26.62
261.761	26.62
261.977	8.19
262.193	-18.43
262.409	69.63
262.626	90.11
262.842	-6.14
263.058	12.29
263.274	2.05
263.49	-18.43
263.707	49.15
263.923	-6.14
264.139	20.48
264.355	94.21
264.571	0
264.787	-4.1
265.004	71.68
265.22	55.3
265.436	43.01
265.652	28.67
265.868	32.77
266.084	-12.29
266.3	102.4
266.516	-36.86
266.732	43.01
266.948	63.49
267.164	61.44
267.38	63.49
267.596	6.14
267.812	71.68
268.028	159.74
268.244	67.58
268.46	8.19
268.676	22.53
268.892	49.15
269.108	0
269.324	10.24
269.54	8.19
269.756	79.87
269.972	32.77
270.188	-18.43
270.403	12.29
270.619	20.48
270.835	-34.82
271.051	67.58
271.267	81.92
271.483	38.91
271.698	65.53
271.914	28.67
272.13	59.39
272.346	6.14
272.562	-40.96
272.777	47.1
272.993	55.3
273.209	6.14
273.425	28.67
273.64	-16.38
273.856	73.73
274.072	38.91
274.287	45.06
274.503	22.53
274.719	36.86
274.934	16.38
275.15	14.34
275.366	34.82
275.581	40.96
275.797	22.53
276.012	22.53
276.228	12.29
276.444	26.62
276.659	49.15
276.875	20.48
277.09	75.77
277.306	43.01
277.521	67.58
277.737	8.19
277.952	16.38
278.168	24.58
278.383	26.62
278.599	6.14
278.814	45.06
279.03	-77.82
279.245	43.01
279.461	14.34
279.676	14.34
279.892	8.19
280.107	-51.2
280.322	32.77
280.538	53.25
280.753	28.67
280.969	63.49
281.184	38.91
281.399	102.4
281.615	-2.05
281.83	67.58
282.045	47.1
282.26	79.87
282.476	57.34
282.691	96.25
282.906	28.67
283.122	104.45
283.337	47.1
283.552	36.86
283.767	-12.29
283.983	40.96
284.198	-40.96
284.413	83.97
284.628	16.38
284.843	73.73
285.058	40.96
285.274	20.48
285.489	51.2
285.704	32.77
285.919	-16.38
286.134	18.43
286.349	114.69
286.564	75.77
286.779	-10.24
286.995	118.78
287.21	-2.05
287.425	30.72
287.64	57.34
287.855	34.82
288.07	8.19
288.285	10.24
288.5	65.53
288.715	53.25
288.93	63.49
289.145	-10.24
289.36	63.49
289.575	30.72
289.79	100.35
290.004	71.68
290.219	18.43
290.434	98.3
290.649	2.05
290.864	45.06
291.079	22.53
291.294	94.21
291.509	38.91
291.724	75.77
291.938	98.3
292.153	98.3
292.368	51.2
292.583	67.58
292.798	-24.58
293.012	34.82
293.227	81.92
293.442	59.39
293.657	24.58
293.871	4.1
294.086	-28.67
294.301	90.11
294.516	30.72
294.73	98.3
294.945	4.1
295.16	69.63
295.374	86.01
295.589	61.44
295.804	16.38
296.018	53.25
296.233	135.17
296.447	49.15
296.662	55.3
296.877	43.01
297.091	73.73
297.306	114.69
297.52	-2.05
297.735	55.3
297.949	59.39
298.164	57.34
298.378	75.77
298.593	61.44
298.807	-2.05
299.022	16.38
299.236	24.58
299.451	38.91
299.665	61.44
299.88	34.82
300.094	28.67
300.309	-8.19
300.523	28.67
300.737	49.15
300.952	32.77
301.166	57.34
301.381	36.86
301.595	-26.62
301.809	49.15
302.024	57.34
302.238	-24.58
302.452	110.59
302.667	114.69
302.881	83.97
303.095	0
303.309	47.1
303.524	34.82
303.738	16.38
303.952	-59.39
304.166	12.29
304.381	12.29
304.595	2.05
304.809	-10.24
305.023	67.58
305.237	55.3
305.452	12.29
305.666	59.39
305.88	20.48
306.094	55.3
306.308	32.77
306.522	12.29
306.736	98.3
306.95	28.67
307.164	6.14
307.379	81.92
307.593	75.77
307.807	86.01
308.021	40.96
308.235	43.01
308.449	-6.14
308.663	4.1
308.877	57.34
309.091	38.91
309.305	45.06
309.519	-24.58
309.733	34.82
309.947	-24.58
310.161	40.96
310.374	0
310.588	30.72
310.802	12.29
311.016	-18.43
311.23	36.86
311.444	6.14
311.658	57.34
311.872	88.06
312.085	55.3
312.299	14.34
312.513	18.43
312.727	20.48
312.941	-6.14
313.154	36.86
313.368	43.01
313.582	16.38
313.796	75.77
314.009	-49.15
314.223	47.1
314.437	38.91
314.651	55.3
314.864	96.25
315.078	53.25
315.292	-8.19
315.505	118.78
315.719	-2.05
315.933	45.06
316.146	43.01
316.36	106.49
316.573	-16.38
316.787	147.45
317.001	6.14
317.214	-10.24
317.428	34.82
317.641	28.67
317.855	57.34
318.068	18.43
318.282	61.44
318.495	36.86
318.709	16.38
318.922	108.54
319.136	96.25
319.349	22.53
319.563	-2.05
319.776	69.63
319.99	73.73
320.203	-12.29
320.417	-10.24
320.63	-16.38
320.843	67.58
321.057	38.91
321.27	18.43
321.483	49.15
321.697	-16.38
321.91	32.77
322.124	63.49
322.337	0
322.55	32.77
322.763	28.67
322.977	2.05
323.19	24.58
323.403	22.53
323.617	114.69
323.83	116.73
324.043	73.73
324.256	63.49
324.469	28.67
324.683	47.1
324.896	63.49
325.109	26.62
325.322	69.63
325.535	38.91
325.748	-4.1
325.962	79.87
326.175	63.49
326.388	73.73
326.601	65.53
326.814	75.77
327.027	30.72
327.24	79.87
327.453	8.19
327.666	30.72
327.879	43.01
328.092	133.12
328.305	24.58
328.518	133.12
328.731	-18.43
328.944	71.68
329.157	86.01
329.37	102.4
329.583	110.59
329.796	96.25
330.009	-12.29
330.222	14.34
330.435	14.34
330.648	65.53
330.861	71.68
331.073	4.1
331.286	14.34
331.499	122.88
331.712	10.24
331.925	-12.29
332.138	30.72
332.35	114.69
332.563	40.96
332.776	73.73
332.989	18.43
333.202	73.73
333.414	-8.19
333.627	75.77
333.84	-49.15
334.053	53.25
334.265	116.73
334.478	24.58
334.691	2.05
334.903	6.14
335.116	59.39
335.329	83.97
335.541	90.11
335.754	145.41
335.966	90.11
336.179	55.3
336.392	61.44
336.604	79.87
336.817	114.69
337.029	65.53
337.242	10.24
337.454	49.15
337.667	90.11
337.88	94.21
338.092	110.59
338.305	32.77
338.517	65.53
338.729	83.97
338.942	26.62
339.154	59.39
339.367	-8.19
339.579	28.67
339.792	-12.29
340.004	49.15
340.217	34.82
340.429	88.06
340.641	32.77
340.854	30.72
341.066	24.58
341.278	40.96
341.491	26.62
341.703	45.06
341.915	26.62
342.128	90.11
342.34	8.19
342.552	98.3
342.764	86.01
342.977	65.53
343.189	57.34
343.401	20.48
343.613	51.2
343.826	83.97
344.038	79.87
344.25	81.92
344.462	71.68
344.674	14.34
344.886	20.48
345.099	77.82
345.311	77.82
345.523	40.96
345.735	57.34
345.947	12.29
346.159	53.25
346.371	61.44
346.583	-8.19
346.795	106.49
347.007	32.77
347.219	47.1
347.431	20.48
347.643	43.01
347.855	75.77
348.067	55.3
348.279	122.88
348.491	71.68
348.703	75.77
348.915	55.3
349.127	43.01
349.339	20.48
349.551	36.86
349.763	51.2
349.975	40.96
350.187	100.35
350.399	116.73
350.61	122.88
350.822	55.3
351.034	61.44
351.246	79.87
351.458	90.11
351.669	53.25
351.881	112.64
352.093	28.67
352.305	96.25
352.517	98.3
352.728	71.68
352.94	14.34
353.152	45.06
353.363	26.62
353.575	90.11
353.787	77.82
353.999	36.86
354.21	118.78
354.422	26.62
354.633	0
354.845	67.58
355.057	10.24
355.268	83.97
355.48	106.49
355.692	-49.15
355.903	18.43
356.115	61.44
356.326	38.91
356.538	98.3
356.749	-20.48
356.961	71.68
357.172	8.19
357.384	59.39
357.595	59.39
357.807	26.62
358.018	57.34
358.23	129.02
358.441	69.63
358.653	120.83
358.864	79.87
359.075	36.86
359.287	51.2
359.498	92.16
359.709	116.73
359.921	159.74
360.132	45.06
360.344	55.3
360.555	-2.05
360.766	32.77
360.977	59.39
361.189	90.11
361.4	94.21
361.611	65.53
361.823	26.62
362.034	32.77
362.245	129.02
362.456	81.92
362.667	53.25
362.879	81.92
363.09	51.2
363.301	18.43
363.512	65.53
363.723	65.53
363.935	71.68
364.146	81.92
364.357	137.21
364.568	49.15
364.779	47.1
364.99	43.01
365.201	10.24
365.412	120.83
365.623	38.91
365.834	0
366.045	92.16
366.256	90.11
366.467	14.34
366.678	75.77
366.889	45.06
367.1	129.02
367.311	61.44
367.522	65.53
367.733	63.49
367.944	43.01
368.155	40.96
368.366	57.34
368.577	45.06
368.788	34.82
368.999	34.82
369.209	98.3
369.42	79.87
369.631	104.45
369.842	102.4
370.053	102.4
370.264	86.01
370.474	114.69
370.685	73.73
370.896	53.25
371.107	4.1
371.317	88.06
371.528	92.16
371.739	81.92
371.95	55.3
372.16	36.86
372.371	34.82
372.582	22.53
372.792	26.62
373.003	55.3
373.214	71.68
373.424	28.67
373.635	63.49
373.846	104.45
374.056	57.34
374.267	100.35
374.477	53.25
374.688	45.06
374.898	126.97
375.109	45.06
375.319	86.01
375.53	165.89
375.74	16.38
375.951	75.77
376.161	92.16
376.372	120.83
376.582	59.39
376.793	40.96
377.003	67.58
377.214	38.91
377.424	92.16
377.635	75.77
377.845	86.01
378.055	139.26
378.266	47.1
378.476	45.06
378.686	96.25
378.897	88.06
379.107	86.01
379.317	47.1
379.528	100.35
379.738	114.69
379.948	26.62
380.158	94.21
380.369	75.77
380.579	135.17
380.789	30.72
380.999	88.06
381.21	6.14
381.42	90.11
381.63	40.96
381.84	137.21
382.05	12.29
382.261	124.93
382.471	38.91
382.681	43.01
382.891	110.59
383.101	67.58
383.311	22.53
383.521	81.92
383.731	94.21
383.941	169.98
384.151	30.72
384.361	116.73
384.571	32.77
384.781	92.16
384.991	139.26
385.201	77.82
385.411	63.49
385.621	49.15
385.831	55.3
386.041	98.3
386.251	94.21
386.461	63.49
386.671	59.39
386.881	110.59
387.091	83.97
387.301	40.96
387.511	55.3
387.72	112.64
387.93	151.55
388.14	65.53
388.35	61.44
388.56	110.59
388.769	139.26
388.979	67.58
389.189	79.87
389.399	165.89
389.609	118.78
389.818	94.21
390.028	120.83
390.238	118.78
390.447	79.87
390.657	28.67
390.867	102.4
391.076	86.01
391.286	116.73
391.496	77.82
391.705	-59.39
391.915	112.64
392.125	57.34
392.334	102.4
392.544	106.49
392.753	51.2
392.963	45.06
393.172	96.25
393.382	86.01
393.591	67.58
393.801	34.82
394.01	161.79
394.22	159.74
394.429	108.54
394.639	124.93
394.848	67.58
395.058	51.2
395.267	112.64
395.477	98.3
395.686	165.89
395.895	106.49
396.105	167.93
396.314	55.3
396.524	81.92
396.733	104.45
396.942	126.97
397.152	145.41
397.361	88.06
397.57	131.07
397.78	124.93
397.989	159.74
398.198	155.65
398.407	88.06
398.617	83.97
398.826	180.22
399.035	118.78
399.244	147.45
399.453	114.69
399.663	71.68
399.872	92.16
400.081	141.31
400.29	135.17
400.499	67.58
400.708	180.22
400.917	86.01
401.127	233.47
401.336	182.27
401.545	174.08
401.754	180.22
401.963	139.26
402.172	120.83
402.381	112.64
402.59	157.69
402.799	167.93
403.008	157.69
403.217	137.21
403.426	192.51
403.635	110.59
403.844	122.88
404.053	169.98
404.262	100.35
404.471	210.94
404.68	165.89
404.888	75.77
405.097	190.46
405.306	167.93
405.515	188.41
405.724	182.27
405.933	204.8
406.142	190.46
406.35	186.37
406.559	163.84
406.768	280.57
406.977	210.94
407.185	204.8
407.394	223.23
407.603	217.08
407.812	251.9
408.02	284.67
408.229	294.91
408.438	172.03
408.646	200.7
408.855	276.48
409.064	311.29
409.272	333.82
409.481	321.53
409.69	307.2
409.898	303.1
410.107	403.45
410.315	372.73
410.524	366.59
410.733	393.21
410.941	358.39
411.15	468.98
411.358	417.79
411.567	503.8
411.775	497.66
411.984	579.58
412.192	477.18
412.401	524.28
412.609	503.8
412.818	538.62
413.026	563.19
413.234	602.1
413.443	729.08
413.651	628.73
413.86	620.53
414.068	686.07
414.276	765.94
414.485	661.49
414.693	772.08
414.901	800.76
415.11	788.47
415.318	843.76
415.526	929.78
415.734	905.2
415.943	917.49
416.151	925.68
416.359	892.91
416.567	983.02
416.776	1044.46
416.984	1204.21
417.192	1161.2
417.4	1189.87
417.608	1216.49
417.817	1110
418.025	1312.75
418.233	1433.58
418.441	1290.22
418.649	1394.67
418.857	1366
419.065	1368.04
419.273	1523.69
419.481	1644.52
419.689	1779.68
419.897	1755.11
420.105	1775.59
420.313	1918.95
420.521	1961.95
420.729	1834.98
420.937	1980.39
421.145	2033.63
421.353	2142.18
421.561	2193.37
421.769	2297.82
421.977	2381.79
422.185	2379.74
422.393	2514.91
422.601	2627.54
422.809	2662.36
423.017	2682.84
423.224	2877.4
423.432	2971.6
423.64	2852.82
423.848	3139.54
424.056	3264.46
424.263	3397.58
424.471	3272.65
424.679	3405.77
424.887	3624.9
425.094	3739.59
425.302	3700.68
425.51	3891.14
425.718	4087.75
425.925	3948.48
426.133	4132.8
426.341	4356.03
426.548	4714.42
426.756	4689.85
426.964	4659.13
427.171	4904.89
427.379	5101.49
427.586	5214.13
427.794	5384.11
428.001	5650.35
428.209	5857.19
428.417	5793.7
428.624	6154.15
428.832	6125.47
429.039	6236.06
429.247	6166.43
429.454	6610.84
429.662	7294.86
429.869	6809.5
430.076	7423.89
430.284	6950.81
430.491	7255.95
430.699	7851.91
430.906	7563.15
431.114	7970.69
431.321	7964.55
431.528	8075.14
431.736	9006.97
431.943	9066.36
432.15	8943.48
432.358	9160.56
432.565	9588.59
432.772	9424.75
432.979	10076.01
433.187	10211.17
433.394	10135.4
433.601	11040.6
433.808	11151.19
434.016	11026.26
434.223	11364.18
434.43	12199.75
434.637	11835.21
434.844	12500.8
435.052	12904.25
435.259	12517.18
435.466	12732.22
435.673	12799.8
435.88	13705.01
436.087	14090.02
436.294	14409.51
436.501	13999.91
436.708	14317.35
436.915	14673.7
437.122	15388.44
437.329	15404.82
437.537	15795.98
437.743	16031.5
437.95	16062.22
438.157	17209.08
438.364	17256.18
438.571	17391.35
438.778	17561.33
438.985	19486.42
439.192	18454.25
439.399	18966.24
439.606	18824.93
439.813	19642.07
440.02	20657.86
440.227	20307.66
440.433	20516.55
440.64	20952.77
440.847	21046.97
441.054	21214.91
441.261	22705.83
441.467	22546.09
441.674	22998.69
441.881	24196.75
442.088	24141.46
442.294	23551.64
442.501	24331.92
442.708	24872.58
442.914	25632.38
443.121	26998.37
443.328	26021.49
443.534	27741.78
443.741	27461.21
443.948	27022.95
444.154	29025.86
444.361	28640.84
444.568	29126.21
444.774	29040.2
444.981	29410.88
445.187	30080.56
445.394	31673.88
445.6	31016.49
445.807	34127.35
446.013	32421.39
446.22	33205.77
446.426	34606.58
446.633	34844.14
446.839	36203.99
447.046	34586.1
447.252	36406.74
447.459	36613.59
447.665	36353.49
447.871	37977.53
448.078	40052.12
448.284	37596.61
448.491	38837.68
448.697	40353.18
448.903	41250.19
449.11	41178.51
449.316	40576.4
449.522	41385.35
449.728	42464.63
449.935	42552.69
450.141	42696.05
450.347	43679.08
450.553	42141.05
450.76	43044.21
450.966	44672.34
451.172	43838.82
451.378	45126.99
451.584	44141.92
451.791	44844.37
451.997	45165.9
452.203	45710.66
452.409	45649.22
452.615	45368.65
452.821	43814.24
453.027	43418.99
453.233	45870.4
453.44	44062.05
453.646	44715.35
453.852	44676.44
454.058	45520.2
454.264	44260.7
454.47	44862.8
454.676	43588.97
454.882	45296.97
455.088	41547.14
455.294	41840
455.5	42841.46
455.705	43167.09
455.911	41809.28
456.117	40699.28
456.323	40263.07
456.529	38059.45
456.735	39755.17
456.941	38665.65
457.147	38331.83
457.352	37189.06
457.558	36849.1
457.764	36863.44
457.97	36046.3
458.176	34883.05
458.381	35481.06
458.587	33674.75
458.793	33353.22
458.999	32116.25
459.204	34031.1
459.41	33228.29
459.616	31045.16
459.821	30813.74
460.027	31135.27
460.233	30604.85
460.438	29126.21
460.644	29300.29
460.85	27616.86
461.055	27534.94
461.261	27145.83
461.466	25673.34
461.672	24542.86
461.878	26263.15
462.083	24786.57
462.289	24053.39
462.494	23824.02
462.7	22941.35
462.905	22286
463.111	22953.63
463.316	23305.88
463.522	22671.01
463.727	22967.97
463.932	22466.22
464.138	22425.26
464.343	22435.5
464.549	21540.54
464.754	22795.94
464.959	22146.73
465.165	22306.48
465.37	21409.47
465.575	20674.24
465.781	21577.4
465.986	21657.27
466.191	20971.2
466.397	20408.01
466.602	19613.4
466.807	20090.57
467.012	20321.99
467.218	20358.86
467.423	20106.96
467.628	20113.1
467.833	20782.79
468.038	19771.09
468.244	19908.3
468.449	20498.12
468.654	19678.93
468.859	19318.49
469.064	19431.13
469.269	18616.04
469.474	18589.41
469.679	19230.43
469.885	18577.12
470.09	19003.1
470.295	18904.8
470.5	18501.35
470.705	18386.66
470.91	18130.67
471.115	17731.31
471.32	18130.67
471.525	18132.72
471.73	17491.7
471.935	17669.87
472.139	17063.68
472.344	17250.04
472.549	17057.53
472.754	16848.64
472.959	16408.33
473.164	16342.79
473.369	16121.61
473.574	16686.85
473.778	16328.45
473.983	16094.99
474.188	16133.9
474.393	15464.21
474.598	15378.2
474.802	15292.18
475.007	15304.47
475.212	15281.94
475.417	14749.47
475.621	14640.93
475.826	14966.56
476.031	14573.35
476.235	14249.77
476.44	14579.49
476.645	14128.94
476.849	14047.02
477.054	14081.83
477.259	13856.56
477.463	13825.84
477.668	13567.79
477.872	13688.62
478.077	13299.51
478.282	13137.72
478.486	13076.28
478.691	12789.56
478.895	13070.14
479.1	12799.8
479.304	12885.82
479.509	12625.73
479.713	12738.37
479.918	12480.32
480.122	12189.51
480.326	12486.47
480.531	12414.79
480.735	12322.63
480.94	11974.47
481.144	12474.18
481.348	12035.91
481.553	12103.5
481.757	12091.21
481.961	12203.85
482.166	12230.47
482.37	12060.49
482.574	11712.33
482.778	11796.3
482.983	12160.84
483.187	12052.3
483.391	12119.88
483.595	11829.07
483.8	11831.12
484.004	11870.03
484.208	12060.49
484.412	12083.02
484.616	11702.09
484.821	11757.39
485.025	11558.74
485.229	11992.9
485.433	11741
485.637	11861.83
485.841	11794.25
486.045	11771.72
486.249	11884.36
486.453	11800.4
486.657	12056.39
486.861	11886.41
487.065	11769.68
487.269	12136.26
487.473	11804.49
487.677	11982.67
487.881	12074.82
488.085	11990.86
488.289	12085.06
488.493	11886.41
488.697	12042.06
488.901	11761.48
489.105	12207.94
489.309	11927.37
489.512	12021.58
489.716	12005.19
489.92	11892.55
490.124	12003.14
490.328	12330.82
490.531	12103.5
490.735	12209.99
490.939	12574.53
491.143	12152.65
491.346	12300.1
491.55	12455.75
491.754	12382.02
491.958	12521.28
492.161	12269.38
492.365	12687.17
492.569	12635.97
492.772	12601.15
492.976	12742.46
493.18	12588.86
493.383	13023.03
493.587	12953.4
493.79	13002.55
493.994	12773.18
494.197	13008.7
494.401	13178.68
494.605	13199.16
494.808	13426.48
495.012	13510.45
495.215	13575.98
495.419	13827.88
495.622	13651.76
495.825	13668.14
496.029	13899.56
496.232	14282.53
496.436	14169.9
496.639	14458.66
496.843	14417.7
497.046	14661.41
497.249	14663.46
497.453	14761.76
497.656	14948.12
497.859	15144.73
498.063	15445.78
498.266	15685.39
498.469	15605.52
498.673	15533.84
498.876	15861.52
499.079	15980.3
499.282	16107.27
499.485	16514.82
499.689	16541.44
499.892	16600.83
500.095	16914.17
500.298	17123.07
500.501	17014.52
500.705	17569.52
500.908	17587.96
501.111	17790.7
501.314	17702.64
501.517	18177.77
501.72	18435.81
501.923	18444.01
502.126	18933.47
502.329	19064.54
502.532	19316.44
502.735	19246.81
502.938	19533.53
503.141	19654.36
503.344	20082.38
503.547	19900.11
503.75	20580.04
503.953	20752.07
504.156	20752.07
504.359	20854.47
504.562	21171.9
504.765	21583.54
504.968	21745.33
505.17	22027.95
505.373	21747.38
505.576	22474.41
505.779	22935.2
505.982	22843.04
506.185	23142.05
506.387	23459.48
506.59	23336.6
506.793	24315.53
506.996	24045.2
507.198	24557.19
507.401	24284.81
507.604	24739.46
507.807	25214.59
508.009	25112.19
508.212	25220.74
508.415	26064.5
508.617	26019.44
508.82	25816.69
509.022	26246.77
509.225	26818.15
509.428	27385.44
509.63	27119.2
509.833	27235.94
510.035	27924.05
510.238	27496.03
510.44	28489.29
510.643	28704.33
510.845	28907.08
511.048	28794.44
511.25	29230.66
511.453	29226.56
511.655	30402.1
511.858	30221.87
512.06	30303.79
512.262	30633.52
512.465	30795.31
512.667	31112.74
512.87	31319.59
513.072	31512.1
513.274	32058.9
513.477	32273.94
513.679	32644.62
513.881	32822.8
514.084	33515.01
514.286	33254.92
514.488	33302.02
514.69	34459.12
514.893	34549.23
515.095	34217.46
515.297	34891.24
515.499	35091.94
515.701	35372.52
515.904	35675.62
516.106	35747.29
516.308	36371.92
516.51	36773.33
516.712	36517.33
516.914	37232.07
517.116	37545.41
517.318	37393.86
517.52	38129.08
517.722	38378.93
517.925	38602.16
518.127	38905.26
518.329	39277.99
518.531	38895.02
518.733	39802.27
518.935	40033.69
519.136	40045.98
519.338	40523.16
519.54	40508.82
519.742	41414.02
519.944	41289.1
520.146	42259.84
520.348	42003.84
520.55	42257.79
520.752	42513.78
520.954	43244.91
521.155	42745.2
521.357	43619.69
521.559	43613.54
521.761	43973.98
521.963	43885.92
522.164	44369.24
522.366	44488.03
522.568	44789.08
522.77	44995.92
522.971	45638.98
523.173	45186.38
523.375	45657.42
523.576	45612.36
523.778	45854.02
523.98	46634.3
524.181	46548.28
524.383	47023.41
524.584	47324.46
524.786	47314.22
524.988	47066.42
525.189	47535.4
525.391	47858.98
525.592	48024.87
525.794	48252.19
525.995	48219.42
526.197	48403.74
526.398	48510.24
526.6	49112.34
526.801	48842.01
527.003	49265.94
527.204	49284.37
527.406	49736.97
527.607	49480.97
527.808	50083.08
528.01	49249.55
528.211	49423.63
528.412	50883.83
528.614	50728.19
528.815	50160.9
529.016	50791.67
529.218	50107.65
529.419	50384.13
529.62	50296.06
529.822	50353.41
530.023	50197.76
530.224	51074.29
530.425	50902.26
530.626	50470.14
530.828	50464
531.029	51289.33
531.23	50947.32
531.431	50955.51
531.632	51252.47
531.833	51219.7
532.035	51434.74
532.236	51541.23
532.437	51533.04
532.638	51098.87
532.839	51334.38
533.04	52114.66
533.241	51309.81
533.442	51832.04
533.643	51361.01
533.844	51555.57
534.045	51774.7
534.246	51256.56
534.447	52151.52
534.648	51764.46
534.849	51766.51
535.05	51404.02
535.251	52245.73
535.451	51719.4
535.652	51952.87
535.853	51594.48
536.054	51954.92
536.255	51942.63
536.456	51875.05
536.657	52704.48
536.857	51727.59
537.058	51516.65
537.259	52016.36
537.46	52108.52
537.66	51881.19
537.861	52008.17
538.062	51703.02
538.263	51987.69
538.463	51762.41
538.664	51754.22
538.865	51807.47
539.065	51709.16
539.266	51510.51
539.466	52384.99
539.667	51356.91
539.868	52274.4
540.068	51832.04
540.269	51690.73
540.469	51989.73
540.67	51457.26
540.87	52042.98
541.071	51924.2
541.271	51856.62
541.472	51827.95
541.672	51469.55
541.873	51819.75
542.073	51176.69
542.274	52149.48
542.474	51559.66
542.675	51588.33
542.875	52229.35
543.075	51963.11
543.276	51105.01
543.476	52311.27
543.676	50828.54
543.877	51530.99
544.077	51408.11
544.277	51530.99
544.478	51264.75
544.678	51723.5
544.878	51574
545.078	51700.97
545.279	51336.43
545.479	51553.52
545.679	51928.3
545.879	51508.46
546.079	51315.95
546.28	51582.19
546.48	51340.53
546.68	51463.41
546.88	51729.64
547.08	51074.29
547.28	51340.53
547.48	50808.06
547.68	51301.62
547.88	51287.28
548.081	51467.5
548.281	51524.85
548.481	50994.42
548.681	51420.4
548.881	51473.65
549.081	51279.09
549.28	50873.59
549.48	51625.2
549.68	51412.21
549.88	51981.54
550.08	51254.51
550.28	51541.23
550.48	51240.18
550.68	51690.73
550.88	51084.53
551.08	51160.31
551.279	51268.85
551.479	51039.48
551.679	50922.74
551.879	51492.08
552.079	51152.12
552.278	51549.42
552.478	51188.98
552.678	50967.8
552.878	51553.52
553.077	51248.37
553.277	51170.55
553.477	51666.16
553.676	50978.04
553.876	51379.44
554.076	51238.13
554.275	50863.35
554.475	50552.06
554.674	51119.35
554.874	50818.3
555.074	50566.4
555.273	50781.43
555.473	51479.79
555.672	50636.03
555.872	51098.87
556.071	50869.5
556.271	51109.11
556.47	50617.6
556.67	50410.75
556.869	50525.44
557.068	50578.68
557.268	50509.05
557.467	50846.97
557.667	50574.59
557.866	50588.92
558.065	50730.23
558.265	50386.18
558.464	50152.71
558.663	50357.5
558.863	49767.69
559.062	50713.85
559.261	49679.63
559.461	50478.33
559.66	50003.2
559.859	50316.54
560.058	50015.49
560.258	49917.19
560.457	49839.37
560.656	49724.68
560.855	49681.67
561.054	50214.15
561.253	49384.72
561.453	50033.92
561.652	50038.02
561.851	49755.4
562.05	49480.97
562.249	49331.47
562.448	49837.32
562.647	49394.96
562.846	49579.28
563.045	49603.85
563.244	49098
563.443	49622.28
563.642	49067.28
563.841	49442.06
564.04	48819.48
564.239	49827.08
564.438	48790.81
564.637	49259.79
564.836	49501.45
565.035	48737.56
565.234	49026.32
565.432	48581.91
565.631	48514.33
565.83	48631.07
566.029	48428.32
566.228	48799
566.427	48547.1
566.625	48379.17
566.824	47850.79
567.023	48837.91
567.222	47826.21
567.42	48143.65
567.619	48121.12
567.818	47754.54
568.016	47828.26
568.215	48481.56
568.414	48020.77
568.612	48174.37
568.811	47480.11
569.01	47433
569.208	47220.02
569.407	47818.02
569.605	46845.24
569.804	47521.07
570.002	46931.25
570.201	47170.86
570.4	46781.75
570.598	46798.13
570.797	47023.41
570.995	46640.44
571.193	46607.67
571.392	47086.9
571.59	46429.5
571.789	46155.07
571.987	46140.74
572.186	46521.66
572.384	46404.92
572.582	46861.62
572.781	46394.68
572.979	45917.51
573.177	46124.35
573.376	46021.95
573.574	45638.98
573.772	46026.05
573.971	45589.83
574.169	45921.6
574.367	45634.89
574.565	45761.86
574.763	44856.66
574.962	45088.08
575.16	45040.98
575.358	45200.72
575.556	44748.12
575.754	45034.83
575.952	44518.74
576.151	45219.15
576.349	44338.52
576.547	44299.61
576.745	44479.83
576.943	44907.86
577.141	44399.96
577.339	44361.05
577.537	44303.71
577.735	44420.44
577.933	44131.68
578.131	44213.6
578.329	43660.65
578.527	44062.05
578.725	43861.35
578.923	43789.67
579.121	43279.72
579.319	42995.06
579.516	43806.05
579.714	43441.51
579.912	43091.31
580.11	43744.61
580.308	43461.99
580.506	43009.39
580.704	42126.72
580.901	42825.07
581.099	43062.64
581.297	42524.02
581.495	42532.21
581.692	42532.21
581.89	42341.75
582.088	42495.35
582.285	42255.74
582.483	42296.7
582.681	41997.7
582.878	41934.21
583.076	42014.08
583.274	41964.93
583.471	41158.03
583.669	41760.13
583.866	41407.88
584.064	41721.22
584.262	41151.88
584.459	41522.57
584.657	40887.7
584.854	41659.78
585.052	40709.52
585.249	40899.98
585.447	40977.81
585.644	40240.54
585.841	40547.73
586.039	40764.82
586.236	40236.44
586.434	40019.36
586.631	40246.68
586.828	40279.45
587.026	40326.55
587.223	40322.46
587.42	40050.08
587.618	39949.73
587.815	39851.42
588.012	39558.56
588.21	39458.21
588.407	39624.1
588.604	39318.95
588.801	39243.18
588.999	39157.16
589.196	39374.25
589.393	38716.85
589.59	38563.25
589.787	38524.34
589.984	38479.28
590.182	38548.92
590.379	38722.99
590.576	38155.71
590.773	38413.75
590.97	38006.2
591.167	38249.91
591.364	37545.41
591.561	38258.1
591.758	38114.75
591.955	37955
592.152	37705.15
592.349	37240.26
592.546	37520.84
592.743	37367.24
592.94	36732.37
593.137	37178.82
593.334	37123.53
593.531	36738.51
593.727	36861.39
593.924	36734.42
594.121	36433.36
594.318	37021.13
594.515	36279.77
594.712	36935.12
594.908	36062.68
595.105	36419.03
595.302	36199.9
595.499	36074.97
595.696	35775.97
595.892	35515.87
596.089	35880.41
596.286	35943.9
596.482	35444.2
596.679	35735.01
596.876	35726.81
597.072	35122.66
597.269	35399.14
597.466	34850.28
597.662	35306.98
597.859	35079.66
598.055	34948.59
598.252	34291.19
598.448	34876.91
598.645	34504.18
598.841	34237.94
599.038	34553.33
599.234	34561.52
599.431	34102.78
599.627	34172.41
599.824	34223.61
600.02	33902.07
600.217	34153.97
600.413	33318.4
600.609	33728
600.806	33359.36
601.002	33756.67
601.198	33340.93
601.395	33269.25
601.591	32781.84
601.787	33177.09
601.984	33031.69
602.18	33080.84
602.376	32486.93
602.572	32654.86
602.769	32882.19
602.965	32650.77
603.161	32800.27
603.357	32564.75
603.553	32189.97
603.75	32284.18
603.946	32101.91
604.142	32171.54
604.338	31852.06
604.534	32073.24
604.73	31921.69
604.926	31360.55
605.122	31575.58
605.318	31424.03
605.514	31262.24
605.71	31415.84
605.906	31233.57
606.102	31342.11
606.298	31565.34
606.494	31051.3
606.69	31221.28
606.886	31143.46
607.082	30703.15
607.278	31198.76
607.474	30500.4
607.67	30914.09
607.866	30295.6
608.062	30424.62
608.257	30387.76
608.453	30625.32
608.649	30414.38
608.845	29949.49
609.041	30361.14
609.236	30430.77
609.432	30383.66
609.628	30139.96
609.824	30205.49
610.019	30094.9
610.215	30187.06
610.411	30025.27
610.606	30055.99
610.802	29775.42
610.998	29668.92
611.193	29810.23
611.389	29617.72
611.584	29500.99
611.78	29324.86
611.976	29544
612.171	29470.27
612.367	29318.72
612.562	29394.5
612.758	28905.03
612.953	29380.16
613.149	29181.51
613.344	28958.28
613.539	29564.48
613.735	29214.27
613.93	29085.25
614.126	28894.79
614.321	29077.06
614.517	28872.26
614.712	28843.59
614.907	28401.23
615.103	29050.44
615.298	28606.03
615.493	29179.46
615.688	28460.62
615.884	29052.48
616.079	28257.87
616.274	28405.33
616.47	28337.74
616.665	28485.2
616.86	28335.7
617.055	28264.02
617.25	28456.53
617.445	28556.88
617.641	27618.91
617.836	28417.61
618.031	27620.95
618.226	27713.11
618.421	27725.4
618.616	28178
618.811	27467.36
619.006	27700.83
619.201	27410.01
619.396	27651.67
619.591	27129.44
619.786	27182.69
619.981	27014.76
620.176	27344.48
620.371	26766.95
620.566	26818.15
620.761	26867.3
620.956	26715.75
621.151	26173.04
621.346	26445.42
621.541	26224.24
621.735	26189.42
621.93	25890.42
622.125	25835.13
622.32	25673.34
622.515	25659
622.709	25736.82
622.904	25460.35
623.099	25308.8
623.294	25388.67
623.488	24878.72
623.683	25278.08
623.878	24704.65
624.072	24718.98
624.267	24534.67
624.462	24450.7
624.656	24428.17
624.851	24252.05
625.046	23940.75
625.24	24096.4
625.435	23660.18
625.629	23641.75
625.824	23502.49
626.018	23271.07
626.213	22836.9
626.407	23279.26
626.602	22863.52
626.796	23039.65
626.991	23142.05
627.185	22742.69
627.38	22570.66
627.574	22410.92
627.768	22120.11
627.963	22290.09
628.157	21747.38
628.352	21997.23
628.546	21780.15
628.74	21896.88
628.935	21681.85
629.129	21812.92
629.323	21360.31
629.517	21520.06
629.712	21087.93
629.906	21190.33
630.1	20942.53
630.294	21085.89
630.489	20727.49
630.683	20774.6
630.877	20532.93
631.071	20670.15
631.265	20555.46
631.459	20367.05
631.653	20399.82
631.848	19955.41
632.042	19971.79
632.236	19994.32
632.43	19703.51
632.624	19668.69
632.818	19300.06
633.012	19189.47
633.206	19328.73
633.4	19541.72
633.594	19447.51
633.788	19406.55
633.982	19197.66
634.176	18882.27
634.369	18927.33
634.563	18560.74
634.757	18292.46
634.951	18632.42
635.145	18644.71
635.339	18577.12
635.533	18325.22
635.726	18249.45
635.92	17946.35
636.114	18190.06
636.308	17837.81
636.501	18102
636.695	17772.27
636.889	17538.8
637.083	17469.17
637.276	17313.53
637.47	17409.78
637.664	17346.3
637.857	17520.37
638.051	17366.78
638.244	17168.12
638.438	17094.4
638.632	16834.3
638.825	16658.18
639.019	16563.97
639.212	16668.42
639.406	16758.53
639.599	16738.05
639.793	16613.12
639.986	16334.6
640.18	16322.31
640.373	16269.06
640.567	15838.99
640.76	16082.7
640.954	15857.42
641.147	15974.16
641.34	15623.95
641.534	15851.28
641.727	15501.08
641.92	15466.26
642.114	15439.64
642.307	15740.69
642.5	15306.52
642.694	15114.01
642.887	14898.97
643.08	15083.29
643.273	15097.63
643.467	14933.79
643.66	15003.42
643.853	14671.65
644.046	14616.35
644.239	14657.31
644.432	14540.58
644.626	14487.33
644.819	14286.63
645.012	14509.86
645.205	14364.45
645.398	14481.19
645.591	14067.5
645.784	14067.5
645.977	14065.45
646.17	14075.69
646.363	13705.01
646.556	13772.59
646.749	14055.21
646.942	13899.56
647.135	13440.82
647.328	13549.36
647.521	13481.78
647.714	13344.56
647.907	13195.06
648.099	13090.62
648.292	13420.34
648.485	13041.46
648.678	13139.77
648.871	12941.11
649.064	12867.39
649.256	13209.4
649.449	12896.06
649.642	12883.77
649.835	12607.3
650.027	12562.24
650.22	12805.95
650.413	12607.3
650.605	12347.2
650.798	12431.17
650.991	12330.82
651.183	12390.21
651.376	12066.63
651.568	12042.06
651.761	12156.74
651.954	12074.82
652.146	11853.64
652.339	11947.85
652.531	11835.21
652.724	11671.37
652.916	11753.29
653.109	11620.17
653.301	11534.16
653.494	11458.39
653.686	11175.77
653.879	11681.61
654.071	11478.86
654.263	11276.12
654.456	11372.37
654.648	11398.99
654.84	10919.77
655.033	10989.4
655.225	10997.59
655.417	10909.53
655.61	10973.02
655.802	11069.27
655.994	10866.52
656.186	10973.02
656.379	10714.97
656.571	10510.18
656.763	10424.16
656.955	10442.59
657.148	10481.5
657.34	10454.88
657.532	10362.72
657.724	10299.23
657.916	10205.03
658.108	10334.05
658.3	10166.12
658.492	10069.86
658.684	9971.56
658.876	10016.62
659.068	9989.99
659.26	9897.83
659.452	9996.14
659.644	9525.1
659.836	9873.26
660.028	9852.78
660.22	9619.31
660.412	9377.65
660.604	9369.46
660.796	9383.79
660.988	9445.23
661.18	9353.07
661.372	9058.17
661.563	9467.76
661.755	9244.53
661.947	9355.12
662.139	9111.41
662.331	9099.13
662.522	9099.13
662.714	9068.41
662.906	8816.51
663.097	8976.25
663.289	8898.42
663.481	8961.91
663.673	8847.22
663.864	8705.92
664.056	8619.9
664.247	8593.28
664.439	8542.08
664.631	8560.51
664.822	8660.86
665.014	8486.78
665.205	8556.41
665.397	8515.45
665.588	8601.47
665.78	8216.45
665.971	8177.54
666.163	8376.19
666.354	8378.24
666.546	8230.79
666.737	8019.85
666.929	8193.92
667.12	8273.79
667.311	7985.03
667.503	8064.9
667.694	8064.9
667.885	7948.17
668.077	7939.97
668.268	7694.22
668.459	7878.54
668.651	7894.92
668.842	7921.54
669.033	7702.41
669.224	7731.08
669.416	7745.42
669.607	7561.1
669.798	7526.29
669.989	7520.14
670.18	7550.86
670.371	7372.69
670.563	7317.39
670.754	7421.84
670.945	7290.77
671.136	7198.61
671.327	7276.43
671.518	7227.28
671.709	7378.83
671.9	7221.14
672.091	7167.89
672.282	7108.5
672.473	7153.55
672.664	7196.56
672.855	6995.86
673.046	7008.15
673.237	7188.37
673.428	7042.96
673.619	7045.01
673.809	6778.78
674	6805.4
674.191	6815.64
674.382	6924.18
674.573	6721.43
674.764	6768.54
674.954	6858.65
675.145	6528.92
675.336	6715.29
675.527	6631.32
675.717	6672.28
675.908	6348.7
676.099	6623.13
676.289	6471.58
676.48	6504.35
676.671	6471.58
676.861	6481.82
677.052	6336.42
677.243	6487.96
677.433	6430.62
677.624	6348.7
677.814	6336.42
678.005	6240.16
678.195	6451.1
678.386	6178.72
678.576	6148
678.767	6182.82
678.957	6025.12
679.148	6197.15
679.338	6205.35
679.529	6098.85
679.719	6117.28
679.909	6098.85
680.1	5924.77
680.29	5988.26
680.481	5967.78
680.671	5973.92
680.861	6057.89
681.052	5996.45
681.242	6117.28
681.432	6041.51
681.622	5828.52
681.813	5765.03
682.003	5744.55
682.193	5855.14
682.383	5961.64
682.573	5824.42
682.764	5836.71
682.954	5803.94
683.144	5832.61
683.334	5846.95
683.524	5511.08
683.714	5605.29
683.904	5724.07
684.094	5693.35
684.284	5584.81
684.474	5715.88
684.664	5408.69
684.854	5554.09
685.044	5484.46
685.234	5425.07
685.424	5590.95
685.614	5420.97
685.804	5377.97
685.994	5453.74
686.184	5629.87
686.374	5240.75
686.564	5420.97
686.753	5377.97
686.943	5216.18
687.133	5246.9
687.323	5212.08
687.513	5312.43
687.702	5101.49
687.892	5070.77
688.082	4976.56
688.272	5138.35
688.461	5068.72
688.651	5226.42
688.841	5083.06
689.03	5033.91
689.22	5040.05
689.41	4974.52
689.599	4933.56
689.789	4988.85
689.979	4865.97
690.168	4808.63
690.358	4861.88
690.547	4861.88
690.737	4906.93
690.926	4898.74
691.116	4775.86
691.305	4820.92
691.495	4706.23
691.684	4609.98
691.874	4788.15
692.063	4708.28
692.252	4577.21
692.442	4509.63
692.631	4530.11
692.82	4523.96
693.01	4513.72
693.199	4659.13
693.388	4540.35
693.578	4517.82
693.767	4528.06
693.956	4372.41
694.146	4360.13
694.335	4227.01
694.524	4296.64
694.713	4349.89
694.902	4337.6
695.092	4243.39
695.281	4222.91
695.47	4306.88
695.659	4143.04
695.848	4145.09
696.037	4159.42
696.226	4245.44
696.415	4171.71
696.604	4124.61
696.793	4200.38
696.982	4091.84
697.171	4171.71
697.36	4196.29
697.549	4134.85
697.738	4032.45
697.927	3897.28
698.116	4124.61
698.305	3948.48
698.494	3954.63
698.683	4003.78
698.872	4036.55
699.061	4018.11
699.25	3993.54
699.438	3944.39
699.627	3852.23
699.816	3768.26
700.005	3794.89
700.193	3942.34
700.382	3831.75
700.571	3872.71
700.76	3968.96
700.948	3968.96
701.137	3803.08
701.326	3725.26
701.514	3786.69
701.703	3854.28
701.892	3715.02
702.08	3696.58
702.269	3692.49
702.457	3747.78
702.646	3686.34
702.834	3686.34
703.023	3635.14
703.212	3569.61
703.4	3602.38
703.589	3641.29
703.777	3735.49
703.965	3573.71
704.154	3631.05
704.342	3669.96
704.531	3542.99
704.719	3710.92
704.907	3690.44
705.096	3667.91
705.284	3682.25
705.472	3542.99
705.661	3579.85
705.849	3633.1
706.037	3743.69
706.226	3610.57
706.414	3532.75
706.602	3461.07
706.79	3530.7
706.979	3499.98
707.167	3528.65
707.355	3530.7
707.543	3565.51
707.731	3514.31
707.919	3555.27
708.107	3413.96
708.296	3450.83
708.484	3473.35
708.672	3514.31
708.86	3526.6
709.048	3563.47
709.236	3401.68
709.424	3467.21
709.612	3485.64
709.8	3442.64
709.988	3368.91
710.176	3516.36
710.364	3360.72
710.551	3336.14
710.739	3424.2
710.927	3483.59
711.115	3514.31
711.303	3330
711.491	3440.59
711.679	3274.7
711.866	3311.57
712.054	3252.17
712.242	3487.69
712.43	3407.82
712.617	3430.35
712.805	3311.57
712.993	3397.58
713.181	3407.82
713.368	3385.29
713.556	3293.13
713.744	3301.33
713.931	3397.58
714.119	3260.37
714.306	3284.94
714.494	3356.62
714.682	3272.65
714.869	3305.42
715.057	3276.75
715.244	3284.94
715.432	3379.15
715.619	3301.33
715.807	3264.46
715.994	3303.37
716.182	3190.74
716.369	3217.36
716.556	3381.2
716.744	3282.89
716.931	3356.62
717.119	3186.64
717.306	3282.89
717.493	3168.21
717.681	3200.98
717.868	3301.33
718.055	3192.78
718.242	3321.81
718.43	3188.69
718.617	3090.38
718.804	3207.12
718.991	3213.26
719.179	3192.78
719.366	3243.98
719.553	3188.69
719.74	3229.65
719.927	3127.25
720.114	3291.09
720.301	3190.74
720.488	3143.63
720.676	3121.1
720.863	3192.78
721.05	3123.15
721.237	3033.04
721.424	3112.91
721.611	3241.93
721.798	3117.01
721.985	3053.52
722.172	3117.01
722.358	3246.03
722.545	3110.86
722.732	3094.48
722.919	3133.39
723.106	3057.62
723.293	3004.37
723.48	3145.68
723.667	3030.99
723.853	3076.05
724.04	2987.99
724.227	2934.74
724.414	3049.43
724.6	3000.27
724.787	2992.08
724.974	3127.25
725.161	3084.24
725.347	2981.84
725.534	3030.99
725.72	2963.41
725.907	2961.36
726.094	3094.48
726.28	3080.14
726.467	2963.41
726.653	2967.51
726.84	3063.76
727.027	2985.94
727.213	2994.13
727.4	3049.43
727.586	3051.47
727.773	3014.61
727.959	2938.84
728.145	3121.1
728.332	2957.27
728.518	2953.17
728.705	2961.36
728.891	2904.02
729.077	2992.08
729.264	2938.84
729.45	2959.31
729.636	3078.1
729.823	2936.79
730.009	3004.37
730.195	3000.27
730.382	3037.14
730.568	2916.31
730.754	3004.37
730.94	2877.4
731.126	2863.06
731.313	2885.59
731.499	3063.76
731.685	2846.68
731.871	2975.7
732.057	3086.29
732.243	2848.72
732.429	2908.12
732.615	2826.2
732.801	2871.25
732.987	2877.4
733.173	2961.36
733.359	2906.07
733.545	2934.74
733.731	2914.26
733.917	2930.64
734.103	2901.97
734.289	2901.97
734.475	2809.81
734.661	2901.97
734.847	2932.69
735.033	2979.79
735.219	2799.57
735.404	2820.05
735.59	2828.24
735.776	2881.49
735.962	2852.82
736.148	2815.96
736.333	2785.24
736.519	2781.14
736.705	2901.97
736.89	2842.58
737.076	2801.62
737.262	2752.47
737.447	2775
737.633	2752.47
737.819	2822.1
738.004	2744.28
738.19	2858.96
738.375	2734.04
738.561	2889.68
738.747	2695.13
738.932	2836.44
739.118	2889.68
739.303	2768.85
739.489	2699.22
739.674	2744.28
739.859	2678.74
740.045	2619.35
740.23	2701.27
740.416	2772.95
740.601	2641.88
740.786	2701.27
740.972	2631.64
741.157	2631.64
741.342	2623.45
741.528	2656.22
741.713	2660.31
741.898	2594.78
742.084	2553.82
742.269	2559.96
742.454	2469.85
742.639	2519
742.824	2508.76
743.01	2508.76
743.195	2592.73
743.38	2428.89
743.565	2461.66
743.75	2467.8
743.935	2557.91
744.12	2559.96
744.305	2416.6
744.49	2412.51
744.675	2525.15
744.86	2437.08
745.045	2482.14
745.23	2533.34
745.415	2473.95
745.6	2602.97
745.785	2379.74
745.97	2361.31
746.155	2400.22
746.34	2299.87
746.525	2332.64
746.71	2344.92
746.895	2375.64
747.079	2361.31
747.264	2310.11
747.449	2269.15
747.634	2240.48
747.819	2373.6
748.003	2328.54
748.188	2195.42
748.373	2164.7
748.557	2174.94
748.742	2260.96
748.927	2107.36
749.111	2193.37
749.296	2154.46
749.481	2119.65
749.665	2095.07
749.85	2156.51
750.034	2209.76
750.219	2064.35
750.404	2103.26
750.588	2060.26
750.773	1961.95
750.957	2013.15
751.141	1961.95
751.326	2039.78
751.51	2037.73
751.695	1828.84
751.879	1834.98
752.064	2007.01
752.248	1998.82
752.432	1914.85
752.617	1873.89
752.801	1902.56
752.985	1847.27
753.17	1798.12
753.354	1910.75
753.538	1820.64
753.722	1855.46
753.907	1728.49
754.091	1794.02
754.275	1701.86
754.459	1822.69
754.643	1771.49
754.828	1781.73
755.012	1791.97
755.196	1656.81
755.38	1761.25
755.564	1683.43
755.748	1671.14
755.932	1673.19
756.116	1728.49
756.3	1765.35
756.484	1648.61
756.668	1695.72
756.852	1613.8
757.036	1576.94
757.22	1550.31
757.404	1587.18
757.588	1472.49
757.772	1552.36
757.956	1583.08
758.14	1527.78
758.323	1484.78
758.507	1525.74
758.691	1617.9
758.875	1583.08
759.059	1480.68
759.242	1439.72
759.426	1488.87
759.61	1476.59
759.794	1503.21
759.977	1460.2
760.161	1421.29
760.345	1339.37
760.528	1386.47
760.712	1349.61
760.895	1386.47
761.079	1400.81
761.263	1501.16
761.446	1406.95
761.63	1292.27
761.813	1277.93
761.997	1413.1
762.18	1337.32
762.364	1359.85
762.547	1316.84
762.731	1392.62
762.914	1284.08
763.098	1374.19
763.281	1370.09
763.464	1286.12
763.648	1314.8
763.831	1212.4
764.015	1247.21
764.198	1251.31
764.381	1312.75
764.564	1271.79
764.748	1175.53
764.931	1322.99
765.114	1200.11
765.297	1349.61
765.481	1292.27
765.664	1251.31
765.847	1157.1
766.03	1275.88
766.213	1169.39
766.397	1163.25
766.58	1173.49
766.763	1081.33
766.946	1120.24
767.129	1126.38
767.312	1179.63
767.495	1105.9
767.678	1185.77
767.861	1120.24
768.044	1124.33
768.227	1138.67
768.41	1112.05
768.593	1241.07
768.776	1144.81
768.959	1103.86
769.142	1198.06
769.324	1179.63
769.507	1089.52
769.69	1077.23
769.873	1064.94
770.056	1181.68
770.239	1054.7
770.421	1095.66
770.604	1042.42
770.787	1081.33
770.97	1138.67
771.152	1058.8
771.335	966.64
771.518	1081.33
771.7	1097.71
771.883	1005.55
772.066	1034.22
772.248	1040.37
772.431	1001.46
772.613	993.26
772.796	962.55
772.978	976.88
773.161	1105.9
773.343	1005.55
773.526	854
773.708	933.87
773.891	862.19
774.073	923.63
774.256	952.31
774.438	964.59
774.621	968.69
774.803	929.78
774.985	907.25
775.168	995.31
775.35	856.05
775.532	923.63
775.715	929.78
775.897	888.82
776.079	878.58
776.261	854
776.444	929.78
776.626	802.8
776.808	802.8
776.99	813.04
777.173	892.91
777.355	913.39
777.537	833.52
777.719	829.43
777.901	858.1
778.083	800.76
778.265	815.09
778.447	767.99
778.629	909.3
778.811	716.79
778.993	784.37
779.175	765.94
779.357	815.09
779.539	745.46
779.721	727.03
779.903	749.56
780.085	706.55
780.267	757.75
780.449	798.71
780.631	630.77
780.812	731.12
780.994	716.79
781.176	661.49
781.358	714.74
781.54	718.84
781.721	692.21
781.903	692.21
782.085	722.93
782.267	722.93
782.448	706.55
782.63	671.73
782.812	657.4
782.993	649.21
783.175	677.88
783.357	679.93
783.538	634.87
783.72	671.73
783.901	612.34
784.083	614.39
784.264	557.05
784.446	628.73
784.627	577.53
784.809	604.15
784.99	516.09
785.172	581.62
785.353	499.7
785.535	593.91
785.716	636.92
785.897	538.62
786.079	501.75
786.26	552.95
786.441	579.58
786.623	565.24
786.804	485.37
786.985	483.32
787.167	532.47
787.348	524.28
787.529	565.24
787.71	526.33
787.891	567.29
788.073	489.46
788.254	526.33
788.435	536.57
788.616	503.8
788.797	456.7
788.978	528.38
789.159	495.61
789.34	559.1
789.522	501.75
789.703	471.03
789.884	454.65
790.065	403.45
790.246	481.27
790.427	460.79
790.607	434.17
790.788	454.65
790.969	499.7
791.15	444.41
791.331	442.36
791.512	417.79
791.693	436.22
791.874	444.41
792.054	450.55
792.235	483.32
792.416	397.31
792.597	397.31
792.778	366.59
792.958	409.59
793.139	456.7
793.32	425.98
793.5	434.17
793.681	378.87
793.862	356.35
794.042	407.55
794.223	321.53
794.404	454.65
794.584	360.44
794.765	337.91
794.945	407.55
795.126	382.97
795.306	438.27
795.487	419.83
795.667	342.01
795.848	358.39
796.028	311.29
796.209	358.39
796.389	370.68
796.57	372.73
796.75	311.29
796.93	409.59
797.111	319.48
797.291	333.82
797.471	395.26
797.652	305.15
797.832	382.97
798.012	348.15
798.192	358.39
798.373	303.1
798.553	319.48
798.733	329.72
798.913	268.28
799.093	286.72
799.274	368.63
799.454	376.83
799.634	307.2
799.814	491.51
799.994	344.06
800.174	305.15
800.354	284.67
800.534	337.91
800.714	305.15
800.894	229.37
801.074	262.14
801.254	327.67
801.434	342.01
801.614	276.48
801.794	342.01
801.974	765.94
802.154	268.28
802.334	272.38
802.514	307.2
802.693	264.19
802.873	206.84
803.053	268.28
803.233	180.22
803.413	339.96
803.592	245.76
803.772	204.8
803.952	253.95
804.131	264.19
804.311	258.04
804.491	256
804.67	292.86
804.85	270.33
805.03	301.05
805.209	282.62
805.389	223.23
805.568	251.9
805.748	243.71
805.928	204.8
806.107	284.67
806.287	268.28
806.466	241.66
806.646	237.56
806.825	276.48
807.004	272.38
807.184	231.42
807.363	268.28
807.543	266.24
807.722	212.99
807.901	178.17
808.081	247.8
808.26	194.56
808.439	227.32
808.619	176.13
808.798	208.89
808.977	172.03
809.156	262.14
809.336	178.17
809.515	200.7
809.694	198.65
809.873	272.38
810.052	215.04
810.231	200.7
810.411	243.71
810.59	286.72
810.769	260.09
810.948	276.48
811.127	133.12
811.306	235.52
811.485	172.03
811.664	237.56
811.843	208.89
812.022	235.52
812.201	182.27
812.38	225.28
812.559	180.22
812.737	196.61
812.916	192.51
813.095	190.46
813.274	169.98
813.453	172.03
813.632	204.8
813.811	145.41
813.989	135.17
814.168	174.08
814.347	186.37
814.526	243.71
814.704	208.89
814.883	237.56
815.062	165.89
815.24	249.85
815.419	149.5
815.598	153.6
815.776	169.98
815.955	98.3
816.133	165.89
816.312	157.69
816.49	174.08
816.669	153.6
816.847	190.46
817.026	202.75
817.204	172.03
817.383	215.04
817.561	106.49
817.74	192.51
817.918	184.32
818.097	137.21
818.275	182.27
818.453	137.21
818.632	92.16
818.81	225.28
818.988	153.6
819.167	182.27
819.345	157.69
819.523	172.03
819.701	206.84
819.879	116.73
820.058	167.93
820.236	169.98
820.414	169.98
820.592	131.07
820.77	124.93
820.948	129.02
821.127	120.83
821.305	131.07
821.483	208.89
821.661	139.26
821.839	61.44
822.017	57.34
822.195	217.08
822.373	126.97
822.551	104.45
822.729	290.81
822.907	198.65
823.085	161.79
823.262	137.21
823.44	90.11
823.618	139.26
823.796	120.83
823.974	112.64
824.152	122.88
824.329	61.44
824.507	135.17
824.685	98.3
824.863	108.54
825.04	159.74
825.218	120.83
825.396	126.97
825.574	96.25
825.751	169.98
825.929	57.34
826.107	55.3
826.284	86.01
826.462	180.22
826.639	139.26
826.817	118.78
826.994	133.12
827.172	129.02
827.349	145.41
827.527	137.21
827.704	110.59
827.882	26.62
828.059	151.55
828.237	112.64
828.414	188.41
828.591	98.3
828.769	69.63
828.946	55.3
829.124	159.74
829.301	155.65
829.478	104.45
829.655	69.63
829.833	126.97
830.01	55.3
830.187	88.06
830.364	61.44
830.542	59.39
830.719	86.01
830.896	194.56
831.073	159.74
831.25	92.16
831.427	98.3
831.604	108.54
831.782	69.63
831.959	108.54
832.136	67.58
832.313	182.27
832.49	90.11
832.667	24.58
832.844	65.53
833.021	112.64
833.198	133.12
833.374	141.31
833.551	145.41
833.728	124.93
833.905	90.11
834.082	83.97
834.259	102.4
834.436	135.17
834.612	118.78
834.789	135.17
834.966	92.16
835.143	96.25
835.319	67.58
835.496	55.3
835.673	55.3
835.85	102.4
836.026	79.87
836.203	153.6
836.38	49.15
836.556	92.16
836.733	18.43
836.909	71.68
837.086	-22.53
837.262	96.25
837.439	59.39
837.616	30.72
837.792	151.55
837.968	55.3
838.145	55.3
838.321	141.31
838.498	67.58
838.674	77.82
838.851	94.21
839.027	112.64
839.203	40.96
839.38	98.3
839.556	71.68
839.732	45.06
839.909	118.78
840.085	174.08
840.261	10.24
840.437	16.38
840.614	20.48
840.79	81.92
840.966	63.49
841.142	38.91
841.318	86.01
841.494	147.45
841.671	61.44
841.847	120.83
842.023	92.16
842.199	172.03
842.375	51.2
842.551	4.1
842.727	63.49
842.903	81.92
843.079	61.44
843.255	88.06
843.431	143.36
843.607	40.96
843.783	-20.48
843.959	83.97
844.134	79.87
844.31	219.13
844.486	-12.29
844.662	22.53
844.838	75.77
845.013	96.25
845.189	-4.1
845.365	47.1
845.541	36.86
845.716	102.4
845.892	61.44
846.068	108.54
846.244	49.15
846.419	110.59
846.595	112.64
846.77	71.68
846.946	92.16
847.122	108.54
847.297	67.58
847.473	145.41
847.648	14.34
847.824	28.67
847.999	92.16
848.175	108.54
848.35	-16.38
848.526	67.58
848.701	81.92
848.876	90.11
849.052	69.63
849.227	96.25
849.403	-4.1
849.578	83.97
849.753	38.91
849.929	67.58
850.104	28.67
850.279	81.92
850.454	0
850.63	100.35
850.805	86.01
850.98	118.78
851.155	28.67
851.33	118.78
851.505	51.2
851.681	67.58
851.856	8.19
852.031	26.62
852.206	83.97
852.381	65.53
852.556	6.14
852.731	71.68
852.906	6.14
853.081	-28.67
853.256	26.62
853.431	26.62
853.606	-10.24
853.781	83.97
853.956	86.01
854.131	47.1
854.305	81.92
854.48	43.01
854.655	32.77
854.83	102.4
855.005	28.67
855.18	40.96
855.354	30.72
855.529	4.1
855.704	36.86
855.879	96.25
856.053	10.24
856.228	43.01
856.403	28.67
856.577	75.77
856.752	73.73
856.926	43.01
857.101	-10.24
857.276	-18.43
857.45	-20.48
857.625	36.86
857.799	10.24
857.974	45.06
858.148	20.48
858.323	28.67
858.497	75.77
858.672	14.34
858.846	51.2
859.02	57.34
859.195	40.96
859.369	53.25
859.543	83.97
859.718	45.06
859.892	77.82
860.066	16.38
860.241	63.49
860.415	63.49
860.589	53.25
860.763	38.91
860.938	6.14
861.112	40.96
861.286	45.06
861.46	40.96
861.634	59.39
861.808	53.25
861.982	61.44
862.157	75.77
862.331	-14.34
862.505	88.06
862.679	2.05
862.853	0
863.027	38.91
863.201	14.34
863.375	20.48
863.549	24.58
863.722	32.77
863.896	59.39
864.07	55.3
864.244	-40.96
864.418	36.86
864.592	77.82
864.766	8.19
864.939	53.25
865.113	16.38
865.287	38.91
865.461	-4.1
865.634	8.19
865.808	-10.24
865.982	-8.19
866.156	20.48
866.329	28.67
866.503	75.77
866.676	26.62
866.85	6.14
867.024	12.29
867.197	-22.53
867.371	63.49
867.544	100.35
867.718	8.19
867.891	18.43
868.065	-69.63
868.238	-18.43
868.412	16.38
868.585	65.53
868.759	14.34
868.932	16.38
869.105	34.82
869.279	10.24
869.452	26.62
869.625	59.39
869.799	-32.77
869.972	28.67
870.145	55.3
870.319	88.06
870.492	55.3
870.665	34.82
870.838	57.34
871.011	8.19
871.185	36.86
871.358	69.63
871.531	12.29
871.704	10.24
871.877	96.25
872.05	-16.38
872.223	-28.67
872.396	-26.62
872.569	49.15
872.742	0
872.915	24.58
873.088	38.91
873.261	118.78
873.434	98.3
873.607	14.34
873.78	-6.14
873.953	53.25
874.126	-22.53
874.299	55.3
874.471	-22.53
874.644	32.77
874.817	0
874.99	32.77
875.163	14.34
875.335	-16.38
875.508	16.38
875.681	34.82
875.853	28.67
876.026	-2.05
876.199	55.3
876.371	8.19
876.544	-14.34
876.717	20.48
876.889	34.82
877.062	34.82
877.234	20.48
877.407	-16.38
877.579	114.69
877.752	-26.62
877.924	45.06
878.097	6.14
878.269	12.29
878.442	104.45
878.614	-4.1
878.786	51.2
878.959	45.06
879.131	6.14
879.303	51.2
879.476	100.35
879.648	40.96
879.82	69.63
879.993	-51.2
880.165	108.54
880.337	18.43
880.509	88.06
880.681	-10.24
880.854	83.97
881.026	-22.53
881.198	30.72
881.37	20.48
881.542	36.86
881.714	6.14
881.886	-2.05
882.058	0
882.23	57.34
882.402	-32.77
882.574	10.24
882.746	-22.53
882.918	38.91
883.09	4.1
883.262	12.29
883.434	22.53
883.606	-34.82
883.778	26.62
883.95	14.34
884.122	38.91
884.293	26.62
884.465	28.67
884.637	96.25
884.809	88.06
884.98	38.91
885.152	8.19
885.324	28.67
885.496	-28.67
885.667	51.2
885.839	59.39
886.011	63.49
886.182	40.96
886.354	32.77
886.525	-38.91
886.697	71.68
886.869	-30.72
887.04	43.01
887.212	90.11
887.383	40.96
887.555	45.06
887.726	-6.14
887.897	-10.24
888.069	61.44
888.24	18.43
888.412	32.77
888.583	34.82
888.754	-63.49
888.926	-4.1
889.097	-53.25
889.268	6.14
889.44	-38.91
889.611	6.14
889.782	-43.01
889.953	-53.25
890.125	18.43
890.296	28.67
890.467	-8.19
890.638	6.14
890.809	79.87
890.98	2.05
891.151	22.53
891.323	14.34
891.494	0
891.665	-28.67
891.836	0
892.007	67.58
892.178	-20.48
892.349	26.62
892.52	6.14
892.691	-94.21
892.862	32.77
893.032	10.24
893.203	32.77
893.374	81.92
893.545	24.58
893.716	38.91
893.887	24.58
894.057	47.1
894.228	43.01
894.399	-36.86
894.57	88.06
894.74	110.59
894.911	18.43
895.082	-22.53
895.253	-10.24
895.423	51.2
895.594	34.82
895.764	-47.1
895.935	43.01
896.106	94.21
896.276	-34.82
896.447	26.62
896.617	-2.05
896.788	-51.2
896.958	-16.38
897.129	61.44
897.299	43.01
897.47	63.49
897.64	45.06
897.81	-75.77
897.981	94.21
898.151	86.01
898.322	-26.62
898.492	28.67
898.662	2.05
898.832	-2.05
899.003	4.1
899.173	40.96
899.343	14.34
899.513	4.1
