Data from USB4F104151__53__12-27-34-312.txt Node

Date: Fri Mar 14 12:27:34 EDT 2025
User: louis
Spectrometer: USB4F10415
Trigger mode: 4
Integration Time (sec): 2.000000E-2
Scans to average: 1
Electric dark correction enabled: true
Nonlinearity correction enabled: false
Boxcar width: 0
XAxis mode: Wavelengths
Number of Pixels in Spectrum: 3648
>>>>>Begin Spectral Data<<<<<
178.204	-73.04
178.424	-73.04
178.644	-73.04
178.864	-99.67
179.084	-56.66
179.304	-15.7
179.524	-42.32
179.744	-1.37
179.964	19.11
180.184	-15.7
180.404	19.11
180.624	49.83
180.844	23.21
181.064	19.11
181.283	53.93
181.503	-95.57
181.723	-13.65
181.943	6.83
182.163	70.31
182.383	-21.85
182.602	-25.94
182.822	66.22
183.042	-25.94
183.262	-11.61
183.482	62.12
183.701	-38.23
183.921	43.69
184.141	-21.85
184.361	23.21
184.58	0.68
184.8	-9.56
185.02	-46.42
185.239	62.12
185.459	-34.13
185.679	33.45
185.898	-30.04
186.118	49.83
186.338	-3.41
186.557	-17.75
186.777	-60.76
186.997	-66.9
187.216	-9.56
187.436	-13.65
187.655	51.88
187.875	-46.42
188.095	-60.76
188.314	33.45
188.534	4.78
188.753	-36.18
188.973	31.4
189.192	49.83
189.412	8.87
189.631	10.92
189.851	4.78
190.07	-52.56
190.29	31.4
190.509	47.79
190.729	-30.04
190.948	-23.89
191.168	64.17
191.387	-32.08
191.607	25.26
191.826	-15.7
192.045	-5.46
192.265	-17.75
192.484	29.35
192.704	23.21
192.923	4.78
193.142	-25.94
193.362	2.73
193.581	101.03
193.8	15.02
194.02	23.21
194.239	-15.7
194.458	49.83
194.678	62.12
194.897	-17.75
195.116	-15.7
195.335	-32.08
195.555	-40.28
195.774	51.88
195.993	-3.41
196.212	25.26
196.432	-56.66
196.651	-73.04
196.87	12.97
197.089	82.6
197.308	21.16
197.528	-15.7
197.747	12.97
197.966	45.74
198.185	62.12
198.404	-21.85
198.623	-27.99
198.842	-19.8
199.062	4.78
199.281	31.4
199.5	-77.14
199.719	-5.46
199.938	-7.51
200.157	55.98
200.376	76.46
200.595	6.83
200.814	-9.56
201.033	103.08
201.252	-30.04
201.471	17.07
201.69	31.4
201.909	-32.08
202.128	4.78
202.347	-50.52
202.566	-11.61
202.785	-42.32
203.004	29.35
203.223	76.46
203.442	8.87
203.661	-56.66
203.879	10.92
204.098	21.16
204.317	21.16
204.536	-25.94
204.755	15.02
204.974	10.92
205.193	-1.37
205.411	49.83
205.63	-9.56
205.849	15.02
206.068	4.78
206.287	-27.99
206.505	21.16
206.724	25.26
206.943	-44.37
207.162	47.79
207.381	66.22
207.599	-50.52
207.818	62.12
208.037	10.92
208.255	-25.94
208.474	-5.46
208.693	33.45
208.911	70.31
209.13	-27.99
209.349	-15.7
209.567	35.5
209.786	15.02
210.005	45.74
210.223	-71
210.442	41.64
210.661	-15.7
210.879	-64.85
211.098	17.07
211.316	-34.13
211.535	-7.51
211.753	-15.7
211.972	55.98
212.191	-38.23
212.409	37.55
212.628	-7.51
212.846	43.69
213.065	2.73
213.283	74.41
213.502	33.45
213.72	-3.41
213.938	47.79
214.157	68.27
214.375	51.88
214.594	-32.08
214.812	58.03
215.031	78.51
215.249	31.4
215.467	39.59
215.686	-46.42
215.904	70.31
216.122	62.12
216.341	2.73
216.559	37.55
216.778	25.26
216.996	105.13
217.214	-60.76
217.432	-15.7
217.651	-58.71
217.869	70.31
218.087	10.92
218.306	31.4
218.524	-5.46
218.742	58.03
218.96	29.35
219.179	-64.85
219.397	15.02
219.615	-15.7
219.833	-13.65
220.051	15.02
220.27	-27.99
220.488	78.51
220.706	-23.89
220.924	35.5
221.142	-23.89
221.36	43.69
221.578	2.73
221.796	-15.7
222.015	53.93
222.233	-32.08
222.451	-56.66
222.669	-13.65
222.887	51.88
223.105	-19.8
223.323	-13.65
223.541	4.78
223.759	-9.56
223.977	19.11
224.195	27.31
224.413	-34.13
224.631	78.51
224.849	0.68
225.067	8.87
225.285	2.73
225.503	-15.7
225.721	-40.28
225.939	39.59
226.157	12.97
226.375	72.36
226.592	-11.61
226.81	4.78
227.028	23.21
227.246	-17.75
227.464	-7.51
227.682	-13.65
227.9	55.98
228.117	55.98
228.335	31.4
228.553	19.11
228.771	70.31
228.989	66.22
229.206	51.88
229.424	43.69
229.642	47.79
229.86	60.07
230.077	-73.04
230.295	74.41
230.513	39.59
230.731	-9.56
230.948	68.27
231.166	29.35
231.384	27.31
231.601	-13.65
231.819	84.65
232.037	-9.56
232.254	-27.99
232.472	6.83
232.689	-68.95
232.907	92.84
233.125	10.92
233.342	0.68
233.56	27.31
233.777	-58.71
233.995	-3.41
234.213	35.5
234.43	43.69
234.648	-15.7
234.865	-17.75
235.083	66.22
235.3	-3.41
235.518	21.16
235.735	8.87
235.953	49.83
236.17	27.31
236.388	27.31
236.605	8.87
236.822	60.07
237.04	-11.61
237.257	15.02
237.475	-140.63
237.692	86.7
237.909	53.93
238.127	31.4
238.344	-87.38
238.562	94.89
238.779	-50.52
238.996	-3.41
239.214	-7.51
239.431	58.03
239.648	-34.13
239.865	17.07
240.083	82.6
240.3	27.31
240.517	-30.04
240.735	-5.46
240.952	60.07
241.169	23.21
241.386	-46.42
241.603	-116.05
241.821	-3.41
242.038	21.16
242.255	-3.41
242.472	-9.56
242.689	78.51
242.907	62.12
243.124	-17.75
243.341	0.68
243.558	-11.61
243.775	15.02
243.992	-15.7
244.209	-3.41
244.426	17.07
244.643	19.11
244.86	-60.76
245.078	-32.08
245.295	78.51
245.512	39.59
245.729	-40.28
245.946	29.35
246.163	2.73
246.38	96.94
246.597	-11.61
246.814	17.07
247.031	-36.18
247.248	-42.32
247.464	-1.37
247.681	-9.56
247.898	-11.61
248.115	-21.85
248.332	-60.76
248.549	31.4
248.766	-36.18
248.983	23.21
249.2	-27.99
249.417	-58.71
249.633	-44.37
249.85	15.02
250.067	53.93
250.284	-21.85
250.501	58.03
250.717	62.12
250.934	4.78
251.151	-25.94
251.368	-27.99
251.585	31.4
251.801	-34.13
252.018	-50.52
252.235	4.78
252.451	-36.18
252.668	-32.08
252.885	-15.7
253.102	103.08
253.318	-25.94
253.535	-5.46
253.752	-13.65
253.968	68.27
254.185	35.5
254.401	-44.37
254.618	-50.52
254.835	43.69
255.051	84.65
255.268	-19.8
255.484	64.17
255.701	82.6
255.917	76.46
256.134	-73.04
256.351	80.55
256.567	-30.04
256.784	-19.8
257	10.92
257.217	66.22
257.433	68.27
257.65	66.22
257.866	-9.56
258.082	17.07
258.299	-11.61
258.515	-42.32
258.732	43.69
258.948	2.73
259.165	53.93
259.381	-38.23
259.597	19.11
259.814	-5.46
260.03	-36.18
260.246	-7.51
260.463	19.11
260.679	25.26
260.895	12.97
261.112	27.31
261.328	8.87
261.544	-25.94
261.761	21.16
261.977	-1.37
262.193	-1.37
262.409	25.26
262.626	0.68
262.842	-13.65
263.058	-44.37
263.274	41.64
263.49	8.87
263.707	58.03
263.923	-11.61
264.139	4.78
264.355	15.02
264.571	68.27
264.787	31.4
265.004	58.03
265.22	-25.94
265.436	55.98
265.652	-52.56
265.868	2.73
266.084	19.11
266.3	-19.8
266.516	-13.65
266.732	25.26
266.948	-40.28
267.164	17.07
267.38	-21.85
267.596	35.5
267.812	84.65
268.028	-17.75
268.244	0.68
268.46	37.55
268.676	-9.56
268.892	0.68
269.108	10.92
269.324	94.89
269.54	-36.18
269.756	66.22
269.972	-27.99
270.188	86.7
270.403	-48.47
270.619	17.07
270.835	4.78
271.051	-13.65
271.267	4.78
271.483	2.73
271.698	66.22
271.914	-32.08
272.13	-58.71
272.346	-42.32
272.562	76.46
272.777	19.11
272.993	-17.75
273.209	88.75
273.425	66.22
273.64	-7.51
273.856	8.87
274.072	-3.41
274.287	-56.66
274.503	66.22
274.719	51.88
274.934	-48.47
275.15	-48.47
275.366	8.87
275.581	-42.32
275.797	8.87
276.012	-3.41
276.228	72.36
276.444	15.02
276.659	66.22
276.875	-1.37
277.09	17.07
277.306	58.03
277.521	17.07
277.737	-17.75
277.952	-15.7
278.168	17.07
278.383	-1.37
278.599	17.07
278.814	-36.18
279.03	8.87
279.245	45.74
279.461	2.73
279.676	31.4
279.892	-11.61
280.107	-17.75
280.322	23.21
280.538	-15.7
280.753	43.69
280.969	35.5
281.184	-5.46
281.399	17.07
281.615	37.55
281.83	0.68
282.045	-23.89
282.26	33.45
282.476	-17.75
282.691	35.5
282.906	27.31
283.122	47.79
283.337	-73.04
283.552	70.31
283.767	-81.24
283.983	15.02
284.198	8.87
284.413	49.83
284.628	-40.28
284.843	55.98
285.058	31.4
285.274	-25.94
285.489	29.35
285.704	-54.61
285.919	-15.7
286.134	4.78
286.349	6.83
286.564	105.13
286.779	6.83
286.995	-11.61
287.21	-38.23
287.425	51.88
287.64	-34.13
287.855	12.97
288.07	-11.61
288.285	17.07
288.5	88.75
288.715	-3.41
288.93	19.11
289.145	-13.65
289.36	-19.8
289.575	0.68
289.79	70.31
290.004	-13.65
290.219	2.73
290.434	-36.18
290.649	-3.41
290.864	2.73
291.079	4.78
291.294	31.4
291.509	47.79
291.724	-58.71
291.938	74.41
292.153	-3.41
292.368	-56.66
292.583	25.26
292.798	6.83
293.012	27.31
293.227	49.83
293.442	47.79
293.657	12.97
293.871	-3.41
294.086	-34.13
294.301	109.22
294.516	10.92
294.73	23.21
294.945	-48.47
295.16	-5.46
295.374	25.26
295.589	41.64
295.804	-23.89
296.018	27.31
296.233	33.45
296.447	-66.9
296.662	21.16
296.877	78.51
297.091	2.73
297.306	-66.9
297.52	92.84
297.735	66.22
297.949	8.87
298.164	10.92
298.378	19.11
298.593	-3.41
298.807	-99.67
299.022	-9.56
299.236	-11.61
299.451	43.69
299.665	-25.94
299.88	15.02
300.094	19.11
300.309	-15.7
300.523	-27.99
300.737	66.22
300.952	-52.56
301.166	-11.61
301.381	-27.99
301.595	-13.65
301.809	23.21
302.024	51.88
302.238	-5.46
302.452	94.89
302.667	23.21
302.881	98.99
303.095	47.79
303.309	23.21
303.524	-13.65
303.738	-15.7
303.952	4.78
304.166	-30.04
304.381	41.64
304.595	39.59
304.809	8.87
305.023	10.92
305.237	-52.56
305.452	33.45
305.666	45.74
305.88	33.45
306.094	8.87
306.308	19.11
306.522	4.78
306.736	0.68
306.95	19.11
307.164	111.27
307.379	35.5
307.593	53.93
307.807	53.93
308.021	43.69
308.235	6.83
308.449	-5.46
308.663	-40.28
308.877	43.69
309.091	10.92
309.305	-52.56
309.519	29.35
309.733	55.98
309.947	-42.32
310.161	10.92
310.374	-38.23
310.588	37.55
310.802	-83.28
311.016	-25.94
311.23	-11.61
311.444	45.74
311.658	-38.23
311.872	64.17
312.085	-34.13
312.299	74.41
312.513	-44.37
312.727	45.74
312.941	-11.61
313.154	76.46
313.368	60.07
313.582	0.68
313.796	4.78
314.009	27.31
314.223	80.55
314.437	-11.61
314.651	-50.52
314.864	21.16
315.078	-9.56
315.292	-25.94
315.505	80.55
315.719	10.92
315.933	-5.46
316.146	-32.08
316.36	-64.85
316.573	23.21
316.787	-11.61
317.001	19.11
317.214	-36.18
317.428	-15.7
317.641	-19.8
317.855	41.64
318.068	27.31
318.282	58.03
318.495	-11.61
318.709	37.55
318.922	-34.13
319.136	37.55
319.349	86.7
319.563	-1.37
319.776	-1.37
319.99	33.45
320.203	37.55
320.417	6.83
320.63	64.17
320.843	27.31
321.057	-5.46
321.27	-19.8
321.483	-1.37
321.697	37.55
321.91	-15.7
322.124	37.55
322.337	58.03
322.55	15.02
322.763	12.97
322.977	6.83
323.19	107.18
323.403	15.02
323.617	55.98
323.83	8.87
324.043	-15.7
324.256	12.97
324.469	-5.46
324.683	-34.13
324.896	23.21
325.109	39.59
325.322	47.79
325.535	-32.08
325.748	41.64
325.962	-13.65
326.175	-13.65
326.388	-27.99
326.601	-7.51
326.814	8.87
327.027	-42.32
327.24	-13.65
327.453	-50.52
327.666	0.68
327.879	55.98
328.092	35.5
328.305	10.92
328.518	-11.61
328.731	15.02
328.944	35.5
329.157	4.78
329.37	64.17
329.583	58.03
329.796	80.55
330.009	8.87
330.222	55.98
330.435	60.07
330.648	-118.1
330.861	55.98
331.073	70.31
331.286	0.68
331.499	35.5
331.712	-34.13
331.925	60.07
332.138	-54.61
332.35	-50.52
332.563	31.4
332.776	-1.37
332.989	-5.46
333.202	35.5
333.414	68.27
333.627	8.87
333.84	17.07
334.053	74.41
334.265	0.68
334.478	39.59
334.691	76.46
334.903	-23.89
335.116	0.68
335.329	43.69
335.541	-3.41
335.754	2.73
335.966	0.68
336.179	47.79
336.392	33.45
336.604	39.59
336.817	39.59
337.029	31.4
337.242	2.73
337.454	0.68
337.667	105.13
337.88	-11.61
338.092	60.07
338.305	55.98
338.517	39.59
338.729	33.45
338.942	82.6
339.154	72.36
339.367	19.11
339.579	6.83
339.792	10.92
340.004	0.68
340.217	68.27
340.429	103.08
340.641	-48.47
340.854	78.51
341.066	-15.7
341.278	6.83
341.491	33.45
341.703	-1.37
341.915	-9.56
342.128	72.36
342.34	-27.99
342.552	78.51
342.764	43.69
342.977	-68.95
343.189	15.02
343.401	29.35
343.613	-7.51
343.826	-21.85
344.038	-11.61
344.25	-1.37
344.462	-15.7
344.674	45.74
344.886	-9.56
345.099	-13.65
345.311	55.98
345.523	6.83
345.735	78.51
345.947	-7.51
346.159	43.69
346.371	-13.65
346.583	-5.46
346.795	33.45
347.007	39.59
347.219	35.5
347.431	23.21
347.643	35.5
347.855	62.12
348.067	-19.8
348.279	-17.75
348.491	55.98
348.703	55.98
348.915	-54.61
349.127	6.83
349.339	27.31
349.551	-30.04
349.763	78.51
349.975	-56.66
350.187	6.83
350.399	98.99
350.61	29.35
350.822	8.87
351.034	66.22
351.246	60.07
351.458	4.78
351.669	33.45
351.881	8.87
352.093	33.45
352.305	19.11
352.517	21.16
352.728	64.17
352.94	49.83
353.152	49.83
353.363	-7.51
353.575	-13.65
353.787	-1.37
353.999	29.35
354.21	12.97
354.422	-40.28
354.633	-44.37
354.845	-3.41
355.057	39.59
355.268	-30.04
355.48	-25.94
355.692	-21.85
355.903	-34.13
356.115	35.5
356.326	19.11
356.538	-11.61
356.749	43.69
356.961	27.31
357.172	4.78
357.384	-9.56
357.595	43.69
357.807	12.97
358.018	12.97
358.23	45.74
358.441	-19.8
358.653	-7.51
358.864	4.78
359.075	8.87
359.287	19.11
359.498	72.36
359.709	15.02
359.921	45.74
360.132	-40.28
360.344	76.46
360.555	10.92
360.766	21.16
360.977	-30.04
361.189	58.03
361.4	-36.18
361.611	-1.37
361.823	-36.18
362.034	-15.7
362.245	-42.32
362.456	53.93
362.667	21.16
362.879	6.83
363.09	51.88
363.301	-9.56
363.512	12.97
363.723	29.35
363.935	-25.94
364.146	19.11
364.357	37.55
364.568	29.35
364.779	-7.51
364.99	23.21
365.201	-36.18
365.412	23.21
365.623	27.31
365.834	12.97
366.045	43.69
366.256	90.79
366.467	35.5
366.678	21.16
366.889	10.92
367.1	-32.08
367.311	12.97
367.522	49.83
367.733	17.07
367.944	10.92
368.155	45.74
368.366	23.21
368.577	78.51
368.788	19.11
368.999	12.97
369.209	15.02
369.42	35.5
369.631	98.99
369.842	103.08
370.053	-5.46
370.264	-25.94
370.474	29.35
370.685	31.4
370.896	41.64
371.107	96.94
371.317	82.6
371.528	25.26
371.739	43.69
371.95	29.35
372.16	47.79
372.371	2.73
372.582	2.73
372.792	-5.46
373.003	92.84
373.214	-32.08
373.424	27.31
373.635	39.59
373.846	25.26
374.056	45.74
374.267	-1.37
374.477	33.45
374.688	37.55
374.898	25.26
375.109	-21.85
375.319	84.65
375.53	29.35
375.74	39.59
375.951	43.69
376.161	76.46
376.372	88.75
376.582	-48.47
376.793	10.92
377.003	-25.94
377.214	-3.41
377.424	86.7
377.635	47.79
377.845	51.88
378.055	62.12
378.266	-73.04
378.476	-62.8
378.686	58.03
378.897	49.83
379.107	-58.71
379.317	37.55
379.528	37.55
379.738	49.83
379.948	-73.04
380.158	92.84
380.369	35.5
380.579	-7.51
380.789	-9.56
380.999	19.11
381.21	0.68
381.42	12.97
381.63	-62.8
381.84	121.51
382.05	35.5
382.261	31.4
382.471	-11.61
382.681	19.11
382.891	117.42
383.101	66.22
383.311	86.7
383.521	2.73
383.731	-1.37
383.941	35.5
384.151	96.94
384.361	-11.61
384.571	-36.18
384.781	47.79
384.991	64.17
385.201	68.27
385.411	27.31
385.621	74.41
385.831	12.97
386.041	66.22
386.251	82.6
386.461	84.65
386.671	25.26
386.881	76.46
387.091	-32.08
387.301	25.26
387.511	49.83
387.72	103.08
387.93	37.55
388.14	49.83
388.35	29.35
388.56	68.27
388.769	51.88
388.979	-1.37
389.189	-60.76
389.399	6.83
389.609	72.36
389.818	43.69
390.028	17.07
390.238	37.55
390.447	41.64
390.657	53.93
390.867	158.38
391.076	58.03
391.286	-7.51
391.496	31.4
391.705	8.87
391.915	92.84
392.125	45.74
392.334	86.7
392.544	29.35
392.753	49.83
392.963	129.7
393.172	111.27
393.382	66.22
393.591	64.17
393.801	51.88
394.01	37.55
394.22	35.5
394.429	82.6
394.639	29.35
394.848	78.51
395.058	76.46
395.267	-7.51
395.477	4.78
395.686	70.31
395.895	27.31
396.105	72.36
396.314	37.55
396.524	41.64
396.733	58.03
396.942	107.18
397.152	-32.08
397.361	62.12
397.57	64.17
397.78	80.55
397.989	82.6
398.198	105.13
398.407	90.79
398.617	113.32
398.826	72.36
399.035	84.65
399.244	29.35
399.453	72.36
399.663	12.97
399.872	139.94
400.081	27.31
400.29	76.46
400.499	27.31
400.708	111.27
400.917	94.89
401.127	49.83
401.336	-13.65
401.545	105.13
401.754	76.46
401.963	70.31
402.172	66.22
402.381	82.6
402.59	6.83
402.799	103.08
403.008	94.89
403.217	139.94
403.426	135.85
403.635	103.08
403.844	86.7
404.053	70.31
404.262	109.22
404.471	162.47
404.68	146.09
404.888	66.22
405.097	84.65
405.306	121.51
405.515	55.98
405.724	137.9
405.933	78.51
406.142	178.86
406.35	121.51
406.559	94.89
406.768	139.94
406.977	115.37
407.185	158.38
407.394	150.18
407.603	107.18
407.812	174.76
408.02	115.37
408.229	125.61
408.438	201.38
408.646	76.46
408.855	182.95
409.064	189.1
409.272	115.37
409.481	262.82
409.69	189.1
409.898	115.37
410.107	205.48
410.315	221.86
410.524	271.01
410.733	299.69
410.941	207.53
411.15	246.44
411.358	250.53
411.567	342.69
411.775	225.96
411.984	303.78
412.192	287.4
412.401	201.38
412.609	330.41
412.818	326.31
413.026	330.41
413.234	342.69
413.443	305.83
413.651	363.17
413.86	375.46
414.068	377.51
414.276	379.56
414.485	416.42
414.693	475.81
414.901	498.34
415.11	535.2
415.318	486.05
415.526	471.72
415.734	520.87
415.943	502.43
416.151	598.69
416.359	574.11
416.567	617.12
416.776	660.13
416.984	674.46
417.192	666.27
417.4	602.79
417.608	643.74
417.817	729.76
418.025	717.47
418.233	832.16
418.441	799.39
418.649	840.35
418.857	922.27
419.065	996
419.273	848.54
419.481	991.9
419.689	1057.43
419.897	985.76
420.105	1049.24
420.313	1118.87
420.521	1092.25
420.729	1245.85
420.937	1190.55
421.145	1264.28
421.353	1292.95
421.561	1352.34
421.769	1387.16
421.977	1368.73
422.185	1383.06
422.393	1460.88
422.601	1596.05
422.809	1489.56
423.017	1530.52
423.224	1653.39
423.432	1702.54
423.64	1720.98
423.848	1899.15
424.056	1909.39
424.263	1981.07
424.471	1956.49
424.679	2036.36
424.887	2087.56
425.094	2134.67
425.302	2261.64
425.51	2374.28
425.718	2454.15
425.925	2316.94
426.133	2456.2
426.341	2568.84
426.548	2681.47
426.756	2669.19
426.964	2835.07
427.171	2888.32
427.379	3023.48
427.586	3097.21
427.794	3203.71
428.001	3250.81
428.209	3560.05
428.417	3457.65
428.624	3678.83
428.832	3674.74
429.039	3682.93
429.247	3598.96
429.454	4008.56
429.662	4244.07
429.869	3971.69
430.076	4278.89
430.284	4102.76
430.491	4426.34
430.699	4610.66
430.906	4661.86
431.114	4631.14
431.321	4797.03
431.528	5001.82
431.736	5317.21
431.943	5390.94
432.15	5276.25
432.358	5438.04
432.565	5589.59
432.772	5769.81
432.979	5990.99
433.187	5964.37
433.394	6054.48
433.601	6523.46
433.808	6406.73
434.016	6599.24
434.223	6781.51
434.43	7144
434.637	7189.05
434.844	7420.47
435.052	7322.17
435.259	7625.27
435.466	7576.12
435.673	7453.24
435.88	8137.26
436.087	8337.96
436.294	8536.62
436.501	8163.89
436.708	8387.11
436.915	8782.37
437.122	9177.63
437.329	9097.76
437.537	9450.01
437.743	9613.85
437.95	9552.41
438.157	10199.57
438.364	10222.09
438.571	10576.39
438.778	10453.52
438.985	11317.76
439.192	10727.94
439.399	11201.02
439.606	11035.14
439.813	11543.03
440.02	12225.01
440.227	12169.71
440.433	11721.21
440.64	12358.13
440.847	12171.76
441.054	12872.17
441.261	13582.81
441.467	13365.73
441.674	13648.35
441.881	14051.8
442.088	13941.21
442.294	14152.15
442.501	14416.33
442.708	14819.78
442.914	15339.97
443.121	16003.51
443.328	15743.42
443.534	16681.39
443.741	16148.92
443.948	15903.16
444.154	17043.88
444.361	16867.75
444.568	17295.78
444.774	17285.54
444.981	17144.23
445.187	17543.58
445.394	18395.54
445.6	18315.67
445.807	20093.3
446.013	19097.99
446.22	19337.6
446.426	20496.75
446.633	20650.35
446.839	21649.76
447.046	20054.39
447.252	21358.95
447.459	21733.73
447.665	21649.76
447.871	22313.3
448.078	23378.25
448.284	22726.99
448.491	22794.57
448.697	23853.37
448.903	24269.11
449.11	24209.72
449.316	24109.37
449.522	24566.07
449.728	25067.82
449.935	25248.04
450.141	25176.36
450.347	25803.04
450.553	24758.58
450.76	25379.11
450.966	26409.24
451.172	25911.58
451.378	26566.93
451.584	26126.62
451.791	26933.52
451.997	26829.07
452.203	27085.07
452.409	27056.4
452.615	26890.51
452.821	26075.42
453.027	25966.88
453.233	27445.51
453.44	26153.24
453.646	26321.18
453.852	26511.64
454.058	26935.57
454.264	26087.71
454.47	26503.45
454.676	25813.28
454.882	26964.24
455.088	24553.78
455.294	24824.11
455.5	25069.87
455.705	25413.93
455.911	24678.71
456.117	24115.51
456.323	23816.51
456.529	22569.3
456.735	23558.47
456.941	23017.8
457.147	22387.03
457.352	21571.94
457.558	21561.7
457.764	21750.11
457.97	21303.65
458.176	20613.49
458.381	20859.24
458.587	19966.33
458.793	19876.22
458.999	18819.47
459.204	20181.37
459.41	19450.24
459.616	18305.43
459.821	18407.83
460.027	18135.45
460.233	18014.62
460.438	16937.38
460.644	17185.19
460.85	16681.39
461.055	16189.88
461.261	16128.44
461.466	14795.21
461.672	14416.33
461.878	15290.82
462.083	14383.57
462.289	14080.47
462.494	13953.49
462.7	13314.53
462.905	13076.96
463.111	13337.06
463.316	13752.79
463.522	13070.82
463.727	13324.77
463.932	13326.82
464.138	13113.83
464.343	13214.18
464.549	12749.29
464.754	13289.95
464.959	12880.36
465.165	13019.62
465.37	12329.45
465.575	12044.79
465.781	12653.03
465.986	12702.18
466.191	12349.93
466.397	11889.14
466.602	11393.53
466.807	12044.79
467.012	11856.37
467.218	11903.48
467.423	11735.54
467.628	11825.65
467.833	12200.43
468.038	11672.06
468.244	11426.3
468.449	12014.07
468.654	11319.81
468.859	11373.05
469.064	11332.09
469.269	10879.49
469.474	10920.45
469.679	11254.27
469.885	10924.55
470.09	11137.54
470.295	10787.33
470.5	10627.59
470.705	10861.06
470.91	10666.5
471.115	10322.45
471.32	10734.09
471.525	10514.95
471.73	10396.17
471.935	10363.4
472.139	9908.76
472.344	10015.25
472.549	9855.51
472.754	9984.53
472.959	9679.38
473.164	9415.19
473.369	9263.65
473.574	9605.66
473.778	9540.12
473.983	9384.48
474.188	9480.73
474.393	9128.48
474.598	9112.1
474.802	8892.96
475.007	9085.47
475.212	8962.59
475.417	8669.73
475.621	8718.89
475.826	8782.37
476.031	8407.59
476.235	8319.53
476.44	8446.51
476.645	8366.64
476.849	8319.53
477.054	7959.09
477.259	8251.95
477.463	8178.22
477.668	7866.93
477.872	8176.17
478.077	7807.54
478.282	7647.8
478.486	7508.54
478.691	7565.88
478.895	7449.14
479.1	7490.1
479.304	7533.11
479.509	7184.96
479.713	7514.68
479.918	7033.41
480.122	7144
480.326	7187
480.531	7182.91
480.735	7270.97
480.94	7152.19
481.144	7291.45
481.348	6947.39
481.553	7062.08
481.757	6849.09
481.961	7014.98
482.166	7201.34
482.37	7082.56
482.574	6937.15
482.778	6955.58
482.983	7092.8
483.187	6785.6
483.391	6894.15
483.595	6998.59
483.8	6974.02
484.004	6951.49
484.208	6957.63
484.412	6931.01
484.616	7004.74
484.821	7154.24
485.025	6797.89
485.229	6832.71
485.433	6916.67
485.637	7051.84
485.841	6865.47
486.045	6814.27
486.249	6990.4
486.453	7092.8
486.657	6863.43
486.861	7055.93
487.065	7000.64
487.269	6916.67
487.473	6799.94
487.677	6949.44
487.881	6986.3
488.085	7025.22
488.289	6996.54
488.493	6812.23
488.697	6953.54
488.901	7019.07
489.105	6853.19
489.309	7012.93
489.512	7103.04
489.716	6982.21
489.92	6992.45
490.124	6937.15
490.328	7250.49
490.531	6998.59
490.735	7137.85
490.939	7150.14
491.143	7166.53
491.346	7078.46
491.55	7135.81
491.754	7246.4
491.958	7393.85
492.161	7170.62
492.365	7469.62
492.569	7236.16
492.772	7252.54
492.976	7236.16
493.18	7420.47
493.383	7471.67
493.587	7574.07
493.79	7768.63
493.994	7758.39
494.197	7658.04
494.401	7770.68
494.605	7791.16
494.808	7897.65
495.012	7834.16
495.215	7885.36
495.419	7963.19
495.622	7911.99
495.825	7885.36
496.029	8020.53
496.232	8280.62
496.436	8178.22
496.639	8411.69
496.843	8385.07
497.046	8677.93
497.249	8653.35
497.453	8526.38
497.656	8958.5
497.859	8751.65
498.063	8809
498.266	9026.08
498.469	9128.48
498.673	9091.62
498.876	9308.7
499.079	9341.47
499.282	9523.74
499.485	9611.8
499.689	9568.79
499.892	10005.01
500.095	9984.53
500.298	9980.43
500.501	10160.66
500.705	10240.53
500.908	10224.14
501.111	10564.11
501.314	10646.02
501.517	10584.59
501.72	10742.28
501.923	10676.74
502.126	11147.78
502.329	11092.48
502.532	11160.06
502.735	11225.6
502.938	11575.8
503.141	11469.31
503.344	11887.09
503.547	11764.22
503.75	11913.72
503.953	11973.11
504.156	12151.28
504.359	12544.49
504.562	12378.61
504.765	12524.01
504.968	12802.54
505.17	12884.45
505.373	12614.12
505.576	13005.28
505.779	13271.52
505.982	13437.41
506.185	13541.85
506.387	13634.01
506.59	13709.79
506.793	13851.1
506.996	13957.59
507.198	14565.84
507.401	14358.99
507.604	14621.13
507.807	14711.24
508.009	14744.01
508.212	14907.85
508.415	14864.84
508.617	15266.24
508.82	15212.99
509.022	15167.94
509.225	15710.65
509.428	15655.36
509.63	16071.09
509.833	15987.13
510.035	16421.3
510.238	16529.84
510.44	16423.34
510.643	16714.16
510.845	16834.99
511.048	16785.83
511.25	17273.25
511.453	17535.39
511.655	17934.74
511.858	17557.92
512.06	17656.22
512.262	17879.45
512.465	18028.95
512.667	18368.91
512.87	18561.42
513.072	18700.69
513.274	18948.49
513.477	19011.98
513.679	19204.49
513.881	19155.33
514.084	19577.22
514.286	19798.4
514.488	19773.82
514.69	20234.61
514.893	20326.77
515.095	20517.23
515.297	20582.77
515.499	20662.64
515.701	21080.42
515.904	20738.41
516.106	21422.44
516.308	21571.94
516.51	21703.01
516.712	21997.91
516.914	21932.38
517.116	22223.19
517.318	22290.77
517.52	22260.06
517.722	22704.46
517.925	22896.97
518.127	23136.59
518.329	23501.12
518.531	23402.82
518.733	23675.2
518.935	23908.67
519.136	23687.49
519.338	24568.12
519.54	24387.89
519.742	24265.02
519.944	24572.21
520.146	25073.96
520.348	25375.02
520.55	25637.16
520.752	25409.83
520.954	25708.83
521.155	25540.9
521.357	26134.81
521.559	26343.7
521.761	27021.58
521.963	26562.84
522.164	26427.67
522.366	26980.62
522.568	27074.83
522.77	27541.77
522.971	28012.8
523.173	27760.9
523.375	27965.7
523.576	27957.5
523.778	28004.61
523.98	28285.18
524.181	28451.06
524.383	28326.14
524.584	28543.22
524.786	28952.82
524.988	28844.27
525.189	29130.99
525.391	29522.15
525.592	29264.11
525.794	29393.13
525.995	29470.95
526.197	29528.3
526.398	29661.41
526.6	29952.23
526.801	29931.75
527.003	30197.98
527.204	30507.23
527.406	30712.02
527.607	30578.9
527.808	31023.31
528.01	30439.64
528.211	30671.06
528.412	31068.37
528.614	30949.59
528.815	31062.22
529.016	31520.97
529.218	30890.2
529.419	31236.3
529.62	31344.84
529.822	31262.93
530.023	31414.48
530.224	32114.88
530.425	31480.01
530.626	31353.04
530.828	31506.63
531.029	32270.53
531.23	31547.59
531.431	31905.99
531.632	32086.21
531.833	32465.08
532.035	32030.91
532.236	32106.69
532.437	31996.1
532.638	31971.52
532.839	32372.92
533.04	32565.43
533.241	31940.8
533.442	32708.79
533.643	32346.3
533.844	32217.28
534.045	32305.34
534.246	32145.6
534.447	32340.16
534.648	32116.93
534.849	32516.28
535.05	32256.19
535.251	32454.84
535.451	32495.8
535.652	32596.15
535.853	32553.15
536.054	32512.19
536.255	32856.25
536.456	32389.31
536.657	32770.23
536.857	32635.06
537.058	32245.95
537.259	32880.82
537.46	32084.16
537.66	32186.56
537.861	32952.5
538.062	32389.31
538.263	32573.63
538.463	32397.5
538.664	32323.77
538.865	32540.86
539.065	32716.98
539.266	32219.33
539.466	32520.38
539.667	31957.19
539.868	32841.91
540.068	32551.1
540.269	32590.01
540.469	32921.78
540.67	32608.44
540.87	32194.75
541.071	32420.03
541.271	32843.96
541.472	32166.08
541.672	32503.99
541.873	32587.96
542.073	31944.9
542.274	32831.67
542.474	32733.37
542.675	32305.34
542.875	32708.79
543.075	32733.37
543.276	32026.82
543.476	32747.7
543.676	32159.94
543.877	32792.76
544.077	32354.49
544.277	32413.88
544.478	32503.99
544.678	32481.47
544.878	32762.04
545.078	32659.64
545.279	32135.36
545.479	32311.49
545.679	32534.71
545.879	32590.01
546.079	32614.58
546.28	32694.46
546.48	32188.61
546.68	32956.6
546.88	32286.91
547.08	32303.29
547.28	32954.55
547.48	32227.52
547.68	32346.3
547.88	32577.72
548.081	32860.34
548.281	32360.64
548.481	32184.51
548.681	32540.86
548.881	32272.57
549.081	32524.47
549.28	32108.74
549.48	32635.06
549.68	32049.35
549.88	32917.68
550.08	32383.16
550.28	32628.92
550.48	32194.75
550.68	32538.81
550.88	32379.07
551.08	32465.08
551.279	32434.36
551.479	32204.99
551.679	32503.99
551.879	32274.62
552.079	32483.51
552.278	32200.9
552.478	32303.29
552.678	32540.86
552.878	32708.79
553.077	32321.73
553.277	32035.01
553.477	32518.33
553.676	32469.18
553.876	32190.66
554.076	32348.35
554.275	32112.83
554.475	31848.64
554.674	31944.9
554.874	32112.83
555.074	32114.88
555.273	32055.49
555.473	32116.93
555.672	32264.38
555.872	32133.31
556.071	32291.01
556.271	32145.6
556.47	31897.8
556.67	31682.76
556.869	31860.93
557.068	31668.42
557.268	31924.42
557.467	31824.07
557.667	31758.53
557.866	32037.06
558.065	31942.85
558.265	31883.46
558.464	31461.58
558.663	32151.74
558.863	31441.1
559.062	32319.68
559.261	31533.26
559.461	31774.92
559.66	31260.88
559.859	31885.51
560.058	31271.12
560.258	31312.08
560.457	31334.6
560.656	31551.69
560.855	31312.08
561.054	31764.68
561.253	31205.58
561.453	30894.29
561.652	31283.41
561.851	31131.86
562.05	31072.46
562.249	31172.81
562.448	31426.76
562.647	30824.66
562.846	30664.92
563.045	30902.48
563.244	30679.25
563.443	31094.99
563.642	30451.93
563.841	30783.7
564.04	30861.52
564.239	30939.35
564.438	30388.44
564.637	30810.32
564.836	30402.78
565.035	30378.2
565.234	30494.94
565.432	30240.99
565.631	30271.71
565.83	30777.56
566.029	30120.16
566.228	30249.18
566.427	30247.13
566.625	29892.83
566.824	29700.33
567.023	29944.03
567.222	29528.3
567.42	29927.65
567.619	29817.06
567.818	29257.96
568.016	29671.65
568.215	29868.26
568.414	29341.93
568.612	29890.79
568.811	29421.8
569.01	29581.54
569.208	29192.43
569.407	29434.09
569.605	29055.22
569.804	29675.75
570.002	28924.15
570.201	29434.09
570.4	29151.47
570.598	28965.1
570.797	28588.28
570.995	28954.86
571.193	28545.27
571.392	29040.88
571.59	28485.88
571.789	28530.94
571.987	28623.09
572.186	28477.69
572.384	28268.8
572.582	28801.27
572.781	28707.06
572.979	28221.69
573.177	28168.44
573.376	28346.62
573.574	28156.16
573.772	28354.81
573.971	28043.52
574.169	27994.37
574.367	27420.94
574.565	27930.88
574.763	27885.83
574.962	27627.78
575.16	27597.06
575.358	27607.3
575.556	27312.39
575.754	27719.94
575.952	27191.56
576.151	27803.91
576.349	27171.08
576.547	27592.97
576.745	27361.55
576.943	27443.46
577.141	27076.88
577.339	27515.14
577.537	27115.79
577.735	26972.43
577.933	26784.02
578.131	27023.63
578.329	26712.34
578.527	26833.17
578.725	26640.66
578.923	26528.02
579.121	26507.54
579.319	26466.58
579.516	26777.87
579.714	26517.78
579.912	26691.86
580.11	26222.87
580.308	26513.69
580.506	26155.29
580.704	25700.64
580.901	26353.94
581.099	26241.31
581.297	25833.76
581.495	25960.73
581.692	26005.79
581.89	25622.82
582.088	25958.69
582.285	25831.71
582.483	25823.52
582.681	25919.78
582.878	25637.16
583.076	25319.72
583.274	25530.66
583.471	25002.29
583.669	25295.14
583.866	25172.27
584.064	25258.28
584.262	25059.63
584.459	25235.75
584.657	25000.24
584.854	25225.51
585.052	24840.5
585.249	25071.92
585.447	24901.93
585.644	24703.28
585.841	24772.91
586.039	24942.89
586.236	24424.76
586.434	24205.63
586.631	24412.47
586.828	24424.76
587.026	24205.63
587.223	24301.88
587.42	24193.34
587.618	24359.22
587.815	23873.85
588.012	23980.35
588.21	23949.63
588.407	24117.56
588.604	24009.02
588.801	23738.69
588.999	23810.37
589.196	23617.86
589.393	23787.84
589.59	23429.45
589.787	23540.04
589.984	23345.48
590.182	23265.61
590.379	23337.29
590.576	23038.28
590.773	23312.71
590.97	22939.98
591.167	23163.21
591.364	22962.51
591.561	22901.07
591.758	22708.56
591.955	22913.36
592.152	22919.5
592.349	22743.38
592.546	22765.9
592.743	22692.18
592.94	22311.25
593.137	22638.93
593.334	22468.95
593.531	22239.58
593.727	22333.78
593.924	22452.56
594.121	22200.66
594.318	22233.43
594.515	21883.23
594.712	22180.18
594.908	21961.05
595.105	21922.14
595.302	22053.21
595.499	21868.89
595.696	21543.27
595.892	21700.96
596.089	21666.14
596.286	21971.29
596.482	21502.31
596.679	21778.78
596.876	21721.44
597.072	21283.17
597.269	21338.47
597.466	21018.99
597.662	21016.94
597.859	21041.51
598.055	21076.33
598.252	20955.5
598.448	20889.96
598.645	21066.09
598.841	20939.12
599.038	20838.76
599.234	20949.35
599.431	20343.16
599.627	20482.42
599.824	20760.94
600.02	20476.27
600.217	20472.18
600.413	20502.9
600.609	20423.03
600.806	20042.1
601.002	20541.81
601.198	20040.06
601.395	20263.29
601.591	20240.76
601.787	20091.26
601.984	19798.4
602.18	20015.48
602.376	20011.39
602.572	19620.22
602.769	19855.74
602.965	19732.86
603.161	19822.97
603.357	19681.66
603.553	19405.19
603.75	19446.15
603.946	19429.76
604.142	19487.11
604.338	19163.53
604.534	19321.22
604.73	18966.92
604.926	19040.65
605.122	19206.53
605.318	18899.34
605.514	19110.28
605.71	19100.04
605.906	19020.17
606.102	18905.48
606.298	19095.94
606.494	19067.27
606.69	18645.39
606.886	18954.63
607.082	18295.19
607.278	18760.08
607.474	18440.59
607.67	18514.32
607.866	18348.43
608.062	18694.54
608.257	18364.82
608.453	18506.13
608.649	18225.56
608.845	18121.11
609.041	18268.56
609.236	18313.62
609.432	18272.66
609.628	18139.54
609.824	18170.26
610.019	18399.63
610.215	17918.36
610.411	18106.77
610.606	17885.59
610.802	17758.62
610.998	17928.6
611.193	18125.21
611.389	17682.84
611.584	17893.79
611.78	18028.95
611.976	17908.12
612.171	18047.38
612.367	17732
612.562	17752.48
612.758	17461.66
612.953	17217.96
613.149	17701.28
613.344	17772.96
613.539	17840.54
613.735	17703.32
613.93	17586.59
614.126	17422.75
614.321	17607.07
614.517	17541.53
614.712	17418.66
614.907	17322.4
615.103	17609.12
615.298	17519.01
615.493	17602.97
615.688	17105.32
615.884	17441.18
616.079	17172.9
616.274	17265.06
616.47	17330.59
616.665	17256.87
616.86	17443.23
617.055	17121.7
617.25	17035.69
617.445	17211.81
617.641	16959.91
617.836	17084.84
618.031	16869.8
618.226	16898.47
618.421	16875.95
618.616	16808.36
618.811	16503.21
619.006	16972.2
619.201	16462.26
619.396	16595.37
619.591	16507.31
619.786	16402.86
619.981	16241.07
620.176	16255.41
620.371	16103.86
620.566	16191.92
620.761	16327.09
620.956	16261.55
621.151	16015.8
621.346	16146.87
621.541	15839.67
621.735	15974.84
621.93	15419.84
622.125	15935.93
622.32	15421.89
622.515	15643.07
622.709	15559.1
622.904	15581.63
623.099	15362.5
623.294	15366.59
623.488	15063.49
623.683	15106.5
623.878	14817.74
624.072	14885.32
624.267	15022.53
624.462	14551.5
624.656	14614.99
624.851	14840.26
625.046	14422.48
625.24	14606.8
625.435	14365.14
625.629	14240.21
625.824	14307.79
626.018	14133.71
626.213	14039.51
626.407	14315.98
626.602	14148.05
626.796	14137.81
626.991	13990.36
627.185	13623.77
627.38	13765.08
627.574	13548
627.768	13631.96
627.963	13533.66
628.157	13441.5
628.352	13359.58
628.546	13224.42
628.74	13341.15
628.935	13332.96
629.129	13048.29
629.323	13087.2
629.517	12909.03
629.712	12839.4
629.906	12728.81
630.1	12622.31
630.294	12784.1
630.489	12564.97
630.683	12857.83
630.877	12419.57
631.071	12440.04
631.265	12433.9
631.459	12438
631.653	12468.72
631.848	12212.72
632.042	12288.5
632.236	12239.34
632.43	11891.19
632.624	11938.29
632.818	11907.57
633.012	11788.79
633.206	11772.41
633.4	11989.49
633.594	11504.12
633.788	11448.83
633.982	11647.48
634.176	11528.7
634.369	11557.37
634.563	11471.36
634.757	11426.3
634.951	11383.29
635.145	11282.94
635.339	11237.89
635.533	11192.83
635.726	11151.87
635.92	10871.3
636.114	10936.84
636.308	10977.8
636.501	11108.87
636.695	10836.49
636.889	10992.13
637.083	10805.77
637.276	10590.73
637.47	10715.66
637.664	10412.56
637.857	10502.67
638.051	10478.09
638.244	10367.5
638.438	10418.7
638.632	10387.98
638.825	10236.43
639.019	9892.37
639.212	10039.83
639.406	10148.37
639.599	9990.67
639.793	10103.31
639.986	9951.76
640.18	9828.88
640.373	9925.14
640.567	9458.2
640.76	9634.33
640.954	9796.12
641.147	9638.42
641.34	9413.15
641.534	9683.48
641.727	9507.35
641.92	9576.98
642.114	9398.81
642.307	9382.43
642.5	9210.4
642.694	9298.46
642.887	9073.18
643.08	9183.77
643.273	9179.68
643.467	9167.39
643.66	9091.62
643.853	8935.97
644.046	8927.78
644.239	8929.83
644.432	8866.34
644.626	8880.68
644.819	8733.22
645.012	8624.68
645.205	8698.41
645.398	8741.41
645.591	8653.35
645.784	8688.17
645.977	8454.7
646.17	8397.35
646.363	8411.69
646.556	8389.16
646.749	8432.17
646.942	8399.4
647.135	8053.3
647.328	8098.35
647.521	8315.44
647.714	8067.63
647.907	8016.43
648.099	7965.23
648.292	8210.99
648.485	7924.27
648.678	7946.8
648.871	7801.4
649.064	8032.82
649.256	7858.74
649.449	7909.94
649.642	7801.4
649.835	7606.84
650.027	7600.69
650.22	7701.05
650.413	7584.31
650.605	7547.45
650.798	7520.82
650.991	7535.16
651.183	7639.61
651.376	7356.99
651.568	7434.81
651.761	7340.6
651.954	7332.41
652.146	7295.55
652.339	7309.88
652.531	7195.2
652.724	7203.39
652.916	6816.32
653.109	7121.47
653.301	7035.46
653.494	7012.93
653.686	6836.8
653.879	7158.33
654.071	7047.74
654.263	6967.87
654.456	6906.43
654.648	6982.21
654.84	6697.54
655.033	6713.92
655.225	6910.53
655.417	6648.39
655.61	6634.05
655.802	6705.73
655.994	6556.23
656.186	6568.52
656.379	6486.6
656.571	6607.43
656.763	6462.02
656.955	6541.89
657.148	6496.84
657.34	6482.5
657.532	6396.49
657.724	6259.28
657.916	6234.7
658.108	6306.38
658.3	6326.86
658.492	6193.74
658.684	6226.51
658.876	5964.37
659.068	6175.31
659.26	6027.85
659.452	6013.52
659.644	6111.82
659.836	6007.37
660.028	6066.77
660.22	5812.82
660.412	6036.05
660.604	5904.98
660.796	5796.43
660.988	5827.15
661.18	5691.99
661.372	5870.16
661.563	5679.7
661.755	5612.12
661.947	5702.23
662.139	5628.5
662.331	5651.03
662.522	5546.58
662.714	5534.29
662.906	5571.16
663.097	5524.05
663.289	5550.68
663.481	5263.96
663.673	5362.26
663.864	5474.9
664.056	5442.14
664.247	5407.32
664.439	5458.52
664.631	5292.63
664.822	5278.3
665.014	5239.39
665.205	5249.63
665.397	5225.05
665.588	5212.76
665.78	5274.2
665.971	5190.24
666.163	5188.19
666.354	5136.99
666.546	5143.13
666.737	5098.08
666.929	4987.49
667.12	5112.41
667.311	5069.41
667.503	5229.15
667.694	4809.31
667.885	4915.81
668.077	5046.88
668.268	4911.71
668.459	4932.19
668.651	4985.44
668.842	4723.3
669.033	4749.92
669.224	4749.92
669.416	4924
669.607	4870.75
669.798	4764.26
669.989	4760.16
670.18	4696.67
670.371	4639.33
670.563	4749.92
670.754	4653.67
670.945	4434.53
671.136	4647.52
671.327	4651.62
671.518	4532.84
671.709	4614.76
671.9	4686.44
672.091	4530.79
672.282	4495.97
672.473	4438.63
672.664	4477.54
672.855	4434.53
673.046	4512.36
673.237	4432.49
673.428	4508.26
673.619	4336.23
673.809	4520.55
674	4387.43
674.191	4450.92
674.382	4346.47
674.573	4463.21
674.764	4436.58
674.954	4393.58
675.145	4287.08
675.336	4346.47
675.527	4262.51
675.717	4414.06
675.908	4289.13
676.099	4231.79
676.289	4250.22
676.48	4172.39
676.671	4151.92
676.861	4297.32
677.052	4321.9
677.243	3951.21
677.433	4194.92
677.624	4246.12
677.814	4223.59
678.005	4225.64
678.195	4147.82
678.386	4059.76
678.576	4094.57
678.767	4145.77
678.957	4160.11
679.148	4139.63
679.338	4149.87
679.529	4137.58
679.719	4100.72
679.909	4133.48
680.1	4041.32
680.29	4065.9
680.481	4014.7
680.671	3953.26
680.861	4166.25
681.052	3932.78
681.242	4020.85
681.432	4090.48
681.622	3918.45
681.813	4018.8
682.003	4006.51
682.193	3900.02
682.383	4039.28
682.573	3994.22
682.764	4029.04
682.954	3879.54
683.144	4018.8
683.334	3943.02
683.524	3992.17
683.714	3990.13
683.904	4008.56
684.094	3859.06
684.284	3846.77
684.474	3934.83
684.664	3943.02
684.854	3830.38
685.044	3865.2
685.234	3814
685.424	3863.15
685.614	3816.05
685.804	3840.62
685.994	3867.25
686.184	3793.52
686.374	3834.48
686.564	3750.51
686.753	3689.07
686.943	3799.66
687.133	3635.83
687.323	3707.51
687.513	3695.22
687.702	3713.65
687.892	3672.69
688.082	3637.88
688.272	3588.72
688.461	3588.72
688.651	3562.1
688.841	3541.62
689.03	3523.19
689.22	3539.57
689.41	3484.28
689.599	3400.31
689.789	3502.71
689.979	3416.69
690.168	3457.65
690.358	3402.36
690.547	3254.9
690.737	3373.69
690.926	3453.56
691.116	3355.26
691.305	3453.56
691.495	3394.17
691.684	3277.43
691.874	3310.2
692.063	3326.58
692.252	3199.61
692.442	3228.28
692.631	3179.13
692.82	3162.75
693.01	3191.42
693.199	3209.85
693.388	3201.66
693.578	3228.28
693.767	3209.85
693.956	3082.88
694.146	3144.31
694.335	3132.03
694.524	3076.73
694.713	3078.78
694.902	3211.9
695.092	3064.44
695.281	3033.72
695.47	2994.81
695.659	3003
695.848	2984.57
696.037	2914.94
696.226	3009.15
696.415	2916.99
696.604	3060.35
696.793	3066.49
696.982	3003
697.171	3025.53
697.36	2960
697.549	2898.56
697.738	2882.17
697.927	2921.09
698.116	2976.38
698.305	2886.27
698.494	2861.69
698.683	2806.4
698.872	2882.17
699.061	2943.61
699.25	2957.95
699.438	2898.56
699.627	2976.38
699.816	2949.76
700.005	2966.14
700.193	2906.75
700.382	2916.99
700.571	2822.78
700.76	2749.06
700.948	2847.36
701.137	2906.75
701.326	2808.45
701.514	2824.83
701.703	2865.79
701.892	2853.5
702.08	3000.96
702.269	2882.17
702.457	2937.47
702.646	2667.14
702.834	2902.65
703.023	2777.73
703.212	2843.26
703.4	2759.3
703.589	2826.88
703.777	2886.27
703.965	2728.58
704.154	2779.78
704.342	2697.86
704.531	2826.88
704.719	2755.2
704.907	2749.06
705.096	2749.06
705.284	2736.77
705.472	2812.54
705.661	2863.74
705.849	2787.97
706.037	2779.78
706.226	2851.46
706.414	2779.78
706.602	2671.23
706.79	2853.5
706.979	2800.26
707.167	2814.59
707.355	2716.29
707.543	2796.16
707.731	2787.97
707.919	2837.12
708.107	2724.48
708.296	2720.39
708.484	2689.67
708.672	2802.3
708.86	2871.93
709.048	2849.41
709.236	2734.72
709.424	2900.61
709.612	2677.38
709.8	2728.58
709.988	2654.85
710.176	2763.39
710.364	2816.64
710.551	2708.1
710.739	2617.99
710.927	2857.6
711.115	2706.05
711.303	2837.12
711.491	2816.64
711.679	2704
711.866	2851.46
712.054	2667.14
712.242	2646.66
712.43	2824.83
712.617	2681.47
712.805	2638.47
712.993	2681.47
713.181	2759.3
713.368	2769.54
713.556	2792.06
713.744	2736.77
713.931	2957.95
714.119	2822.78
714.306	2912.89
714.494	2763.39
714.682	2785.92
714.869	2785.92
715.057	2775.68
715.244	2728.58
715.432	2822.78
715.619	2706.05
715.807	2792.06
715.994	2833.02
716.182	2812.54
716.369	2884.22
716.556	2742.91
716.744	2626.18
716.931	2765.44
717.119	2798.21
717.306	2779.78
717.493	2681.47
717.681	2849.41
717.868	2775.68
718.055	2683.52
718.242	2830.98
718.43	2792.06
718.617	2857.6
718.804	2843.26
718.991	2816.64
719.179	2818.69
719.366	2779.78
719.553	2763.39
719.74	2673.28
719.927	2665.09
720.114	2691.71
720.301	2830.98
720.488	2769.54
720.676	2773.63
720.863	2802.3
721.05	2845.31
721.237	2654.85
721.424	2794.11
721.611	2787.97
721.798	2837.12
721.985	2765.44
722.172	2808.45
722.358	2796.16
722.545	2806.4
722.732	2751.1
722.919	2814.59
723.106	2771.58
723.293	2859.65
723.48	2871.93
723.667	2720.39
723.853	2689.67
724.04	2802.3
724.227	2800.26
724.414	2804.35
724.6	2632.32
724.787	2806.4
724.974	2673.28
725.161	2785.92
725.347	2767.49
725.534	2699.91
725.72	2761.34
725.907	2808.45
726.094	2683.52
726.28	2736.77
726.467	2845.31
726.653	2781.82
726.84	2769.54
727.027	2742.91
727.213	2968.19
727.4	2820.74
727.586	2812.54
727.773	2695.81
727.959	2824.83
728.145	2751.1
728.332	2796.16
728.518	2828.93
728.705	2810.5
728.891	2790.02
729.077	2800.26
729.264	2757.25
729.45	2720.39
729.636	2767.49
729.823	2790.02
730.009	2775.68
730.195	2804.35
730.382	2763.39
730.568	2800.26
730.754	2712.19
730.94	2853.5
731.126	2790.02
731.313	2830.98
731.499	2765.44
731.685	2726.53
731.871	2802.3
732.057	2792.06
732.243	2767.49
732.429	2775.68
732.615	2763.39
732.801	2802.3
732.987	2689.67
733.173	2722.43
733.359	2767.49
733.545	2730.62
733.731	2777.73
733.917	2794.11
734.103	2757.25
734.289	2773.63
734.475	2675.33
734.661	2749.06
734.847	2763.39
735.033	2876.03
735.219	2718.34
735.404	2660.99
735.59	2763.39
735.776	2824.83
735.962	2781.82
736.148	2708.1
736.333	2742.91
736.519	2714.24
736.705	2716.29
736.89	2769.54
737.076	2595.46
737.262	2687.62
737.447	2716.29
737.633	2734.72
737.819	2660.99
738.004	2601.6
738.19	2589.32
738.375	2742.91
738.561	2689.67
738.747	2523.78
738.932	2642.56
739.118	2706.05
739.303	2712.19
739.489	2617.99
739.674	2636.42
739.859	2538.12
740.045	2620.03
740.23	2634.37
740.416	2595.46
740.601	2656.9
740.786	2564.74
740.972	2552.45
741.157	2708.1
741.342	2474.63
741.528	2593.41
741.713	2693.76
741.898	2593.41
742.084	2589.32
742.269	2511.49
742.454	2622.08
742.639	2558.6
742.824	2511.49
743.01	2486.92
743.195	2574.98
743.38	2593.41
743.565	2357.89
743.75	2421.38
743.935	2433.67
744.12	2529.92
744.305	2452.1
744.49	2505.35
744.675	2284.17
744.86	2351.75
745.045	2429.57
745.23	2380.42
745.415	2439.81
745.6	2349.7
745.785	2407.05
745.97	2419.33
746.155	2411.14
746.34	2323.08
746.525	2292.36
746.71	2343.56
746.895	2364.04
747.079	2237.06
747.264	2480.77
747.449	2224.78
747.634	2261.64
747.819	2245.26
748.003	2294.41
748.188	2214.54
748.373	2273.93
748.557	2230.92
748.742	2081.42
748.927	2019.98
749.111	2144.91
749.296	2110.09
749.481	2069.13
749.665	2222.73
749.85	2022.03
750.034	2105.99
750.219	2157.19
750.404	1964.68
750.588	1921.68
750.773	2024.08
750.957	2011.79
751.141	1962.64
751.326	1981.07
751.51	1964.68
751.695	2024.08
751.879	1933.97
752.064	1933.97
752.248	1944.2
752.432	1880.72
752.617	1952.4
752.801	1890.96
752.985	1858.19
753.17	1852.05
753.354	1899.15
753.538	1786.51
753.722	1864.33
753.907	1733.26
754.091	1745.55
754.275	1833.61
754.459	1825.42
754.643	1702.54
754.828	1727.12
755.012	1725.07
755.196	1634.96
755.38	1733.26
755.564	1741.46
755.748	1696.4
755.932	1602.19
756.116	1647.25
756.3	1555.09
756.484	1616.53
756.668	1536.66
756.852	1546.9
757.036	1581.71
757.22	1557.14
757.404	1501.84
757.588	1507.99
757.772	1544.85
757.956	1571.47
758.14	1565.33
758.323	1602.19
758.507	1565.33
758.691	1536.66
758.875	1526.42
759.059	1464.98
759.242	1471.12
759.426	1444.5
759.61	1442.45
759.794	1428.12
759.977	1374.87
760.161	1458.84
760.345	1376.92
760.528	1475.22
760.712	1397.4
760.895	1323.67
761.079	1325.72
761.263	1350.29
761.446	1284.76
761.63	1360.53
761.813	1348.25
761.997	1342.1
762.18	1288.85
762.364	1319.57
762.547	1270.42
762.731	1335.96
762.914	1305.24
763.098	1192.6
763.281	1213.08
763.464	1329.81
763.648	1350.29
763.831	1215.13
764.015	1303.19
764.198	1180.31
764.381	1241.75
764.564	1311.38
764.748	1237.66
764.931	1217.18
765.114	1229.46
765.297	1247.9
765.481	1141.4
765.664	1245.85
765.847	1137.31
766.03	1186.46
766.213	1125.02
766.397	1231.51
766.58	1125.02
766.763	1104.54
766.946	1192.6
767.129	1159.83
767.312	1102.49
767.495	1094.3
767.678	1192.6
767.861	1116.83
768.044	1010.33
768.227	1168.02
768.41	1151.64
768.593	1141.4
768.776	998.04
768.959	1157.79
769.142	1047.19
769.324	1137.31
769.507	1204.89
769.69	1049.24
769.873	1108.63
770.056	1034.91
770.239	1000.09
770.421	1065.63
770.604	1053.34
770.787	961.18
770.97	965.28
771.152	1028.76
771.335	963.23
771.518	967.32
771.7	1016.48
771.883	1026.71
772.066	957.08
772.248	1075.87
772.431	1022.62
772.613	957.08
772.796	961.18
772.978	1004.19
773.161	1000.09
773.343	967.32
773.526	938.65
773.708	1020.57
773.891	955.04
774.073	842.4
774.256	938.65
774.438	961.18
774.621	875.17
774.803	897.69
774.985	881.31
775.168	922.27
775.35	860.83
775.532	811.68
775.715	768.67
775.897	848.54
776.079	869.02
776.261	871.07
776.444	858.78
776.626	801.44
776.808	846.49
776.99	756.38
777.173	785.05
777.355	803.49
777.537	740
777.719	764.58
777.901	850.59
778.083	793.25
778.265	703.14
778.447	762.53
778.629	742.05
778.811	815.77
778.993	817.82
779.175	750.24
779.357	703.14
779.539	754.34
779.721	649.89
779.903	725.66
780.085	707.23
780.267	656.03
780.449	842.4
780.631	752.29
780.812	696.99
780.994	682.66
781.176	645.79
781.358	602.79
781.54	676.51
781.721	647.84
781.903	684.7
782.085	623.27
782.267	633.5
782.448	615.07
782.63	582.31
782.812	570.02
782.993	625.31
783.175	565.92
783.357	541.35
783.538	547.49
783.72	651.94
783.901	565.92
784.083	633.5
784.264	506.53
784.446	537.25
784.627	514.72
784.809	570.02
784.99	559.78
785.172	527.01
785.353	549.54
785.535	465.57
785.716	479.91
785.897	512.67
786.079	453.28
786.26	549.54
786.441	533.15
786.623	465.57
786.804	510.63
786.985	504.48
787.167	463.52
787.348	473.76
787.529	539.3
787.71	584.35
787.891	447.14
788.073	426.66
788.254	461.48
788.435	447.14
788.616	430.76
788.797	445.09
788.978	441
789.159	393.89
789.34	418.47
789.522	381.6
789.703	389.8
789.884	469.67
790.065	447.14
790.246	328.36
790.427	385.7
790.607	424.61
790.788	434.85
790.969	373.41
791.15	428.71
791.331	340.65
791.512	434.85
791.693	365.22
791.874	291.49
792.054	471.72
792.235	400.04
792.416	422.56
792.597	365.22
792.778	387.75
792.958	385.7
793.139	416.42
793.32	385.7
793.5	373.41
793.681	434.85
793.862	334.5
794.042	348.84
794.223	377.51
794.404	293.54
794.584	326.31
794.765	279.21
794.945	357.03
795.126	383.65
795.306	381.6
795.487	350.89
795.667	324.26
795.848	277.16
796.028	344.74
796.209	293.54
796.389	299.69
796.57	307.88
796.75	285.35
796.93	365.22
797.111	299.69
797.291	326.31
797.471	258.73
797.652	266.92
797.832	266.92
798.012	299.69
798.192	322.21
798.373	293.54
798.553	268.97
798.733	361.13
798.913	277.16
799.093	311.97
799.274	232.1
799.454	244.39
799.634	307.88
799.814	268.97
799.994	311.97
800.174	271.01
800.354	262.82
800.534	244.39
800.714	352.93
800.894	301.73
801.074	209.58
801.254	201.38
801.434	311.97
801.614	281.25
801.794	156.33
801.974	643.74
802.154	283.3
802.334	242.34
802.514	160.42
802.693	301.73
802.873	221.86
803.053	248.49
803.233	228.01
803.413	164.52
803.592	197.29
803.772	223.91
803.952	260.77
804.131	254.63
804.311	334.5
804.491	264.87
804.67	228.01
804.85	287.4
805.03	199.34
805.209	201.38
805.389	203.43
805.568	180.9
805.748	211.62
805.928	256.68
806.107	219.82
806.287	189.1
806.466	260.77
806.646	217.77
806.825	166.57
807.004	219.82
807.184	203.43
807.363	205.48
807.543	203.43
807.722	217.77
807.901	189.1
808.081	176.81
808.26	185
808.439	228.01
808.619	187.05
808.798	209.58
808.977	248.49
809.156	256.68
809.336	172.71
809.515	213.67
809.694	137.9
809.873	176.81
810.052	256.68
810.231	248.49
810.411	164.52
810.59	262.82
810.769	162.47
810.948	189.1
811.127	197.29
811.306	254.63
811.485	213.67
811.664	213.67
811.843	176.81
812.022	158.38
812.201	129.7
812.38	238.25
812.559	96.94
812.737	238.25
812.916	176.81
813.095	238.25
813.274	156.33
813.453	248.49
813.632	103.08
813.811	211.62
813.989	146.09
814.168	150.18
814.347	162.47
814.526	148.14
814.704	221.86
814.883	203.43
815.062	144.04
815.24	174.76
815.419	182.95
815.598	127.66
815.776	58.03
815.955	39.59
816.133	111.27
816.312	133.8
816.49	88.75
816.669	127.66
816.847	191.14
817.026	176.81
817.204	121.51
817.383	197.29
817.561	154.28
817.74	152.23
817.918	228.01
818.097	164.52
818.275	125.61
818.453	199.34
818.632	127.66
818.81	111.27
818.988	78.51
819.167	90.79
819.345	199.34
819.523	180.9
819.701	127.66
819.879	201.38
820.058	103.08
820.236	148.14
820.414	88.75
820.592	121.51
820.77	109.22
820.948	107.18
821.127	117.42
821.305	92.84
821.483	148.14
821.661	180.9
821.839	117.42
822.017	92.84
822.195	58.03
822.373	137.9
822.551	148.14
822.729	187.05
822.907	150.18
823.085	98.99
823.262	156.33
823.44	33.45
823.618	72.36
823.796	168.62
823.974	117.42
824.152	117.42
824.329	103.08
824.507	156.33
824.685	55.98
824.863	123.56
825.04	66.22
825.218	178.86
825.396	90.79
825.574	88.75
825.751	137.9
825.929	150.18
826.107	109.22
826.284	66.22
826.462	78.51
826.639	88.75
826.817	111.27
826.994	78.51
827.172	144.04
827.349	88.75
827.527	121.51
827.704	82.6
827.882	187.05
828.059	86.7
828.237	111.27
828.414	178.86
828.591	117.42
828.769	113.32
828.946	76.46
829.124	86.7
829.301	84.65
829.478	64.17
829.655	129.7
829.833	90.79
830.01	96.94
830.187	62.12
830.364	72.36
830.542	72.36
830.719	41.64
830.896	58.03
831.073	109.22
831.25	94.89
831.427	74.41
831.604	119.46
831.782	80.55
831.959	64.17
832.136	33.45
832.313	113.32
832.49	78.51
832.667	19.11
832.844	103.08
833.021	64.17
833.198	129.7
833.374	125.61
833.551	98.99
833.728	98.99
833.905	53.93
834.082	58.03
834.259	51.88
834.436	66.22
834.612	51.88
834.789	39.59
834.966	-11.61
835.143	131.75
835.319	25.26
835.496	76.46
835.673	131.75
835.85	141.99
836.026	135.85
836.203	78.51
836.38	17.07
836.556	41.64
836.733	31.4
836.909	76.46
837.086	15.02
837.262	8.87
837.439	31.4
837.616	-11.61
837.792	64.17
837.968	51.88
838.145	62.12
838.321	90.79
838.498	35.5
838.674	35.5
838.851	-9.56
839.027	111.27
839.203	49.83
839.38	43.69
839.556	53.93
839.732	133.8
839.909	47.79
840.085	107.18
840.261	6.83
840.437	-9.56
840.614	21.16
840.79	17.07
840.966	35.5
841.142	35.5
841.318	45.74
841.494	49.83
841.671	82.6
841.847	55.98
842.023	68.27
842.199	88.75
842.375	84.65
842.551	-1.37
842.727	23.21
842.903	84.65
843.079	35.5
843.255	8.87
843.431	17.07
843.607	10.92
843.783	-7.51
843.959	10.92
844.134	60.07
844.31	113.32
844.486	55.98
844.662	37.55
844.838	55.98
845.013	72.36
845.189	25.26
845.365	74.41
845.541	19.11
845.716	68.27
845.892	68.27
846.068	53.93
846.244	-44.37
846.419	37.55
846.595	0.68
846.77	8.87
846.946	27.31
847.122	2.73
847.297	-1.37
847.473	189.1
847.648	78.51
847.824	117.42
847.999	41.64
848.175	47.79
848.35	6.83
848.526	47.79
848.701	92.84
848.876	-19.8
849.052	0.68
849.227	64.17
849.403	25.26
849.578	19.11
849.753	-52.56
849.929	51.88
850.104	-91.48
850.279	29.35
850.454	27.31
850.63	96.94
850.805	53.93
850.98	2.73
851.155	4.78
851.33	6.83
851.505	-17.75
851.681	58.03
851.856	25.26
852.031	2.73
852.206	33.45
852.381	62.12
852.556	82.6
852.731	43.69
852.906	-19.8
853.081	-122.2
853.256	29.35
853.431	31.4
853.606	-11.61
853.781	-54.61
853.956	-68.95
854.131	33.45
854.305	35.5
854.48	-17.75
854.655	135.85
854.83	-27.99
855.005	4.78
855.18	12.97
855.354	-15.7
855.529	49.83
855.704	53.93
855.879	27.31
856.053	10.92
856.228	80.55
856.403	-1.37
856.577	123.56
856.752	17.07
856.926	0.68
857.101	39.59
857.276	-27.99
857.45	4.78
857.625	53.93
857.799	-1.37
857.974	35.5
858.148	23.21
858.323	12.97
858.497	37.55
858.672	17.07
858.846	12.97
859.02	-1.37
859.195	-30.04
859.369	0.68
859.543	74.41
859.718	76.46
859.892	98.99
860.066	72.36
860.241	25.26
860.415	-19.8
860.589	37.55
860.763	33.45
860.938	-25.94
861.112	70.31
861.286	10.92
861.46	-5.46
861.634	8.87
861.808	12.97
861.982	17.07
862.157	21.16
862.331	58.03
862.505	-15.7
862.679	-23.89
862.853	66.22
863.027	-3.41
863.201	68.27
863.375	-15.7
863.549	-21.85
863.722	-21.85
863.896	12.97
864.07	-21.85
864.244	23.21
864.418	43.69
864.592	6.83
864.766	15.02
864.939	15.02
865.113	23.21
865.287	90.79
865.461	25.26
865.634	12.97
865.808	-50.52
865.982	96.94
866.156	-23.89
866.329	29.35
866.503	62.12
866.676	-36.18
866.85	0.68
867.024	-77.14
867.197	-13.65
867.371	17.07
867.544	-13.65
867.718	37.55
867.891	-5.46
868.065	17.07
868.238	8.87
868.412	37.55
868.585	-11.61
868.759	-52.56
868.932	-21.85
869.105	21.16
869.279	-89.43
869.452	-9.56
869.625	66.22
869.799	19.11
869.972	25.26
870.145	-60.76
870.319	-11.61
870.492	-50.52
870.665	-32.08
870.838	37.55
871.011	-81.24
871.185	-21.85
871.358	-38.23
871.531	15.02
871.704	17.07
871.877	49.83
872.05	-15.7
872.223	23.21
872.396	51.88
872.569	-17.75
872.742	-23.89
872.915	-40.28
873.088	-32.08
873.261	-34.13
873.434	15.02
873.607	62.12
873.78	31.4
873.953	-68.95
874.126	-48.47
874.299	49.83
874.471	-54.61
874.644	-27.99
874.817	-83.28
874.99	86.7
875.163	49.83
875.335	29.35
875.508	68.27
875.681	35.5
875.853	-13.65
876.026	0.68
876.199	58.03
876.371	12.97
876.544	-1.37
876.717	12.97
876.889	-15.7
877.062	8.87
877.234	2.73
877.407	-68.95
877.579	-85.33
877.752	90.79
877.924	45.74
878.097	4.78
878.269	-46.42
878.442	55.98
878.614	53.93
878.786	58.03
878.959	53.93
879.131	-40.28
879.303	-23.89
879.476	2.73
879.648	78.51
879.82	68.27
879.993	19.11
880.165	29.35
880.337	-32.08
880.509	-48.47
880.681	-27.99
880.854	-46.42
881.026	21.16
881.198	-23.89
881.37	-75.09
881.542	47.79
881.714	-60.76
881.886	31.4
882.058	29.35
882.23	-30.04
882.402	-15.7
882.574	-13.65
882.746	-15.7
882.918	-9.56
883.09	-75.09
883.262	-62.8
883.434	-42.32
883.606	39.59
883.778	-25.94
883.95	-38.23
884.122	8.87
884.293	2.73
884.465	29.35
884.637	80.55
884.809	-32.08
884.98	19.11
885.152	-38.23
885.324	35.5
885.496	-11.61
885.667	-7.51
885.839	-11.61
886.011	4.78
886.182	29.35
886.354	10.92
886.525	-3.41
886.697	-19.8
886.869	-27.99
887.04	19.11
887.212	-66.9
887.383	92.84
887.555	43.69
887.726	-44.37
887.897	12.97
888.069	19.11
888.24	-62.8
888.412	23.21
888.583	-25.94
888.754	-79.19
888.926	10.92
889.097	58.03
889.268	-17.75
889.44	6.83
889.611	-1.37
889.782	-42.32
889.953	-17.75
890.125	8.87
890.296	-32.08
890.467	37.55
890.638	-13.65
890.809	-19.8
890.98	0.68
891.151	-46.42
891.323	51.88
891.494	55.98
891.665	6.83
891.836	-44.37
892.007	29.35
892.178	17.07
892.349	53.93
892.52	2.73
892.691	-25.94
892.862	64.17
893.032	-42.32
893.203	8.87
893.374	4.78
893.545	21.16
893.716	31.4
893.887	-48.47
894.057	15.02
894.228	0.68
894.399	-19.8
894.57	-9.56
894.74	-3.41
894.911	10.92
895.082	-19.8
895.253	21.16
895.423	-40.28
895.594	-38.23
895.764	33.45
895.935	-40.28
896.106	37.55
896.276	-13.65
896.447	-11.61
896.617	-81.24
896.788	-42.32
896.958	41.64
897.129	-5.46
897.299	-17.75
897.47	80.55
897.64	-5.46
897.81	-44.37
897.981	31.4
898.151	-85.33
898.322	19.11
898.492	-36.18
898.662	58.03
898.832	39.59
899.003	-34.13
899.173	43.69
899.343	12.97
899.513	21.16
