Data from USB4F104151__96__12-28-23-207.txt Node

Date: Fri Mar 14 12:28:23 EDT 2025
User: louis
Spectrometer: USB4F10415
Trigger mode: 4
Integration Time (sec): 2.000000E-2
Scans to average: 1
Electric dark correction enabled: true
Nonlinearity correction enabled: false
Boxcar width: 0
XAxis mode: Wavelengths
Number of Pixels in Spectrum: 3648
>>>>>Begin Spectral Data<<<<<
178.204	-110.76
178.424	-110.76
178.644	-110.76
178.864	-127.14
179.084	-59.56
179.304	20.31
179.524	98.13
179.744	-10.41
179.964	-0.17
180.184	36.69
180.404	-16.55
180.624	14.17
180.844	-6.31
181.064	-32.94
181.283	-47.27
181.503	-45.23
181.723	-10.41
181.943	-32.94
182.163	77.65
182.383	8.02
182.602	38.74
182.822	42.84
183.042	38.74
183.262	-18.6
183.482	-24.75
183.701	-4.27
183.921	-6.31
184.141	-10.41
184.361	61.27
184.58	71.51
184.8	-4.27
185.02	22.36
185.239	-2.22
185.459	38.74
185.679	32.6
185.898	-2.22
186.118	10.07
186.338	8.02
186.557	14.17
186.777	-24.75
186.997	12.12
187.216	-20.65
187.436	85.84
187.655	-24.75
187.875	91.99
188.095	1.88
188.314	32.6
188.534	61.27
188.753	30.55
188.973	24.4
189.192	106.32
189.412	57.17
189.631	-8.36
189.851	-2.22
190.07	38.74
190.29	-69.8
190.509	-49.32
190.729	38.74
190.948	55.12
191.168	40.79
191.387	38.74
191.607	-59.56
191.826	-41.13
192.045	-26.79
192.265	24.4
192.484	14.17
192.704	5.97
192.923	-77.99
193.142	-30.89
193.362	-30.89
193.581	-32.94
193.8	16.21
194.02	28.5
194.239	42.84
194.458	-2.22
194.678	-20.65
194.897	-39.08
195.116	81.75
195.335	-32.94
195.555	-43.18
195.774	-0.17
195.993	24.4
196.212	51.03
196.432	14.17
196.651	42.84
196.87	-22.7
197.089	91.99
197.308	63.32
197.528	77.65
197.747	1.88
197.966	59.22
198.185	63.32
198.404	-37.03
198.623	44.88
198.842	-61.61
199.062	96.08
199.281	34.64
199.5	16.21
199.719	51.03
199.938	34.64
200.157	-0.17
200.376	-8.36
200.595	110.42
200.814	18.26
201.033	18.26
201.252	-16.55
201.471	75.6
201.69	24.4
201.909	40.79
202.128	8.02
202.347	1.88
202.566	5.97
202.785	8.02
203.004	14.17
203.223	10.07
203.442	-53.42
203.661	18.26
203.879	-8.36
204.098	36.69
204.317	-30.89
204.536	69.46
204.755	59.22
204.974	-16.55
205.193	-8.36
205.411	79.7
205.63	-49.32
205.849	10.07
206.068	-22.7
206.287	81.75
206.505	18.26
206.724	22.36
206.943	18.26
207.162	22.36
207.381	14.17
207.599	5.97
207.818	34.64
208.037	55.12
208.255	8.02
208.474	-16.55
208.693	114.52
208.911	-6.31
209.13	16.21
209.349	32.6
209.567	40.79
209.786	24.4
210.005	14.17
210.223	20.31
210.442	28.5
210.661	1.88
210.879	-53.42
211.098	16.21
211.316	-6.31
211.535	10.07
211.753	1.88
211.972	20.31
212.191	40.79
212.409	85.84
212.628	18.26
212.846	46.93
213.065	5.97
213.283	61.27
213.502	-10.41
213.72	73.56
213.938	-10.41
214.157	-6.31
214.375	-45.23
214.594	-37.03
214.812	120.66
215.031	-30.89
215.249	57.17
215.467	28.5
215.686	89.94
215.904	83.8
216.122	-24.75
216.341	-12.46
216.559	-30.89
216.778	-0.17
216.996	55.12
217.214	-18.6
217.432	-10.41
217.651	-51.37
217.869	42.84
218.087	53.08
218.306	-47.27
218.524	85.84
218.742	-34.99
218.96	-32.94
219.179	-49.32
219.397	10.07
219.615	67.41
219.833	-4.27
220.051	20.31
220.27	65.36
220.488	91.99
220.706	32.6
220.924	38.74
221.142	10.07
221.36	-10.41
221.578	85.84
221.796	-6.31
222.015	-65.71
222.233	10.07
222.451	-0.17
222.669	18.26
222.887	8.02
223.105	3.93
223.323	-34.99
223.541	-39.08
223.759	16.21
223.977	-57.51
224.195	94.04
224.413	44.88
224.631	8.02
224.849	-14.51
225.067	67.41
225.285	22.36
225.503	40.79
225.721	10.07
225.939	34.64
226.157	12.12
226.375	122.71
226.592	10.07
226.81	-41.13
227.028	42.84
227.246	73.56
227.464	48.98
227.682	24.4
227.9	5.97
228.117	65.36
228.335	42.84
228.553	85.84
228.771	34.64
228.989	24.4
229.206	3.93
229.424	28.5
229.642	24.4
229.86	14.17
230.077	75.6
230.295	10.07
230.513	-47.27
230.731	46.93
230.948	61.27
231.166	24.4
231.384	32.6
231.601	28.5
231.819	-10.41
232.037	-16.55
232.254	44.88
232.472	-10.41
232.689	63.32
232.907	8.02
233.125	8.02
233.342	61.27
233.56	8.02
233.777	16.21
233.995	-18.6
234.213	98.13
234.43	-34.99
234.648	51.03
234.865	20.31
235.083	-22.7
235.3	38.74
235.518	-22.7
235.735	40.79
235.953	40.79
236.17	73.56
236.388	-8.36
236.605	73.56
236.822	34.64
237.04	44.88
237.257	30.55
237.475	-24.75
237.692	26.45
237.909	10.07
238.127	40.79
238.344	18.26
238.562	10.07
238.779	18.26
238.996	28.5
239.214	-10.41
239.431	-4.27
239.648	28.5
239.865	26.45
240.083	32.6
240.3	20.31
240.517	28.5
240.735	8.02
240.952	-55.47
241.169	18.26
241.386	42.84
241.603	-30.89
241.821	10.07
242.038	48.98
242.255	67.41
242.472	38.74
242.689	12.12
242.907	73.56
243.124	65.36
243.341	34.64
243.558	77.65
243.775	-10.41
243.992	-51.37
244.209	-14.51
244.426	106.32
244.643	26.45
244.86	-16.55
245.078	130.9
245.295	22.36
245.512	3.93
245.729	-37.03
245.946	-14.51
246.163	67.41
246.38	42.84
246.597	-14.51
246.814	38.74
247.031	112.47
247.248	28.5
247.464	-39.08
247.681	18.26
247.898	8.02
248.115	34.64
248.332	-51.37
248.549	30.55
248.766	65.36
248.983	24.4
249.2	-32.94
249.417	89.94
249.633	30.55
249.85	83.8
250.067	53.08
250.284	67.41
250.501	42.84
250.717	-4.27
250.934	1.88
251.151	18.26
251.368	-6.31
251.585	104.28
251.801	36.69
252.018	28.5
252.235	-26.79
252.451	-43.18
252.668	-30.89
252.885	65.36
253.102	10.07
253.318	40.79
253.535	3.93
253.752	-2.22
253.968	-32.94
254.185	34.64
254.401	8.02
254.618	20.31
254.835	14.17
255.051	67.41
255.268	-51.37
255.484	34.64
255.701	40.79
255.917	28.5
256.134	14.17
256.351	20.31
256.567	30.55
256.784	8.02
257	-20.65
257.217	34.64
257.433	-22.7
257.65	-10.41
257.866	61.27
258.082	40.79
258.299	67.41
258.515	51.03
258.732	63.32
258.948	108.37
259.165	-34.99
259.381	79.7
259.597	-34.99
259.814	24.4
260.03	-22.7
260.246	-30.89
260.463	83.8
260.679	57.17
260.895	55.12
261.112	-41.13
261.328	5.97
261.544	40.79
261.761	59.22
261.977	-37.03
262.193	-22.7
262.409	77.65
262.626	-43.18
262.842	71.51
263.058	10.07
263.274	-4.27
263.49	59.22
263.707	69.46
263.923	28.5
264.139	12.12
264.355	65.36
264.571	40.79
264.787	42.84
265.004	65.36
265.22	28.5
265.436	38.74
265.652	81.75
265.868	-14.51
266.084	18.26
266.3	36.69
266.516	28.5
266.732	42.84
266.948	-0.17
267.164	51.03
267.38	-73.9
267.596	98.13
267.812	91.99
268.028	36.69
268.244	34.64
268.46	34.64
268.676	-6.31
268.892	16.21
269.108	1.88
269.324	-14.51
269.54	-39.08
269.756	-0.17
269.972	-26.79
270.188	59.22
270.403	-59.56
270.619	73.56
270.835	-10.41
271.051	73.56
271.267	-14.51
271.483	14.17
271.698	14.17
271.914	38.74
272.13	32.6
272.346	1.88
272.562	44.88
272.777	1.88
272.993	30.55
273.209	-32.94
273.425	32.6
273.64	12.12
273.856	63.32
274.072	77.65
274.287	53.08
274.503	57.17
274.719	51.03
274.934	20.31
275.15	-14.51
275.366	44.88
275.581	75.6
275.797	65.36
276.012	114.52
276.228	-14.51
276.444	-10.41
276.659	81.75
276.875	3.93
277.09	-43.18
277.306	44.88
277.521	46.93
277.737	53.08
277.952	28.5
278.168	30.55
278.383	-2.22
278.599	14.17
278.814	46.93
279.03	-2.22
279.245	75.6
279.461	83.8
279.676	14.17
279.892	-32.94
280.107	22.36
280.322	-37.03
280.538	120.66
280.753	79.7
280.969	-2.22
281.184	28.5
281.399	20.31
281.615	51.03
281.83	40.79
282.045	28.5
282.26	38.74
282.476	83.8
282.691	36.69
282.906	20.31
283.122	30.55
283.337	8.02
283.552	53.08
283.767	26.45
283.983	69.46
284.198	91.99
284.413	-2.22
284.628	30.55
284.843	34.64
285.058	104.28
285.274	42.84
285.489	14.17
285.704	71.51
285.919	-2.22
286.134	34.64
286.349	-16.55
286.564	22.36
286.779	112.47
286.995	30.55
287.21	-20.65
287.425	22.36
287.64	-6.31
287.855	38.74
288.07	-45.23
288.285	36.69
288.5	94.04
288.715	32.6
288.93	-26.79
289.145	42.84
289.36	14.17
289.575	10.07
289.79	59.22
290.004	-24.75
290.219	69.46
290.434	18.26
290.649	38.74
290.864	24.4
291.079	3.93
291.294	102.23
291.509	28.5
291.724	-2.22
291.938	-4.27
292.153	1.88
292.368	30.55
292.583	14.17
292.798	20.31
293.012	75.6
293.227	8.02
293.442	-10.41
293.657	24.4
293.871	81.75
294.086	55.12
294.301	48.98
294.516	-22.7
294.73	48.98
294.945	-22.7
295.16	61.27
295.374	69.46
295.589	63.32
295.804	-24.75
296.018	-26.79
296.233	32.6
296.447	40.79
296.662	67.41
296.877	171.86
297.091	-10.41
297.306	81.75
297.52	-41.13
297.735	46.93
297.949	3.93
298.164	20.31
298.378	20.31
298.593	22.36
298.807	65.36
299.022	55.12
299.236	-2.22
299.451	18.26
299.665	36.69
299.88	32.6
300.094	40.79
300.309	38.74
300.523	26.45
300.737	-2.22
300.952	12.12
301.166	83.8
301.381	-73.9
301.595	5.97
301.809	12.12
302.024	-0.17
302.238	22.36
302.452	59.22
302.667	-47.27
302.881	85.84
303.095	36.69
303.309	89.94
303.524	22.36
303.738	-22.7
303.952	22.36
304.166	36.69
304.381	-22.7
304.595	65.36
304.809	-22.7
305.023	30.55
305.237	24.4
305.452	12.12
305.666	-14.51
305.88	71.51
306.094	24.4
306.308	112.47
306.522	73.56
306.736	91.99
306.95	1.88
307.164	14.17
307.379	20.31
307.593	69.46
307.807	38.74
308.021	10.07
308.235	32.6
308.449	1.88
308.663	1.88
308.877	112.47
309.091	-8.36
309.305	87.89
309.519	3.93
309.733	48.98
309.947	-0.17
310.161	120.66
310.374	-18.6
310.588	65.36
310.802	-18.6
311.016	36.69
311.23	10.07
311.444	30.55
311.658	24.4
311.872	89.94
312.085	-4.27
312.299	26.45
312.513	14.17
312.727	28.5
312.941	32.6
313.154	91.99
313.368	51.03
313.582	34.64
313.796	3.93
314.009	16.21
314.223	12.12
314.437	38.74
314.651	42.84
314.864	20.31
315.078	1.88
315.292	-45.23
315.505	-24.75
315.719	46.93
315.933	10.07
316.146	38.74
316.36	-4.27
316.573	106.32
316.787	-0.17
317.001	42.84
317.214	28.5
317.428	46.93
317.641	-24.75
317.855	83.8
318.068	-2.22
318.282	36.69
318.495	67.41
318.709	36.69
318.922	14.17
319.136	20.31
319.349	59.22
319.563	-4.27
319.776	26.45
319.99	102.23
320.203	38.74
320.417	5.97
320.63	3.93
320.843	75.6
321.057	-6.31
321.27	14.17
321.483	44.88
321.697	59.22
321.91	-10.41
322.124	-8.36
322.337	-53.42
322.55	8.02
322.763	59.22
322.977	55.12
323.19	-47.27
323.403	36.69
323.617	8.02
323.83	130.9
324.043	38.74
324.256	5.97
324.469	-73.9
324.683	-10.41
324.896	-71.85
325.109	-16.55
325.322	48.98
325.535	36.69
325.748	5.97
325.962	-0.17
326.175	59.22
326.388	46.93
326.601	20.31
326.814	77.65
327.027	57.17
327.24	73.56
327.453	28.5
327.666	36.69
327.879	-12.46
328.092	24.4
328.305	12.12
328.518	77.65
328.731	-20.65
328.944	3.93
329.157	38.74
329.37	28.5
329.583	1.88
329.796	89.94
330.009	30.55
330.222	61.27
330.435	28.5
330.648	75.6
330.861	-26.79
331.073	40.79
331.286	67.41
331.499	34.64
331.712	57.17
331.925	57.17
332.138	108.37
332.35	30.55
332.563	-71.85
332.776	42.84
332.989	34.64
333.202	53.08
333.414	63.32
333.627	69.46
333.84	-8.36
334.053	89.94
334.265	53.08
334.478	75.6
334.691	75.6
334.903	1.88
335.116	16.21
335.329	-39.08
335.541	51.03
335.754	91.99
335.966	-49.32
336.179	48.98
336.392	-6.31
336.604	-6.31
336.817	38.74
337.029	10.07
337.242	5.97
337.454	75.6
337.667	10.07
337.88	83.8
338.092	51.03
338.305	30.55
338.517	38.74
338.729	89.94
338.942	94.04
339.154	22.36
339.367	8.02
339.579	79.7
339.792	112.47
340.004	65.36
340.217	32.6
340.429	40.79
340.641	63.32
340.854	63.32
341.066	3.93
341.278	40.79
341.491	102.23
341.703	44.88
341.915	24.4
342.128	57.17
342.34	24.4
342.552	1.88
342.764	61.27
342.977	48.98
343.189	67.41
343.401	81.75
343.613	-2.22
343.826	57.17
344.038	-12.46
344.25	75.6
344.462	-6.31
344.674	69.46
344.886	-4.27
345.099	-30.89
345.311	89.94
345.523	112.47
345.735	38.74
345.947	46.93
346.159	-0.17
346.371	85.84
346.583	16.21
346.795	34.64
347.007	-6.31
347.219	114.52
347.431	51.03
347.643	67.41
347.855	96.08
348.067	14.17
348.279	18.26
348.491	34.64
348.703	30.55
348.915	-6.31
349.127	46.93
349.339	-28.84
349.551	-2.22
349.763	63.32
349.975	-49.32
350.187	-10.41
350.399	38.74
350.61	36.69
350.822	32.6
351.034	22.36
351.246	-10.41
351.458	22.36
351.669	98.13
351.881	69.46
352.093	63.32
352.305	85.84
352.517	30.55
352.728	-10.41
352.94	-6.31
353.152	98.13
353.363	57.17
353.575	77.65
353.787	57.17
353.999	36.69
354.21	59.22
354.422	124.76
354.633	10.07
354.845	8.02
355.057	10.07
355.268	55.12
355.48	30.55
355.692	-0.17
355.903	40.79
356.115	16.21
356.326	32.6
356.538	110.42
356.749	42.84
356.961	36.69
357.172	42.84
357.384	-4.27
357.595	96.08
357.807	-6.31
358.018	20.31
358.23	-20.65
358.441	65.36
358.653	100.18
358.864	53.08
359.075	-26.79
359.287	73.56
359.498	81.75
359.709	30.55
359.921	24.4
360.132	-30.89
360.344	-51.37
360.555	-10.41
360.766	26.45
360.977	55.12
361.189	-2.22
361.4	5.97
361.611	-20.65
361.823	42.84
362.034	87.89
362.245	-59.56
362.456	108.37
362.667	30.55
362.879	55.12
363.09	-0.17
363.301	81.75
363.512	26.45
363.723	28.5
363.935	18.26
364.146	116.56
364.357	12.12
364.568	32.6
364.779	-26.79
364.99	96.08
365.201	-61.61
365.412	81.75
365.623	-16.55
365.834	61.27
366.045	22.36
366.256	73.56
366.467	106.32
366.678	16.21
366.889	42.84
367.1	-2.22
367.311	24.4
367.522	36.69
367.733	77.65
367.944	10.07
368.155	57.17
368.366	18.26
368.577	-4.27
368.788	48.98
368.999	12.12
369.209	53.08
369.42	81.75
369.631	30.55
369.842	14.17
370.053	8.02
370.264	12.12
370.474	14.17
370.685	44.88
370.896	46.93
371.107	-2.22
371.317	53.08
371.528	-49.32
371.739	57.17
371.95	40.79
372.16	12.12
372.371	51.03
372.582	-18.6
372.792	-28.84
373.003	-20.65
373.214	-6.31
373.424	108.37
373.635	14.17
373.846	48.98
374.056	67.41
374.267	36.69
374.477	51.03
374.688	87.89
374.898	30.55
375.109	81.75
375.319	155.47
375.53	28.5
375.74	44.88
375.951	77.65
376.161	77.65
376.372	83.8
376.582	36.69
376.793	59.22
377.003	16.21
377.214	24.4
377.424	135
377.635	42.84
377.845	77.65
378.055	114.52
378.266	14.17
378.476	40.79
378.686	22.36
378.897	36.69
379.107	-10.41
379.317	-0.17
379.528	51.03
379.738	36.69
379.948	-49.32
380.158	28.5
380.369	-4.27
380.579	59.22
380.789	73.56
380.999	51.03
381.21	59.22
381.42	100.18
381.63	-16.55
381.84	71.51
382.05	44.88
382.261	112.47
382.471	75.6
382.681	91.99
382.891	91.99
383.101	26.45
383.311	-8.36
383.521	46.93
383.731	112.47
383.941	122.71
384.151	18.26
384.361	55.12
384.571	83.8
384.781	40.79
384.991	122.71
385.201	65.36
385.411	34.64
385.621	75.6
385.831	63.32
386.041	112.47
386.251	38.74
386.461	87.89
386.671	98.13
386.881	38.74
387.091	-6.31
387.301	85.84
387.511	67.41
387.72	24.4
387.93	-10.41
388.14	-18.6
388.35	-4.27
388.56	18.26
388.769	98.13
388.979	53.08
389.189	81.75
389.399	-12.46
389.609	67.41
389.818	34.64
390.028	79.7
390.238	36.69
390.447	42.84
390.657	128.85
390.867	114.52
391.076	75.6
391.286	38.74
391.496	12.12
391.705	69.46
391.915	77.65
392.125	114.52
392.334	28.5
392.544	57.17
392.753	59.22
392.963	94.04
393.172	147.28
393.382	12.12
393.591	81.75
393.801	75.6
394.01	124.76
394.22	34.64
394.429	55.12
394.639	61.27
394.848	89.94
395.058	73.56
395.267	104.28
395.477	73.56
395.686	124.76
395.895	110.42
396.105	77.65
396.314	59.22
396.524	73.56
396.733	42.84
396.942	180.05
397.152	75.6
397.361	40.79
397.57	94.04
397.78	91.99
397.989	130.9
398.198	83.8
398.407	128.85
398.617	149.33
398.826	77.65
399.035	65.36
399.244	71.51
399.453	147.28
399.663	44.88
399.872	135
400.081	114.52
400.29	110.42
400.499	75.6
400.708	106.32
400.917	77.65
401.127	104.28
401.336	94.04
401.545	135
401.754	91.99
401.963	87.89
402.172	100.18
402.381	122.71
402.59	96.08
402.799	108.37
403.008	153.43
403.217	137.04
403.426	202.58
403.635	98.13
403.844	65.36
404.053	81.75
404.262	151.38
404.471	139.09
404.68	165.71
404.888	114.52
405.097	116.56
405.306	233.3
405.515	118.61
405.724	145.24
405.933	137.04
406.142	106.32
406.35	75.6
406.559	186.19
406.768	235.35
406.977	206.67
407.185	239.44
407.394	180.05
407.603	212.82
407.812	229.2
408.02	251.73
408.229	206.67
408.438	251.73
408.646	229.2
408.855	225.11
409.064	182.1
409.272	315.22
409.481	241.49
409.69	188.24
409.898	253.78
410.107	253.78
410.315	225.11
410.524	364.37
410.733	223.06
410.941	294.74
411.15	356.18
411.358	268.11
411.567	390.99
411.775	264.02
411.984	298.83
412.192	380.75
412.401	333.65
412.609	376.66
412.818	501.58
413.026	495.44
413.234	520.01
413.443	401.23
413.651	481.1
413.86	409.42
414.068	700.23
414.276	540.49
414.485	528.21
414.693	608.08
414.901	636.75
415.11	624.46
415.318	599.88
415.526	677.71
415.734	665.42
415.943	712.52
416.151	745.29
416.359	755.53
416.567	694.09
416.776	751.43
416.984	845.64
417.192	929.61
417.4	864.07
417.608	878.41
417.817	1017.67
418.025	907.08
418.233	1120.07
418.441	1050.44
418.649	995.14
418.857	1091.4
419.065	1269.57
419.273	1242.95
419.481	1304.39
419.689	1349.44
419.897	1298.24
420.105	1351.49
420.313	1427.26
420.521	1544
420.729	1507.13
420.937	1574.72
421.145	1632.06
421.353	1720.12
421.561	1716.03
421.769	1828.67
421.977	1826.62
422.185	1926.97
422.393	1986.36
422.601	2078.52
422.809	2142
423.017	2127.67
423.224	2047.8
423.432	2330.42
423.64	2228.02
423.848	2400.05
424.056	2572.08
424.263	2658.09
424.471	2561.84
424.679	2740.01
424.887	2768.68
425.094	2801.45
425.302	2828.07
425.51	3006.25
425.718	3260.2
425.925	3178.28
426.133	3254.05
426.341	3421.99
426.548	3567.39
426.756	3665.69
426.964	3485.47
427.171	3790.62
427.379	3868.44
427.586	4019.99
427.794	4122.39
428.001	4237.08
428.209	4421.39
428.417	4433.68
428.624	4787.98
428.832	4665.1
429.039	4710.16
429.247	4628.24
429.454	5297.92
429.662	5486.34
429.869	5277.44
430.076	5480.19
430.284	5365.51
430.491	5715.71
430.699	5873.4
430.906	5822.2
431.114	6035.19
431.321	6162.17
431.528	6334.2
431.736	6725.36
431.943	7012.07
432.15	6813.42
432.358	6909.68
432.565	7311.08
432.772	7374.56
432.979	7714.53
433.187	7921.37
433.394	7759.58
433.601	8521.43
433.808	8568.53
434.016	8314.58
434.223	8744.66
434.43	9113.29
434.637	9002.7
434.844	9842.37
435.052	9846.46
435.259	9789.12
435.466	10008.25
435.673	9850.56
435.88	10321.59
436.087	10970.8
436.294	10780.34
436.501	10514.1
436.708	10854.06
436.915	11308.71
437.122	11982.49
437.329	11908.77
437.537	12017.31
437.743	12324.51
437.95	12074.65
438.157	12711.57
438.364	13520.52
438.571	13328.01
438.778	13368.97
438.985	14585.46
439.192	14204.54
439.399	14640.76
439.606	14139.01
439.813	14923.38
440.02	15955.55
440.227	15568.49
440.433	15478.38
440.64	16113.25
440.847	15904.35
441.054	16504.41
441.261	17436.24
441.467	17251.92
441.674	17598.02
441.881	18290.24
442.088	18189.89
442.294	18005.57
442.501	18423.36
442.708	18822.71
442.914	19519.02
443.121	20399.65
443.328	19897.89
443.534	21106.2
443.741	20569.63
443.948	20534.81
444.154	21999.11
444.361	21847.56
444.568	22042.12
444.774	22062.6
444.981	22193.67
445.187	23033.33
445.394	23535.09
445.6	23459.31
445.807	25716.17
446.013	24282.59
446.22	25269.72
446.426	25959.88
446.633	26203.59
446.839	27063.74
447.046	26004.94
447.252	27694.51
447.459	27489.71
447.665	27348.4
447.871	28755.36
448.078	29863.31
448.284	28370.34
448.491	29253.01
448.697	30461.32
448.903	31008.12
449.11	30879.1
449.316	30496.13
449.522	31020.41
449.728	31950.19
449.935	32189.8
450.141	32370.02
450.347	32847.2
450.553	32044.4
450.76	32103.79
450.966	33338.71
451.172	32980.32
451.378	33887.57
451.584	33398.1
451.791	34049.36
451.997	33832.27
452.203	34358.6
452.409	34256.2
452.615	34477.38
452.821	33312.09
453.027	32626.02
453.233	34467.14
453.44	33428.82
453.646	33494.36
453.852	33623.38
454.058	34139.47
454.264	33181.02
454.47	33951.06
454.676	33232.22
454.882	34037.07
455.088	31149.43
455.294	31608.18
455.5	31915.37
455.705	32435.56
455.911	31102.33
456.117	30594.43
456.323	30242.18
456.529	28671.39
456.735	29930.89
456.941	29216.15
457.147	28442.02
457.352	27970.99
457.558	27522.48
457.764	27567.54
457.97	27235.77
458.176	26346.95
458.381	26564.03
458.587	25302.48
458.793	25124.31
458.999	23709.16
459.204	25509.33
459.41	24882.65
459.616	23442.93
459.821	23434.74
460.027	23285.23
460.233	22726.14
460.438	21857.8
460.644	21868.04
460.85	20700.7
461.055	20272.67
461.261	20399.65
461.466	18779.7
461.672	18343.49
461.878	19613.23
462.083	18368.06
462.289	18040.39
462.494	17737.29
462.7	16977.49
462.905	16684.63
463.111	17370.7
463.316	17077.84
463.522	16612.95
463.727	16866.9
463.932	16852.56
464.138	16733.78
464.343	16840.28
464.549	16541.27
464.754	16830.04
464.959	16684.63
465.165	16580.18
465.37	15953.51
465.575	15470.19
465.781	16105.06
465.986	16268.89
466.191	15472.23
466.397	15224.43
466.602	14343.8
466.807	14818.93
467.012	15107.69
467.218	14974.58
467.423	14616.18
467.628	14855.79
467.833	15634.02
468.038	14814.84
468.244	14577.27
468.449	15089.26
468.654	14419.58
468.859	14237.31
469.064	14382.71
469.269	13858.43
469.474	13966.98
469.679	14237.31
469.885	13590.15
470.09	14042.75
470.295	13919.87
470.5	13729.41
470.705	13575.81
470.91	12955.28
471.115	13264.52
471.32	13411.98
471.525	13346.44
471.73	13090.45
471.935	13237.9
472.139	12539.54
472.344	12842.64
472.549	12633.75
472.754	12467.86
472.959	12160.67
473.164	12029.6
473.369	11806.37
473.574	12543.64
473.778	12037.79
473.983	12088.99
474.188	11783.84
474.393	11415.21
474.598	11390.63
474.802	11458.21
475.007	11265.71
475.212	11386.54
475.417	10950.32
475.621	10864.3
475.826	10919.6
476.031	10876.59
476.235	10477.24
476.44	10657.46
476.645	10442.42
476.849	10602.16
477.054	10270.39
477.259	10206.91
477.463	10098.36
477.668	10022.59
477.872	10022.59
478.077	9688.77
478.282	9594.56
478.486	9678.53
478.691	9457.35
478.895	9637.57
479.1	9539.27
479.304	9520.84
479.509	9037.52
479.713	9340.61
479.918	9111.24
480.122	9088.71
480.326	9113.29
480.531	9058
480.735	9162.44
480.94	9008.84
481.144	9213.64
481.348	8793.81
481.553	8937.16
481.757	8599.25
481.961	8883.92
482.166	9141.96
482.37	8863.44
482.574	8568.53
482.778	8793.81
482.983	8865.49
483.187	8738.51
483.391	8840.91
483.595	8666.83
483.8	8617.68
484.004	8828.62
484.208	8924.88
484.412	8832.72
484.616	8937.16
484.821	8703.7
485.025	8535.76
485.229	8605.39
485.433	8713.94
485.637	8670.93
485.841	8478.42
486.045	8615.63
486.249	8615.63
486.453	8607.44
486.657	8677.07
486.861	8662.74
487.065	8527.57
487.269	8644.31
487.473	8480.47
487.677	8644.31
487.881	8818.38
488.085	8658.64
488.289	8566.48
488.493	8703.7
488.697	8752.85
488.901	8853.2
489.105	8695.5
489.309	8994.51
489.512	8896.21
489.716	8707.79
489.92	8689.36
490.124	8642.26
490.328	8890.06
490.531	8988.36
490.735	8937.16
490.939	9035.47
491.143	8767.18
491.346	8867.53
491.55	9068.23
491.754	9176.78
491.958	9334.47
492.161	9019.08
492.365	9066.19
492.569	9070.28
492.772	8978.12
492.976	9170.63
493.18	9160.39
493.383	9285.32
493.587	9420.49
493.79	9408.2
493.994	9406.15
494.197	9504.45
494.401	9799.36
494.605	9563.84
494.808	9737.92
495.012	9823.94
495.215	9793.22
495.419	9823.94
495.622	9912
495.825	9985.72
496.029	10075.84
496.232	10413.75
496.436	10200.76
496.639	10395.32
496.843	10735.28
497.046	10716.85
497.249	10841.78
497.453	10737.33
497.656	11050.67
497.859	11058.86
498.063	11052.72
498.266	11364.01
498.469	11234.99
498.673	11329.19
498.876	11474.6
499.079	11710.11
499.282	11517.61
499.485	11886.24
499.689	12019.36
499.892	11988.64
500.095	12058.27
500.298	12502.68
500.501	12273.31
500.705	12504.73
500.908	12934.8
501.111	12813.97
501.314	12805.78
501.517	13188.75
501.72	13123.21
501.923	13213.32
502.126	13571.72
502.329	13790.85
502.532	13557.38
502.735	13954.69
502.938	14163.58
503.141	14317.18
503.344	14452.34
503.547	14399.1
503.75	14933.62
503.953	15029.87
504.156	14804.6
504.359	14943.86
504.562	15171.18
504.765	15382.12
504.968	15715.94
505.17	15853.16
505.373	15578.73
505.576	16164.45
505.779	16330.33
505.982	16455.26
506.185	16997.97
506.387	16670.29
506.59	16772.69
506.793	17266.25
506.996	17002.07
507.198	17741.38
507.401	17462.86
507.604	17753.67
507.807	18132.54
508.009	17985.09
508.212	18462.27
508.415	18961.97
508.617	18886.2
508.82	18978.36
509.022	18753.08
509.225	19512.88
509.428	19402.29
509.63	19451.44
509.833	19863.08
510.035	20014.63
510.238	20078.11
510.44	20172.32
510.643	20887.06
510.845	20766.23
511.048	20502.04
511.25	20827.67
511.453	20968.98
511.655	21511.69
511.858	21515.79
512.06	21806.6
512.262	21882.38
512.465	22195.71
512.667	22128.13
512.87	22513.15
513.072	22763
513.274	23191.03
513.477	23152.12
513.679	23498.22
513.881	23692.78
514.084	23983.59
514.286	23875.05
514.488	24264.16
514.69	24774.11
514.893	24835.55
515.095	24708.57
515.297	25165.27
515.499	24899.03
515.701	25351.63
515.904	25464.27
516.106	25497.04
516.308	26164.68
516.51	26465.73
516.712	26205.64
516.914	26770.88
517.116	27221.43
517.318	26944.95
517.52	27248.05
517.722	27127.22
517.925	28040.62
518.127	28372.39
518.329	28368.29
518.531	28104.1
518.733	28487.07
518.935	28622.24
519.136	28806.56
519.338	28917.15
519.54	29312.41
519.742	29275.54
519.944	29562.26
520.146	29955.47
520.348	30469.51
520.55	30350.73
520.752	30719.36
520.954	30682.5
521.155	30700.93
521.357	31483.25
521.559	31567.22
521.761	31821.17
521.963	31618.42
522.164	31898.99
522.366	32300.39
522.568	32492.9
522.77	32505.19
522.971	32994.65
523.173	32583.01
523.375	32722.27
523.576	33088.86
523.778	33060.19
523.98	33623.38
524.181	33633.62
524.383	33498.45
524.584	34143.56
524.786	34100.56
524.988	34162
525.189	34354.51
525.391	34547.01
525.592	35145.02
525.794	34755.91
525.995	34737.48
526.197	34870.59
526.398	35032.38
526.6	35355.96
526.801	35255.61
527.003	35601.72
527.204	35687.73
527.406	35804.47
527.607	35786.04
527.808	36052.27
528.01	35335.48
528.211	36042.03
528.412	36375.85
528.614	36287.79
528.815	36287.79
529.016	36965.67
529.218	36144.43
529.419	36498.73
529.62	36726.05
529.822	36537.64
530.023	37125.41
530.224	36754.72
530.425	36633.89
530.626	36492.58
530.828	36539.69
531.029	37362.97
531.23	36994.34
531.431	36752.68
531.632	36666.66
531.833	37670.17
532.035	36959.52
532.236	37408.03
532.437	37506.33
532.638	37197.09
532.839	37575.96
533.04	37424.41
533.241	37182.75
533.442	37960.98
533.643	37594.39
533.844	37287.2
534.045	37840.15
534.246	37106.98
534.447	37616.92
534.648	37430.55
534.849	37655.83
535.05	37485.85
535.251	37805.33
535.451	37170.46
535.652	37842.2
535.853	37426.46
536.054	37483.8
536.255	37428.51
536.456	37217.57
536.657	37868.82
536.857	37399.83
537.058	37225.76
537.259	37678.36
537.46	37559.58
537.66	37784.85
537.861	37920.02
538.062	37418.27
538.263	37328.16
538.463	37514.52
538.664	37633.3
538.865	37420.31
539.065	37311.77
539.266	37068.06
539.466	37608.73
539.667	36728.1
539.868	37788.95
540.068	37944.59
540.269	37403.93
540.469	37371.16
540.67	37219.61
540.87	37612.82
541.071	37381.4
541.271	37510.42
541.472	37684.5
541.672	37227.81
541.873	37448.99
542.073	36984.1
542.274	37647.64
542.474	37369.12
542.675	37113.12
542.875	37236
543.075	37111.07
543.276	36717.86
543.476	37405.98
543.676	36871.46
543.877	37397.79
544.077	37440.79
544.277	37266.72
544.478	37238.05
544.678	37266.72
544.878	37260.57
545.078	37463.32
545.279	36709.67
545.479	37133.6
545.679	37184.8
545.879	37674.26
546.079	36853.03
546.28	37178.65
546.48	37129.5
546.68	37498.14
546.88	37223.71
547.08	36953.38
547.28	36908.32
547.48	36748.58
547.68	36930.85
547.88	36451.63
548.081	37279
548.281	37016.86
548.481	36633.89
548.681	37186.85
548.881	37254.43
549.081	36998.43
549.28	36764.96
549.48	37307.68
549.68	36805.92
549.88	37266.72
550.08	36973.86
550.28	37104.93
550.48	37006.62
550.68	37135.65
550.88	36717.86
551.08	36871.46
551.279	37219.61
551.479	37063.97
551.679	36807.97
551.879	36803.88
552.079	36793.64
552.278	36750.63
552.478	36928.8
552.678	36646.18
552.878	36797.73
553.077	36486.44
553.277	36367.66
553.477	37117.21
553.676	36281.64
553.876	36637.99
554.076	36576.55
554.275	36425
554.475	35605.81
554.674	36326.7
554.874	36683.05
555.074	36412.71
555.273	36746.53
555.473	36650.28
555.672	36076.85
555.872	36381.99
556.071	36578.6
556.271	36654.37
556.47	36093.23
556.67	35953.97
556.869	36326.7
557.068	36332.84
557.268	36146.48
557.467	35910.96
557.667	36238.64
557.866	36216.11
558.065	35960.11
558.265	35822.9
558.464	35554.61
558.663	36046.13
558.863	35804.47
559.062	36314.41
559.261	35847.47
559.461	35755.32
559.66	35288.38
559.859	35808.56
560.058	35265.85
560.258	35431.74
560.457	35089.73
560.656	35786.04
560.855	35401.02
561.054	35853.62
561.253	35155.26
561.453	35538.23
561.652	35425.59
561.851	35618.1
562.05	35042.62
562.249	34952.51
562.448	35593.53
562.647	35163.45
562.846	35392.83
563.045	35333.43
563.244	35194.17
563.443	35423.54
563.642	34565.45
563.841	34938.18
564.04	34755.91
564.239	35089.73
564.438	34665.8
564.637	34598.21
564.836	34882.88
565.035	34491.72
565.234	34297.16
565.432	34585.93
565.631	34440.52
565.83	34823.49
566.029	34043.21
566.228	33955.15
566.427	33938.77
566.625	34059.6
566.824	33924.43
567.023	33926.48
567.222	33533.27
567.42	34397.51
567.619	33850.7
567.818	33592.66
568.016	33791.31
568.215	33809.75
568.414	34088.27
568.612	34162
568.811	33574.23
569.01	33733.97
569.208	33076.57
569.407	33801.55
569.605	33078.62
569.804	33537.37
570.002	33525.08
570.201	33264.99
570.4	33236.31
570.598	33138.01
570.797	32820.58
570.995	32871.78
571.193	32413.03
571.392	32867.68
571.59	32793.95
571.789	32623.97
571.987	32910.69
572.186	32445.8
572.384	32523.62
572.582	32652.64
572.781	32740.71
572.979	32077.16
573.177	32064.88
573.376	32271.72
573.574	31917.42
573.772	32157.03
573.971	31917.42
574.169	31837.55
574.367	31886.7
574.565	31931.76
574.763	31446.39
574.962	31552.88
575.16	31217.02
575.358	31454.58
575.556	31290.74
575.754	31573.36
575.952	31245.69
576.151	31499.64
576.349	30721.41
576.547	31204.73
576.745	31030.65
576.943	31208.83
577.141	30860.67
577.339	31034.75
577.537	30918.01
577.735	30952.83
577.933	30721.41
578.131	30870.91
578.329	30551.43
578.527	30698.88
578.725	30539.14
578.923	30625.15
579.121	30471.56
579.319	30162.31
579.516	30649.73
579.714	30295.43
579.912	30195.08
580.11	29928.84
580.308	30115.21
580.506	29887.89
580.704	29597.07
580.901	29787.53
581.099	29953.42
581.297	29586.83
581.495	29343.13
581.692	29699.47
581.89	29400.47
582.088	29728.14
582.285	29171.1
582.483	29402.52
582.681	29396.37
582.878	29222.3
583.076	29005.21
583.274	29148.57
583.471	28700.06
583.669	29121.94
583.866	28698.02
584.064	28716.45
584.262	28532.13
584.459	28798.37
584.657	28607.9
584.854	28925.34
585.052	28118.44
585.249	28202.41
585.447	28366.24
585.644	28310.95
585.841	28218.79
586.039	28566.95
586.236	27930.03
586.434	27919.79
586.631	28022.19
586.828	28003.75
587.026	28057
587.223	27489.71
587.42	27585.97
587.618	27700.65
587.815	27284.92
588.012	27356.6
588.21	27319.73
588.407	27620.78
588.604	27047.35
588.801	26967.48
588.999	27121.08
589.196	26840.51
589.393	27289.01
589.59	26805.69
589.787	26803.64
589.984	26691.01
590.182	26750.4
590.379	26621.38
590.576	26471.87
590.773	26514.88
590.97	26205.64
591.167	26166.73
591.364	26136.01
591.561	26248.64
591.758	26072.52
591.955	26000.84
592.152	26052.04
592.349	25791.95
592.546	25912.78
592.743	25759.18
592.94	25292.24
593.137	25707.98
593.334	25802.19
593.531	25482.7
593.727	25634.25
593.924	25456.08
594.121	25200.08
594.318	25542.1
594.515	24833.5
594.712	25388.5
594.908	24985.05
595.105	25288.15
595.302	24751.58
595.499	24952.28
595.696	25015.77
595.892	24348.13
596.089	24825.31
596.286	24813.02
596.482	24223.2
596.679	24509.92
596.876	24436.19
597.072	24464.86
597.269	24327.65
597.466	24163.81
597.662	24196.58
597.859	23903.72
598.055	24354.27
598.252	24006.12
598.448	23821.8
598.645	23748.07
598.841	23471.6
599.038	23700.97
599.234	23649.77
599.431	23231.99
599.627	23588.33
599.824	23514.61
600.02	23131.64
600.217	23459.31
600.413	23068.15
600.609	23225.84
600.806	23191.03
601.002	23252.47
601.198	22771.19
601.395	22765.05
601.591	22695.42
601.787	22967.8
601.984	22738.43
602.18	23021.05
602.376	22337.02
602.572	22353.41
602.769	22418.94
602.965	22324.74
603.161	22246.91
603.357	22064.64
603.553	22160.9
603.75	22523.39
603.946	21745.16
604.142	22126.08
604.338	21872.14
604.534	22132.23
604.73	21796.36
604.926	21816.84
605.122	21661.19
605.318	21560.84
605.514	21483.02
605.71	21495.31
605.906	21411.34
606.102	21339.66
606.298	21435.92
606.494	21249.55
606.69	21130.77
606.886	21429.77
607.082	21063.19
607.278	21098
607.474	20686.36
607.67	21206.55
607.866	20837.91
608.062	21198.35
608.257	20669.98
608.453	20674.07
608.649	21046.8
608.845	20715.03
609.041	20377.12
609.236	20907.54
609.432	20586.01
609.628	20608.54
609.824	20567.58
610.019	20629.02
610.215	20450.85
610.411	20586.01
610.606	20344.35
610.802	20418.08
610.998	20090.4
611.193	20264.48
611.389	20262.43
611.584	20276.77
611.78	20020.77
611.976	20346.4
612.171	20151.84
612.367	20164.13
612.562	19760.68
612.758	19807.78
612.953	19789.35
613.149	20010.53
613.344	19768.87
613.539	20252.19
613.735	19750.44
613.93	20155.94
614.126	19689
614.321	19904.04
614.517	19609.13
614.712	19619.37
614.907	19373.61
615.103	19600.94
615.298	19471.92
615.493	19738.15
615.688	19213.87
615.884	20012.58
616.079	19322.41
616.274	19670.57
616.47	19447.34
616.665	19201.58
616.86	19244.59
617.055	19619.37
617.25	19199.54
617.445	19047.99
617.641	18968.12
617.836	19375.66
618.031	19070.51
618.226	18884.15
618.421	18855.48
618.616	18824.76
618.811	18988.6
619.006	18714.17
619.201	18613.82
619.396	18740.79
619.591	18290.24
619.786	18832.95
619.981	18138.69
620.176	18613.82
620.371	18148.93
620.566	18329.15
620.761	18402.88
620.956	18257.47
621.151	17976.9
621.346	17937.99
621.541	17880.64
621.735	18110.02
621.93	17491.53
622.125	17593.93
622.32	17503.82
622.515	17618.5
622.709	17268.3
622.904	17315.41
623.099	17051.22
623.294	17399.37
623.488	17043.03
623.683	17210.96
623.878	16451.16
624.072	16852.56
624.267	16762.45
624.462	16617.05
624.656	16723.54
624.851	16754.26
625.046	16293.47
625.24	16539.22
625.435	16246.37
625.629	15847.01
625.824	16098.91
626.018	15836.77
626.213	15775.33
626.407	15824.48
626.602	15478.38
626.796	15605.35
626.991	15699.56
627.185	15636.07
627.38	15304.3
627.574	15216.24
627.768	15181.42
627.963	15142.51
628.157	15124.08
628.352	15042.16
628.546	14886.51
628.74	14900.85
628.935	14683.77
629.129	14870.13
629.323	14458.49
629.517	14603.89
629.712	14511.74
629.906	14265.98
630.1	13977.22
630.294	14368.38
630.489	14122.62
630.683	14196.35
630.877	13846.15
631.071	13923.97
631.265	14167.68
631.459	13563.53
631.653	13821.57
631.848	13848.19
632.042	13504.14
632.236	13446.79
632.43	13575.81
632.624	13438.6
632.818	13340.3
633.012	13153.93
633.206	13221.52
633.4	13125.26
633.594	12992.14
633.788	12783.25
633.982	12852.88
634.176	12844.69
634.369	12779.15
634.563	12822.16
634.757	12807.83
634.951	12560.02
635.145	12641.94
635.339	12648.08
635.533	12207.77
635.726	12551.83
635.92	12226.2
636.114	12226.2
636.308	12150.43
636.501	12281.5
636.695	12068.51
636.889	12095.13
637.083	11986.59
637.276	11822.75
637.47	11749.03
637.664	11941.54
637.857	11728.55
638.051	11708.07
638.244	11503.27
638.438	11710.11
638.632	11374.25
638.825	11300.52
639.019	11273.9
639.212	11165.35
639.406	11312.81
639.599	11118.25
639.793	11321
639.986	10890.93
640.18	11138.73
640.373	10935.98
640.567	10774.19
640.76	10888.88
640.954	10798.77
641.147	10673.84
641.34	10651.31
641.534	10755.76
641.727	10434.23
641.92	10557.11
642.114	10499.77
642.307	10317.5
642.5	10419.89
642.694	10264.25
642.887	10499.77
643.08	10251.96
643.273	10137.27
643.467	9969.34
643.66	10067.64
643.853	9969.34
644.046	9975.49
644.239	10047.16
644.432	9758.4
644.626	9789.12
644.819	9674.43
645.012	9803.46
645.205	9756.35
645.398	9735.87
645.591	9512.64
645.784	9402.05
645.977	9201.35
646.17	9381.57
646.363	9389.77
646.556	9174.73
646.749	9316.04
646.942	9203.4
647.135	9139.91
647.328	9023.18
647.521	9107.15
647.714	9019.08
647.907	9098.95
648.099	8957.64
648.292	8881.87
648.485	9019.08
648.678	8738.51
648.871	8804.05
649.064	8818.38
649.256	8877.77
649.449	8734.42
649.642	8629.97
649.835	8593.11
650.027	8408.79
650.22	8591.06
650.413	8468.18
650.605	8439.51
650.798	8316.63
650.991	8351.45
651.183	8236.76
651.376	8193.75
651.568	7995.1
651.761	8158.94
651.954	8322.77
652.146	8138.46
652.339	7929.56
652.531	7988.96
652.724	7872.22
652.916	7757.53
653.109	7939.8
653.301	7818.97
653.494	7876.32
653.686	7552.74
653.879	7720.67
654.071	7626.46
654.263	7642.85
654.456	7704.29
654.648	7632.61
654.84	7528.16
655.033	7360.23
655.225	7360.23
655.417	7419.62
655.61	7464.68
655.802	7286.5
655.994	7349.99
656.186	7417.57
656.379	7134.95
656.571	7137
656.763	7118.57
656.955	7061.23
657.148	7020.27
657.34	7341.8
657.532	7180.01
657.724	7055.08
657.916	6985.45
658.108	6899.44
658.3	6794.99
658.492	6862.57
658.684	6637.3
658.876	6698.74
659.068	6852.33
659.26	6680.3
659.452	6620.91
659.644	6549.23
659.836	6526.71
660.028	6610.67
660.22	6452.98
660.412	6567.67
660.604	6315.76
660.796	6590.19
660.988	6463.22
661.18	6287.09
661.372	6342.39
661.563	6192.89
661.755	6188.79
661.947	6160.12
662.139	6172.41
662.331	6182.65
662.522	6119.16
662.714	6162.17
662.906	6055.67
663.097	6092.54
663.289	5889.79
663.481	6029.05
663.673	5930.75
663.864	5863.16
664.056	5816.06
664.247	5852.92
664.439	5897.98
664.631	5908.22
664.822	5820.16
665.014	5801.72
665.205	5768.96
665.397	5725.95
665.588	5717.76
665.78	5691.13
665.971	5730.05
666.163	5529.34
666.354	5578.5
666.546	5615.36
666.737	5576.45
666.929	5539.58
667.12	5289.73
667.311	5390.08
667.503	5365.51
667.694	5394.18
667.885	5271.3
668.077	5287.68
668.268	5234.44
668.459	5383.94
668.651	5115.66
668.842	5267.2
669.033	5070.6
669.224	5080.84
669.416	5115.66
669.607	5048.07
669.798	4949.77
669.989	5009.16
670.18	5078.79
670.371	5043.98
670.563	4837.13
670.754	5056.26
670.945	4982.54
671.136	4906.76
671.327	4843.28
671.518	4925.19
671.709	4917
671.9	4955.91
672.091	4851.47
672.282	4796.17
672.473	4804.36
672.664	4785.93
672.855	4804.36
673.046	4742.92
673.237	4835.08
673.428	4882.19
673.619	4503.31
673.809	4540.18
674	4724.49
674.191	4697.87
674.382	4484.88
674.573	4861.71
674.764	4523.79
674.954	4534.03
675.145	4427.54
675.336	4523.79
675.527	4579.09
675.717	4652.81
675.908	4589.33
676.099	4374.29
676.289	4525.84
676.48	4501.26
676.671	4464.4
676.861	4441.87
677.052	4372.24
677.243	4278.04
677.433	4501.26
677.624	4462.35
677.814	4316.95
678.005	4353.81
678.195	4331.28
678.386	4515.6
678.576	4169.49
678.767	4319
678.957	4241.17
679.148	4282.13
679.338	4294.42
679.529	4300.56
679.719	4267.8
679.909	4441.87
680.1	4237.08
680.29	4232.98
680.481	4267.8
680.671	4255.51
680.861	4251.41
681.052	4249.36
681.242	4187.93
681.432	4122.39
681.622	4136.73
681.813	4118.29
682.003	4054.81
682.193	4099.86
682.383	4095.77
682.573	4155.16
682.764	4163.35
682.954	4151.06
683.144	4091.67
683.334	4095.77
683.524	4063
683.714	3972.89
683.904	3858.2
684.094	4065.05
684.284	3915.55
684.474	4108.05
684.664	3964.7
684.854	3933.98
685.044	3811.1
685.234	3862.3
685.424	3798.81
685.614	3778.33
685.804	3845.91
685.994	3735.32
686.184	3835.67
686.374	3895.07
686.564	3841.82
686.753	3747.61
686.943	3776.28
687.133	3860.25
687.323	3827.48
687.513	3755.8
687.702	3600.16
687.892	3708.7
688.082	3637.02
688.272	3776.28
688.461	3581.73
688.651	3553.06
688.841	3542.82
689.03	3538.72
689.22	3616.54
689.41	3524.38
689.599	3528.48
689.789	3510.05
689.979	3295.01
690.168	3399.46
690.358	3524.38
690.547	3415.84
690.737	3510.05
690.926	3399.46
691.116	3374.88
691.305	3448.61
691.495	3260.2
691.684	3327.78
691.874	3290.92
692.063	3303.2
692.252	3327.78
692.442	3274.53
692.631	3172.13
692.82	3282.72
693.01	3129.13
693.199	3217.19
693.388	3143.46
693.578	3127.08
693.767	3049.25
693.956	3176.23
694.146	3067.69
694.335	3075.88
694.524	3055.4
694.713	3073.83
694.902	3077.93
695.092	2967.34
695.281	3036.97
695.47	2965.29
695.659	3063.59
695.848	3020.58
696.037	2875.18
696.226	2909.99
696.415	3004.2
696.604	3053.35
696.793	2969.38
696.982	2944.81
697.171	2932.52
697.36	2846.51
697.549	2918.18
697.738	2975.53
697.927	2969.38
698.116	2850.6
698.305	2819.88
698.494	2848.55
698.683	2842.41
698.872	2805.55
699.061	2754.35
699.25	2844.46
699.438	2789.16
699.627	2852.65
699.816	2668.33
700.005	2821.93
700.193	2871.08
700.382	2881.32
700.571	2844.46
700.76	2676.52
700.948	2774.83
701.137	2754.35
701.326	2735.92
701.514	2682.67
701.703	2772.78
701.892	2752.3
702.08	2803.5
702.269	2711.34
702.457	2664.24
702.646	2731.82
702.834	2676.52
703.023	2658.09
703.212	2662.19
703.4	2756.4
703.589	2701.1
703.777	2645.8
703.965	2643.76
704.154	2750.25
704.342	2748.2
704.531	2645.8
704.719	2703.15
704.907	2637.61
705.096	2740.01
705.284	2770.73
705.472	2633.52
705.661	2699.05
705.849	2717.48
706.037	2617.13
706.226	2629.42
706.414	2570.03
706.602	2713.39
706.79	2684.72
706.979	2596.65
707.167	2627.37
707.355	2697
707.543	2641.71
707.731	2649.9
707.919	2596.65
708.107	2658.09
708.296	2617.13
708.484	2588.46
708.672	2545.45
708.86	2656.04
709.048	2506.54
709.236	2592.56
709.424	2662.19
709.612	2682.67
709.8	2565.93
709.988	2551.6
710.176	2692.91
710.364	2660.14
710.551	2580.27
710.739	2610.99
710.927	2576.17
711.115	2500.4
711.303	2711.34
711.491	2705.2
711.679	2670.38
711.866	2531.12
712.054	2617.13
712.242	2588.46
712.43	2643.76
712.617	2643.76
712.805	2598.7
712.993	2545.45
713.181	2469.68
713.368	2662.19
713.556	2613.04
713.744	2522.93
713.931	2588.46
714.119	2506.54
714.306	2668.33
714.494	2545.45
714.682	2625.33
714.869	2551.6
715.057	2670.38
715.244	2432.82
715.432	2602.8
715.619	2592.56
715.807	2535.21
715.994	2545.45
716.182	2463.54
716.369	2551.6
716.556	2608.94
716.744	2625.33
716.931	2686.76
717.119	2510.64
717.306	2553.65
717.493	2672.43
717.681	2608.94
717.868	2539.31
718.055	2578.22
718.242	2678.57
718.43	2588.46
718.617	2621.23
718.804	2570.03
718.991	2582.32
719.179	2535.21
719.366	2600.75
719.553	2527.02
719.74	2535.21
719.927	2553.65
720.114	2594.61
720.301	2629.42
720.488	2598.7
720.676	2545.45
720.863	2574.13
721.05	2488.11
721.237	2647.85
721.424	2598.7
721.611	2598.7
721.798	2500.4
721.985	2613.04
722.172	2549.55
722.358	2543.41
722.545	2533.17
722.732	2555.69
722.919	2506.54
723.106	2617.13
723.293	2533.17
723.48	2627.37
723.667	2596.65
723.853	2516.78
724.04	2561.84
724.227	2629.42
724.414	2619.18
724.6	2578.22
724.787	2641.71
724.974	2682.67
725.161	2510.64
725.347	2529.07
725.534	2457.39
725.72	2582.32
725.907	2490.16
726.094	2486.06
726.28	2576.17
726.467	2502.45
726.653	2553.65
726.84	2572.08
727.027	2486.06
727.213	2557.74
727.4	2488.11
727.586	2537.26
727.773	2467.63
727.959	2498.35
728.145	2488.11
728.332	2545.45
728.518	2514.73
728.705	2555.69
728.891	2531.12
729.077	2461.49
729.264	2502.45
729.45	2649.9
729.636	2621.23
729.823	2649.9
730.009	2545.45
730.195	2527.02
730.382	2565.93
730.568	2588.46
730.754	2508.59
730.94	2594.61
731.126	2512.69
731.313	2561.84
731.499	2453.3
731.685	2533.17
731.871	2512.69
732.057	2459.44
732.243	2434.86
732.429	2539.31
732.615	2459.44
732.801	2541.36
732.987	2471.73
733.173	2408.24
733.359	2590.51
733.545	2430.77
733.731	2455.34
733.917	2432.82
734.103	2488.11
734.289	2367.28
734.475	2365.23
734.661	2576.17
734.847	2584.37
735.033	2352.95
735.219	2471.73
735.404	2426.67
735.59	2481.97
735.776	2414.38
735.962	2510.64
736.148	2488.11
736.333	2457.39
736.519	2416.43
736.705	2471.73
736.89	2502.45
737.076	2354.99
737.262	2320.18
737.447	2348.85
737.633	2463.54
737.819	2484.02
738.004	2326.32
738.19	2434.86
738.375	2381.62
738.561	2410.29
738.747	2424.62
738.932	2334.51
739.118	2361.14
739.303	2393.9
739.489	2336.56
739.674	2469.68
739.859	2348.85
740.045	2381.62
740.23	2318.13
740.416	2326.32
740.601	2383.66
740.786	2375.47
740.972	2174.77
741.157	2340.66
741.342	2248.5
741.528	2277.17
741.713	2488.11
741.898	2228.02
742.084	2182.96
742.269	2332.47
742.454	2228.02
742.639	2357.04
742.824	2238.26
743.01	2322.23
743.195	2178.87
743.38	2316.08
743.565	2174.77
743.75	2277.17
743.935	2228.02
744.12	2164.53
744.305	2115.38
744.49	2252.59
744.675	2152.24
744.86	2139.96
745.045	2193.2
745.23	2086.71
745.415	2217.78
745.6	2213.68
745.785	2074.42
745.97	2152.24
746.155	2107.19
746.34	2060.09
746.525	2047.8
746.71	2099
746.895	1969.98
747.079	2086.71
747.264	1941.3
747.449	2033.46
747.634	2053.94
747.819	1943.35
748.003	1910.58
748.188	1980.22
748.373	1861.43
748.557	1873.72
748.742	1898.3
748.927	1871.67
749.111	1873.72
749.296	1828.67
749.481	1859.38
749.665	1918.78
749.85	1871.67
750.034	1832.76
750.219	1769.27
750.404	1894.2
750.588	1845.05
750.773	1740.6
750.957	1791.8
751.141	1722.17
751.326	1875.77
751.51	1738.55
751.695	1765.18
751.879	1607.48
752.064	1654.59
752.248	1707.84
752.432	1740.6
752.617	1638.2
752.801	1685.31
752.985	1599.29
753.17	1619.77
753.354	1627.96
753.538	1634.11
753.722	1599.29
753.907	1527.61
754.091	1533.76
754.275	1519.42
754.459	1611.58
754.643	1535.81
754.828	1541.95
755.012	1525.57
755.196	1572.67
755.38	1589.05
755.564	1496.89
755.748	1429.31
755.932	1500.99
756.116	1511.23
756.3	1425.22
756.484	1500.99
756.668	1341.25
756.852	1396.54
757.036	1380.16
757.22	1478.46
757.404	1267.52
757.588	1367.87
757.772	1339.2
757.956	1396.54
758.14	1371.97
758.323	1296.19
758.507	1306.43
758.691	1326.91
758.875	1269.57
759.059	1343.3
759.242	1208.13
759.426	1285.95
759.61	1206.08
759.794	1267.52
759.977	1310.53
760.161	1345.34
760.345	1212.23
760.528	1288
760.712	1300.29
760.895	1210.18
761.079	1195.84
761.263	1249.09
761.446	1173.32
761.63	1138.5
761.813	1216.32
761.997	1171.27
762.18	1265.47
762.364	1208.13
762.547	1142.6
762.731	1187.65
762.914	1130.31
763.098	1107.78
763.281	1093.44
763.464	1077.06
763.648	1185.6
763.831	1015.62
764.015	1103.68
764.198	1032.01
764.381	1085.25
764.564	1154.88
764.748	1089.35
764.931	1183.56
765.114	1113.92
765.297	1042.25
765.481	1068.87
765.664	1072.96
765.847	1011.53
766.03	1066.82
766.213	1027.91
766.397	1046.34
766.58	1025.86
766.763	1140.55
766.946	1019.72
767.129	986.95
767.312	1029.96
767.495	1032.01
767.678	902.98
767.861	970.57
768.044	976.71
768.227	1009.48
768.41	1011.53
768.593	984.9
768.776	1001.29
768.959	964.42
769.142	1027.91
769.324	1003.33
769.507	966.47
769.69	927.56
769.873	1017.67
770.056	1062.73
770.239	882.5
770.421	921.42
770.604	984.9
770.787	941.89
770.97	892.74
771.152	972.61
771.335	943.94
771.518	837.45
771.7	939.85
771.883	874.31
772.066	950.09
772.248	831.3
772.431	890.7
772.613	868.17
772.796	888.65
772.978	884.55
773.161	909.13
773.343	884.55
773.526	847.69
773.708	882.5
773.891	794.44
774.073	835.4
774.256	857.93
774.438	913.22
774.621	825.16
774.803	862.02
774.985	837.45
775.168	782.15
775.35	769.87
775.532	747.34
775.715	743.24
775.897	792.39
776.079	761.67
776.261	751.43
776.444	653.13
776.626	730.95
776.808	683.85
776.99	792.39
777.173	788.3
777.355	675.66
777.537	763.72
777.719	661.32
777.901	698.19
778.083	714.57
778.265	669.52
778.447	603.98
778.629	646.99
778.811	771.91
778.993	624.46
779.175	610.12
779.357	724.81
779.539	702.28
779.721	634.7
779.903	739.15
780.085	581.45
780.267	712.52
780.449	655.18
780.631	630.6
780.812	646.99
780.994	618.32
781.176	599.88
781.358	522.06
781.54	622.41
781.721	630.6
781.903	587.6
782.085	560.97
782.267	515.92
782.448	597.84
782.63	587.6
782.812	517.97
782.993	581.45
783.175	661.32
783.357	599.88
783.538	575.31
783.72	528.21
783.901	603.98
784.083	528.21
784.264	546.64
784.446	464.72
784.627	479.05
784.809	466.77
784.99	522.06
785.172	470.86
785.353	501.58
785.535	456.53
785.716	458.57
785.897	427.85
786.079	505.68
786.26	501.58
786.441	462.67
786.623	489.29
786.804	401.23
786.985	493.39
787.167	458.57
787.348	411.47
787.529	474.96
787.71	479.05
787.891	489.29
788.073	399.18
788.254	442.19
788.435	417.61
788.616	444.24
788.797	456.53
788.978	413.52
789.159	388.94
789.34	364.37
789.522	368.46
789.703	397.14
789.884	474.96
790.065	454.48
790.246	378.7
790.427	390.99
790.607	378.7
790.788	411.47
790.969	347.98
791.15	333.65
791.331	384.85
791.512	395.09
791.693	325.46
791.874	401.23
792.054	464.72
792.235	378.7
792.416	403.28
792.597	425.81
792.778	313.17
792.958	368.46
793.139	311.12
793.32	393.04
793.5	372.56
793.681	319.31
793.862	335.7
794.042	317.26
794.223	296.78
794.404	266.07
794.584	315.22
794.765	335.7
794.945	362.32
795.126	347.98
795.306	296.78
795.487	315.22
795.667	341.84
795.848	333.65
796.028	257.87
796.209	337.74
796.389	360.27
796.57	343.89
796.75	255.83
796.93	304.98
797.111	309.07
797.291	315.22
797.471	407.38
797.652	288.59
797.832	282.45
798.012	272.21
798.192	235.35
798.373	264.02
798.553	196.43
798.733	294.74
798.913	276.31
799.093	311.12
799.274	264.02
799.454	339.79
799.634	313.17
799.814	247.63
799.994	208.72
800.174	257.87
800.354	198.48
800.534	196.43
800.714	266.07
800.894	225.11
801.074	272.21
801.254	286.54
801.434	257.87
801.614	204.63
801.794	178
801.974	628.56
802.154	192.34
802.334	327.5
802.514	243.54
802.693	280.4
802.873	315.22
803.053	237.39
803.233	192.34
803.413	264.02
803.592	229.2
803.772	180.05
803.952	266.07
804.131	225.11
804.311	270.16
804.491	202.58
804.67	192.34
804.85	233.3
805.03	266.07
805.209	173.91
805.389	255.83
805.568	190.29
805.748	233.3
805.928	278.35
806.107	229.2
806.287	163.67
806.466	225.11
806.646	264.02
806.825	206.67
807.004	175.95
807.184	290.64
807.363	243.54
807.543	155.47
807.722	186.19
807.901	216.91
808.081	208.72
808.26	137.04
808.439	231.25
808.619	198.48
808.798	139.09
808.977	171.86
809.156	145.24
809.336	120.66
809.515	163.67
809.694	180.05
809.873	147.28
810.052	212.82
810.231	186.19
810.411	212.82
810.59	163.67
810.769	128.85
810.948	225.11
811.127	141.14
811.306	141.14
811.485	182.1
811.664	190.29
811.843	128.85
812.022	155.47
812.201	143.19
812.38	157.52
812.559	186.19
812.737	139.09
812.916	190.29
813.095	71.51
813.274	145.24
813.453	145.24
813.632	130.9
813.811	190.29
813.989	145.24
814.168	190.29
814.347	137.04
814.526	169.81
814.704	145.24
814.883	182.1
815.062	151.38
815.24	221.01
815.419	120.66
815.598	120.66
815.776	141.14
815.955	106.32
816.133	65.36
816.312	128.85
816.49	96.08
816.669	102.23
816.847	141.14
817.026	147.28
817.204	143.19
817.383	126.8
817.561	104.28
817.74	151.38
817.918	190.29
818.097	175.95
818.275	104.28
818.453	141.14
818.632	100.18
818.81	124.76
818.988	81.75
819.167	110.42
819.345	91.99
819.523	87.89
819.701	114.52
819.879	169.81
820.058	204.63
820.236	130.9
820.414	57.17
820.592	100.18
820.77	96.08
820.948	149.33
821.127	122.71
821.305	53.08
821.483	163.67
821.661	157.52
821.839	65.36
822.017	188.24
822.195	85.84
822.373	116.56
822.551	89.94
822.729	182.1
822.907	102.23
823.085	94.04
823.262	48.98
823.44	106.32
823.618	91.99
823.796	106.32
823.974	79.7
824.152	98.13
824.329	87.89
824.507	110.42
824.685	126.8
824.863	34.64
825.04	149.33
825.218	116.56
825.396	104.28
825.574	104.28
825.751	91.99
825.929	106.32
826.107	20.31
826.284	104.28
826.462	151.38
826.639	73.56
826.817	178
826.994	79.7
827.172	71.51
827.349	163.67
827.527	73.56
827.704	20.31
827.882	55.12
828.059	73.56
828.237	98.13
828.414	114.52
828.591	81.75
828.769	122.71
828.946	69.46
829.124	77.65
829.301	151.38
829.478	116.56
829.655	108.37
829.833	87.89
830.01	75.6
830.187	104.28
830.364	96.08
830.542	110.42
830.719	48.98
830.896	98.13
831.073	77.65
831.25	126.8
831.427	87.89
831.604	32.6
831.782	85.84
831.959	178
832.136	81.75
832.313	14.17
832.49	100.18
832.667	106.32
832.844	71.51
833.021	106.32
833.198	89.94
833.374	69.46
833.551	161.62
833.728	98.13
833.905	120.66
834.082	100.18
834.259	124.76
834.436	116.56
834.612	18.26
834.789	102.23
834.966	100.18
835.143	106.32
835.319	22.36
835.496	112.47
835.673	51.03
835.85	71.51
836.026	118.61
836.203	38.74
836.38	65.36
836.556	46.93
836.733	26.45
836.909	118.61
837.086	28.5
837.262	122.71
837.439	-20.65
837.616	36.69
837.792	79.7
837.968	22.36
838.145	87.89
838.321	-16.55
838.498	102.23
838.674	87.89
838.851	65.36
839.027	71.51
839.203	-6.31
839.38	63.32
839.556	-14.51
839.732	16.21
839.909	1.88
840.085	46.93
840.261	34.64
840.437	108.37
840.614	-18.6
840.79	65.36
840.966	8.02
841.142	20.31
841.318	1.88
841.494	18.26
841.671	30.55
841.847	67.41
842.023	5.97
842.199	71.51
842.375	53.08
842.551	34.64
842.727	57.17
842.903	137.04
843.079	-39.08
843.255	116.56
843.431	116.56
843.607	59.22
843.783	89.94
843.959	36.69
844.134	34.64
844.31	106.32
844.486	77.65
844.662	77.65
844.838	-14.51
845.013	36.69
845.189	75.6
845.365	24.4
845.541	18.26
845.716	67.41
845.892	53.08
846.068	12.12
846.244	-12.46
846.419	67.41
846.595	22.36
846.77	-10.41
846.946	61.27
847.122	73.56
847.297	75.6
847.473	59.22
847.648	57.17
847.824	10.07
847.999	-4.27
848.175	59.22
848.35	102.23
848.526	16.21
848.701	-20.65
848.876	42.84
849.052	89.94
849.227	38.74
849.403	32.6
849.578	-14.51
849.753	75.6
849.929	32.6
850.104	36.69
850.279	-4.27
850.454	20.31
850.63	94.04
850.805	14.17
850.98	77.65
851.155	32.6
851.33	-14.51
851.505	-24.75
851.681	73.56
851.856	8.02
852.031	75.6
852.206	116.56
852.381	42.84
852.556	1.88
852.731	108.37
852.906	-8.36
853.081	8.02
853.256	46.93
853.431	48.98
853.606	8.02
853.781	14.17
853.956	26.45
854.131	69.46
854.305	5.97
854.48	-12.46
854.655	12.12
854.83	-20.65
855.005	63.32
855.18	75.6
855.354	46.93
855.529	65.36
855.704	-6.31
855.879	44.88
856.053	53.08
856.228	26.45
856.403	1.88
856.577	16.21
856.752	26.45
856.926	-28.84
857.101	51.03
857.276	67.41
857.45	5.97
857.625	120.66
857.799	46.93
857.974	40.79
858.148	57.17
858.323	24.4
858.497	38.74
858.672	20.31
858.846	28.5
859.02	34.64
859.195	20.31
859.369	-24.75
859.543	-2.22
859.718	48.98
859.892	-0.17
860.066	59.22
860.241	28.5
860.415	26.45
860.589	-77.99
860.763	38.74
860.938	-16.55
861.112	51.03
861.286	89.94
861.46	20.31
861.634	22.36
861.808	94.04
861.982	57.17
862.157	18.26
862.331	-34.99
862.505	85.84
862.679	-32.94
862.853	-47.27
863.027	10.07
863.201	81.75
863.375	55.12
863.549	-14.51
863.722	14.17
863.896	79.7
864.07	10.07
864.244	22.36
864.418	22.36
864.592	65.36
864.766	-71.85
864.939	-10.41
865.113	73.56
865.287	130.9
865.461	32.6
865.634	-32.94
865.808	38.74
865.982	-47.27
866.156	3.93
866.329	-4.27
866.503	-41.13
866.676	51.03
866.85	26.45
867.024	-59.56
867.197	40.79
867.371	118.61
867.544	-8.36
867.718	20.31
867.891	-39.08
868.065	-0.17
868.238	63.32
868.412	20.31
868.585	-12.46
868.759	40.79
868.932	-0.17
869.105	63.32
869.279	32.6
869.452	-45.23
869.625	87.89
869.799	-32.94
869.972	20.31
870.145	24.4
870.319	-16.55
870.492	30.55
870.665	-30.89
870.838	12.12
871.011	38.74
871.185	75.6
871.358	-6.31
871.531	16.21
871.704	26.45
871.877	-6.31
872.05	-2.22
872.223	-8.36
872.396	-34.99
872.569	-6.31
872.742	44.88
872.915	-41.13
873.088	-30.89
873.261	24.4
873.434	26.45
873.607	24.4
873.78	42.84
873.953	-14.51
874.126	34.64
874.299	24.4
874.471	51.03
874.644	69.46
874.817	-51.37
874.99	28.5
875.163	36.69
875.335	55.12
875.508	3.93
875.681	5.97
875.853	69.46
876.026	20.31
876.199	18.26
876.371	14.17
876.544	-43.18
876.717	30.55
876.889	-30.89
877.062	18.26
877.234	-10.41
877.407	3.93
877.579	-18.6
877.752	16.21
877.924	-6.31
878.097	53.08
878.269	61.27
878.442	16.21
878.614	30.55
878.786	-47.27
878.959	114.52
879.131	3.93
879.303	-22.7
879.476	36.69
879.648	67.41
879.82	48.98
879.993	14.17
880.165	30.55
880.337	5.97
880.509	51.03
880.681	-45.23
880.854	32.6
881.026	94.04
881.198	63.32
881.37	-8.36
881.542	16.21
881.714	18.26
881.886	-6.31
882.058	-34.99
882.23	-32.94
882.402	-49.32
882.574	-10.41
882.746	-24.75
882.918	-28.84
883.09	-34.99
883.262	53.08
883.434	10.07
883.606	10.07
883.778	28.5
883.95	55.12
884.122	-53.42
884.293	59.22
884.465	22.36
884.637	53.08
884.809	24.4
884.98	24.4
885.152	-4.27
885.324	63.32
885.496	3.93
885.667	-28.84
885.839	-39.08
886.011	12.12
886.182	-43.18
886.354	-22.7
886.525	16.21
886.697	10.07
886.869	12.12
887.04	28.5
887.212	-39.08
887.383	-18.6
887.555	85.84
887.726	24.4
887.897	-32.94
888.069	-22.7
888.24	-10.41
888.412	48.98
888.583	16.21
888.754	34.64
888.926	-88.23
889.097	40.79
889.268	22.36
889.44	63.32
889.611	-39.08
889.782	-2.22
889.953	-43.18
890.125	-24.75
890.296	-41.13
890.467	-0.17
890.638	44.88
890.809	32.6
890.98	-77.99
891.151	65.36
891.323	24.4
891.494	3.93
891.665	83.8
891.836	38.74
892.007	8.02
892.178	-41.13
892.349	16.21
892.52	46.93
892.691	5.97
892.862	-6.31
893.032	-71.85
893.203	-45.23
893.374	-37.03
893.545	57.17
893.716	14.17
893.887	22.36
894.057	79.7
894.228	67.41
894.399	14.17
894.57	63.32
894.74	-98.47
894.911	-26.79
895.082	5.97
895.253	-41.13
895.423	67.41
895.594	-8.36
895.764	-12.46
895.935	-14.51
896.106	34.64
896.276	5.97
896.447	26.45
896.617	24.4
896.788	-6.31
896.958	-63.66
897.129	-18.6
897.299	-14.51
897.47	18.26
897.64	14.17
897.81	-10.41
897.981	20.31
898.151	20.31
898.322	-30.89
898.492	-45.23
898.662	38.74
898.832	-30.89
899.003	-32.94
899.173	10.07
899.343	-71.85
899.513	30.55
