Data from USB4F104151__48__12-27-30-773.txt Node

Date: Fri Mar 14 12:27:30 EDT 2025
User: louis
Spectrometer: USB4F10415
Trigger mode: 4
Integration Time (sec): 2.000000E-2
Scans to average: 1
Electric dark correction enabled: true
Nonlinearity correction enabled: false
Boxcar width: 0
XAxis mode: Wavelengths
Number of Pixels in Spectrum: 3648
>>>>>Begin Spectral Data<<<<<
178.204	-61.1
178.424	-61.1
178.644	-61.1
178.864	-104.11
179.084	-143.02
179.304	-5.8
179.524	12.63
179.744	10.58
179.964	6.49
180.184	6.49
180.404	-16.04
180.624	-42.67
180.844	-18.09
181.064	22.87
181.283	4.44
181.503	-3.75
181.723	22.87
181.943	-42.67
182.163	106.84
182.383	57.68
182.602	94.55
182.822	51.54
183.042	12.63
183.262	-46.76
183.482	84.31
183.701	-67.24
183.921	18.77
184.141	8.53
184.361	35.16
184.58	-65.19
184.8	29.01
185.02	-20.14
185.239	20.82
185.459	33.11
185.679	35.16
185.898	4.44
186.118	16.73
186.338	4.44
186.557	53.59
186.777	14.68
186.997	67.92
187.216	61.78
187.436	65.88
187.655	-20.14
187.875	67.92
188.095	-30.38
188.314	-42.67
188.534	57.68
188.753	-26.28
188.973	39.25
189.192	8.53
189.412	22.87
189.631	-46.76
189.851	26.96
190.07	-24.23
190.29	14.68
190.509	10.58
190.729	35.16
190.948	20.82
191.168	92.5
191.387	22.87
191.607	61.78
191.826	10.58
192.045	-57
192.265	-9.9
192.484	-16.04
192.704	-24.23
192.923	-13.99
193.142	82.26
193.362	-13.99
193.581	-38.57
193.8	37.2
194.02	41.3
194.239	12.63
194.458	43.35
194.678	-52.91
194.897	-7.85
195.116	41.3
195.335	49.49
195.555	10.58
195.774	14.68
195.993	-5.8
196.212	65.88
196.432	-7.85
196.651	-26.28
196.87	2.39
197.089	63.83
197.308	16.73
197.528	84.31
197.747	-52.91
197.966	12.63
198.185	-5.8
198.404	-24.23
198.623	-24.23
198.842	57.68
199.062	41.3
199.281	92.5
199.5	12.63
199.719	-63.15
199.938	-13.99
200.157	74.07
200.376	76.12
200.595	29.01
200.814	53.59
201.033	39.25
201.252	65.88
201.471	14.68
201.69	18.77
201.909	26.96
202.128	31.06
202.347	61.78
202.566	59.73
202.785	49.49
203.004	-26.28
203.223	59.73
203.442	41.3
203.661	-5.8
203.879	-3.75
204.098	53.59
204.317	-42.67
204.536	35.16
204.755	-3.75
204.974	20.82
205.193	-9.9
205.411	110.93
205.63	-22.19
205.849	35.16
206.068	33.11
206.287	31.06
206.505	35.16
206.724	-32.43
206.943	39.25
207.162	65.88
207.381	-1.71
207.599	12.63
207.818	16.73
208.037	-44.71
208.255	-11.95
208.474	63.83
208.693	6.49
208.911	33.11
209.13	-7.85
209.349	-46.76
209.567	33.11
209.786	2.39
210.005	-1.71
210.223	-9.9
210.442	-59.05
210.661	55.64
210.879	-1.71
211.098	0.34
211.316	29.01
211.535	20.82
211.753	-28.33
211.972	53.59
212.191	-24.23
212.409	31.06
212.628	8.53
212.846	18.77
213.065	-22.19
213.283	55.64
213.502	59.73
213.72	35.16
213.938	55.64
214.157	-26.28
214.375	65.88
214.594	-61.1
214.812	8.53
215.031	-1.71
215.249	51.54
215.467	61.78
215.686	102.74
215.904	6.49
216.122	-11.95
216.341	43.35
216.559	-40.62
216.778	90.45
216.996	61.78
217.214	-26.28
217.432	-13.99
217.651	31.06
217.869	80.21
218.087	4.44
218.306	-3.75
218.524	61.78
218.742	-1.71
218.96	-30.38
219.179	-7.85
219.397	8.53
219.615	-34.47
219.833	43.35
220.051	18.77
220.27	45.4
220.488	98.64
220.706	6.49
220.924	-42.67
221.142	-9.9
221.36	72.02
221.578	26.96
221.796	16.73
222.015	-18.09
222.233	-3.75
222.451	31.06
222.669	-22.19
222.887	37.2
223.105	67.92
223.323	69.97
223.541	-13.99
223.759	33.11
223.977	26.96
224.195	4.44
224.413	12.63
224.631	8.53
224.849	8.53
225.067	-16.04
225.285	8.53
225.503	43.35
225.721	0.34
225.939	39.25
226.157	-1.71
226.375	16.73
226.592	84.31
226.81	55.64
227.028	51.54
227.246	74.07
227.464	16.73
227.682	94.55
227.9	-9.9
228.117	80.21
228.335	22.87
228.553	-59.05
228.771	-7.85
228.989	-30.38
229.206	55.64
229.424	31.06
229.642	29.01
229.86	37.2
230.077	-20.14
230.295	47.44
230.513	72.02
230.731	65.88
230.948	141.65
231.166	51.54
231.384	-7.85
231.601	-20.14
231.819	65.88
232.037	-1.71
232.254	-5.8
232.472	53.59
232.689	-20.14
232.907	37.2
233.125	-13.99
233.342	-1.71
233.56	26.96
233.777	16.73
233.995	43.35
234.213	92.5
234.43	2.39
234.648	69.97
234.865	-13.99
235.083	29.01
235.3	24.92
235.518	-32.43
235.735	90.45
235.953	86.36
236.17	43.35
236.388	-16.04
236.605	-1.71
236.822	61.78
237.04	-34.47
237.257	14.68
237.475	12.63
237.692	-9.9
237.909	55.64
238.127	-13.99
238.344	-5.8
238.562	41.3
238.779	-22.19
238.996	29.01
239.214	24.92
239.431	8.53
239.648	-24.23
239.865	78.16
240.083	29.01
240.3	39.25
240.517	47.44
240.735	78.16
240.952	51.54
241.169	72.02
241.386	-16.04
241.603	-16.04
241.821	10.58
242.038	57.68
242.255	-38.57
242.472	33.11
242.689	61.78
242.907	76.12
243.124	29.01
243.341	78.16
243.558	-5.8
243.775	-34.47
243.992	43.35
244.209	-36.52
244.426	-30.38
244.643	67.92
244.86	-5.8
245.078	29.01
245.295	-26.28
245.512	-7.85
245.729	-9.9
245.946	29.01
246.163	22.87
246.38	6.49
246.597	-11.95
246.814	0.34
247.031	14.68
247.248	80.21
247.464	-3.75
247.681	20.82
247.898	-18.09
248.115	-9.9
248.332	12.63
248.549	39.25
248.766	96.6
248.983	-34.47
249.2	14.68
249.417	51.54
249.633	8.53
249.85	-1.71
250.067	-9.9
250.284	22.87
250.501	43.35
250.717	78.16
250.934	-18.09
251.151	61.78
251.368	-16.04
251.585	59.73
251.801	35.16
252.018	-22.19
252.235	0.34
252.451	14.68
252.668	-24.23
252.885	6.49
253.102	-3.75
253.318	22.87
253.535	-38.57
253.752	12.63
253.968	8.53
254.185	-34.47
254.401	-1.71
254.618	12.63
254.835	37.2
255.051	33.11
255.268	53.59
255.484	31.06
255.701	-22.19
255.917	39.25
256.134	-46.76
256.351	2.39
256.567	-13.99
256.784	-30.38
257	53.59
257.217	20.82
257.433	115.03
257.65	18.77
257.866	57.68
258.082	-26.28
258.299	45.4
258.515	-11.95
258.732	20.82
258.948	22.87
259.165	20.82
259.381	37.2
259.597	-5.8
259.814	16.73
260.03	-18.09
260.246	-18.09
260.463	65.88
260.679	-20.14
260.895	45.4
261.112	69.97
261.328	-48.81
261.544	55.64
261.761	31.06
261.977	51.54
262.193	51.54
262.409	26.96
262.626	84.31
262.842	51.54
263.058	8.53
263.274	33.11
263.49	31.06
263.707	31.06
263.923	45.4
264.139	-24.23
264.355	88.4
264.571	96.6
264.787	4.44
265.004	33.11
265.22	43.35
265.436	-11.95
265.652	18.77
265.868	67.92
266.084	-75.43
266.3	47.44
266.516	20.82
266.732	47.44
266.948	16.73
267.164	74.07
267.38	47.44
267.596	39.25
267.812	78.16
268.028	43.35
268.244	16.73
268.46	35.16
268.676	63.83
268.892	-38.57
269.108	6.49
269.324	-5.8
269.54	-26.28
269.756	47.44
269.972	24.92
270.188	72.02
270.403	22.87
270.619	33.11
270.835	-1.71
271.051	55.64
271.267	-46.76
271.483	6.49
271.698	4.44
271.914	16.73
272.13	10.58
272.346	8.53
272.562	-26.28
272.777	33.11
272.993	16.73
273.209	29.01
273.425	41.3
273.64	12.63
273.856	47.44
274.072	4.44
274.287	-22.19
274.503	24.92
274.719	88.4
274.934	37.2
275.15	-5.8
275.366	-42.67
275.581	22.87
275.797	104.79
276.012	-57
276.228	10.58
276.444	55.64
276.659	100.69
276.875	6.49
277.09	49.49
277.306	-3.75
277.521	137.56
277.737	20.82
277.952	6.49
278.168	16.73
278.383	69.97
278.599	35.16
278.814	18.77
279.03	133.46
279.245	57.68
279.461	55.64
279.676	78.16
279.892	-3.75
280.107	16.73
280.322	67.92
280.538	-44.71
280.753	-44.71
280.969	59.73
281.184	12.63
281.399	4.44
281.615	-50.86
281.83	100.69
282.045	-75.43
282.26	10.58
282.476	51.54
282.691	80.21
282.906	-75.43
283.122	24.92
283.337	-3.75
283.552	12.63
283.767	-24.23
283.983	8.53
284.198	-7.85
284.413	45.4
284.628	-46.76
284.843	39.25
285.058	115.03
285.274	65.88
285.489	63.83
285.704	49.49
285.919	61.78
286.134	57.68
286.349	55.64
286.564	-13.99
286.779	-24.23
286.995	-9.9
287.21	-9.9
287.425	12.63
287.64	-11.95
287.855	-28.33
288.07	-77.48
288.285	33.11
288.5	49.49
288.715	72.02
288.93	-59.05
289.145	-44.71
289.36	2.39
289.575	63.83
289.79	74.07
290.004	72.02
290.219	92.5
290.434	-18.09
290.649	-13.99
290.864	2.39
291.079	31.06
291.294	51.54
291.509	-24.23
291.724	-36.52
291.938	12.63
292.153	0.34
292.368	-26.28
292.583	86.36
292.798	84.31
293.012	53.59
293.227	57.68
293.442	104.79
293.657	72.02
293.871	43.35
294.086	72.02
294.301	55.64
294.516	2.39
294.73	33.11
294.945	92.5
295.16	63.83
295.374	35.16
295.589	4.44
295.804	49.49
296.018	-3.75
296.233	57.68
296.447	92.5
296.662	-65.19
296.877	41.3
297.091	-9.9
297.306	22.87
297.52	39.25
297.735	80.21
297.949	63.83
298.164	4.44
298.378	0.34
298.593	12.63
298.807	33.11
299.022	12.63
299.236	61.78
299.451	-5.8
299.665	29.01
299.88	-32.43
300.094	53.59
300.309	16.73
300.523	-7.85
300.737	-71.34
300.952	-24.23
301.166	10.58
301.381	-63.15
301.595	-42.67
301.809	-46.76
302.024	106.84
302.238	59.73
302.452	74.07
302.667	6.49
302.881	61.78
303.095	20.82
303.309	24.92
303.524	59.73
303.738	26.96
303.952	53.59
304.166	22.87
304.381	-63.15
304.595	-48.81
304.809	-46.76
305.023	72.02
305.237	-7.85
305.452	16.73
305.666	0.34
305.88	22.87
306.094	82.26
306.308	12.63
306.522	41.3
306.736	37.2
306.95	26.96
307.164	59.73
307.379	47.44
307.593	51.54
307.807	31.06
308.021	-11.95
308.235	47.44
308.449	-24.23
308.663	18.77
308.877	0.34
309.091	51.54
309.305	100.69
309.519	-24.23
309.733	12.63
309.947	-28.33
310.161	57.68
310.374	-11.95
310.588	57.68
310.802	0.34
311.016	33.11
311.23	-13.99
311.444	61.78
311.658	2.39
311.872	37.2
312.085	67.92
312.299	72.02
312.513	33.11
312.727	67.92
312.941	-9.9
313.154	84.31
313.368	-13.99
313.582	63.83
313.796	39.25
314.009	31.06
314.223	-18.09
314.437	88.4
314.651	63.83
314.864	6.49
315.078	-5.8
315.292	2.39
315.505	-7.85
315.719	4.44
315.933	55.64
316.146	24.92
316.36	65.88
316.573	51.54
316.787	18.77
317.001	94.55
317.214	39.25
317.428	-9.9
317.641	-97.96
317.855	67.92
318.068	24.92
318.282	78.16
318.495	49.49
318.709	12.63
318.922	90.45
319.136	84.31
319.349	26.96
319.563	98.64
319.776	92.5
319.99	-20.14
320.203	51.54
320.417	6.49
320.63	45.4
320.843	8.53
321.057	41.3
321.27	-24.23
321.483	14.68
321.697	35.16
321.91	74.07
322.124	8.53
322.337	2.39
322.55	-9.9
322.763	51.54
322.977	-50.86
323.19	22.87
323.403	143.7
323.617	20.82
323.83	88.4
324.043	45.4
324.256	117.08
324.469	-26.28
324.683	43.35
324.896	57.68
325.109	74.07
325.322	-30.38
325.535	112.98
325.748	2.39
325.962	31.06
326.175	4.44
326.388	49.49
326.601	24.92
326.814	47.44
327.027	61.78
327.24	20.82
327.453	-36.52
327.666	31.06
327.879	-20.14
328.092	53.59
328.305	33.11
328.518	4.44
328.731	-9.9
328.944	2.39
329.157	84.31
329.37	20.82
329.583	45.4
329.796	139.6
330.009	24.92
330.222	59.73
330.435	14.68
330.648	-59.05
330.861	12.63
331.073	31.06
331.286	78.16
331.499	76.12
331.712	12.63
331.925	-44.71
332.138	45.4
332.35	86.36
332.563	-11.95
332.776	92.5
332.989	57.68
333.202	12.63
333.414	61.78
333.627	-57
333.84	67.92
334.053	10.58
334.265	43.35
334.478	33.11
334.691	65.88
334.903	59.73
335.116	-46.76
335.329	18.77
335.541	29.01
335.754	82.26
335.966	84.31
336.179	74.07
336.392	4.44
336.604	18.77
336.817	39.25
337.029	47.44
337.242	2.39
337.454	78.16
337.667	-16.04
337.88	57.68
338.092	-52.91
338.305	-16.04
338.517	-18.09
338.729	86.36
338.942	182.61
339.154	-30.38
339.367	49.49
339.579	55.64
339.792	22.87
340.004	57.68
340.217	2.39
340.429	24.92
340.641	41.3
340.854	39.25
341.066	33.11
341.278	78.16
341.491	133.46
341.703	41.3
341.915	16.73
342.128	74.07
342.34	63.83
342.552	67.92
342.764	-1.71
342.977	74.07
343.189	72.02
343.401	94.55
343.613	-18.09
343.826	45.4
344.038	51.54
344.25	29.01
344.462	49.49
344.674	-7.85
344.886	37.2
345.099	-28.33
345.311	16.73
345.523	6.49
345.735	-9.9
345.947	112.98
346.159	-5.8
346.371	-36.52
346.583	4.44
346.795	94.55
347.007	-7.85
347.219	16.73
347.431	37.2
347.643	86.36
347.855	-11.95
348.067	35.16
348.279	-22.19
348.491	33.11
348.703	51.54
348.915	-34.47
349.127	35.16
349.339	63.83
349.551	49.49
349.763	-1.71
349.975	43.35
350.187	110.93
350.399	10.58
350.61	8.53
350.822	31.06
351.034	24.92
351.246	10.58
351.458	63.83
351.669	29.01
351.881	33.11
352.093	14.68
352.305	-30.38
352.517	100.69
352.728	90.45
352.94	67.92
353.152	22.87
353.363	16.73
353.575	57.68
353.787	43.35
353.999	69.97
354.21	39.25
354.422	69.97
354.633	49.49
354.845	14.68
355.057	8.53
355.268	72.02
355.48	35.16
355.692	-52.91
355.903	8.53
356.115	6.49
356.326	49.49
356.538	86.36
356.749	26.96
356.961	88.4
357.172	-13.99
357.384	55.64
357.595	90.45
357.807	72.02
358.018	-26.28
358.23	20.82
358.441	24.92
358.653	110.93
358.864	-22.19
359.075	18.77
359.287	92.5
359.498	12.63
359.709	-1.71
359.921	84.31
360.132	16.73
360.344	129.36
360.555	74.07
360.766	98.64
360.977	41.3
361.189	63.83
361.4	6.49
361.611	61.78
361.823	59.73
362.034	59.73
362.245	80.21
362.456	-16.04
362.667	69.97
362.879	76.12
363.09	67.92
363.301	-20.14
363.512	10.58
363.723	12.63
363.935	10.58
364.146	119.12
364.357	26.96
364.568	63.83
364.779	43.35
364.99	121.17
365.201	-48.81
365.412	59.73
365.623	59.73
365.834	102.74
366.045	69.97
366.256	63.83
366.467	102.74
366.678	65.88
366.889	18.77
367.1	94.55
367.311	12.63
367.522	65.88
367.733	106.84
367.944	65.88
368.155	63.83
368.366	115.03
368.577	24.92
368.788	65.88
368.999	10.58
369.209	39.25
369.42	90.45
369.631	59.73
369.842	65.88
370.053	29.01
370.264	63.83
370.474	35.16
370.685	74.07
370.896	74.07
371.107	69.97
371.317	55.64
371.528	35.16
371.739	55.64
371.95	43.35
372.16	63.83
372.371	-38.57
372.582	41.3
372.792	63.83
373.003	69.97
373.214	55.64
373.424	16.73
373.635	131.41
373.846	-7.85
374.056	6.49
374.267	84.31
374.477	67.92
374.688	49.49
374.898	33.11
375.109	88.4
375.319	74.07
375.53	33.11
375.74	16.73
375.951	-22.19
376.161	26.96
376.372	88.4
376.582	-34.47
376.793	57.68
377.003	90.45
377.214	14.68
377.424	112.98
377.635	43.35
377.845	63.83
378.055	2.39
378.266	39.25
378.476	121.17
378.686	69.97
378.897	82.26
379.107	141.65
379.317	67.92
379.528	-5.8
379.738	69.97
379.948	43.35
380.158	121.17
380.369	37.2
380.579	12.63
380.789	20.82
380.999	61.78
381.21	88.4
381.42	43.35
381.63	47.44
381.84	76.12
382.05	72.02
382.261	84.31
382.471	90.45
382.681	78.16
382.891	14.68
383.101	-24.23
383.311	59.73
383.521	88.4
383.731	76.12
383.941	90.45
384.151	18.77
384.361	-3.75
384.571	39.25
384.781	57.68
384.991	90.45
385.201	133.46
385.411	102.74
385.621	80.21
385.831	33.11
386.041	49.49
386.251	76.12
386.461	121.17
386.671	65.88
386.881	37.2
387.091	35.16
387.301	47.44
387.511	108.88
387.72	59.73
387.93	69.97
388.14	69.97
388.35	82.26
388.56	112.98
388.769	82.26
388.979	20.82
389.189	-3.75
389.399	65.88
389.609	18.77
389.818	67.92
390.028	143.7
390.238	51.54
390.447	33.11
390.657	29.01
390.867	29.01
391.076	-32.43
391.286	78.16
391.496	39.25
391.705	69.97
391.915	63.83
392.125	65.88
392.334	86.36
392.544	33.11
392.753	61.78
392.963	47.44
393.172	135.51
393.382	67.92
393.591	96.6
393.801	57.68
394.01	131.41
394.22	69.97
394.429	145.75
394.639	43.35
394.848	133.46
395.058	94.55
395.267	69.97
395.477	102.74
395.686	96.6
395.895	166.23
396.105	84.31
396.314	141.65
396.524	55.64
396.733	51.54
396.942	158.03
397.152	106.84
397.361	57.68
397.57	106.84
397.78	0.34
397.989	102.74
398.198	123.22
398.407	57.68
398.617	78.16
398.826	112.98
399.035	121.17
399.244	110.93
399.453	39.25
399.663	153.94
399.872	158.03
400.081	141.65
400.29	147.8
400.499	80.21
400.708	104.79
400.917	141.65
401.127	51.54
401.336	115.03
401.545	106.84
401.754	67.92
401.963	94.55
402.172	102.74
402.381	174.42
402.59	139.6
402.799	143.7
403.008	119.12
403.217	192.85
403.426	100.69
403.635	178.51
403.844	129.36
404.053	160.08
404.262	127.32
404.471	153.94
404.68	145.75
404.888	182.61
405.097	92.5
405.306	98.64
405.515	186.71
405.724	184.66
405.933	194.9
406.142	213.33
406.35	219.47
406.559	207.19
406.768	201.04
406.977	221.52
407.185	239.95
407.394	246.1
407.603	153.94
407.812	287.06
408.02	272.72
408.229	239.95
408.438	170.32
408.646	178.51
408.855	278.87
409.064	246.1
409.272	260.43
409.481	285.01
409.69	321.87
409.898	364.88
410.107	289.1
410.315	325.97
410.524	346.45
410.733	342.35
410.941	397.65
411.15	383.31
411.358	463.18
411.567	430.41
411.775	459.09
411.984	389.46
412.192	514.38
412.401	401.74
412.609	495.95
412.818	424.27
413.026	549.2
413.234	489.81
413.443	559.44
413.651	563.53
413.86	579.92
414.068	602.44
414.276	606.54
414.485	645.45
414.693	633.16
414.901	772.43
415.11	747.85
415.318	809.29
415.526	751.95
415.734	780.62
415.943	823.62
416.151	803.15
416.359	815.43
416.567	911.69
416.776	950.6
416.984	1118.53
417.192	1061.19
417.4	1063.24
417.608	1057.09
417.817	1112.39
418.025	1130.82
418.233	1237.31
418.441	1257.79
418.649	1302.85
418.857	1360.19
419.065	1446.21
419.273	1395.01
419.481	1431.87
419.689	1579.33
419.897	1495.36
420.105	1501.5
420.313	1704.25
420.521	1540.41
420.729	1769.79
420.937	1909.05
421.145	1939.77
421.353	1964.34
421.561	1988.92
421.769	2087.22
421.977	2152.76
422.185	2273.59
422.393	2388.27
422.601	2562.35
422.809	2359.6
423.017	2394.42
423.224	2539.82
423.432	2613.55
423.64	2552.11
423.848	2908.46
424.056	2775.34
424.263	3043.62
424.471	2986.28
424.679	3250.47
424.887	3301.67
425.094	3434.78
425.302	3402.02
425.51	3666.21
425.718	3588.38
425.925	3782.94
426.133	3799.32
426.341	4088.09
426.548	4223.25
426.756	4208.92
426.964	4315.41
427.171	4450.58
427.379	4610.32
427.586	4720.91
427.794	4788.49
428.001	5077.26
428.209	5382.4
428.417	5323.01
428.624	5605.63
428.832	5699.84
429.039	5554.43
429.247	5546.24
429.454	6064.38
429.662	6639.86
429.869	6027.51
430.076	6473.97
430.284	6373.62
430.491	6535.41
430.699	6934.76
430.906	7192.81
431.114	7164.14
431.321	7438.56
431.528	7510.24
431.736	7909.6
431.943	8409.3
432.15	8196.31
432.358	8247.51
432.565	8775.89
432.772	8501.46
432.979	9072.84
433.187	9357.51
433.394	9273.54
433.601	10086.59
433.808	10098.88
434.016	9851.07
434.223	10375.35
434.43	10821.81
434.637	10719.41
434.844	11505.83
435.052	11696.29
435.259	11610.28
435.466	11655.33
435.673	11684
435.88	12419.22
436.087	13080.72
436.294	12865.68
436.501	12853.39
436.708	12931.22
436.915	13392.01
437.122	14063.74
437.329	14182.52
437.537	14442.62
437.743	14391.42
437.95	14448.76
438.157	15407.21
438.364	15964.26
438.571	15560.81
438.778	15974.5
438.985	17240.14
439.192	16693.33
439.399	17381.45
439.606	16902.23
439.813	17975.36
440.02	18978.87
440.227	18481.21
440.433	18518.07
440.64	18950.2
440.847	19032.11
441.054	19410.99
441.261	20926.49
441.467	20234.27
441.674	20742.17
441.881	21444.62
442.088	21573.64
442.294	21229.59
442.501	21669.9
442.708	22327.3
442.914	23062.52
443.121	24057.83
443.328	23312.37
443.534	25237.46
443.741	24709.08
443.948	23920.62
444.154	25909.19
444.361	25747.4
444.568	25853.9
444.774	26124.23
444.981	26369.99
445.187	27166.65
445.394	28039.08
445.6	27893.68
445.807	30619.52
446.013	29458.32
446.22	29781.9
446.426	30939.01
446.633	31391.61
446.839	32200.55
447.046	31084.41
447.252	32737.12
447.459	33013.6
447.665	33060.7
447.871	33904.46
448.078	35229.5
448.284	33754.96
448.491	34854.72
448.697	36230.96
448.903	36654.89
449.11	37017.38
449.316	36089.65
449.522	36972.32
449.728	38164.24
449.935	38309.64
450.141	38211.34
450.347	39177.98
450.553	38156.05
450.76	38680.33
450.966	39790.33
451.172	39137.02
451.378	40230.64
451.584	39659.26
451.791	40181.49
451.997	40097.52
452.203	41268.96
452.409	40683.24
452.615	40744.68
452.821	39220.99
453.027	39034.63
453.233	40994.53
453.44	39364.35
453.646	40130.29
453.852	39786.23
454.058	40898.28
454.264	39227.13
454.47	40763.11
454.676	39134.98
454.882	40552.17
455.088	37195.55
455.294	37963.54
455.5	38414.09
455.705	38483.72
455.911	37601.05
456.117	36673.32
456.323	35870.51
456.529	33933.14
456.735	35721.01
456.941	34744.13
457.147	33890.13
457.352	33666.9
457.558	32941.92
457.764	32845.66
457.97	32143.21
458.176	31661.94
458.381	31467.38
458.587	30054.28
458.793	30181.26
458.999	28340.13
459.204	30574.47
459.41	29622.16
459.616	27856.81
459.821	27623.34
460.027	27516.85
460.233	27180.98
460.438	25704.4
460.644	25864.14
460.85	24666.08
461.055	24762.33
461.261	24344.55
461.466	22802.43
461.672	21985.29
461.878	23142.39
462.083	21792.78
462.289	21669.9
462.494	21418
462.7	20305.95
462.905	19943.46
463.111	20492.32
463.316	20455.45
463.522	20064.29
463.727	20017.19
463.932	20092.96
464.138	19808.3
464.343	20103.2
464.549	19439.66
464.754	20031.52
464.959	19546.16
465.165	19781.67
465.37	19050.55
465.575	18290.75
465.781	19128.37
465.986	19185.71
466.191	18593.85
466.397	18020.42
466.602	17094.74
466.807	18028.61
467.012	17860.68
467.218	17950.79
467.423	17750.09
467.628	17819.72
467.833	18534.46
468.038	17729.61
468.244	17195.09
468.449	17989.7
468.654	17498.19
468.859	17344.59
469.064	17166.42
469.269	16697.43
469.474	16404.57
469.679	17125.46
469.885	16433.24
470.09	16707.67
470.295	16543.83
470.5	16076.9
470.705	16341.08
470.91	15978.59
471.115	15738.98
471.32	16095.33
471.525	15994.98
471.73	15624.29
471.935	15618.15
472.139	15009.9
472.344	15200.37
472.549	15057.01
472.754	14930.03
472.959	14788.72
473.164	14319.74
473.369	14188.67
473.574	14626.93
473.778	14594.17
473.983	14323.83
474.188	14033.02
474.393	13799.55
474.598	13693.06
474.802	13514.89
475.007	13521.03
475.212	13439.11
475.417	13238.41
475.621	13289.61
475.826	13045.9
476.031	12724.37
476.235	12458.14
476.44	12781.71
476.645	12443.8
476.849	12376.22
477.054	12437.66
477.259	12198.04
477.463	12152.99
477.668	11901.09
477.872	11948.19
478.077	11712.67
478.282	11518.12
478.486	11677.86
478.691	11282.6
478.895	11477.16
479.1	11147.44
479.304	11346.09
479.509	11153.58
479.713	11083.95
479.918	10838.19
480.122	10780.85
480.326	10993.84
480.531	10995.89
480.735	10875.06
480.94	10496.18
481.144	10934.45
481.348	10389.69
481.553	10727.6
481.757	10379.45
481.961	10750.13
482.166	10817.71
482.37	10717.36
482.574	10473.65
482.778	10434.74
482.983	10604.72
483.187	10557.62
483.391	10518.71
483.595	10416.31
483.8	10430.65
484.004	10500.28
484.208	10344.63
484.412	10313.91
484.616	10531
484.821	10379.45
485.025	10535.09
485.229	10715.31
485.433	10582.2
485.637	10633.4
485.841	10334.39
486.045	10291.38
486.249	10412.21
486.453	10062.01
486.657	10410.17
486.861	10459.32
487.065	10023.1
487.269	10121.4
487.473	10240.19
487.677	10465.46
487.881	10567.86
488.085	10328.25
488.289	10369.21
488.493	10348.73
488.697	10367.16
488.901	10426.55
489.105	10318.01
489.309	10442.93
489.512	10561.72
489.716	10518.71
489.92	10309.82
490.124	10543.28
490.328	10741.94
490.531	10518.71
490.735	11036.84
490.939	10756.27
491.143	10629.3
491.346	10627.25
491.55	10997.93
491.754	10909.87
491.958	11020.46
492.161	10956.97
492.365	10891.44
492.569	10850.48
492.772	11006.13
492.976	11086
493.18	11243.69
493.383	11190.44
493.587	11360.42
493.79	11548.84
493.994	11374.76
494.197	11380.9
494.401	11628.71
494.605	11600.04
494.808	11913.38
495.012	11890.85
495.215	11933.86
495.419	12140.7
495.622	11911.33
495.825	12142.75
496.029	12150.94
496.232	12370.07
496.436	12308.63
496.639	12591.25
496.843	12380.31
497.046	12609.68
497.249	12796.05
497.453	13121.68
497.656	13330.57
497.859	13185.16
498.063	13117.58
498.266	13490.31
498.469	13387.91
498.673	13707.4
498.876	13660.29
499.079	13959.3
499.282	14071.93
499.485	14272.64
499.689	14407.8
499.892	14698.61
500.095	14901.36
500.298	15165.55
500.501	14940.27
500.705	15251.56
500.908	15437.93
501.111	15622.25
501.314	15712.36
501.517	15814.76
501.72	16060.51
501.923	15990.88
502.126	16459.87
502.329	16803.92
502.532	16801.88
502.735	16918.61
502.938	17375.31
503.141	17313.87
503.344	17649.74
503.547	17813.57
503.75	17887.3
503.953	17950.79
504.156	18255.93
504.359	18573.37
504.562	18425.92
504.765	18829.37
504.968	18960.44
505.17	19097.65
505.373	19365.93
505.576	19515.44
505.779	19740.71
505.982	20201.51
506.185	20396.06
506.387	20322.34
506.59	20547.61
506.793	20992.02
506.996	20850.71
507.198	21544.97
507.401	21223.44
507.604	21792.78
507.807	21975.05
508.009	22128.64
508.212	22528
508.415	22720.51
508.617	23033.85
508.82	23076.85
509.022	22919.16
509.225	23799.79
509.428	23711.72
509.63	24166.37
509.833	24129.51
510.035	24909.79
510.238	24418.27
510.44	24889.31
510.643	25133.01
510.845	25346
511.048	25333.71
511.25	26046.41
511.453	25999.3
511.655	27070.39
511.858	26515.39
512.06	26658.75
512.262	27199.41
512.465	27074.49
512.667	27639.73
512.87	28282.79
513.072	28067.75
513.274	28432.29
513.477	28872.6
513.679	28854.17
513.881	28956.57
514.084	29519.76
514.286	29507.48
514.488	29822.86
514.69	30396.29
514.893	30345.09
515.095	30994.3
515.297	30859.13
515.499	30971.77
515.701	31582.07
515.904	31922.03
516.106	32372.58
516.308	32225.13
516.51	32581.48
516.712	32515.94
516.914	32915.3
517.116	33963.86
517.318	33265.5
517.52	33769.3
517.722	34113.36
517.925	34543.43
518.127	34942.78
518.329	35184.44
518.531	34987.84
518.733	35692.34
518.935	35675.96
519.136	35985.2
519.338	36302.64
519.54	36355.88
519.742	36855.59
519.944	37050.14
520.146	37844.76
520.348	38272.78
520.55	38010.64
520.752	38233.87
520.954	38956.8
521.155	38450.95
521.357	38905.6
521.559	39134.98
521.761	39886.58
521.963	39892.72
522.164	39933.68
522.366	40191.73
522.568	40756.97
522.77	41029.35
522.971	41670.36
523.173	41086.69
523.375	41457.37
523.576	41772.76
523.778	41676.51
523.98	42274.51
524.181	42069.72
524.383	42491.6
524.584	43052.74
524.786	42788.55
524.988	42737.35
525.189	43151.04
525.391	43550.4
525.592	43955.89
525.794	43667.13
525.995	43833.02
526.197	43968.18
526.398	44115.64
526.6	44521.13
526.801	44457.65
527.003	44742.31
527.204	44879.53
527.406	45199.01
527.607	45268.64
527.808	45594.27
528.01	44889.77
528.211	45125.28
528.412	46263.96
528.614	46018.2
528.815	46036.63
529.016	46352.02
529.218	45801.11
529.419	46198.42
529.62	46571.15
529.822	46515.86
530.023	46601.87
530.224	46620.3
530.425	46530.19
530.626	46384.79
530.828	46309.01
531.029	47271.56
531.23	46665.36
531.431	46255.76
531.632	46898.83
531.833	47031.94
532.035	47214.21
532.236	47132.29
532.437	47064.71
532.638	46595.73
532.839	47146.63
533.04	47453.83
533.241	46995.08
533.442	47761.02
533.643	47771.26
533.844	47615.61
534.045	47625.85
534.246	46982.79
534.447	47799.93
534.648	47318.66
534.849	47761.02
535.05	47048.33
535.251	47496.83
535.451	47392.39
535.652	47728.25
535.853	47201.93
536.054	47611.52
536.255	47427.2
536.456	47105.67
536.657	47955.58
536.857	47492.74
537.058	47339.14
537.259	47976.06
537.46	47969.91
537.66	47750.78
537.861	47634.05
538.062	47548.03
538.263	47861.37
538.463	47500.93
538.664	47576.7
538.865	48107.13
539.065	48002.68
539.266	46927.5
539.466	47754.88
539.667	47091.33
539.868	48184.95
540.068	47914.62
540.269	47853.18
540.469	48078.46
540.67	47642.24
540.87	47277.7
541.071	47498.88
541.271	47812.22
541.472	47150.73
541.672	47296.13
541.873	47373.95
542.073	46888.59
542.274	47971.96
542.474	47619.71
542.675	46950.02
542.875	47670.91
543.075	47404.67
543.276	46962.31
543.476	47842.94
543.676	47287.94
543.877	47513.22
544.077	47208.07
544.277	47521.41
544.478	47378.05
544.678	47554.18
544.878	47593.09
545.078	47480.45
545.279	47091.33
545.479	47029.9
545.679	47429.25
545.879	47498.88
546.079	47400.58
546.28	47318.66
546.48	46976.65
546.68	46941.83
546.88	47531.65
547.08	47140.49
547.28	47195.78
547.48	46859.91
547.68	47416.96
547.88	46884.49
548.081	47337.09
548.281	46741.13
548.481	47109.77
548.681	47763.07
548.881	47492.74
549.081	47416.96
549.28	47226.5
549.48	47228.55
549.68	46947.98
549.88	47928.95
550.08	46524.05
550.28	47380.1
550.48	46857.87
550.68	47099.53
550.88	47107.72
551.08	47175.3
551.279	47353.47
551.479	46694.03
551.679	47193.73
551.879	46982.79
552.079	46984.84
552.278	46622.35
552.478	46972.55
552.678	46917.26
552.878	47001.22
553.077	47087.24
553.277	46163.6
553.477	47701.63
553.676	46714.51
553.876	46945.93
554.076	46796.43
554.275	46524.05
554.475	45899.42
554.674	46833.29
554.874	46915.21
555.074	46352.02
555.273	46589.58
555.473	47163.01
555.672	45956.76
555.872	46870.15
556.071	46380.69
556.271	46833.29
556.47	46184.08
556.67	45702.81
556.869	46237.33
557.068	46282.39
557.268	46063.25
557.467	46194.32
557.667	46007.96
557.866	45891.23
558.065	46225.04
558.265	46083.73
558.464	45997.72
558.663	46485.14
558.863	45172.39
559.062	46423.7
559.261	45571.74
559.461	45938.33
559.66	45346.47
559.859	45706.91
560.058	45610.65
560.258	45942.42
560.457	45262.5
560.656	45758.11
560.855	45092.52
561.054	46159.51
561.253	45242.02
561.453	45170.34
561.652	45522.59
561.851	45276.83
562.05	45358.75
562.249	45239.97
562.448	45368.99
562.647	45160.1
562.846	45098.66
563.045	44838.57
563.244	44543.66
563.443	45270.69
563.642	44230.32
563.841	44547.76
564.04	44781.23
564.239	45164.2
564.438	44416.69
564.637	44431.02
564.836	44435.12
565.035	43839.16
565.234	44246.71
565.432	43923.13
565.631	43945.65
565.83	44093.11
566.029	43802.3
566.228	43544.25
566.427	43675.32
566.625	43599.55
566.824	43357.89
567.023	43740.86
567.222	42575.56
567.42	44078.77
567.619	43204.29
567.818	43656.89
568.016	43155.14
568.215	43316.93
568.414	43079.36
568.612	43200.19
568.811	43024.07
569.01	42716.87
569.208	42415.82
569.407	42985.16
569.605	42589.9
569.804	42510.03
570.002	42514.12
570.201	42909.38
570.4	42340.05
570.598	41860.82
570.797	41727.7
570.995	42133.2
571.193	41658.07
571.392	42184.4
571.59	41651.93
571.789	41469.66
571.987	41664.22
572.186	41484
572.384	41187.04
572.582	41391.84
572.781	41369.31
572.979	40875.75
573.177	41166.56
573.376	41471.71
573.574	40935.14
573.772	41342.69
573.971	40797.93
574.169	40564.46
574.367	40654.57
574.565	40763.11
574.763	40066.8
574.962	40324.85
575.16	39544.57
575.358	40328.94
575.556	39855.86
575.754	40455.92
575.952	39657.21
576.151	40062.71
576.349	39468.8
576.547	39485.18
576.745	39714.55
576.943	39880.44
577.141	39483.13
577.339	39765.75
577.537	39286.53
577.735	39108.35
577.933	38979.33
578.131	38895.36
578.329	38827.78
578.527	38262.54
578.725	38715.14
578.923	38510.35
579.121	38700.81
579.319	38620.94
579.516	38577.93
579.714	38475.53
579.912	38299.4
580.11	37822.23
580.308	38217.49
580.506	38373.13
580.704	37652.25
580.901	37560.09
581.099	38104.85
581.297	37807.89
581.495	37531.42
581.692	37703.45
581.89	37224.22
582.088	37218.08
582.285	37013.28
582.483	37281.56
582.681	37386.01
582.878	37064.48
583.076	36597.54
583.274	37287.71
583.471	36593.45
583.669	36978.47
583.866	36224.81
584.064	36855.59
584.262	36130.61
584.459	36460.33
584.657	36134.7
584.854	36296.49
585.052	35643.19
585.249	36030.26
585.447	35804.98
585.644	35497.78
585.841	35495.74
586.039	36161.33
586.236	35376.95
586.434	35233.6
586.631	35161.92
586.828	35340.09
587.026	35282.75
587.223	35252.03
587.42	35024.7
587.618	34936.64
587.815	34680.64
588.012	34367.3
588.21	34705.22
588.407	35008.32
588.604	34635.59
588.801	34176.84
588.999	34328.39
589.196	34508.61
589.393	34111.31
589.59	33722.19
589.787	33744.72
589.984	33468.25
590.182	33458.01
590.379	33834.83
590.576	33492.82
590.773	33615.7
590.97	33427.29
591.167	33322.84
591.364	32786.27
591.561	33541.97
591.758	32769.89
591.955	32651.11
592.152	32800.61
592.349	32956.25
592.546	32825.18
592.743	32737.12
592.94	32194.41
593.137	31874.93
593.334	32333.67
593.531	31772.53
593.727	32354.15
593.924	32104.3
594.121	32182.12
594.318	32001.9
594.515	31575.92
594.712	32454.5
594.908	31784.82
595.105	31627.12
595.302	31260.54
595.499	31133.56
595.696	31403.89
595.892	31309.69
596.089	31278.97
596.286	30965.63
596.482	31281.02
596.679	31025.02
596.876	30721.92
597.072	30777.22
597.269	30574.47
597.466	30381.96
597.662	30330.76
597.859	30341
598.055	30519.17
598.252	30349.19
598.448	30199.69
598.645	29972.36
598.841	29636.5
599.038	29872.01
599.234	29747.09
599.431	29204.38
599.627	29269.91
599.824	29609.87
600.02	29505.43
600.217	29261.72
600.413	29052.83
600.609	29343.64
600.806	29241.24
601.002	29353.88
601.198	28739.49
601.395	28811.17
601.591	28612.51
601.787	28831.65
601.984	28438.44
602.18	29087.64
602.376	28305.32
602.572	28436.39
602.769	28184.49
602.965	28000.17
603.161	28405.67
603.357	27760.56
603.553	27955.11
603.75	27803.57
603.946	27641.78
604.142	28041.13
604.338	27559.86
604.534	28157.86
604.73	27094.97
604.926	27518.9
605.122	27500.47
605.318	27488.18
605.514	27027.38
605.71	27068.34
605.906	27043.77
606.102	26902.46
606.298	26851.26
606.494	26830.78
606.69	27140.02
606.886	26785.72
607.082	26576.83
607.278	26742.72
607.474	26243.01
607.67	26482.63
607.866	26054.6
608.062	26773.44
608.257	26281.92
608.453	26054.6
608.649	26449.86
608.845	26326.98
609.041	26046.41
609.236	26159.05
609.432	25688.01
609.628	26017.74
609.824	25884.62
610.019	25499.6
610.215	25778.12
610.411	25892.81
610.606	25659.34
610.802	25866.19
610.998	25792.46
611.193	25470.93
611.389	25602
611.584	25452.5
611.78	25182.17
611.976	25374.67
612.171	25335.76
612.367	25346
612.562	25245.65
612.758	24811.48
612.953	25008.09
613.149	25483.22
613.344	24909.79
613.539	25397.2
613.735	25100.25
613.93	24815.58
614.126	24668.12
614.321	25020.38
614.517	24690.65
614.712	24737.76
614.907	24700.89
615.103	25032.66
615.298	24637.41
615.493	24887.26
615.688	24377.31
615.884	24891.35
616.079	24061.93
616.274	24573.92
616.47	24258.53
616.665	24315.87
616.86	24348.64
617.055	24154.08
617.25	24215.52
617.445	24518.62
617.641	23775.21
617.836	24305.63
618.031	23576.56
618.226	24254.44
618.421	23965.67
618.616	24018.92
618.811	23361.52
619.006	23705.58
619.201	23095.28
619.396	23599.09
619.591	22986.74
619.786	23185.4
619.981	23214.07
620.176	23265.27
620.371	22882.3
620.566	23091.19
620.761	22890.49
620.956	22888.44
621.151	22370.3
621.346	22648.83
621.541	22339.58
621.735	22614.01
621.93	22007.81
622.125	22097.92
622.32	21770.25
622.515	22124.55
622.709	21774.35
622.904	21944.33
623.099	21643.28
623.294	21661.71
623.488	21102.61
623.683	21463.05
623.878	21008.4
624.072	20985.88
624.267	20938.77
624.462	20865.05
624.656	20645.91
624.851	20889.62
625.046	20731.93
625.24	20467.74
625.435	20348.96
625.629	20377.63
625.824	20115.49
626.018	20080.67
626.213	19546.16
626.407	19853.35
626.602	19337.26
626.796	19863.59
626.991	19441.71
627.185	19286.06
627.38	19101.75
627.574	18923.57
627.768	18966.58
627.963	19154.99
628.157	18686.01
628.352	18690.1
628.546	18511.93
628.74	18960.44
628.935	18411.58
629.129	18362.43
629.323	18341.95
629.517	18274.37
629.712	18143.3
629.906	17911.88
630.1	17635.4
630.294	17789
630.489	17907.78
630.683	17780.81
630.877	17535.05
631.071	17311.82
631.265	17367.12
631.459	17317.97
631.653	17289.29
631.848	16930.9
632.042	16924.76
632.236	17055.83
632.43	16812.12
632.624	16828.5
632.818	16707.67
633.012	16437.34
633.206	16279.64
633.4	16629.85
633.594	16164.96
633.788	16423
633.982	16117.86
634.176	15876.2
634.369	16121.95
634.563	16109.66
634.757	15964.26
634.951	15579.24
635.145	15822.95
635.339	15456.36
635.533	15753.32
635.726	15331.44
635.92	15374.44
636.114	15329.39
636.308	15120.49
636.501	14901.36
636.695	15028.34
636.889	14901.36
637.083	14889.07
637.276	15093.87
637.47	14446.71
637.664	14878.83
637.857	14680.18
638.051	14567.54
638.244	14231.68
638.438	14348.41
638.632	14303.36
638.825	14209.15
639.019	14092.41
639.212	13987.97
639.406	13928.58
639.599	13875.33
639.793	13869.19
639.986	13738.12
640.18	13801.6
640.373	13904
640.567	13668.48
640.76	13594.76
640.954	13305.99
641.147	13195.4
641.34	13244.56
641.534	13310.09
641.727	13240.46
641.92	13121.68
642.114	12914.83
642.307	13136.01
642.5	13095.05
642.694	12816.53
642.887	12974.22
643.08	12880.02
643.273	12802.19
643.467	12503.19
643.66	12654.74
643.853	12247.19
644.046	12363.93
644.239	12161.18
644.432	12265.63
644.626	12109.98
644.819	12073.12
645.012	12275.87
645.205	12265.63
645.398	12001.44
645.591	11972.77
645.784	11835.55
645.977	11655.33
646.17	11710.63
646.363	11481.25
646.556	11452.58
646.749	11538.6
646.942	11702.43
647.135	11323.56
647.328	11442.34
647.521	11296.94
647.714	11184.3
647.907	10952.88
648.099	10911.92
648.292	11069.61
648.485	10965.17
648.678	10797.23
648.871	10834.1
649.064	10868.91
649.256	10772.66
649.449	10680.5
649.642	10690.74
649.835	10657.97
650.027	10600.63
650.22	10612.92
650.413	10404.02
650.605	10254.52
650.798	10264.76
650.991	10412.21
651.183	10324.15
651.376	10111.16
651.568	10154.17
651.761	10047.68
651.954	10092.73
652.146	10045.63
652.339	9945.28
652.531	9939.13
652.724	9722.05
652.916	9820.35
653.109	9717.95
653.301	9752.77
653.494	9730.24
653.686	9535.68
653.879	9545.92
654.071	9410.76
654.263	9238.73
654.456	9457.86
654.648	9322.7
654.84	9212.1
655.033	9119.95
655.225	9373.89
655.417	9023.69
655.61	9056.46
655.802	9289.93
655.994	9162.95
656.186	8956.11
656.379	8990.92
656.571	8868.05
656.763	8614.1
656.955	8677.58
657.148	8679.63
657.34	8831.18
657.532	8585.43
657.724	8601.81
657.916	8569.04
658.108	8405.21
658.3	8317.14
658.492	8618.19
658.684	8317.14
658.876	8270.04
659.068	8429.78
659.26	8280.28
659.452	8151.26
659.644	8204.5
659.836	8157.4
660.028	8065.24
660.22	8022.23
660.412	8046.81
660.604	7878.88
660.796	7772.38
660.988	7999.71
661.18	7919.84
661.372	7897.31
661.563	7758.05
661.755	7694.56
661.947	7659.74
662.139	7792.86
662.331	7547.11
662.522	7420.13
662.714	7559.39
662.906	7418.08
663.097	7690.46
663.289	7381.22
663.481	7317.73
663.673	7459.04
663.864	7141.61
664.056	7280.87
664.247	7282.92
664.439	7061.74
664.631	7192.81
664.822	7162.09
665.014	7028.97
665.205	6910.19
665.397	7031.02
665.588	7133.42
665.78	6990.06
665.971	6707.44
666.163	6889.71
666.354	6910.19
666.546	7086.31
666.737	6768.88
666.929	6670.58
667.12	6721.77
667.311	6406.39
667.503	6605.04
667.694	6605.04
667.885	6584.56
668.077	6463.73
668.268	6553.84
668.459	6639.86
668.651	6494.45
668.842	6408.44
669.033	6373.62
669.224	6410.48
669.416	6414.58
669.607	6281.46
669.798	6224.12
669.989	6238.45
670.18	6342.9
670.371	6074.62
670.563	6213.88
670.754	6263.03
670.945	6004.99
671.136	6074.62
671.327	6250.74
671.518	5929.21
671.709	6025.47
671.9	6115.58
672.091	5896.44
672.282	5871.87
672.473	5865.72
672.664	5914.88
672.855	5753.09
673.046	5845.24
673.237	5853.44
673.428	5730.56
673.619	5759.23
673.809	5738.75
674	5744.89
674.191	5753.09
674.382	5648.64
674.573	5646.59
674.764	5773.57
674.954	5687.55
675.145	5603.58
675.336	5695.74
675.527	5515.52
675.717	5554.43
675.908	5630.21
676.099	5570.82
676.289	5443.84
676.48	5619.97
676.671	5624.06
676.861	5441.79
677.052	5456.13
677.243	5337.35
677.433	5263.62
677.624	5517.57
677.814	5355.78
678.005	5320.96
678.195	5357.83
678.386	5167.37
678.576	5198.09
678.767	5404.93
678.957	5255.43
679.148	5333.25
679.338	5234.95
679.529	5323.01
679.719	5075.21
679.909	5216.52
680.1	5202.18
680.29	5155.08
680.481	5085.45
680.671	5054.73
680.861	4987.15
681.052	5048.58
681.242	5103.88
681.432	5091.59
681.622	4954.38
681.813	4937.99
682.003	5013.77
682.193	4935.95
682.383	5036.3
682.573	5060.87
682.764	4935.95
682.954	4964.62
683.144	4899.08
683.334	4819.21
683.524	4751.63
683.714	4819.21
683.904	4829.45
684.094	4927.75
684.284	4882.7
684.474	4878.6
684.664	4819.21
684.854	4692.24
685.044	4722.96
685.234	4790.54
685.424	4694.29
685.614	4655.37
685.804	4770.06
685.994	4708.62
686.184	4598.03
686.374	4604.18
686.564	4675.85
686.753	4667.66
686.943	4698.38
687.133	4503.82
687.323	4632.85
687.513	4598.03
687.702	4591.89
687.892	4557.07
688.082	4587.79
688.272	4454.67
688.461	4339.99
688.651	4491.54
688.841	4456.72
689.03	4374.8
689.22	4475.15
689.41	4315.41
689.599	4292.88
689.789	4210.97
689.979	4301.08
690.168	4327.7
690.358	4235.54
690.547	4174.1
690.737	4088.09
690.926	4176.15
691.116	4081.94
691.305	4127
691.495	4116.76
691.684	3959.06
691.874	4180.25
692.063	3950.87
692.252	4067.61
692.442	4043.03
692.631	3977.5
692.82	4065.56
693.01	3928.35
693.199	4006.17
693.388	3850.52
693.578	4012.31
693.767	3936.54
693.956	3846.43
694.146	3891.48
694.335	3864.86
694.524	3928.35
694.713	3756.32
694.902	3842.33
695.092	3801.37
695.281	3860.76
695.47	3813.66
695.659	3701.02
695.848	3707.16
696.037	3698.97
696.226	3662.11
696.415	3772.7
696.604	3791.13
696.793	3639.58
696.982	3668.25
697.171	3711.26
697.36	3727.64
697.549	3758.36
697.738	3658.01
697.927	3686.69
698.116	3680.54
698.305	3670.3
698.494	3615.01
698.683	3733.79
698.872	3625.25
699.061	3615.01
699.25	3563.81
699.438	3578.14
699.627	3709.21
699.816	3580.19
700.005	3504.42
700.193	3637.53
700.382	3643.68
700.571	3483.94
700.76	3424.55
700.948	3637.53
701.137	3514.66
701.326	3608.86
701.514	3561.76
701.703	3586.33
701.892	3500.32
702.08	3551.52
702.269	3522.85
702.457	3537.18
702.646	3559.71
702.834	3528.99
703.023	3447.07
703.212	3541.28
703.4	3369.25
703.589	3473.7
703.777	3451.17
703.965	3399.97
704.154	3475.74
704.342	3488.03
704.531	3424.55
704.719	3346.72
704.907	3457.31
705.096	3402.02
705.284	3479.84
705.472	3369.25
705.661	3477.79
705.849	3551.52
706.037	3545.38
706.226	3528.99
706.414	3479.84
706.602	3455.26
706.79	3336.48
706.979	3395.87
707.167	3385.63
707.355	3260.71
707.543	3510.56
707.731	3354.91
707.919	3371.3
708.107	3264.8
708.296	3379.49
708.484	3326.24
708.672	3332.39
708.86	3338.53
709.048	3361.06
709.236	3422.5
709.424	3402.02
709.612	3434.78
709.8	3399.97
709.988	3281.19
710.176	3352.87
710.364	3324.19
710.551	3240.23
710.739	3176.74
710.927	3279.14
711.115	3334.43
711.303	3250.47
711.491	3291.43
711.679	3242.28
711.866	3369.25
712.054	3318.05
712.242	3354.91
712.43	3254.56
712.617	3264.8
712.805	3311.91
712.993	3072.29
713.181	3070.25
713.368	3125.54
713.556	3297.57
713.744	3244.32
713.931	3350.82
714.119	3283.24
714.306	3242.28
714.494	3395.87
714.682	3195.17
714.869	3201.32
715.057	3160.36
715.244	3246.37
715.432	3242.28
715.619	3311.91
715.807	3217.7
715.994	3098.92
716.182	3180.84
716.369	3227.94
716.556	3305.76
716.744	3201.32
716.931	3203.36
717.119	3273
717.306	3264.8
717.493	3195.17
717.681	3164.45
717.868	3209.51
718.055	3164.45
718.242	3055.91
718.43	3182.88
718.617	3111.21
718.804	3170.6
718.991	3096.87
719.179	3252.52
719.366	3273
719.553	3113.25
719.74	3203.36
719.927	3098.92
720.114	3268.9
720.301	3238.18
720.488	3248.42
720.676	2984.23
720.863	3033.38
721.05	3045.67
721.237	3035.43
721.424	3088.68
721.611	3178.79
721.798	3074.34
721.985	3092.77
722.172	3021.1
722.358	3115.3
722.545	3170.6
722.732	3060.01
722.919	3170.6
723.106	3123.49
723.293	3184.93
723.48	3250.47
723.667	3068.2
723.853	3098.92
724.04	3109.16
724.227	3017
724.414	3076.39
724.6	2955.56
724.787	3012.9
724.974	3053.86
725.161	3035.43
725.347	3123.49
725.534	3000.62
725.72	3103.01
725.907	3072.29
726.094	3049.77
726.28	2992.42
726.467	2875.69
726.653	3060.01
726.84	2971.94
727.027	3035.43
727.213	2912.55
727.4	3074.34
727.586	3060.01
727.773	3025.19
727.959	3017
728.145	3008.81
728.332	2834.73
728.518	2994.47
728.705	3080.49
728.891	2937.13
729.077	3049.77
729.264	2996.52
729.45	2998.57
729.636	2922.79
729.823	3027.24
730.009	2953.51
730.195	2937.13
730.382	3008.81
730.568	2844.97
730.754	3049.77
730.94	2935.08
731.126	2943.27
731.313	2959.66
731.499	2982.18
731.685	2939.18
731.871	2926.89
732.057	3051.81
732.243	2898.22
732.429	2943.27
732.615	2986.28
732.801	2922.79
732.987	3064.1
733.173	2847.02
733.359	2924.84
733.545	2773.29
733.731	2926.89
733.917	2949.42
734.103	3010.86
734.289	2771.24
734.475	2965.8
734.661	2996.52
734.847	2785.58
735.033	2861.35
735.219	2976.04
735.404	2875.69
735.59	2840.87
735.776	2988.33
735.962	2879.79
736.148	2842.92
736.333	2890.03
736.519	2871.59
736.705	2838.83
736.89	2855.21
737.076	2754.86
737.262	2752.81
737.447	2822.44
737.633	2754.86
737.819	2799.91
738.004	2818.35
738.19	2765.1
738.375	2705.71
738.561	2877.74
738.747	2810.15
738.932	2851.11
739.118	2787.63
739.303	2625.84
739.489	2679.08
739.674	2722.09
739.859	2566.45
740.045	2693.42
740.23	2773.29
740.416	2715.95
740.601	2851.11
740.786	2582.83
740.972	2603.31
741.157	2720.04
741.342	2578.73
741.528	2634.03
741.713	2713.9
741.898	2552.11
742.084	2599.21
742.269	2713.9
742.454	2572.59
742.639	2554.16
742.824	2572.59
743.01	2568.49
743.195	2738.48
743.38	2609.45
743.565	2548.01
743.75	2601.26
743.935	2496.82
744.12	2617.65
744.305	2519.34
744.49	2449.71
744.675	2390.32
744.86	2548.01
745.045	2582.83
745.23	2451.76
745.415	2482.48
745.6	2421.04
745.785	2562.35
745.97	2529.58
746.155	2386.22
746.34	2486.58
746.525	2306.35
746.71	2326.83
746.895	2349.36
747.079	2378.03
747.264	2470.19
747.449	2412.85
747.634	2292.02
747.819	2326.83
748.003	2244.92
748.188	2158.9
748.373	2224.44
748.557	2224.44
748.742	2216.24
748.927	2201.91
749.111	2253.11
749.296	2287.92
749.481	2220.34
749.665	2056.5
749.85	2031.93
750.034	2095.41
750.219	2111.8
750.404	2044.21
750.588	2089.27
750.773	2044.21
750.957	1972.54
751.141	2005.3
751.326	2011.45
751.51	1990.97
751.695	1939.77
751.879	2013.49
752.064	1968.44
752.248	1997.11
752.432	1931.58
752.617	1925.43
752.801	1911.1
752.985	1878.33
753.17	1941.82
753.354	1882.42
753.538	1863.99
753.722	1782.07
753.907	1929.53
754.091	1816.89
754.275	1794.36
754.459	1798.46
754.643	1706.3
754.828	1816.89
755.012	1853.75
755.196	1732.92
755.38	1749.31
755.564	1698.11
755.748	1706.3
755.932	1689.92
756.116	1675.58
756.3	1608
756.484	1669.44
756.668	1605.95
756.852	1524.03
757.036	1683.77
757.22	1581.37
757.404	1630.52
757.588	1683.77
757.772	1659.2
757.956	1558.85
758.14	1618.24
758.323	1534.27
758.507	1552.7
758.691	1485.12
758.875	1526.08
759.059	1560.89
759.242	1444.16
759.426	1614.14
759.61	1474.88
759.794	1460.54
759.977	1397.06
760.161	1489.21
760.345	1515.84
760.528	1489.21
760.712	1313.09
760.895	1286.47
761.079	1435.97
761.263	1399.1
761.446	1397.06
761.63	1386.82
761.813	1374.53
761.997	1321.28
762.18	1362.24
762.364	1415.49
762.547	1308.99
762.731	1308.99
762.914	1362.24
763.098	1325.38
763.281	1239.36
763.464	1284.42
763.648	1251.65
763.831	1241.41
764.015	1243.46
764.198	1311.04
764.381	1298.75
764.564	1317.19
764.748	1257.79
764.931	1272.13
765.114	1169.73
765.297	1247.55
765.481	1239.36
765.664	1214.79
765.847	1214.79
766.03	1194.31
766.213	1302.85
766.397	1128.77
766.58	1292.61
766.763	1198.4
766.946	1175.88
767.129	1145.16
767.312	1206.59
767.495	1124.68
767.678	1198.4
767.861	1106.24
768.044	1192.26
768.227	1155.4
768.41	1153.35
768.593	1100.1
768.776	1098.05
768.959	1143.11
769.142	1122.63
769.324	1104.2
769.507	1104.2
769.69	1081.67
769.873	1063.24
770.056	1143.11
770.239	1087.81
770.421	1159.49
770.604	1067.33
770.787	1073.48
770.97	1055.05
771.152	987.46
771.335	1016.13
771.518	1057.09
771.7	971.08
771.883	1089.86
772.066	1044.81
772.248	1007.94
772.431	983.37
772.613	1057.09
772.796	958.79
772.978	993.61
773.161	1028.42
773.343	1048.9
773.526	911.69
773.708	969.03
773.891	979.27
774.073	1036.61
774.256	975.17
774.438	962.89
774.621	883.02
774.803	940.36
774.985	817.48
775.168	905.54
775.35	895.3
775.532	915.78
775.715	858.44
775.897	878.92
776.079	919.88
776.261	850.25
776.444	854.34
776.626	833.86
776.808	880.97
776.99	852.3
777.173	784.71
777.355	803.15
777.537	831.82
777.719	780.62
777.901	809.29
778.083	790.86
778.265	721.23
778.447	807.24
778.629	725.32
778.811	862.54
778.993	790.86
779.175	801.1
779.357	758.09
779.539	719.18
779.721	764.23
779.903	682.31
780.085	782.67
780.267	700.75
780.449	782.67
780.631	758.09
780.812	768.33
780.994	749.9
781.176	672.08
781.358	727.37
781.54	749.9
781.721	698.7
781.903	676.17
782.085	657.74
782.267	676.17
782.448	704.84
782.63	584.01
782.812	678.22
782.993	723.27
783.175	655.69
783.357	551.24
783.538	586.06
783.72	641.36
783.901	577.87
784.083	647.5
784.264	629.07
784.446	485.71
784.627	545.1
784.809	598.35
784.99	547.15
785.172	551.24
785.353	567.63
785.535	579.92
785.716	473.42
785.897	518.48
786.079	538.96
786.26	516.43
786.441	522.57
786.623	493.9
786.804	549.2
786.985	500.05
787.167	487.76
787.348	502.09
787.529	512.33
787.71	600.4
787.891	508.24
788.073	459.09
788.254	498
788.435	516.43
788.616	420.17
788.797	467.28
788.978	491.85
789.159	463.18
789.34	469.33
789.522	479.57
789.703	424.27
789.884	528.72
790.065	514.38
790.246	448.85
790.427	454.99
790.607	532.81
790.788	385.36
790.969	364.88
791.15	463.18
791.331	489.81
791.512	379.22
791.693	491.85
791.874	444.75
792.054	434.51
792.235	444.75
792.416	340.3
792.597	403.79
792.778	358.74
792.958	430.41
793.139	356.69
793.32	340.3
793.5	436.56
793.681	381.26
793.862	399.7
794.042	424.27
794.223	334.16
794.404	399.7
794.584	348.5
794.765	389.46
794.945	360.78
795.126	428.37
795.306	405.84
795.487	328.02
795.667	276.82
795.848	362.83
796.028	350.54
796.209	342.35
796.389	362.83
796.57	338.26
796.75	364.88
796.93	360.78
797.111	383.31
797.291	395.6
797.471	276.82
797.652	334.16
797.832	315.73
798.012	239.95
798.192	336.21
798.373	348.5
798.553	340.3
798.733	336.21
798.913	328.02
799.093	299.34
799.274	303.44
799.454	342.35
799.634	319.82
799.814	276.82
799.994	346.45
800.174	330.06
800.354	291.15
800.534	280.91
800.714	315.73
800.894	256.34
801.074	299.34
801.254	278.87
801.434	217.43
801.614	258.39
801.794	285.01
801.974	665.93
802.154	231.76
802.334	182.61
802.514	272.72
802.693	219.47
802.873	325.97
803.053	301.39
803.233	250.19
803.413	233.81
803.592	276.82
803.772	289.1
803.952	274.77
804.131	201.04
804.311	252.24
804.491	276.82
804.67	235.86
804.85	225.62
805.03	217.43
805.209	244.05
805.389	180.56
805.568	254.29
805.748	239.95
805.928	205.14
806.107	237.91
806.287	336.21
806.466	250.19
806.646	215.38
806.825	172.37
807.004	227.67
807.184	264.53
807.363	262.48
807.543	201.04
807.722	182.61
807.901	235.86
808.081	221.52
808.26	137.56
808.439	162.13
808.619	223.57
808.798	252.24
808.977	164.18
809.156	227.67
809.336	246.1
809.515	201.04
809.694	227.67
809.873	141.65
810.052	205.14
810.231	309.58
810.411	194.9
810.59	285.01
810.769	106.84
810.948	225.62
811.127	145.75
811.306	158.03
811.485	168.27
811.664	260.43
811.843	137.56
812.022	219.47
812.201	145.75
812.38	112.98
812.559	180.56
812.737	119.12
812.916	196.95
813.095	180.56
813.274	246.1
813.453	135.51
813.632	160.08
813.811	180.56
813.989	145.75
814.168	160.08
814.347	174.42
814.526	160.08
814.704	198.99
814.883	119.12
815.062	139.6
815.24	207.19
815.419	117.08
815.598	211.28
815.776	153.94
815.955	254.29
816.133	67.92
816.312	231.76
816.49	151.89
816.669	235.86
816.847	131.41
817.026	125.27
817.204	110.93
817.383	194.9
817.561	201.04
817.74	282.96
817.918	117.08
818.097	78.16
818.275	131.41
818.453	162.13
818.632	121.17
818.81	160.08
818.988	170.32
819.167	61.78
819.345	92.5
819.523	160.08
819.701	137.56
819.879	147.8
820.058	139.6
820.236	196.95
820.414	90.45
820.592	102.74
820.77	192.85
820.948	137.56
821.127	147.8
821.305	145.75
821.483	147.8
821.661	180.56
821.839	110.93
822.017	184.66
822.195	119.12
822.373	106.84
822.551	100.69
822.729	86.36
822.907	106.84
823.085	135.51
823.262	153.94
823.44	143.7
823.618	110.93
823.796	162.13
823.974	133.46
824.152	174.42
824.329	80.21
824.507	84.31
824.685	149.84
824.863	94.55
825.04	86.36
825.218	43.35
825.396	112.98
825.574	139.6
825.751	117.08
825.929	110.93
826.107	117.08
826.284	129.36
826.462	24.92
826.639	100.69
826.817	102.74
826.994	18.77
827.172	65.88
827.349	133.46
827.527	162.13
827.704	112.98
827.882	162.13
828.059	180.56
828.237	88.4
828.414	119.12
828.591	88.4
828.769	86.36
828.946	166.23
829.124	170.32
829.301	108.88
829.478	86.36
829.655	24.92
829.833	125.27
830.01	31.06
830.187	115.03
830.364	43.35
830.542	51.54
830.719	194.9
830.896	110.93
831.073	72.02
831.25	117.08
831.427	55.64
831.604	90.45
831.782	-3.75
831.959	57.68
832.136	69.97
832.313	102.74
832.49	131.41
832.667	117.08
832.844	106.84
833.021	74.07
833.198	22.87
833.374	98.64
833.551	18.77
833.728	115.03
833.905	115.03
834.082	61.78
834.259	137.56
834.436	86.36
834.612	69.97
834.789	43.35
834.966	92.5
835.143	88.4
835.319	102.74
835.496	158.03
835.673	74.07
835.85	98.64
836.026	35.16
836.203	45.4
836.38	41.3
836.556	106.84
836.733	55.64
836.909	168.27
837.086	47.44
837.262	45.4
837.439	26.96
837.616	53.59
837.792	8.53
837.968	139.6
838.145	20.82
838.321	119.12
838.498	49.49
838.674	59.73
838.851	133.46
839.027	37.2
839.203	84.31
839.38	72.02
839.556	117.08
839.732	37.2
839.909	90.45
840.085	86.36
840.261	39.25
840.437	39.25
840.614	43.35
840.79	135.51
840.966	76.12
841.142	69.97
841.318	43.35
841.494	80.21
841.671	102.74
841.847	20.82
842.023	10.58
842.199	108.88
842.375	100.69
842.551	43.35
842.727	119.12
842.903	115.03
843.079	37.2
843.255	145.75
843.431	86.36
843.607	61.78
843.783	24.92
843.959	131.41
844.134	35.16
844.31	49.49
844.486	67.92
844.662	63.83
844.838	47.44
845.013	94.55
845.189	26.96
845.365	74.07
845.541	133.46
845.716	86.36
845.892	61.78
846.068	20.82
846.244	82.26
846.419	47.44
846.595	43.35
846.77	45.4
846.946	12.63
847.122	69.97
847.297	22.87
847.473	151.89
847.648	18.77
847.824	94.55
847.999	29.01
848.175	72.02
848.35	10.58
848.526	67.92
848.701	-11.95
848.876	72.02
849.052	41.3
849.227	6.49
849.403	2.39
849.578	51.54
849.753	72.02
849.929	98.64
850.104	29.01
850.279	-16.04
850.454	49.49
850.63	65.88
850.805	90.45
850.98	88.4
851.155	76.12
851.33	-34.47
851.505	20.82
851.681	-3.75
851.856	8.53
852.031	72.02
852.206	22.87
852.381	-3.75
852.556	43.35
852.731	43.35
852.906	26.96
853.081	153.94
853.256	-28.33
853.431	-18.09
853.606	12.63
853.781	37.2
853.956	-13.99
854.131	-52.91
854.305	57.68
854.48	-50.86
854.655	80.21
854.83	6.49
855.005	22.87
855.18	20.82
855.354	18.77
855.529	31.06
855.704	49.49
855.879	53.59
856.053	24.92
856.228	94.55
856.403	35.16
856.577	18.77
856.752	-26.28
856.926	-18.09
857.101	10.58
857.276	16.73
857.45	51.54
857.625	55.64
857.799	76.12
857.974	35.16
858.148	0.34
858.323	45.4
858.497	4.44
858.672	22.87
858.846	22.87
859.02	61.78
859.195	43.35
859.369	0.34
859.543	-7.85
859.718	53.59
859.892	2.39
860.066	65.88
860.241	67.92
860.415	14.68
860.589	-59.05
860.763	90.45
860.938	39.25
861.112	-40.62
861.286	12.63
861.46	0.34
861.634	22.87
861.808	98.64
861.982	-28.33
862.157	20.82
862.331	51.54
862.505	18.77
862.679	-3.75
862.853	31.06
863.027	-11.95
863.201	4.44
863.375	16.73
863.549	67.92
863.722	22.87
863.896	41.3
864.07	-18.09
864.244	-11.95
864.418	51.54
864.592	-30.38
864.766	55.64
864.939	39.25
865.113	24.92
865.287	74.07
865.461	63.83
865.634	10.58
865.808	-57
865.982	10.58
866.156	-102.06
866.329	-24.23
866.503	29.01
866.676	29.01
866.85	18.77
867.024	29.01
867.197	53.59
867.371	63.83
867.544	59.73
867.718	14.68
867.891	47.44
868.065	-30.38
868.238	8.53
868.412	33.11
868.585	123.22
868.759	94.55
868.932	16.73
869.105	49.49
869.279	-3.75
869.452	-26.28
869.625	35.16
869.799	-24.23
869.972	-30.38
870.145	24.92
870.319	4.44
870.492	-38.57
870.665	-3.75
870.838	-1.71
871.011	-1.71
871.185	35.16
871.358	-11.95
871.531	47.44
871.704	22.87
871.877	-65.19
872.05	-46.76
872.223	18.77
872.396	-9.9
872.569	14.68
872.742	-40.62
872.915	-38.57
873.088	-18.09
873.261	33.11
873.434	14.68
873.607	26.96
873.78	24.92
873.953	-26.28
874.126	53.59
874.299	55.64
874.471	-52.91
874.644	37.2
874.817	24.92
874.99	61.78
875.163	29.01
875.335	-26.28
875.508	-9.9
875.681	22.87
875.853	94.55
876.026	12.63
876.199	-16.04
876.371	31.06
876.544	-22.19
876.717	-38.57
876.889	16.73
877.062	69.97
877.234	-30.38
877.407	26.96
877.579	2.39
877.752	-44.71
877.924	65.88
878.097	37.2
878.269	-34.47
878.442	-9.9
878.614	29.01
878.786	-24.23
878.959	16.73
879.131	-26.28
879.303	-106.15
879.476	67.92
879.648	33.11
879.82	-3.75
879.993	-1.71
880.165	10.58
880.337	-63.15
880.509	-16.04
880.681	18.77
880.854	-7.85
881.026	106.84
881.198	57.68
881.37	26.96
881.542	0.34
881.714	65.88
881.886	26.96
882.058	-36.52
882.23	-11.95
882.402	43.35
882.574	6.49
882.746	-22.19
882.918	100.69
883.09	-22.19
883.262	-22.19
883.434	31.06
883.606	-52.91
883.778	-22.19
883.95	86.36
884.122	-18.09
884.293	39.25
884.465	33.11
884.637	61.78
884.809	26.96
884.98	20.82
885.152	82.26
885.324	76.12
885.496	-3.75
885.667	18.77
885.839	6.49
886.011	-18.09
886.182	2.39
886.354	108.88
886.525	61.78
886.697	14.68
886.869	20.82
887.04	-38.57
887.212	4.44
887.383	-3.75
887.555	-46.76
887.726	20.82
887.897	39.25
888.069	92.5
888.24	-9.9
888.412	10.58
888.583	-28.33
888.754	-3.75
888.926	-48.81
889.097	33.11
889.268	-52.91
889.44	4.44
889.611	-20.14
889.782	-73.39
889.953	14.68
890.125	59.73
890.296	-63.15
890.467	33.11
890.638	47.44
890.809	-50.86
890.98	-32.43
891.151	33.11
891.323	6.49
891.494	-11.95
891.665	-22.19
891.836	-28.33
892.007	0.34
892.178	-9.9
892.349	55.64
892.52	18.77
892.691	-16.04
892.862	-50.86
893.032	-26.28
893.203	-40.62
893.374	90.45
893.545	72.02
893.716	-28.33
893.887	2.39
894.057	-36.52
894.228	-22.19
894.399	41.3
894.57	47.44
894.74	-9.9
894.911	-42.67
895.082	18.77
895.253	14.68
895.423	8.53
895.594	-85.67
895.764	-36.52
895.935	22.87
896.106	-18.09
896.276	-61.1
896.447	35.16
896.617	45.4
896.788	-11.95
896.958	26.96
897.129	-42.67
897.299	-26.28
897.47	4.44
897.64	-7.85
897.81	-36.52
897.981	-16.04
898.151	-85.67
898.322	24.92
898.492	41.3
898.662	-34.47
898.832	-34.47
899.003	-38.57
899.173	-18.09
899.343	-44.71
899.513	-40.62
