Data from USB4F104151__78__12-27-52-191.txt Node

Date: Fri Mar 14 12:27:52 EDT 2025
User: louis
Spectrometer: USB4F10415
Trigger mode: 4
Integration Time (sec): 2.000000E-2
Scans to average: 1
Electric dark correction enabled: true
Nonlinearity correction enabled: false
Boxcar width: 0
XAxis mode: Wavelengths
Number of Pixels in Spectrum: 3648
>>>>>Begin Spectral Data<<<<<
178.204	-84.48
178.424	-84.48
178.644	-84.48
178.864	-133.63
179.084	-96.77
179.304	1.54
179.524	-72.19
179.744	-43.52
179.964	-2.56
180.184	50.69
180.404	7.68
180.624	46.59
180.844	15.87
181.064	9.73
181.283	54.78
181.503	-16.9
181.723	-51.71
181.943	-76.29
182.163	-16.9
182.383	34.3
182.602	11.78
182.822	118.27
183.042	9.73
183.262	-20.99
183.482	22.02
183.701	-33.28
183.921	5.63
184.141	-41.47
184.361	-33.28
184.58	24.06
184.8	-41.47
185.02	-8.7
185.239	83.45
185.459	-20.99
185.679	-4.61
185.898	-66.05
186.118	-31.23
186.338	42.5
186.557	-49.66
186.777	-18.94
186.997	1.54
187.216	-29.18
187.436	44.54
187.655	3.58
187.875	28.16
188.095	-45.57
188.314	1.54
188.534	69.12
188.753	62.98
188.973	-33.28
189.192	9.73
189.412	-16.9
189.631	26.11
189.851	46.59
190.07	-0.51
190.29	-16.9
190.509	17.92
190.729	38.4
190.948	-12.8
191.168	81.41
191.387	62.98
191.607	26.11
191.826	-4.61
192.045	-35.33
192.265	-20.99
192.484	24.06
192.704	54.78
192.923	-45.57
193.142	85.5
193.362	19.97
193.581	52.74
193.8	36.35
194.02	87.55
194.239	-12.8
194.458	32.26
194.678	9.73
194.897	42.5
195.116	11.78
195.335	3.58
195.555	42.5
195.774	54.78
195.993	79.36
196.212	-6.66
196.432	-25.09
196.651	15.87
196.87	56.83
197.089	24.06
197.308	28.16
197.528	-2.56
197.747	-49.66
197.966	22.02
198.185	58.88
198.404	15.87
198.623	-10.75
198.842	60.93
199.062	58.88
199.281	3.58
199.5	108.03
199.719	28.16
199.938	58.88
200.157	38.4
200.376	50.69
200.595	58.88
200.814	-4.61
201.033	3.58
201.252	69.12
201.471	36.35
201.69	-18.94
201.909	3.58
202.128	42.5
202.347	44.54
202.566	28.16
202.785	-29.18
203.004	-25.09
203.223	75.26
203.442	13.82
203.661	30.21
203.879	13.82
204.098	1.54
204.317	-31.23
204.536	42.5
204.755	7.68
204.974	50.69
205.193	52.74
205.411	69.12
205.63	48.64
205.849	60.93
206.068	-8.7
206.287	3.58
206.505	46.59
206.724	-27.14
206.943	-55.81
207.162	17.92
207.381	56.83
207.599	32.26
207.818	17.92
208.037	46.59
208.255	-31.23
208.474	-25.09
208.693	46.59
208.911	9.73
209.13	-20.99
209.349	58.88
209.567	-14.85
209.786	3.58
210.005	-37.38
210.223	19.97
210.442	-72.19
210.661	69.12
210.879	65.02
211.098	-0.51
211.316	-2.56
211.535	44.54
211.753	19.97
211.972	40.45
212.191	42.5
212.409	19.97
212.628	13.82
212.846	67.07
213.065	15.87
213.283	89.6
213.502	-0.51
213.72	-27.14
213.938	30.21
214.157	-23.04
214.375	28.16
214.594	-20.99
214.812	28.16
215.031	42.5
215.249	-4.61
215.467	-14.85
215.686	54.78
215.904	40.45
216.122	-4.61
216.341	7.68
216.559	-4.61
216.778	-0.51
216.996	-45.57
217.214	9.73
217.432	-31.23
217.651	-59.9
217.869	44.54
218.087	-12.8
218.306	32.26
218.524	1.54
218.742	13.82
218.96	26.11
219.179	32.26
219.397	-39.42
219.615	22.02
219.833	1.54
220.051	-43.52
220.27	69.12
220.488	73.21
220.706	73.21
220.924	30.21
221.142	56.83
221.36	69.12
221.578	71.17
221.796	28.16
222.015	7.68
222.233	-8.7
222.451	62.98
222.669	-23.04
222.887	93.69
223.105	-4.61
223.323	11.78
223.541	-18.94
223.759	77.31
223.977	5.63
224.195	26.11
224.413	69.12
224.631	44.54
224.849	-12.8
225.067	69.12
225.285	-18.94
225.503	34.3
225.721	34.3
225.939	32.26
226.157	-55.81
226.375	44.54
226.592	-8.7
226.81	69.12
227.028	-0.51
227.246	38.4
227.464	-10.75
227.682	-6.66
227.9	32.26
228.117	-82.43
228.335	15.87
228.553	11.78
228.771	-2.56
228.989	62.98
229.206	-20.99
229.424	3.58
229.642	-8.7
229.86	3.58
230.077	11.78
230.295	32.26
230.513	56.83
230.731	58.88
230.948	44.54
231.166	-2.56
231.384	36.35
231.601	11.78
231.819	1.54
232.037	-18.94
232.254	-68.09
232.472	13.82
232.689	5.63
232.907	30.21
233.125	17.92
233.342	44.54
233.56	1.54
233.777	24.06
233.995	-25.09
234.213	13.82
234.43	-4.61
234.648	-10.75
234.865	17.92
235.083	5.63
235.3	22.02
235.518	77.31
235.735	58.88
235.953	48.64
236.17	22.02
236.388	56.83
236.605	-10.75
236.822	50.69
237.04	-23.04
237.257	-53.76
237.475	52.74
237.692	42.5
237.909	65.02
238.127	-29.18
238.344	28.16
238.562	28.16
238.779	-8.7
238.996	-6.66
239.214	-10.75
239.431	24.06
239.648	30.21
239.865	32.26
240.083	71.17
240.3	-10.75
240.517	34.3
240.735	60.93
240.952	-16.9
241.169	30.21
241.386	36.35
241.603	48.64
241.821	-12.8
242.038	52.74
242.255	11.78
242.472	91.65
242.689	5.63
242.907	13.82
243.124	-8.7
243.341	38.4
243.558	38.4
243.775	19.97
243.992	1.54
244.209	60.93
244.426	13.82
244.643	15.87
244.86	-16.9
245.078	15.87
245.295	3.58
245.512	73.21
245.729	19.97
245.946	60.93
246.163	7.68
246.38	56.83
246.597	46.59
246.814	75.26
247.031	-31.23
247.248	17.92
247.464	67.07
247.681	-6.66
247.898	-6.66
248.115	91.65
248.332	71.17
248.549	-8.7
248.766	54.78
248.983	-29.18
249.2	48.64
249.417	60.93
249.633	40.45
249.85	-14.85
250.067	26.11
250.284	75.26
250.501	101.89
250.717	-6.66
250.934	-23.04
251.151	13.82
251.368	-41.47
251.585	50.69
251.801	-31.23
252.018	38.4
252.235	19.97
252.451	44.54
252.668	19.97
252.885	73.21
253.102	-8.7
253.318	34.3
253.535	7.68
253.752	5.63
253.968	-51.71
254.185	-27.14
254.401	-8.7
254.618	65.02
254.835	13.82
255.051	56.83
255.268	5.63
255.484	73.21
255.701	32.26
255.917	-31.23
256.134	-72.19
256.351	40.45
256.567	-2.56
256.784	13.82
257	-57.86
257.217	-16.9
257.433	50.69
257.65	11.78
257.866	7.68
258.082	17.92
258.299	13.82
258.515	85.5
258.732	-57.86
258.948	38.4
259.165	54.78
259.381	50.69
259.597	44.54
259.814	7.68
260.03	99.84
260.246	40.45
260.463	-0.51
260.679	-0.51
260.895	-8.7
261.112	-66.05
261.328	-0.51
261.544	13.82
261.761	58.88
261.977	75.26
262.193	-41.47
262.409	19.97
262.626	22.02
262.842	17.92
263.058	26.11
263.274	110.08
263.49	-8.7
263.707	-18.94
263.923	-27.14
264.139	48.64
264.355	103.93
264.571	9.73
264.787	32.26
265.004	46.59
265.22	46.59
265.436	42.5
265.652	-2.56
265.868	97.79
266.084	-4.61
266.3	7.68
266.516	1.54
266.732	42.5
266.948	22.02
267.164	-20.99
267.38	24.06
267.596	54.78
267.812	50.69
268.028	34.3
268.244	-74.24
268.46	65.02
268.676	-14.85
268.892	26.11
269.108	5.63
269.324	1.54
269.54	-25.09
269.756	26.11
269.972	9.73
270.188	65.02
270.403	1.54
270.619	11.78
270.835	-33.28
271.051	9.73
271.267	-2.56
271.483	42.5
271.698	101.89
271.914	71.17
272.13	26.11
272.346	34.3
272.562	77.31
272.777	69.12
272.993	44.54
273.209	-18.94
273.425	19.97
273.64	15.87
273.856	-2.56
274.072	44.54
274.287	38.4
274.503	38.4
274.719	36.35
274.934	77.31
275.15	22.02
275.366	97.79
275.581	-59.9
275.797	-8.7
276.012	40.45
276.228	91.65
276.444	9.73
276.659	83.45
276.875	19.97
277.09	-55.81
277.306	91.65
277.521	5.63
277.737	73.21
277.952	-39.42
278.168	13.82
278.383	-39.42
278.599	19.97
278.814	-12.8
279.03	36.35
279.245	79.36
279.461	-6.66
279.676	79.36
279.892	9.73
280.107	-14.85
280.322	79.36
280.538	58.88
280.753	-43.52
280.969	-6.66
281.184	13.82
281.399	46.59
281.615	-2.56
281.83	-16.9
282.045	-4.61
282.26	7.68
282.476	36.35
282.691	26.11
282.906	32.26
283.122	62.98
283.337	7.68
283.552	-6.66
283.767	34.3
283.983	15.87
284.198	-14.85
284.413	13.82
284.628	15.87
284.843	36.35
285.058	-51.71
285.274	85.5
285.489	1.54
285.704	148.99
285.919	-35.33
286.134	48.64
286.349	36.35
286.564	34.3
286.779	65.02
286.995	40.45
287.21	17.92
287.425	58.88
287.64	17.92
287.855	73.21
288.07	38.4
288.285	58.88
288.5	73.21
288.715	15.87
288.93	5.63
289.145	-20.99
289.36	42.5
289.575	54.78
289.79	-14.85
290.004	30.21
290.219	5.63
290.434	34.3
290.649	67.07
290.864	13.82
291.079	40.45
291.294	32.26
291.509	67.07
291.724	11.78
291.938	17.92
292.153	-25.09
292.368	5.63
292.583	77.31
292.798	34.3
293.012	13.82
293.227	13.82
293.442	50.69
293.657	7.68
293.871	99.84
294.086	24.06
294.301	48.64
294.516	130.56
294.73	93.69
294.945	-14.85
295.16	-12.8
295.374	1.54
295.589	19.97
295.804	-39.42
296.018	48.64
296.233	52.74
296.447	-4.61
296.662	60.93
296.877	32.26
297.091	42.5
297.306	1.54
297.52	17.92
297.735	-2.56
297.949	93.69
298.164	40.45
298.378	13.82
298.593	15.87
298.807	-31.23
299.022	54.78
299.236	89.6
299.451	24.06
299.665	24.06
299.88	65.02
300.094	-8.7
300.309	28.16
300.523	52.74
300.737	46.59
300.952	46.59
301.166	-0.51
301.381	-80.38
301.595	36.35
301.809	-41.47
302.024	67.07
302.238	-25.09
302.452	34.3
302.667	-16.9
302.881	60.93
303.095	50.69
303.309	26.11
303.524	7.68
303.738	73.21
303.952	13.82
304.166	15.87
304.381	3.58
304.595	116.22
304.809	-2.56
305.023	-37.38
305.237	-27.14
305.452	22.02
305.666	-10.75
305.88	3.58
306.094	-20.99
306.308	-4.61
306.522	13.82
306.736	11.78
306.95	73.21
307.164	36.35
307.379	54.78
307.593	81.41
307.807	54.78
308.021	46.59
308.235	34.3
308.449	-47.62
308.663	24.06
308.877	89.6
309.091	-0.51
309.305	89.6
309.519	-20.99
309.733	32.26
309.947	32.26
310.161	75.26
310.374	-35.33
310.588	40.45
310.802	-35.33
311.016	15.87
311.23	3.58
311.444	15.87
311.658	-47.62
311.872	58.88
312.085	-2.56
312.299	24.06
312.513	1.54
312.727	46.59
312.941	1.54
313.154	42.5
313.368	22.02
313.582	71.17
313.796	-16.9
314.009	-20.99
314.223	-14.85
314.437	26.11
314.651	1.54
314.864	11.78
315.078	5.63
315.292	26.11
315.505	75.26
315.719	48.64
315.933	11.78
316.146	-2.56
316.36	69.12
316.573	56.83
316.787	-14.85
317.001	28.16
317.214	-61.95
317.428	9.73
317.641	-4.61
317.855	46.59
318.068	7.68
318.282	42.5
318.495	124.41
318.709	75.26
318.922	56.83
319.136	34.3
319.349	36.35
319.563	26.11
319.776	85.5
319.99	-8.7
320.203	19.97
320.417	50.69
320.63	58.88
320.843	83.45
321.057	71.17
321.27	22.02
321.483	22.02
321.697	-2.56
321.91	75.26
322.124	15.87
322.337	11.78
322.55	56.83
322.763	-35.33
322.977	9.73
323.19	7.68
323.403	50.69
323.617	-45.57
323.83	9.73
324.043	52.74
324.256	52.74
324.469	-27.14
324.683	30.21
324.896	11.78
325.109	28.16
325.322	24.06
325.535	65.02
325.748	30.21
325.962	73.21
326.175	40.45
326.388	11.78
326.601	13.82
326.814	-18.94
327.027	-0.51
327.24	138.75
327.453	-14.85
327.666	62.98
327.879	-20.99
328.092	60.93
328.305	44.54
328.518	11.78
328.731	24.06
328.944	19.97
329.157	-25.09
329.37	30.21
329.583	77.31
329.796	60.93
330.009	-23.04
330.222	50.69
330.435	97.79
330.648	-25.09
330.861	-2.56
331.073	26.11
331.286	32.26
331.499	11.78
331.712	-43.52
331.925	3.58
332.138	-6.66
332.35	-0.51
332.563	34.3
332.776	38.4
332.989	-53.76
333.202	28.16
333.414	67.07
333.627	128.51
333.84	85.5
334.053	-6.66
334.265	42.5
334.478	-39.42
334.691	3.58
334.903	30.21
335.116	7.68
335.329	-0.51
335.541	65.02
335.754	58.88
335.966	1.54
336.179	42.5
336.392	15.87
336.604	-20.99
336.817	28.16
337.029	38.4
337.242	22.02
337.454	13.82
337.667	26.11
337.88	75.26
338.092	15.87
338.305	79.36
338.517	-18.94
338.729	50.69
338.942	-29.18
339.154	65.02
339.367	38.4
339.579	-31.23
339.792	-41.47
340.004	7.68
340.217	-4.61
340.429	5.63
340.641	-23.04
340.854	-35.33
341.066	34.3
341.278	15.87
341.491	50.69
341.703	93.69
341.915	26.11
342.128	-6.66
342.34	44.54
342.552	40.45
342.764	-51.71
342.977	36.35
343.189	73.21
343.401	19.97
343.613	-4.61
343.826	36.35
344.038	28.16
344.25	-12.8
344.462	-14.85
344.674	-18.94
344.886	58.88
345.099	69.12
345.311	44.54
345.523	73.21
345.735	60.93
345.947	19.97
346.159	40.45
346.371	26.11
346.583	15.87
346.795	62.98
347.007	56.83
347.219	15.87
347.431	-64
347.643	19.97
347.855	58.88
348.067	46.59
348.279	26.11
348.491	114.17
348.703	5.63
348.915	-37.38
349.127	-43.52
349.339	112.13
349.551	-14.85
349.763	38.4
349.975	3.58
350.187	11.78
350.399	28.16
350.61	30.21
350.822	15.87
351.034	30.21
351.246	22.02
351.458	40.45
351.669	62.98
351.881	5.63
352.093	44.54
352.305	77.31
352.517	-0.51
352.728	36.35
352.94	-27.14
353.152	34.3
353.363	-6.66
353.575	-6.66
353.787	17.92
353.999	3.58
354.21	-8.7
354.422	132.61
354.633	22.02
354.845	54.78
355.057	-66.05
355.268	79.36
355.48	62.98
355.692	32.26
355.903	42.5
356.115	65.02
356.326	-0.51
356.538	81.41
356.749	22.02
356.961	-31.23
357.172	40.45
357.384	69.12
357.595	-16.9
357.807	-23.04
358.018	79.36
358.23	73.21
358.441	110.08
358.653	30.21
358.864	54.78
359.075	52.74
359.287	-14.85
359.498	71.17
359.709	77.31
359.921	40.45
360.132	65.02
360.344	-4.61
360.555	52.74
360.766	38.4
360.977	-41.47
361.189	69.12
361.4	-16.9
361.611	28.16
361.823	36.35
362.034	77.31
362.245	-55.81
362.456	46.59
362.667	44.54
362.879	67.07
363.09	71.17
363.301	56.83
363.512	-23.04
363.723	65.02
363.935	40.45
364.146	65.02
364.357	44.54
364.568	1.54
364.779	-14.85
364.99	126.46
365.201	-31.23
365.412	36.35
365.623	30.21
365.834	1.54
366.045	22.02
366.256	75.26
366.467	32.26
366.678	52.74
366.889	-18.94
367.1	36.35
367.311	13.82
367.522	85.5
367.733	97.79
367.944	65.02
368.155	40.45
368.366	97.79
368.577	56.83
368.788	40.45
368.999	15.87
369.209	77.31
369.42	89.6
369.631	30.21
369.842	62.98
370.053	116.22
370.264	93.69
370.474	-27.14
370.685	54.78
370.896	5.63
371.107	83.45
371.317	36.35
371.528	-2.56
371.739	58.88
371.95	118.27
372.16	54.78
372.371	-37.38
372.582	-6.66
372.792	19.97
373.003	52.74
373.214	24.06
373.424	36.35
373.635	67.07
373.846	36.35
374.056	75.26
374.267	3.58
374.477	99.84
374.688	77.31
374.898	5.63
375.109	101.89
375.319	-8.7
375.53	54.78
375.74	101.89
375.951	32.26
376.161	71.17
376.372	36.35
376.582	54.78
376.793	67.07
377.003	11.78
377.214	5.63
377.424	22.02
377.635	1.54
377.845	112.13
378.055	110.08
378.266	93.69
378.476	30.21
378.686	38.4
378.897	26.11
379.107	112.13
379.317	65.02
379.528	101.89
379.738	103.93
379.948	-45.57
380.158	-14.85
380.369	24.06
380.579	26.11
380.789	-6.66
380.999	44.54
381.21	108.03
381.42	148.99
381.63	-64
381.84	69.12
382.05	114.17
382.261	13.82
382.471	62.98
382.681	75.26
382.891	134.65
383.101	22.02
383.311	50.69
383.521	26.11
383.731	38.4
383.941	65.02
384.151	24.06
384.361	69.12
384.571	40.45
384.781	44.54
384.991	103.93
385.201	56.83
385.411	3.58
385.621	95.74
385.831	58.88
386.041	122.37
386.251	75.26
386.461	62.98
386.671	73.21
386.881	58.88
387.091	-4.61
387.301	161.28
387.511	65.02
387.72	48.64
387.93	54.78
388.14	-25.09
388.35	-0.51
388.56	128.51
388.769	46.59
388.979	60.93
389.189	73.21
389.399	36.35
389.609	67.07
389.818	124.41
390.028	87.55
390.238	75.26
390.447	34.3
390.657	30.21
390.867	38.4
391.076	34.3
391.286	19.97
391.496	50.69
391.705	26.11
391.915	91.65
392.125	38.4
392.334	83.45
392.544	105.98
392.753	26.11
392.963	-31.23
393.172	108.03
393.382	93.69
393.591	19.97
393.801	71.17
394.01	60.93
394.22	142.85
394.429	93.69
394.639	38.4
394.848	101.89
395.058	69.12
395.267	69.12
395.477	142.85
395.686	44.54
395.895	110.08
396.105	81.41
396.314	91.65
396.524	85.5
396.733	91.65
396.942	87.55
397.152	185.85
397.361	69.12
397.57	124.41
397.78	50.69
397.989	85.5
398.198	105.98
398.407	58.88
398.617	91.65
398.826	126.46
399.035	24.06
399.244	71.17
399.453	95.74
399.663	136.7
399.872	103.93
400.081	122.37
400.29	69.12
400.499	128.51
400.708	126.46
400.917	69.12
401.127	148.99
401.336	142.85
401.545	97.79
401.754	58.88
401.963	134.65
402.172	157.18
402.381	83.45
402.59	114.17
402.799	169.47
403.008	192
403.217	3.58
403.426	124.41
403.635	103.93
403.844	132.61
404.053	126.46
404.262	89.6
404.471	202.24
404.68	157.18
404.888	128.51
405.097	110.08
405.306	142.85
405.515	130.56
405.724	134.65
405.933	230.91
406.142	167.42
406.35	128.51
406.559	183.81
406.768	163.33
406.977	183.81
407.185	198.14
407.394	163.33
407.603	161.28
407.812	155.13
408.02	204.28
408.229	192
408.438	237.05
408.646	155.13
408.855	237.05
409.064	261.63
409.272	222.72
409.481	284.16
409.69	230.91
409.898	304.64
410.107	321.02
410.315	218.62
410.524	310.78
410.733	361.98
410.941	390.65
411.15	376.31
411.358	343.55
411.567	388.6
411.775	396.79
411.984	331.26
412.192	357.88
412.401	507.38
412.609	447.99
412.818	511.48
413.026	437.75
413.234	544.25
413.443	570.87
413.651	548.34
413.86	529.91
414.068	591.35
414.276	646.65
414.485	552.44
414.693	691.7
414.901	640.5
415.11	675.32
415.318	769.52
415.526	703.99
415.734	740.85
415.943	724.47
416.151	779.76
416.359	738.8
416.567	828.92
416.776	878.07
416.984	941.55
417.192	996.85
417.4	943.6
417.608	986.61
417.817	1017.33
418.025	1066.48
418.233	1164.78
418.441	1175.02
418.649	1111.54
418.857	1248.75
419.065	1273.32
419.273	1258.99
419.481	1388.01
419.689	1447.4
419.897	1428.97
420.105	1519.08
420.313	1562.09
420.521	1598.95
420.729	1555.94
420.937	1746.41
421.145	1801.7
421.353	1783.27
421.561	1981.92
421.769	1973.73
421.977	2020.83
422.185	2061.79
422.393	2215.39
422.601	2317.79
422.809	2358.75
423.017	2262.49
423.224	2311.64
423.432	2518.49
423.64	2528.73
423.848	2686.42
424.056	2647.51
424.263	2880.98
424.471	2817.49
424.679	2913.75
424.887	3083.73
425.094	3175.89
425.302	3157.46
425.51	3325.39
425.718	3558.86
425.925	3433.93
426.133	3636.68
426.341	3739.08
426.548	3935.68
426.756	4029.89
426.964	4038.08
427.171	4263.36
427.379	4502.97
427.586	4513.21
427.794	4558.27
428.001	4787.64
428.209	4980.15
428.417	4875.7
428.624	5211.57
428.832	5340.59
429.039	5367.21
429.247	5340.59
429.454	5862.82
429.662	6016.42
429.869	5721.51
430.076	6088.1
430.284	6030.76
430.491	6405.53
430.699	6579.61
430.906	6632.86
431.114	6671.77
431.321	6964.63
431.528	7208.34
431.736	7691.66
431.943	7726.47
432.15	7611.79
432.358	7660.94
432.565	8217.99
432.772	8383.87
432.979	8500.61
433.187	8629.63
433.394	8746.36
433.601	9536.88
433.808	9543.02
434.016	9297.27
434.223	9852.27
434.43	10274.15
434.637	10022.25
434.844	10702.17
435.052	10904.92
435.259	10995.03
435.466	11226.45
435.673	10890.59
435.88	11558.22
436.087	12246.34
436.294	12064.07
436.501	12043.59
436.708	12246.34
436.915	12717.37
437.122	13231.41
437.329	13147.45
437.537	13638.96
437.743	13755.69
437.95	13747.5
438.157	14429.48
438.364	15123.74
438.571	15052.06
438.778	15152.41
438.985	16176.39
439.192	15865.1
439.399	16436.49
439.606	15803.66
439.813	16719.1
440.02	17960.17
440.227	17505.52
440.433	17429.75
440.64	18103.53
440.847	17806.58
441.054	18423.01
441.261	19510.49
441.467	19281.11
441.674	19582.17
441.881	20450.5
442.088	20270.28
442.294	20280.52
442.501	20800.71
442.708	20890.82
442.914	22086.83
443.121	23143.58
443.328	22367.4
443.534	23850.13
443.741	22924.45
443.948	22772.9
444.154	24642.7
444.361	24622.22
444.568	24618.12
444.774	24806.53
444.981	24976.51
445.187	25711.74
445.394	26807.4
445.6	26700.9
445.807	29195.33
446.013	27630.68
446.22	28152.91
446.426	29019.21
446.633	29502.53
446.839	30520.37
447.046	29369.41
447.252	30848.04
447.459	31235.11
447.665	30979.11
447.871	32392.21
448.078	33932.28
448.284	32205.84
448.491	33166.34
448.697	34552.82
448.903	34806.76
449.11	35474.4
449.316	34690.03
449.522	35310.57
449.728	36250.58
449.935	36426.71
450.141	36295.64
450.347	37004.24
450.553	36070.36
450.76	36582.35
450.966	38091.71
451.172	36885.45
451.378	38239.16
451.584	37184.46
451.791	38245.3
451.997	38259.64
452.203	38785.97
452.409	38632.37
452.615	38654.9
452.821	37321.67
453.027	36815.82
453.233	39052.2
453.44	37606.34
453.646	37739.46
453.852	38065.08
454.058	39113.64
454.264	37155.79
454.47	38359.99
454.676	37118.92
454.882	38790.06
455.088	35329
455.294	36193.24
455.5	36328.41
455.705	36678.61
455.911	35077.1
456.117	34690.03
456.323	34071.54
456.529	32463.89
456.735	34149.37
456.941	33197.06
457.147	32502.8
457.352	31509.54
457.558	31181.86
457.764	31587.36
457.97	30553.13
458.176	29764.67
458.381	30006.33
458.587	28681.29
458.793	28539.98
458.999	26856.55
459.204	28816.46
459.41	28173.39
459.616	26483.82
459.821	26203.25
460.027	26346.61
460.233	25670.78
460.438	24511.63
460.644	24749.19
460.85	23868.56
461.055	23276.7
461.261	23332
461.466	21404.86
461.672	20833.47
461.878	22490.28
462.083	20843.71
462.289	20335.82
462.494	20315.34
462.7	19256.54
462.905	18660.58
463.111	19502.29
463.316	19434.71
463.522	19186.91
463.727	19338.46
463.932	19074.27
464.138	18799.84
464.343	19023.07
464.549	18662.63
464.754	18941.15
464.959	18724.07
465.165	19049.69
465.37	18029.8
465.575	17583.35
465.781	18386.15
465.986	18259.18
466.191	17593.59
466.397	17433.85
466.602	16446.73
466.807	17323.26
467.012	17018.11
467.218	17001.72
467.423	16835.84
467.628	17022.2
467.833	17810.67
468.038	16841.98
468.244	16545.03
468.449	17306.87
468.654	16497.92
468.859	16557.32
469.064	16461.06
469.269	15842.57
469.474	15936.78
469.679	16391.43
469.885	15910.16
470.09	16022.8
470.295	15674.64
470.5	15416.6
470.705	15799.57
470.91	15402.26
471.115	15136.03
471.32	15332.63
471.525	15213.85
471.73	14873.89
471.935	14810.4
472.139	14302.5
472.344	14636.32
472.549	14417.19
472.754	14368.04
472.959	13991.21
473.164	13616.43
473.369	13497.65
473.574	13897
473.778	13655.34
473.983	13899.05
474.188	13733.17
474.393	12936.51
474.598	13030.71
474.802	12922.17
475.007	12905.79
475.212	13196.6
475.417	12617.02
475.621	12453.19
475.826	12678.46
476.031	12363.08
476.235	11986.25
476.44	12293.44
476.645	12088.65
476.849	12078.41
477.054	11873.61
477.259	11650.38
477.463	11760.97
477.668	11310.42
477.872	11713.87
478.077	11304.28
478.282	11171.16
478.486	11214.16
478.691	10863.96
478.895	10997.08
479.1	10847.58
479.304	10734.94
479.509	10511.71
479.713	10673.5
479.918	10534.24
480.122	10421.6
480.326	10620.25
480.531	10384.74
480.735	10356.07
480.94	10327.39
481.144	10513.76
481.348	10061.16
481.553	10130.79
481.757	10026.34
481.961	10225
482.166	10225
482.37	10253.67
482.574	10061.16
482.778	9979.24
482.983	10212.71
483.187	10065.25
483.391	10311.01
483.595	9893.23
483.8	9911.66
484.004	10126.69
484.208	10116.45
484.412	10118.5
484.616	10001.77
484.821	10204.52
485.025	9999.72
485.229	10222.95
485.433	9907.56
485.637	10073.45
485.841	9833.83
486.045	9907.56
486.249	10048.87
486.453	10024.3
486.657	9987.43
486.861	10057.06
487.065	9762.16
487.269	10106.21
487.473	9796.97
487.677	9866.6
487.881	10272.1
488.085	10057.06
488.289	9966.95
488.493	9807.21
488.697	10239.33
488.901	10114.41
489.105	10276.2
489.309	10065.25
489.512	10046.82
489.716	10208.61
489.92	10380.64
490.124	10104.17
490.328	10354.02
490.531	10091.88
490.735	10294.63
490.939	10333.54
491.143	10265.96
491.346	10317.15
491.55	10446.18
491.754	10536.29
491.958	10630.49
492.161	10521.95
492.365	10642.78
492.569	10628.45
492.772	10818.91
492.976	10880.35
493.18	10655.07
493.383	10915.16
493.587	11058.52
493.79	10921.31
493.994	11050.33
494.197	11048.28
494.401	11232.6
494.605	11179.35
494.808	11429.2
495.012	11418.96
495.215	11400.53
495.419	11572.56
495.622	11380.05
495.825	11613.52
496.029	11613.52
496.232	11992.39
496.436	12021.06
496.639	12057.93
496.843	11996.49
497.046	12211.53
497.249	12369.22
497.453	12465.47
497.656	12684.61
497.859	12719.42
498.063	12909.88
498.266	13034.81
498.469	12916.03
498.673	13079.86
498.876	13399.35
499.079	13378.87
499.282	13272.37
499.485	13931.82
499.689	13968.68
499.892	14026.03
500.095	14093.61
500.298	14497.06
500.501	14431.52
500.705	14802.21
500.908	14660.9
501.111	15095.07
501.314	15095.07
501.517	15332.63
501.72	15346.97
501.923	15219.99
502.126	16018.7
502.329	15947.02
502.532	15901.97
502.735	16250.12
502.938	16862.46
503.141	16932.09
503.344	17179.9
503.547	17167.61
503.75	17319.16
503.953	17384.69
504.156	17411.32
504.359	17618.16
504.562	17837.3
504.765	18318.57
504.968	18320.62
505.17	18494.69
505.373	18605.28
505.576	18932.96
505.779	19043.55
505.982	19066.08
506.185	19778.77
506.387	19651.8
506.59	19860.69
506.793	20268.23
506.996	20079.82
507.198	20563.14
507.401	20677.83
507.604	20896.96
507.807	21390.52
508.009	21312.7
508.212	21501.11
508.415	22000.82
508.617	21888.18
508.82	22133.93
509.022	21873.84
509.225	22553.77
509.428	22746.28
509.63	22975.65
509.833	23250.08
510.035	23458.97
510.238	23483.55
510.44	24028.31
510.643	24294.54
510.845	24446.09
511.048	24263.82
511.25	24601.74
511.453	24831.11
511.655	25662.58
511.858	25502.84
512.06	25455.74
512.262	26033.27
512.465	26027.12
512.667	26295.41
512.87	26692.71
513.072	26788.97
513.274	27247.71
513.477	27409.5
513.679	27671.64
513.881	28013.65
514.084	28294.22
514.286	27991.12
514.488	28441.68
514.69	29492.29
514.893	29105.22
515.095	29140.04
515.297	29774.91
515.499	29453.37
515.701	29953.08
515.904	30655.53
516.106	30518.32
516.308	30872.62
516.51	31542.3
516.712	31542.3
516.914	31786.01
517.116	32150.55
517.318	32128.02
517.52	32752.65
517.722	32371.73
517.925	32619.53
518.127	33174.53
518.329	33698.81
518.531	33364.99
518.733	33895.42
518.935	33852.41
519.136	34040.82
519.338	34636.78
519.54	34806.76
519.742	35197.93
519.944	35259.37
520.146	35783.65
520.348	35750.88
520.55	36117.46
520.752	36213.72
520.954	37020.62
521.155	36946.89
521.357	37067.72
521.559	37561.28
521.761	37700.54
521.963	37958.59
522.164	37761.98
522.366	38142.91
522.568	38411.19
522.77	38783.92
522.971	39138.22
523.173	38947.76
523.375	39543.72
523.576	39527.33
523.778	39816.1
523.98	40135.58
524.181	40391.58
524.383	39918.49
524.584	40954.77
524.786	41081.74
524.988	40506.26
525.189	41083.79
525.391	41147.28
525.592	41257.87
525.794	41464.71
525.995	41933.7
526.197	41477
526.398	41939.84
526.6	42279.8
526.801	42363.77
527.003	42533.75
527.204	42550.13
527.406	42904.43
527.607	43160.43
527.808	42886
528.01	42640.25
528.211	43185.01
528.412	44145.5
528.614	43985.76
528.815	43496.3
529.016	44110.69
529.218	43395.95
529.419	43897.7
529.62	43805.54
529.822	44090.21
530.023	43959.14
530.224	44059.49
530.425	43885.41
530.626	43993.95
530.828	43701.09
531.029	44600.15
531.23	44082.02
531.431	44206.94
531.632	44712.79
531.833	44905.3
532.035	45054.8
532.236	45216.59
532.437	44602.2
532.638	44864.34
532.839	44929.87
533.04	45015.89
533.241	44381.02
533.442	45261.65
533.643	44938.07
533.844	45343.56
534.045	45220.69
534.246	44884.82
534.447	45851.46
534.648	45169.49
534.849	45159.25
535.05	44704.6
535.251	45521.74
535.451	45042.51
535.652	45687.62
535.853	45247.31
536.054	45560.65
536.255	45380.43
536.456	45413.2
536.657	45583.18
536.857	45058.9
537.058	44987.22
537.259	45464.39
537.46	45394.76
537.66	45478.73
537.861	45265.74
538.062	45052.75
538.263	45421.39
538.463	44692.31
538.664	44770.13
538.865	45708.1
539.065	45564.74
539.266	45206.35
539.466	45675.34
539.667	44807
539.868	45763.4
540.068	45294.41
540.269	45159.25
540.469	45355.85
540.67	45267.79
540.87	44940.11
541.071	45054.8
541.271	44989.27
541.472	45259.6
541.672	45273.93
541.873	45443.91
542.073	44536.66
542.274	45409.1
542.474	45235.02
542.675	45153.1
542.875	45871.94
543.075	45431.63
543.276	44899.15
543.476	45908.8
543.676	45409.1
543.877	45425.48
544.077	45044.56
544.277	45321.04
544.478	45079.38
544.678	45310.8
544.878	44534.62
545.078	45220.69
545.279	44817.24
545.479	45114.19
545.679	45294.41
545.879	45368.14
546.079	45441.87
546.28	45275.98
546.48	44893.01
546.68	45157.2
546.88	45282.13
547.08	45372.24
547.28	44845.91
547.48	44626.78
547.68	45069.14
547.88	45009.75
548.081	44966.74
548.281	45077.33
548.481	44972.88
548.681	44792.66
548.881	45192.01
549.081	45058.9
549.28	44970.83
549.48	45298.51
549.68	45007.7
549.88	45632.33
550.08	44933.97
550.28	45269.84
550.48	44772.18
550.68	45132.62
550.88	44772.18
551.08	45181.77
551.279	45273.93
551.479	44727.13
551.679	45167.44
551.879	44909.39
552.079	45056.85
552.278	44931.92
552.478	44747.61
552.678	44604.25
552.878	45177.68
553.077	44817.24
553.277	44471.13
553.477	45079.38
553.676	44569.43
553.876	45067.09
554.076	44936.02
554.275	44757.85
554.475	44307.29
554.674	44872.53
554.874	44847.96
555.074	44700.5
555.273	44454.75
555.473	44819.28
555.672	44581.72
555.872	44536.66
556.071	44888.92
556.271	45095.76
556.47	44655.45
556.67	44460.89
556.869	44434.27
557.068	44708.69
557.268	43959.14
557.467	44843.86
557.667	44696.41
557.866	44770.13
558.065	44450.65
558.265	43930.47
558.464	44116.83
558.663	44944.21
558.863	43426.67
559.062	44770.13
559.261	43625.32
559.461	44497.75
559.66	43547.5
559.859	43823.97
560.058	43608.93
560.258	43914.08
560.457	43338.6
560.656	44290.91
560.855	43828.07
561.054	43694.95
561.253	43357.03
561.453	43703.14
561.652	43946.85
561.851	43912.03
562.05	43309.93
562.249	43176.81
562.448	43742.05
562.647	43598.69
562.846	43182.96
563.045	43340.65
563.244	42765.17
563.443	43797.35
563.642	42621.81
563.841	43268.97
564.04	42802.03
564.239	43088.75
564.438	42623.86
564.637	43004.78
564.836	42990.45
565.035	42675.06
565.234	42926.96
565.432	42341.24
565.631	42886
565.83	42771.32
566.029	42085.25
566.228	42244.99
566.427	42210.17
566.625	42034.05
566.824	41638.79
567.023	42337.15
567.222	41317.26
567.42	42187.64
567.619	41847.68
567.818	41988.99
568.016	41638.79
568.215	42165.12
568.414	41722.76
568.612	41919.36
568.811	41350.03
569.01	41610.12
569.208	41069.45
569.407	41452.42
569.605	41036.69
569.804	41769.86
570.002	41210.76
570.201	41491.33
570.4	40973.2
570.598	41032.59
570.797	40469.4
570.995	41329.55
571.193	40493.97
571.392	41108.36
571.59	40629.14
571.789	40614.8
571.987	40315.8
572.186	40682.39
572.384	40414.1
572.582	40651.67
572.781	40410.01
572.979	40000.41
573.177	40127.39
573.376	40295.32
573.574	40145.82
573.772	40258.46
573.971	39746.47
574.169	39850.91
574.367	39205.8
574.565	39721.89
574.763	39564.2
574.962	39383.98
575.16	39252.91
575.358	39902.11
575.556	39132.07
575.754	39310.25
575.952	39089.07
576.151	39322.54
576.349	39201.71
576.547	38714.29
576.745	39011.24
576.943	38951.85
577.141	38499.25
577.339	38990.77
577.537	38585.27
577.735	38364.09
577.933	37774.27
578.131	38454.2
578.329	38077.37
578.527	37751.74
578.725	37796.8
578.923	38343.61
579.121	37700.54
579.319	37764.03
579.516	37966.78
579.714	37495.75
579.912	37495.75
580.11	37307.33
580.308	37481.41
580.506	37520.32
580.704	36744.14
580.901	37198.79
581.099	37698.5
581.297	36930.51
581.495	36658.13
581.692	37221.32
581.89	36416.47
582.088	36989.9
582.285	36807.63
582.483	36871.12
582.681	36662.22
582.878	36686.8
583.076	36277.21
583.274	36617.17
583.471	36174.81
583.669	36484.05
583.866	35955.68
584.064	36160.47
584.262	35505.12
584.459	36131.8
584.657	35621.86
584.854	36056.03
585.052	35181.54
585.249	35681.25
585.447	35582.95
585.644	35341.28
585.841	35261.41
586.039	35273.7
586.236	34755.57
586.434	35116.01
586.631	34712.56
586.828	34839.53
587.026	34687.98
587.223	34878.44
587.42	34814.96
587.618	34530.29
587.815	34479.09
588.012	34513.91
588.21	34462.71
588.407	34896.88
588.604	34165.75
588.801	33934.33
588.999	34020.34
589.196	33639.42
589.393	33965.05
589.59	33682.43
589.787	34073.59
589.984	33551.36
590.182	33121.29
590.379	33956.86
590.576	32984.07
590.773	33537.02
590.97	33182.73
591.167	33037.32
591.364	33098.76
591.561	33213.45
591.758	32640.01
591.955	32359.44
592.152	32863.24
592.349	32578.57
592.546	32904.2
592.743	32267.28
592.94	32087.06
593.137	32467.98
593.334	32289.81
593.531	31769.63
593.727	32590.86
593.924	32128.02
594.121	31783.96
594.318	31933.46
594.515	31511.58
594.712	32072.73
594.908	31470.62
595.105	31706.14
595.302	31306.79
595.499	31175.72
595.696	31024.17
595.892	30981.16
596.089	31274.02
596.286	31208.48
596.482	30780.46
596.679	30856.23
596.876	30919.72
597.072	30784.55
597.269	30647.34
597.466	30667.82
597.662	30413.87
597.859	30487.6
598.055	30594.09
598.252	30153.78
598.448	30114.87
598.645	30043.19
598.841	29897.78
599.038	30372.91
599.234	30028.85
599.431	29330.5
599.627	29727.8
599.824	29666.36
600.02	29709.37
600.217	29848.63
600.413	29191.23
600.609	29637.69
600.806	29076.55
601.002	29129.8
601.198	29072.45
601.395	28834.89
601.591	28906.57
601.787	29076.55
601.984	28589.13
602.18	28947.53
602.376	28675.15
602.572	28501.07
602.769	28564.56
602.965	28234.83
603.161	28011.6
603.357	28054.61
603.553	27919.45
603.75	28017.75
603.946	27827.29
604.142	28081.24
604.338	27806.81
604.534	27841.62
604.73	27743.32
604.926	27567.2
605.122	27563.1
605.318	27303.01
605.514	27137.12
605.71	27382.88
605.906	26938.47
606.102	27350.11
606.298	27333.73
606.494	26920.04
606.69	27243.62
606.886	27085.92
607.082	26786.92
607.278	27026.53
607.474	26700.9
607.67	27044.96
607.866	26811.49
608.062	26508.4
608.257	26766.44
608.453	26473.58
608.649	26653.8
608.845	26256.5
609.041	26661.99
609.236	26535.02
609.432	26561.64
609.628	26184.82
609.824	26145.91
610.019	26477.68
610.215	26137.71
610.411	26156.14
610.606	25957.49
610.802	26109.04
610.998	25902.2
611.193	26197.1
611.389	25955.44
611.584	25511.03
611.78	25668.73
611.976	25699.45
612.171	25496.7
612.367	25486.46
612.562	25576.57
612.758	25465.98
612.953	25287.81
613.149	25697.4
613.344	25265.28
613.539	25631.86
613.735	25357.44
613.93	25420.92
614.126	25085.06
614.321	25408.64
614.517	25244.8
614.712	25246.85
614.907	25042.05
615.103	25287.81
615.298	25052.29
615.493	25046.15
615.688	24730.76
615.884	25320.57
616.079	24695.94
616.274	25015.43
616.47	24784.01
616.665	25054.34
616.86	24497.29
617.055	24532.11
617.25	24386.7
617.445	24958.08
617.641	24214.67
617.836	24507.53
618.031	24032.4
618.226	24413.32
618.421	24106.13
618.616	24362.12
618.811	23856.28
619.006	24212.62
619.201	23684.25
619.396	24132.75
619.591	23747.73
619.786	23993.49
619.981	23454.87
620.176	23925.91
620.371	23391.39
620.566	23399.58
620.761	23356.57
620.956	23456.92
621.151	22824.1
621.346	23456.92
621.541	22523.05
621.735	22824.1
621.93	22545.58
622.125	22611.11
622.32	22242.48
622.515	22611.11
622.709	22133.93
622.904	22484.14
623.099	22305.96
623.294	22189.23
623.488	21767.35
623.683	21873.84
623.878	21636.28
624.072	21673.14
624.267	21550.26
624.462	21472.44
624.656	21245.12
624.851	21195.96
625.046	21204.16
625.24	21017.79
625.435	20745.41
625.629	20901.06
625.824	20829.38
626.018	20858.05
626.213	19879.12
626.407	20686.02
626.602	20153.55
626.796	20346.06
626.991	19881.17
627.185	19838.16
627.38	20077.77
627.574	19629.27
627.768	19582.17
627.963	19621.08
628.157	19324.12
628.352	19268.83
628.546	19086.56
628.74	19283.16
628.935	19164.38
629.129	18900.19
629.323	18883.81
629.517	18787.55
629.712	18752.74
629.906	18752.74
630.1	18173.16
630.294	18676.96
630.489	18230.51
630.683	18380.01
630.877	18103.53
631.071	18242.79
631.265	18035.95
631.459	17919.21
631.653	17683.7
631.848	17704.18
632.042	17601.78
632.236	17501.43
632.43	17364.22
632.624	17464.57
632.818	17134.84
633.012	17128.7
633.206	16805.12
633.4	17081.6
633.594	16663.81
633.788	16858.37
633.982	16655.62
634.176	16592.13
634.369	16590.08
634.563	16770.3
634.757	16426.25
634.951	16512.26
635.145	16196.87
635.339	16336.13
635.533	16106.76
635.726	16166.15
635.92	15774.99
636.114	15893.77
636.308	16100.62
636.501	15750.42
636.695	15648.02
636.889	15437.08
637.083	15539.47
637.276	15306.01
637.47	15205.66
637.664	15488.28
637.857	15269.14
638.051	15123.74
638.244	14859.55
638.438	14890.27
638.632	14853.41
638.825	14933.28
639.019	14722.34
639.212	14738.72
639.406	14681.38
639.599	14708
639.793	14566.69
639.986	14208.3
640.18	14415.14
640.373	14343.46
640.567	14296.36
640.76	14066.99
640.954	13903.15
641.147	14136.62
641.34	13937.96
641.534	14062.89
641.727	13835.56
641.92	13692.21
642.114	13804.85
642.307	13700.4
642.5	13442.35
642.694	13284.66
642.887	13241.65
643.08	13448.5
643.273	13239.61
643.467	13155.64
643.66	13067.58
643.853	12815.68
644.046	13051.19
644.239	12739.9
644.432	12899.64
644.626	12545.34
644.819	12752.19
645.012	12559.68
645.205	12821.82
645.398	12537.15
645.591	12383.56
645.784	12617.02
645.977	12352.84
646.17	12412.23
646.363	12158.28
646.556	11973.96
646.749	12205.38
646.942	12123.46
647.135	11996.49
647.328	11777.36
647.521	11820.36
647.714	11763.02
647.907	11873.61
648.099	11435.35
648.292	11595.09
648.485	11910.47
648.678	11674.96
648.871	11613.52
649.064	11363.67
649.256	11443.54
649.449	11228.5
649.642	11402.58
649.835	11175.25
650.027	11160.92
650.22	11160.92
650.413	11005.27
650.605	11056.47
650.798	10995.03
650.991	10851.67
651.183	10884.44
651.376	10714.46
651.568	10745.18
651.761	10612.06
651.954	10661.21
652.146	10485.09
652.339	10630.49
652.531	10507.62
652.724	10415.46
652.916	10491.23
653.109	10397.03
653.301	10225
653.494	10179.94
653.686	10147.17
653.879	10075.49
654.071	10007.91
654.263	9960.81
654.456	9893.23
654.648	10052.97
654.84	9807.21
655.033	9839.98
655.225	9850.22
655.417	9796.97
655.61	9729.39
655.802	9825.64
655.994	9512.3
656.186	9741.68
656.379	9313.65
656.571	9360.75
656.763	9182.58
656.955	9407.86
657.148	9364.85
657.34	9270.64
657.532	9291.12
657.724	9164.15
657.916	9112.95
658.108	9100.66
658.3	8924.54
658.492	8992.12
658.684	8916.34
658.876	8824.19
659.068	8967.54
659.26	8758.65
659.452	8977.78
659.644	8752.51
659.836	8605.05
660.028	8734.07
660.22	8545.66
660.412	8535.42
660.604	8476.03
660.796	8510.85
660.988	8439.17
661.18	8260.99
661.372	8236.42
661.563	8185.22
661.755	8111.49
661.947	8244.61
662.139	8168.84
662.331	8220.03
662.522	8066.44
662.714	8134.02
662.906	8074.63
663.097	7921.03
663.289	8076.68
663.481	7873.93
663.673	8058.25
663.864	7796.11
664.056	7820.68
664.247	7961.99
664.439	7560.59
664.631	7669.13
664.822	7677.32
665.014	7673.23
665.205	7421.33
665.397	7523.73
665.588	7450
665.78	7521.68
665.971	7411.09
666.163	7329.17
666.354	7445.9
666.546	7175.57
666.737	7327.12
666.929	7271.83
667.12	7146.9
667.311	7308.69
667.503	7087.51
667.694	6935.96
667.885	7120.28
668.077	6958.49
668.268	6931.86
668.459	6946.2
668.651	7046.55
668.842	6966.68
669.033	6911.38
669.224	6854.04
669.416	6854.04
669.607	6806.94
669.798	6817.18
669.989	6755.74
670.18	6749.59
670.371	6686.11
670.563	6659.48
670.754	6714.78
670.945	6649.24
671.136	6567.32
671.327	6526.36
671.518	6452.64
671.709	6542.75
671.9	6579.61
672.091	6522.27
672.282	6604.19
672.473	6335.9
672.664	6378.91
672.855	6237.6
673.046	6327.71
673.237	6514.08
673.428	6352.29
673.619	6225.31
673.809	6311.33
674	6253.98
674.191	6217.12
674.382	6170.02
674.573	6098.34
674.764	6116.77
674.954	6290.85
675.145	5975.46
675.336	5977.51
675.527	5889.45
675.717	6196.64
675.908	6055.33
676.099	6002.08
676.289	6026.66
676.48	5934.5
676.671	6075.81
676.861	5739.94
677.052	5957.03
677.243	5731.75
677.433	6077.86
677.624	5754.28
677.814	5717.42
678.005	5807.53
678.195	5604.78
678.386	5719.46
678.576	5719.46
678.767	5655.98
678.957	5678.51
679.148	5815.72
679.338	5711.27
679.529	5715.37
679.719	5580.2
679.909	5510.57
680.1	5563.82
680.29	5690.79
680.481	5602.73
680.671	5520.81
680.861	5529
681.052	5492.14
681.242	5526.96
681.432	5561.77
681.622	5328.3
681.813	5457.32
682.003	5293.49
682.193	5647.79
682.383	5432.75
682.573	5395.89
682.764	5442.99
682.954	5402.03
683.144	5461.42
683.334	5373.36
683.524	5270.96
683.714	5348.78
683.904	5295.54
684.094	5293.49
684.284	5397.93
684.474	5201.33
684.664	5313.97
684.854	5105.07
685.044	5256.62
685.234	5064.11
685.424	5203.38
685.614	5014.96
685.804	5107.12
685.994	5064.11
686.184	5019.06
686.374	4947.38
686.564	4941.24
686.753	5066.16
686.943	4920.76
687.133	4949.43
687.323	4961.72
687.513	5027.25
687.702	4855.22
687.892	4799.93
688.082	4939.19
688.272	4795.83
688.461	4801.97
688.651	4748.73
688.841	4838.84
689.03	4660.66
689.22	4754.87
689.41	4490.68
689.599	4586.94
689.789	4648.38
689.979	4636.09
690.168	4654.52
690.358	4478.4
690.547	4582.84
690.737	4593.08
690.926	4445.63
691.116	4400.57
691.305	4416.96
691.495	4378.05
691.684	4494.78
691.874	4363.71
692.063	4449.72
692.252	4384.19
692.442	4527.55
692.631	4289.98
692.82	4156.86
693.01	4220.35
693.199	4220.35
693.388	4294.08
693.578	4214.21
693.767	4218.3
693.956	4203.97
694.146	4068.8
694.335	4001.22
694.524	4081.09
694.713	4193.73
694.902	4091.33
695.092	4109.76
695.281	4021.7
695.47	4085.19
695.659	3958.21
695.848	4079.04
696.037	4070.85
696.226	4021.7
696.415	3950.02
696.604	3974.6
696.793	3878.34
696.982	3853.77
697.171	3974.6
697.36	3962.31
697.549	3886.53
697.738	3935.68
697.927	3816.9
698.116	3988.93
698.305	3950.02
698.494	3777.99
698.683	3657.16
698.872	3853.77
699.061	3847.62
699.25	3894.72
699.438	3839.43
699.627	3829.19
699.816	3993.03
700.005	3806.66
700.193	3739.08
700.382	3767.75
700.571	3749.32
700.76	3698.12
700.948	3837.38
701.137	3595.72
701.326	3663.3
701.514	3720.65
701.703	3618.25
701.892	3730.89
702.08	3704.26
702.269	3595.72
702.457	3538.38
702.646	3651.02
702.834	3761.61
703.023	3614.15
703.212	3669.45
703.4	3657.16
703.589	3567.05
703.777	3673.54
703.965	3597.77
704.154	3585.48
704.342	3478.99
704.531	3614.15
704.719	3573.19
704.907	3538.38
705.096	3581.39
705.284	3565
705.472	3524.04
705.661	3577.29
705.849	3618.25
706.037	3565
706.226	3485.13
706.414	3616.2
706.602	3399.12
706.79	3673.54
706.979	3554.76
707.167	3526.09
707.355	3417.55
707.543	3509.71
707.731	3567.05
707.919	3544.52
708.107	3470.8
708.296	3507.66
708.484	3417.55
708.672	3491.27
708.86	3444.17
709.048	3460.56
709.236	3589.58
709.424	3382.73
709.612	3407.31
709.8	3401.16
709.988	3462.6
710.176	3433.93
710.364	3526.09
710.551	3552.71
710.739	3337.68
710.927	3505.61
711.115	3532.23
711.303	3423.69
711.491	3483.08
711.679	3481.03
711.866	3374.54
712.054	3481.03
712.242	3313.1
712.43	3395.02
712.617	3503.56
712.805	3266
712.993	3433.93
713.181	3476.94
713.368	3362.25
713.556	3354.06
713.744	3315.15
713.931	3409.36
714.119	3327.44
714.306	3323.34
714.494	3419.6
714.682	3440.08
714.869	3335.63
715.057	3376.59
715.244	3419.6
715.432	3403.21
715.619	3323.34
715.807	3356.11
715.994	3450.32
716.182	3179.98
716.369	3452.36
716.556	3306.96
716.744	3378.64
716.931	3399.12
717.119	3454.41
717.306	3352.01
717.493	3354.06
717.681	3235.28
717.868	3268.05
718.055	3274.19
718.242	3378.64
718.43	3388.88
718.617	3311.05
718.804	3366.35
718.991	3360.2
719.179	3280.33
719.366	3259.85
719.553	3356.11
719.74	3352.01
719.927	3364.3
720.114	3304.91
720.301	3349.96
720.488	3216.85
720.676	3278.29
720.863	3337.68
721.05	3286.48
721.237	3259.85
721.424	3198.42
721.611	3171.79
721.798	3184.08
721.985	3243.47
722.172	3096.02
722.358	3298.77
722.545	3313.1
722.732	3376.59
722.919	3253.71
723.106	3315.15
723.293	3368.4
723.48	3190.22
723.667	3204.56
723.853	3233.23
724.04	3231.18
724.227	3249.61
724.414	3194.32
724.6	3214.8
724.787	3188.18
724.974	3110.35
725.161	3249.61
725.347	3214.8
725.534	3194.32
725.72	3315.15
725.907	3280.33
726.094	3270.09
726.28	3159.5
726.467	3085.78
726.653	3100.11
726.84	3249.61
727.027	3136.98
727.213	3208.66
727.4	3294.67
727.586	3175.89
727.773	3266
727.959	3145.17
728.145	3196.37
728.332	3192.27
728.518	3108.3
728.705	3165.65
728.891	3145.17
729.077	3073.49
729.264	3179.98
729.45	3032.53
729.636	3182.03
729.823	3065.3
730.009	3120.59
730.195	3130.83
730.382	3216.85
730.568	3112.4
730.754	3159.5
730.94	3173.84
731.126	3118.54
731.313	3163.6
731.499	3063.25
731.685	3053.01
731.871	3114.45
732.057	3186.13
732.243	3093.97
732.429	3149.26
732.615	3177.94
732.801	3159.5
732.987	3083.73
733.173	2999.76
733.359	3233.23
733.545	3085.78
733.731	3065.3
733.917	3075.54
734.103	3225.04
734.289	3046.87
734.475	3055.06
734.661	3096.02
734.847	3053.01
735.033	3106.26
735.219	3007.95
735.404	3157.46
735.59	2893.27
735.776	3007.95
735.962	2989.52
736.148	3073.49
736.333	3149.26
736.519	3044.82
736.705	3016.15
736.89	3106.26
737.076	3026.39
737.262	2944.47
737.447	3024.34
737.633	3026.39
737.819	2962.9
738.004	2919.89
738.19	2997.71
738.375	3034.58
738.561	2942.42
738.747	2915.8
738.932	2969.04
739.118	2911.7
739.303	3036.63
739.489	3022.29
739.674	2969.04
739.859	2880.98
740.045	2985.43
740.23	2842.07
740.416	2751.96
740.601	2792.92
740.786	2862.55
740.972	2825.68
741.157	2856.4
741.342	2819.54
741.528	2794.97
741.713	2915.8
741.898	2801.11
742.084	2700.76
742.269	2899.41
742.454	2805.21
742.639	2805.21
742.824	2768.34
743.01	2797.01
743.195	2835.92
743.38	2831.83
743.565	2840.02
743.75	2880.98
743.935	2612.7
744.12	2768.34
744.305	2598.36
744.49	2704.85
744.675	2762.2
744.86	2686.42
745.045	2592.22
745.23	2680.28
745.415	2584.02
745.6	2672.09
745.785	2526.68
745.97	2538.97
746.155	2633.18
746.34	2598.36
746.525	2624.98
746.71	2485.72
746.895	2563.54
747.079	2694.61
747.264	2436.57
747.449	2475.48
747.634	2403.8
747.819	2561.5
748.003	2379.23
748.188	2416.09
748.373	2438.62
748.557	2368.99
748.742	2354.65
748.927	2227.68
749.111	2301.4
749.296	2158.05
749.481	2258.4
749.665	2274.78
749.85	2213.34
750.034	2211.29
750.219	2254.3
750.404	2301.4
750.588	2115.04
750.773	2172.38
750.957	2237.92
751.141	2178.53
751.326	2164.19
751.51	2096.61
751.695	2129.38
751.879	2008.55
752.064	2069.98
752.248	2121.18
752.432	2131.42
752.617	2151.9
752.801	2137.57
752.985	2078.18
753.17	2067.94
753.354	1940.96
753.538	2043.36
753.722	1994.21
753.907	1904.1
754.091	1916.39
754.275	1887.72
754.459	1920.48
754.643	1889.76
754.828	1904.1
755.012	1881.57
755.196	1762.79
755.38	1938.91
755.564	1803.75
755.748	1832.42
755.932	1830.37
756.116	1904.1
756.3	1803.75
756.484	1662.44
756.668	1861.09
756.852	1715.69
757.036	1727.97
757.22	1785.32
757.404	1701.35
757.588	1668.58
757.772	1676.77
757.956	1744.36
758.14	1691.11
758.323	1648.1
758.507	1715.69
758.691	1703.4
758.875	1635.82
759.059	1613.29
759.242	1641.96
759.426	1588.71
759.61	1574.38
759.794	1605.1
759.977	1560.04
760.161	1570.28
760.345	1535.46
760.528	1490.41
760.712	1521.13
760.895	1459.69
761.079	1502.7
761.263	1560.04
761.446	1465.83
761.63	1451.5
761.813	1433.07
761.997	1476.07
762.18	1504.75
762.364	1529.32
762.547	1447.4
762.731	1365.48
762.914	1406.44
763.098	1400.3
763.281	1404.39
763.464	1379.82
763.648	1402.35
763.831	1406.44
764.015	1369.58
764.198	1414.63
764.381	1402.35
764.564	1418.73
764.748	1420.78
764.931	1371.63
765.114	1277.42
765.297	1461.74
765.481	1342.96
765.664	1308.14
765.847	1265.13
766.03	1275.37
766.213	1273.32
766.397	1324.52
766.58	1316.33
766.763	1275.37
766.946	1281.52
767.129	1263.08
767.312	1244.65
767.495	1203.69
767.678	1232.37
767.861	1265.13
768.044	1199.6
768.227	1193.45
768.41	1248.75
768.593	1222.13
768.776	1256.94
768.959	1144.3
769.142	1269.23
769.324	1189.36
769.507	1148.4
769.69	1267.18
769.873	1166.83
770.056	1113.58
770.239	1068.53
770.421	1201.65
770.604	1132.01
770.787	1111.54
770.97	1117.68
771.152	1091.06
771.335	1164.78
771.518	1111.54
771.7	1103.34
771.883	1099.25
772.066	1097.2
772.248	1125.87
772.431	1119.73
772.613	1005.04
772.796	1062.38
772.978	1179.12
773.161	1084.91
773.343	1052.14
773.526	1091.06
773.708	988.66
773.891	964.08
774.073	1015.28
774.256	1029.62
774.438	1121.77
774.621	990.7
774.803	1019.38
774.985	1013.23
775.168	1062.38
775.35	876.02
775.532	996.85
775.715	966.13
775.897	904.69
776.079	904.69
776.261	1021.42
776.444	968.18
776.626	861.68
776.808	1043.95
776.99	871.92
777.173	906.74
777.355	916.98
777.537	861.68
777.719	925.17
777.901	843.25
778.083	839.16
778.265	833.01
778.447	810.48
778.629	933.36
778.811	863.73
778.993	794.1
779.175	869.87
779.357	859.63
779.539	880.11
779.721	777.72
779.903	787.96
780.085	855.54
780.267	826.87
780.449	759.28
780.631	808.44
780.812	828.92
780.994	673.27
781.176	753.14
781.358	706.04
781.54	681.46
781.721	681.46
781.903	734.71
782.085	804.34
782.267	658.93
782.448	667.13
782.63	699.89
782.812	660.98
782.993	722.42
783.175	636.41
783.357	701.94
783.538	710.13
783.72	628.21
783.901	601.59
784.083	708.09
784.264	716.28
784.446	667.13
784.627	632.31
784.809	652.79
784.99	724.47
785.172	648.69
785.353	620.02
785.535	599.54
785.716	646.65
785.897	583.16
786.079	613.88
786.26	542.2
786.441	587.26
786.623	503.29
786.804	568.82
786.985	617.97
787.167	589.3
787.348	560.63
787.529	595.45
787.71	638.45
787.891	570.87
788.073	558.58
788.254	394.75
788.435	577.02
788.616	495.1
788.797	447.99
788.978	505.34
789.159	501.24
789.34	529.91
789.522	523.77
789.703	441.85
789.884	581.11
790.065	464.38
790.246	441.85
790.427	474.62
790.607	429.56
790.788	417.27
790.969	542.2
791.15	468.47
791.331	392.7
791.512	462.33
791.693	429.56
791.874	454.14
792.054	515.58
792.235	429.56
792.416	411.13
792.597	396.79
792.778	419.32
792.958	472.57
793.139	417.27
793.32	464.38
793.5	368.12
793.681	390.65
793.862	398.84
794.042	372.22
794.223	486.9
794.404	468.47
794.584	404.99
794.765	357.88
794.945	357.88
795.126	466.42
795.306	415.23
795.487	398.84
795.667	452.09
795.848	409.08
796.028	359.93
796.209	333.31
796.389	411.13
796.57	345.59
796.75	417.27
796.93	306.68
797.111	380.41
797.291	351.74
797.471	339.45
797.652	372.22
797.832	386.55
798.012	404.99
798.192	306.68
798.373	339.45
798.553	290.3
798.733	364.03
798.913	341.5
799.093	296.44
799.274	343.55
799.454	321.02
799.634	353.79
799.814	347.64
799.994	298.49
800.174	364.03
800.354	312.83
800.534	249.34
800.714	345.59
800.894	312.83
801.074	261.63
801.254	345.59
801.434	310.78
801.614	310.78
801.794	331.26
801.974	658.93
802.154	298.49
802.334	325.12
802.514	241.15
802.693	265.72
802.873	278.01
803.053	300.54
803.233	302.59
803.413	282.11
803.592	245.24
803.772	312.83
803.952	302.59
804.131	294.4
804.311	257.53
804.491	241.15
804.67	253.44
804.85	224.76
805.03	312.83
805.209	351.74
805.389	245.24
805.568	331.26
805.748	237.05
805.928	255.48
806.107	194.05
806.287	263.68
806.466	280.06
806.646	265.72
806.825	278.01
807.004	239.1
807.184	282.11
807.363	214.52
807.543	230.91
807.722	257.53
807.901	243.2
808.081	261.63
808.26	177.66
808.439	232.96
808.619	194.05
808.798	159.23
808.977	228.86
809.156	243.2
809.336	253.44
809.515	243.2
809.694	204.28
809.873	251.39
810.052	280.06
810.231	253.44
810.411	189.95
810.59	280.06
810.769	208.38
810.948	212.48
811.127	255.48
811.306	212.48
811.485	169.47
811.664	275.96
811.843	163.33
812.022	183.81
812.201	232.96
812.38	226.81
812.559	153.09
812.737	151.04
812.916	163.33
813.095	173.57
813.274	280.06
813.453	204.28
813.632	245.24
813.811	255.48
813.989	132.61
814.168	202.24
814.347	126.46
814.526	161.28
814.704	224.76
814.883	159.23
815.062	237.05
815.24	187.9
815.419	194.05
815.598	175.61
815.776	198.14
815.955	177.66
816.133	169.47
816.312	192
816.49	183.81
816.669	181.76
816.847	204.28
817.026	155.13
817.204	153.09
817.383	265.72
817.561	212.48
817.74	134.65
817.918	153.09
818.097	226.81
818.275	179.71
818.453	159.23
818.632	183.81
818.81	167.42
818.988	200.19
819.167	206.33
819.345	159.23
819.523	189.95
819.701	132.61
819.879	159.23
820.058	130.56
820.236	157.18
820.414	126.46
820.592	159.23
820.77	148.99
820.948	140.8
821.127	146.94
821.305	116.22
821.483	142.85
821.661	216.57
821.839	183.81
822.017	194.05
822.195	187.9
822.373	177.66
822.551	120.32
822.729	241.15
822.907	146.94
823.085	148.99
823.262	173.57
823.44	112.13
823.618	116.22
823.796	128.51
823.974	134.65
824.152	200.19
824.329	128.51
824.507	142.85
824.685	179.71
824.863	97.79
825.04	69.12
825.218	161.28
825.396	79.36
825.574	171.52
825.751	69.12
825.929	171.52
826.107	122.37
826.284	140.8
826.462	105.98
826.639	-2.56
826.817	142.85
826.994	56.83
827.172	122.37
827.349	140.8
827.527	208.38
827.704	122.37
827.882	54.78
828.059	99.84
828.237	118.27
828.414	181.76
828.591	110.08
828.769	105.98
828.946	44.54
829.124	124.41
829.301	103.93
829.478	105.98
829.655	110.08
829.833	48.64
830.01	40.45
830.187	85.5
830.364	118.27
830.542	161.28
830.719	126.46
830.896	69.12
831.073	144.89
831.25	93.69
831.427	132.61
831.604	112.13
831.782	58.88
831.959	128.51
832.136	60.93
832.313	26.11
832.49	114.17
832.667	58.88
832.844	120.32
833.021	179.71
833.198	159.23
833.374	97.79
833.551	124.41
833.728	132.61
833.905	69.12
834.082	-12.8
834.259	91.65
834.436	175.61
834.612	85.5
834.789	89.6
834.966	103.93
835.143	136.7
835.319	71.17
835.496	81.41
835.673	126.46
835.85	85.5
836.026	110.08
836.203	114.17
836.38	40.45
836.556	73.21
836.733	83.45
836.909	136.7
837.086	42.5
837.262	105.98
837.439	65.02
837.616	87.55
837.792	99.84
837.968	32.26
838.145	28.16
838.321	95.74
838.498	52.74
838.674	114.17
838.851	65.02
839.027	44.54
839.203	101.89
839.38	69.12
839.556	105.98
839.732	54.78
839.909	38.4
840.085	93.69
840.261	58.88
840.437	140.8
840.614	32.26
840.79	124.41
840.966	87.55
841.142	22.02
841.318	153.09
841.494	110.08
841.671	30.21
841.847	9.73
842.023	-6.66
842.199	128.51
842.375	175.61
842.551	67.07
842.727	19.97
842.903	77.31
843.079	77.31
843.255	73.21
843.431	34.3
843.607	65.02
843.783	48.64
843.959	62.98
844.134	-8.7
844.31	91.65
844.486	93.69
844.662	7.68
844.838	116.22
845.013	50.69
845.189	126.46
845.365	50.69
845.541	75.26
845.716	77.31
845.892	81.41
846.068	32.26
846.244	28.16
846.419	9.73
846.595	-8.7
846.77	120.32
846.946	79.36
847.122	-16.9
847.297	52.74
847.473	87.55
847.648	-8.7
847.824	26.11
847.999	-10.75
848.175	15.87
848.35	-0.51
848.526	99.84
848.701	52.74
848.876	97.79
849.052	60.93
849.227	15.87
849.403	71.17
849.578	34.3
849.753	62.98
849.929	46.59
850.104	-31.23
850.279	44.54
850.454	1.54
850.63	52.74
850.805	-2.56
850.98	71.17
851.155	105.98
851.33	24.06
851.505	-4.61
851.681	73.21
851.856	42.5
852.031	85.5
852.206	103.93
852.381	67.07
852.556	65.02
852.731	11.78
852.906	79.36
853.081	15.87
853.256	134.65
853.431	128.51
853.606	-14.85
853.781	13.82
853.956	9.73
854.131	60.93
854.305	36.35
854.48	3.58
854.655	60.93
854.83	-53.76
855.005	7.68
855.18	24.06
855.354	44.54
855.529	7.68
855.704	-12.8
855.879	38.4
856.053	-20.99
856.228	52.74
856.403	95.74
856.577	19.97
856.752	36.35
856.926	34.3
857.101	1.54
857.276	9.73
857.45	15.87
857.625	-18.94
857.799	30.21
857.974	48.64
858.148	-33.28
858.323	83.45
858.497	58.88
858.672	13.82
858.846	89.6
859.02	54.78
859.195	85.5
859.369	22.02
859.543	67.07
859.718	-61.95
859.892	-37.38
860.066	13.82
860.241	-10.75
860.415	5.63
860.589	38.4
860.763	110.08
860.938	-53.76
861.112	-12.8
861.286	11.78
861.46	-45.57
861.634	-20.99
861.808	58.88
861.982	54.78
862.157	99.84
862.331	15.87
862.505	-25.09
862.679	-45.57
862.853	3.58
863.027	-20.99
863.201	67.07
863.375	-41.47
863.549	103.93
863.722	5.63
863.896	-20.99
864.07	54.78
864.244	32.26
864.418	1.54
864.592	60.93
864.766	24.06
864.939	44.54
865.113	26.11
865.287	54.78
865.461	-27.14
865.634	15.87
865.808	30.21
865.982	-23.04
866.156	26.11
866.329	3.58
866.503	7.68
866.676	7.68
866.85	34.3
867.024	32.26
867.197	-12.8
867.371	54.78
867.544	-16.9
867.718	40.45
867.891	11.78
868.065	-61.95
868.238	56.83
868.412	-57.86
868.585	54.78
868.759	-25.09
868.932	-47.62
869.105	81.41
869.279	-25.09
869.452	-8.7
869.625	58.88
869.799	9.73
869.972	13.82
870.145	93.69
870.319	46.59
870.492	38.4
870.665	91.65
870.838	-12.8
871.011	-20.99
871.185	11.78
871.358	-27.14
871.531	-35.33
871.704	36.35
871.877	26.11
872.05	3.58
872.223	-6.66
872.396	122.37
872.569	-12.8
872.742	7.68
872.915	69.12
873.088	11.78
873.261	1.54
873.434	-41.47
873.607	-41.47
873.78	26.11
873.953	-10.75
874.126	-37.38
874.299	71.17
874.471	-43.52
874.644	-27.14
874.817	71.17
874.99	38.4
875.163	50.69
875.335	71.17
875.508	46.59
875.681	48.64
875.853	-4.61
876.026	-14.85
876.199	17.92
876.371	11.78
876.544	-33.28
876.717	17.92
876.889	32.26
877.062	71.17
877.234	-53.76
877.407	-10.75
877.579	11.78
877.752	11.78
877.924	-59.9
878.097	54.78
878.269	-33.28
878.442	-29.18
878.614	32.26
878.786	-18.94
878.959	7.68
879.131	11.78
879.303	-39.42
879.476	-29.18
879.648	-14.85
879.82	69.12
879.993	13.82
880.165	-27.14
880.337	-33.28
880.509	108.03
880.681	-49.66
880.854	3.58
881.026	22.02
881.198	34.3
881.37	-39.42
881.542	-41.47
881.714	-2.56
881.886	-76.29
882.058	46.59
882.23	9.73
882.402	13.82
882.574	28.16
882.746	-49.66
882.918	24.06
883.09	5.63
883.262	38.4
883.434	28.16
883.606	54.78
883.778	-18.94
883.95	9.73
884.122	-41.47
884.293	5.63
884.465	-0.51
884.637	17.92
884.809	24.06
884.98	-2.56
885.152	-82.43
885.324	-55.81
885.496	-61.95
885.667	-31.23
885.839	83.45
886.011	26.11
886.182	30.21
886.354	32.26
886.525	3.58
886.697	5.63
886.869	-76.29
887.04	-20.99
887.212	-2.56
887.383	60.93
887.555	-10.75
887.726	-14.85
887.897	24.06
888.069	7.68
888.24	54.78
888.412	-16.9
888.583	11.78
888.754	-8.7
888.926	-61.95
889.097	-25.09
889.268	67.07
889.44	-12.8
889.611	-16.9
889.782	9.73
889.953	22.02
890.125	46.59
890.296	-57.86
890.467	-53.76
890.638	5.63
890.809	24.06
890.98	40.45
891.151	30.21
891.323	17.92
891.494	-74.24
891.665	-29.18
891.836	85.5
892.007	11.78
892.178	24.06
892.349	-16.9
892.52	-10.75
892.691	13.82
892.862	-20.99
893.032	19.97
893.203	26.11
893.374	34.3
893.545	42.5
893.716	30.21
893.887	67.07
894.057	-72.19
894.228	9.73
894.399	-8.7
894.57	32.26
894.74	48.64
894.911	-6.66
895.082	36.35
895.253	112.13
895.423	-16.9
895.594	32.26
895.764	32.26
895.935	32.26
896.106	3.58
896.276	7.68
896.447	26.11
896.617	-20.99
896.788	-41.47
896.958	65.02
897.129	46.59
897.299	15.87
897.47	-47.62
897.64	69.12
897.81	-33.28
897.981	-115.2
898.151	22.02
898.322	77.31
898.492	-49.66
898.662	-43.52
898.832	3.58
899.003	-27.14
899.173	-33.28
899.343	-47.62
899.513	15.87
