Data from USB4F104151__21__12-27-06-656.txt Node

Date: Fri Mar 14 12:27:06 EDT 2025
User: louis
Spectrometer: USB4F10415
Trigger mode: 4
Integration Time (sec): 2.000000E-2
Scans to average: 1
Electric dark correction enabled: true
Nonlinearity correction enabled: false
Boxcar width: 0
XAxis mode: Wavelengths
Number of Pixels in Spectrum: 3648
>>>>>Begin Spectral Data<<<<<
178.204	-146.6
178.424	-146.6
178.644	-146.6
178.864	-85.16
179.084	-105.64
179.304	19.29
179.524	4.95
179.744	-23.72
179.964	-21.67
180.184	-1.19
180.404	-19.63
180.624	47.96
180.844	-17.58
181.064	9.05
181.283	19.29
181.503	-5.29
181.723	-11.43
181.943	-25.77
182.163	-1.19
182.383	-5.29
182.602	60.24
182.822	-5.29
183.042	7
183.262	35.67
183.482	21.33
183.701	-1.19
183.921	-7.34
184.141	0.85
184.361	-48.3
184.58	43.86
184.8	-25.77
185.02	21.33
185.239	74.58
185.459	35.67
185.679	60.24
185.898	-42.15
186.118	39.76
186.338	-19.63
186.557	-9.39
186.777	-31.91
186.997	17.24
187.216	-5.29
187.436	35.67
187.655	-11.43
187.875	39.76
188.095	50
188.314	66.39
188.534	37.72
188.753	15.19
188.973	2.9
189.192	-11.43
189.412	-5.29
189.631	84.82
189.851	105.3
190.07	15.19
190.29	58.2
190.509	9.05
190.729	37.72
190.948	-36.01
191.168	152.4
191.387	-42.15
191.607	-42.15
191.826	-42.15
192.045	-29.87
192.265	-31.91
192.484	58.2
192.704	-58.54
192.923	17.24
193.142	52.05
193.362	33.62
193.581	58.2
193.8	21.33
194.02	37.72
194.239	-31.91
194.458	-11.43
194.678	-81.07
194.897	17.24
195.116	-56.49
195.335	-15.53
195.555	35.67
195.774	2.9
195.993	29.52
196.212	33.62
196.432	39.76
196.651	-27.82
196.87	33.62
197.089	45.91
197.308	39.76
197.528	-83.11
197.747	43.86
197.966	50
198.185	17.24
198.404	50
198.623	-7.34
198.842	0.85
199.062	90.96
199.281	66.39
199.5	27.48
199.719	0.85
199.938	-1.19
200.157	119.64
200.376	41.81
200.595	72.53
200.814	-9.39
201.033	-17.58
201.252	27.48
201.471	-9.39
201.69	52.05
201.909	-54.44
202.128	-11.43
202.347	56.15
202.566	-40.11
202.785	7
203.004	-64.68
203.223	70.48
203.442	37.72
203.661	80.72
203.879	9.05
204.098	-31.91
204.317	-40.11
204.536	29.52
204.755	50
204.974	15.19
205.193	-1.19
205.411	35.67
205.63	-21.67
205.849	66.39
206.068	-17.58
206.287	-27.82
206.505	17.24
206.724	-27.82
206.943	21.33
207.162	56.15
207.381	23.38
207.599	-11.43
207.818	-74.92
208.037	35.67
208.255	-27.82
208.474	54.1
208.693	-56.49
208.911	23.38
209.13	-85.16
209.349	39.76
209.567	29.52
209.786	7
210.005	23.38
210.223	17.24
210.442	17.24
210.661	37.72
210.879	78.68
211.098	11.09
211.316	35.67
211.535	19.29
211.753	35.67
211.972	-87.21
212.191	33.62
212.409	-1.19
212.628	52.05
212.846	19.29
213.065	29.52
213.283	-11.43
213.502	-5.29
213.72	23.38
213.938	-3.24
214.157	54.1
214.375	52.05
214.594	64.34
214.812	21.33
215.031	-21.67
215.249	7
215.467	23.38
215.686	-79.02
215.904	-9.39
216.122	52.05
216.341	-40.11
216.559	4.95
216.778	31.57
216.996	35.67
217.214	-1.19
217.432	-25.77
217.651	39.76
217.869	-11.43
218.087	-1.19
218.306	25.43
218.524	58.2
218.742	-15.53
218.96	15.19
219.179	17.24
219.397	25.43
219.615	33.62
219.833	80.72
220.051	-33.96
220.27	31.57
220.488	66.39
220.706	-40.11
220.924	-66.73
221.142	-9.39
221.36	-48.3
221.578	-1.19
221.796	-36.01
222.015	-17.58
222.233	25.43
222.451	33.62
222.669	66.39
222.887	35.67
223.105	11.09
223.323	33.62
223.541	11.09
223.759	39.76
223.977	-40.11
224.195	-5.29
224.413	23.38
224.631	-11.43
224.849	7
225.067	97.11
225.285	86.87
225.503	-19.63
225.721	-19.63
225.939	76.63
226.157	52.05
226.375	88.92
226.592	15.19
226.81	0.85
227.028	7
227.246	54.1
227.464	-21.67
227.682	-7.34
227.9	-25.77
228.117	-27.82
228.335	-44.2
228.553	25.43
228.771	41.81
228.989	7
229.206	-7.34
229.424	17.24
229.642	-11.43
229.86	-81.07
230.077	31.57
230.295	-31.91
230.513	-38.06
230.731	21.33
230.948	-7.34
231.166	13.14
231.384	-36.01
231.601	25.43
231.819	0.85
232.037	2.9
232.254	15.19
232.472	123.73
232.689	-42.15
232.907	52.05
233.125	11.09
233.342	15.19
233.56	33.62
233.777	-15.53
233.995	-19.63
234.213	64.34
234.43	21.33
234.648	2.9
234.865	-9.39
235.083	-1.19
235.3	-21.67
235.518	-15.53
235.735	39.76
235.953	95.06
236.17	-23.72
236.388	-46.25
236.605	-3.24
236.822	56.15
237.04	27.48
237.257	25.43
237.475	7
237.692	21.33
237.909	64.34
238.127	19.29
238.344	17.24
238.562	56.15
238.779	19.29
238.996	23.38
239.214	17.24
239.431	15.19
239.648	0.85
239.865	45.91
240.083	31.57
240.3	-27.82
240.517	-31.91
240.735	13.14
240.952	15.19
241.169	21.33
241.386	15.19
241.603	-40.11
241.821	-42.15
242.038	-1.19
242.255	52.05
242.472	43.86
242.689	19.29
242.907	23.38
243.124	54.1
243.341	2.9
243.558	-19.63
243.775	17.24
243.992	7
244.209	0.85
244.426	82.77
244.643	-1.19
244.86	33.62
245.078	68.44
245.295	58.2
245.512	35.67
245.729	-91.31
245.946	4.95
246.163	-58.54
246.38	23.38
246.597	29.52
246.814	-19.63
247.031	-3.24
247.248	54.1
247.464	37.72
247.681	23.38
247.898	-11.43
248.115	37.72
248.332	-29.87
248.549	29.52
248.766	31.57
248.983	-17.58
249.2	-25.77
249.417	39.76
249.633	13.14
249.85	64.34
250.067	-3.24
250.284	80.72
250.501	-79.02
250.717	-11.43
250.934	-27.82
251.151	31.57
251.368	-31.91
251.585	-9.39
251.801	86.87
252.018	-17.58
252.235	11.09
252.451	62.29
252.668	64.34
252.885	47.96
253.102	-54.44
253.318	45.91
253.535	-3.24
253.752	4.95
253.968	-7.34
254.185	-23.72
254.401	109.4
254.618	-9.39
254.835	-13.48
255.051	9.05
255.268	17.24
255.484	19.29
255.701	95.06
255.917	58.2
256.134	19.29
256.351	11.09
256.567	-56.49
256.784	21.33
257	29.52
257.217	66.39
257.433	47.96
257.65	11.09
257.866	19.29
258.082	31.57
258.299	129.88
258.515	-5.29
258.732	-17.58
258.948	56.15
259.165	25.43
259.381	-3.24
259.597	64.34
259.814	15.19
260.03	25.43
260.246	-29.87
260.463	62.29
260.679	37.72
260.895	9.05
261.112	82.77
261.328	39.76
261.544	-66.73
261.761	133.97
261.977	0.85
262.193	19.29
262.409	-19.63
262.626	47.96
262.842	43.86
263.058	11.09
263.274	64.34
263.49	-19.63
263.707	7
263.923	17.24
264.139	-38.06
264.355	-42.15
264.571	7
264.787	76.63
265.004	45.91
265.22	21.33
265.436	43.86
265.652	66.39
265.868	-46.25
266.084	35.67
266.3	72.53
266.516	-58.54
266.732	45.91
266.948	9.05
267.164	-31.91
267.38	35.67
267.596	84.82
267.812	13.14
268.028	76.63
268.244	82.77
268.46	-3.24
268.676	-9.39
268.892	107.35
269.108	-25.77
269.324	-3.24
269.54	-54.44
269.756	41.81
269.972	13.14
270.188	2.9
270.403	11.09
270.619	15.19
270.835	101.2
271.051	25.43
271.267	-46.25
271.483	15.19
271.698	-7.34
271.914	17.24
272.13	29.52
272.346	45.91
272.562	23.38
272.777	-5.29
272.993	13.14
273.209	-11.43
273.425	27.48
273.64	-74.92
273.856	37.72
274.072	17.24
274.287	-27.82
274.503	-13.48
274.719	50
274.934	35.67
275.15	-3.24
275.366	58.2
275.581	37.72
275.797	-33.96
276.012	2.9
276.228	43.86
276.444	9.05
276.659	-1.19
276.875	-52.39
277.09	9.05
277.306	50
277.521	-50.35
277.737	35.67
277.952	-33.96
278.168	-21.67
278.383	27.48
278.599	31.57
278.814	60.24
279.03	0.85
279.245	136.02
279.461	80.72
279.676	-1.19
279.892	-9.39
280.107	-44.2
280.322	11.09
280.538	-3.24
280.753	-1.19
280.969	76.63
281.184	-68.78
281.399	58.2
281.615	101.2
281.83	76.63
282.045	-54.44
282.26	72.53
282.476	56.15
282.691	88.92
282.906	21.33
283.122	27.48
283.337	-76.97
283.552	39.76
283.767	19.29
283.983	66.39
284.198	29.52
284.413	66.39
284.628	-15.53
284.843	-5.29
285.058	82.77
285.274	23.38
285.489	4.95
285.704	50
285.919	31.57
286.134	37.72
286.349	15.19
286.564	33.62
286.779	4.95
286.995	33.62
287.21	-56.49
287.425	25.43
287.64	-46.25
287.855	23.38
288.07	-50.35
288.285	93.01
288.5	25.43
288.715	93.01
288.93	-1.19
289.145	-15.53
289.36	90.96
289.575	80.72
289.79	7
290.004	82.77
290.219	35.67
290.434	47.96
290.649	-7.34
290.864	-1.19
291.079	-44.2
291.294	11.09
291.509	62.29
291.724	78.68
291.938	19.29
292.153	66.39
292.368	-9.39
292.583	29.52
292.798	33.62
293.012	21.33
293.227	72.53
293.442	-1.19
293.657	13.14
293.871	39.76
294.086	35.67
294.301	90.96
294.516	15.19
294.73	64.34
294.945	2.9
295.16	0.85
295.374	13.14
295.589	-5.29
295.804	-33.96
296.018	-56.49
296.233	19.29
296.447	37.72
296.662	43.86
296.877	-9.39
297.091	0.85
297.306	43.86
297.52	62.29
297.735	39.76
297.949	29.52
298.164	33.62
298.378	33.62
298.593	17.24
298.807	35.67
299.022	9.05
299.236	31.57
299.451	-13.48
299.665	0.85
299.88	13.14
300.094	43.86
300.309	66.39
300.523	-11.43
300.737	41.81
300.952	15.19
301.166	-21.67
301.381	72.53
301.595	-5.29
301.809	-1.19
302.024	15.19
302.238	64.34
302.452	52.05
302.667	39.76
302.881	74.58
303.095	27.48
303.309	154.45
303.524	-7.34
303.738	45.91
303.952	2.9
304.166	35.67
304.381	-38.06
304.595	25.43
304.809	2.9
305.023	82.77
305.237	-33.96
305.452	47.96
305.666	-25.77
305.88	-3.24
306.094	13.14
306.308	-3.24
306.522	11.09
306.736	15.19
306.95	-7.34
307.164	-9.39
307.379	-52.39
307.593	45.91
307.807	13.14
308.021	41.81
308.235	72.53
308.449	60.24
308.663	-50.35
308.877	25.43
309.091	7
309.305	50
309.519	4.95
309.733	-3.24
309.947	-21.67
310.161	-5.29
310.374	-44.2
310.588	-5.29
310.802	35.67
311.016	23.38
311.23	11.09
311.444	0.85
311.658	45.91
311.872	58.2
312.085	-15.53
312.299	93.01
312.513	-13.48
312.727	82.77
312.941	2.9
313.154	-7.34
313.368	50
313.582	111.44
313.796	19.29
314.009	58.2
314.223	-27.82
314.437	29.52
314.651	70.48
314.864	47.96
315.078	-19.63
315.292	78.68
315.505	35.67
315.719	-33.96
315.933	11.09
316.146	39.76
316.36	9.05
316.573	31.57
316.787	-9.39
317.001	4.95
317.214	-70.83
317.428	33.62
317.641	109.4
317.855	45.91
318.068	7
318.282	52.05
318.495	29.52
318.709	7
318.922	23.38
319.136	72.53
319.349	4.95
319.563	-33.96
319.776	7
319.99	50
320.203	-23.72
320.417	9.05
320.63	52.05
320.843	47.96
321.057	-46.25
321.27	19.29
321.483	9.05
321.697	95.06
321.91	90.96
322.124	99.16
322.337	70.48
322.55	11.09
322.763	68.44
322.977	50
323.19	13.14
323.403	19.29
323.617	35.67
323.83	31.57
324.043	-7.34
324.256	58.2
324.469	-23.72
324.683	84.82
324.896	15.19
325.109	43.86
325.322	-17.58
325.535	88.92
325.748	-21.67
325.962	60.24
326.175	43.86
326.388	68.44
326.601	0.85
326.814	-25.77
327.027	50
327.24	13.14
327.453	-42.15
327.666	-1.19
327.879	21.33
328.092	52.05
328.305	23.38
328.518	19.29
328.731	-42.15
328.944	-60.59
329.157	99.16
329.37	-7.34
329.583	31.57
329.796	39.76
330.009	33.62
330.222	23.38
330.435	23.38
330.648	86.87
330.861	29.52
331.073	119.64
331.286	64.34
331.499	-5.29
331.712	62.29
331.925	-11.43
332.138	31.57
332.35	27.48
332.563	2.9
332.776	35.67
332.989	-31.91
333.202	37.72
333.414	31.57
333.627	21.33
333.84	31.57
334.053	-9.39
334.265	-13.48
334.478	47.96
334.691	39.76
334.903	-21.67
335.116	-38.06
335.329	21.33
335.541	27.48
335.754	11.09
335.966	27.48
336.179	37.72
336.392	2.9
336.604	11.09
336.817	-3.24
337.029	15.19
337.242	82.77
337.454	11.09
337.667	52.05
337.88	82.77
338.092	15.19
338.305	27.48
338.517	45.91
338.729	97.11
338.942	52.05
339.154	56.15
339.367	0.85
339.579	58.2
339.792	-50.35
340.004	76.63
340.217	17.24
340.429	-15.53
340.641	86.87
340.854	-9.39
341.066	-25.77
341.278	45.91
341.491	111.44
341.703	-13.48
341.915	-1.19
342.128	76.63
342.34	13.14
342.552	2.9
342.764	25.43
342.977	25.43
343.189	103.25
343.401	23.38
343.613	25.43
343.826	64.34
344.038	60.24
344.25	101.2
344.462	13.14
344.674	15.19
344.886	-64.68
345.099	-11.43
345.311	39.76
345.523	74.58
345.735	72.53
345.947	101.2
346.159	35.67
346.371	2.9
346.583	11.09
346.795	37.72
347.007	-3.24
347.219	-1.19
347.431	4.95
347.643	50
347.855	-9.39
348.067	39.76
348.279	-5.29
348.491	82.77
348.703	43.86
348.915	60.24
349.127	-15.53
349.339	45.91
349.551	2.9
349.763	90.96
349.975	-15.53
350.187	72.53
350.399	41.81
350.61	-52.39
350.822	60.24
351.034	-33.96
351.246	23.38
351.458	60.24
351.669	35.67
351.881	64.34
352.093	33.62
352.305	72.53
352.517	60.24
352.728	4.95
352.94	-33.96
353.152	66.39
353.363	-40.11
353.575	9.05
353.787	-13.48
353.999	45.91
354.21	43.86
354.422	54.1
354.633	-19.63
354.845	45.91
355.057	-9.39
355.268	60.24
355.48	-5.29
355.692	21.33
355.903	33.62
356.115	76.63
356.326	17.24
356.538	107.35
356.749	17.24
356.961	101.2
357.172	82.77
357.384	13.14
357.595	64.34
357.807	4.95
358.018	-38.06
358.23	64.34
358.441	78.68
358.653	119.64
358.864	-31.91
359.075	9.05
359.287	25.43
359.498	72.53
359.709	107.35
359.921	80.72
360.132	-9.39
360.344	31.57
360.555	-27.82
360.766	13.14
360.977	15.19
361.189	76.63
361.4	41.81
361.611	74.58
361.823	25.43
362.034	19.29
362.245	174.93
362.456	-9.39
362.667	33.62
362.879	17.24
363.09	29.52
363.301	62.29
363.512	23.38
363.723	95.06
363.935	70.48
364.146	41.81
364.357	33.62
364.568	27.48
364.779	-29.87
364.99	93.01
365.201	13.14
365.412	101.2
365.623	0.85
365.834	80.72
366.045	74.58
366.256	19.29
366.467	23.38
366.678	39.76
366.889	0.85
367.1	133.97
367.311	29.52
367.522	27.48
367.733	60.24
367.944	50
368.155	27.48
368.366	99.16
368.577	27.48
368.788	84.82
368.999	60.24
369.209	17.24
369.42	166.74
369.631	78.68
369.842	90.96
370.053	58.2
370.264	11.09
370.474	2.9
370.685	58.2
370.896	82.77
371.107	84.82
371.317	66.39
371.528	-5.29
371.739	-1.19
371.95	54.1
372.16	99.16
372.371	52.05
372.582	37.72
372.792	64.34
373.003	70.48
373.214	50
373.424	4.95
373.635	4.95
373.846	113.49
374.056	72.53
374.267	4.95
374.477	-13.48
374.688	-3.24
374.898	58.2
375.109	64.34
375.319	17.24
375.53	86.87
375.74	2.9
375.951	17.24
376.161	62.29
376.372	27.48
376.582	17.24
376.793	-44.2
377.003	113.49
377.214	76.63
377.424	37.72
377.635	50
377.845	-29.87
378.055	72.53
378.266	-21.67
378.476	64.34
378.686	68.44
378.897	52.05
379.107	113.49
379.317	58.2
379.528	25.43
379.738	129.88
379.948	47.96
380.158	66.39
380.369	17.24
380.579	0.85
380.789	66.39
380.999	23.38
381.21	43.86
381.42	0.85
381.63	31.57
381.84	15.19
382.05	68.44
382.261	88.92
382.471	50
382.681	52.05
382.891	68.44
383.101	0.85
383.311	105.3
383.521	50
383.731	35.67
383.941	99.16
384.151	72.53
384.361	13.14
384.571	60.24
384.781	74.58
384.991	109.4
385.201	64.34
385.411	56.15
385.621	43.86
385.831	103.25
386.041	64.34
386.251	33.62
386.461	107.35
386.671	-19.63
386.881	35.67
387.091	39.76
387.301	88.92
387.511	35.67
387.72	45.91
387.93	70.48
388.14	80.72
388.35	19.29
388.56	109.4
388.769	90.96
388.979	62.29
389.189	47.96
389.399	-19.63
389.609	25.43
389.818	45.91
390.028	123.73
390.238	58.2
390.447	41.81
390.657	82.77
390.867	76.63
391.076	-31.91
391.286	9.05
391.496	103.25
391.705	-3.24
391.915	109.4
392.125	31.57
392.334	47.96
392.544	99.16
392.753	31.57
392.963	93.01
393.172	15.19
393.382	29.52
393.591	66.39
393.801	107.35
394.01	52.05
394.22	66.39
394.429	31.57
394.639	-15.53
394.848	11.09
395.058	191.31
395.267	23.38
395.477	54.1
395.686	72.53
395.895	88.92
396.105	123.73
396.314	148.31
396.524	29.52
396.733	33.62
396.942	115.54
397.152	95.06
397.361	138.07
397.57	52.05
397.78	41.81
397.989	68.44
398.198	50
398.407	76.63
398.617	76.63
398.826	99.16
399.035	66.39
399.244	68.44
399.453	21.33
399.663	123.73
399.872	88.92
400.081	82.77
400.29	80.72
400.499	72.53
400.708	37.72
400.917	101.2
401.127	72.53
401.336	121.68
401.545	150.36
401.754	140.12
401.963	113.49
402.172	99.16
402.381	76.63
402.59	140.12
402.799	133.97
403.008	29.52
403.217	148.31
403.426	144.21
403.635	103.25
403.844	80.72
404.053	107.35
404.262	109.4
404.471	152.4
404.68	93.01
404.888	144.21
405.097	88.92
405.306	183.12
405.515	150.36
405.724	117.59
405.933	125.78
406.142	267.09
406.35	191.31
406.559	189.27
406.768	156.5
406.977	170.83
407.185	242.51
407.394	293.71
407.603	242.51
407.812	267.09
408.02	211.79
408.229	172.88
408.438	199.51
408.646	166.74
408.855	256.85
409.064	262.99
409.272	242.51
409.481	297.81
409.69	297.81
409.898	267.09
410.107	361.3
410.315	303.95
410.524	332.62
410.733	392.02
410.941	375.63
411.15	340.82
411.358	334.67
411.567	394.06
411.775	428.88
411.984	432.97
412.192	459.6
412.401	518.99
412.609	502.61
412.818	516.94
413.026	469.84
413.234	531.28
413.443	535.37
413.651	525.13
413.86	502.61
414.068	670.54
414.276	664.4
414.485	701.26
414.693	668.49
414.901	668.49
415.11	652.11
415.318	760.65
415.526	746.31
415.734	789.32
415.943	817.99
416.151	865.1
416.359	928.58
416.567	881.48
416.776	967.49
416.984	977.73
417.192	1065.8
417.4	924.49
417.608	1135.43
417.817	1127.24
418.025	1084.23
418.233	1235.78
418.441	1178.44
418.649	1282.88
418.857	1276.74
419.065	1319.75
419.273	1426.24
419.481	1428.29
419.689	1465.15
419.897	1522.49
420.105	1577.79
420.313	1653.56
420.521	1704.76
420.729	1739.58
420.937	1735.48
421.145	1860.41
421.353	1964.86
421.561	1989.43
421.769	2016.05
421.977	2183.99
422.185	2089.78
422.393	2310.96
422.601	2421.55
422.809	2376.5
423.017	2366.26
423.224	2489.14
423.432	2691.88
423.64	2624.3
423.848	2929.45
424.056	2839.34
424.263	3203.88
424.471	2921.26
424.679	2976.55
424.887	3304.23
425.094	3488.54
425.302	3304.23
425.51	3470.11
425.718	3523.36
425.925	3799.84
426.133	3724.06
426.341	3969.82
426.548	4158.23
426.756	4213.53
426.964	4238.1
427.171	4475.67
427.379	4641.55
427.586	4528.91
427.794	4766.48
428.001	5028.62
428.209	5210.89
428.417	5251.85
428.624	5620.48
428.832	5436.16
429.039	5440.26
429.247	5462.79
429.454	6101.75
429.662	6525.68
429.869	6071.03
430.076	6488.82
430.284	6281.97
430.491	6613.74
430.699	6865.64
430.906	6857.45
431.114	6951.66
431.321	7320.29
431.528	7377.64
431.736	7838.43
431.943	8205.02
432.15	8010.46
432.358	8141.53
432.565	8491.73
432.772	8534.74
432.979	8966.86
433.187	9282.25
433.394	9245.38
433.601	9917.12
433.808	9781.95
434.016	9644.74
434.223	10357.43
434.43	10949.29
434.637	10633.91
434.844	11244.2
435.052	11367.08
435.259	11338.41
435.466	11704.99
435.673	11348.65
435.88	11989.66
436.087	12755.6
436.294	12743.31
436.501	12257.95
436.708	12853.91
436.915	13136.52
437.122	13621.89
437.329	13873.79
437.537	14142.08
437.743	14531.19
437.95	14449.27
438.157	14938.74
438.364	15598.18
438.571	15725.16
438.778	15774.31
438.985	17078.86
439.192	16552.54
439.399	16962.13
439.606	16753.24
439.813	17443.4
440.02	18807.35
440.227	18399.8
440.433	17963.59
440.64	18819.64
440.847	18651.7
441.054	19200.56
441.261	20415.01
441.467	20052.52
441.674	20619.8
441.881	21342.74
442.088	21262.86
442.294	21043.73
442.501	21596.68
442.708	21914.12
442.914	22796.79
443.121	23935.46
443.328	23368.18
443.534	25070.04
443.741	24037.86
443.948	23871.98
444.154	25903.56
444.361	25547.22
444.568	25778.64
444.774	25618.89
444.981	26071.5
445.187	26769.85
445.394	27822.51
445.6	27941.29
445.807	30009.74
446.013	28668.32
446.22	29411.73
446.426	30513.54
446.633	30736.77
446.839	31736.18
447.046	30693.76
447.252	32516.45
447.459	32260.46
447.665	32205.16
447.871	33669.46
448.078	35356.99
448.284	33595.73
448.491	34226.51
448.697	35742
448.903	36237.61
449.11	36362.54
449.316	35631.41
449.522	36796.71
449.728	37417.24
449.935	37789.97
450.141	37646.61
450.347	38701.32
450.553	37706.01
450.76	38019.35
450.966	39362.81
451.172	38736.13
451.378	39962.87
451.584	38912.26
451.791	40073.46
451.997	40005.87
452.203	40368.37
452.409	40737
452.615	40282.35
452.821	38850.82
453.027	38535.43
453.233	40642.79
453.44	39239.93
453.646	39444.73
453.852	39868.66
454.058	39956.72
454.264	39000.32
454.47	39975.16
454.676	38942.98
454.882	40102.13
455.088	37013.79
455.294	37427.48
455.5	37513.5
455.705	38400.27
455.911	37234.97
456.117	35965.23
456.323	35631.41
456.529	33565.01
456.735	35135.81
456.941	34279.75
457.147	33659.22
457.352	32538.98
457.558	32350.57
457.764	32399.72
457.97	31652.21
458.176	31224.18
458.381	31132.03
458.587	29639.06
458.793	30013.84
458.999	28332.45
459.204	29888.91
459.41	29342.1
459.616	27199.93
459.821	27398.58
460.027	27011.51
460.233	26722.75
460.438	25522.64
460.644	25827.79
460.85	24687.07
461.055	24263.14
461.261	24076.77
461.466	22370.82
461.672	21674.51
461.878	23050.74
462.083	21889.54
462.289	21322.26
462.494	20961.81
462.7	20113.95
462.905	19290.67
463.111	20365.85
463.316	20587.04
463.522	19894.82
463.727	20142.63
463.932	19868.2
464.138	19931.69
464.343	19657.26
464.549	19083.83
464.754	19814.95
464.959	19403.31
465.165	19587.63
465.37	18704.95
465.575	18516.54
465.781	18907.7
465.986	19167.79
466.191	18506.3
466.397	17990.21
466.602	17101.39
466.807	17918.53
467.012	17814.09
467.218	17642.06
467.423	17670.73
467.628	17599.05
467.833	18205.25
468.038	17758.79
468.244	17183.31
468.449	17941.06
468.654	17318.48
468.859	17046.1
469.064	17185.36
469.269	16503.39
469.474	16511.58
469.679	16773.72
469.885	16226.91
470.09	16650.84
470.295	16626.26
470.5	16226.91
470.705	16280.16
470.91	15909.47
471.115	15624.81
471.32	16001.63
471.525	15651.43
471.73	15555.18
471.935	15575.66
472.139	14809.72
472.344	14975.6
472.549	15123.05
472.754	14805.62
472.959	14580.34
473.164	14176.89
473.369	14027.39
473.574	14760.56
473.778	14514.81
473.983	14260.86
474.188	14156.41
474.393	13693.57
474.598	13566.6
474.802	13337.23
475.007	13402.76
475.212	13398.66
475.417	12851.86
475.621	12814.99
475.826	13073.04
476.031	12681.88
476.235	12546.71
476.44	12812.95
476.645	12227.23
476.849	12565.14
477.054	12378.78
477.259	12165.79
477.463	12106.4
477.668	11866.78
477.872	11942.56
478.077	11844.26
478.282	11481.77
478.486	11571.88
478.691	11334.31
478.895	11346.6
479.1	11098.8
479.304	11362.98
479.509	10914.48
479.713	11205.29
479.918	10754.74
480.122	10683.06
480.326	11010.73
480.531	10988.21
480.735	10588.85
480.94	10705.59
481.144	10945.2
481.348	10410.68
481.553	10672.82
481.757	10429.11
481.961	10834.61
482.166	10660.53
482.37	10844.85
482.574	10293.94
482.778	10418.87
482.983	10681.01
483.187	10470.07
483.391	10652.34
483.595	10433.21
483.8	10355.38
484.004	10560.18
484.208	10627.76
484.412	10513.08
484.616	10494.65
484.821	10498.74
485.025	10488.5
485.229	10486.45
485.433	10486.45
485.637	10629.81
485.841	10470.07
486.045	10273.46
486.249	10359.48
486.453	10420.92
486.657	10412.73
486.861	10597.04
487.065	10302.14
487.269	10457.78
487.473	10324.66
487.677	10556.08
487.881	10511.03
488.085	10357.43
488.289	10816.18
488.493	10259.13
488.697	10660.53
488.901	10607.28
489.105	10449.59
489.309	10611.38
489.512	10584.76
489.716	10478.26
489.92	10629.81
490.124	10408.63
490.328	10846.9
490.531	10558.13
490.735	10736.31
490.939	10900.14
491.143	10582.71
491.346	10896.05
491.55	11053.74
491.754	10922.67
491.958	11039.4
492.161	10949.29
492.365	10850.99
492.569	10881.71
492.772	11102.89
492.976	11023.02
493.18	11150
493.383	11315.88
493.587	11397.8
493.79	11477.67
493.994	11350.7
494.197	11496.1
494.401	11481.77
494.605	11731.62
494.808	11678.37
495.012	11999.9
495.215	11692.71
495.419	12090.01
495.622	12010.14
495.825	12182.17
496.029	12096.16
496.232	12298.91
496.436	12276.38
496.639	12728.98
496.843	12657.3
497.046	12939.92
497.249	12993.17
497.453	13183.63
497.656	13073.04
497.859	13261.45
498.063	13294.22
498.266	13625.99
498.469	13523.59
498.673	13775.49
498.876	14092.93
499.079	14068.35
499.282	13927.04
499.485	14449.27
499.689	14451.32
499.892	14803.57
500.095	14750.32
500.298	14916.21
500.501	14967.41
500.705	15491.69
500.908	15567.46
501.111	15618.66
501.314	15882.85
501.517	15925.86
501.72	16366.17
501.923	16194.14
502.126	16237.15
502.329	16966.23
502.532	16863.83
502.735	16745.05
502.938	17338.96
503.141	17424.97
503.344	17726.02
503.547	17547.85
503.75	18231.87
503.953	18369.09
504.156	18145.86
504.359	18657.85
504.562	18725.43
504.765	19061.3
504.968	19108.4
505.17	19497.52
505.373	19563.05
505.576	19802.66
505.779	19698.22
505.982	19974.69
506.185	20474.4
506.387	20601.37
506.59	20529.69
506.793	20873.75
506.996	20838.94
507.198	21645.84
507.401	21203.47
507.604	21705.23
507.807	21969.41
508.009	22243.84
508.212	22391.3
508.415	22923.77
508.617	22874.62
508.82	22950.39
509.022	23042.55
509.225	23476.72
509.428	23630.32
509.63	24076.77
509.833	24412.64
510.035	24543.71
510.238	24433.12
510.44	24773.08
510.643	25037.27
510.845	25301.46
511.048	25260.5
511.25	25557.46
511.453	25958.86
511.655	26671.55
511.858	26370.5
512.06	26755.52
512.262	26634.69
512.465	26984.89
512.667	27363.76
512.87	27238.84
513.072	27732.4
513.274	27955.63
513.477	28508.58
513.679	28590.5
513.881	29096.35
514.084	29454.74
514.286	29135.26
514.488	29467.03
514.69	30138.76
514.893	30065.03
515.095	30374.28
515.297	30749.06
515.499	30675.33
515.701	31031.68
515.904	31490.42
516.106	31617.39
516.308	32018.8
516.51	31904.11
516.712	32139.63
516.914	32651.62
517.116	33091.93
517.318	33134.94
517.52	33188.19
517.722	33163.61
517.925	33978.7
518.127	34406.73
518.329	34421.06
518.531	34326.86
518.733	35105.09
518.935	34652.48
519.136	35557.69
519.338	35453.24
519.54	36129.07
519.742	36577.58
519.944	36165.93
520.146	36944.16
520.348	37103.9
520.55	37171.49
520.752	37148.96
520.954	37814.55
521.155	37574.94
521.357	38211.85
521.559	38488.33
521.761	39158.02
521.963	38420.75
522.164	39231.74
522.366	39239.93
522.568	39647.48
522.77	39643.38
522.971	39962.87
523.173	39969.01
523.375	39905.52
523.576	40460.52
523.778	40261.87
523.98	41300.19
524.181	41107.68
524.383	41330.91
524.584	41285.86
524.786	41783.51
524.988	41742.55
525.189	42139.86
525.391	42094.8
525.592	42387.66
525.794	42651.85
525.995	42526.92
526.197	42997.96
526.398	42995.91
526.6	43542.72
526.801	43251.91
527.003	43309.25
527.204	43303.1
527.406	44009.65
527.607	43858.1
527.808	44255.41
528.01	43808.95
528.211	44011.7
528.412	44886.18
528.614	44603.56
528.815	44300.47
529.016	44955.82
529.218	44511.41
529.419	44601.52
529.62	44814.51
529.822	44669.1
530.023	44703.92
530.224	45033.64
530.425	45011.11
530.626	44615.85
530.828	44685.48
531.029	45531.29
531.23	45119.65
531.431	44996.77
531.632	45191.33
531.833	45283.49
532.035	45582.49
532.236	45465.76
532.437	45838.49
532.638	45310.11
532.839	45885.59
533.04	45938.84
533.241	45465.76
533.442	46157.97
533.643	45768.86
533.844	45658.27
534.045	46196.88
534.246	45469.86
534.447	45840.54
534.648	45504.67
534.849	45795.48
535.05	45285.54
535.251	45447.33
535.451	45461.66
535.652	46284.95
535.853	45793.43
536.054	45582.49
536.255	45609.12
536.456	45635.74
536.657	46010.52
536.857	45760.67
537.058	45662.36
537.259	45813.91
537.46	46203.03
537.66	45633.69
537.861	46438.54
538.062	45426.85
538.263	46215.32
538.463	45400.22
538.664	45461.66
538.865	45721.76
539.065	46188.69
539.266	45738.14
539.466	46499.98
539.667	45756.57
539.868	45697.18
540.068	45615.26
540.269	45762.72
540.469	46274.71
540.67	45607.07
540.87	45451.42
541.071	45572.25
541.271	45979.8
541.472	45801.63
541.672	45090.98
541.873	45652.12
542.073	45168.8
542.274	45944.98
542.474	45777.05
542.675	45316.26
542.875	46147.73
543.075	45617.31
543.276	45258.91
543.476	45334.69
543.676	45381.79
543.877	45901.98
544.077	45410.46
544.277	45336.74
544.478	45748.38
544.678	45576.35
544.878	45590.69
545.078	45775
545.279	45375.65
545.479	45432.99
545.679	45332.64
545.879	45723.8
546.079	45152.42
546.28	45637.79
546.48	45133.99
546.68	45971.61
546.88	45877.4
547.08	45719.71
547.28	45271.2
547.48	45287.59
547.68	45721.76
547.88	44824.75
548.081	45631.65
548.281	45353.12
548.481	44992.68
548.681	45582.49
548.881	45459.62
549.081	45211.81
549.28	45301.92
549.48	45443.23
549.68	45523.1
549.88	45684.89
550.08	44873.9
550.28	45611.17
550.48	45377.7
550.68	45371.55
550.88	45158.56
551.08	45185.19
551.279	45246.63
551.479	44490.93
551.679	45090.98
551.879	45453.47
552.079	45375.65
552.278	45095.08
552.478	45086.89
552.678	45287.59
552.878	45338.79
553.077	45011.11
553.277	44789.93
553.477	45275.3
553.676	45213.86
553.876	45201.57
554.076	45109.41
554.275	44798.12
554.475	44761.26
554.674	44939.43
554.874	44488.88
555.074	44847.27
555.273	44918.95
555.473	44988.58
555.672	44470.45
555.872	44976.3
556.071	45222.05
556.271	44771.5
556.47	44468.4
556.67	44488.88
556.869	44339.38
557.068	44691.63
557.268	44122.29
557.467	44794.03
557.667	44470.45
557.866	44495.02
558.065	44591.28
558.265	44376.24
558.464	44218.55
558.663	44701.87
558.863	44038.33
559.062	44771.5
559.261	43862.2
559.461	44423.34
559.66	43612.35
559.859	44157.11
560.058	43780.28
560.258	44095.67
560.457	43331.78
560.656	43915.45
560.855	43649.21
561.054	44376.24
561.253	43696.31
561.453	43784.38
561.652	43874.49
561.851	44019.89
562.05	43395.26
562.249	43196.61
562.448	43538.62
562.647	43313.34
562.846	43628.73
563.045	43700.41
563.244	42608.84
563.443	43413.69
563.642	42842.31
563.841	43342.02
564.04	43065.54
564.239	43327.68
564.438	42901.7
564.637	42965.19
564.836	42836.17
565.035	42477.77
565.234	43186.37
565.432	43036.87
565.631	42246.35
565.83	42748.11
566.029	42465.49
566.228	42305.74
566.427	42397.9
566.625	42318.03
566.824	41683.16
567.023	42457.29
567.222	41634.01
567.42	42354.9
567.619	42178.77
567.818	42281.17
568.016	41892.05
568.215	41900.25
568.414	41572.57
568.612	41773.27
568.811	41707.74
569.01	41646.3
569.208	41167.07
569.407	41822.42
569.605	41169.12
569.804	41488.6
570.002	41027.81
570.201	41523.42
570.4	40890.6
570.598	40622.31
570.797	40517.87
570.995	40859.88
571.193	40650.99
571.392	40917.22
571.59	40360.17
571.789	40298.73
571.987	40403.18
572.186	40397.04
572.384	40550.63
572.582	40306.93
572.781	40163.57
572.979	39842.04
573.177	40175.86
573.376	40460.52
573.574	39854.33
573.772	39954.68
573.971	39753.97
574.169	39467.26
574.367	39588.09
574.565	39897.33
574.763	39504.12
574.962	39098.62
575.16	38951.17
575.358	39426.3
575.556	38922.5
575.754	39590.14
575.952	38762.76
576.151	39196.93
576.349	38514.95
576.547	38457.61
576.745	38940.93
576.943	38895.88
577.141	38844.68
577.339	38873.35
577.537	38199.57
577.735	38611.21
577.933	38207.76
578.131	38623.5
578.329	38056.21
578.527	37951.76
578.725	38037.78
578.923	38097.17
579.121	37335.32
579.319	37882.13
579.516	37859.6
579.714	38074.64
579.912	37632.28
580.11	37611.8
580.308	37511.45
580.506	37298.46
580.704	36815.14
580.901	37320.99
581.099	37415.19
581.297	36989.22
581.495	36727.08
581.692	36931.87
581.89	36634.92
582.088	37173.53
582.285	36540.71
582.483	36831.52
582.681	36708.65
582.878	36348.2
583.076	35762.48
583.274	36665.64
583.471	35916.08
583.669	36098.35
583.866	35522.87
584.064	36325.68
584.262	35352.89
584.459	35946.8
584.657	35502.39
584.854	35821.87
585.052	35277.12
585.249	35670.33
585.447	35303.74
585.644	35029.31
585.841	35066.17
586.039	35316.03
586.236	34707.78
586.434	34894.14
586.631	34359.63
586.828	35154.24
587.026	34863.43
587.223	34621.77
587.42	34740.55
587.618	34408.78
587.815	34363.72
588.012	34232.65
588.21	34195.79
588.407	34490.7
588.604	34199.88
588.801	34130.25
588.999	34138.44
589.196	33857.87
589.393	33773.91
589.59	33378.65
589.787	33474.9
589.984	33061.21
590.182	33053.02
590.379	33139.04
590.576	33028.45
590.773	33399.13
590.97	32553.32
591.167	33059.16
591.364	32612.71
591.561	32944.48
591.758	32385.38
591.955	32438.63
592.152	32549.22
592.349	32162.15
592.546	32516.45
592.743	32577.89
592.94	31947.12
593.137	32299.37
593.334	31877.49
593.531	31828.34
593.727	31879.53
593.924	31521.14
594.121	31799.66
594.318	31631.73
594.515	31537.52
594.712	32029.04
594.908	31342.97
595.105	31533.43
595.302	30867.84
595.499	31279.48
595.696	31025.53
595.892	30990.72
596.089	30949.76
596.286	30882.17
596.482	30869.89
596.679	30501.25
596.876	30771.58
597.072	30448
597.269	30210.44
597.466	30448
597.662	30333.32
597.859	30448
598.055	29974.92
598.252	29899.15
598.448	30075.27
598.645	29663.63
598.841	29247.9
599.038	30093.71
599.234	29569.43
599.431	29489.56
599.627	29153.69
599.824	29454.74
600.02	29090.2
600.217	29264.28
600.413	28746.14
600.609	29104.54
600.806	28744.09
601.002	28967.32
601.198	28639.65
601.395	28496.29
601.591	28498.34
601.787	28457.38
601.984	28465.57
602.18	28307.88
602.376	28250.53
602.572	28107.18
602.769	28318.12
602.965	27949.48
603.161	27910.57
603.357	27644.34
603.553	27691.44
603.75	27677.1
603.946	27425.2
604.142	27595.18
604.338	27273.65
604.534	27521.46
604.73	27232.69
604.926	27130.3
605.122	27191.73
605.318	26917.31
605.514	26728.89
605.71	26833.34
605.906	27136.44
606.102	26599.87
606.298	26868.16
606.494	26667.45
606.69	26866.11
606.886	26778.04
607.082	26517.95
607.278	26810.81
607.474	26171.85
607.67	26388.93
607.866	26282.44
608.062	26276.29
608.257	26147.27
608.453	26044.87
608.649	26239.43
608.845	26010.06
609.041	26061.26
609.236	26241.48
609.432	25979.34
609.628	26221
609.824	25717.2
610.019	25737.68
610.215	25942.47
610.411	25743.82
610.606	25373.14
610.802	25731.53
610.998	25803.21
611.193	25817.55
611.389	25350.61
611.584	25741.77
611.78	25295.32
611.976	25197.01
612.171	25393.62
612.367	25188.82
612.562	25061.85
612.758	25033.18
612.953	24787.42
613.149	25426.39
613.344	25016.79
613.539	25221.59
613.735	24789.47
613.93	25156.05
614.126	24906.2
614.321	25106.9
614.517	24711.64
614.712	24682.97
614.907	24500.7
615.103	24752.6
615.298	24742.36
615.493	24725.98
615.688	24680.92
615.884	24797.66
616.079	24189.41
616.274	24619.49
616.47	24263.14
616.665	24398.31
616.86	24168.93
617.055	24127.97
617.25	24287.71
617.445	24416.74
617.641	23904.74
617.836	24191.46
618.031	23767.53
618.226	24119.78
618.421	23650.8
618.616	23835.11
618.811	23751.15
619.006	24050.15
619.201	22993.4
619.396	23437.81
619.591	23263.73
619.786	23374.32
619.981	22981.11
620.176	23198.2
620.371	22852.09
620.566	22639.1
620.761	22694.4
620.956	22884.86
621.151	22542.85
621.346	22651.39
621.541	22491.65
621.735	22336
621.93	22092.29
622.125	22254.08
622.32	21985.8
622.515	22159.88
622.709	21645.84
622.904	21772.81
623.099	21666.31
623.294	21649.93
623.488	21144.08
623.683	21391.89
623.878	20912.66
624.072	21180.95
624.267	21168.66
624.462	21013.01
624.656	21031.44
624.851	20754.97
625.046	20660.76
625.24	20658.71
625.435	20187.68
625.629	20386.33
625.824	20328.99
626.018	20048.42
626.213	19933.73
626.407	20087.33
626.602	19477.04
626.796	19864.1
626.991	19593.77
627.185	19765.8
627.38	19266.1
627.574	19085.87
627.768	18905.65
627.963	19151.41
628.157	18919.99
628.352	18895.41
628.546	18508.35
628.74	18780.73
628.935	18391.61
629.129	18516.54
629.323	18487.87
629.517	18010.69
629.712	18258.49
629.906	18252.35
630.1	17926.72
630.294	18192.96
630.489	17721.93
630.683	17943.11
630.877	17678.92
631.071	17402.44
631.265	17719.88
631.459	17373.77
631.653	17394.25
631.848	17257.04
632.042	16730.71
632.236	17089.1
632.43	16941.65
632.624	16984.66
632.818	16835.16
633.012	16351.84
633.206	16679.51
633.4	16650.84
633.594	16222.81
633.788	16421.47
633.982	16317.02
634.176	16642.65
634.369	16126.56
634.563	16118.37
634.757	15911.52
634.951	16056.93
635.145	15782.5
635.339	15827.56
635.533	15659.62
635.726	15936.1
635.92	15256.17
636.114	15510.12
636.308	15426.15
636.501	15110.77
636.695	15307.37
636.889	15055.47
637.083	15090.29
637.276	15069.81
637.47	14926.45
637.664	14922.35
637.857	14862.96
638.051	14733.94
638.244	14572.15
638.438	14668.41
638.632	14451.32
638.825	14281.34
639.019	14205.56
639.212	14144.13
639.406	14336.63
639.599	14111.36
639.793	13990.53
639.986	13609.61
640.18	13752.96
640.373	13908.61
640.567	13470.34
640.76	13910.66
640.954	13509.26
641.147	13597.32
641.34	13292.17
641.534	13296.27
641.727	13347.47
641.92	13382.28
642.114	13380.23
642.307	13163.15
642.5	13116.05
642.694	12911.25
642.887	12804.75
643.08	12982.93
643.273	12984.98
643.467	12546.71
643.66	12698.26
643.853	12610.2
644.046	12556.95
644.239	12403.35
644.432	12448.41
644.626	12309.15
644.819	12487.32
645.012	12241.56
645.205	12204.7
645.398	12288.67
645.591	11989.66
645.784	12165.79
645.977	11819.68
646.17	12018.33
646.363	11680.42
646.556	11635.36
646.749	11760.29
646.942	11762.34
647.135	11856.54
647.328	11522.73
647.521	11555.49
647.714	11405.99
647.907	11414.18
648.099	11229.87
648.292	11307.69
648.485	11414.18
648.678	11117.23
648.871	11117.23
649.064	11090.6
649.256	10967.73
649.449	11008.69
649.642	10914.48
649.835	10850.99
650.027	10711.73
650.22	10521.27
650.413	10500.79
650.605	10681.01
650.798	10394.29
650.991	10193.59
651.183	10345.14
651.376	10193.59
651.568	10492.6
651.761	10320.57
651.954	10361.53
652.146	9876.16
652.339	10033.85
652.531	10021.56
652.724	9980.61
652.916	9818.82
653.109	9945.79
653.301	9833.15
653.494	9898.69
653.686	9650.88
653.879	9833.15
654.071	9863.87
654.263	9650.88
654.456	9691.84
654.648	9595.59
654.84	9478.85
655.033	9239.24
655.225	9364.17
655.417	9091.79
655.61	9355.97
655.802	9323.21
655.994	8893.13
656.186	9142.99
656.379	9155.27
656.571	9022.16
656.763	9038.54
656.955	8991.44
657.148	8905.42
657.34	8661.71
657.532	8604.37
657.724	8956.62
657.916	8788.69
658.108	8741.58
658.3	8522.45
658.492	8604.37
658.684	8651.47
658.876	8501.97
659.068	8528.6
659.26	8585.94
659.452	8487.64
659.644	8188.63
659.836	8194.78
660.028	8221.4
660.22	8176.34
660.412	8225.5
660.604	8059.61
660.796	8151.77
660.988	8084.19
661.18	7938.78
661.372	7963.36
661.563	7975.64
661.755	7901.92
661.947	8041.18
662.139	7826.14
662.331	7793.37
662.522	7799.52
662.714	7899.87
662.906	7613.15
663.097	7711.46
663.289	7516.9
663.481	7607.01
663.673	7523.04
663.864	7406.31
664.056	7408.36
664.247	7346.92
664.439	7240.42
664.631	7447.27
664.822	7205.61
665.014	7324.39
665.205	7215.85
665.397	7375.59
665.588	7310.05
665.78	7140.07
665.971	7054.06
666.163	7168.74
666.354	6947.56
666.546	7101.16
666.737	6869.74
666.929	6722.29
667.12	6931.18
667.311	6877.93
667.503	6650.61
667.694	6904.56
667.885	6750.96
668.077	6789.87
668.268	6675.18
668.459	6808.3
668.651	6705.9
668.842	6714.09
669.033	6607.6
669.224	6503.15
669.416	6638.32
669.607	6554.35
669.798	6621.94
669.989	6683.38
670.18	6556.4
670.371	6365.94
670.563	6365.94
670.754	6267.64
670.945	6216.44
671.136	6222.58
671.327	6198.01
671.518	6132.47
671.709	6138.62
671.9	6202.1
672.091	6161.14
672.282	6208.25
672.473	6130.42
672.664	6101.75
672.855	6011.64
673.046	6083.32
673.237	6009.59
673.428	5823.23
673.619	5903.1
673.809	5872.38
674	5860.09
674.191	5911.29
674.382	5776.13
674.573	5767.93
674.764	5718.78
674.954	5835.52
675.145	5669.63
675.336	5792.51
675.527	5665.53
675.717	5683.97
675.908	5618.43
676.099	5645.06
676.289	5473.03
676.48	5659.39
676.671	5505.79
676.861	5532.42
677.052	5536.51
677.243	5579.52
677.433	5524.23
677.624	5548.8
677.814	5417.73
678.005	5520.13
678.195	5335.81
678.386	5497.6
678.576	5374.72
678.767	5321.48
678.957	5335.81
679.148	5438.21
679.338	5417.73
679.529	5290.76
679.719	5147.4
679.909	5401.35
680.1	5194.5
680.29	5169.93
680.481	5274.37
680.671	5143.3
680.861	5249.8
681.052	5214.98
681.242	5022.47
681.432	5284.61
681.622	5104.39
681.813	5014.28
682.003	5255.94
682.193	4940.55
682.383	5104.39
682.573	5110.54
682.764	5094.15
682.954	5042.95
683.144	4983.56
683.334	5059.34
683.524	4881.16
683.714	4907.79
683.904	4834.06
684.094	4897.55
684.284	4844.3
684.474	4897.55
684.664	4946.7
684.854	4786.96
685.044	4815.63
685.234	4700.94
685.424	4823.82
685.614	4746
685.804	4682.51
685.994	4543.25
686.184	4733.71
686.374	4832.01
686.564	4590.35
686.753	4770.57
686.943	4586.26
687.133	4545.3
687.323	4571.92
687.513	4526.86
687.702	4459.28
687.892	4442.9
688.082	4446.99
688.272	4309.78
688.461	4557.58
688.651	4363.03
688.841	4395.79
689.03	4408.08
689.22	4385.55
689.41	4350.74
689.599	4434.71
689.789	4229.91
689.979	4320.02
690.168	4160.28
690.358	4334.36
690.547	4127.51
690.737	4240.15
690.926	4158.23
691.116	4090.65
691.305	4129.56
691.495	4143.89
691.684	4035.35
691.874	4066.07
692.063	3951.39
692.252	3949.34
692.442	4082.46
692.631	3918.62
692.82	4025.11
693.01	3877.66
693.199	3961.62
693.388	3902.23
693.578	3871.51
693.767	3785.5
693.956	3812.12
694.146	3756.83
694.335	3744.54
694.524	3666.72
694.713	3799.84
694.902	3674.91
695.092	3828.51
695.281	3662.62
695.47	3683.1
695.659	3722.01
695.848	3650.33
696.037	3709.72
696.226	3734.3
696.415	3609.37
696.604	3595.04
696.793	3705.63
696.982	3629.85
697.171	3623.71
697.36	3560.22
697.549	3433.25
697.738	3449.63
697.927	3439.39
698.116	3488.54
698.305	3461.92
698.494	3480.35
698.683	3486.5
698.872	3447.58
699.061	3384.1
699.25	3552.03
699.438	3410.72
699.627	3382.05
699.816	3445.54
700.005	3488.54
700.193	3392.29
700.382	3353.38
700.571	3384.1
700.76	3429.15
700.948	3418.91
701.137	3380
701.326	3365.67
701.514	3205.92
701.703	3283.75
701.892	3296.04
702.08	3361.57
702.269	3322.66
702.457	3285.8
702.646	3193.64
702.834	3203.88
703.023	3304.23
703.212	3283.75
703.4	3134.25
703.589	3130.15
703.777	3273.51
703.965	3267.36
704.154	3361.57
704.342	3183.4
704.531	3177.25
704.719	3040.04
704.907	3238.69
705.096	3267.36
705.284	3332.9
705.472	3175.2
705.661	3156.77
705.849	3173.16
706.037	3162.92
706.226	3242.79
706.414	3203.88
706.602	3169.06
706.79	3257.12
706.979	3142.44
707.167	3072.81
707.355	3240.74
707.543	3261.22
707.731	3119.91
707.919	3187.49
708.107	3124.01
708.296	3062.57
708.484	3154.73
708.672	3048.23
708.86	3191.59
709.048	3230.5
709.236	3005.22
709.424	3173.16
709.612	3130.15
709.8	3085.09
709.988	3048.23
710.176	3164.97
710.364	3162.92
710.551	3054.37
710.739	3054.37
710.927	3062.57
711.115	3117.86
711.303	3146.53
711.491	3097.38
711.679	2984.74
711.866	3031.85
712.054	2884.39
712.242	3064.61
712.43	3156.77
712.617	3062.57
712.805	3087.14
712.993	3054.37
713.181	2947.88
713.368	3054.37
713.556	3001.13
713.744	2974.5
713.931	3019.56
714.119	3156.77
714.306	3076.9
714.494	3068.71
714.682	3052.33
714.869	3095.33
715.057	2949.93
715.244	3044.13
715.432	3134.25
715.619	2906.92
715.807	2921.26
715.994	2925.35
716.182	2822.95
716.369	2884.39
716.556	2958.12
716.744	2904.87
716.931	2970.41
717.119	2999.08
717.306	2966.31
717.493	2964.26
717.681	2890.54
717.868	2984.74
718.055	2980.65
718.242	3085.09
718.43	2902.83
718.617	3025.7
718.804	2900.78
718.991	3074.85
719.179	2925.35
719.366	2972.46
719.553	2997.03
719.74	2939.69
719.927	2925.35
720.114	2915.11
720.301	2906.92
720.488	2816.81
720.676	2937.64
720.863	3029.8
721.05	2888.49
721.237	2880.3
721.424	2964.26
721.611	2958.12
721.798	2902.83
721.985	2882.35
722.172	2970.41
722.358	2749.23
722.545	3033.9
722.732	2870.06
722.919	2851.63
723.106	2874.15
723.293	2876.2
723.48	2958.12
723.667	2927.4
723.853	3003.18
724.04	2960.17
724.227	3005.22
724.414	2851.63
724.6	2988.84
724.787	2898.73
724.974	2896.68
725.161	2904.87
725.347	2818.86
725.534	2847.53
725.72	2861.87
725.907	2888.49
726.094	2849.58
726.28	2833.19
726.467	2886.44
726.653	2966.31
726.84	2937.64
727.027	2892.59
727.213	2726.7
727.4	2882.35
727.586	2954.02
727.773	2745.13
727.959	2812.71
728.145	2927.4
728.332	2769.71
728.518	2898.73
728.705	2929.45
728.891	2851.63
729.077	2788.14
729.264	2900.78
729.45	2888.49
729.636	2763.56
729.823	2990.89
730.009	2872.11
730.195	2888.49
730.382	2839.34
730.568	2714.41
730.754	2833.19
730.94	2720.56
731.126	2896.68
731.313	2763.56
731.499	2970.41
731.685	2921.26
731.871	2827.05
732.057	2693.93
732.243	2767.66
732.429	2784.04
732.615	2841.39
732.801	2812.71
732.987	2857.77
733.173	2812.71
733.359	2847.53
733.545	2800.43
733.731	2683.69
733.917	2794.28
734.103	2829.1
734.289	2872.11
734.475	2687.79
734.661	2888.49
734.847	2845.48
735.033	2761.52
735.219	2761.52
735.404	2753.32
735.59	2775.85
735.776	2833.19
735.962	2718.51
736.148	2859.82
736.333	2589.49
736.519	2771.76
736.705	2743.08
736.89	2728.75
737.076	2845.48
737.262	2691.88
737.447	2710.32
737.633	2689.84
737.819	2761.52
738.004	2640.69
738.19	2675.5
738.375	2579.25
738.561	2603.82
738.747	2620.21
738.932	2657.07
739.118	2761.52
739.303	2579.25
739.489	2743.08
739.674	2710.32
739.859	2642.73
740.045	2677.55
740.23	2589.49
740.416	2587.44
740.601	2698.03
740.786	2605.87
740.972	2532.14
741.157	2573.1
741.342	2556.72
741.528	2657.07
741.713	2530.09
741.898	2501.42
742.084	2552.62
742.269	2548.53
742.454	2487.09
742.639	2601.77
742.824	2532.14
743.01	2472.75
743.195	2589.49
743.38	2382.64
743.565	2425.65
743.75	2399.02
743.935	2419.5
744.12	2345.78
744.305	2335.54
744.49	2421.55
744.675	2464.56
744.86	2358.07
745.045	2380.59
745.23	2278.19
745.415	2409.26
745.6	2433.84
745.785	2249.52
745.97	2267.95
746.155	2339.63
746.34	2308.91
746.525	2306.87
746.71	2274.1
746.895	2241.33
747.079	2319.15
747.264	2306.87
747.449	2233.14
747.634	2212.66
747.819	2288.43
748.003	2149.17
748.188	2259.76
748.373	2200.37
748.557	2085.69
748.742	2108.21
748.927	2083.64
749.111	2186.04
749.296	2048.82
749.481	2194.23
749.665	2050.87
749.85	2124.6
750.034	2083.64
750.219	1991.48
750.404	1958.71
750.588	2059.06
750.773	2063.16
750.957	2102.07
751.141	1923.9
751.326	1948.47
751.51	1917.75
751.695	1997.62
751.879	1864.5
752.064	1921.85
752.248	1817.4
752.432	1893.18
752.617	1809.21
752.801	1866.55
752.985	1778.49
753.17	1874.74
753.354	1792.83
753.538	1848.12
753.722	1850.17
753.907	1821.5
754.091	1686.33
754.275	1749.82
754.459	1696.57
754.643	1676.09
754.828	1778.49
755.012	1655.61
755.196	1686.33
755.38	1637.18
755.564	1657.66
755.748	1567.55
755.932	1653.56
756.116	1639.23
756.3	1680.19
756.484	1618.75
756.668	1688.38
756.852	1604.41
757.036	1551.17
757.22	1538.88
757.404	1540.93
757.588	1452.86
757.772	1493.82
757.956	1530.69
758.14	1553.21
758.323	1557.31
758.507	1516.35
758.691	1418.05
758.875	1456.96
759.059	1383.23
759.242	1428.29
759.426	1461.06
759.61	1399.62
759.794	1391.42
759.977	1379.14
760.161	1442.62
760.345	1479.49
760.528	1334.08
760.712	1377.09
760.895	1334.08
761.079	1325.89
761.263	1360.7
761.446	1231.68
761.63	1467.2
761.813	1303.36
761.997	1200.96
762.18	1256.26
762.364	1254.21
762.547	1293.12
762.731	1278.79
762.914	1350.46
763.098	1268.55
763.281	1297.22
763.464	1254.21
763.648	1280.83
763.831	1250.11
764.015	1137.48
764.198	1192.77
764.381	1307.46
764.564	1268.55
764.748	1157.96
764.931	1104.71
765.114	1180.48
765.297	1219.39
765.481	1155.91
765.664	1198.92
765.847	1182.53
766.03	1233.73
766.213	1117
766.397	1196.87
766.58	1108.8
766.763	1153.86
766.946	1170.24
767.129	1151.81
767.312	1110.85
767.495	1190.72
767.678	1057.61
767.861	1141.57
768.044	1145.67
768.227	1119.04
768.41	1069.89
768.593	1211.2
768.776	1102.66
768.959	1102.66
769.142	1196.87
769.324	1096.52
769.507	1082.18
769.69	1016.65
769.873	969.54
770.056	983.88
770.239	1004.36
770.421	996.17
770.604	1065.8
770.787	1100.61
770.97	983.88
771.152	1014.6
771.335	1022.79
771.518	1024.84
771.7	1012.55
771.883	961.35
772.066	994.12
772.248	998.21
772.431	1076.04
772.613	1100.61
772.796	1028.93
772.978	938.82
773.161	994.12
773.343	990.02
773.526	938.82
773.708	920.39
773.891	877.38
774.073	985.93
774.256	920.39
774.438	1039.17
774.621	897.86
774.803	914.25
774.985	949.06
775.168	920.39
775.35	899.91
775.532	826.18
775.715	807.75
775.897	836.42
776.079	858.95
776.261	832.33
776.444	852.81
776.626	813.9
776.808	797.51
776.99	830.28
777.173	781.13
777.355	729.93
777.537	815.94
777.719	768.84
777.901	815.94
778.083	828.23
778.265	820.04
778.447	875.34
778.629	774.99
778.811	883.53
778.993	748.36
779.175	748.36
779.357	742.22
779.539	787.27
779.721	719.69
779.903	748.36
780.085	729.93
780.267	688.97
780.449	709.45
780.631	670.54
780.812	783.18
780.994	611.15
781.176	686.92
781.358	668.49
781.54	742.22
781.721	654.16
781.903	662.35
782.085	627.53
782.267	734.03
782.448	676.68
782.63	713.55
782.812	654.16
782.993	666.44
783.175	627.53
783.357	559.95
783.538	580.43
783.72	555.85
783.901	607.05
784.083	619.34
784.264	592.72
784.446	545.61
784.627	648.01
784.809	582.48
784.99	557.9
785.172	551.76
785.353	568.14
785.535	543.57
785.716	580.43
785.897	478.03
786.079	463.69
786.26	504.65
786.441	568.14
786.623	508.75
786.804	467.79
786.985	518.99
787.167	568.14
787.348	471.89
787.529	457.55
787.71	508.75
787.891	539.47
788.073	412.5
788.254	422.73
788.435	551.76
788.616	488.27
788.797	422.73
788.978	496.46
789.159	416.59
789.34	412.5
789.522	514.89
789.703	353.1
789.884	371.54
790.065	422.73
790.246	486.22
790.427	445.26
790.607	504.65
790.788	459.6
790.969	469.84
791.15	383.82
791.331	422.73
791.512	428.88
791.693	400.21
791.874	422.73
792.054	506.7
792.235	420.69
792.416	389.97
792.597	375.63
792.778	389.97
792.958	400.21
793.139	355.15
793.32	412.5
793.5	357.2
793.681	457.55
793.862	377.68
794.042	357.2
794.223	387.92
794.404	303.95
794.584	414.54
794.765	316.24
794.945	326.48
795.126	408.4
795.306	402.26
795.487	330.58
795.667	318.29
795.848	406.35
796.028	312.14
796.209	367.44
796.389	359.25
796.57	334.67
796.75	293.71
796.93	322.38
797.111	310.1
797.291	281.43
797.471	330.58
797.652	359.25
797.832	320.34
798.012	346.96
798.192	279.38
798.373	439.12
798.553	332.62
798.733	279.38
798.913	234.32
799.093	295.76
799.274	359.25
799.454	326.48
799.634	363.34
799.814	338.77
799.994	346.96
800.174	265.04
800.354	279.38
800.534	211.79
800.714	334.67
800.894	283.47
801.074	275.28
801.254	357.2
801.434	297.81
801.614	308.05
801.794	191.31
801.974	717.64
802.154	285.52
802.334	277.33
802.514	310.1
802.693	258.9
802.873	217.94
803.053	283.47
803.233	279.38
803.413	295.76
803.592	322.38
803.772	140.12
803.952	281.43
804.131	222.03
804.311	293.71
804.491	244.56
804.67	140.12
804.85	183.12
805.03	285.52
805.209	240.47
805.389	256.85
805.568	230.23
805.748	140.12
805.928	226.13
806.107	195.41
806.287	256.85
806.466	217.94
806.646	230.23
806.825	176.98
807.004	174.93
807.184	281.43
807.363	162.64
807.543	306
807.722	258.9
807.901	170.83
808.081	201.55
808.26	170.83
808.439	213.84
808.619	193.36
808.798	217.94
808.977	195.41
809.156	224.08
809.336	244.56
809.515	232.27
809.694	172.88
809.873	228.18
810.052	256.85
810.231	258.9
810.411	176.98
810.59	252.75
810.769	207.7
810.948	219.99
811.127	166.74
811.306	152.4
811.485	219.99
811.664	256.85
811.843	156.5
812.022	144.21
812.201	193.36
812.38	213.84
812.559	172.88
812.737	170.83
812.916	93.01
813.095	185.17
813.274	232.27
813.453	131.92
813.632	189.27
813.811	197.46
813.989	144.21
814.168	162.64
814.347	183.12
814.526	129.88
814.704	176.98
814.883	195.41
815.062	131.92
815.24	172.88
815.419	103.25
815.598	160.59
815.776	174.93
815.955	121.68
816.133	160.59
816.312	88.92
816.49	170.83
816.669	140.12
816.847	95.06
817.026	179.03
817.204	164.69
817.383	133.97
817.561	121.68
817.74	170.83
817.918	174.93
818.097	148.31
818.275	136.02
818.453	148.31
818.632	136.02
818.81	129.88
818.988	131.92
819.167	121.68
819.345	146.26
819.523	193.36
819.701	213.84
819.879	121.68
820.058	168.79
820.236	172.88
820.414	117.59
820.592	54.1
820.77	150.36
820.948	148.31
821.127	172.88
821.305	152.4
821.483	70.48
821.661	109.4
821.839	133.97
822.017	101.2
822.195	115.54
822.373	172.88
822.551	121.68
822.729	156.5
822.907	121.68
823.085	168.79
823.262	52.05
823.44	107.35
823.618	129.88
823.796	197.46
823.974	78.68
824.152	54.1
824.329	152.4
824.507	140.12
824.685	131.92
824.863	105.3
825.04	140.12
825.218	113.49
825.396	115.54
825.574	97.11
825.751	125.78
825.929	138.07
826.107	82.77
826.284	84.82
826.462	90.96
826.639	45.91
826.817	99.16
826.994	76.63
827.172	74.58
827.349	158.55
827.527	72.53
827.704	99.16
827.882	144.21
828.059	136.02
828.237	78.68
828.414	90.96
828.591	99.16
828.769	144.21
828.946	103.25
829.124	62.29
829.301	142.16
829.478	156.5
829.655	97.11
829.833	181.07
830.01	66.39
830.187	131.92
830.364	64.34
830.542	109.4
830.719	66.39
830.896	88.92
831.073	131.92
831.25	70.48
831.427	70.48
831.604	117.59
831.782	60.24
831.959	95.06
832.136	97.11
832.313	43.86
832.49	95.06
832.667	45.91
832.844	43.86
833.021	88.92
833.198	72.53
833.374	78.68
833.551	74.58
833.728	19.29
833.905	90.96
834.082	58.2
834.259	31.57
834.436	172.88
834.612	97.11
834.789	119.64
834.966	0.85
835.143	113.49
835.319	103.25
835.496	80.72
835.673	19.29
835.85	58.2
836.026	70.48
836.203	80.72
836.38	15.19
836.556	111.44
836.733	78.68
836.909	93.01
837.086	66.39
837.262	111.44
837.439	39.76
837.616	70.48
837.792	105.3
837.968	68.44
838.145	62.29
838.321	13.14
838.498	90.96
838.674	41.81
838.851	88.92
839.027	68.44
839.203	54.1
839.38	60.24
839.556	25.43
839.732	115.54
839.909	17.24
840.085	84.82
840.261	47.96
840.437	84.82
840.614	29.52
840.79	15.19
840.966	58.2
841.142	76.63
841.318	-19.63
841.494	70.48
841.671	80.72
841.847	17.24
842.023	23.38
842.199	-9.39
842.375	33.62
842.551	-36.01
842.727	33.62
842.903	127.83
843.079	90.96
843.255	60.24
843.431	13.14
843.607	27.48
843.783	19.29
843.959	121.68
844.134	15.19
844.31	90.96
844.486	35.67
844.662	45.91
844.838	54.1
845.013	33.62
845.189	56.15
845.365	35.67
845.541	-13.48
845.716	17.24
845.892	174.93
846.068	35.67
846.244	-1.19
846.419	86.87
846.595	9.05
846.77	23.38
846.946	54.1
847.122	54.1
847.297	60.24
847.473	78.68
847.648	74.58
847.824	-1.19
847.999	72.53
848.175	37.72
848.35	17.24
848.526	58.2
848.701	97.11
848.876	80.72
849.052	35.67
849.227	70.48
849.403	13.14
849.578	2.9
849.753	58.2
849.929	41.81
850.104	27.48
850.279	60.24
850.454	-54.44
850.63	13.14
850.805	84.82
850.98	-15.53
851.155	17.24
851.33	103.25
851.505	17.24
851.681	80.72
851.856	80.72
852.031	99.16
852.206	-23.72
852.381	45.91
852.556	70.48
852.731	62.29
852.906	52.05
853.081	82.77
853.256	127.83
853.431	-44.2
853.606	82.77
853.781	-11.43
853.956	25.43
854.131	50
854.305	88.92
854.48	-5.29
854.655	-36.01
854.83	45.91
855.005	7
855.18	37.72
855.354	45.91
855.529	121.68
855.704	45.91
855.879	29.52
856.053	64.34
856.228	31.57
856.403	19.29
856.577	13.14
856.752	88.92
856.926	19.29
857.101	-21.67
857.276	64.34
857.45	37.72
857.625	37.72
857.799	43.86
857.974	-50.35
858.148	15.19
858.323	21.33
858.497	39.76
858.672	39.76
858.846	76.63
859.02	50
859.195	11.09
859.369	2.9
859.543	11.09
859.718	107.35
859.892	50
860.066	72.53
860.241	-19.63
860.415	-31.91
860.589	45.91
860.763	23.38
860.938	41.81
861.112	76.63
861.286	11.09
861.46	93.01
861.634	13.14
861.808	35.67
861.982	-13.48
862.157	21.33
862.331	70.48
862.505	11.09
862.679	27.48
862.853	-38.06
863.027	50
863.201	50
863.375	-62.63
863.549	17.24
863.722	23.38
863.896	72.53
864.07	-48.3
864.244	33.62
864.418	29.52
864.592	39.76
864.766	4.95
864.939	80.72
865.113	-11.43
865.287	0.85
865.461	-46.25
865.634	64.34
865.808	17.24
865.982	9.05
866.156	-25.77
866.329	-3.24
866.503	37.72
866.676	19.29
866.85	25.43
867.024	-23.72
867.197	47.96
867.371	27.48
867.544	-23.72
867.718	9.05
867.891	-1.19
868.065	0.85
868.238	23.38
868.412	15.19
868.585	-15.53
868.759	60.24
868.932	39.76
869.105	-79.02
869.279	47.96
869.452	-42.15
869.625	29.52
869.799	29.52
869.972	-38.06
870.145	13.14
870.319	41.81
870.492	-48.3
870.665	17.24
870.838	25.43
871.011	-40.11
871.185	21.33
871.358	-33.96
871.531	101.2
871.704	13.14
871.877	11.09
872.05	-5.29
872.223	43.86
872.396	17.24
872.569	-21.67
872.742	4.95
872.915	25.43
873.088	-19.63
873.261	15.19
873.434	-52.39
873.607	25.43
873.78	11.09
873.953	-42.15
874.126	0.85
874.299	-33.96
874.471	9.05
874.644	-72.87
874.817	-5.29
874.99	27.48
875.163	-97.45
875.335	25.43
875.508	-7.34
875.681	25.43
875.853	-1.19
876.026	-48.3
876.199	43.86
876.371	-38.06
876.544	9.05
876.717	93.01
876.889	-33.96
877.062	58.2
877.234	-5.29
877.407	7
877.579	2.9
877.752	-3.24
877.924	-3.24
878.097	41.81
878.269	-3.24
878.442	23.38
878.614	-11.43
878.786	-29.87
878.959	-11.43
879.131	-3.24
879.303	-38.06
879.476	17.24
879.648	-13.48
879.82	-5.29
879.993	-50.35
880.165	31.57
880.337	29.52
880.509	4.95
880.681	-48.3
880.854	0.85
881.026	13.14
881.198	31.57
881.37	9.05
881.542	-70.83
881.714	-60.59
881.886	60.24
882.058	-33.96
882.23	27.48
882.402	-44.2
882.574	-19.63
882.746	93.01
882.918	45.91
883.09	93.01
883.262	4.95
883.434	-3.24
883.606	-36.01
883.778	9.05
883.95	37.72
884.122	-1.19
884.293	54.1
884.465	31.57
884.637	70.48
884.809	-66.73
884.98	37.72
885.152	27.48
885.324	-40.11
885.496	4.95
885.667	0.85
885.839	-19.63
886.011	50
886.182	25.43
886.354	56.15
886.525	41.81
886.697	-50.35
886.869	-5.29
887.04	7
887.212	-25.77
887.383	27.48
887.555	35.67
887.726	-29.87
887.897	-7.34
888.069	-9.39
888.24	2.9
888.412	-33.96
888.583	-11.43
888.754	27.48
888.926	43.86
889.097	-31.91
889.268	-52.39
889.44	31.57
889.611	-36.01
889.782	45.91
889.953	-9.39
890.125	72.53
890.296	-11.43
890.467	2.9
890.638	21.33
890.809	45.91
890.98	-19.63
891.151	-23.72
891.323	35.67
891.494	-40.11
891.665	43.86
891.836	-85.16
892.007	33.62
892.178	-9.39
892.349	-11.43
892.52	-11.43
892.691	-33.96
892.862	-25.77
893.032	-48.3
893.203	37.72
893.374	4.95
893.545	29.52
893.716	-7.34
893.887	60.24
894.057	-19.63
894.228	-40.11
894.399	-27.82
894.57	56.15
894.74	-17.58
894.911	33.62
895.082	-46.25
895.253	-52.39
895.423	2.9
895.594	86.87
895.764	4.95
895.935	-89.26
896.106	13.14
896.276	17.24
896.447	7
896.617	-29.87
896.788	-70.83
896.958	-62.63
897.129	-42.15
897.299	-27.82
897.47	-13.48
897.64	47.96
897.81	23.38
897.981	-11.43
898.151	0.85
898.322	76.63
898.492	4.95
898.662	-44.2
898.832	-81.07
899.003	21.33
899.173	15.19
899.343	2.9
899.513	39.76
