Data from USB4F104151__1__12-26-53-457.txt Node

Date: Fri Mar 14 12:26:53 EDT 2025
User: louis
Spectrometer: USB4F10415
Trigger mode: 4
Integration Time (sec): 2.000000E-2
Scans to average: 1
Electric dark correction enabled: true
Nonlinearity correction enabled: false
Boxcar width: 0
XAxis mode: Wavelengths
Number of Pixels in Spectrum: 3648
>>>>>Begin Spectral Data<<<<<
178.204	-33.28
178.424	-33.28
178.644	-33.28
178.864	-76.29
179.084	-43.52
179.304	-35.33
179.524	9.73
179.744	-10.75
179.964	32.26
180.184	-57.86
180.404	7.68
180.624	36.35
180.844	-35.33
181.064	-12.8
181.283	19.97
181.503	-0.51
181.723	46.59
181.943	-33.28
182.163	75.26
182.383	22.02
182.602	36.35
182.822	-6.66
183.042	-14.85
183.262	-14.85
183.482	36.35
183.701	-27.14
183.921	101.89
184.141	-0.51
184.361	44.54
184.58	32.26
184.8	101.89
185.02	58.88
185.239	-25.09
185.459	-2.56
185.679	62.98
185.898	-47.62
186.118	9.73
186.338	22.02
186.557	62.98
186.777	-6.66
186.997	60.93
187.216	-23.04
187.436	108.03
187.655	-0.51
187.875	69.12
188.095	-29.18
188.314	122.37
188.534	83.45
188.753	38.4
188.973	11.78
189.192	46.59
189.412	26.11
189.631	7.68
189.851	95.74
190.07	44.54
190.29	17.92
190.509	38.4
190.729	89.6
190.948	-6.66
191.168	99.84
191.387	105.98
191.607	1.54
191.826	42.5
192.045	32.26
192.265	-20.99
192.484	42.5
192.704	-39.42
192.923	-18.94
193.142	65.02
193.362	-12.8
193.581	42.5
193.8	50.69
194.02	-31.23
194.239	-0.51
194.458	-2.56
194.678	48.64
194.897	87.55
195.116	5.63
195.335	95.74
195.555	54.78
195.774	42.5
195.993	58.88
196.212	-14.85
196.432	5.63
196.651	99.84
196.87	-31.23
197.089	-27.14
197.308	-25.09
197.528	-53.76
197.747	65.02
197.966	75.26
198.185	42.5
198.404	30.21
198.623	38.4
198.842	42.5
199.062	46.59
199.281	60.93
199.5	34.3
199.719	-4.61
199.938	62.98
200.157	34.3
200.376	-18.94
200.595	19.97
200.814	5.63
201.033	-10.75
201.252	34.3
201.471	3.58
201.69	11.78
201.909	42.5
202.128	-0.51
202.347	79.36
202.566	1.54
202.785	40.45
203.004	38.4
203.223	22.02
203.442	13.82
203.661	-10.75
203.879	22.02
204.098	1.54
204.317	87.55
204.536	93.69
204.755	-31.23
204.974	3.58
205.193	-18.94
205.411	79.36
205.63	19.97
205.849	89.6
206.068	11.78
206.287	24.06
206.505	58.88
206.724	17.92
206.943	52.74
207.162	22.02
207.381	60.93
207.599	13.82
207.818	101.89
208.037	42.5
208.255	28.16
208.474	116.22
208.693	50.69
208.911	44.54
209.13	52.74
209.349	103.93
209.567	44.54
209.786	118.27
210.005	-14.85
210.223	54.78
210.442	-0.51
210.661	7.68
210.879	38.4
211.098	67.07
211.316	15.87
211.535	134.65
211.753	42.5
211.972	108.03
212.191	-8.7
212.409	42.5
212.628	83.45
212.846	-12.8
213.065	99.84
213.283	54.78
213.502	81.41
213.72	52.74
213.938	7.68
214.157	3.58
214.375	75.26
214.594	73.21
214.812	67.07
215.031	103.93
215.249	13.82
215.467	11.78
215.686	28.16
215.904	97.79
216.122	15.87
216.341	38.4
216.559	1.54
216.778	13.82
216.996	44.54
217.214	34.3
217.432	-33.28
217.651	67.07
217.869	-39.42
218.087	69.12
218.306	22.02
218.524	44.54
218.742	-55.81
218.96	85.5
219.179	-16.9
219.397	62.98
219.615	38.4
219.833	13.82
220.051	-37.38
220.27	28.16
220.488	42.5
220.706	85.5
220.924	81.41
221.142	38.4
221.36	-18.94
221.578	24.06
221.796	-8.7
222.015	7.68
222.233	38.4
222.451	108.03
222.669	-41.47
222.887	93.69
223.105	75.26
223.323	42.5
223.541	81.41
223.759	30.21
223.977	9.73
224.195	44.54
224.413	60.93
224.631	85.5
224.849	81.41
225.067	120.32
225.285	85.5
225.503	19.97
225.721	42.5
225.939	42.5
226.157	81.41
226.375	91.65
226.592	-43.52
226.81	-41.47
227.028	3.58
227.246	28.16
227.464	26.11
227.682	83.45
227.9	62.98
228.117	-10.75
228.335	-53.76
228.553	17.92
228.771	83.45
228.989	114.17
229.206	89.6
229.424	60.93
229.642	24.06
229.86	22.02
230.077	79.36
230.295	40.45
230.513	19.97
230.731	15.87
230.948	71.17
231.166	60.93
231.384	13.82
231.601	40.45
231.819	30.21
232.037	-0.51
232.254	-23.04
232.472	73.21
232.689	79.36
232.907	22.02
233.125	44.54
233.342	38.4
233.56	3.58
233.777	40.45
233.995	11.78
234.213	95.74
234.43	11.78
234.648	9.73
234.865	-23.04
235.083	-57.86
235.3	60.93
235.518	46.59
235.735	75.26
235.953	-16.9
236.17	81.41
236.388	13.82
236.605	28.16
236.822	54.78
237.04	108.03
237.257	42.5
237.475	19.97
237.692	24.06
237.909	5.63
238.127	73.21
238.344	32.26
238.562	108.03
238.779	13.82
238.996	91.65
239.214	28.16
239.431	71.17
239.648	32.26
239.865	48.64
240.083	34.3
240.3	38.4
240.517	65.02
240.735	9.73
240.952	-4.61
241.169	148.99
241.386	103.93
241.603	-12.8
241.821	40.45
242.038	52.74
242.255	118.27
242.472	38.4
242.689	77.31
242.907	87.55
243.124	22.02
243.341	22.02
243.558	-33.28
243.775	48.64
243.992	36.35
244.209	-16.9
244.426	44.54
244.643	48.64
244.86	44.54
245.078	24.06
245.295	79.36
245.512	108.03
245.729	34.3
245.946	40.45
246.163	40.45
246.38	99.84
246.597	87.55
246.814	46.59
247.031	69.12
247.248	52.74
247.464	26.11
247.681	19.97
247.898	62.98
248.115	128.51
248.332	-2.56
248.549	62.98
248.766	30.21
248.983	17.92
249.2	-0.51
249.417	30.21
249.633	9.73
249.85	38.4
250.067	60.93
250.284	24.06
250.501	60.93
250.717	24.06
250.934	48.64
251.151	93.69
251.368	34.3
251.585	79.36
251.801	13.82
252.018	13.82
252.235	44.54
252.451	44.54
252.668	26.11
252.885	36.35
253.102	81.41
253.318	32.26
253.535	11.78
253.752	52.74
253.968	34.3
254.185	26.11
254.401	1.54
254.618	48.64
254.835	11.78
255.051	60.93
255.268	56.83
255.484	52.74
255.701	34.3
255.917	17.92
256.134	67.07
256.351	40.45
256.567	-25.09
256.784	30.21
257	5.63
257.217	-23.04
257.433	34.3
257.65	65.02
257.866	62.98
258.082	22.02
258.299	32.26
258.515	89.6
258.732	15.87
258.948	60.93
259.165	48.64
259.381	-14.85
259.597	69.12
259.814	-80.38
260.03	26.11
260.246	9.73
260.463	83.45
260.679	52.74
260.895	1.54
261.112	75.26
261.328	89.6
261.544	34.3
261.761	38.4
261.977	5.63
262.193	32.26
262.409	38.4
262.626	9.73
262.842	71.17
263.058	91.65
263.274	32.26
263.49	-33.28
263.707	89.6
263.923	48.64
264.139	58.88
264.355	56.83
264.571	38.4
264.787	67.07
265.004	77.31
265.22	26.11
265.436	-6.66
265.652	75.26
265.868	69.12
266.084	1.54
266.3	44.54
266.516	79.36
266.732	-66.05
266.948	42.5
267.164	-33.28
267.38	65.02
267.596	101.89
267.812	34.3
268.028	28.16
268.244	73.21
268.46	81.41
268.676	67.07
268.892	32.26
269.108	19.97
269.324	15.87
269.54	-33.28
269.756	46.59
269.972	26.11
270.188	52.74
270.403	30.21
270.619	42.5
270.835	50.69
271.051	-6.66
271.267	38.4
271.483	-14.85
271.698	42.5
271.914	44.54
272.13	-25.09
272.346	62.98
272.562	15.87
272.777	-10.75
272.993	40.45
273.209	1.54
273.425	9.73
273.64	58.88
273.856	15.87
274.072	-2.56
274.287	65.02
274.503	-2.56
274.719	5.63
274.934	83.45
275.15	24.06
275.366	112.13
275.581	9.73
275.797	83.45
276.012	36.35
276.228	-18.94
276.444	13.82
276.659	62.98
276.875	-14.85
277.09	24.06
277.306	-35.33
277.521	-6.66
277.737	32.26
277.952	46.59
278.168	-23.04
278.383	46.59
278.599	19.97
278.814	112.13
279.03	120.32
279.245	22.02
279.461	1.54
279.676	46.59
279.892	-47.62
280.107	46.59
280.322	34.3
280.538	7.68
280.753	103.93
280.969	-4.61
281.184	38.4
281.399	54.78
281.615	30.21
281.83	60.93
282.045	11.78
282.26	58.88
282.476	24.06
282.691	26.11
282.906	30.21
283.122	91.65
283.337	9.73
283.552	34.3
283.767	13.82
283.983	44.54
284.198	71.17
284.413	140.8
284.628	56.83
284.843	71.17
285.058	69.12
285.274	42.5
285.489	-23.04
285.704	11.78
285.919	56.83
286.134	112.13
286.349	11.78
286.564	-6.66
286.779	30.21
286.995	30.21
287.21	-47.62
287.425	19.97
287.64	60.93
287.855	40.45
288.07	17.92
288.285	40.45
288.5	44.54
288.715	34.3
288.93	91.65
289.145	71.17
289.36	122.37
289.575	34.3
289.79	87.55
290.004	11.78
290.219	50.69
290.434	28.16
290.649	5.63
290.864	83.45
291.079	116.22
291.294	-8.7
291.509	-20.99
291.724	56.83
291.938	7.68
292.153	19.97
292.368	15.87
292.583	32.26
292.798	97.79
293.012	1.54
293.227	71.17
293.442	7.68
293.657	118.27
293.871	101.89
294.086	19.97
294.301	44.54
294.516	58.88
294.73	-49.66
294.945	-0.51
295.16	65.02
295.374	-20.99
295.589	54.78
295.804	40.45
296.018	95.74
296.233	36.35
296.447	15.87
296.662	40.45
296.877	120.32
297.091	5.63
297.306	130.56
297.52	87.55
297.735	40.45
297.949	32.26
298.164	-25.09
298.378	-23.04
298.593	52.74
298.807	30.21
299.022	1.54
299.236	52.74
299.451	69.12
299.665	13.82
299.88	11.78
300.094	11.78
300.309	54.78
300.523	34.3
300.737	30.21
300.952	83.45
301.166	44.54
301.381	-18.94
301.595	42.5
301.809	71.17
302.024	69.12
302.238	128.51
302.452	83.45
302.667	54.78
302.881	38.4
303.095	67.07
303.309	38.4
303.524	56.83
303.738	54.78
303.952	118.27
304.166	89.6
304.381	26.11
304.595	54.78
304.809	24.06
305.023	-37.38
305.237	-4.61
305.452	44.54
305.666	15.87
305.88	75.26
306.094	56.83
306.308	26.11
306.522	32.26
306.736	46.59
306.95	34.3
307.164	67.07
307.379	15.87
307.593	91.65
307.807	58.88
308.021	77.31
308.235	85.5
308.449	-16.9
308.663	-12.8
308.877	138.75
309.091	42.5
309.305	50.69
309.519	9.73
309.733	34.3
309.947	-45.57
310.161	40.45
310.374	46.59
310.588	40.45
310.802	87.55
311.016	44.54
311.23	-2.56
311.444	7.68
311.658	44.54
311.872	103.93
312.085	42.5
312.299	60.93
312.513	32.26
312.727	91.65
312.941	-31.23
313.154	52.74
313.368	24.06
313.582	-14.85
313.796	36.35
314.009	62.98
314.223	24.06
314.437	-12.8
314.651	75.26
314.864	-31.23
315.078	-64
315.292	15.87
315.505	26.11
315.719	93.69
315.933	36.35
316.146	-4.61
316.36	32.26
316.573	28.16
316.787	52.74
317.001	28.16
317.214	48.64
317.428	44.54
317.641	54.78
317.855	99.84
318.068	30.21
318.282	40.45
318.495	58.88
318.709	65.02
318.922	15.87
319.136	103.93
319.349	24.06
319.563	-27.14
319.776	52.74
319.99	30.21
320.203	87.55
320.417	19.97
320.63	75.26
320.843	87.55
321.057	46.59
321.27	30.21
321.483	5.63
321.697	48.64
321.91	30.21
322.124	67.07
322.337	30.21
322.55	89.6
322.763	42.5
322.977	112.13
323.19	26.11
323.403	52.74
323.617	75.26
323.83	73.21
324.043	-33.28
324.256	46.59
324.469	-47.62
324.683	48.64
324.896	44.54
325.109	65.02
325.322	40.45
325.535	112.13
325.748	48.64
325.962	36.35
326.175	5.63
326.388	-4.61
326.601	-8.7
326.814	126.46
327.027	89.6
327.24	32.26
327.453	-14.85
327.666	108.03
327.879	73.21
328.092	5.63
328.305	48.64
328.518	95.74
328.731	60.93
328.944	-6.66
329.157	-59.9
329.37	28.16
329.583	75.26
329.796	120.32
330.009	17.92
330.222	3.58
330.435	58.88
330.648	34.3
330.861	69.12
331.073	28.16
331.286	120.32
331.499	-33.28
331.712	-6.66
331.925	15.87
332.138	58.88
332.35	75.26
332.563	46.59
332.776	69.12
332.989	-70.14
333.202	44.54
333.414	48.64
333.627	81.41
333.84	62.98
334.053	32.26
334.265	67.07
334.478	15.87
334.691	105.98
334.903	-49.66
335.116	-12.8
335.329	69.12
335.541	134.65
335.754	44.54
335.966	97.79
336.179	69.12
336.392	7.68
336.604	75.26
336.817	54.78
337.029	116.22
337.242	5.63
337.454	60.93
337.667	44.54
337.88	112.13
338.092	67.07
338.305	69.12
338.517	110.08
338.729	79.36
338.942	95.74
339.154	62.98
339.367	83.45
339.579	24.06
339.792	15.87
340.004	58.88
340.217	44.54
340.429	91.65
340.641	69.12
340.854	34.3
341.066	58.88
341.278	26.11
341.491	103.93
341.703	101.89
341.915	97.79
342.128	112.13
342.34	50.69
342.552	-2.56
342.764	-6.66
342.977	44.54
343.189	62.98
343.401	36.35
343.613	56.83
343.826	87.55
344.038	11.78
344.25	101.89
344.462	34.3
344.674	69.12
344.886	17.92
345.099	65.02
345.311	9.73
345.523	91.65
345.735	32.26
345.947	44.54
346.159	120.32
346.371	67.07
346.583	-12.8
346.795	136.7
347.007	-8.7
347.219	69.12
347.431	40.45
347.643	148.99
347.855	17.92
348.067	58.88
348.279	44.54
348.491	26.11
348.703	34.3
348.915	50.69
349.127	-12.8
349.339	83.45
349.551	13.82
349.763	79.36
349.975	-12.8
350.187	91.65
350.399	19.97
350.61	103.93
350.822	73.21
351.034	69.12
351.246	116.22
351.458	40.45
351.669	32.26
351.881	62.98
352.093	56.83
352.305	108.03
352.517	22.02
352.728	85.5
352.94	77.31
353.152	38.4
353.363	19.97
353.575	110.08
353.787	97.79
353.999	77.31
354.21	5.63
354.422	97.79
354.633	38.4
354.845	40.45
355.057	9.73
355.268	101.89
355.48	52.74
355.692	28.16
355.903	32.26
356.115	11.78
356.326	-10.75
356.538	161.28
356.749	32.26
356.961	1.54
357.172	9.73
357.384	36.35
357.595	87.55
357.807	9.73
358.018	44.54
358.23	28.16
358.441	34.3
358.653	-0.51
358.864	48.64
359.075	81.41
359.287	54.78
359.498	87.55
359.709	105.98
359.921	99.84
360.132	71.17
360.344	50.69
360.555	13.82
360.766	85.5
360.977	81.41
361.189	48.64
361.4	5.63
361.611	36.35
361.823	124.41
362.034	130.56
362.245	15.87
362.456	-6.66
362.667	110.08
362.879	79.36
363.09	75.26
363.301	81.41
363.512	3.58
363.723	110.08
363.935	48.64
364.146	93.69
364.357	48.64
364.568	11.78
364.779	77.31
364.99	105.98
365.201	28.16
365.412	54.78
365.623	34.3
365.834	142.85
366.045	95.74
366.256	101.89
366.467	101.89
366.678	44.54
366.889	52.74
367.1	95.74
367.311	30.21
367.522	19.97
367.733	87.55
367.944	89.6
368.155	58.88
368.366	34.3
368.577	71.17
368.788	91.65
368.999	54.78
369.209	38.4
369.42	99.84
369.631	97.79
369.842	56.83
370.053	101.89
370.264	9.73
370.474	9.73
370.685	71.17
370.896	99.84
371.107	93.69
371.317	83.45
371.528	40.45
371.739	120.32
371.95	67.07
372.16	110.08
372.371	103.93
372.582	118.27
372.792	48.64
373.003	28.16
373.214	48.64
373.424	-4.61
373.635	58.88
373.846	93.69
374.056	69.12
374.267	17.92
374.477	17.92
374.688	91.65
374.898	60.93
375.109	40.45
375.319	50.69
375.53	69.12
375.74	5.63
375.951	79.36
376.161	1.54
376.372	81.41
376.582	134.65
376.793	73.21
377.003	36.35
377.214	54.78
377.424	67.07
377.635	60.93
377.845	54.78
378.055	89.6
378.266	58.88
378.476	95.74
378.686	89.6
378.897	30.21
379.107	38.4
379.317	112.13
379.528	-39.42
379.738	101.89
379.948	38.4
380.158	101.89
380.369	103.93
380.579	159.23
380.789	19.97
380.999	62.98
381.21	22.02
381.42	122.37
381.63	75.26
381.84	26.11
382.05	50.69
382.261	75.26
382.471	132.61
382.681	50.69
382.891	85.5
383.101	40.45
383.311	-20.99
383.521	28.16
383.731	40.45
383.941	112.13
384.151	15.87
384.361	89.6
384.571	32.26
384.781	17.92
384.991	108.03
385.201	110.08
385.411	-20.99
385.621	67.07
385.831	38.4
386.041	62.98
386.251	13.82
386.461	52.74
386.671	-6.66
386.881	13.82
387.091	44.54
387.301	126.46
387.511	110.08
387.72	91.65
387.93	32.26
388.14	54.78
388.35	89.6
388.56	114.17
388.769	155.13
388.979	46.59
389.189	40.45
389.399	62.98
389.609	24.06
389.818	69.12
390.028	95.74
390.238	48.64
390.447	52.74
390.657	17.92
390.867	34.3
391.076	99.84
391.286	5.63
391.496	36.35
391.705	24.06
391.915	52.74
392.125	93.69
392.334	48.64
392.544	99.84
392.753	60.93
392.963	65.02
393.172	142.85
393.382	26.11
393.591	122.37
393.801	91.65
394.01	81.41
394.22	89.6
394.429	46.59
394.639	46.59
394.848	134.65
395.058	81.41
395.267	58.88
395.477	91.65
395.686	110.08
395.895	91.65
396.105	132.61
396.314	87.55
396.524	73.21
396.733	73.21
396.942	60.93
397.152	62.98
397.361	71.17
397.57	126.46
397.78	105.98
397.989	81.41
398.198	146.94
398.407	85.5
398.617	101.89
398.826	67.07
399.035	87.55
399.244	73.21
399.453	200.19
399.663	136.7
399.872	89.6
400.081	85.5
400.29	75.26
400.499	112.13
400.708	200.19
400.917	77.31
401.127	206.33
401.336	67.07
401.545	208.38
401.754	87.55
401.963	95.74
402.172	142.85
402.381	120.32
402.59	93.69
402.799	81.41
403.008	128.51
403.217	142.85
403.426	103.93
403.635	71.17
403.844	132.61
404.053	126.46
404.262	105.98
404.471	114.17
404.68	196.09
404.888	171.52
405.097	169.47
405.306	210.43
405.515	173.57
405.724	153.09
405.933	161.28
406.142	142.85
406.35	196.09
406.559	226.81
406.768	179.71
406.977	255.48
407.185	175.61
407.394	243.2
407.603	161.28
407.812	235
408.02	224.76
408.229	222.72
408.438	271.87
408.646	269.82
408.855	232.96
409.064	235
409.272	249.34
409.481	292.35
409.69	245.24
409.898	290.3
410.107	265.72
410.315	335.35
410.524	331.26
410.733	368.12
410.941	402.94
411.15	411.13
411.358	388.6
411.567	491
411.775	325.12
411.984	345.59
412.192	417.27
412.401	499.19
412.609	458.23
412.818	519.67
413.026	525.82
413.234	544.25
413.443	529.91
413.651	644.6
413.86	570.87
414.068	603.64
414.276	640.5
414.485	544.25
414.693	695.8
414.901	663.03
415.11	720.37
415.318	683.51
415.526	808.44
415.734	714.23
415.943	828.92
416.151	869.87
416.359	800.24
416.567	808.44
416.776	902.64
416.984	982.51
417.192	966.13
417.4	1002.99
417.608	1017.33
417.817	1013.23
418.025	1015.28
418.233	1201.65
418.441	1011.18
418.649	1181.17
418.857	1246.7
419.065	1283.56
419.273	1345
419.481	1332.72
419.689	1338.86
419.897	1517.03
420.105	1533.42
420.313	1560.04
420.521	1617.38
420.729	1551.85
420.937	1738.21
421.145	1664.49
421.353	1830.37
421.561	1877.48
421.769	1992.16
421.977	2102.75
422.185	2047.46
422.393	2201.05
422.601	2301.4
422.809	2375.13
423.017	2211.29
423.224	2375.13
423.432	2315.74
423.64	2518.49
423.848	2702.81
424.056	2536.92
424.263	2751.96
424.471	2797.01
424.679	3003.86
424.887	2928.08
425.094	3096.02
425.302	3231.18
425.51	3352.01
425.718	3464.65
425.925	3309.01
426.133	3694.02
426.341	3823.05
426.548	3933.64
426.756	3878.34
426.964	3956.16
427.171	4124.1
427.379	4267.45
427.586	4304.32
427.794	4517.31
428.001	4824.5
428.209	5010.87
428.417	4789.69
428.624	5316.01
428.832	5186.99
429.039	5060.02
429.247	5139.89
429.454	5604.78
429.662	6075.81
429.869	5676.46
430.076	6290.85
430.284	5805.48
430.491	6243.74
430.699	6495.64
430.906	6620.57
431.114	6557.08
431.321	6911.38
431.528	6946.2
431.736	7474.57
431.943	7716.23
432.15	7372.18
432.358	7712.14
432.565	8105.35
432.772	8146.31
432.979	8531.33
433.187	8465.79
433.394	8668.54
433.601	9258.35
433.808	9137.52
434.016	9246.07
434.223	9641.32
434.43	10118.5
434.637	10030.44
434.844	10839.39
435.052	10820.95
435.259	10825.05
435.466	10827.1
435.673	10700.12
435.88	11496.78
436.087	12336.45
436.294	12203.33
436.501	11875.66
436.708	12313.92
436.915	12354.88
437.122	13163.83
437.329	12778.81
437.537	13413.68
437.743	13759.79
437.95	13790.51
438.157	14550.31
438.364	14800.16
438.571	14763.29
438.778	14691.62
438.985	16061.71
439.192	15537.43
439.399	16051.47
439.606	15750.42
439.813	16715.01
440.02	17566.96
440.227	17360.12
440.433	17186.04
440.64	17671.41
440.847	17669.36
441.054	18212.07
441.261	19516.63
441.467	18959.58
441.674	19391.7
441.881	19969.23
442.088	20065.49
442.294	19829.97
442.501	20737.22
442.708	21011.65
442.914	21689.53
443.121	22566.06
443.328	22052.02
443.534	23549.08
443.741	23045.28
443.948	22619.3
444.154	24597.64
444.361	24280.21
444.568	24114.32
444.774	24374.41
444.981	24646.79
445.187	25349.25
445.394	26201.2
445.6	26365.04
445.807	29031.49
446.013	27382.88
446.22	27815
446.426	29455.42
446.633	29092.93
446.839	30477.36
447.046	29494.33
447.252	30637.1
447.459	30837.8
447.665	30473.26
447.871	32025.62
448.078	33623.04
448.284	31927.32
448.491	32390.16
448.697	33868.8
448.903	34227.19
449.11	34903.02
449.316	34171.89
449.522	34849.77
449.728	36062.17
449.935	36332.5
450.141	35810.27
450.347	37137.35
450.553	35611.62
450.76	36180.95
450.966	37532.61
451.172	36955.08
451.378	37944.25
451.584	36942.8
451.791	38261.69
451.997	38046.65
452.203	38589.36
452.409	38593.46
452.615	38247.35
452.821	36969.42
453.027	36496.34
453.233	38308.79
453.44	36983.76
453.646	37757.89
453.852	37397.45
454.058	38265.78
454.264	36936.65
454.47	38108.09
454.676	37127.11
454.882	38171.58
455.088	35091.43
455.294	35425.25
455.5	36013.02
455.705	36461.52
455.911	35021.8
456.117	34544.62
456.323	33987.58
456.529	32203.8
456.735	33156.1
456.941	32707.6
457.147	32107.54
457.352	30852.14
457.558	30880.81
457.764	31081.51
457.97	30434.35
458.176	29746.23
458.381	29766.71
458.587	28185.68
458.793	28154.96
458.999	26737.77
459.204	28685.39
459.41	28245.07
459.616	26168.43
459.821	26041.46
460.027	26252.4
460.233	25375.87
460.438	24501.39
460.644	24374.41
460.85	23329.95
461.055	23190.69
461.261	22932.64
461.466	21042.37
461.672	20612.29
461.878	22074.54
462.083	20726.98
462.289	20395.21
462.494	19979.47
462.7	19254.49
462.905	18549.99
463.111	19295.45
463.316	19406.04
463.522	18928.86
463.727	19043.55
463.932	19039.45
464.138	18605.28
464.343	18795.75
464.549	18580.71
464.754	19223.77
464.959	18826.46
465.165	18584.8
465.37	17904.88
465.575	17450.23
465.781	18013.42
465.986	18373.86
466.191	17505.52
466.397	17149.18
466.602	16399.62
466.807	17102.08
467.012	17046.78
467.218	16854.27
467.423	16745.73
467.628	16659.71
467.833	17702.13
468.038	16966.91
468.244	16475.4
468.449	17261.82
468.654	16463.11
468.859	16262.41
469.064	16311.56
469.269	15795.47
469.474	15717.65
469.679	16319.75
469.885	15617.3
470.09	15942.92
470.295	15686.93
470.5	15336.73
470.705	15504.66
470.91	15121.69
471.115	14941.47
471.32	15422.74
471.525	15117.59
471.73	14908.7
471.935	14621.98
472.139	14286.12
472.344	14335.27
472.549	14167.34
472.754	14144.81
472.959	13903.15
473.164	13600.05
473.369	13514.03
473.574	13837.61
473.778	13749.55
473.983	13602.1
474.188	13454.64
474.393	12985.66
474.598	13049.14
474.802	12979.51
475.007	12893.5
475.212	12690.75
475.417	12440.9
475.621	12432.71
475.826	12651.84
476.031	12137.8
476.235	12041.54
476.44	12217.67
476.645	11705.68
476.849	11967.82
477.054	11806.03
477.259	11648.33
477.463	11558.22
477.668	11232.6
477.872	11433.3
478.077	11443.54
478.282	10884.44
478.486	10784.09
478.691	10823
478.895	10712.41
479.1	10642.78
479.304	10751.32
479.509	10417.51
479.713	10870.11
479.918	10421.6
480.122	10229.09
480.326	10511.71
480.531	10390.88
480.735	10321.25
480.94	10067.3
481.144	10509.66
481.348	10012.01
481.553	10016.1
481.757	9952.62
481.961	10143.08
482.166	10335.59
482.37	10153.32
482.574	10005.86
482.778	10044.77
482.983	10143.08
483.187	10163.56
483.391	10104.17
483.595	10085.73
483.8	9962.86
484.004	10038.63
484.208	10130.79
484.412	9928.04
484.616	10159.46
484.821	10040.68
485.025	9721.2
485.229	9993.58
485.433	9911.66
485.637	10034.53
485.841	9794.92
486.045	9909.61
486.249	9940.33
486.453	9942.38
486.657	9846.12
486.861	10009.96
487.065	9780.59
487.269	9753.96
487.473	9887.08
487.677	10042.73
487.881	9917.8
488.085	10020.2
488.289	10104.17
488.493	9985.38
488.697	10001.77
488.901	10020.2
489.105	10177.89
489.309	10208.61
489.512	10106.21
489.716	10200.42
489.92	10212.71
490.124	9973.1
490.328	10298.72
490.531	10200.42
490.735	10349.92
490.939	10298.72
491.143	10169.7
491.346	10247.52
491.55	10446.18
491.754	10311.01
491.958	10538.34
492.161	10460.51
492.365	10460.51
492.569	10562.91
492.772	10544.48
492.976	10691.93
493.18	10685.79
493.383	10849.63
493.587	10802.52
493.79	10835.29
493.994	10751.32
494.197	11079
494.401	11296.08
494.605	11046.23
494.808	11423.06
495.012	11203.93
495.215	11304.28
495.419	11480.4
495.622	11271.51
495.825	11480.4
496.029	11871.56
496.232	11814.22
496.436	11666.77
496.639	12174.66
496.843	12012.87
497.046	12508.48
497.249	12092.74
497.453	12537.15
497.656	12533.06
497.859	12483.91
498.063	12807.48
498.266	12963.13
498.469	13071.67
498.673	13184.31
498.876	13309.24
499.079	13415.73
499.282	13524.27
499.485	13708.59
499.689	13712.69
499.892	13866.28
500.095	14140.71
500.298	14447.91
500.501	14415.14
500.705	14370.08
500.908	14597.41
501.111	14798.11
501.314	15203.61
501.517	14970.14
501.72	15369.49
501.923	15320.34
502.126	15768.85
502.329	15846.67
502.532	16055.56
502.735	15953.16
502.938	16327.94
503.141	16512.26
503.344	16538.88
503.547	16743.68
503.75	17227
503.953	17382.65
504.156	17411.32
504.359	17628.4
504.562	17560.82
504.765	17861.87
504.968	18058.48
505.17	18638.05
505.373	18339.05
505.576	18674.92
505.779	19074.27
505.982	19021.02
506.185	19479.77
506.387	19741.91
506.59	19750.1
506.793	20028.62
506.996	19858.64
507.198	20729.03
507.401	20419.78
507.604	20557
507.807	20939.97
508.009	21263.55
508.212	21105.85
508.415	21671.09
508.617	22021.3
508.82	21791.92
509.022	21771.44
509.225	22508.71
509.428	22717.61
509.63	22918.31
509.833	23174.3
510.035	23288.99
510.238	23243.93
510.44	23690.39
510.643	23807.12
510.845	24138.9
511.048	24120.46
511.25	24130.7
511.453	24630.41
511.655	25361.53
511.858	25158.78
512.06	25318.53
512.262	25777.27
512.465	25652.34
512.667	26068.08
512.87	26256.5
513.072	26557.55
513.274	27098.21
513.477	27090.02
513.679	27012.2
513.881	27741.27
514.084	27389.02
514.286	28163.15
514.488	28036.18
514.69	28529.74
514.893	28925
515.095	28990.53
515.297	29357.12
515.499	29410.37
515.701	29731.9
515.904	29813.82
516.106	30262.32
516.308	30401.58
516.51	30788.65
516.712	30616.62
516.914	31218.72
517.116	31460.38
517.318	32009.24
517.52	32066.58
517.722	31757.34
517.925	32390.16
518.127	32930.83
518.329	33016.84
518.531	32992.26
518.733	33649.66
518.935	33651.71
519.136	33686.53
519.338	34348.02
519.54	34468.85
519.742	34712.56
519.944	34663.41
520.146	35077.1
520.348	35587.04
520.55	35601.38
520.752	35443.68
520.954	36230.1
521.155	35984.35
521.357	36508.63
521.559	37034.95
521.761	37372.87
521.963	36834.25
522.164	37227.46
522.366	37481.41
522.568	38243.26
522.77	38329.27
522.971	38364.09
523.173	38470.58
523.375	38955.95
523.576	38857.65
523.778	39074.73
523.98	39504.81
524.181	39414.69
524.383	39426.98
524.584	39945.12
524.786	39875.49
524.988	39988.13
525.189	40487.83
525.391	40811.41
525.592	40835.98
525.794	40872.85
525.995	41198.48
526.197	41237.39
526.398	41399.18
526.6	41718.66
526.801	41802.63
527.003	41902.98
527.204	42109.82
527.406	41890.69
527.607	41970.56
527.808	42158.97
528.01	42240.89
528.211	42169.21
528.412	42765.17
528.614	42759.03
528.815	42736.5
529.016	42998.64
529.218	42515.32
529.419	42978.16
529.62	43369.32
529.822	42947.44
530.023	43293.55
530.224	43516.78
530.425	43273.07
530.626	43225.96
530.828	43197.29
531.029	43905.89
531.23	43248.49
531.431	43697
531.632	43662.18
531.833	44043.1
532.035	43899.75
532.236	44045.15
532.437	44028.77
532.638	43535.21
532.839	44094.3
533.04	44157.79
533.241	43809.64
533.442	44528.47
533.643	44059.49
533.844	44098.4
534.045	43973.47
534.246	43588.45
534.447	43924.32
534.648	43895.65
534.849	44016.48
535.05	44079.97
535.251	44104.54
535.451	43930.47
535.652	44227.42
535.853	43920.23
536.054	44372.83
536.255	44563.29
536.456	43989.86
536.657	44989.27
536.857	44127.07
537.058	43686.76
537.259	44731.22
537.46	44553.05
537.66	44225.37
537.861	44368.73
538.062	43815.78
538.263	44297.05
538.463	43930.47
538.664	44217.18
538.865	44501.85
539.065	44639.06
539.266	44008.29
539.466	44579.67
539.667	43795.3
539.868	44645.21
540.068	44860.24
540.269	44174.17
540.469	44327.77
540.67	44272.48
540.87	44106.59
541.071	44196.7
541.271	44245.85
541.472	44397.4
541.672	44225.37
541.873	43815.78
542.073	43619.17
542.274	44348.25
542.474	43760.48
542.675	43490.15
542.875	44252
543.075	44141.41
543.276	43428.71
543.476	44555.1
543.676	44028.77
543.877	44141.41
544.077	44135.26
544.277	43973.47
544.478	43615.08
544.678	44460.89
544.878	43731.81
545.078	44196.7
545.279	43684.71
545.479	44024.67
545.679	44174.17
545.879	43772.77
546.079	44172.13
546.28	44344.16
546.48	43461.48
546.68	44079.97
546.88	43879.27
547.08	44206.94
547.28	43535.21
547.48	43340.65
547.68	43588.45
547.88	43432.81
548.081	43967.33
548.281	43803.49
548.481	44034.91
548.681	43993.95
548.881	43969.38
549.081	43772.77
549.28	43645.8
549.48	44059.49
549.68	43789.16
549.88	44415.83
550.08	43811.68
550.28	43711.33
550.48	43971.43
550.68	44354.4
550.88	43844.45
551.08	43596.65
551.279	43989.86
551.479	43527.02
551.679	43748.2
551.879	43420.52
552.079	43871.07
552.278	43737.96
552.478	44026.72
552.678	43821.92
552.878	43830.12
553.077	43699.05
553.277	43236.2
553.477	43836.26
553.676	43832.16
553.876	43514.73
554.076	43510.63
554.275	43617.13
554.475	43201.39
554.674	43600.74
554.874	43580.26
555.074	43475.82
555.273	43348.84
555.473	43912.03
555.672	43090.8
555.872	43182.96
556.071	43170.67
556.271	43858.79
556.47	43078.51
556.67	42894.19
556.869	42982.26
557.068	43441
557.268	42916.72
557.467	43266.92
557.667	42969.97
557.866	43072.37
558.065	43309.93
558.265	42859.38
558.464	42732.4
558.663	43064.17
558.863	42840.95
559.062	43330.41
559.261	42675.06
559.461	42804.08
559.66	42625.91
559.859	42679.16
560.058	42447.74
560.258	42380.15
560.457	42537.85
560.656	42511.22
560.855	42417.02
561.054	42519.42
561.253	42032
561.453	42371.96
561.652	42533.75
561.851	42226.56
562.05	42103.68
562.249	41896.83
562.448	42529.66
562.647	41900.93
562.846	41874.31
563.045	41978.75
563.244	41591.69
563.443	42417.02
563.642	41091.98
563.841	42101.63
564.04	41747.33
564.239	42187.64
564.438	41538.44
564.637	41907.07
564.836	41698.18
565.035	40919.95
565.234	41624.45
565.432	41077.65
565.631	41393.03
565.83	41579.4
566.029	41141.13
566.228	40919.95
566.427	41128.84
566.625	40819.6
566.824	40577.94
567.023	41098.12
567.222	40156.06
567.42	41030.54
567.619	40723.35
567.818	40512.41
568.016	40381.34
568.215	40915.86
568.414	40274.84
568.612	40768.4
568.811	40266.65
569.01	40471.45
569.208	39877.54
569.407	40833.94
569.605	39693.22
569.804	40342.42
570.002	40104.86
570.201	40084.38
570.4	39615.4
570.598	39902.11
570.797	39578.53
570.995	39859.1
571.193	39609.25
571.392	39795.62
571.59	39568.29
571.789	39510.95
571.987	39412.65
572.186	39496.61
572.384	39297.96
572.582	39515.05
572.781	39383.98
572.979	38745.01
573.177	39226.28
573.376	38958
573.574	38546.36
573.772	38855.6
573.971	38773.68
574.169	38740.91
574.367	38699.95
574.565	38736.82
574.763	38462.39
574.962	38161.34
575.16	37962.68
575.358	38001.6
575.556	38132.67
575.754	38556.6
575.952	37473.22
576.151	38462.39
576.349	37764.03
576.547	37602.24
576.745	37737.41
576.943	37622.72
577.141	37624.77
577.339	37751.74
577.537	37475.27
577.735	37456.84
577.933	36912.08
578.131	37532.61
578.329	37114.83
578.527	37153.74
578.725	36953.04
578.923	36850.64
579.121	36991.95
579.319	36750.29
579.516	36807.63
579.714	36422.61
579.912	36740.05
580.11	36332.5
580.308	36436.95
580.506	36195.29
580.704	35953.63
580.901	36266.97
581.099	36219.86
581.297	36113.37
581.495	36056.03
581.692	35986.39
581.89	35591.14
582.088	35857.37
582.285	35423.2
582.483	35822.56
582.681	35693.54
582.878	35634.14
583.076	35165.16
583.274	35441.64
583.471	34745.33
583.669	35052.52
583.866	34929.64
584.064	35089.38
584.262	34722.8
584.459	34946.03
584.657	34794.48
584.854	35073
585.052	34474.99
585.249	34636.78
585.447	34470.9
585.644	34130.94
585.841	34384.88
586.039	34405.36
586.236	33825.79
586.434	34067.45
586.631	33817.6
586.828	34053.11
587.026	33838.08
587.223	33293.32
587.42	33545.22
587.618	33985.53
587.815	33293.32
588.012	33401.86
588.21	33350.66
588.407	33659.9
588.604	32918.54
588.801	33049.61
588.999	33008.65
589.196	32615.44
589.393	32689.17
589.59	32613.39
589.787	32713.74
589.984	32560.14
590.182	32427.03
590.379	32242.71
590.576	32093.21
590.773	32564.24
590.97	32115.73
591.167	32412.69
591.364	31904.79
591.561	32144.41
591.758	31700
591.955	31925.27
592.152	32009.24
592.349	31564.83
592.546	31564.83
592.743	31790.11
592.94	31220.77
593.137	31247.4
593.334	31517.73
593.531	30833.71
593.727	31175.72
593.924	31015.97
594.121	30712.88
594.318	30845.99
594.515	30512.17
594.712	30929.96
594.908	30671.92
595.105	31241.25
595.302	30086.2
595.499	30692.4
595.696	30231.6
595.892	29893.69
596.089	30151.73
596.286	30059.57
596.482	29715.51
596.679	29973.56
596.876	29901.88
597.072	29602.88
597.269	29973.56
597.466	29690.94
597.662	29705.27
597.859	29312.06
598.055	29019.21
598.252	29547.58
598.448	29267.01
598.645	29211.71
598.841	29056.07
599.038	28736.59
599.234	28945.48
599.431	28961.86
599.627	28914.76
599.824	28742.73
600.02	28398.67
600.217	28601.42
600.413	28523.6
600.609	28474.45
600.806	28261.46
601.002	28335.18
601.198	28197.97
601.395	27927.64
601.591	27872.34
601.787	27976.79
601.984	27509.85
602.18	27890.77
602.376	27511.9
602.572	27112.55
602.769	27659.35
602.965	27118.69
603.161	27688.03
603.357	27339.87
603.553	27559
603.75	27051.11
603.946	26791.02
604.142	27143.27
604.338	26766.44
604.534	26872.93
604.73	26633.32
604.926	26729.58
605.122	26645.61
605.318	26674.28
605.514	26463.34
605.71	26055.79
605.906	26561.64
606.102	26362.99
606.298	26223.73
606.494	26326.13
606.69	26256.5
606.886	26131.57
607.082	25889.91
607.278	25984.12
607.474	25803.89
607.67	25652.34
607.866	25588.86
608.062	25855.09
608.257	25932.92
608.453	25425.02
608.649	25447.55
608.845	25623.67
609.041	25416.83
609.236	25664.63
609.432	25463.93
609.628	24984.71
609.824	25250.94
610.019	25435.26
610.215	25298.05
610.411	25398.4
610.606	25355.39
610.802	25009.28
610.998	25279.61
611.193	25052.29
611.389	25052.29
611.584	25025.67
611.78	24874.12
611.976	24671.37
612.171	24935.56
612.367	24847.49
612.562	24892.55
612.758	24501.39
612.953	24358.03
613.149	24597.64
613.344	24259.73
613.539	24697.99
613.735	24661.13
613.93	24650.89
614.126	24407.18
614.321	24724.61
614.517	24568.97
614.712	24470.67
614.907	24245.39
615.103	24192.14
615.298	24165.52
615.493	24298.64
615.688	23870.61
615.884	24728.71
616.079	24071.31
616.274	24067.22
616.47	24485
616.665	24300.69
616.86	24269.97
617.055	24032.4
617.25	23645.34
617.445	23764.12
617.641	23434.39
617.836	23663.77
618.031	23540.89
618.226	23422.11
618.421	23385.24
618.616	23540.89
618.811	23229.6
619.006	23698.58
619.201	22781.09
619.396	23065.76
619.591	22981.79
619.786	23110.82
619.981	22570.15
620.176	22686.89
620.371	22373.55
620.566	22693.03
620.761	22256.81
620.956	22533.29
621.151	22273.2
621.346	22428.84
621.541	21836.98
621.735	22111.41
621.93	21613.75
622.125	21955.76
622.32	21238.97
622.515	21664.95
622.709	21400.76
622.904	21552.31
623.099	21140.67
623.294	21247.16
623.488	20800.71
623.683	21462.2
623.878	20769.99
624.072	20821.19
624.267	20673.73
624.462	20667.59
624.656	20532.42
624.851	20507.85
625.046	20468.94
625.24	20217.04
625.435	20110.54
625.629	20110.54
625.824	19723.48
626.018	19698.9
626.213	19410.14
626.407	19733.71
626.602	19250.39
626.796	19616.98
626.991	19389.66
627.185	19254.49
627.38	19045.6
627.574	18836.7
627.768	18894.05
627.963	18846.94
628.157	18599.14
628.352	18773.22
628.546	18353.38
628.74	18474.21
628.935	18242.79
629.129	18388.2
629.323	17976.56
629.517	17974.51
629.712	17986.8
629.906	17620.21
630.1	17769.71
630.294	17792.24
630.489	17552.63
630.683	17661.17
630.877	17112.31
631.071	17079.55
631.265	17267.96
631.459	16895.23
631.653	17227
631.848	16803.07
632.042	16782.59
632.236	16751.87
632.43	16786.69
632.624	16534.79
632.818	16542.98
633.012	16393.48
633.206	16338.18
633.4	16411.91
633.594	16010.51
633.788	16248.07
633.982	16000.27
634.176	16049.42
634.369	15750.42
634.563	15842.57
634.757	15863.05
634.951	15723.79
635.145	15543.57
635.339	15551.76
635.533	15660.31
635.726	15447.32
635.92	15125.79
636.114	15340.82
636.308	14998.81
636.501	15002.91
636.695	15086.87
636.889	14644.51
637.083	14982.43
637.276	14720.29
637.47	14599.46
637.664	14693.66
637.857	14527.78
638.051	14681.38
638.244	14296.36
638.438	14443.81
638.632	14273.83
638.825	14175.53
639.019	14153
639.212	14073.13
639.406	13962.54
639.599	14216.49
639.793	13964.59
639.986	13800.75
640.18	13524.27
640.373	13679.92
640.567	13325.62
640.76	13792.56
640.954	13563.19
641.147	13348.15
641.34	13342
641.534	13231.41
641.727	13301.05
641.92	13200.69
642.114	13096.25
642.307	12944.7
642.5	13032.76
642.694	12731.71
642.887	12825.92
643.08	12950.84
643.273	12723.52
643.467	12772.67
643.66	12524.86
643.853	12578.11
644.046	12502.34
644.239	12270.92
644.432	12336.45
644.626	12209.48
644.819	11998.54
645.012	12105.03
645.205	12121.42
645.398	12045.64
645.591	11926.86
645.784	11984.2
645.977	11806.03
646.17	11767.12
646.363	11935.05
646.556	11537.74
646.749	11670.86
646.942	11525.46
647.135	11351.38
647.328	11341.14
647.521	11363.67
647.714	11103.57
647.907	11230.55
648.099	11310.42
648.292	11201.88
648.485	11275.6
648.678	10980.7
648.871	11056.47
649.064	10949.98
649.256	10857.82
649.449	10896.73
649.642	10741.08
649.835	10612.06
650.027	10659.17
650.22	10409.31
650.413	10354.02
650.605	10366.31
650.798	10571.1
650.991	10292.58
651.183	10499.42
651.376	10151.27
651.568	10145.13
651.761	10253.67
651.954	10175.84
652.146	10270.05
652.339	9844.07
652.531	10038.63
652.724	9842.03
652.916	9782.63
653.109	9858.41
653.301	9813.35
653.494	9665.9
653.686	9608.56
653.879	9829.74
654.071	9661.8
654.263	9559.41
654.456	9321.84
654.648	9418.1
654.84	9299.31
655.033	9315.7
655.225	9303.41
655.417	9098.61
655.61	9063.8
655.802	9139.57
655.994	9127.28
656.186	9131.38
656.379	8977.78
656.571	9057.65
656.763	8912.25
656.955	8881.53
657.148	8834.43
657.34	9000.31
657.532	8633.72
657.724	8510.85
657.916	8553.85
658.108	8480.13
658.3	8562.05
658.492	8727.93
658.684	8422.78
658.876	8383.87
659.068	8465.79
659.26	8281.47
659.452	8203.65
659.644	8258.95
659.836	8273.28
660.028	8238.47
660.22	7972.23
660.412	8222.08
660.604	8080.77
660.796	7957.89
660.988	8084.87
661.18	7824.78
661.372	7900.55
661.563	7802.25
661.755	7802.25
661.947	7955.85
662.139	7867.78
662.331	7587.21
662.522	7697.8
662.714	7572.88
662.906	7484.81
663.097	7536.01
663.289	7429.52
663.481	7574.92
663.673	7556.49
663.864	7341.46
664.056	7222.67
664.247	7323.02
664.439	7259.54
664.631	7038.36
664.822	7304.59
665.014	7091.6
665.205	7067.03
665.397	7085.46
665.588	7058.84
665.78	6882.71
665.971	6958.49
666.163	6888.85
666.354	7118.23
666.546	7011.73
666.737	6747.55
666.929	6913.43
667.12	6864.28
667.311	6903.19
667.503	6714.78
667.694	6657.43
667.885	6620.57
668.077	6614.43
668.268	6462.88
668.459	6516.12
668.651	6503.84
668.842	6526.36
669.033	6471.07
669.224	6428.06
669.416	6475.17
669.607	6438.3
669.798	6329.76
669.989	6350.24
670.18	6227.36
670.371	6417.82
670.563	6331.81
670.754	6051.24
670.945	6194.59
671.136	6139.3
671.327	5993.89
671.518	6108.58
671.709	6053.28
671.9	6129.06
672.091	6096.29
672.282	5942.69
672.473	6008.23
672.664	6041
672.855	5973.41
673.046	5969.32
673.237	5893.54
673.428	5770.66
673.619	5785
673.809	5668.27
674	5801.38
674.191	5795.24
674.382	5920.17
674.573	5729.7
674.764	5719.46
674.954	5641.64
675.145	5631.4
675.336	5598.63
675.527	5576.11
675.717	5637.55
675.908	5539.24
676.099	5660.07
676.289	5457.32
676.48	5434.8
676.671	5281.2
676.861	5381.55
677.052	5473.71
677.243	5387.69
677.433	5387.69
677.624	5332.4
677.814	5440.94
678.005	5365.17
678.195	5250.48
678.386	5375.41
678.576	5236.14
678.767	5326.25
678.957	5273.01
679.148	5191.09
679.338	5053.87
679.529	5131.7
679.719	5033.4
679.909	5146.03
680.1	5166.51
680.29	5103.03
680.481	4974
680.671	5107.12
680.861	5010.87
681.052	5127.6
681.242	5021.11
681.432	5170.61
681.622	4916.66
681.813	4992.44
682.003	5039.54
682.193	4924.85
682.383	5031.35
682.573	4767.16
682.764	4857.27
682.954	4748.73
683.144	4892.09
683.334	4998.58
683.524	4769.21
683.714	4754.87
683.904	4609.47
684.094	4978.1
684.284	4812.21
684.474	4924.85
684.664	4683.19
684.854	4621.75
685.044	4658.62
685.234	4572.6
685.424	4789.69
685.614	4713.91
685.804	4531.64
685.994	4431.29
686.184	4627.9
686.374	4480.44
686.564	4416.96
686.753	4445.63
686.943	4337.09
687.133	4384.19
687.323	4343.23
687.513	4406.72
687.702	4271.55
687.892	4472.25
688.082	4322.75
688.272	4251.07
688.461	4330.94
688.651	4414.91
688.841	4138.43
689.03	4287.93
689.22	4126.15
689.41	4107.71
689.599	4224.45
689.789	4181.44
689.979	4234.69
690.168	4210.11
690.358	4021.7
690.547	4105.67
690.737	4120
690.926	4091.33
691.116	4005.31
691.305	4066.75
691.495	4070.85
691.684	4070.85
691.874	3880.39
692.063	3984.84
692.252	3972.55
692.442	3849.67
692.631	3964.36
692.82	3829.19
693.01	3732.94
693.199	3894.72
693.388	3720.65
693.578	3726.79
693.767	3794.37
693.956	3741.13
694.146	3837.38
694.335	3704.26
694.524	3632.58
694.713	3741.13
694.902	3818.95
695.092	3614.15
695.281	3577.29
695.47	3675.59
695.659	3569.1
695.848	3575.24
696.037	3571.15
696.226	3511.75
696.415	3589.58
696.604	3618.25
696.793	3462.6
696.982	3528.14
697.171	3468.75
697.36	3521.99
697.549	3339.73
697.738	3452.36
697.927	3372.49
698.116	3524.04
698.305	3382.73
698.494	3392.97
698.683	3491.27
698.872	3372.49
699.061	3433.93
699.25	3368.4
699.438	3532.23
699.627	3288.53
699.816	3417.55
700.005	3347.92
700.193	3325.39
700.382	3347.92
700.571	3282.38
700.76	3288.53
700.948	3261.9
701.137	3339.73
701.326	3364.3
701.514	3282.38
701.703	3282.38
701.892	3313.1
702.08	3319.25
702.269	3227.09
702.457	3149.26
702.646	3225.04
702.834	3247.57
703.023	3352.01
703.212	3169.74
703.4	3280.33
703.589	3157.46
703.777	3188.18
703.965	3266
704.154	3216.85
704.342	3093.97
704.531	3093.97
704.719	3136.98
704.907	3206.61
705.096	3173.84
705.284	3130.83
705.472	3173.84
705.661	3061.2
705.849	3216.85
706.037	3212.75
706.226	3149.26
706.414	3106.26
706.602	3018.19
706.79	3116.5
706.979	3071.44
707.167	3147.22
707.355	3061.2
707.543	3022.29
707.731	3241.42
707.919	3016.15
708.107	3005.91
708.296	3077.59
708.484	3036.63
708.672	3093.97
708.86	3079.63
709.048	3081.68
709.236	3122.64
709.424	3059.15
709.612	3081.68
709.8	3124.69
709.988	3114.45
710.176	3085.78
710.364	2897.36
710.551	2975.19
710.739	3034.58
710.927	2981.33
711.115	2907.6
711.303	3028.43
711.491	3071.44
711.679	2993.62
711.866	3012.05
712.054	3012.05
712.242	2872.79
712.43	3063.25
712.617	2989.52
712.805	3112.4
712.993	2926.04
713.181	2928.08
713.368	2883.03
713.556	2940.37
713.744	2960.85
713.931	3096.02
714.119	3020.24
714.306	2883.03
714.494	3018.19
714.682	2930.13
714.869	2917.84
715.057	2966.99
715.244	2872.79
715.432	2960.85
715.619	2999.76
715.807	2995.67
715.994	2938.32
716.182	2866.64
716.369	3081.68
716.556	2975.19
716.744	2891.22
716.931	2778.58
717.119	2932.18
717.306	3046.87
717.493	2880.98
717.681	2862.55
717.868	2868.69
718.055	2948.56
718.242	2864.6
718.43	2973.14
718.617	2747.86
718.804	2825.68
718.991	2803.16
719.179	2950.61
719.366	2831.83
719.553	2962.9
719.74	2835.92
719.927	2827.73
720.114	2659.8
720.301	2872.79
720.488	2788.82
720.676	2819.54
720.863	2811.35
721.05	2792.92
721.237	2837.97
721.424	2774.49
721.611	2807.25
721.798	2897.36
721.985	2747.86
722.172	2803.16
722.358	2860.5
722.545	2803.16
722.732	2774.49
722.919	2723.29
723.106	2733.53
723.293	2788.82
723.48	2758.1
723.667	2848.21
723.853	2815.45
724.04	2817.49
724.227	2868.69
724.414	2784.73
724.6	2766.29
724.787	2678.23
724.974	2770.39
725.161	2747.86
725.347	2733.53
725.534	2682.33
725.72	2794.97
725.907	2733.53
726.094	2809.3
726.28	2790.87
726.467	2739.67
726.653	2721.24
726.84	2758.1
727.027	2758.1
727.213	2741.72
727.4	2819.54
727.586	2715.09
727.773	2745.81
727.959	2778.58
728.145	2735.57
728.332	2770.39
728.518	2717.14
728.705	2702.81
728.891	2727.38
729.077	2782.68
729.264	2643.42
729.45	2622.94
729.636	2708.95
729.823	2657.75
730.009	2663.9
730.195	2624.98
730.382	2797.01
730.568	2620.89
730.754	2672.09
730.94	2762.2
731.126	2741.72
731.313	2721.24
731.499	2745.81
731.685	2706.9
731.871	2764.25
732.057	2770.39
732.243	2700.76
732.429	2717.14
732.615	2649.56
732.801	2708.95
732.987	2711
733.173	2508.25
733.359	2672.09
733.545	2608.6
733.731	2547.16
733.917	2672.09
734.103	2606.55
734.289	2639.32
734.475	2764.25
734.661	2682.33
734.847	2518.49
735.033	2549.21
735.219	2579.93
735.404	2612.7
735.59	2659.8
735.776	2725.33
735.962	2614.74
736.148	2538.97
736.333	2647.51
736.519	2610.65
736.705	2586.07
736.89	2575.83
737.076	2553.31
737.262	2596.31
737.447	2711
737.633	2657.75
737.819	2557.4
738.004	2538.97
738.19	2624.98
738.375	2522.59
738.561	2536.92
738.747	2557.4
738.932	2452.95
739.118	2532.83
739.303	2565.59
739.489	2541.02
739.674	2446.81
739.859	2567.64
740.045	2420.19
740.23	2428.38
740.416	2452.95
740.601	2477.53
740.786	2498.01
740.972	2436.57
741.157	2461.15
741.342	2428.38
741.528	2495.96
741.713	2397.66
741.898	2412
742.084	2446.81
742.269	2502.11
742.454	2446.81
742.639	2491.87
742.824	2379.23
743.01	2387.42
743.195	2315.74
743.38	2383.32
743.565	2330.08
743.75	2416.09
743.935	2307.55
744.12	2319.84
744.305	2268.64
744.49	2213.34
744.675	2256.35
744.86	2260.45
745.045	2182.62
745.23	2262.49
745.415	2342.36
745.6	2289.12
745.785	2334.17
745.97	2262.49
746.155	2217.44
746.34	2131.42
746.525	2147.81
746.71	2233.82
746.895	2090.46
747.079	2117.09
747.264	2084.32
747.449	2125.28
747.634	2117.09
747.819	2137.57
748.003	2078.18
748.188	2137.57
748.373	2002.4
748.557	2014.69
748.742	2051.55
748.927	1955.3
749.111	1934.82
749.296	2067.94
749.481	1961.44
749.665	1945.06
749.85	1940.96
750.034	1996.26
750.219	1930.72
750.404	1932.77
750.588	1859.04
750.773	1859.04
750.957	1764.84
751.141	1836.52
751.326	1850.85
751.51	1875.43
751.695	1766.89
751.879	1781.22
752.064	1795.56
752.248	1744.36
752.432	1854.95
752.617	1732.07
752.801	1760.74
752.985	1684.97
753.17	1787.36
753.354	1668.58
753.538	1756.65
753.722	1719.78
753.907	1699.3
754.091	1715.69
754.275	1658.34
754.459	1551.85
754.643	1578.47
754.828	1644.01
755.012	1564.14
755.196	1605.1
755.38	1586.66
755.564	1598.95
755.748	1648.1
755.932	1564.14
756.116	1533.42
756.3	1465.83
756.484	1498.6
756.668	1494.51
756.852	1619.43
757.036	1476.07
757.22	1365.48
757.404	1508.84
757.588	1469.93
757.772	1461.74
757.956	1396.2
758.14	1402.35
758.323	1459.69
758.507	1342.96
758.691	1392.11
758.875	1420.78
759.059	1375.72
759.242	1408.49
759.426	1332.72
759.61	1361.39
759.794	1408.49
759.977	1345
760.161	1293.8
760.345	1439.21
760.528	1347.05
760.712	1267.18
760.895	1308.14
761.079	1166.83
761.263	1261.04
761.446	1224.17
761.63	1299.95
761.813	1330.67
761.997	1236.46
762.18	1250.8
762.364	1246.7
762.547	1258.99
762.731	1240.56
762.914	1306.09
763.098	1267.18
763.281	1205.74
763.464	1250.8
763.648	1164.78
763.831	1279.47
764.015	1224.17
764.198	1119.73
764.381	1172.97
764.564	1242.61
764.748	1152.49
764.931	1162.73
765.114	1166.83
765.297	1211.89
765.481	1164.78
765.664	1230.32
765.847	1136.11
766.03	1101.3
766.213	1068.53
766.397	1162.73
766.58	1080.82
766.763	1220.08
766.946	1099.25
767.129	1002.99
767.312	1082.86
767.495	1039.86
767.678	1002.99
767.861	1046
768.044	1119.73
768.227	1082.86
768.41	1056.24
768.593	1048.05
768.776	986.61
768.959	1043.95
769.142	1041.9
769.324	1054.19
769.507	1002.99
769.69	1013.23
769.873	1074.67
770.056	1119.73
770.239	968.18
770.421	1027.57
770.604	990.7
770.787	1046
770.97	1021.42
771.152	912.88
771.335	1043.95
771.518	1000.94
771.7	1046
771.883	1060.34
772.066	876.02
772.248	976.37
772.431	996.85
772.613	988.66
772.796	1011.18
772.978	910.83
773.161	1037.81
773.343	964.08
773.526	853.49
773.708	984.56
773.891	923.12
774.073	865.78
774.256	785.91
774.438	853.49
774.621	878.07
774.803	859.63
774.985	888.31
775.168	851.44
775.35	851.44
775.532	916.98
775.715	771.57
775.897	812.53
776.079	779.76
776.261	847.35
776.444	816.63
776.626	847.35
776.808	869.87
776.99	792.05
777.173	742.9
777.355	814.58
777.537	775.67
777.719	775.67
777.901	873.97
778.083	781.81
778.265	730.61
778.447	761.33
778.629	728.56
778.811	703.99
778.993	744.95
779.175	689.65
779.357	663.03
779.539	677.37
779.721	779.76
779.903	736.76
780.085	706.04
780.267	716.28
780.449	716.28
780.631	636.41
780.812	665.08
780.994	738.8
781.176	646.65
781.358	650.74
781.54	628.21
781.721	640.5
781.903	681.46
782.085	665.08
782.267	658.93
782.448	634.36
782.63	613.88
782.812	654.84
782.993	640.5
783.175	660.98
783.357	691.7
783.538	677.37
783.72	613.88
783.901	675.32
784.083	591.35
784.264	493.05
784.446	529.91
784.627	626.17
784.809	603.64
784.99	540.15
785.172	540.15
785.353	546.3
785.535	513.53
785.716	515.58
785.897	478.71
786.079	556.54
786.26	536.06
786.441	577.02
786.623	531.96
786.804	445.95
786.985	511.48
787.167	595.45
787.348	452.09
787.529	540.15
787.71	503.29
787.891	497.14
788.073	458.23
788.254	480.76
788.435	529.91
788.616	441.85
788.797	491
788.978	458.23
789.159	404.99
789.34	493.05
789.522	454.14
789.703	460.28
789.884	515.58
790.065	445.95
790.246	472.57
790.427	497.14
790.607	491
790.788	466.42
790.969	335.35
791.15	456.19
791.331	413.18
791.512	433.66
791.693	398.84
791.874	427.51
792.054	429.56
792.235	454.14
792.416	460.28
792.597	335.35
792.778	460.28
792.958	464.38
793.139	409.08
793.32	390.65
793.5	382.46
793.681	380.41
793.862	374.27
794.042	335.35
794.223	318.97
794.404	335.35
794.584	294.4
794.765	335.35
794.945	361.98
795.126	411.13
795.306	396.79
795.487	347.64
795.667	339.45
795.848	372.22
796.028	400.89
796.209	325.12
796.389	355.83
796.57	368.12
796.75	345.59
796.93	339.45
797.111	290.3
797.291	314.88
797.471	421.37
797.652	419.32
797.832	271.87
798.012	280.06
798.192	329.21
798.373	321.02
798.553	321.02
798.733	376.31
798.913	325.12
799.093	298.49
799.274	364.03
799.454	312.83
799.634	302.59
799.814	382.46
799.994	265.72
800.174	194.05
800.354	300.54
800.534	259.58
800.714	347.64
800.894	331.26
801.074	237.05
801.254	278.01
801.434	241.15
801.614	282.11
801.794	271.87
801.974	648.69
802.154	351.74
802.334	267.77
802.514	333.31
802.693	251.39
802.873	198.14
803.053	325.12
803.233	253.44
803.413	200.19
803.592	278.01
803.772	267.77
803.952	296.44
804.131	312.83
804.311	263.68
804.491	294.4
804.67	318.97
804.85	204.28
805.03	300.54
805.209	318.97
805.389	212.48
805.568	232.96
805.748	263.68
805.928	255.48
806.107	222.72
806.287	196.09
806.466	167.42
806.646	312.83
806.825	220.67
807.004	237.05
807.184	228.86
807.363	192
807.543	200.19
807.722	189.95
807.901	202.24
808.081	206.33
808.26	286.2
808.439	167.42
808.619	292.35
808.798	206.33
808.977	255.48
809.156	253.44
809.336	232.96
809.515	249.34
809.694	194.05
809.873	198.14
810.052	280.06
810.231	218.62
810.411	189.95
810.59	292.35
810.769	148.99
810.948	165.37
811.127	130.56
811.306	241.15
811.485	212.48
811.664	273.92
811.843	200.19
812.022	210.43
812.201	267.77
812.38	214.52
812.559	146.94
812.737	118.27
812.916	177.66
813.095	212.48
813.274	169.47
813.453	177.66
813.632	273.92
813.811	284.16
813.989	183.81
814.168	251.39
814.347	224.76
814.526	210.43
814.704	196.09
814.883	194.05
815.062	214.52
815.24	210.43
815.419	183.81
815.598	120.32
815.776	163.33
815.955	224.76
816.133	136.7
816.312	198.14
816.49	144.89
816.669	157.18
816.847	226.81
817.026	142.85
817.204	163.33
817.383	245.24
817.561	153.09
817.74	171.52
817.918	194.05
818.097	122.37
818.275	222.72
818.453	171.52
818.632	124.41
818.81	114.17
818.988	212.48
819.167	171.52
819.345	163.33
819.523	112.13
819.701	175.61
819.879	169.47
820.058	130.56
820.236	169.47
820.414	136.7
820.592	171.52
820.77	177.66
820.948	245.24
821.127	81.41
821.305	136.7
821.483	13.82
821.661	128.51
821.839	124.41
822.017	185.85
822.195	93.69
822.373	138.75
822.551	67.07
822.729	163.33
822.907	128.51
823.085	265.72
823.262	112.13
823.44	196.09
823.618	155.13
823.796	140.8
823.974	91.65
824.152	110.08
824.329	175.61
824.507	91.65
824.685	142.85
824.863	97.79
825.04	151.04
825.218	120.32
825.396	163.33
825.574	159.23
825.751	163.33
825.929	124.41
826.107	142.85
826.284	183.81
826.462	128.51
826.639	126.46
826.817	122.37
826.994	144.89
827.172	52.74
827.349	146.94
827.527	153.09
827.704	200.19
827.882	169.47
828.059	161.28
828.237	105.98
828.414	157.18
828.591	159.23
828.769	54.78
828.946	169.47
829.124	54.78
829.301	181.76
829.478	99.84
829.655	159.23
829.833	99.84
830.01	144.89
830.187	103.93
830.364	65.02
830.542	79.36
830.719	108.03
830.896	144.89
831.073	126.46
831.25	118.27
831.427	140.8
831.604	136.7
831.782	52.74
831.959	128.51
832.136	136.7
832.313	148.99
832.49	130.56
832.667	116.22
832.844	67.07
833.021	136.7
833.198	36.35
833.374	13.82
833.551	112.13
833.728	93.69
833.905	108.03
834.082	157.18
834.259	95.74
834.436	122.37
834.612	36.35
834.789	112.13
834.966	85.5
835.143	60.93
835.319	60.93
835.496	116.22
835.673	122.37
835.85	85.5
836.026	97.79
836.203	60.93
836.38	32.26
836.556	101.89
836.733	36.35
836.909	120.32
837.086	75.26
837.262	99.84
837.439	101.89
837.616	62.98
837.792	67.07
837.968	60.93
838.145	11.78
838.321	32.26
838.498	108.03
838.674	126.46
838.851	58.88
839.027	54.78
839.203	60.93
839.38	110.08
839.556	95.74
839.732	132.61
839.909	36.35
840.085	93.69
840.261	93.69
840.437	95.74
840.614	177.66
840.79	54.78
840.966	65.02
841.142	93.69
841.318	13.82
841.494	85.5
841.671	48.64
841.847	13.82
842.023	79.36
842.199	75.26
842.375	-20.99
842.551	-23.04
842.727	56.83
842.903	87.55
843.079	151.04
843.255	112.13
843.431	85.5
843.607	103.93
843.783	3.58
843.959	60.93
844.134	65.02
844.31	79.36
844.486	-0.51
844.662	44.54
844.838	17.92
845.013	110.08
845.189	95.74
845.365	52.74
845.541	75.26
845.716	54.78
845.892	-2.56
846.068	77.31
846.244	40.45
846.419	101.89
846.595	60.93
846.77	28.16
846.946	3.58
847.122	30.21
847.297	24.06
847.473	81.41
847.648	32.26
847.824	75.26
847.999	46.59
848.175	73.21
848.35	32.26
848.526	-2.56
848.701	87.55
848.876	81.41
849.052	13.82
849.227	105.98
849.403	19.97
849.578	28.16
849.753	73.21
849.929	54.78
850.104	67.07
850.279	50.69
850.454	89.6
850.63	79.36
850.805	30.21
850.98	112.13
851.155	38.4
851.33	128.51
851.505	-4.61
851.681	116.22
851.856	56.83
852.031	30.21
852.206	24.06
852.381	38.4
852.556	-8.7
852.731	101.89
852.906	87.55
853.081	54.78
853.256	71.17
853.431	-2.56
853.606	87.55
853.781	-4.61
853.956	60.93
854.131	71.17
854.305	30.21
854.48	54.78
854.655	36.35
854.83	19.97
855.005	15.87
855.18	30.21
855.354	19.97
855.529	85.5
855.704	13.82
855.879	42.5
856.053	-0.51
856.228	7.68
856.403	69.12
856.577	34.3
856.752	17.92
856.926	97.79
857.101	58.88
857.276	-4.61
857.45	71.17
857.625	62.98
857.799	118.27
857.974	38.4
858.148	58.88
858.323	87.55
858.497	36.35
858.672	114.17
858.846	-8.7
859.02	85.5
859.195	99.84
859.369	48.64
859.543	50.69
859.718	79.36
859.892	42.5
860.066	81.41
860.241	36.35
860.415	69.12
860.589	89.6
860.763	110.08
860.938	3.58
861.112	97.79
861.286	3.58
861.46	79.36
861.634	44.54
861.808	91.65
861.982	75.26
862.157	60.93
862.331	71.17
862.505	-2.56
862.679	13.82
862.853	15.87
863.027	73.21
863.201	32.26
863.375	13.82
863.549	5.63
863.722	-45.57
863.896	-31.23
864.07	38.4
864.244	99.84
864.418	50.69
864.592	5.63
864.766	40.45
864.939	7.68
865.113	58.88
865.287	38.4
865.461	1.54
865.634	32.26
865.808	62.98
865.982	54.78
866.156	-2.56
866.329	-2.56
866.503	52.74
866.676	40.45
866.85	48.64
867.024	42.5
867.197	7.68
867.371	54.78
867.544	48.64
867.718	-25.09
867.891	19.97
868.065	48.64
868.238	9.73
868.412	54.78
868.585	77.31
868.759	22.02
868.932	67.07
869.105	1.54
869.279	62.98
869.452	46.59
869.625	83.45
869.799	-6.66
869.972	91.65
870.145	5.63
870.319	44.54
870.492	1.54
870.665	5.63
870.838	-51.71
871.011	-4.61
871.185	-57.86
871.358	-18.94
871.531	48.64
871.704	-41.47
871.877	5.63
872.05	-6.66
872.223	3.58
872.396	48.64
872.569	11.78
872.742	52.74
872.915	-4.61
873.088	15.87
873.261	5.63
873.434	67.07
873.607	48.64
873.78	52.74
873.953	38.4
874.126	26.11
874.299	73.21
874.471	24.06
874.644	-43.52
874.817	32.26
874.99	11.78
875.163	-18.94
875.335	50.69
875.508	-27.14
875.681	40.45
875.853	-16.9
876.026	15.87
876.199	17.92
876.371	32.26
876.544	-8.7
876.717	-10.75
876.889	71.17
877.062	11.78
877.234	1.54
877.407	44.54
877.579	-25.09
877.752	9.73
877.924	60.93
878.097	46.59
878.269	-18.94
878.442	40.45
878.614	-27.14
878.786	15.87
878.959	30.21
879.131	-18.94
879.303	28.16
879.476	-10.75
879.648	46.59
879.82	60.93
879.993	7.68
880.165	71.17
880.337	42.5
880.509	95.74
880.681	-20.99
880.854	-27.14
881.026	40.45
881.198	26.11
881.37	1.54
881.542	44.54
881.714	62.98
881.886	1.54
882.058	52.74
882.23	46.59
882.402	36.35
882.574	81.41
882.746	17.92
882.918	3.58
883.09	65.02
883.262	-0.51
883.434	-53.76
883.606	36.35
883.778	36.35
883.95	48.64
884.122	-6.66
884.293	73.21
884.465	-23.04
884.637	67.07
884.809	-31.23
884.98	-20.99
885.152	-0.51
885.324	-29.18
885.496	11.78
885.667	46.59
885.839	26.11
886.011	-0.51
886.182	-0.51
886.354	7.68
886.525	-2.56
886.697	34.3
886.869	1.54
887.04	71.17
887.212	52.74
887.383	69.12
887.555	34.3
887.726	-33.28
887.897	-47.62
888.069	42.5
888.24	62.98
888.412	13.82
888.583	40.45
888.754	93.69
888.926	-2.56
889.097	-27.14
889.268	34.3
889.44	46.59
889.611	42.5
889.782	-4.61
889.953	1.54
890.125	11.78
890.296	-14.85
890.467	-25.09
890.638	-20.99
890.809	22.02
890.98	-23.04
891.151	136.7
891.323	13.82
891.494	52.74
891.665	-18.94
891.836	-33.28
892.007	-31.23
892.178	56.83
892.349	17.92
892.52	13.82
892.691	34.3
892.862	44.54
893.032	34.3
893.203	67.07
893.374	73.21
893.545	-0.51
893.716	-51.71
893.887	38.4
894.057	-4.61
894.228	116.22
894.399	-2.56
894.57	77.31
894.74	-18.94
894.911	-29.18
895.082	-49.66
895.253	48.64
895.423	40.45
895.594	17.92
895.764	58.88
895.935	24.06
896.106	5.63
896.276	17.92
896.447	95.74
896.617	67.07
896.788	26.11
896.958	34.3
897.129	46.59
897.299	-20.99
897.47	-18.94
897.64	7.68
897.81	-2.56
897.981	-6.66
898.151	-45.57
898.322	30.21
898.492	-10.75
898.662	7.68
898.832	67.07
899.003	44.54
899.173	24.06
899.343	28.16
899.513	15.87
