Data from USB4F104151__44__12-27-25-053.txt Node

Date: Fri Mar 14 12:27:25 EDT 2025
User: louis
Spectrometer: USB4F10415
Trigger mode: 4
Integration Time (sec): 2.000000E-2
Scans to average: 1
Electric dark correction enabled: true
Nonlinearity correction enabled: false
Boxcar width: 0
XAxis mode: Wavelengths
Number of Pixels in Spectrum: 3648
>>>>>Begin Spectral Data<<<<<
178.204	-120.83
178.424	-120.83
178.644	-120.83
178.864	-165.89
179.084	-30.72
179.304	26.62
179.524	-30.72
179.744	22.53
179.964	-18.43
180.184	-14.34
180.404	49.15
180.624	32.77
180.844	-22.53
181.064	4.1
181.283	22.53
181.503	-47.1
181.723	-24.58
181.943	-4.1
182.163	43.01
182.383	-10.24
182.602	-32.77
182.822	40.96
183.042	30.72
183.262	-102.4
183.482	22.53
183.701	32.77
183.921	59.39
184.141	-8.19
184.361	30.72
184.58	18.43
184.8	-34.82
185.02	75.77
185.239	43.01
185.459	-2.05
185.679	61.44
185.898	4.1
186.118	-12.29
186.338	-10.24
186.557	104.45
186.777	-38.91
186.997	59.39
187.216	83.97
187.436	73.73
187.655	14.34
187.875	36.86
188.095	38.91
188.314	10.24
188.534	36.86
188.753	61.44
188.973	-36.86
189.192	-45.06
189.412	10.24
189.631	30.72
189.851	43.01
190.07	-4.1
190.29	6.14
190.509	47.1
190.729	-61.44
190.948	-16.38
191.168	55.3
191.387	53.25
191.607	-4.1
191.826	-2.05
192.045	-26.62
192.265	104.45
192.484	-47.1
192.704	61.44
192.923	26.62
193.142	96.25
193.362	32.77
193.581	77.82
193.8	2.05
194.02	12.29
194.239	8.19
194.458	-14.34
194.678	4.1
194.897	45.06
195.116	0
195.335	-10.24
195.555	28.67
195.774	12.29
195.993	47.1
196.212	-4.1
196.432	22.53
196.651	-36.86
196.87	-34.82
197.089	102.4
197.308	86.01
197.528	-20.48
197.747	-6.14
197.966	57.34
198.185	67.58
198.404	40.96
198.623	63.49
198.842	2.05
199.062	49.15
199.281	14.34
199.5	38.91
199.719	43.01
199.938	61.44
200.157	34.82
200.376	26.62
200.595	10.24
200.814	-4.1
201.033	14.34
201.252	69.63
201.471	32.77
201.69	26.62
201.909	-20.48
202.128	73.73
202.347	51.2
202.566	71.68
202.785	10.24
203.004	24.58
203.223	96.25
203.442	16.38
203.661	-67.58
203.879	22.53
204.098	75.77
204.317	75.77
204.536	81.92
204.755	-43.01
204.974	94.21
205.193	16.38
205.411	102.4
205.63	-8.19
205.849	51.2
206.068	36.86
206.287	51.2
206.505	59.39
206.724	71.68
206.943	55.3
207.162	59.39
207.381	-34.82
207.599	49.15
207.818	-20.48
208.037	-49.15
208.255	-2.05
208.474	40.96
208.693	-30.72
208.911	38.91
209.13	-34.82
209.349	57.34
209.567	-12.29
209.786	88.06
210.005	-6.14
210.223	12.29
210.442	10.24
210.661	61.44
210.879	77.82
211.098	55.3
211.316	-43.01
211.535	51.2
211.753	-47.1
211.972	-12.29
212.191	-69.63
212.409	65.54
212.628	-10.24
212.846	-4.1
213.065	55.3
213.283	92.16
213.502	0
213.72	-57.34
213.938	10.24
214.157	-8.19
214.375	-22.53
214.594	22.53
214.812	38.91
215.031	-12.29
215.249	-30.72
215.467	-26.62
215.686	12.29
215.904	32.77
216.122	-73.73
216.341	81.92
216.559	38.91
216.778	94.21
216.996	51.2
217.214	51.2
217.432	-61.44
217.651	36.86
217.869	67.58
218.087	4.1
218.306	-14.34
218.524	53.25
218.742	94.21
218.96	96.25
219.179	18.43
219.397	-6.14
219.615	49.15
219.833	108.54
220.051	30.72
220.27	63.49
220.488	-14.34
220.706	40.96
220.924	28.67
221.142	55.3
221.36	67.58
221.578	92.16
221.796	16.38
222.015	-28.67
222.233	47.1
222.451	96.25
222.669	-18.43
222.887	24.58
223.105	36.86
223.323	-40.96
223.541	61.44
223.759	10.24
223.977	88.06
224.195	24.58
224.413	47.1
224.631	49.15
224.849	12.29
225.067	-12.29
225.285	8.19
225.503	26.62
225.721	-20.48
225.939	22.53
226.157	-4.1
226.375	92.16
226.592	-28.67
226.81	-49.15
227.028	-8.19
227.246	110.59
227.464	18.43
227.682	67.58
227.9	6.14
228.117	-14.34
228.335	129.02
228.553	55.3
228.771	-16.38
228.989	45.06
229.206	59.39
229.424	36.86
229.642	-4.1
229.86	12.29
230.077	30.72
230.295	38.91
230.513	40.96
230.731	90.11
230.948	-6.14
231.166	-2.05
231.384	71.68
231.601	43.01
231.819	10.24
232.037	38.91
232.254	4.1
232.472	28.67
232.689	18.43
232.907	10.24
233.125	-8.19
233.342	14.34
233.56	22.53
233.777	2.05
233.995	59.39
234.213	16.38
234.43	6.14
234.648	81.92
234.865	79.87
235.083	61.44
235.3	-6.14
235.518	26.62
235.735	57.34
235.953	53.25
236.17	-4.1
236.388	43.01
236.605	65.54
236.822	43.01
237.04	-8.19
237.257	24.58
237.475	-6.14
237.692	43.01
237.909	22.53
238.127	34.82
238.344	22.53
238.562	2.05
238.779	-67.58
238.996	-12.29
239.214	-34.82
239.431	45.06
239.648	47.1
239.865	40.96
240.083	-51.2
240.3	-14.34
240.517	75.77
240.735	0
240.952	43.01
241.169	38.91
241.386	-6.14
241.603	40.96
241.821	18.43
242.038	43.01
242.255	18.43
242.472	-8.19
242.689	43.01
242.907	77.82
243.124	92.16
243.341	-30.72
243.558	10.24
243.775	65.54
243.992	22.53
244.209	40.96
244.426	51.2
244.643	90.11
244.86	-18.43
245.078	4.1
245.295	55.3
245.512	0
245.729	6.14
245.946	94.21
246.163	75.77
246.38	14.34
246.597	-28.67
246.814	55.3
247.031	26.62
247.248	36.86
247.464	18.43
247.681	34.82
247.898	81.92
248.115	24.58
248.332	-57.34
248.549	38.91
248.766	4.1
248.983	-10.24
249.2	22.53
249.417	88.06
249.633	-36.86
249.85	14.34
250.067	49.15
250.284	34.82
250.501	22.53
250.717	-8.19
250.934	-12.29
251.151	106.49
251.368	30.72
251.585	65.54
251.801	83.97
252.018	12.29
252.235	36.86
252.451	38.91
252.668	-26.62
252.885	32.77
253.102	10.24
253.318	6.14
253.535	-22.53
253.752	-10.24
253.968	38.91
254.185	24.58
254.401	30.72
254.618	47.1
254.835	4.1
255.051	57.34
255.268	28.67
255.484	16.38
255.701	57.34
255.917	88.06
256.134	32.77
256.351	24.58
256.567	-30.72
256.784	36.86
257	61.44
257.217	65.54
257.433	75.77
257.65	40.96
257.866	-4.1
258.082	-20.48
258.299	0
258.515	-12.29
258.732	-8.19
258.948	34.82
259.165	-10.24
259.381	53.25
259.597	24.58
259.814	16.38
260.03	10.24
260.246	-12.29
260.463	10.24
260.679	-28.67
260.895	-28.67
261.112	102.4
261.328	55.3
261.544	-2.05
261.761	45.06
261.977	45.06
262.193	-47.1
262.409	65.54
262.626	47.1
262.842	45.06
263.058	59.39
263.274	30.72
263.49	28.67
263.707	38.91
263.923	22.53
264.139	-16.38
264.355	24.58
264.571	120.83
264.787	24.58
265.004	40.96
265.22	4.1
265.436	36.86
265.652	8.19
265.868	16.38
266.084	26.62
266.3	69.63
266.516	-8.19
266.732	63.49
266.948	59.39
267.164	8.19
267.38	-12.29
267.596	6.14
267.812	6.14
268.028	65.54
268.244	10.24
268.46	-28.67
268.676	-24.58
268.892	28.67
269.108	14.34
269.324	10.24
269.54	40.96
269.756	53.25
269.972	-28.67
270.188	28.67
270.403	-36.86
270.619	30.72
270.835	-14.34
271.051	77.82
271.267	69.63
271.483	34.82
271.698	40.96
271.914	8.19
272.13	75.77
272.346	59.39
272.562	-22.53
272.777	30.72
272.993	40.96
273.209	10.24
273.425	36.86
273.64	24.58
273.856	8.19
274.072	-20.48
274.287	16.38
274.503	-36.86
274.719	36.86
274.934	34.82
275.15	47.1
275.366	67.58
275.581	10.24
275.797	12.29
276.012	4.1
276.228	12.29
276.444	20.48
276.659	51.2
276.875	-10.24
277.09	38.91
277.306	-14.34
277.521	22.53
277.737	-12.29
277.952	51.2
278.168	-14.34
278.383	-2.05
278.599	28.67
278.814	75.77
279.03	-34.82
279.245	51.2
279.461	63.49
279.676	-4.1
279.892	-30.72
280.107	-18.43
280.322	6.14
280.538	47.1
280.753	-57.34
280.969	126.97
281.184	30.72
281.399	-65.53
281.615	34.82
281.83	12.29
282.045	22.53
282.26	4.1
282.476	40.96
282.691	73.73
282.906	26.62
283.122	24.58
283.337	22.53
283.552	114.69
283.767	-6.14
283.983	40.96
284.198	-30.72
284.413	47.1
284.628	18.43
284.843	92.16
285.058	38.91
285.274	-24.58
285.489	-6.14
285.704	36.86
285.919	51.2
286.134	-2.05
286.349	75.77
286.564	26.62
286.779	24.58
286.995	16.38
287.21	67.58
287.425	-28.67
287.64	14.34
287.855	34.82
288.07	-12.29
288.285	63.49
288.5	-20.48
288.715	22.53
288.93	-12.29
289.145	-20.48
289.36	-45.06
289.575	20.48
289.79	137.21
290.004	51.2
290.219	104.45
290.434	30.72
290.649	4.1
290.864	65.54
291.079	63.49
291.294	18.43
291.509	30.72
291.724	-10.24
291.938	71.68
292.153	22.53
292.368	36.86
292.583	43.01
292.798	20.48
293.012	28.67
293.227	24.58
293.442	14.34
293.657	26.62
293.871	131.07
294.086	0
294.301	10.24
294.516	159.74
294.73	14.34
294.945	59.39
295.16	-10.24
295.374	65.54
295.589	28.67
295.804	8.19
296.018	45.06
296.233	65.54
296.447	36.86
296.662	45.06
296.877	71.68
297.091	45.06
297.306	94.21
297.52	14.34
297.735	51.2
297.949	2.05
298.164	36.86
298.378	43.01
298.593	-22.53
298.807	8.19
299.022	81.92
299.236	32.77
299.451	77.82
299.665	-4.1
299.88	59.39
300.094	-51.2
300.309	28.67
300.523	2.05
300.737	-55.3
300.952	-22.53
301.166	45.06
301.381	0
301.595	-18.43
301.809	6.14
302.024	30.72
302.238	49.15
302.452	-14.34
302.667	-86.01
302.881	73.73
303.095	30.72
303.309	30.72
303.524	14.34
303.738	-14.34
303.952	55.3
304.166	-14.34
304.381	-57.34
304.595	57.34
304.809	-67.58
305.023	43.01
305.237	53.25
305.452	24.58
305.666	55.3
305.88	79.87
306.094	8.19
306.308	67.58
306.522	47.1
306.736	20.48
306.95	24.58
307.164	-20.48
307.379	6.14
307.593	102.4
307.807	75.77
308.021	61.44
308.235	-30.72
308.449	28.67
308.663	94.21
308.877	4.1
309.091	94.21
309.305	16.38
309.519	-2.05
309.733	24.58
309.947	-30.72
310.161	-6.14
310.374	8.19
310.588	96.25
310.802	30.72
311.016	-10.24
311.23	67.58
311.444	-4.1
311.658	6.14
311.872	22.53
312.085	92.16
312.299	-12.29
312.513	24.58
312.727	8.19
312.941	12.29
313.154	92.16
313.368	-16.38
313.582	75.77
313.796	10.24
314.009	-38.91
314.223	69.63
314.437	-24.58
314.651	4.1
314.864	51.2
315.078	-2.05
315.292	6.14
315.505	38.91
315.719	16.38
315.933	100.35
316.146	20.48
316.36	16.38
316.573	32.77
316.787	22.53
317.001	71.68
317.214	6.14
317.428	77.82
317.641	-20.48
317.855	63.49
318.068	20.48
318.282	18.43
318.495	69.63
318.709	-26.62
318.922	61.44
319.136	75.77
319.349	14.34
319.563	53.25
319.776	45.06
319.99	36.86
320.203	18.43
320.417	53.25
320.63	77.82
320.843	83.97
321.057	67.58
321.27	-30.72
321.483	59.39
321.697	-30.72
321.91	16.38
322.124	43.01
322.337	112.64
322.55	-4.1
322.763	55.3
322.977	106.49
323.19	4.1
323.403	18.43
323.617	2.05
323.83	61.44
324.043	18.43
324.256	34.82
324.469	6.14
324.683	26.62
324.896	8.19
325.109	49.15
325.322	-49.15
325.535	55.3
325.748	28.67
325.962	40.96
326.175	6.14
326.388	26.62
326.601	57.34
326.814	-75.77
327.027	12.29
327.24	83.97
327.453	-55.3
327.666	57.34
327.879	79.87
328.092	-40.96
328.305	-24.58
328.518	6.14
328.731	16.38
328.944	45.06
329.157	88.06
329.37	40.96
329.583	61.44
329.796	49.15
330.009	-4.1
330.222	81.92
330.435	79.87
330.648	-47.1
330.861	-4.1
331.073	47.1
331.286	96.25
331.499	38.91
331.712	4.1
331.925	-26.62
332.138	-10.24
332.35	24.58
332.563	88.06
332.776	-14.34
332.989	-34.82
333.202	-4.1
333.414	22.53
333.627	77.82
333.84	30.72
334.053	36.86
334.265	49.15
334.478	71.68
334.691	22.53
334.903	6.14
335.116	24.58
335.329	20.48
335.541	47.1
335.754	38.91
335.966	32.77
336.179	92.16
336.392	61.44
336.604	45.06
336.817	40.96
337.029	24.58
337.242	65.54
337.454	34.82
337.667	88.06
337.88	77.82
338.092	22.53
338.305	71.68
338.517	49.15
338.729	69.63
338.942	28.67
339.154	26.62
339.367	22.53
339.579	45.06
339.792	-38.91
340.004	40.96
340.217	0
340.429	30.72
340.641	59.39
340.854	-4.1
341.066	94.21
341.278	10.24
341.491	73.73
341.703	47.1
341.915	-2.05
342.128	12.29
342.34	20.48
342.552	71.68
342.764	2.05
342.977	0
343.189	96.25
343.401	34.82
343.613	-22.53
343.826	63.49
344.038	14.34
344.25	6.14
344.462	32.77
344.674	-4.1
344.886	40.96
345.099	104.45
345.311	24.58
345.523	-67.58
345.735	-34.82
345.947	28.67
346.159	-32.77
346.371	45.06
346.583	75.77
346.795	53.25
347.007	22.53
347.219	61.44
347.431	8.19
347.643	57.34
347.855	10.24
348.067	26.62
348.279	-53.25
348.491	69.63
348.703	106.49
348.915	90.11
349.127	34.82
349.339	65.54
349.551	36.86
349.763	63.49
349.975	65.54
350.187	38.91
350.399	-32.77
350.61	55.3
350.822	-26.62
351.034	45.06
351.246	-6.14
351.458	32.77
351.669	28.67
351.881	71.68
352.093	57.34
352.305	2.05
352.517	-22.53
352.728	94.21
352.94	67.58
353.152	28.67
353.363	16.38
353.575	53.25
353.787	65.54
353.999	61.44
354.21	22.53
354.422	24.58
354.633	40.96
354.845	57.34
355.057	98.3
355.268	51.2
355.48	49.15
355.692	2.05
355.903	38.91
356.115	28.67
356.326	-20.48
356.538	75.77
356.749	32.77
356.961	126.97
357.172	-8.19
357.384	28.67
357.595	63.49
357.807	61.44
358.018	67.58
358.23	57.34
358.441	53.25
358.653	26.62
358.864	45.06
359.075	22.53
359.287	22.53
359.498	67.58
359.709	71.68
359.921	61.44
360.132	36.86
360.344	75.77
360.555	28.67
360.766	18.43
360.977	6.14
361.189	79.87
361.4	28.67
361.611	24.58
361.823	8.19
362.034	-20.48
362.245	22.53
362.456	49.15
362.667	126.97
362.879	22.53
363.09	34.82
363.301	53.25
363.512	-4.1
363.723	53.25
363.935	12.29
364.146	55.3
364.357	18.43
364.568	0
364.779	94.21
364.99	65.54
365.201	40.96
365.412	55.3
365.623	12.29
365.834	10.24
366.045	77.82
366.256	32.77
366.467	-18.43
366.678	45.06
366.889	22.53
367.1	40.96
367.311	32.77
367.522	43.01
367.733	24.58
367.944	45.06
368.155	22.53
368.366	-12.29
368.577	-14.34
368.788	22.53
368.999	36.86
369.209	28.67
369.42	-10.24
369.631	65.54
369.842	53.25
370.053	38.91
370.264	100.35
370.474	24.58
370.685	51.2
370.896	26.62
371.107	24.58
371.317	61.44
371.528	45.06
371.739	86.01
371.95	34.82
372.16	26.62
372.371	20.48
372.582	51.2
372.792	57.34
373.003	20.48
373.214	36.86
373.424	96.25
373.635	0
373.846	92.16
374.056	34.82
374.267	8.19
374.477	47.1
374.688	73.73
374.898	20.48
375.109	139.26
375.319	75.77
375.53	67.58
375.74	45.06
375.951	36.86
376.161	59.39
376.372	90.11
376.582	88.06
376.793	2.05
377.003	0
377.214	32.77
377.424	47.1
377.635	104.45
377.845	135.17
378.055	86.01
378.266	12.29
378.476	32.77
378.686	8.19
378.897	38.91
379.107	47.1
379.317	116.73
379.528	-20.48
379.738	59.39
379.948	30.72
380.158	122.88
380.369	38.91
380.579	69.63
380.789	40.96
380.999	133.12
381.21	43.01
381.42	49.15
381.63	55.3
381.84	51.2
382.05	34.82
382.261	22.53
382.471	126.97
382.681	43.01
382.891	-32.77
383.101	67.58
383.311	10.24
383.521	36.86
383.731	67.58
383.941	36.86
384.151	69.63
384.361	32.77
384.571	8.19
384.781	102.4
384.991	4.1
385.201	116.73
385.411	-18.43
385.621	86.01
385.831	43.01
386.041	30.72
386.251	8.19
386.461	49.15
386.671	49.15
386.881	18.43
387.091	16.38
387.301	86.01
387.511	10.24
387.72	47.1
387.93	73.73
388.14	-18.43
388.35	92.16
388.56	102.4
388.769	0
388.979	36.86
389.189	51.2
389.399	24.58
389.609	34.82
389.818	43.01
390.028	163.84
390.238	131.07
390.447	102.4
390.657	51.2
390.867	96.25
391.076	2.05
391.286	61.44
391.496	0
391.705	34.82
391.915	67.58
392.125	-24.58
392.334	92.16
392.544	90.11
392.753	38.91
392.963	-6.14
393.172	90.11
393.382	38.91
393.591	176.13
393.801	182.27
394.01	116.73
394.22	53.25
394.429	38.91
394.639	2.05
394.848	172.03
395.058	131.07
395.267	63.49
395.477	102.4
395.686	124.93
395.895	53.25
396.105	92.16
396.314	65.54
396.524	65.54
396.733	-81.92
396.942	49.15
397.152	83.97
397.361	90.11
397.57	98.3
397.78	12.29
397.989	90.11
398.198	24.58
398.407	94.21
398.617	106.49
398.826	51.2
399.035	36.86
399.244	71.68
399.453	159.74
399.663	65.54
399.872	59.39
400.081	75.77
400.29	53.25
400.499	75.77
400.708	77.82
400.917	88.06
401.127	131.07
401.336	159.74
401.545	102.4
401.754	118.78
401.963	174.08
402.172	112.64
402.381	163.84
402.59	118.78
402.799	102.4
403.008	124.93
403.217	165.89
403.426	147.45
403.635	81.92
403.844	153.6
404.053	61.44
404.262	194.56
404.471	182.27
404.68	124.93
404.888	149.5
405.097	149.5
405.306	96.25
405.515	141.31
405.724	202.75
405.933	229.37
406.142	157.69
406.35	163.84
406.559	172.03
406.768	118.78
406.977	256
407.185	167.93
407.394	172.03
407.603	149.5
407.812	212.99
408.02	235.52
408.229	227.32
408.438	159.74
408.646	208.89
408.855	229.37
409.064	301.05
409.272	176.13
409.481	206.84
409.69	229.37
409.898	235.52
410.107	290.81
410.315	266.24
410.524	262.14
410.733	299
410.941	325.63
411.15	364.54
411.358	360.44
411.567	399.35
411.775	362.49
411.984	391.16
412.192	344.06
412.401	391.16
412.609	352.25
412.818	520.18
413.026	409.59
413.234	389.11
413.443	471.03
413.651	430.07
413.86	491.51
414.068	511.99
414.276	583.67
414.485	567.29
414.693	622.58
414.901	616.44
415.11	585.72
415.318	638.97
415.526	630.77
415.734	677.88
415.943	710.65
416.151	796.66
416.359	722.93
416.567	747.51
416.776	806.9
416.984	827.38
417.192	897.01
417.4	944.11
417.608	851.96
417.817	935.92
418.025	997.36
418.233	966.64
418.441	1079.28
418.649	1042.42
418.857	1161.2
419.065	1091.57
419.273	1220.59
419.481	1120.24
419.689	1390.57
419.897	1396.71
420.105	1355.76
420.313	1421.29
420.521	1540.07
420.729	1421.29
420.937	1632.23
421.145	1607.66
421.353	1656.81
421.561	1775.59
421.769	1683.43
421.977	1785.83
422.185	1818.6
422.393	2039.78
422.601	1992.67
422.809	2066.4
423.017	2107.36
423.224	2162.65
423.432	2275.29
423.64	2318.3
423.848	2351.07
424.056	2308.06
424.263	2498.52
424.471	2631.64
424.679	2676.7
424.887	2785.24
425.094	2869.2
425.302	2701.27
425.51	3008.47
425.718	3057.62
425.925	3184.59
426.133	3231.69
426.341	3413.96
426.548	3637.19
426.756	3653.58
426.964	3596.23
427.171	3753.93
427.379	3846.09
427.586	4083.65
427.794	4167.62
428.001	4284.35
428.209	4489.15
428.417	4423.61
428.624	4739
428.832	4845.49
429.039	4667.32
429.247	4632.51
429.454	5238.7
429.662	5443.5
429.869	5201.84
430.076	5586.86
430.284	5304.24
430.491	5572.52
430.699	5998.5
430.906	5926.82
431.114	6111.14
431.321	6180.77
431.528	6340.51
431.736	6623.13
431.943	7094.16
432.15	6746.01
432.358	6844.31
432.565	7415.69
432.772	7165.84
432.979	7733.13
433.187	7696.27
433.394	7823.24
433.601	8327.04
433.808	8335.23
434.016	8447.87
434.223	8646.52
434.43	9305.97
434.637	8951.67
434.844	9654.12
435.052	9754.48
435.259	9670.51
435.466	9834.35
435.673	9877.35
435.88	10332
436.087	10866.52
436.294	10803.04
436.501	10682.2
436.708	10934.11
436.915	11151.19
437.122	11587.41
437.329	11831.12
437.537	12156.74
437.743	12259.14
437.95	12218.18
438.157	12879.68
438.364	13285.17
438.571	13313.84
438.778	13510.45
438.985	14804.77
439.192	13848.36
439.399	14432.04
439.606	14274.34
439.813	14976.8
440.02	15609.62
440.227	15695.63
440.433	15341.33
440.64	16183.05
440.847	15992.59
441.054	16389.89
441.261	17245.94
441.467	17145.59
441.674	17559.28
441.881	18409.19
442.088	17905.39
442.294	18034.41
442.501	18220.78
442.708	18560.74
442.914	19762.9
443.121	20197.07
443.328	19869.39
443.534	21305.02
443.741	20491.98
443.948	20291.27
444.154	21833.39
444.361	21661.37
444.568	21823.15
444.774	22056.62
444.981	22220.46
445.187	23031.46
445.394	23731.86
445.6	23522.97
445.807	25712.25
446.013	24333.96
446.22	25108.1
446.426	26054.26
446.633	26254.96
446.839	27256.42
447.046	25826.93
447.252	27426.4
447.459	27602.52
447.665	27457.12
447.871	28843.59
448.078	29855.29
448.284	28302.93
448.491	29093.44
448.697	30443.06
448.903	31344.16
449.11	31192.61
449.316	30512.69
449.522	31096.36
449.728	31725.08
449.935	32347.67
450.141	31899.16
450.347	33187.33
450.553	32040.47
450.76	32634.38
450.966	33428.99
451.172	33000.97
451.378	34080.25
451.584	32847.37
451.791	33961.47
451.997	33900.03
452.203	34866.67
452.409	34833.9
452.615	34387.44
452.821	33314.31
453.027	32814.6
453.233	34369.01
453.44	33265.16
453.646	33895.93
453.852	33652.22
454.058	34389.49
454.264	33361.41
454.47	34129.4
454.676	32865.8
454.882	34383.35
455.088	31102.5
455.294	31573.53
455.5	32222.74
455.705	32452.11
455.911	31464.99
456.117	30774.83
456.323	30015.03
456.529	28886.6
456.735	30148.15
456.941	28962.37
457.147	28587.6
457.352	27727.45
457.558	27285.09
457.764	27610.71
457.97	27143.78
458.176	26379.89
458.381	26275.44
458.587	25474.68
458.793	25304.7
458.999	23893.65
459.204	25708.15
459.41	24669.83
459.616	23289.5
459.821	23295.64
460.027	23010.98
460.233	22759.08
460.438	21534.39
460.644	22103.73
460.85	20557.51
461.055	20422.34
461.261	20240.08
461.466	18992.86
461.672	18431.72
461.878	19613.4
462.083	18441.96
462.289	17983.21
462.494	17751.79
462.7	17284.86
462.905	16520.96
463.111	17147.64
463.316	17190.65
463.522	16873.21
463.727	16711.42
463.932	17004.28
464.138	16559.88
464.343	16639.75
464.549	16183.05
464.754	16811.78
464.959	16545.54
465.165	16600.83
465.37	15791.89
465.575	15324.95
465.781	16193.29
465.986	16084.75
466.191	15482.64
466.397	15134.49
466.602	14667.55
466.807	15054.62
467.012	14962.46
467.218	15091.48
467.423	14739.23
467.628	14907.16
467.833	15722.26
468.038	14733.09
468.244	14595.87
468.449	14892.83
468.654	14665.5
468.859	14532.39
469.064	14487.33
469.269	13788.97
469.474	14030.63
469.679	14178.09
469.885	13766.45
470.09	13934.38
470.295	13893.42
470.5	13709.1
470.705	13723.44
470.91	13449.01
471.115	13244.21
471.32	13711.15
471.525	13307.7
471.73	12957.5
471.935	13066.04
472.139	12615.49
472.344	12812.09
472.549	12879.68
472.754	12631.87
472.959	12085.06
473.164	11824.97
473.369	11997
473.574	12158.79
473.778	12296
473.983	12074.82
474.188	11894.6
474.393	11536.21
474.598	11435.86
474.802	11321.17
475.007	11460.43
475.212	11249.49
475.417	10997.59
475.621	11052.89
475.826	10817.37
476.031	10669.92
476.235	10651.49
476.44	10930.01
476.645	10704.73
476.849	10557.28
477.054	10506.08
477.259	10245.99
477.463	10037.09
477.668	9844.59
477.872	10180.45
478.077	9930.6
478.282	9727.85
478.486	9611.12
478.691	9607.02
478.895	9547.63
479.1	9443.18
479.304	9467.76
479.509	9344.88
479.713	9230.2
479.918	9158.52
480.122	9179
480.326	9252.72
480.531	9152.37
480.735	8945.53
480.94	9062.26
481.144	9383.79
481.348	8693.63
481.553	9029.49
481.757	8638.33
481.961	9000.82
482.166	9043.83
482.37	8843.13
482.574	8783.74
482.778	8656.76
482.983	8841.08
483.187	8820.6
483.391	8984.44
483.595	8904.57
483.8	8910.71
484.004	8830.84
484.208	9199.48
484.412	8888.18
484.616	8910.71
484.821	9000.82
485.025	8759.16
485.229	8877.94
485.433	8773.5
485.637	8800.12
485.841	8673.15
486.045	8888.18
486.249	8779.64
486.453	8755.07
486.657	8785.79
486.861	8978.29
487.065	8759.16
487.269	8693.63
487.473	8691.58
487.677	9021.3
487.881	8906.62
488.085	8802.17
488.289	8775.55
488.493	8660.86
488.697	8984.44
488.901	8951.67
489.105	8939.38
489.309	9009.01
489.512	8828.79
489.716	9113.46
489.92	8888.18
490.124	8902.52
490.328	9191.28
490.531	8681.34
490.735	8933.24
490.939	9090.93
491.143	8869.75
491.346	8900.47
491.55	9174.9
491.754	9117.56
491.958	9295.73
492.161	9111.41
492.365	9320.31
492.569	9058.17
492.772	9176.95
492.976	9260.91
493.18	9322.35
493.383	9471.86
493.587	9516.91
493.79	9561.97
493.994	9588.59
494.197	9521.01
494.401	9809.77
494.605	9906.02
494.808	9887.59
495.012	10049.38
495.215	10012.52
495.419	10049.38
495.622	10065.77
495.825	10450.78
496.029	10108.77
496.232	10366.82
496.436	10264.42
496.639	10628.96
496.843	10610.53
497.046	10674.01
497.249	11013.98
497.453	10938.2
497.656	11095.89
497.859	11159.38
498.063	11159.38
498.266	11413.33
498.469	11495.25
498.673	11343.7
498.876	11474.77
499.079	11945.8
499.282	11728.72
499.485	12377.92
499.689	12119.88
499.892	12207.94
500.095	12369.73
500.298	12605.25
500.501	12549.95
500.705	12750.65
500.908	13010.75
501.111	13152.06
501.314	13260.6
501.517	13080.38
501.72	13496.11
501.923	13401.91
502.126	13893.42
502.329	14141.22
502.532	13991.72
502.735	14382.88
502.938	14339.88
503.141	14368.55
503.344	14731.04
503.547	14710.56
503.75	15171.35
503.953	15345.43
504.156	15267.61
504.359	15236.89
504.562	15603.47
504.765	15822.61
504.968	15859.47
505.17	16109.32
505.373	16101.13
505.576	16477.96
505.779	16594.69
505.982	16854.78
506.185	17227.51
506.387	17213.18
506.59	17178.36
506.793	17487.61
506.996	17512.18
507.198	18040.56
507.401	17925.87
507.604	18282.22
507.807	18564.84
508.009	18525.93
508.212	18912.99
508.415	19033.82
508.617	19082.97
508.82	19197.66
509.022	19287.77
509.225	19844.82
509.428	20018.89
509.63	19967.7
509.833	20000.46
510.035	20537.03
510.238	20684.48
510.44	20541.13
510.643	21130.94
510.845	21305.02
511.048	21286.59
511.25	21139.13
511.453	21690.04
511.655	22195.89
511.858	22333.1
512.06	22169.26
512.262	22650.53
512.465	22505.13
512.667	22843.04
512.87	23219.87
513.072	23228.06
513.274	23797.4
513.477	24069.78
513.679	23899.8
513.881	24481.42
514.084	24665.74
514.286	24680.07
514.488	24759.94
514.69	25171.58
514.893	25155.2
515.095	25562.75
515.297	26011.25
515.499	25880.18
515.701	26259.06
515.904	26707.56
516.106	26752.62
516.308	26918.5
516.51	27209.31
516.712	26932.84
516.914	27471.45
517.116	27770.46
517.318	28147.28
517.52	28044.88
517.722	28282.45
517.925	28665.42
518.127	28661.32
518.329	29091.4
518.531	29044.29
518.733	29677.12
518.935	29969.97
519.136	29783.61
519.338	29906.49
519.54	30305.84
519.742	30670.38
519.944	30713.39
520.146	31317.54
520.348	31088.17
520.55	31331.87
520.752	31436.32
520.954	32134.68
521.155	32187.92
521.357	32706.06
521.559	32603.66
521.761	32818.7
521.963	32957.96
522.164	32998.92
522.366	33418.75
522.568	33469.95
522.77	33666.56
522.971	34168.31
523.173	33949.18
523.375	34184.69
523.576	34450.93
523.778	34536.94
523.98	34989.55
524.181	34891.24
524.383	34942.44
524.584	35663.33
524.786	35458.53
524.988	35231.21
525.189	35868.12
525.391	36189.66
525.592	35945.95
525.794	36240.86
525.995	36404.69
526.197	36513.23
526.398	36378.07
526.6	37049.8
526.801	36857.29
527.003	36939.21
527.204	36898.25
527.406	37684.67
527.607	37717.44
527.808	37596.61
528.01	37336.52
528.211	37795.26
528.412	38063.55
528.614	37928.38
528.815	38036.92
529.016	38366.65
529.218	37678.53
529.419	38108.6
529.62	37969.34
529.822	38084.03
530.023	38698.42
530.224	38561.2
530.425	38624.69
530.626	38342.07
530.828	38315.45
531.029	38944.17
531.23	38882.73
531.431	38985.13
531.632	38569.4
531.833	39050.67
532.035	38688.18
532.236	39175.59
532.437	39282.09
532.638	38804.91
532.839	38950.32
533.04	39089.58
533.241	38833.58
533.442	39411.11
533.643	39050.67
533.844	39325.1
534.045	38995.37
534.246	38735.28
534.447	39589.28
534.648	39019.95
534.849	39153.07
535.05	39206.31
535.251	39124.4
535.451	38899.12
535.652	39173.55
535.853	39577
536.054	39261.61
536.255	39417.25
536.456	39249.32
536.657	40025.5
536.857	39165.35
537.058	39331.24
537.259	39722.4
537.46	39605.67
537.66	39398.82
537.861	39218.6
538.062	39122.35
538.263	39830.94
538.463	39214.51
538.664	39222.7
538.865	39568.8
539.065	40019.36
539.266	38956.46
539.466	39480.74
539.667	38849.97
539.868	39718.31
540.068	39419.3
540.269	39286.18
540.469	39624.1
540.67	39095.72
540.87	38950.32
541.071	39099.82
541.271	39851.42
541.472	38899.12
541.672	39122.35
541.873	39144.87
542.073	39032.24
542.274	39712.16
542.474	39388.58
542.675	39361.96
542.875	39478.69
543.075	39671.2
543.276	38907.31
543.476	39464.36
543.676	39105.96
543.877	39151.02
544.077	39650.72
544.277	38983.09
544.478	38956.46
544.678	39275.94
544.878	38870.45
545.078	38954.41
545.279	38710.71
545.479	39034.28
545.679	39146.92
545.879	39202.22
546.079	39144.87
546.28	38944.17
546.48	38880.69
546.68	39028.14
546.88	39077.29
547.08	39097.77
547.28	38919.6
547.48	38487.48
547.68	39466.41
547.88	38905.26
548.081	38888.88
548.281	39247.27
548.481	38948.27
548.681	39163.31
548.881	39007.66
549.081	39163.31
549.28	39069.1
549.48	39099.82
549.68	38823.34
549.88	39531.94
550.08	38714.8
550.28	38749.62
550.48	38655.41
550.68	39065
550.88	38610.35
551.08	38886.83
551.279	39103.92
551.479	38542.77
551.679	38833.58
551.879	38546.87
552.079	39067.05
552.278	38428.09
552.478	39196.07
552.678	38565.3
552.878	38944.17
553.077	38555.06
553.277	38178.23
553.477	39251.37
553.676	38737.33
553.876	38688.18
554.076	38514.1
554.275	38442.42
554.475	38440.37
554.674	38735.28
554.874	38454.71
555.074	38176.19
555.273	38804.91
555.473	39169.45
555.672	38432.18
555.872	38626.74
556.071	38585.78
556.271	38520.24
556.47	38301.11
556.67	38270.39
556.869	37868.99
557.068	38282.68
557.268	38049.21
557.467	38110.65
557.667	38321.59
557.866	38153.66
558.065	38137.27
558.265	38184.38
558.464	38102.46
558.663	38165.95
558.863	37615.04
559.062	38088.12
559.261	37807.55
559.461	38313.4
559.66	37379.53
559.859	37899.71
560.058	37758.4
560.258	38016.44
560.457	37545.41
560.656	37828.03
560.855	37397.96
561.054	37492.16
561.253	37273.03
561.453	37586.37
561.652	37539.27
561.851	37873.09
562.05	37410.25
562.249	37240.26
562.448	37803.46
562.647	37148.11
562.846	37359.05
563.045	37588.42
563.244	36967.88
563.443	37115.34
563.642	36648.4
563.841	37123.53
564.04	36799.95
564.239	36941.26
564.438	36552.15
564.637	36986.32
564.836	36521.43
565.035	36423.12
565.234	36885.97
565.432	36521.43
565.631	36398.55
565.83	36486.61
566.029	36136.41
566.228	36279.77
566.427	36052.44
566.625	35964.38
566.824	35915.23
567.023	36378.07
567.222	35841.5
567.42	35935.71
567.619	35950.04
567.818	35810.78
568.016	35775.97
568.215	35849.69
568.414	35556.83
568.612	35810.78
568.811	35573.22
569.01	35663.33
569.208	35272.17
569.407	35556.83
569.605	35130.86
569.804	35763.68
570.002	35202.53
570.201	35300.84
570.4	35153.38
570.598	34790.89
570.797	34846.19
570.995	34780.65
571.193	34323.96
571.392	35169.77
571.59	34510.32
571.789	35028.46
571.987	34518.51
572.186	34473.46
572.384	34307.57
572.582	34473.46
572.781	34416.11
572.979	33908.22
573.177	34342.39
573.376	34278.9
573.574	33875.45
573.772	34225.65
573.971	33699.33
574.169	33908.22
574.367	33601.02
574.565	33971.71
574.763	33062.41
574.962	33711.61
575.16	33195.53
575.358	33338.88
575.556	33191.43
575.754	33639.93
575.952	32802.32
576.151	33476.1
576.349	32499.22
576.547	32630.29
576.745	32960.01
576.943	33125.89
577.141	32730.64
577.339	32919.05
577.537	32667.15
577.735	32724.49
577.933	32443.92
578.131	32933.39
578.329	32343.57
578.527	32228.88
578.725	32386.58
578.923	32476.69
579.121	31886.87
579.319	31864.35
579.516	32345.62
579.714	31745.56
579.912	31735.32
580.11	31819.29
580.308	31434.27
580.506	31737.37
580.704	31477.28
580.901	31811.1
581.099	31641.12
581.297	30854.7
581.495	31165.99
581.692	31501.86
581.89	31225.38
582.088	31360.55
582.285	30998.05
582.483	31014.44
582.681	31311.39
582.878	30905.9
583.076	30813.74
583.274	30795.31
583.471	30768.68
583.669	30703.15
583.866	30342.7
584.064	30539.31
584.262	30148.15
584.459	30791.21
584.657	30426.67
584.854	30494.25
585.052	30055.99
585.249	30174.77
585.447	30203.44
585.644	30078.52
585.841	29857.34
586.039	30156.34
586.236	29312.58
586.434	29605.44
586.631	29216.32
586.828	29566.52
587.026	29316.67
587.223	29333.06
587.42	29236.8
587.618	29242.95
587.815	29132.36
588.012	29003.33
588.21	29044.29
588.407	28886.6
588.604	28591.69
588.801	28524.11
588.999	28632.65
589.196	28329.55
589.393	28640.84
589.59	28855.88
589.787	28378.7
589.984	28423.76
590.182	27950.68
590.379	28401.23
590.576	27870.81
590.773	28374.61
590.97	28137.04
591.167	28233.3
591.364	27457.12
591.561	27946.58
591.758	27401.82
591.955	27518.56
592.152	27459.16
592.349	27227.74
592.546	27962.97
592.743	27199.07
592.94	27248.22
593.137	27270.75
593.334	27354.72
593.531	26766.95
593.727	26719.85
593.924	27008.61
594.121	26631.79
594.318	26584.68
594.515	26570.35
594.712	26781.29
594.908	26754.66
595.105	26863.21
595.302	25937.52
595.499	26484.33
595.696	26297.97
595.892	26181.23
596.089	26420.84
596.286	26089.07
596.482	25976.44
596.679	26183.28
596.876	25884.28
597.072	25554.55
597.269	25937.52
597.466	25407.1
597.662	25663.1
597.859	25208.45
598.055	25542.27
598.252	25366.14
598.448	25118.34
598.645	25147.01
598.841	24891.01
599.038	25058.95
599.234	25034.37
599.431	24868.48
599.627	24784.52
599.824	24815.24
600.02	24346.25
600.217	24675.98
600.413	24434.32
600.609	24321.68
600.806	24272.53
601.002	24127.12
601.198	24227.47
601.395	24059.54
601.591	24153.74
601.787	24024.72
601.984	23756.44
602.18	24239.76
602.376	24039.06
602.572	23969.43
602.769	23410.33
602.965	23711.38
603.161	23733.91
603.357	23348.89
603.553	23269.02
603.75	23568.02
603.946	23529.11
604.142	23469.72
604.338	23150.24
604.534	23330.46
604.73	23039.65
604.926	22879.91
605.122	22871.71
605.318	23062.18
605.514	22955.68
605.71	22703.78
605.906	22957.73
606.102	22709.93
606.298	22685.35
606.494	22554.28
606.69	22421.16
606.886	22509.22
607.082	22161.07
607.278	22242.99
607.474	22109.87
607.67	22455.98
607.866	22062.77
608.062	22320.81
608.257	21903.03
608.453	22034.1
608.649	22101.68
608.845	22001.33
609.041	21806.77
609.236	21808.82
609.432	22054.58
609.628	21808.82
609.824	21866.16
610.019	21976.75
610.215	21749.43
610.411	21771.96
610.606	21540.54
610.802	21659.32
610.998	21593.78
611.193	21558.97
611.389	21452.47
611.584	21569.21
611.78	21102.27
611.976	21567.16
612.171	21278.4
612.367	21481.14
612.562	21259.96
612.758	21157.57
612.953	21073.6
613.149	21227.2
613.344	21067.45
613.539	21534.39
613.735	20971.2
613.93	21018.3
614.126	21012.16
614.321	21239.48
614.517	21212.86
614.712	21016.26
614.907	20874.95
615.103	21028.54
615.298	20760.26
615.493	20864.71
615.688	20733.64
615.884	20772.55
616.079	20389.58
616.274	20438.73
616.47	20508.36
616.665	20786.88
616.86	20426.44
617.055	20534.98
617.25	20336.33
617.445	20965.06
617.641	19945.17
617.836	20195.02
618.031	20291.27
618.226	20477.64
618.421	20016.85
618.616	20332.23
618.811	20074.19
619.006	20289.23
619.201	19756.75
619.396	19926.74
619.591	19508.95
619.786	20033.23
619.981	19275.48
620.176	20025.04
620.371	19484.37
620.566	19726.03
620.761	19203.8
620.956	19474.13
621.151	19054.3
621.346	19117.79
621.541	18765.54
621.735	18833.12
621.93	18996.96
622.125	18882.27
622.32	18382.57
622.515	18732.77
622.709	18439.91
622.904	18616.04
623.099	18405.1
623.294	18335.46
623.488	18171.63
623.683	17903.34
623.878	17905.39
624.072	17854.19
624.267	18005.74
624.462	17678.07
624.656	17630.96
624.851	17633.01
625.046	17340.15
625.24	17391.35
625.435	17045.24
625.629	17078.01
625.824	16879.36
626.018	16998.14
626.213	16557.83
626.407	16998.14
626.602	16801.54
626.796	16738.05
626.991	16705.28
627.185	16437
627.38	16242.44
627.574	16373.51
627.768	16291.59
627.963	16240.39
628.157	16031.5
628.352	16172.81
628.546	15836.94
628.74	15843.09
628.935	15652.63
629.129	15701.78
629.323	15322.9
629.517	15320.85
629.712	15230.74
629.906	15220.5
630.1	15058.71
630.294	15087.39
630.489	15126.3
630.683	14995.23
630.877	14921.5
631.071	14677.79
631.265	14821.15
631.459	14563.11
631.653	14530.34
631.848	14759.71
632.042	14397.22
632.236	14505.76
632.43	14223.14
632.624	14511.91
632.818	14202.66
633.012	13795.12
633.206	14087.98
633.4	13924.14
633.594	13930.28
633.788	13662
633.982	13721.39
634.176	13711.15
634.369	13500.21
634.563	13705.01
634.757	13330.23
634.951	13453.11
635.145	13504.31
635.339	13338.42
635.533	12926.78
635.726	13274.93
635.92	12889.92
636.114	13102.9
636.308	12937.02
636.501	13041.46
636.695	12967.74
636.889	12674.88
637.083	12642.11
637.276	12803.9
637.47	12351.3
637.664	12549.95
637.857	12529.47
638.051	12365.64
638.244	12271.43
638.438	12322.63
638.632	12263.24
638.825	12181.32
639.019	12052.3
639.212	12048.2
639.406	11986.76
639.599	11847.5
639.793	11788.11
639.986	11753.29
640.18	11741
640.373	11732.81
640.567	11722.57
640.76	11503.44
640.954	11235.16
641.147	11345.75
641.34	11415.38
641.534	11446.1
641.727	11210.58
641.92	11161.43
642.114	11167.57
642.307	10876.76
642.5	10966.87
642.694	10876.76
642.887	11024.22
643.08	11003.74
643.273	10813.27
643.467	10471.26
643.66	10612.57
643.853	10739.55
644.046	10821.47
644.239	10708.83
644.432	10432.35
644.626	10565.47
644.819	10258.28
645.012	10393.44
645.205	10397.54
645.398	10334.05
645.591	10082.15
645.784	10108.77
645.977	9879.4
646.17	9953.13
646.363	9996.14
646.556	9826.15
646.749	10016.62
646.942	10041.19
647.135	9795.43
647.328	9607.02
647.521	9656.17
647.714	9598.83
647.907	9408.37
648.099	9604.97
648.292	9572.21
648.485	9402.22
648.678	9279.35
648.871	9473.9
649.064	9359.22
649.256	9246.58
649.449	9275.25
649.642	9240.43
649.835	9101.17
650.027	9095.03
650.22	9099.13
650.413	8968.06
650.605	8816.51
650.798	8869.75
650.991	8759.16
651.183	8814.46
651.376	8859.51
651.568	8890.23
651.761	8525.69
651.954	8601.47
652.146	8531.84
652.339	8638.33
652.531	8417.15
652.724	8433.54
652.916	8419.2
653.109	8419.2
653.301	8390.53
653.494	8103.81
653.686	8169.35
653.879	8200.07
654.071	8314.75
654.263	8021.89
654.456	8005.51
654.648	8157.06
654.84	7956.36
655.033	7872.39
655.225	7759.75
655.417	7905.16
655.61	7751.56
655.802	7845.77
655.994	7526.29
656.186	7663.5
656.379	7735.18
656.571	7747.47
656.763	7604.11
656.955	7552.91
657.148	7587.72
657.34	7600.01
657.532	7294.86
657.724	7438.22
657.916	7407.5
658.108	7378.83
658.3	7276.43
658.492	7335.82
658.684	7182.23
658.876	7174.03
659.068	7233.43
659.26	7045.01
659.452	6924.18
659.644	7225.23
659.836	7026.58
660.028	7036.82
660.22	6995.86
660.412	6832.02
660.604	6975.38
660.796	6737.82
660.988	6782.87
661.18	6805.4
661.372	6703
661.563	6703
661.755	6571.93
661.947	6580.12
662.139	6422.43
662.331	6586.27
662.522	6498.2
662.714	6590.36
662.906	6395.81
663.097	6410.14
663.289	6424.48
663.481	6354.85
663.673	6444.96
663.864	6453.15
664.056	6162.34
664.247	6268.83
664.439	6123.43
664.631	6154.15
664.822	6211.49
665.014	6121.38
665.205	6047.65
665.397	6090.66
665.588	6051.75
665.78	5924.77
665.971	5984.16
666.163	5904.29
666.354	5953.45
666.546	5930.92
666.737	5875.62
666.929	5824.42
667.12	5900.2
667.311	5652.39
667.503	5760.94
667.694	5642.15
667.885	5781.42
668.077	5679.02
668.268	5662.63
668.459	5771.18
668.651	5701.55
668.842	5756.84
669.033	5552.04
669.224	5601.19
669.416	5543.85
669.607	5480.36
669.798	5515.18
669.989	5509.04
670.18	5253.04
670.371	5504.94
670.563	5386.16
670.754	5345.2
670.945	5353.39
671.136	5306.29
671.327	5277.62
671.518	5248.94
671.709	5277.62
671.9	5291.95
672.091	5259.18
672.282	5197.74
672.473	5177.27
672.664	5126.07
672.855	4990.9
673.046	5162.93
673.237	5156.79
673.428	5124.02
673.619	4966.32
673.809	5005.24
674	4945.84
674.191	5068.72
674.382	4911.03
674.573	5146.55
674.764	4904.89
674.954	5056.43
675.145	4992.95
675.336	4833.21
675.527	4810.68
675.717	4853.69
675.908	4954.04
676.099	4874.17
676.289	4898.74
676.48	4902.84
676.671	4622.27
676.861	4726.71
677.052	4796.34
677.243	4722.62
677.433	4677.56
677.624	4775.86
677.814	4691.9
678.005	4757.43
678.195	4542.39
678.386	4706.23
678.576	4540.35
678.767	4614.07
678.957	4714.42
679.148	4515.77
679.338	4724.66
679.529	4480.96
679.719	4526.01
679.909	4476.86
680.1	4528.06
680.29	4532.15
680.481	4437.95
680.671	4478.91
680.861	4450.24
681.052	4433.85
681.242	4386.75
681.432	4345.79
681.622	4315.07
681.813	4306.88
682.003	4431.8
682.193	4421.56
682.383	4429.76
682.573	4460.48
682.764	4380.61
682.954	4491.2
683.144	4403.13
683.334	4239.3
683.524	4339.65
683.714	4214.72
683.904	4220.86
684.094	4282.3
684.284	4237.25
684.474	4304.83
684.664	4214.72
684.854	4415.42
685.044	4206.53
685.234	4272.06
685.424	4161.47
685.614	4245.44
685.804	4151.23
685.994	4095.94
686.184	4163.52
686.374	4165.57
686.564	4087.75
686.753	4112.32
686.943	4028.35
687.133	3891.14
687.323	3952.58
687.513	3823.56
687.702	3932.1
687.892	3909.57
688.082	3932.1
688.272	4018.11
688.461	3897.28
688.651	3870.66
688.841	3948.48
689.03	3885
689.22	3723.21
689.41	3803.08
689.599	3856.33
689.789	3702.73
689.979	3735.49
690.168	3743.69
690.358	3715.02
690.547	3696.58
690.737	3540.94
690.926	3569.61
691.116	3528.65
691.305	3731.4
691.495	3522.51
691.684	3641.29
691.874	3547.08
692.063	3647.43
692.252	3461.07
692.442	3612.62
692.631	3563.47
692.82	3530.7
693.01	3446.73
693.199	3366.86
693.388	3463.12
693.578	3459.02
693.767	3375.05
693.956	3401.68
694.146	3377.1
694.335	3358.67
694.524	3203.02
694.713	3293.13
694.902	3289.04
695.092	3448.78
695.281	3239.89
695.47	3280.85
695.659	3381.2
695.848	3147.73
696.037	3196.88
696.226	3225.55
696.415	3262.41
696.604	3297.23
696.793	3184.59
696.982	3188.69
697.171	3293.13
697.36	3135.44
697.549	3168.21
697.738	2983.89
697.927	3235.79
698.116	3057.62
698.305	2938.84
698.494	2975.7
698.683	3133.39
698.872	3223.5
699.061	2998.23
699.25	3086.29
699.438	3020.75
699.627	3061.71
699.816	2951.12
700.005	3061.71
700.193	3020.75
700.382	2985.94
700.571	2938.84
700.76	2953.17
700.948	3074
701.137	2977.75
701.326	2947.03
701.514	3045.33
701.703	3069.91
701.892	2883.54
702.08	2967.51
702.269	2873.3
702.457	2912.21
702.646	2987.99
702.834	2871.25
703.023	2805.72
703.212	2861.01
703.4	2891.73
703.589	2838.48
703.777	2994.13
703.965	2887.64
704.154	2973.65
704.342	2881.49
704.531	2906.07
704.719	2944.98
704.907	2928.6
705.096	2856.92
705.284	2922.45
705.472	2967.51
705.661	2924.5
705.849	2906.07
706.037	2885.59
706.226	2848.72
706.414	2879.44
706.602	2746.33
706.79	2944.98
706.979	2871.25
707.167	2861.01
707.355	2805.72
707.543	2813.91
707.731	2930.64
707.919	2901.97
708.107	2871.25
708.296	2828.24
708.484	2666.46
708.672	2940.88
708.86	2826.2
709.048	2785.24
709.236	2871.25
709.424	2797.53
709.612	2844.63
709.8	2709.46
709.988	2723.8
710.176	2707.41
710.364	2770.9
710.551	2793.43
710.739	2713.56
710.927	2750.42
711.115	2815.96
711.303	2871.25
711.491	2719.7
711.679	2783.19
711.866	2740.18
712.054	2820.05
712.242	2834.39
712.43	2815.96
712.617	2746.33
712.805	2752.47
712.993	2713.56
713.181	2688.98
713.368	2807.77
713.556	2750.42
713.744	2701.27
713.931	2805.72
714.119	2865.11
714.306	2705.37
714.494	2844.63
714.682	2887.64
714.869	2633.69
715.057	2789.33
715.244	2744.28
715.432	2824.15
715.619	2615.26
715.807	2637.78
715.994	2791.38
716.182	2738.13
716.369	2801.62
716.556	2754.52
716.744	2658.26
716.931	2856.92
717.119	2787.29
717.306	2705.37
717.493	2715.61
717.681	2713.56
717.868	2723.8
718.055	2797.53
718.242	2756.57
718.43	2725.85
718.617	2818.01
718.804	2701.27
718.991	2635.74
719.179	2787.29
719.366	2752.47
719.553	2701.27
719.74	2727.89
719.927	2768.85
720.114	2693.08
720.301	2793.43
720.488	2666.46
720.676	2680.79
720.863	2818.01
721.05	2756.57
721.237	2641.88
721.424	2637.78
721.611	2664.41
721.798	2775
721.985	2744.28
722.172	2693.08
722.358	2727.89
722.545	2602.97
722.732	2699.22
722.919	2656.22
723.106	2674.65
723.293	2666.46
723.48	2797.53
723.667	2652.12
723.853	2586.58
724.04	2637.78
724.227	2684.89
724.414	2686.94
724.6	2699.22
724.787	2770.9
724.974	2834.39
725.161	2623.45
725.347	2791.38
725.534	2693.08
725.72	2709.46
725.907	2793.43
726.094	2715.61
726.28	2562.01
726.467	2678.74
726.653	2752.47
726.84	2652.12
727.027	2781.14
727.213	2574.3
727.4	2641.88
727.586	2783.19
727.773	2635.74
727.959	2627.54
728.145	2684.89
728.332	2635.74
728.518	2676.7
728.705	2699.22
728.891	2797.53
729.077	2652.12
729.264	2721.75
729.45	2654.17
729.636	2803.67
729.823	2562.01
730.009	2617.3
730.195	2613.21
730.382	2611.16
730.568	2635.74
730.754	2783.19
730.94	2678.74
731.126	2674.65
731.313	2648.02
731.499	2695.13
731.685	2658.26
731.871	2658.26
732.057	2656.22
732.243	2645.98
732.429	2779.09
732.615	2797.53
732.801	2623.45
732.987	2742.23
733.173	2672.6
733.359	2541.53
733.545	2701.27
733.731	2668.5
733.917	2625.5
734.103	2602.97
734.289	2656.22
734.475	2764.76
734.661	2631.64
734.847	2580.44
735.033	2541.53
735.219	2693.08
735.404	2645.98
735.59	2549.72
735.776	2586.58
735.962	2693.08
736.148	2568.15
736.333	2514.91
736.519	2598.87
736.705	2578.39
736.89	2551.77
737.076	2635.74
737.262	2582.49
737.447	2635.74
737.633	2508.76
737.819	2633.69
738.004	2547.67
738.19	2500.57
738.375	2615.26
738.561	2691.03
738.747	2516.95
738.932	2504.67
739.118	2533.34
739.303	2506.71
739.489	2643.93
739.674	2568.15
739.859	2449.37
740.045	2469.85
740.23	2478.04
740.416	2463.71
740.601	2588.63
740.786	2492.38
740.972	2463.71
741.157	2557.91
741.342	2488.28
741.528	2387.93
741.713	2506.71
741.898	2451.42
742.084	2523.1
742.269	2379.74
742.454	2424.8
742.639	2461.66
742.824	2385.88
743.01	2422.75
743.195	2367.45
743.38	2377.69
743.565	2381.79
743.75	2387.93
743.935	2381.79
744.12	2248.67
744.305	2289.63
744.49	2357.21
744.675	2439.13
744.86	2232.29
745.045	2185.18
745.23	2258.91
745.415	2217.95
745.6	2324.44
745.785	2152.42
745.97	2160.61
746.155	2193.37
746.34	2172.89
746.525	2160.61
746.71	2189.28
746.895	2236.38
747.079	2103.26
747.264	2236.38
747.449	2170.85
747.634	2113.5
747.819	2209.76
748.003	2105.31
748.188	1978.34
748.373	2115.55
748.557	2127.84
748.742	2125.79
748.927	2056.16
749.111	2072.54
749.296	1994.72
749.481	2080.74
749.665	2054.11
749.85	2017.25
750.034	2033.63
750.219	1964
750.404	1877.99
750.588	1828.84
750.773	1929.19
750.957	1894.37
751.141	1828.84
751.326	1884.13
751.51	1945.57
751.695	1826.79
751.879	1798.12
752.064	1810.4
752.248	1779.68
752.432	1832.93
752.617	1828.84
752.801	1775.59
752.985	1789.92
753.17	1742.82
753.354	1779.68
753.538	1656.81
753.722	1730.53
753.907	1763.3
754.091	1726.44
754.275	1708.01
754.459	1693.67
754.643	1673.19
754.828	1667.05
755.012	1593.32
755.196	1613.8
755.38	1597.42
755.564	1654.76
755.748	1558.5
755.932	1550.31
756.116	1527.78
756.3	1589.22
756.484	1542.12
756.668	1472.49
756.852	1533.93
757.036	1548.26
757.22	1503.21
757.404	1486.83
757.588	1445.87
757.772	1400.81
757.956	1515.5
758.14	1497.07
758.323	1417.19
758.507	1447.91
758.691	1492.97
758.875	1482.73
759.059	1458.15
759.242	1355.76
759.426	1310.7
759.61	1325.04
759.794	1425.39
759.977	1322.99
760.161	1468.39
760.345	1273.84
760.528	1382.38
760.712	1435.63
760.895	1339.37
761.079	1357.8
761.263	1249.26
761.446	1206.25
761.63	1392.62
761.813	1306.6
761.997	1173.49
762.18	1279.98
762.364	1308.65
762.547	1138.67
762.731	1202.16
762.914	1183.73
763.098	1239.02
763.281	1200.11
763.464	1245.17
763.648	1230.83
763.831	1124.33
764.015	1173.49
764.198	1175.53
764.381	1257.45
764.564	1138.67
764.748	1187.82
764.931	1179.63
765.114	1118.19
765.297	1173.49
765.481	1126.38
765.664	1155.05
765.847	1157.1
766.03	1273.84
766.213	1169.39
766.397	1179.63
766.58	1093.62
766.763	1204.21
766.946	1114.1
767.129	1122.29
767.312	1048.56
767.495	1101.81
767.678	960.5
767.861	1069.04
768.044	978.93
768.227	1124.33
768.41	1103.86
768.593	1058.8
768.776	1155.05
768.959	1081.33
769.142	1044.46
769.324	1116.14
769.507	1030.13
769.69	1032.18
769.873	954.35
770.056	1011.7
770.239	991.22
770.421	1054.7
770.604	1038.32
770.787	1071.09
770.97	1038.32
771.152	966.64
771.335	978.93
771.518	968.69
771.7	911.35
771.883	1007.6
772.066	948.21
772.248	937.97
772.431	983.03
772.613	991.22
772.796	972.79
772.978	940.02
773.161	919.54
773.343	989.17
773.526	888.82
773.708	825.33
773.891	860.15
774.073	870.39
774.256	862.19
774.438	882.67
774.621	872.43
774.803	800.76
774.985	917.49
775.168	778.23
775.35	710.65
775.532	854
775.715	843.76
775.897	884.72
776.079	765.94
776.261	854
776.444	767.99
776.626	845.81
776.808	735.22
776.99	825.33
777.173	684.02
777.355	720.88
777.537	802.8
777.719	800.76
777.901	706.55
778.083	761.84
778.265	767.99
778.447	860.15
778.629	673.78
778.811	708.6
778.993	702.45
779.175	659.45
779.357	825.33
779.539	727.03
779.721	708.6
779.903	761.84
780.085	718.84
780.267	632.82
780.449	702.45
780.631	620.53
780.812	700.41
780.994	690.17
781.176	700.41
781.358	583.67
781.54	663.54
781.721	671.73
781.903	681.97
782.085	661.49
782.267	563.19
782.448	593.91
782.63	667.64
782.812	679.93
782.993	608.25
783.175	598.01
783.357	555
783.538	520.18
783.72	579.58
783.901	608.25
784.083	557.05
784.264	499.7
784.446	536.57
784.627	542.71
784.809	532.47
784.99	464.89
785.172	511.99
785.353	501.75
785.535	532.47
785.716	575.48
785.897	532.47
786.079	561.14
786.26	491.51
786.441	499.7
786.623	456.7
786.804	571.38
786.985	483.32
787.167	475.13
787.348	462.84
787.529	575.48
787.71	456.7
787.891	497.66
788.073	503.8
788.254	442.36
788.435	485.37
788.616	462.84
788.797	444.41
788.978	425.98
789.159	450.55
789.34	501.75
789.522	511.99
789.703	518.14
789.884	411.64
790.065	354.3
790.246	409.59
790.427	489.46
790.607	454.65
790.788	466.94
790.969	399.35
791.15	460.79
791.331	417.79
791.512	466.94
791.693	417.79
791.874	387.07
792.054	438.27
792.235	454.65
792.416	401.4
792.597	364.54
792.778	405.5
792.958	339.96
793.139	356.35
793.32	346.11
793.5	397.31
793.681	362.49
793.862	346.11
794.042	380.92
794.223	333.82
794.404	354.3
794.584	348.15
794.765	323.58
794.945	438.27
795.126	380.92
795.306	393.21
795.487	225.28
795.667	370.68
795.848	323.58
796.028	344.06
796.209	346.11
796.389	319.48
796.57	321.53
796.75	280.57
796.93	442.36
797.111	282.62
797.291	323.58
797.471	290.81
797.652	368.63
797.832	237.56
798.012	329.72
798.192	280.57
798.373	280.57
798.553	309.24
798.733	317.44
798.913	276.48
799.093	360.44
799.274	321.53
799.454	313.34
799.634	344.06
799.814	307.2
799.994	374.78
800.174	305.15
800.354	165.89
800.534	372.73
800.714	344.06
800.894	315.39
801.074	309.24
801.254	253.95
801.434	233.47
801.614	339.96
801.794	202.75
801.974	706.55
802.154	290.81
802.334	282.62
802.514	286.72
802.693	194.56
802.873	231.42
803.053	296.96
803.233	237.56
803.413	270.33
803.592	264.19
803.772	280.57
803.952	278.52
804.131	186.37
804.311	235.52
804.491	268.28
804.67	161.79
804.85	221.18
805.03	309.24
805.209	258.04
805.389	167.93
805.568	253.95
805.748	225.28
805.928	247.8
806.107	258.04
806.287	176.13
806.466	153.6
806.646	284.67
806.825	231.42
807.004	190.46
807.184	217.08
807.363	253.95
807.543	215.04
807.722	215.04
807.901	202.75
808.081	225.28
808.26	233.47
808.439	188.41
808.619	208.89
808.798	151.55
808.977	225.28
809.156	225.28
809.336	243.71
809.515	241.66
809.694	159.74
809.873	180.22
810.052	212.99
810.231	202.75
810.411	260.09
810.59	200.7
810.769	143.36
810.948	190.46
811.127	108.54
811.306	169.98
811.485	165.89
811.664	260.09
811.843	239.61
812.022	151.55
812.201	145.41
812.38	243.71
812.559	169.98
812.737	176.13
812.916	172.03
813.095	182.27
813.274	204.8
813.453	180.22
813.632	153.6
813.811	83.97
813.989	225.28
814.168	206.84
814.347	106.49
814.526	120.83
814.704	245.76
814.883	163.84
815.062	159.74
815.24	194.56
815.419	79.87
815.598	174.08
815.776	163.84
815.955	169.98
816.133	75.77
816.312	200.7
816.49	188.41
816.669	190.46
816.847	131.07
817.026	178.17
817.204	151.55
817.383	110.59
817.561	106.49
817.74	126.97
817.918	202.75
818.097	86.01
818.275	120.83
818.453	63.49
818.632	114.69
818.81	149.5
818.988	96.25
819.167	65.54
819.345	145.41
819.523	126.97
819.701	122.88
819.879	172.03
820.058	77.82
820.236	198.65
820.414	88.06
820.592	186.37
820.77	114.69
820.948	49.15
821.127	63.49
821.305	147.45
821.483	131.07
821.661	167.93
821.839	212.99
822.017	186.37
822.195	102.4
822.373	135.17
822.551	81.92
822.729	163.84
822.907	69.63
823.085	81.92
823.262	219.13
823.44	55.3
823.618	102.4
823.796	98.3
823.974	73.73
824.152	153.6
824.329	79.87
824.507	178.17
824.685	141.31
824.863	47.1
825.04	110.59
825.218	114.69
825.396	94.21
825.574	110.59
825.751	106.49
825.929	51.2
826.107	120.83
826.284	159.74
826.462	145.41
826.639	102.4
826.817	57.34
826.994	141.31
827.172	65.54
827.349	153.6
827.527	65.54
827.704	102.4
827.882	71.68
828.059	106.49
828.237	98.3
828.414	161.79
828.591	86.01
828.769	137.21
828.946	81.92
829.124	129.02
829.301	104.45
829.478	108.54
829.655	114.69
829.833	88.06
830.01	104.45
830.187	71.68
830.364	65.54
830.542	112.64
830.719	122.88
830.896	159.74
831.073	73.73
831.25	88.06
831.427	149.5
831.604	110.59
831.782	90.11
831.959	151.55
832.136	45.06
832.313	83.97
832.49	34.82
832.667	96.25
832.844	45.06
833.021	120.83
833.198	83.97
833.374	34.82
833.551	112.64
833.728	126.97
833.905	51.2
834.082	120.83
834.259	90.11
834.436	114.69
834.612	18.43
834.789	63.49
834.966	30.72
835.143	194.56
835.319	88.06
835.496	67.58
835.673	67.58
835.85	86.01
836.026	83.97
836.203	59.39
836.38	108.54
836.556	43.01
836.733	108.54
836.909	98.3
837.086	94.21
837.262	8.19
837.439	18.43
837.616	36.86
837.792	81.92
837.968	59.39
838.145	55.3
838.321	88.06
838.498	51.2
838.674	112.64
838.851	59.39
839.027	112.64
839.203	135.17
839.38	112.64
839.556	-16.38
839.732	28.67
839.909	79.87
840.085	81.92
840.261	51.2
840.437	57.34
840.614	51.2
840.79	88.06
840.966	53.25
841.142	47.1
841.318	59.39
841.494	133.12
841.671	43.01
841.847	59.39
842.023	67.58
842.199	100.35
842.375	69.63
842.551	34.82
842.727	92.16
842.903	75.77
843.079	18.43
843.255	77.82
843.431	57.34
843.607	75.77
843.783	22.53
843.959	102.4
844.134	40.96
844.31	51.2
844.486	45.06
844.662	24.58
844.838	32.77
845.013	92.16
845.189	43.01
845.365	36.86
845.541	118.78
845.716	51.2
845.892	20.48
846.068	61.44
846.244	12.29
846.419	108.54
846.595	18.43
846.77	8.19
846.946	-16.38
847.122	53.25
847.297	73.73
847.473	18.43
847.648	98.3
847.824	-4.1
847.999	53.25
848.175	45.06
848.35	55.3
848.526	20.48
848.701	75.77
848.876	69.63
849.052	65.54
849.227	38.91
849.403	47.1
849.578	49.15
849.753	69.63
849.929	38.91
850.104	0
850.279	38.91
850.454	137.21
850.63	106.49
850.805	18.43
850.98	45.06
851.155	36.86
851.33	40.96
851.505	-32.77
851.681	63.49
851.856	90.11
852.031	12.29
852.206	-10.24
852.381	34.82
852.556	-18.43
852.731	67.58
852.906	90.11
853.081	4.1
853.256	43.01
853.431	28.67
853.606	-57.34
853.781	2.05
853.956	16.38
854.131	69.63
854.305	98.3
854.48	16.38
854.655	-43.01
854.83	-4.1
855.005	14.34
855.18	-30.72
855.354	71.68
855.529	20.48
855.704	98.3
855.879	14.34
856.053	-6.14
856.228	55.3
856.403	24.58
856.577	90.11
856.752	124.93
856.926	59.39
857.101	26.62
857.276	-2.05
857.45	81.92
857.625	-16.38
857.799	0
857.974	0
858.148	61.44
858.323	38.91
858.497	34.82
858.672	-75.77
858.846	28.67
859.02	59.39
859.195	-10.24
859.369	61.44
859.543	36.86
859.718	16.38
859.892	2.05
860.066	18.43
860.241	45.06
860.415	8.19
860.589	26.62
860.763	53.25
860.938	-45.06
861.112	90.11
861.286	-8.19
861.46	40.96
861.634	92.16
861.808	59.39
861.982	69.63
862.157	-20.48
862.331	-8.19
862.505	90.11
862.679	-47.1
862.853	45.06
863.027	69.63
863.201	124.93
863.375	-26.62
863.549	53.25
863.722	-10.24
863.896	18.43
864.07	-20.48
864.244	28.67
864.418	49.15
864.592	24.58
864.766	0
864.939	8.19
865.113	47.1
865.287	100.35
865.461	-49.15
865.634	-18.43
865.808	-2.05
865.982	-26.62
866.156	-65.53
866.329	2.05
866.503	8.19
866.676	18.43
866.85	-10.24
867.024	-24.58
867.197	24.58
867.371	92.16
867.544	18.43
867.718	-30.72
867.891	6.14
868.065	-14.34
868.238	12.29
868.412	28.67
868.585	55.3
868.759	28.67
868.932	0
869.105	55.3
869.279	16.38
869.452	-18.43
869.625	40.96
869.799	12.29
869.972	57.34
870.145	-4.1
870.319	18.43
870.492	43.01
870.665	22.53
870.838	-38.91
871.011	2.05
871.185	0
871.358	-18.43
871.531	92.16
871.704	8.19
871.877	77.82
872.05	-32.77
872.223	-22.53
872.396	28.67
872.569	51.2
872.742	-24.58
872.915	-6.14
873.088	-26.62
873.261	14.34
873.434	-2.05
873.607	26.62
873.78	34.82
873.953	24.58
874.126	24.58
874.299	-34.82
874.471	-16.38
874.644	2.05
874.817	26.62
874.99	110.59
875.163	108.54
875.335	51.2
875.508	90.11
875.681	4.1
875.853	67.58
876.026	-14.34
876.199	45.06
876.371	-32.77
876.544	34.82
876.717	30.72
876.889	65.54
877.062	20.48
877.234	0
877.407	-18.43
877.579	-59.39
877.752	38.91
877.924	-4.1
878.097	-24.58
878.269	47.1
878.442	-32.77
878.614	-22.53
878.786	69.63
878.959	38.91
879.131	47.1
879.303	53.25
879.476	-36.86
879.648	-49.15
879.82	20.48
879.993	-28.67
880.165	22.53
880.337	-40.96
880.509	83.97
880.681	-16.38
880.854	-16.38
881.026	6.14
881.198	81.92
881.37	-43.01
881.542	26.62
881.714	79.87
881.886	47.1
882.058	16.38
882.23	61.44
882.402	-22.53
882.574	-22.53
882.746	10.24
882.918	10.24
883.09	-32.77
883.262	-69.63
883.434	-47.1
883.606	-14.34
883.778	-16.38
883.95	16.38
884.122	14.34
884.293	79.87
884.465	4.1
884.637	-55.3
884.809	67.58
884.98	83.97
885.152	83.97
885.324	-2.05
885.496	28.67
885.667	-6.14
885.839	-6.14
886.011	59.39
886.182	43.01
886.354	86.01
886.525	-28.67
886.697	75.77
886.869	69.63
887.04	49.15
887.212	30.72
887.383	51.2
887.555	-22.53
887.726	-26.62
887.897	30.72
888.069	-4.1
888.24	36.86
888.412	16.38
888.583	4.1
888.754	6.14
888.926	-4.1
889.097	0
889.268	40.96
889.44	32.77
889.611	0
889.782	-16.38
889.953	28.67
890.125	30.72
890.296	-69.63
890.467	-100.35
890.638	-10.24
890.809	26.62
890.98	12.29
891.151	-6.14
891.323	47.1
891.494	0
891.665	20.48
891.836	28.67
892.007	-2.05
892.178	10.24
892.349	10.24
892.52	26.62
892.691	-92.16
892.862	28.67
893.032	6.14
893.203	-8.19
893.374	-8.19
893.545	77.82
893.716	-16.38
893.887	20.48
894.057	-16.38
894.228	-16.38
894.399	-79.87
894.57	-8.19
894.74	24.58
894.911	47.1
895.082	-36.86
895.253	24.58
895.423	45.06
895.594	34.82
895.764	4.1
895.935	57.34
896.106	14.34
896.276	18.43
896.447	-38.91
896.617	65.54
896.788	-20.48
896.958	-18.43
897.129	10.24
897.299	34.82
897.47	16.38
897.64	28.67
897.81	16.38
897.981	18.43
898.151	-32.77
898.322	73.73
898.492	22.53
898.662	-8.19
898.832	36.86
899.003	34.82
899.173	6.14
899.343	79.87
899.513	22.53
