Data from USB4F104151__89__12-28-15-007.txt Node

Date: Fri Mar 14 12:28:15 EDT 2025
User: louis
Spectrometer: USB4F10415
Trigger mode: 4
Integration Time (sec): 2.000000E-2
Scans to average: 1
Electric dark correction enabled: true
Nonlinearity correction enabled: false
Boxcar width: 0
XAxis mode: Wavelengths
Number of Pixels in Spectrum: 3648
>>>>>Begin Spectral Data<<<<<
178.204	-106.84
178.424	-106.84
178.644	-106.84
178.864	-115.03
179.084	-69.97
179.304	-55.64
179.524	36.52
179.744	-37.2
179.964	59.05
180.184	-63.83
180.404	63.15
180.624	-20.82
180.844	5.8
181.064	-14.68
181.283	24.23
181.503	-22.87
181.723	26.28
181.943	-76.12
182.163	-10.58
182.383	-10.58
182.602	54.95
182.822	67.24
183.042	22.19
183.262	38.57
183.482	-16.73
183.701	18.09
183.921	57
184.141	-8.53
184.361	26.28
184.58	5.8
184.8	30.38
185.02	-12.63
185.239	-20.82
185.459	42.67
185.679	28.33
185.898	-24.92
186.118	-12.63
186.338	16.04
186.557	13.99
186.777	-4.44
186.997	24.23
187.216	-76.12
187.436	32.43
187.655	63.15
187.875	79.53
188.095	7.85
188.314	61.1
188.534	73.39
188.753	26.28
188.973	48.81
189.192	54.95
189.412	50.86
189.631	54.95
189.851	24.23
190.07	44.71
190.29	-26.96
190.509	-22.87
190.729	-26.96
190.948	32.43
191.168	102.06
191.387	77.48
191.607	42.67
191.826	3.75
192.045	-8.53
192.265	-20.82
192.484	30.38
192.704	32.43
192.923	-39.25
193.142	50.86
193.362	22.19
193.581	69.29
193.8	81.58
194.02	48.81
194.239	71.34
194.458	20.14
194.678	63.15
194.897	9.9
195.116	26.28
195.335	79.53
195.555	13.99
195.774	-57.68
195.993	1.71
196.212	-14.68
196.432	22.19
196.651	22.19
196.87	22.19
197.089	79.53
197.308	22.19
197.528	38.57
197.747	54.95
197.966	3.75
198.185	89.77
198.404	42.67
198.623	28.33
198.842	18.09
199.062	32.43
199.281	100.01
199.5	-20.82
199.719	16.04
199.938	38.57
200.157	61.1
200.376	-29.01
200.595	38.57
200.814	34.47
201.033	-37.2
201.252	22.19
201.471	52.91
201.69	18.09
201.909	30.38
202.128	38.57
202.347	54.95
202.566	13.99
202.785	30.38
203.004	-33.11
203.223	22.19
203.442	48.81
203.661	-31.06
203.879	32.43
204.098	81.58
204.317	16.04
204.536	26.28
204.755	26.28
204.974	38.57
205.193	34.47
205.411	87.72
205.63	59.05
205.849	87.72
206.068	34.47
206.287	71.34
206.505	95.91
206.724	5.8
206.943	-47.44
207.162	-20.82
207.381	26.28
207.599	91.82
207.818	-12.63
208.037	89.77
208.255	52.91
208.474	1.71
208.693	-35.16
208.911	83.63
209.13	22.19
209.349	-0.34
209.567	9.9
209.786	-24.92
210.005	11.95
210.223	5.8
210.442	-63.83
210.661	22.19
210.879	-12.63
211.098	-2.39
211.316	26.28
211.535	54.95
211.753	46.76
211.972	57
212.191	5.8
212.409	79.53
212.628	-39.25
212.846	-67.92
213.065	-51.54
213.283	79.53
213.502	-53.59
213.72	59.05
213.938	67.24
214.157	-14.68
214.375	34.47
214.594	-16.73
214.812	130.73
215.031	48.81
215.249	-33.11
215.467	81.58
215.686	-24.92
215.904	3.75
216.122	7.85
216.341	1.71
216.559	48.81
216.778	42.67
216.996	48.81
217.214	30.38
217.432	-18.77
217.651	-16.73
217.869	-18.77
218.087	59.05
218.306	38.57
218.524	24.23
218.742	71.34
218.96	65.19
219.179	63.15
219.397	11.95
219.615	85.67
219.833	18.09
220.051	-10.58
220.27	-10.58
220.488	18.09
220.706	71.34
220.924	-10.58
221.142	11.95
221.36	5.8
221.578	28.33
221.796	-22.87
222.015	95.91
222.233	52.91
222.451	112.3
222.669	-2.39
222.887	75.43
223.105	9.9
223.323	18.09
223.541	-0.34
223.759	-35.16
223.977	81.58
224.195	-10.58
224.413	22.19
224.631	5.8
224.849	59.05
225.067	13.99
225.285	16.04
225.503	69.29
225.721	13.99
225.939	-49.49
226.157	-2.39
226.375	171.69
226.592	30.38
226.81	-33.11
227.028	30.38
227.246	3.75
227.464	61.1
227.682	-14.68
227.9	16.04
228.117	-2.39
228.335	-0.34
228.553	-24.92
228.771	48.81
228.989	28.33
229.206	5.8
229.424	89.77
229.642	24.23
229.86	50.86
230.077	11.95
230.295	16.04
230.513	54.95
230.731	112.3
230.948	3.75
231.166	83.63
231.384	-12.63
231.601	61.1
231.819	67.24
232.037	-59.73
232.254	-10.58
232.472	-20.82
232.689	5.8
232.907	75.43
233.125	63.15
233.342	22.19
233.56	-14.68
233.777	-43.35
233.995	22.19
234.213	42.67
234.43	59.05
234.648	-0.34
234.865	-33.11
235.083	71.34
235.3	1.71
235.518	75.43
235.735	-4.44
235.953	104.11
236.17	7.85
236.388	22.19
236.605	79.53
236.822	-4.44
237.04	16.04
237.257	44.71
237.475	20.14
237.692	75.43
237.909	65.19
238.127	-12.63
238.344	-57.68
238.562	40.62
238.779	-4.44
238.996	-16.73
239.214	93.87
239.431	67.24
239.648	32.43
239.865	61.1
240.083	73.39
240.3	32.43
240.517	-45.4
240.735	3.75
240.952	5.8
241.169	89.77
241.386	-55.64
241.603	71.34
241.821	-49.49
242.038	75.43
242.255	-10.58
242.472	65.19
242.689	97.96
242.907	-10.58
243.124	-31.06
243.341	-18.77
243.558	28.33
243.775	-61.78
243.992	-37.2
244.209	124.58
244.426	81.58
244.643	57
244.86	5.8
245.078	-0.34
245.295	5.8
245.512	-6.49
245.729	7.85
245.946	28.33
246.163	20.14
246.38	9.9
246.597	61.1
246.814	-29.01
247.031	-20.82
247.248	-2.39
247.464	54.95
247.681	18.09
247.898	40.62
248.115	26.28
248.332	52.91
248.549	9.9
248.766	22.19
248.983	42.67
249.2	-6.49
249.417	52.91
249.633	40.62
249.85	61.1
250.067	61.1
250.284	42.67
250.501	40.62
250.717	13.99
250.934	20.14
251.151	71.34
251.368	16.04
251.585	-4.44
251.801	3.75
252.018	46.76
252.235	104.11
252.451	52.91
252.668	40.62
252.885	36.52
253.102	132.78
253.318	13.99
253.535	20.14
253.752	26.28
253.968	11.95
254.185	22.19
254.401	34.47
254.618	26.28
254.835	18.09
255.051	-26.96
255.268	28.33
255.484	59.05
255.701	16.04
255.917	67.24
256.134	42.67
256.351	13.99
256.567	13.99
256.784	-37.2
257	-24.92
257.217	75.43
257.433	48.81
257.65	52.91
257.866	32.43
258.082	-10.58
258.299	18.09
258.515	-12.63
258.732	-65.88
258.948	11.95
259.165	-26.96
259.381	75.43
259.597	95.91
259.814	44.71
260.03	-14.68
260.246	-12.63
260.463	59.05
260.679	20.14
260.895	-35.16
261.112	-14.68
261.328	34.47
261.544	46.76
261.761	116.39
261.977	77.48
262.193	-29.01
262.409	50.86
262.626	-16.73
262.842	-24.92
263.058	-16.73
263.274	5.8
263.49	16.04
263.707	28.33
263.923	95.91
264.139	-51.54
264.355	3.75
264.571	42.67
264.787	36.52
265.004	-6.49
265.22	5.8
265.436	-26.96
265.652	11.95
265.868	26.28
266.084	24.23
266.3	3.75
266.516	-14.68
266.732	9.9
266.948	-26.96
267.164	30.38
267.38	5.8
267.596	52.91
267.812	-10.58
268.028	13.99
268.244	48.81
268.46	20.14
268.676	-8.53
268.892	61.1
269.108	50.86
269.324	-49.49
269.54	-53.59
269.756	65.19
269.972	-4.44
270.188	69.29
270.403	1.71
270.619	-6.49
270.835	9.9
271.051	-22.87
271.267	1.71
271.483	22.19
271.698	-6.49
271.914	-6.49
272.13	46.76
272.346	-6.49
272.562	-6.49
272.777	46.76
272.993	34.47
273.209	83.63
273.425	-6.49
273.64	36.52
273.856	100.01
274.072	75.43
274.287	22.19
274.503	61.1
274.719	59.05
274.934	40.62
275.15	1.71
275.366	77.48
275.581	11.95
275.797	44.71
276.012	-12.63
276.228	-14.68
276.444	38.57
276.659	5.8
276.875	-26.96
277.09	65.19
277.306	22.19
277.521	100.01
277.737	16.04
277.952	63.15
278.168	71.34
278.383	30.38
278.599	1.71
278.814	22.19
279.03	-55.64
279.245	5.8
279.461	77.48
279.676	77.48
279.892	34.47
280.107	26.28
280.322	18.09
280.538	30.38
280.753	-39.25
280.969	-20.82
281.184	11.95
281.399	63.15
281.615	32.43
281.83	24.23
282.045	13.99
282.26	-18.77
282.476	38.57
282.691	42.67
282.906	57
283.122	30.38
283.337	-18.77
283.552	-43.35
283.767	54.95
283.983	57
284.198	18.09
284.413	26.28
284.628	13.99
284.843	65.19
285.058	44.71
285.274	-43.35
285.489	36.52
285.704	61.1
285.919	81.58
286.134	7.85
286.349	22.19
286.564	63.15
286.779	38.57
286.995	46.76
287.21	1.71
287.425	24.23
287.64	36.52
287.855	11.95
288.07	65.19
288.285	-39.25
288.5	32.43
288.715	81.58
288.93	81.58
289.145	-8.53
289.36	13.99
289.575	48.81
289.79	16.04
290.004	9.9
290.219	38.57
290.434	13.99
290.649	69.29
290.864	24.23
291.079	63.15
291.294	89.77
291.509	-12.63
291.724	3.75
291.938	28.33
292.153	18.09
292.368	-18.77
292.583	-45.4
292.798	42.67
293.012	75.43
293.227	-2.39
293.442	95.91
293.657	40.62
293.871	36.52
294.086	69.29
294.301	57
294.516	100.01
294.73	22.19
294.945	30.38
295.16	67.24
295.374	13.99
295.589	11.95
295.804	30.38
296.018	110.25
296.233	71.34
296.447	46.76
296.662	-10.58
296.877	26.28
297.091	44.71
297.306	26.28
297.52	7.85
297.735	128.68
297.949	79.53
298.164	54.95
298.378	69.29
298.593	-26.96
298.807	-4.44
299.022	65.19
299.236	26.28
299.451	61.1
299.665	48.81
299.88	18.09
300.094	63.15
300.309	52.91
300.523	3.75
300.737	7.85
300.952	63.15
301.166	34.47
301.381	18.09
301.595	42.67
301.809	-2.39
302.024	48.81
302.238	22.19
302.452	57
302.667	22.19
302.881	95.91
303.095	26.28
303.309	42.67
303.524	-20.82
303.738	67.24
303.952	-4.44
304.166	79.53
304.381	44.71
304.595	118.44
304.809	54.95
305.023	5.8
305.237	81.58
305.452	48.81
305.666	50.86
305.88	5.8
306.094	52.91
306.308	65.19
306.522	95.91
306.736	38.57
306.95	16.04
307.164	114.34
307.379	7.85
307.593	79.53
307.807	-6.49
308.021	79.53
308.235	77.48
308.449	-14.68
308.663	13.99
308.877	75.43
309.091	5.8
309.305	67.24
309.519	-51.54
309.733	22.19
309.947	30.38
310.161	52.91
310.374	3.75
310.588	79.53
310.802	7.85
311.016	-6.49
311.23	71.34
311.444	24.23
311.658	-10.58
311.872	-2.39
312.085	11.95
312.299	34.47
312.513	83.63
312.727	69.29
312.941	79.53
313.154	7.85
313.368	216.74
313.582	13.99
313.796	44.71
314.009	50.86
314.223	-8.53
314.437	75.43
314.651	1.71
314.864	13.99
315.078	-37.2
315.292	71.34
315.505	73.39
315.719	44.71
315.933	28.33
316.146	63.15
316.36	93.87
316.573	65.19
316.787	46.76
317.001	20.14
317.214	63.15
317.428	-43.35
317.641	-4.44
317.855	28.33
318.068	104.11
318.282	11.95
318.495	87.72
318.709	26.28
318.922	50.86
319.136	36.52
319.349	54.95
319.563	-18.77
319.776	22.19
319.99	36.52
320.203	42.67
320.417	24.23
320.63	-4.44
320.843	50.86
321.057	26.28
321.27	81.58
321.483	63.15
321.697	83.63
321.91	100.01
322.124	91.82
322.337	-26.96
322.55	71.34
322.763	16.04
322.977	61.1
323.19	-31.06
323.403	30.38
323.617	30.38
323.83	79.53
324.043	50.86
324.256	97.96
324.469	28.33
324.683	38.57
324.896	69.29
325.109	30.38
325.322	-4.44
325.535	26.28
325.748	30.38
325.962	11.95
326.175	11.95
326.388	65.19
326.601	100.01
326.814	61.1
327.027	36.52
327.24	130.73
327.453	28.33
327.666	52.91
327.879	73.39
328.092	22.19
328.305	22.19
328.518	38.57
328.731	28.33
328.944	69.29
329.157	75.43
329.37	87.72
329.583	73.39
329.796	46.76
330.009	81.58
330.222	114.34
330.435	9.9
330.648	57
330.861	-2.39
331.073	32.43
331.286	-6.49
331.499	-35.16
331.712	1.71
331.925	30.38
332.138	40.62
332.35	95.91
332.563	73.39
332.776	71.34
332.989	26.28
333.202	5.8
333.414	28.33
333.627	26.28
333.84	104.11
334.053	1.71
334.265	28.33
334.478	-20.82
334.691	20.14
334.903	69.29
335.116	22.19
335.329	-10.58
335.541	26.28
335.754	40.62
335.966	16.04
336.179	-0.34
336.392	-31.06
336.604	71.34
336.817	132.78
337.029	87.72
337.242	89.77
337.454	63.15
337.667	11.95
337.88	97.96
338.092	44.71
338.305	50.86
338.517	30.38
338.729	93.87
338.942	52.91
339.154	-59.73
339.367	26.28
339.579	59.05
339.792	-4.44
340.004	93.87
340.217	-2.39
340.429	-43.35
340.641	87.72
340.854	-2.39
341.066	79.53
341.278	71.34
341.491	120.49
341.703	28.33
341.915	1.71
342.128	91.82
342.34	-24.92
342.552	91.82
342.764	-14.68
342.977	28.33
343.189	95.91
343.401	-45.4
343.613	75.43
343.826	28.33
344.038	-39.25
344.25	-4.44
344.462	48.81
344.674	11.95
344.886	73.39
345.099	28.33
345.311	54.95
345.523	22.19
345.735	-2.39
345.947	89.77
346.159	-18.77
346.371	81.58
346.583	20.14
346.795	93.87
347.007	106.15
347.219	28.33
347.431	-24.92
347.643	13.99
347.855	26.28
348.067	116.39
348.279	-59.73
348.491	71.34
348.703	32.43
348.915	42.67
349.127	7.85
349.339	34.47
349.551	-51.54
349.763	63.15
349.975	59.05
350.187	38.57
350.399	71.34
350.61	42.67
350.822	46.76
351.034	69.29
351.246	36.52
351.458	100.01
351.669	22.19
351.881	143.02
352.093	59.05
352.305	73.39
352.517	108.2
352.728	173.74
352.94	-22.87
353.152	140.97
353.363	61.1
353.575	38.57
353.787	-8.53
353.999	46.76
354.21	46.76
354.422	34.47
354.633	-33.11
354.845	91.82
355.057	-6.49
355.268	69.29
355.48	132.78
355.692	-22.87
355.903	18.09
356.115	73.39
356.326	-4.44
356.538	42.67
356.749	75.43
356.961	36.52
357.172	42.67
357.384	-45.4
357.595	61.1
357.807	-35.16
358.018	16.04
358.23	112.3
358.441	42.67
358.653	102.06
358.864	118.44
359.075	-22.87
359.287	48.81
359.498	34.47
359.709	42.67
359.921	71.34
360.132	46.76
360.344	63.15
360.555	-0.34
360.766	34.47
360.977	-8.53
361.189	67.24
361.4	-22.87
361.611	54.95
361.823	69.29
362.034	81.58
362.245	7.85
362.456	42.67
362.667	48.81
362.879	20.14
363.09	42.67
363.301	67.24
363.512	40.62
363.723	102.06
363.935	16.04
364.146	-18.77
364.357	22.19
364.568	48.81
364.779	-37.2
364.99	134.82
365.201	26.28
365.412	54.95
365.623	52.91
365.834	-24.92
366.045	-4.44
366.256	126.63
366.467	149.16
366.678	5.8
366.889	16.04
367.1	85.67
367.311	63.15
367.522	18.09
367.733	-24.92
367.944	28.33
368.155	46.76
368.366	93.87
368.577	-37.2
368.788	108.2
368.999	85.67
369.209	65.19
369.42	71.34
369.631	110.25
369.842	69.29
370.053	65.19
370.264	124.58
370.474	69.29
370.685	73.39
370.896	54.95
371.107	83.63
371.317	67.24
371.528	26.28
371.739	91.82
371.95	118.44
372.16	71.34
372.371	44.71
372.582	-16.73
372.792	75.43
373.003	22.19
373.214	54.95
373.424	28.33
373.635	46.76
373.846	106.15
374.056	77.48
374.267	48.81
374.477	61.1
374.688	54.95
374.898	71.34
375.109	13.99
375.319	3.75
375.53	38.57
375.74	-4.44
375.951	34.47
376.161	85.67
376.372	104.11
376.582	81.58
376.793	20.14
377.003	106.15
377.214	71.34
377.424	38.57
377.635	143.02
377.845	30.38
378.055	114.34
378.266	26.28
378.476	-20.82
378.686	73.39
378.897	81.58
379.107	22.19
379.317	57
379.528	50.86
379.738	3.75
379.948	24.23
380.158	67.24
380.369	40.62
380.579	77.48
380.789	-2.39
380.999	85.67
381.21	87.72
381.42	130.73
381.63	61.1
381.84	91.82
382.05	54.95
382.261	65.19
382.471	93.87
382.681	54.95
382.891	136.87
383.101	81.58
383.311	71.34
383.521	188.07
383.731	46.76
383.941	95.91
384.151	46.76
384.361	-0.34
384.571	97.96
384.781	59.05
384.991	126.63
385.201	52.91
385.411	32.43
385.621	71.34
385.831	52.91
386.041	61.1
386.251	9.9
386.461	61.1
386.671	20.14
386.881	85.67
387.091	20.14
387.301	87.72
387.511	-10.58
387.72	40.62
387.93	59.05
388.14	22.19
388.35	61.1
388.56	34.47
388.769	165.54
388.979	108.2
389.189	77.48
389.399	75.43
389.609	149.16
389.818	116.39
390.028	59.05
390.238	9.9
390.447	108.2
390.657	89.77
390.867	77.48
391.076	120.49
391.286	75.43
391.496	104.11
391.705	44.71
391.915	85.67
392.125	87.72
392.334	-16.73
392.544	118.44
392.753	110.25
392.963	116.39
393.172	13.99
393.382	87.72
393.591	161.45
393.801	48.81
394.01	151.21
394.22	147.11
394.429	112.3
394.639	32.43
394.848	97.96
395.058	73.39
395.267	26.28
395.477	130.73
395.686	59.05
395.895	116.39
396.105	179.88
396.314	61.1
396.524	79.53
396.733	73.39
396.942	173.74
397.152	87.72
397.361	198.31
397.57	126.63
397.78	79.53
397.989	147.11
398.198	175.78
398.407	38.57
398.617	143.02
398.826	165.54
399.035	118.44
399.244	175.78
399.453	149.16
399.663	130.73
399.872	140.97
400.081	134.82
400.29	175.78
400.499	108.2
400.708	87.72
400.917	93.87
401.127	169.64
401.336	173.74
401.545	163.5
401.754	130.73
401.963	181.93
402.172	100.01
402.381	161.45
402.59	218.79
402.799	208.55
403.008	245.41
403.217	171.69
403.426	190.12
403.635	93.87
403.844	159.4
404.053	163.5
404.262	202.41
404.471	186.02
404.68	136.87
404.888	155.3
405.097	177.83
405.306	167.59
405.515	247.46
405.724	151.21
405.933	251.56
406.142	140.97
406.35	290.47
406.559	163.5
406.768	253.61
406.977	280.23
407.185	200.36
407.394	239.27
407.603	206.5
407.812	251.56
408.02	284.33
408.229	239.27
408.438	284.33
408.646	272.04
408.855	313
409.064	325.29
409.272	358.05
409.481	421.54
409.69	409.25
409.898	323.24
410.107	358.05
410.315	413.35
410.524	435.88
410.733	448.16
410.941	433.83
411.15	493.22
411.358	521.89
411.567	532.13
411.775	499.36
411.984	480.93
412.192	624.29
412.401	599.71
412.609	556.71
412.818	663.2
413.026	591.52
413.234	691.87
413.443	691.87
413.651	710.3
413.86	644.77
414.068	890.53
414.276	724.64
414.485	751.26
414.693	872.09
414.901	960.16
415.11	911
415.318	890.53
415.526	1031.83
415.734	970.4
415.943	988.83
416.151	1097.37
416.359	1093.27
416.567	1070.75
416.776	1210.01
416.984	1205.91
417.192	1318.55
417.4	1361.56
417.608	1281.69
417.817	1425.04
418.025	1349.27
418.233	1554.07
418.441	1506.96
418.649	1672.85
418.857	1601.17
419.065	1861.26
419.273	1666.71
419.481	1812.11
419.689	1791.63
419.897	1982.09
420.105	2033.29
420.313	2078.35
420.521	2174.6
420.729	2123.4
420.937	2277
421.145	2432.65
421.353	2496.13
421.561	2475.65
421.769	2653.83
421.977	2719.36
422.185	2664.07
422.393	2942.59
422.601	3102.33
422.809	2965.12
423.017	3135.1
423.224	3184.25
423.432	3325.56
423.64	3317.37
423.848	3575.41
424.056	3450.49
424.263	3657.33
424.471	3790.45
424.679	3837.55
424.887	4021.87
425.094	4224.62
425.302	4241
425.51	4494.95
425.718	4445.8
425.925	4617.83
426.133	4730.47
426.341	4951.65
426.548	5191.26
426.756	5226.07
426.964	5299.8
427.171	5604.95
427.379	5822.03
427.586	5723.73
427.794	6106.7
428.001	6225.48
428.209	6536.77
428.417	6491.72
428.624	6942.27
428.832	6911.55
429.039	6977.09
429.247	6829.63
429.454	7536.18
429.662	8093.23
429.869	7493.18
430.076	8121.9
430.284	7917.11
430.491	8146.48
430.699	8433.19
430.906	8535.59
431.114	8873.51
431.321	9190.94
431.528	9322.01
431.736	9793.05
431.943	10321.42
432.15	10151.44
432.358	10063.38
432.565	10751.49
432.772	10548.75
432.979	11032.07
433.187	11458.04
433.394	11437.56
433.601	12232.18
433.808	12234.22
434.016	12109.3
434.223	12713.45
434.43	13366.75
434.637	13213.15
434.844	14056.92
435.052	14323.15
435.259	14126.55
435.466	14398.93
435.673	14298.58
435.88	14949.83
436.087	16303.54
436.294	15982.01
436.501	15689.15
436.708	15963.58
436.915	16534.96
437.122	17065.38
437.329	17284.51
437.537	17849.75
437.743	18009.5
437.95	18005.4
438.157	18937.23
438.364	19547.52
438.571	19529.09
438.778	19557.76
438.985	21134.7
439.192	20704.62
439.399	21261.67
439.606	20802.93
439.813	22000.99
440.02	23260.49
440.227	22771.02
440.433	22801.74
440.64	22984.01
440.847	23133.51
441.054	23848.25
441.261	25251.11
441.467	24939.82
441.674	25642.28
441.881	26604.82
442.088	26473.75
442.294	26203.42
442.501	26760.47
442.708	27526.41
442.914	28527.86
443.121	29721.83
443.328	29054.19
443.534	30655.7
443.741	30018.78
443.948	29506.79
444.154	31890.63
444.361	31618.25
444.568	31773.89
444.774	32015.55
444.981	32169.15
445.187	32961.72
445.394	34765.98
445.6	34241.7
445.807	37475.44
446.013	35992.71
446.22	36535.42
446.426	37577.84
446.633	38308.96
446.839	39689.29
447.046	37422.19
447.252	40117.32
447.459	40006.73
447.665	40021.06
447.871	41536.56
448.078	43508.75
448.284	41339.96
448.491	42413.09
448.697	44233.74
448.903	44669.95
449.11	44985.34
449.316	44268.55
449.522	45198.33
449.728	46607.33
449.935	46480.36
450.141	46347.24
450.347	47860.69
450.553	46150.63
450.76	46699.49
450.966	48243.66
451.172	47363.03
451.378	49107.9
451.584	48002
451.791	48946.11
451.997	48925.63
452.203	50035.63
452.409	50095.02
452.615	49507.26
452.821	47971.28
453.027	47743.95
453.233	49769.4
453.44	48157.64
453.646	48550.85
453.852	48655.3
454.058	48991.17
454.264	47735.76
454.47	49046.46
454.676	47973.33
454.882	49845.17
455.088	45509.62
455.294	46130.15
455.5	46851.04
455.705	47274.97
455.911	45218.81
456.117	44762.11
456.323	44119.05
456.529	41501.75
456.735	43238.42
456.941	42585.12
457.147	41886.76
457.352	40367.17
457.558	40164.42
457.764	40225.86
457.97	39443.54
458.176	38782.04
458.381	38546.53
458.587	36689.02
458.793	36815.99
458.999	35095.7
459.204	37620.84
459.41	36213.89
459.616	33928.36
459.821	33993.89
460.027	34069.67
460.233	33055.92
460.438	31603.91
460.644	32058.56
460.85	30532.82
461.055	29711.59
461.261	29967.59
461.466	27796.74
461.672	26973.46
461.878	28894.45
462.083	26742.03
462.289	26189.08
462.494	26076.44
462.7	24919.34
462.905	24243.51
463.111	25083.18
463.316	25271.59
463.522	24393.01
463.727	24775.98
463.932	24755.5
464.138	24522.04
464.343	24362.29
464.549	23782.72
464.754	24474.93
464.959	24507.7
465.165	24022.33
465.37	23229.77
465.575	22519.12
465.781	23391.56
465.986	23649.6
466.191	22852.94
466.397	22465.88
466.602	21302.63
466.807	22050.14
467.012	22170.97
467.218	21704.03
467.423	21783.9
467.628	21742.94
467.833	22795.6
468.038	21652.83
468.244	21259.62
468.449	21882.2
468.654	21230.95
468.859	21134.7
469.064	21146.98
469.269	19920.25
469.474	20542.83
469.679	20878.7
469.885	20360.56
470.09	20376.95
470.295	20499.83
470.5	19852.67
470.705	20190.58
470.91	19760.51
471.115	19416.45
471.32	19408.26
471.525	19643.77
471.73	19019.14
471.935	18939.27
472.139	18267.54
472.344	18730.38
472.549	18369.94
472.754	18027.93
472.959	18054.55
473.164	17560.99
473.369	17352.1
473.574	17878.43
473.778	17665.44
473.983	17765.79
474.188	17270.18
474.393	16659.88
474.598	16747.95
474.802	16805.29
475.007	16424.37
475.212	16627.12
475.417	15812.03
475.621	15791.55
475.826	16111.03
476.031	15855.03
476.235	15412.67
476.44	15836.6
476.645	15205.83
476.849	15050.18
477.054	15162.82
477.259	14892.49
477.463	14800.33
477.668	14540.24
477.872	14835.14
478.077	14476.75
478.282	13975
478.486	14044.63
478.691	13985.24
478.895	14128.6
479.1	13770.2
479.304	13888.98
479.509	13395.42
479.713	13624.79
479.918	13475.29
480.122	13235.68
480.326	13352.41
480.531	13460.96
480.735	13096.42
480.94	13112.8
481.144	13491.68
481.348	12930.53
481.553	12744.17
481.757	12826.09
481.961	12994.02
482.166	12916.2
482.37	12727.78
482.574	12832.23
482.778	12867.05
482.983	12965.35
483.187	12821.99
483.391	12832.23
483.595	12797.42
483.8	12803.56
484.004	12805.61
484.208	12897.77
484.412	12752.36
484.616	12789.22
484.821	12928.49
485.025	12586.47
485.229	12963.3
485.433	12664.3
485.637	12629.48
485.841	12795.37
486.045	12832.23
486.249	12856.81
486.453	12731.88
486.657	12649.96
486.861	12791.27
487.065	12627.43
487.269	12664.3
487.473	12893.67
487.677	12764.65
487.881	12918.25
488.085	12697.06
488.289	12717.54
488.493	12596.71
488.697	12973.54
488.901	12668.39
489.105	12760.55
489.309	12797.42
489.512	13188.58
489.716	12783.08
489.92	12908.01
490.124	12922.34
490.328	13084.13
490.531	12715.5
490.735	13053.41
490.939	13080.04
491.143	12912.1
491.346	13092.32
491.55	13491.68
491.754	13338.08
491.958	13489.63
492.161	13319.65
492.365	13391.33
492.569	13379.04
492.772	13481.44
492.976	13469.15
493.18	13696.47
493.383	13585.88
493.587	13899.22
493.79	14181.84
493.994	13725.15
494.197	14038.48
494.401	13985.24
494.605	14091.73
494.808	14278.1
495.012	14409.17
495.215	14505.42
495.419	14511.57
495.622	14433.74
495.825	14626.25
496.029	14542.28
496.232	14853.58
496.436	15144.39
496.639	15297.99
496.843	15459.77
497.046	15607.23
497.249	15730.11
497.453	15906.23
497.656	16068.02
497.859	16108.98
498.063	16328.11
498.266	16629.16
498.469	16274.87
498.673	16518.57
498.876	16967.08
499.079	17044.9
499.282	17044.9
499.485	17388.96
499.689	17388.96
499.892	17874.33
500.095	17911.19
500.298	18357.65
500.501	18029.98
500.705	18531.73
500.908	18609.55
501.111	18830.73
501.314	19180.93
501.517	19258.76
501.72	19682.69
501.923	19524.99
502.126	19963.26
502.329	20303.22
502.532	20364.66
502.735	20454.77
502.938	20710.77
503.141	21083.5
503.344	21179.75
503.547	21194.09
503.75	21663.07
503.953	22050.14
504.156	22080.86
504.359	22349.14
504.562	22598.99
504.765	22717.78
504.968	22914.38
505.17	23588.16
505.373	23199.05
505.576	23848.25
505.779	24171.83
505.982	24089.92
506.185	24722.74
506.387	24841.52
506.59	25040.17
506.793	25537.83
506.996	25361.7
507.198	26168.6
507.401	25914.66
507.604	26139.93
507.807	26938.64
508.009	26905.87
508.212	27049.23
508.415	27630.85
508.617	27493.64
508.82	27909.38
509.022	27802.88
509.225	28693.75
509.428	28980.46
509.63	29039.86
509.833	28959.98
510.035	29504.74
510.238	29752.55
510.44	30149.85
510.643	29865.19
510.845	30665.94
511.048	30358.75
511.25	31237.33
511.453	31540.43
511.655	32455.87
511.858	31980.74
512.06	32427.2
512.262	32498.87
512.465	32552.12
512.667	33115.31
512.87	33711.27
513.072	33713.32
513.274	33936.55
513.477	34364.57
513.679	34432.16
513.881	35124.37
514.084	35361.94
514.286	35413.13
514.488	35429.52
514.69	36732.03
514.893	36770.94
515.095	36758.65
515.297	37311.6
515.499	37217.39
515.701	37864.55
515.904	38257.76
516.106	38448.22
516.308	38544.48
516.51	38886.49
516.712	39107.67
516.914	39418.96
517.116	40090.69
517.318	40346.69
517.52	40662.08
517.722	40639.55
517.925	41389.11
518.127	41552.94
518.329	41937.96
518.531	41817.13
518.733	42169.38
518.935	42415.14
519.136	42601.5
519.338	43396.12
519.54	43658.26
519.742	44108.81
519.944	44186.63
520.146	45067.26
520.348	45042.68
520.55	45468.66
520.752	45450.23
520.954	46341.1
521.155	45435.89
521.357	46386.15
521.559	46750.69
521.761	47553.49
521.963	47094.75
522.164	47512.53
522.366	47932.37
522.568	48313.29
522.77	48120.78
522.971	49363.9
523.173	48708.55
523.375	49277.88
523.576	48870.34
523.778	49032.13
523.98	49793.97
524.181	50482.09
524.383	49869.75
524.584	50875.3
524.786	50850.72
524.988	50287.53
525.189	51110.81
525.391	51450.78
525.592	51389.34
525.794	51739.54
525.995	51960.72
526.197	51884.95
526.398	52425.61
526.6	52792.2
526.801	52556.68
527.003	52767.62
527.204	52614.02
527.406	53228.41
527.607	53726.07
527.808	53447.55
528.01	52976.51
528.211	53222.27
528.412	54371.18
528.614	54317.93
528.815	53523.32
529.016	54768.49
529.218	53658.49
529.419	53941.11
529.62	54449
529.822	54393.71
530.023	54391.66
530.224	54831.97
530.425	54637.42
530.626	54147.95
530.828	54113.14
531.029	55106.4
531.23	54313.84
531.431	54532.97
531.632	55049.06
531.833	55542.62
532.035	55280.48
532.236	55069.54
532.437	55577.43
532.638	54991.72
532.839	55800.66
533.04	55284.58
533.241	54737.77
533.442	56075.09
533.643	55346.01
533.844	55645.02
534.045	55651.16
534.246	55137.12
534.447	55935.83
534.648	55233.38
534.849	55751.51
535.05	55118.69
535.251	55518.04
535.451	55659.35
535.652	55446.36
535.853	55786.33
536.054	55833.43
536.255	55599.96
536.456	55421.79
536.657	56099.67
536.857	55065.44
537.058	55253.86
537.259	55454.56
537.46	55647.07
537.66	55458.65
537.861	55782.23
538.062	55716.7
538.263	55472.99
538.463	55223.14
538.664	55333.73
538.865	55735.13
539.065	55968.6
539.266	55098.21
539.466	56027.99
539.667	54774.63
539.868	55929.69
540.068	55526.24
540.269	55372.64
540.469	55409.5
540.67	55532.38
540.87	55468.89
541.071	55411.55
541.271	55522.14
541.472	55247.71
541.672	54963.04
541.873	55102.31
542.073	54932.32
542.274	55585.63
542.474	55235.42
542.675	54971.24
542.875	55728.98
543.075	55333.73
543.276	54829.93
543.476	55581.53
543.676	54983.52
543.877	55417.69
544.077	55028.58
544.277	55059.3
544.478	54981.48
544.678	55493.47
544.878	55092.07
545.078	55237.47
545.279	54764.39
545.479	54913.89
545.679	55812.95
545.879	55143.27
546.079	54950.76
546.28	54786.92
546.48	54881.13
546.68	55468.89
546.88	55262.05
547.08	54864.74
547.28	55034.72
547.48	54758.25
547.68	55077.73
547.88	54743.91
548.081	55102.31
548.281	54801.25
548.481	54631.27
548.681	55225.18
548.881	54547.31
549.081	54946.66
549.28	54483.82
549.48	54954.85
549.68	54819.69
549.88	54827.88
550.08	54430.57
550.28	54993.76
550.48	54705
550.68	55262.05
550.88	54326.13
551.08	54602.6
551.279	55356.25
551.479	54395.76
551.679	54629.23
551.879	54129.52
552.079	55208.8
552.278	54514.54
552.478	54817.64
552.678	54504.3
552.878	55130.98
553.077	54285.17
553.277	54344.56
553.477	54895.46
553.676	54096.75
553.876	54414.19
554.076	53887.86
554.275	54307.69
554.475	54084.47
554.674	54438.76
554.874	54629.23
555.074	54299.5
555.273	54162.29
555.473	54756.2
555.672	54291.31
555.872	54307.69
556.071	53934.96
556.271	54256.49
556.47	54004.59
556.67	53420.92
556.869	53732.21
557.068	54104.95
557.268	53670.78
557.467	53666.68
557.667	53851
557.866	53818.23
558.065	53865.33
558.265	53103.49
558.464	53392.25
558.663	54025.07
558.863	53023.62
559.062	53767.03
559.261	52724.61
559.461	53672.82
559.66	52732.81
559.859	53269.37
560.058	53005.19
560.258	52775.81
560.457	52630.41
560.656	52908.93
560.855	52702.09
561.054	53332.86
561.253	52573.06
561.453	52798.34
561.652	52863.88
561.851	52788.1
562.05	52450.19
562.249	52396.94
562.448	52626.31
562.647	52681.61
562.846	52079.5
563.045	52329.36
563.244	51950.48
563.443	52691.85
563.642	51809.17
563.841	52120.46
564.04	51876.76
564.239	52394.89
564.438	51512.22
564.637	52353.93
564.836	52409.23
565.035	51202.97
565.234	52155.28
565.432	51686.29
565.631	51321.76
565.83	51532.7
566.029	52106.13
566.228	50772.9
566.427	51020.7
566.625	50959.27
566.824	50330.54
567.023	51710.87
567.222	50441.13
567.42	51196.83
567.619	51239.84
567.818	50983.84
568.016	50834.34
568.215	50920.35
568.414	50502.57
568.612	51239.84
568.811	49935.28
569.01	50195.37
569.208	49740.72
569.407	50680.74
569.605	49957.81
569.804	50543.53
570.002	49597.37
570.201	50049.97
570.4	49607.61
570.598	49769.4
570.797	49159.1
570.995	50000.82
571.193	48640.96
571.392	49679.28
571.59	48708.55
571.789	49126.33
571.987	48931.78
572.186	49097.66
572.384	48933.82
572.582	48894.91
572.781	48800.71
572.979	48372.68
573.177	48470.98
573.376	48790.47
573.574	48131.02
573.772	48223.18
573.971	48360.39
574.169	48102.35
574.367	47555.54
574.565	48073.68
574.763	47731.67
574.962	47385.56
575.16	47416.28
575.358	47762.39
575.556	46797.79
575.754	47528.92
575.952	47047.64
576.151	47963.09
576.349	46502.89
576.547	47102.94
576.745	46926.81
576.943	46914.53
577.141	47055.84
577.339	46664.67
577.537	46017.52
577.735	46357.48
577.933	46042.09
578.131	46375.91
578.329	46169.07
578.527	45917.17
578.725	46038
578.923	46382.05
579.121	45771.76
579.319	45569.01
579.516	45808.62
579.714	45550.58
579.912	45526
580.11	45374.45
580.308	45380.6
580.506	45241.34
580.704	44547.07
580.901	44659.71
581.099	45310.97
581.297	44901.37
581.495	44655.62
581.692	44858.37
581.89	44274.7
582.088	44919.81
582.285	44235.78
582.483	44125.19
582.681	44276.74
582.878	43965.45
583.076	43631.63
583.274	43957.26
583.471	43494.42
583.669	43781.13
583.866	43052.06
584.064	43633.68
584.262	42994.71
584.459	43404.31
584.657	43238.42
584.854	43402.26
585.052	42632.22
585.249	42802.21
585.447	42976.28
585.644	42503.2
585.841	42173.48
586.039	42710.05
586.236	42318.88
586.434	42267.69
586.631	42005.55
586.828	42417.19
587.026	42058.79
587.223	41362.48
587.42	41708.59
587.618	41831.47
587.815	41409.59
588.012	41622.58
588.21	41579.57
588.407	41585.71
588.604	41245.75
588.801	40725.57
588.999	40866.88
589.196	40655.93
589.393	40909.88
589.59	40819.77
589.787	40631.36
589.984	39978.06
590.182	40416.32
590.379	40395.84
590.576	39949.39
590.773	40012.87
590.97	40008.78
591.167	39826.51
591.364	39623.76
591.561	39730.25
591.758	39074.9
591.955	39339.09
592.152	39265.36
592.349	38882.39
592.546	39099.48
592.743	39140.44
592.94	38292.58
593.137	38788.19
593.334	39040.09
593.531	38270.05
593.727	38728.8
593.924	38689.88
594.121	38173.8
594.318	38501.47
594.515	37940.33
594.712	38128.74
594.908	38009.96
595.105	37997.67
595.302	37620.84
595.499	37661.8
595.696	37471.34
595.892	37305.46
596.089	37383.28
596.286	37063.8
596.482	37043.32
596.679	37194.87
596.876	37295.22
597.072	36682.87
597.269	36674.68
597.466	36654.2
597.662	36396.16
597.859	36381.82
598.055	36580.48
598.252	35968.13
598.448	36498.56
598.645	36144.26
598.841	35837.06
599.038	35755.15
599.234	35662.99
599.431	34972.82
599.627	35411.09
599.824	35892.36
600.02	35509.39
600.217	35601.55
600.413	35185.81
600.609	35163.28
600.806	34892.95
601.002	34958.49
601.198	34968.73
601.395	34751.64
601.591	34729.11
601.787	34337.95
601.984	34303.14
602.18	34608.28
602.376	34454.68
602.572	34335.9
602.769	33813.67
602.965	33694.89
603.161	33946.79
603.357	33891.49
603.553	33653.93
603.75	33715.37
603.946	33223.86
604.142	33465.52
604.338	32941.24
604.534	33242.29
604.73	32595.13
604.926	33139.89
605.122	32816.31
605.318	32855.22
605.514	32779.45
605.71	32984.24
605.906	32363.71
606.102	32269.5
606.298	32380.09
606.494	32302.27
606.69	32529.59
606.886	32242.88
607.082	31952.07
607.278	32195.78
607.474	31536.33
607.67	32251.07
607.866	31458.51
608.062	32052.42
608.257	31671.5
608.453	31681.74
608.649	31452.36
608.845	31620.3
609.041	31679.69
609.236	31612.1
609.432	31274.19
609.628	31145.17
609.824	31026.39
610.019	31296.72
610.215	31403.21
610.411	31380.68
610.606	30854.36
610.802	31077.58
610.998	30889.17
611.193	31018.19
611.389	30940.37
611.584	30762.2
611.78	30678.23
611.976	30325.98
612.171	30616.79
612.367	31005.91
612.562	30559.45
612.758	30074.08
612.953	29916.39
613.149	30381.28
613.344	29906.15
613.539	30600.41
613.735	30248.16
613.93	30067.94
614.126	29875.43
614.321	30305.5
614.517	29885.67
614.712	29914.34
614.907	29885.67
615.103	30119.14
615.298	29553.9
615.493	30162.14
615.688	29320.43
615.884	29863.14
616.079	29080.81
616.274	29375.72
616.47	29398.25
616.665	29566.18
616.86	29193.45
617.055	29058.29
617.25	29289.71
617.445	29596.9
617.641	28808.44
617.836	29488.36
618.031	28675.32
618.226	29342.95
618.421	28722.42
618.616	29066.48
618.811	28505.34
619.006	28730.61
619.201	28146.94
619.396	28447.99
619.591	27942.14
619.786	28482.81
619.981	27751.68
620.176	28157.18
620.371	27778.31
620.566	27653.38
620.761	27430.15
620.956	27628.81
621.151	27282.7
621.346	27344.14
621.541	27143.44
621.735	27309.32
621.93	26940.69
622.125	26731.79
622.32	26397.98
622.515	26549.53
622.709	26314.01
622.904	26400.02
623.099	26053.92
623.294	26012.96
623.488	25603.36
623.683	25830.69
623.878	25199.91
624.072	25582.88
624.267	25515.3
624.462	25072.94
624.656	25214.25
624.851	25115.95
625.046	25165.1
625.24	24814.9
625.435	24382.77
625.629	24632.63
625.824	24522.04
626.018	24257.85
626.213	23850.3
626.407	24286.52
626.602	23522.63
626.796	23940.41
626.991	23434.57
627.185	23835.97
627.38	23262.54
627.574	23147.85
627.768	22875.47
627.963	22969.68
628.157	22621.52
628.352	22766.93
628.546	22840.65
628.74	22613.33
628.935	22166.87
629.129	22404.44
629.323	22216.02
629.517	22068.57
629.712	21953.88
629.906	21831.01
630.1	21476.71
630.294	21570.91
630.489	21493.09
630.683	21601.63
630.877	21333.35
631.071	21138.79
631.265	21173.61
631.459	20843.88
631.653	20714.86
631.848	20852.08
632.042	20546.93
632.236	20774.25
632.43	20600.18
632.624	20346.23
632.818	20028.79
633.012	20055.42
633.206	19944.83
633.4	20026.75
633.594	19748.22
633.788	19852.67
633.982	19682.69
634.176	19801.47
634.369	19533.18
634.563	19307.91
634.757	19297.67
634.951	19404.16
635.145	19277.19
635.339	19221.89
635.533	19053.96
635.726	18613.65
635.92	18787.72
636.114	18644.37
636.308	18589.07
636.501	18515.34
636.695	18451.86
636.889	18128.28
637.083	17935.77
637.276	17974.68
637.47	18001.3
637.664	17759.64
637.857	17773.98
638.051	17681.82
638.244	17614.24
638.438	17552.8
638.632	17524.13
638.825	17407.39
639.019	17073.57
639.212	17046.95
639.406	16846.25
639.599	17069.48
639.793	16915.88
639.986	16713.13
640.18	16821.67
640.373	16655.79
640.567	16475.57
640.76	16692.65
640.954	16223.67
641.147	16317.87
641.34	16246.19
641.534	16401.84
641.727	16049.59
641.92	15846.84
642.114	15865.27
642.307	16123.32
642.5	15687.1
642.694	15576.51
642.887	15463.87
643.08	15699.39
643.273	15453.63
643.467	15412.67
643.66	15271.36
643.853	14941.64
644.046	15138.24
644.239	15062.47
644.432	14998.98
644.626	14884.3
644.819	14804.42
645.012	14728.65
645.205	14716.36
645.398	14831.05
645.591	14503.37
645.784	14595.53
645.977	14321.1
646.17	14319.06
646.363	14204.37
646.556	13927.89
646.749	14036.44
646.942	13975
647.135	14065.11
647.328	13848.02
647.521	13897.17
647.714	13532.64
647.907	13663.71
648.099	13641.18
648.292	13544.92
648.485	13450.72
648.678	13313.5
648.871	13309.41
649.064	13331.94
649.256	13186.53
649.449	12948.97
649.642	12832.23
649.835	12879.33
650.027	12905.96
650.22	12647.91
650.413	12479.98
650.605	12905.96
650.798	12676.59
650.991	12545.52
651.183	12541.42
651.376	12461.55
651.568	12496.36
651.761	12473.84
651.954	12232.18
652.146	12142.07
652.339	12023.28
652.531	12004.85
652.724	12115.44
652.916	11726.33
653.109	12068.34
653.301	11834.87
653.494	11935.22
653.686	11593.21
653.879	11871.73
654.071	11556.35
654.263	11531.77
654.456	11558.39
654.648	11513.34
654.84	11193.86
655.033	11220.48
655.225	11216.38
655.417	11079.17
655.61	11142.66
655.802	10944
655.994	11062.79
656.186	10993.15
656.379	11007.49
656.571	10937.86
656.763	10780.17
656.955	10677.77
657.148	10892.8
657.34	10683.91
657.532	10397.2
657.724	10569.23
657.916	10475.02
658.108	10307.09
658.3	10302.99
658.492	10438.16
658.684	9969.17
658.876	10173.97
659.068	10278.41
659.26	9946.64
659.452	10153.49
659.644	9989.65
659.836	9983.51
660.028	9860.63
660.22	9653.78
660.412	9768.47
660.604	9612.82
660.796	9797.14
660.988	9616.92
661.18	9387.55
661.372	9311.77
661.563	9571.86
661.755	9469.47
661.947	9500.19
662.139	9223.71
662.331	9289.24
662.522	9178.65
662.714	8961.57
662.906	8975.91
663.097	9213.47
663.289	8998.43
663.481	8992.29
663.673	8902.18
663.864	8889.89
664.056	8973.86
664.247	8672.81
664.439	8478.25
664.631	8637.99
664.822	8678.95
665.014	8590.89
665.205	8652.33
665.397	8435.24
665.588	8476.2
665.78	8277.55
665.971	8449.58
666.163	8640.04
666.354	8435.24
666.546	8193.58
666.737	8209.97
666.929	8089.14
667.12	8283.69
667.311	8128.05
667.503	7953.97
667.694	8230.45
667.885	8005.17
668.077	7984.69
668.268	7941.68
668.459	7984.69
668.651	7771.7
668.842	7898.67
669.033	7859.76
669.224	7790.13
669.416	7808.56
669.607	7728.69
669.798	7667.25
669.989	7718.45
670.18	7749.17
670.371	7515.7
670.563	7636.53
670.754	7501.37
670.945	7224.89
671.136	7454.26
671.327	7261.76
671.518	7411.26
671.709	7257.66
671.9	7173.69
672.091	7448.12
672.282	7075.39
672.473	7056.96
672.664	7077.44
672.855	6995.52
673.046	7079.49
673.237	7104.06
673.428	7124.54
673.619	6997.57
673.809	6946.37
674	6815.3
674.191	6833.73
674.382	6866.5
674.573	6735.43
674.764	6854.21
674.954	6979.14
675.145	6755.91
675.336	6577.73
675.527	6590.02
675.717	6749.76
675.908	6540.87
676.099	6557.25
676.289	6620.74
676.48	6571.59
676.671	6362.7
676.861	6526.54
677.052	6540.87
677.243	6493.77
677.433	6540.87
677.624	6424.14
677.814	6432.33
678.005	6473.29
678.195	6278.73
678.386	6291.02
678.576	6325.83
678.767	6260.3
678.957	6295.11
679.148	6293.07
679.338	6131.28
679.529	5975.63
679.719	6162
679.909	6141.52
680.1	6032.97
680.29	5996.11
680.481	6094.41
680.671	6202.96
680.861	5989.97
681.052	6229.58
681.242	5908.05
681.432	6106.7
681.622	5961.3
681.813	5867.09
682.003	5918.29
682.193	5815.89
682.383	5953.1
682.573	5924.43
682.764	5987.92
682.954	5910.1
683.144	5715.54
683.334	5848.66
683.524	5793.36
683.714	5729.88
683.904	5672.53
684.094	5815.89
684.284	5652.05
684.474	5625.43
684.664	5690.96
684.854	5766.74
685.044	5641.81
685.234	5422.68
685.424	5598.81
685.614	5453.4
685.804	5518.93
685.994	5453.4
686.184	5545.56
686.374	5326.43
686.564	5527.13
686.753	5520.98
686.943	5305.95
687.133	5533.27
687.323	5283.42
687.513	5381.72
687.702	5244.51
687.892	5207.64
688.082	5318.23
688.272	5262.94
688.461	5250.65
688.651	5289.56
688.841	5189.21
689.03	5172.83
689.22	5197.4
689.41	4949.6
689.599	5013.09
689.789	5019.23
689.979	4978.27
690.168	5033.57
690.358	4906.59
690.547	4834.91
690.737	4922.98
690.926	4910.69
691.116	4716.13
691.305	5070.43
691.495	4959.84
691.684	4849.25
691.874	4871.78
692.063	4601.44
692.252	4720.23
692.442	4757.09
692.631	4654.69
692.82	4675.17
693.01	4621.92
693.199	4644.45
693.388	4560.49
693.578	4548.2
693.767	4542.05
693.956	4585.06
694.146	4497
694.335	4464.23
694.524	4531.81
694.713	4413.03
694.902	4601.44
695.092	4517.48
695.281	4386.41
695.47	4370.02
695.659	4318.82
695.848	4423.27
696.037	4437.61
696.226	4390.5
696.415	4296.3
696.604	4443.75
696.793	4286.06
696.982	4380.26
697.171	4363.88
697.36	4191.85
697.549	4298.35
697.738	4220.52
697.927	4214.38
698.116	4208.23
698.305	4267.63
698.494	4296.3
698.683	4034.16
698.872	4038.25
699.061	4077.16
699.25	4150.89
699.438	4091.5
699.627	4064.88
699.816	4146.8
700.005	4058.73
700.193	4001.39
700.382	4089.45
700.571	4150.89
700.76	4212.33
700.948	4099.69
701.137	4091.5
701.326	3989.1
701.514	3999.34
701.703	4085.36
701.892	3982.96
702.08	3837.55
702.269	4060.78
702.457	4015.73
702.646	4062.83
702.834	3880.56
703.023	4048.49
703.212	4079.21
703.4	4011.63
703.589	3905.14
703.777	4007.53
703.965	3819.12
704.154	3843.7
704.342	4011.63
704.531	3784.3
704.719	3855.98
704.907	3991.15
705.096	3946.09
705.284	3937.9
705.472	3864.18
705.661	3849.84
705.849	3970.67
706.037	3939.95
706.226	3911.28
706.414	3847.79
706.602	3780.21
706.79	4103.79
706.979	3763.83
707.167	3792.5
707.355	3772.02
707.543	3907.18
707.731	3901.04
707.919	3784.3
708.107	3696.24
708.296	3823.22
708.484	3757.68
708.672	3726.96
708.86	3790.45
709.048	3737.2
709.236	3839.6
709.424	3604.08
709.612	3681.91
709.8	3774.07
709.988	3769.97
710.176	3782.26
710.364	3784.3
710.551	3651.19
710.739	3847.79
710.927	3765.87
711.115	3659.38
711.303	3610.23
711.491	3659.38
711.679	3702.39
711.866	3808.88
712.054	3708.53
712.242	3655.28
712.43	3821.17
712.617	3683.95
712.805	3686
712.993	3638.9
713.181	3714.67
713.368	3565.17
713.556	3528.31
713.744	3577.46
713.931	3696.24
714.119	3659.38
714.306	3534.45
714.494	3729.01
714.682	3681.91
714.869	3614.32
715.057	3571.32
715.244	3616.37
715.432	3563.12
715.619	3530.36
715.807	3655.28
715.994	3528.31
716.182	3530.36
716.369	3548.79
716.556	3661.43
716.744	3485.3
716.931	3522.16
717.119	3597.94
717.306	3513.97
717.493	3452.53
717.681	3591.8
717.868	3544.69
718.055	3520.12
718.242	3499.64
718.43	3452.53
718.617	3745.39
718.804	3563.12
718.991	3466.87
719.179	3583.6
719.366	3444.34
719.553	3464.82
719.74	3540.6
719.927	3516.02
720.114	3511.93
720.301	3417.72
720.488	3452.53
720.676	3413.62
720.863	3493.49
721.05	3546.74
721.237	3411.57
721.424	3442.29
721.611	3460.73
721.798	3399.29
721.985	3425.91
722.172	3489.4
722.358	3391.09
722.545	3501.69
722.732	3350.14
722.919	3511.93
723.106	3348.09
723.293	3526.26
723.48	3389.05
723.667	3450.49
723.853	3270.26
724.04	3483.25
724.227	3544.69
724.414	3436.15
724.6	3438.2
724.787	3303.03
724.974	3378.81
725.161	3360.38
725.347	3208.83
725.534	3354.23
725.72	3362.42
725.907	3315.32
726.094	3323.51
726.28	3313.27
726.467	3376.76
726.653	3366.52
726.84	3387
727.027	3290.74
727.213	3229.31
727.4	3321.46
727.586	3376.76
727.773	3296.89
727.959	3270.26
728.145	3268.22
728.332	3411.57
728.518	3290.74
728.705	3171.96
728.891	3241.59
729.077	3309.18
729.264	3143.29
729.45	3237.5
729.636	3227.26
729.823	3257.98
730.009	3196.54
730.195	3335.8
730.382	3255.93
730.568	3204.73
730.754	3245.69
730.94	3303.03
731.126	3196.54
731.313	3159.67
731.499	3241.59
731.685	3253.88
731.871	3198.59
732.057	3184.25
732.243	3157.63
732.429	3139.19
732.615	3229.31
732.801	3208.83
732.987	3159.67
733.173	3190.39
733.359	3221.11
733.545	3188.35
733.731	3149.43
733.917	3184.25
734.103	3239.55
734.289	3169.91
734.475	3077.76
734.661	3233.4
734.847	3010.17
735.033	3225.21
735.219	3135.1
735.404	3090.04
735.59	3135.1
735.776	3067.52
735.962	3096.19
736.148	3292.79
736.333	3102.33
736.519	3155.58
736.705	3081.85
736.89	3096.19
737.076	3075.71
737.262	3096.19
737.447	3038.84
737.633	3055.23
737.819	2915.97
738.004	3012.22
738.19	3118.72
738.375	3018.36
738.561	3190.39
738.747	2995.84
738.932	2983.55
739.118	3049.08
739.303	3100.28
739.489	3094.14
739.674	2881.15
739.859	2858.62
740.045	2891.39
740.23	2846.34
740.416	2875.01
740.601	3063.42
740.786	2791.04
740.972	2872.96
741.157	2836.1
741.342	2774.66
741.528	2848.38
741.713	2870.91
741.898	2924.16
742.084	2829.95
742.269	2694.79
742.454	2811.52
742.639	2745.98
742.824	2764.42
743.01	2897.53
743.195	2754.18
743.38	2758.27
743.565	2686.59
743.75	2684.55
743.935	2639.49
744.12	2715.27
744.305	2637.44
744.49	2639.49
744.675	2606.72
744.86	2655.87
745.045	2649.73
745.23	2598.53
745.415	2748.03
745.6	2627.2
745.785	2659.97
745.97	2643.59
746.155	2625.15
746.34	2655.87
746.525	2623.11
746.71	2600.58
746.895	2573.96
747.079	2479.75
747.264	2475.65
747.449	2438.79
747.634	2469.51
747.819	2471.56
748.003	2391.69
748.188	2375.3
748.373	2414.21
748.557	2367.11
748.742	2383.49
748.927	2461.32
749.111	2360.97
749.296	2336.39
749.481	2289.29
749.665	2246.28
749.85	2233.99
750.034	2295.43
750.219	2221.7
750.404	2215.56
750.588	2127.5
750.773	2180.75
750.957	2205.32
751.141	2186.89
751.326	2172.55
751.51	2178.7
751.695	2086.54
751.879	2117.26
752.064	2088.59
752.248	2154.12
752.432	2160.27
752.617	2027.15
752.801	2127.5
752.985	2088.59
753.17	2043.53
753.354	1945.23
753.538	1971.85
753.722	1961.61
753.907	1947.28
754.091	1912.46
754.275	1912.46
754.459	1914.51
754.643	1904.27
754.828	1934.99
755.012	1900.17
755.196	1824.4
755.38	1894.03
755.564	1859.21
755.748	1789.58
755.932	1810.06
756.116	1875.6
756.3	1750.67
756.484	1799.82
756.668	1701.52
756.852	1756.82
757.036	1732.24
757.22	1834.64
757.404	1678.99
757.588	1683.09
757.772	1703.57
757.956	1687.18
758.14	1537.68
758.323	1631.89
758.507	1642.13
758.691	1537.68
758.875	1633.94
759.059	1640.08
759.242	1572.5
759.426	1552.02
759.61	1633.94
759.794	1554.07
759.977	1633.94
760.161	1531.54
760.345	1547.92
760.528	1562.26
760.712	1554.07
760.895	1533.59
761.079	1500.82
761.263	1439.38
761.446	1463.96
761.63	1457.81
761.813	1441.43
761.997	1513.11
762.18	1437.33
762.364	1474.2
762.547	1447.57
762.731	1451.67
762.914	1539.73
763.098	1457.81
763.281	1478.29
763.464	1416.85
763.648	1367.7
763.831	1343.13
764.015	1341.08
764.198	1445.52
764.381	1318.55
764.564	1388.18
764.748	1263.26
764.931	1355.41
765.114	1275.54
765.297	1296.02
765.481	1277.59
765.664	1388.18
765.847	1306.26
766.03	1318.55
766.213	1308.31
766.397	1310.36
766.58	1310.36
766.763	1302.17
766.946	1310.36
767.129	1361.56
767.312	1324.69
767.495	1244.82
767.678	1314.45
767.861	1336.98
768.044	1293.97
768.227	1179.29
768.41	1246.87
768.593	1343.13
768.776	1199.77
768.959	1236.63
769.142	1240.73
769.324	1218.2
769.507	1199.77
769.69	1216.15
769.873	1111.71
770.056	1214.1
770.239	1197.72
770.421	1162.9
770.604	1185.43
770.787	1175.19
770.97	1140.38
771.152	1132.19
771.335	1121.95
771.518	1130.14
771.7	1130.14
771.883	1154.71
772.066	1072.79
772.248	1117.85
772.431	1074.84
772.613	1070.75
772.796	1015.45
772.978	1035.93
773.161	1072.79
773.343	1025.69
773.526	1060.51
773.708	1083.03
773.891	949.92
774.073	1068.7
774.256	960.16
774.438	1048.22
774.621	1005.21
774.803	1087.13
774.985	980.64
775.168	943.77
775.35	1046.17
775.532	968.35
775.715	915.1
775.897	931.48
776.079	951.96
776.261	1025.69
776.444	929.44
776.626	951.96
776.808	947.87
776.99	908.96
777.173	1005.21
777.355	855.71
777.537	906.91
777.719	974.49
777.901	870.05
778.083	894.62
778.265	816.8
778.447	911
778.629	792.22
778.811	878.24
778.993	775.84
779.175	827.04
779.357	876.19
779.539	792.22
779.721	808.61
779.903	759.46
780.085	743.07
780.267	773.79
780.449	765.6
780.631	685.73
780.812	751.26
780.994	839.33
781.176	784.03
781.358	691.87
781.54	769.69
781.721	736.93
781.903	763.55
782.085	757.41
782.267	786.08
782.448	747.17
782.63	728.74
782.812	730.78
782.993	741.02
783.175	669.34
783.357	575.14
783.538	685.73
783.72	698.02
783.901	663.2
784.083	624.29
784.264	593.57
784.446	636.58
784.627	618.15
784.809	587.43
784.99	648.86
785.172	642.72
785.353	626.34
785.535	597.67
785.716	628.39
785.897	603.81
786.079	657.06
786.26	558.75
786.441	607.91
786.623	507.55
786.804	571.04
786.985	616.1
787.167	612
787.348	593.57
787.529	566.95
787.71	612
787.891	591.52
788.073	530.08
788.254	523.94
788.435	542.37
788.616	540.32
788.797	476.84
788.978	603.81
789.159	552.61
789.34	661.15
789.522	534.18
789.703	472.74
789.884	556.71
790.065	552.61
790.246	466.6
790.427	491.17
790.607	609.95
790.788	491.17
790.969	513.7
791.15	509.6
791.331	458.4
791.512	470.69
791.693	503.46
791.874	458.4
792.054	427.68
792.235	409.25
792.416	431.78
792.597	491.17
792.778	362.15
792.958	407.2
793.139	413.35
793.32	423.59
793.5	409.25
793.681	366.25
793.862	343.72
794.042	399.01
794.223	415.4
794.404	390.82
794.584	411.3
794.765	419.49
794.945	339.62
795.126	401.06
795.306	405.16
795.487	298.66
795.667	335.53
795.848	384.68
796.028	390.82
796.209	401.06
796.389	403.11
796.57	407.2
796.75	347.81
796.93	384.68
797.111	376.48
797.291	313
797.471	433.83
797.652	349.86
797.832	290.47
798.012	306.85
798.192	386.72
798.373	325.29
798.553	345.77
798.733	396.96
798.913	315.05
799.093	339.62
799.274	259.75
799.454	280.23
799.634	306.85
799.814	374.44
799.994	278.18
800.174	345.77
800.354	343.72
800.534	284.33
800.714	380.58
800.894	368.29
801.074	239.27
801.254	364.2
801.434	329.38
801.614	313
801.794	339.62
801.974	728.74
802.154	253.61
802.334	388.77
802.514	290.47
802.693	306.85
802.873	317.09
803.053	315.05
803.233	335.53
803.413	323.24
803.592	337.57
803.772	302.76
803.952	290.47
804.131	241.32
804.311	294.57
804.491	351.91
804.67	257.7
804.85	315.05
805.03	300.71
805.209	292.52
805.389	267.94
805.568	210.6
805.748	220.84
805.928	282.28
806.107	384.68
806.287	294.57
806.466	229.03
806.646	206.5
806.825	253.61
807.004	231.08
807.184	169.64
807.363	259.75
807.543	206.5
807.722	251.56
807.901	296.61
808.081	190.12
808.26	159.4
808.439	235.18
808.619	310.95
808.798	229.03
808.977	249.51
809.156	237.22
809.336	204.46
809.515	210.6
809.694	210.6
809.873	222.89
810.052	218.79
810.231	243.37
810.411	265.89
810.59	173.74
810.769	226.98
810.948	274.09
811.127	151.21
811.306	202.41
811.485	198.31
811.664	153.26
811.843	143.02
812.022	138.92
812.201	175.78
812.38	192.17
812.559	284.33
812.737	171.69
812.916	147.11
813.095	200.36
813.274	151.21
813.453	226.98
813.632	202.41
813.811	210.6
813.989	212.65
814.168	224.94
814.347	169.64
814.526	269.99
814.704	222.89
814.883	188.07
815.062	128.68
815.24	161.45
815.419	216.74
815.598	276.13
815.776	171.69
815.955	138.92
816.133	229.03
816.312	138.92
816.49	175.78
816.669	200.36
816.847	186.02
817.026	237.22
817.204	130.73
817.383	175.78
817.561	167.59
817.74	175.78
817.918	145.06
818.097	153.26
818.275	110.25
818.453	210.6
818.632	145.06
818.81	159.4
818.988	118.44
819.167	192.17
819.345	177.83
819.523	231.08
819.701	165.54
819.879	112.3
820.058	214.7
820.236	126.63
820.414	143.02
820.592	87.72
820.77	149.16
820.948	169.64
821.127	95.91
821.305	157.35
821.483	163.5
821.661	192.17
821.839	128.68
822.017	147.11
822.195	143.02
822.373	157.35
822.551	136.87
822.729	233.13
822.907	153.26
823.085	132.78
823.262	126.63
823.44	104.11
823.618	75.43
823.796	200.36
823.974	124.58
824.152	116.39
824.329	190.12
824.507	167.59
824.685	143.02
824.863	175.78
825.04	147.11
825.218	216.74
825.396	108.2
825.574	128.68
825.751	149.16
825.929	134.82
826.107	192.17
826.284	108.2
826.462	128.68
826.639	48.81
826.817	118.44
826.994	87.72
827.172	63.15
827.349	108.2
827.527	140.97
827.704	122.54
827.882	192.17
828.059	138.92
828.237	104.11
828.414	118.44
828.591	52.91
828.769	61.1
828.946	118.44
829.124	102.06
829.301	93.87
829.478	120.49
829.655	104.11
829.833	102.06
830.01	52.91
830.187	214.7
830.364	130.73
830.542	95.91
830.719	157.35
830.896	140.97
831.073	87.72
831.25	161.45
831.427	100.01
831.604	108.2
831.782	122.54
831.959	163.5
832.136	112.3
832.313	79.53
832.49	165.54
832.667	167.59
832.844	116.39
833.021	134.82
833.198	81.58
833.374	122.54
833.551	48.81
833.728	81.58
833.905	69.29
834.082	75.43
834.259	42.67
834.436	120.49
834.612	116.39
834.789	132.78
834.966	120.49
835.143	89.77
835.319	81.58
835.496	34.47
835.673	138.92
835.85	81.58
836.026	87.72
836.203	120.49
836.38	110.25
836.556	71.34
836.733	48.81
836.909	132.78
837.086	46.76
837.262	63.15
837.439	100.01
837.616	91.82
837.792	95.91
837.968	116.39
838.145	87.72
838.321	71.34
838.498	77.48
838.674	71.34
838.851	75.43
839.027	65.19
839.203	26.28
839.38	97.96
839.556	-0.34
839.732	67.24
839.909	40.62
840.085	153.26
840.261	128.68
840.437	110.25
840.614	61.1
840.79	44.71
840.966	1.71
841.142	54.95
841.318	16.04
841.494	81.58
841.671	69.29
841.847	104.11
842.023	20.14
842.199	95.91
842.375	102.06
842.551	63.15
842.727	65.19
842.903	122.54
843.079	65.19
843.255	89.77
843.431	34.47
843.607	75.43
843.783	34.47
843.959	83.63
844.134	18.09
844.31	40.62
844.486	24.23
844.662	75.43
844.838	59.05
845.013	65.19
845.189	-18.77
845.365	11.95
845.541	16.04
845.716	65.19
845.892	85.67
846.068	81.58
846.244	22.19
846.419	7.85
846.595	65.19
846.77	-10.58
846.946	38.57
847.122	30.38
847.297	30.38
847.473	140.97
847.648	-10.58
847.824	52.91
847.999	-2.39
848.175	-0.34
848.35	65.19
848.526	5.8
848.701	16.04
848.876	42.67
849.052	93.87
849.227	5.8
849.403	50.86
849.578	1.71
849.753	59.05
849.929	61.1
850.104	40.62
850.279	22.19
850.454	30.38
850.63	106.15
850.805	20.14
850.98	18.09
851.155	-10.58
851.33	34.47
851.505	34.47
851.681	81.58
851.856	-4.44
852.031	59.05
852.206	30.38
852.381	46.76
852.556	36.52
852.731	-10.58
852.906	-26.96
853.081	83.63
853.256	48.81
853.431	13.99
853.606	32.43
853.781	-53.59
853.956	5.8
854.131	75.43
854.305	34.47
854.48	77.48
854.655	13.99
854.83	89.77
855.005	16.04
855.18	5.8
855.354	-16.73
855.529	-33.11
855.704	63.15
855.879	44.71
856.053	26.28
856.228	104.11
856.403	-41.3
856.577	-16.73
856.752	114.34
856.926	69.29
857.101	57
857.276	26.28
857.45	7.85
857.625	100.01
857.799	57
857.974	-0.34
858.148	44.71
858.323	69.29
858.497	118.44
858.672	20.14
858.846	50.86
859.02	71.34
859.195	-2.39
859.369	11.95
859.543	44.71
859.718	87.72
859.892	89.77
860.066	57
860.241	61.1
860.415	-22.87
860.589	9.9
860.763	-10.58
860.938	-8.53
861.112	5.8
861.286	38.57
861.46	-12.63
861.634	22.19
861.808	102.06
861.982	114.34
862.157	11.95
862.331	67.24
862.505	-41.3
862.679	69.29
862.853	42.67
863.027	102.06
863.201	91.82
863.375	34.47
863.549	61.1
863.722	-6.49
863.896	77.48
864.07	-29.01
864.244	34.47
864.418	73.39
864.592	69.29
864.766	32.43
864.939	30.38
865.113	-14.68
865.287	54.95
865.461	-35.16
865.634	63.15
865.808	-8.53
865.982	13.99
866.156	-24.92
866.329	7.85
866.503	18.09
866.676	75.43
866.85	-12.63
867.024	11.95
867.197	30.38
867.371	-2.39
867.544	71.34
867.718	22.19
867.891	48.81
868.065	28.33
868.238	-2.39
868.412	34.47
868.585	-29.01
868.759	75.43
868.932	61.1
869.105	-2.39
869.279	3.75
869.452	18.09
869.625	42.67
869.799	28.33
869.972	1.71
870.145	102.06
870.319	-0.34
870.492	59.05
870.665	-45.4
870.838	-0.34
871.011	16.04
871.185	38.57
871.358	30.38
871.531	18.09
871.704	7.85
871.877	63.15
872.05	-37.2
872.223	28.33
872.396	20.14
872.569	54.95
872.742	28.33
872.915	38.57
873.088	-55.64
873.261	20.14
873.434	48.81
873.607	13.99
873.78	42.67
873.953	34.47
874.126	-43.35
874.299	20.14
874.471	42.67
874.644	50.86
874.817	13.99
874.99	97.96
875.163	-69.97
875.335	83.63
875.508	42.67
875.681	-0.34
875.853	-18.77
876.026	13.99
876.199	5.8
876.371	30.38
876.544	32.43
876.717	11.95
876.889	48.81
877.062	-31.06
877.234	-37.2
877.407	-20.82
877.579	-10.58
877.752	30.38
877.924	57
878.097	5.8
878.269	71.34
878.442	-45.4
878.614	-53.59
878.786	7.85
878.959	44.71
879.131	-4.44
879.303	46.76
879.476	-35.16
879.648	-26.96
879.82	63.15
879.993	5.8
880.165	30.38
880.337	-51.54
880.509	-24.92
880.681	50.86
880.854	16.04
881.026	-8.53
881.198	-8.53
881.37	24.23
881.542	-2.39
881.714	-4.44
881.886	11.95
882.058	-22.87
882.23	73.39
882.402	22.19
882.574	22.19
882.746	-45.4
882.918	13.99
883.09	38.57
883.262	-20.82
883.434	-4.44
883.606	-37.2
883.778	-20.82
883.95	28.33
884.122	28.33
884.293	22.19
884.465	26.28
884.637	-29.01
884.809	7.85
884.98	3.75
885.152	-14.68
885.324	-53.59
885.496	1.71
885.667	30.38
885.839	-65.88
886.011	20.14
886.182	9.9
886.354	11.95
886.525	24.23
886.697	46.76
886.869	-35.16
887.04	7.85
887.212	18.09
887.383	77.48
887.555	44.71
887.726	18.09
887.897	48.81
888.069	1.71
888.24	18.09
888.412	20.14
888.583	16.04
888.754	75.43
888.926	-20.82
889.097	1.71
889.268	18.09
889.44	34.47
889.611	46.76
889.782	-6.49
889.953	48.81
890.125	5.8
890.296	-45.4
890.467	-65.88
890.638	-8.53
890.809	-26.96
890.98	16.04
891.151	-35.16
891.323	-2.39
891.494	-18.77
891.665	22.19
891.836	20.14
892.007	-18.77
892.178	-8.53
892.349	16.04
892.52	22.19
892.691	-41.3
892.862	-8.53
893.032	-8.53
893.203	-24.92
893.374	-37.2
893.545	57
893.716	-41.3
893.887	71.34
894.057	-0.34
894.228	85.67
894.399	16.04
894.57	-6.49
894.74	1.71
894.911	65.19
895.082	18.09
895.253	-22.87
895.423	-14.68
895.594	-14.68
895.764	-12.63
895.935	-20.82
896.106	-2.39
896.276	-61.78
896.447	30.38
896.617	54.95
896.788	-16.73
896.958	-39.25
897.129	-24.92
897.299	30.38
897.47	-20.82
897.64	26.28
897.81	18.09
897.981	-20.82
898.151	-49.49
898.322	1.71
898.492	34.47
898.662	5.8
898.832	57
899.003	-24.92
899.173	-22.87
899.343	11.95
899.513	44.71
