Data from USB4F104151__47__12-27-30-434.txt Node

Date: Fri Mar 14 12:27:30 EDT 2025
User: louis
Spectrometer: USB4F10415
Trigger mode: 4
Integration Time (sec): 2.000000E-2
Scans to average: 1
Electric dark correction enabled: true
Nonlinearity correction enabled: false
Boxcar width: 0
XAxis mode: Wavelengths
Number of Pixels in Spectrum: 3648
>>>>>Begin Spectral Data<<<<<
178.204	9.56
178.424	9.56
178.644	9.56
178.864	-4.78
179.084	-45.74
179.304	-8.87
179.524	-43.69
179.744	-23.21
179.964	-8.87
180.184	-43.69
180.404	38.23
180.624	19.8
180.844	38.23
181.064	-47.79
181.283	34.13
181.503	7.51
181.723	38.23
181.943	-84.65
182.163	48.47
182.383	-2.73
182.602	-33.45
182.822	3.41
183.042	144.72
183.262	-21.16
183.482	17.75
183.701	9.56
183.921	62.8
184.141	7.51
184.361	13.65
184.58	30.04
184.8	30.04
185.02	-15.02
185.239	27.99
185.459	-27.31
185.679	3.41
185.898	-90.79
186.118	40.28
186.338	23.89
186.557	77.14
186.777	25.94
186.997	-33.45
187.216	-23.21
187.436	75.09
187.655	-37.55
187.875	52.56
188.095	25.94
188.314	64.85
188.534	60.76
188.753	19.8
188.973	13.65
189.192	79.19
189.412	32.08
189.631	38.23
189.851	11.61
190.07	34.13
190.29	-2.73
190.509	-39.59
190.729	68.95
190.948	83.28
191.168	124.24
191.387	99.67
191.607	-4.78
191.826	48.47
192.045	40.28
192.265	89.43
192.484	9.56
192.704	62.8
192.923	32.08
193.142	58.71
193.362	9.56
193.581	36.18
193.8	1.37
194.02	9.56
194.239	64.85
194.458	38.23
194.678	36.18
194.897	38.23
195.116	-2.73
195.335	83.28
195.555	-21.16
195.774	9.56
195.993	27.99
196.212	99.67
196.432	23.89
196.651	81.24
196.87	-25.26
197.089	44.37
197.308	11.61
197.528	71
197.747	13.65
197.966	-6.83
198.185	83.28
198.404	46.42
198.623	-19.11
198.842	7.51
199.062	30.04
199.281	48.47
199.5	1.37
199.719	52.56
199.938	56.66
200.157	27.99
200.376	40.28
200.595	15.7
200.814	91.48
201.033	122.2
201.252	116.05
201.471	11.61
201.69	66.9
201.909	30.04
202.128	13.65
202.347	40.28
202.566	32.08
202.785	1.37
203.004	-53.93
203.223	105.81
203.442	95.57
203.661	62.8
203.879	21.84
204.098	34.13
204.317	93.52
204.536	38.23
204.755	46.42
204.974	42.32
205.193	44.37
205.411	25.94
205.63	36.18
205.849	75.09
206.068	23.89
206.287	5.46
206.505	30.04
206.724	34.13
206.943	32.08
207.162	58.71
207.381	52.56
207.599	38.23
207.818	5.46
208.037	60.76
208.255	17.75
208.474	5.46
208.693	83.28
208.911	-17.07
209.13	25.94
209.349	60.76
209.567	5.46
209.786	38.23
210.005	44.37
210.223	21.84
210.442	-2.73
210.661	50.52
210.879	52.56
211.098	87.38
211.316	38.23
211.535	3.41
211.753	40.28
211.972	50.52
212.191	66.9
212.409	44.37
212.628	1.37
212.846	27.99
213.065	-2.73
213.283	93.52
213.502	46.42
213.72	-43.69
213.938	42.32
214.157	3.41
214.375	62.8
214.594	101.72
214.812	50.52
215.031	136.53
215.249	-17.07
215.467	114
215.686	85.33
215.904	68.95
216.122	-4.78
216.341	89.43
216.559	9.56
216.778	-8.87
216.996	97.62
217.214	48.47
217.432	60.76
217.651	-60.07
217.869	-66.22
218.087	42.32
218.306	7.51
218.524	95.57
218.742	99.67
218.96	-10.92
219.179	52.56
219.397	3.41
219.615	52.56
219.833	25.94
220.051	27.99
220.27	32.08
220.488	38.23
220.706	87.38
220.924	34.13
221.142	68.95
221.36	48.47
221.578	21.84
221.796	-4.78
222.015	23.89
222.233	54.61
222.451	89.43
222.669	73.04
222.887	97.62
223.105	32.08
223.323	62.8
223.541	21.84
223.759	87.38
223.977	-15.02
224.195	54.61
224.413	44.37
224.631	21.84
224.849	32.08
225.067	85.33
225.285	107.86
225.503	44.37
225.721	-60.07
225.939	77.14
226.157	44.37
226.375	163.15
226.592	-21.16
226.81	62.8
227.028	25.94
227.246	68.95
227.464	25.94
227.682	-25.26
227.9	23.89
228.117	21.84
228.335	19.8
228.553	77.14
228.771	27.99
228.989	83.28
229.206	25.94
229.424	-4.78
229.642	-43.69
229.86	48.47
230.077	-0.68
230.295	73.04
230.513	21.84
230.731	7.51
230.948	9.56
231.166	36.18
231.384	-88.75
231.601	1.37
231.819	48.47
232.037	50.52
232.254	46.42
232.472	23.89
232.689	25.94
232.907	13.65
233.125	-25.26
233.342	64.85
233.56	27.99
233.777	54.61
233.995	77.14
234.213	87.38
234.43	27.99
234.648	52.56
234.865	-12.97
235.083	13.65
235.3	44.37
235.518	68.95
235.735	64.85
235.953	64.85
236.17	11.61
236.388	44.37
236.605	52.56
236.822	36.18
237.04	44.37
237.257	13.65
237.475	-35.5
237.692	40.28
237.909	48.47
238.127	15.7
238.344	32.08
238.562	73.04
238.779	38.23
238.996	25.94
239.214	46.42
239.431	50.52
239.648	56.66
239.865	48.47
240.083	54.61
240.3	101.72
240.517	-2.73
240.735	44.37
240.952	38.23
241.169	5.46
241.386	79.19
241.603	44.37
241.821	-6.83
242.038	95.57
242.255	99.67
242.472	-15.02
242.689	54.61
242.907	91.48
243.124	-4.78
243.341	21.84
243.558	-29.35
243.775	42.32
243.992	-27.31
244.209	91.48
244.426	56.66
244.643	19.8
244.86	19.8
245.078	116.05
245.295	64.85
245.512	17.75
245.729	50.52
245.946	58.71
246.163	17.75
246.38	109.91
246.597	75.09
246.814	81.24
247.031	-39.59
247.248	27.99
247.464	91.48
247.681	64.85
247.898	54.61
248.115	87.38
248.332	34.13
248.549	9.56
248.766	40.28
248.983	40.28
249.2	81.24
249.417	124.24
249.633	-31.4
249.85	36.18
250.067	9.56
250.284	36.18
250.501	66.9
250.717	93.52
250.934	27.99
251.151	27.99
251.368	64.85
251.585	44.37
251.801	46.42
252.018	32.08
252.235	134.48
252.451	62.8
252.668	27.99
252.885	56.66
253.102	3.41
253.318	50.52
253.535	-12.97
253.752	66.9
253.968	64.85
254.185	-12.97
254.401	42.32
254.618	-15.02
254.835	36.18
255.051	52.56
255.268	42.32
255.484	116.05
255.701	62.8
255.917	68.95
256.134	11.61
256.351	1.37
256.567	32.08
256.784	60.76
257	68.95
257.217	-37.55
257.433	64.85
257.65	19.8
257.866	-19.11
258.082	36.18
258.299	23.89
258.515	-17.07
258.732	52.56
258.948	27.99
259.165	19.8
259.381	27.99
259.597	-17.07
259.814	-21.16
260.03	54.61
260.246	50.52
260.463	56.66
260.679	17.75
260.895	73.04
261.112	40.28
261.328	38.23
261.544	19.8
261.761	165.2
261.977	66.9
262.193	25.94
262.409	23.89
262.626	32.08
262.842	21.84
263.058	-21.16
263.274	81.24
263.49	56.66
263.707	58.71
263.923	85.33
264.139	7.51
264.355	23.89
264.571	95.57
264.787	7.51
265.004	40.28
265.22	73.04
265.436	56.66
265.652	81.24
265.868	60.76
266.084	15.7
266.3	-12.97
266.516	27.99
266.732	34.13
266.948	60.76
267.164	56.66
267.38	25.94
267.596	68.95
267.812	105.81
268.028	93.52
268.244	3.41
268.46	56.66
268.676	120.15
268.892	38.23
269.108	19.8
269.324	-27.31
269.54	11.61
269.756	36.18
269.972	42.32
270.188	56.66
270.403	-12.97
270.619	15.7
270.835	54.61
271.051	50.52
271.267	1.37
271.483	21.84
271.698	3.41
271.914	13.65
272.13	30.04
272.346	27.99
272.562	-25.26
272.777	30.04
272.993	42.32
273.209	52.56
273.425	44.37
273.64	30.04
273.856	154.96
274.072	27.99
274.287	56.66
274.503	21.84
274.719	56.66
274.934	56.66
275.15	42.32
275.366	68.95
275.581	19.8
275.797	71
276.012	30.04
276.228	56.66
276.444	-4.78
276.659	83.28
276.875	128.34
277.09	25.94
277.306	-33.45
277.521	32.08
277.737	36.18
277.952	42.32
278.168	89.43
278.383	15.7
278.599	38.23
278.814	111.96
279.03	56.66
279.245	48.47
279.461	56.66
279.676	71
279.892	-21.16
280.107	32.08
280.322	-12.97
280.538	118.1
280.753	60.76
280.969	34.13
281.184	44.37
281.399	46.42
281.615	13.65
281.83	27.99
282.045	75.09
282.26	-35.5
282.476	36.18
282.691	89.43
282.906	68.95
283.122	81.24
283.337	-45.74
283.552	68.95
283.767	40.28
283.983	-8.87
284.198	-2.73
284.413	91.48
284.628	30.04
284.843	17.75
285.058	85.33
285.274	36.18
285.489	-8.87
285.704	91.48
285.919	52.56
286.134	-12.97
286.349	66.9
286.564	77.14
286.779	130.39
286.995	52.56
287.21	5.46
287.425	124.24
287.64	97.62
287.855	-6.83
288.07	5.46
288.285	91.48
288.5	42.32
288.715	128.34
288.93	50.52
289.145	27.99
289.36	66.9
289.575	58.71
289.79	130.39
290.004	56.66
290.219	17.75
290.434	-47.79
290.649	105.81
290.864	19.8
291.079	-45.74
291.294	75.09
291.509	-12.97
291.724	101.72
291.938	60.76
292.153	95.57
292.368	-2.73
292.583	34.13
292.798	75.09
293.012	11.61
293.227	73.04
293.442	99.67
293.657	-15.02
293.871	77.14
294.086	34.13
294.301	13.65
294.516	103.76
294.73	54.61
294.945	15.7
295.16	30.04
295.374	15.7
295.589	56.66
295.804	62.8
296.018	-45.74
296.233	66.9
296.447	60.76
296.662	-2.73
296.877	62.8
297.091	-31.4
297.306	58.71
297.52	25.94
297.735	44.37
297.949	91.48
298.164	52.56
298.378	56.66
298.593	7.51
298.807	48.47
299.022	44.37
299.236	38.23
299.451	73.04
299.665	54.61
299.88	-31.4
300.094	95.57
300.309	38.23
300.523	-12.97
300.737	81.24
300.952	114
301.166	128.34
301.381	7.51
301.595	-19.11
301.809	71
302.024	73.04
302.238	32.08
302.452	38.23
302.667	83.28
302.881	34.13
303.095	23.89
303.309	15.7
303.524	64.85
303.738	11.61
303.952	79.19
304.166	58.71
304.381	17.75
304.595	21.84
304.809	11.61
305.023	30.04
305.237	71
305.452	32.08
305.666	36.18
305.88	101.72
306.094	23.89
306.308	44.37
306.522	56.66
306.736	97.62
306.95	95.57
307.164	118.1
307.379	79.19
307.593	9.56
307.807	46.42
308.021	62.8
308.235	87.38
308.449	-15.02
308.663	66.9
308.877	103.76
309.091	58.71
309.305	19.8
309.519	-4.78
309.733	-17.07
309.947	-17.07
310.161	75.09
310.374	-31.4
310.588	79.19
310.802	11.61
311.016	103.76
311.23	60.76
311.444	130.39
311.658	91.48
311.872	89.43
312.085	118.1
312.299	44.37
312.513	3.41
312.727	27.99
312.941	25.94
313.154	157.01
313.368	27.99
313.582	27.99
313.796	91.48
314.009	50.52
314.223	167.25
314.437	83.28
314.651	48.47
314.864	42.32
315.078	75.09
315.292	3.41
315.505	30.04
315.719	-33.45
315.933	52.56
316.146	99.67
316.36	-15.02
316.573	118.1
316.787	83.28
317.001	60.76
317.214	60.76
317.428	71
317.641	52.56
317.855	52.56
318.068	42.32
318.282	46.42
318.495	42.32
318.709	109.91
318.922	81.24
319.136	101.72
319.349	44.37
319.563	105.81
319.776	11.61
319.99	62.8
320.203	52.56
320.417	73.04
320.63	89.43
320.843	71
321.057	97.62
321.27	15.7
321.483	99.67
321.697	128.34
321.91	50.52
322.124	50.52
322.337	-17.07
322.55	103.76
322.763	48.47
322.977	95.57
323.19	77.14
323.403	13.65
323.617	3.41
323.83	85.33
324.043	30.04
324.256	-4.78
324.469	68.95
324.683	81.24
324.896	77.14
325.109	66.9
325.322	40.28
325.535	64.85
325.748	118.1
325.962	58.71
326.175	75.09
326.388	120.15
326.601	44.37
326.814	30.04
327.027	23.89
327.24	66.9
327.453	30.04
327.666	75.09
327.879	83.28
328.092	68.95
328.305	107.86
328.518	87.38
328.731	9.56
328.944	32.08
329.157	85.33
329.37	73.04
329.583	62.8
329.796	93.52
330.009	19.8
330.222	71
330.435	25.94
330.648	30.04
330.861	40.28
331.073	-15.02
331.286	77.14
331.499	25.94
331.712	56.66
331.925	9.56
332.138	159.06
332.35	126.29
332.563	52.56
332.776	44.37
332.989	15.7
333.202	36.18
333.414	38.23
333.627	89.43
333.84	85.33
334.053	75.09
334.265	25.94
334.478	46.42
334.691	56.66
334.903	50.52
335.116	32.08
335.329	58.71
335.541	111.96
335.754	46.42
335.966	-35.5
336.179	1.37
336.392	25.94
336.604	36.18
336.817	32.08
337.029	54.61
337.242	-37.55
337.454	52.56
337.667	134.48
337.88	38.23
338.092	66.9
338.305	54.61
338.517	-76.46
338.729	58.71
338.942	54.61
339.154	36.18
339.367	32.08
339.579	132.44
339.792	13.65
340.004	128.34
340.217	-12.97
340.429	68.95
340.641	50.52
340.854	11.61
341.066	71
341.278	89.43
341.491	52.56
341.703	60.76
341.915	7.51
342.128	85.33
342.34	40.28
342.552	34.13
342.764	89.43
342.977	60.76
343.189	154.96
343.401	77.14
343.613	73.04
343.826	46.42
344.038	73.04
344.25	48.47
344.462	60.76
344.674	34.13
344.886	38.23
345.099	5.46
345.311	7.51
345.523	105.81
345.735	27.99
345.947	44.37
346.159	58.71
346.371	52.56
346.583	19.8
346.795	132.44
347.007	3.41
347.219	75.09
347.431	42.32
347.643	56.66
347.855	-8.87
348.067	46.42
348.279	5.46
348.491	66.9
348.703	93.52
348.915	13.65
349.127	19.8
349.339	62.8
349.551	44.37
349.763	17.75
349.975	111.96
350.187	77.14
350.399	103.76
350.61	46.42
350.822	95.57
351.034	48.47
351.246	9.56
351.458	83.28
351.669	25.94
351.881	48.47
352.093	71
352.305	48.47
352.517	83.28
352.728	99.67
352.94	36.18
353.152	87.38
353.363	83.28
353.575	120.15
353.787	126.29
353.999	13.65
354.21	58.71
354.422	30.04
354.633	-58.03
354.845	19.8
355.057	64.85
355.268	101.72
355.48	87.38
355.692	3.41
355.903	25.94
356.115	93.52
356.326	54.61
356.538	73.04
356.749	89.43
356.961	79.19
357.172	73.04
357.384	68.95
357.595	44.37
357.807	107.86
358.018	62.8
358.23	77.14
358.441	124.24
358.653	44.37
358.864	30.04
359.075	50.52
359.287	-15.02
359.498	27.99
359.709	36.18
359.921	60.76
360.132	81.24
360.344	25.94
360.555	126.29
360.766	40.28
360.977	34.13
361.189	85.33
361.4	68.95
361.611	58.71
361.823	138.58
362.034	150.87
362.245	44.37
362.456	109.91
362.667	40.28
362.879	89.43
363.09	52.56
363.301	81.24
363.512	71
363.723	11.61
363.935	7.51
364.146	105.81
364.357	81.24
364.568	50.52
364.779	-45.74
364.99	91.48
365.201	136.53
365.412	77.14
365.623	1.37
365.834	-10.92
366.045	97.62
366.256	91.48
366.467	36.18
366.678	50.52
366.889	68.95
367.1	32.08
367.311	42.32
367.522	44.37
367.733	73.04
367.944	120.15
368.155	25.94
368.366	111.96
368.577	32.08
368.788	85.33
368.999	52.56
369.209	60.76
369.42	120.15
369.631	87.38
369.842	101.72
370.053	40.28
370.264	87.38
370.474	68.95
370.685	25.94
370.896	91.48
371.107	44.37
371.317	109.91
371.528	58.71
371.739	56.66
371.95	68.95
372.16	60.76
372.371	17.75
372.582	75.09
372.792	83.28
373.003	79.19
373.214	50.52
373.424	36.18
373.635	15.7
373.846	71
374.056	89.43
374.267	62.8
374.477	95.57
374.688	38.23
374.898	21.84
375.109	116.05
375.319	75.09
375.53	40.28
375.74	85.33
375.951	25.94
376.161	48.47
376.372	99.67
376.582	91.48
376.793	17.75
377.003	-0.68
377.214	-45.74
377.424	85.33
377.635	40.28
377.845	44.37
378.055	128.34
378.266	87.38
378.476	50.52
378.686	73.04
378.897	85.33
379.107	89.43
379.317	91.48
379.528	58.71
379.738	79.19
379.948	42.32
380.158	48.47
380.369	73.04
380.579	118.1
380.789	118.1
380.999	50.52
381.21	71
381.42	148.82
381.63	-53.93
381.84	56.66
382.05	114
382.261	73.04
382.471	138.58
382.681	73.04
382.891	40.28
383.101	111.96
383.311	-19.11
383.521	60.76
383.731	58.71
383.941	30.04
384.151	60.76
384.361	32.08
384.571	105.81
384.781	19.8
384.991	42.32
385.201	66.9
385.411	105.81
385.621	25.94
385.831	68.95
386.041	60.76
386.251	79.19
386.461	97.62
386.671	27.99
386.881	9.56
387.091	103.76
387.301	60.76
387.511	48.47
387.72	46.42
387.93	68.95
388.14	54.61
388.35	40.28
388.56	56.66
388.769	101.72
388.979	75.09
389.189	124.24
389.399	58.71
389.609	128.34
389.818	62.8
390.028	52.56
390.238	56.66
390.447	30.04
390.657	114
390.867	50.52
391.076	85.33
391.286	124.24
391.496	56.66
391.705	81.24
391.915	167.25
392.125	60.76
392.334	159.06
392.544	91.48
392.753	95.57
392.963	114
393.172	103.76
393.382	118.1
393.591	146.77
393.801	56.66
394.01	150.87
394.22	118.1
394.429	93.52
394.639	87.38
394.848	148.82
395.058	118.1
395.267	83.28
395.477	81.24
395.686	91.48
395.895	197.97
396.105	177.49
396.314	93.52
396.524	101.72
396.733	163.15
396.942	163.15
397.152	116.05
397.361	99.67
397.57	167.25
397.78	118.1
397.989	144.72
398.198	173.39
398.407	101.72
398.617	116.05
398.826	144.72
399.035	173.39
399.244	202.07
399.453	238.93
399.663	130.39
399.872	218.45
400.081	83.28
400.29	122.2
400.499	122.2
400.708	197.97
400.917	118.1
401.127	111.96
401.336	120.15
401.545	228.69
401.754	222.55
401.963	179.54
402.172	111.96
402.381	177.49
402.59	132.44
402.799	99.67
403.008	144.72
403.217	93.52
403.426	85.33
403.635	122.2
403.844	111.96
404.053	183.63
404.262	173.39
404.471	220.5
404.68	138.58
404.888	212.31
405.097	175.44
405.306	179.54
405.515	240.98
405.724	195.92
405.933	138.58
406.142	197.97
406.35	279.89
406.559	210.26
406.768	161.11
406.977	257.36
407.185	232.79
407.394	224.59
407.603	216.4
407.812	251.22
408.02	247.12
408.229	279.89
408.438	249.17
408.646	214.35
408.855	247.12
409.064	281.94
409.272	279.89
409.481	339.28
409.69	333.14
409.898	263.51
410.107	380.24
410.315	394.58
410.524	370
410.733	417.1
410.941	372.05
411.15	335.18
411.358	415.05
411.567	425.29
411.775	486.73
411.984	431.44
412.192	478.54
412.401	492.88
412.609	535.89
412.818	562.51
413.026	628.04
413.234	531.79
413.443	576.84
413.651	689.48
413.86	570.7
414.068	675.15
414.276	623.95
414.485	605.52
414.693	681.29
414.901	783.69
415.11	785.74
415.318	793.93
415.526	773.45
415.734	826.7
415.943	800.07
416.151	834.89
416.359	908.62
416.567	990.53
416.776	933.19
416.984	994.63
417.192	1021.25
417.4	1107.27
417.608	1000.77
417.817	1156.42
418.025	1191.24
418.233	1156.42
418.441	1199.43
418.649	1295.68
418.857	1383.74
419.065	1443.14
419.273	1406.27
419.481	1467.71
419.689	1537.34
419.897	1582.4
420.105	1647.93
420.313	1746.23
420.521	1600.83
420.729	1731.9
420.937	1828.15
421.145	1834.3
421.353	1983.8
421.561	2104.63
421.769	2065.72
421.977	2280.75
422.185	2157.88
422.393	2370.87
422.601	2514.22
422.809	2317.62
423.017	2442.54
423.224	2448.69
423.432	2665.77
423.64	2536.75
423.848	2993.45
424.056	2800.94
424.263	3054.89
424.471	3007.78
424.679	3140.9
424.887	3323.17
425.094	3390.75
425.302	3390.75
425.51	3542.3
425.718	3706.14
425.925	3704.09
426.133	3978.52
426.341	4095.25
426.548	4156.69
426.756	4156.69
426.964	4367.63
427.171	4508.94
427.379	4654.35
427.586	4812.04
427.794	4773.13
428.001	5203.21
428.209	5356.8
428.417	5168.39
428.624	5598.46
428.832	5690.62
429.039	5582.08
429.247	5627.14
429.454	6141.18
429.662	6601.97
429.869	6137.08
430.076	6597.87
430.284	6335.73
430.491	6608.11
430.699	6868.2
430.906	7101.67
431.114	7146.73
431.321	7318.76
431.528	7439.59
431.736	7857.37
431.943	8332.5
432.15	8078.55
432.358	8166.62
432.565	8705.23
432.772	8637.65
432.979	9067.72
433.187	8973.52
433.394	9247.94
433.601	9901.25
433.808	10147
434.016	10032.32
434.223	10138.81
434.43	10816.69
434.637	10831.02
434.844	11480.23
435.052	11619.49
435.259	11515.05
435.466	11801.76
435.673	11375.78
435.88	12213.4
436.087	12745.87
436.294	13194.38
436.501	12704.92
436.708	12727.44
436.915	13382.79
437.122	13921.41
437.329	13806.72
437.537	14326.91
437.743	14437.5
437.95	14445.69
438.157	15268.97
438.364	16000.1
438.571	15707.24
438.778	15762.53
438.985	17290.32
439.192	16628.82
439.399	17224.78
439.606	16602.2
439.813	17544.27
440.02	18840.63
440.227	18644.02
440.433	18238.53
440.64	18934.84
440.847	18781.24
441.054	19262.51
441.261	20429.85
441.467	20268.06
441.674	20689.95
441.881	21535.76
442.088	21421.07
442.294	21267.47
442.501	21742.6
442.708	22219.78
442.914	23116.79
443.121	23587.82
443.328	23358.45
443.534	25160.66
443.741	24605.66
443.948	23921.64
444.154	26002.38
444.361	25461.71
444.568	25912.27
444.774	25902.03
444.981	26491.84
445.187	27108.28
445.394	28027.82
445.6	27831.21
445.807	30393.22
446.013	29143.96
446.22	29739.92
446.426	30849.92
446.633	31216.51
446.839	32234.35
447.046	30972.8
447.252	32734.05
447.459	32623.46
447.665	32787.3
447.871	33905.49
448.078	35289.91
448.284	33708.88
448.491	35138.37
448.697	36133.68
448.903	36608.81
449.11	36848.42
449.316	35871.54
449.522	37200.67
449.728	37925.65
449.935	37845.78
450.141	37927.7
450.347	38996.74
450.553	37749.53
450.76	38284.05
450.966	39809.78
451.172	39293.69
451.378	40305.39
451.584	39453.44
451.791	40454.89
451.997	40182.51
452.203	40645.35
452.409	40856.29
452.615	40657.64
452.821	39111.42
453.027	38652.68
453.233	41009.89
453.44	39174.91
453.646	39754.49
453.852	39979.76
454.058	40706.79
454.264	39273.21
454.47	40000.24
454.676	39174.91
454.882	40174.32
455.088	36825.89
455.294	37503.77
455.5	38294.28
455.705	38509.32
455.911	36844.32
456.117	36555.56
456.323	35906.35
456.529	34138.96
456.735	35842.87
456.941	34507.59
457.147	33991.5
457.352	33235.8
457.558	32899.94
457.764	32621.41
457.97	32334.7
458.176	31447.93
458.381	31529.84
458.587	30069.64
458.793	30032.78
458.999	28511.14
459.204	30604.16
459.41	29549.46
459.616	27175.86
459.821	27763.63
460.027	27564.98
460.233	27177.91
460.438	25521.1
460.644	25723.85
460.85	24873.95
461.055	24241.12
461.261	24249.32
461.466	22567.93
461.672	21955.59
461.878	23350.26
462.083	22014.98
462.289	21406.73
462.494	21201.94
462.7	20460.57
462.905	19620.91
463.111	20395.04
463.316	20605.98
463.522	19950.63
463.727	20167.71
463.932	19979.3
464.138	19741.74
464.343	20239.39
464.549	19477.55
464.754	19919.91
464.959	19897.38
465.165	19758.12
465.37	18949.17
465.575	18406.46
465.781	19231.79
465.986	19276.85
466.191	18410.56
466.397	18246.72
466.602	17251.41
466.807	17945.67
467.012	17892.42
467.218	17867.84
467.423	17591.37
467.628	17792.07
467.833	18498.62
468.038	17595.46
468.244	17173.58
468.449	17701.96
468.654	17491.02
468.859	17239.12
469.064	17007.7
469.269	16841.81
469.474	16616.54
469.679	17017.94
469.885	16438.36
470.09	16733.27
470.295	16661.59
470.5	16270.43
470.705	16252
470.91	16030.82
471.115	15764.58
471.32	16125.02
471.525	16067.68
471.73	15664.23
471.935	15338.6
472.139	14955.63
472.344	15197.29
472.549	15012.98
472.754	14853.23
472.959	14589.05
473.164	14437.5
473.369	14126.21
473.574	14521.46
473.778	14378.11
473.983	14251.13
474.188	14322.81
474.393	13616.26
474.598	13730.95
474.802	13587.59
475.007	13352.07
475.212	13448.33
475.417	12954.77
475.621	13081.74
475.826	13063.31
476.031	12702.87
476.235	12432.54
476.44	12625.04
476.645	12405.91
476.849	12377.24
477.054	12291.23
477.259	12207.26
477.463	12012.7
477.668	11715.75
477.872	12053.66
478.077	12049.57
478.282	11740.32
478.486	11680.93
478.691	11426.98
478.895	11267.24
479.1	11310.25
479.304	11166.89
479.509	10919.09
479.713	11152.56
479.918	10908.85
480.122	10792.11
480.326	10994.86
480.531	10972.33
480.735	10556.6
480.94	10618.04
481.144	11193.51
481.348	10439.86
481.553	10513.59
481.757	10452.15
481.961	10597.56
482.166	10790.06
482.37	10669.23
482.574	10396.85
482.778	10353.85
482.983	10507.44
483.187	10570.93
483.391	10570.93
483.595	10405.05
483.8	10351.8
484.004	10486.97
484.208	10564.79
484.412	10550.45
484.616	10441.91
484.821	10554.55
485.025	10290.36
485.229	10335.42
485.433	10433.72
485.637	10421.43
485.841	10355.9
486.045	10407.09
486.249	10511.54
486.453	10413.24
486.657	10300.6
486.861	10540.21
487.065	10269.88
487.269	10392.76
487.473	10337.46
487.677	10538.16
487.881	10575.03
488.085	10398.9
488.289	10613.94
488.493	10362.04
488.697	10564.79
488.901	10386.61
489.105	10507.44
489.309	10501.3
489.512	10708.15
489.716	10677.43
489.92	10640.56
490.124	10435.77
490.328	10745.01
490.531	10661.04
490.735	10761.39
490.939	10689.71
491.143	10638.51
491.346	10583.22
491.55	11048.11
491.754	10679.47
491.958	11001.01
492.161	10984.62
492.365	11058.35
492.569	11177.13
492.772	11160.75
492.976	10962.09
493.18	11111.6
493.383	11304.1
493.587	11390.12
493.79	11529.38
493.994	11357.35
494.197	11447.46
494.401	11541.67
494.605	11682.98
494.808	11871.39
495.012	11717.79
495.215	11922.59
495.419	12197.02
495.622	12055.71
495.825	11996.32
496.029	12248.22
496.232	12280.99
496.436	12188.83
496.639	12508.31
496.843	12663.96
497.046	12856.47
497.249	12778.64
497.453	13083.79
497.656	12797.07
497.859	13169.8
498.063	13274.25
498.266	13671.56
498.469	13554.82
498.673	13665.41
498.876	13829.25
499.079	14072.96
499.282	13872.26
499.485	14228.6
499.689	14277.76
499.892	14668.92
500.095	14670.97
500.298	14890.1
500.501	14986.35
500.705	15240.3
500.908	15379.56
501.111	15615.08
501.314	15764.58
501.517	15694.95
501.72	16188.51
501.923	16061.54
502.126	16526.43
502.329	16833.62
502.532	16850
502.735	16903.25
502.938	17292.37
503.141	17290.32
503.344	17325.13
503.547	17386.57
503.75	17964.1
503.953	17974.34
504.156	18048.07
504.359	18486.33
504.562	18428.99
504.765	18891.83
504.968	19096.63
505.17	19004.47
505.373	19280.94
505.576	19680.3
505.779	19903.53
505.982	20012.07
506.185	20501.53
506.387	20626.46
506.59	20552.73
506.793	21226.51
506.996	20876.31
507.198	21453.84
507.401	21144.59
507.604	21519.37
507.807	22287.36
508.009	22092.8
508.212	22391.81
508.415	22670.33
508.617	22985.72
508.82	22801.4
509.022	22844.41
509.225	23751.66
509.428	23743.47
509.63	23725.04
509.833	23989.22
510.035	24445.92
510.238	24484.83
510.44	24787.93
510.643	25123.8
510.845	25320.4
511.048	25203.67
511.25	26311.62
511.453	26149.83
511.655	27022.26
511.858	26784.7
512.06	26907.58
512.262	26842.04
512.465	27112.38
512.667	27581.36
512.87	27646.9
513.072	27929.52
513.274	28357.54
513.477	28373.92
513.679	28742.56
513.881	29172.63
514.084	29348.76
514.286	29377.43
514.488	29395.86
514.69	30421.89
514.893	30602.11
515.095	30409.61
515.297	30940.03
515.499	31128.44
515.701	31607.67
515.904	32111.47
516.106	31984.49
516.308	31933.29
516.51	32426.85
516.712	32564.07
516.914	33098.59
517.116	33211.23
517.318	33418.07
517.52	33813.33
517.722	33669.97
517.925	34347.85
518.127	35240.76
518.329	34757.44
518.531	34972.48
518.733	35519.29
518.935	35593.01
519.136	35988.27
519.338	36049.71
519.54	36334.38
519.742	36541.22
519.944	36635.43
520.146	37755.67
520.348	37452.57
520.55	37704.47
520.752	37810.96
520.954	38832.9
521.155	38308.62
521.357	38873.86
521.559	38939.4
521.761	39944.95
521.963	39443.2
522.164	39787.25
522.366	39932.66
522.568	40323.82
522.77	40651.5
522.971	41214.69
523.173	41100
523.375	41329.37
523.576	41138.91
523.778	41243.36
523.98	41972.44
524.181	42134.23
524.383	42390.22
524.584	42543.82
524.786	42793.67
524.988	42556.11
525.189	43320
525.391	43567.8
525.592	43702.97
525.794	43793.08
525.995	43754.17
526.197	43819.7
526.398	43825.85
526.6	44016.31
526.801	44319.41
527.003	44530.35
527.204	44626.6
527.406	44935.85
527.607	44982.95
527.808	45286.05
528.01	45185.7
528.211	45040.29
528.412	46506.64
528.614	45566.62
528.815	45914.78
529.016	46086.81
529.218	46004.89
529.419	46131.86
529.62	46070.42
529.822	46539.41
530.023	46428.82
530.224	46711.44
530.425	46561.93
530.626	46217.88
530.828	46238.36
531.029	46963.34
531.23	46385.81
531.431	46627.47
531.632	46584.46
531.833	46940.81
532.035	46609.04
532.236	47321.73
532.437	47473.28
532.638	46881.42
532.839	47024.78
533.04	47409.79
533.241	46850.7
533.442	47604.35
533.643	47268.48
533.844	47272.58
534.045	47696.51
534.246	47063.69
534.447	47563.39
534.648	47329.92
534.849	47735.42
535.05	46899.85
535.251	47567.49
535.451	47288.96
535.652	47583.87
535.853	47057.54
536.054	47555.2
536.255	47760
536.456	47555.2
536.657	48028.28
536.857	47084.17
537.058	46957.19
537.259	47571.58
537.46	47757.95
537.66	47233.67
537.861	47714.94
538.062	47716.99
538.263	47563.39
538.463	47342.21
538.664	47440.51
538.865	47641.21
539.065	47671.93
539.266	47235.72
539.466	47936.12
539.667	47252.1
539.868	47889.02
540.068	47540.86
540.269	47291.01
540.469	47628.93
540.67	47075.97
540.87	47370.88
541.071	47057.54
541.271	47422.08
541.472	47633.02
541.672	47338.11
541.873	47114.89
542.073	47039.11
542.274	47526.53
542.474	47395.46
542.675	46686.86
542.875	47671.93
543.075	47835.77
543.276	46832.27
543.476	47581.82
543.676	47350.4
543.877	47305.35
544.077	47391.36
544.277	47084.17
544.478	46930.57
544.678	47256.2
544.878	46801.55
545.078	47211.14
545.279	46815.88
545.479	47024.78
545.679	47483.52
545.879	47424.13
546.079	46998.15
546.28	47121.03
546.48	46688.91
546.68	47424.13
546.88	46787.21
547.08	46955.14
547.28	47354.5
547.48	46938.76
547.68	47188.61
547.88	46940.81
548.081	47184.52
548.281	47450.75
548.481	46822.03
548.681	47450.75
548.881	47137.41
549.081	47051.4
549.28	46795.4
549.48	47438.47
549.68	47164.04
549.88	47856.25
550.08	46598.8
550.28	46779.02
550.48	46625.42
550.68	47129.22
550.88	47190.66
551.08	47139.46
551.279	47149.7
551.479	46621.33
551.679	47243.91
551.879	46459.54
552.079	47047.3
552.278	46731.92
552.478	46711.44
552.678	46529.17
552.878	47057.54
553.077	46555.79
553.277	46420.62
553.477	47153.8
553.676	46320.27
553.876	47030.92
554.076	46422.67
554.275	46541.46
554.475	46510.74
554.674	46191.25
554.874	46547.6
555.074	46439.06
555.273	46652.05
555.473	46908.04
555.672	46389.91
555.872	46488.21
556.071	46529.17
556.271	46600.85
556.47	45914.78
556.67	46142.1
556.869	46224.02
557.068	46246.55
557.268	46090.9
557.467	46353.04
557.667	46346.9
557.866	45916.82
558.065	45804.19
558.265	45982.36
558.464	45671.07
558.663	46041.75
558.863	45308.58
559.062	46275.22
559.261	45658.78
559.461	46076.57
559.66	45161.12
559.859	45388.45
560.058	45433.5
560.258	45900.44
560.457	45118.12
560.656	45316.77
560.855	45257.38
561.054	45537.95
561.253	45236.9
561.453	45095.59
561.652	45404.83
561.851	45617.82
562.05	44794.54
562.249	45009.57
562.448	45195.94
562.647	44688.04
562.846	44851.88
563.045	45189.8
563.244	44458.67
563.443	44815.02
563.642	44190.39
563.841	44819.11
564.04	44026.55
564.239	44229.3
564.438	44188.34
564.637	44657.32
564.836	44499.63
565.035	43909.82
565.234	44294.83
565.432	43817.66
565.631	43530.94
565.83	43950.77
566.029	43838.14
566.228	43403.97
566.427	43545.28
566.625	43713.21
566.824	43086.53
567.023	43877.05
567.222	43061.96
567.42	43455.17
567.619	43209.41
567.818	43242.18
568.016	42861.26
568.215	43633.34
568.414	43004.61
568.612	43360.96
568.811	43049.67
569.01	43074.24
569.208	42070.74
569.407	42994.37
569.605	42429.13
569.804	43043.52
570.002	42011.35
570.201	42484.43
570.4	41992.92
570.598	41863.89
570.797	41849.56
570.995	42472.14
571.193	41546.46
571.392	41874.13
571.59	41075.43
571.789	41495.26
571.987	41298.66
572.186	41358.05
572.384	41403.1
572.582	41151.2
572.781	41437.92
572.979	40813.29
573.177	41202.4
573.376	41028.32
573.574	40678.12
573.772	40921.83
573.971	40612.59
574.169	40708.84
574.367	40272.62
574.565	40643.31
574.763	40106.74
574.962	40127.22
575.16	39797.49
575.358	40000.24
575.556	39699.19
575.754	40420.08
575.952	39176.96
576.151	39977.72
576.349	39338.75
576.547	39549.69
576.745	39340.8
576.943	40022.77
577.141	39389.95
577.339	39021.31
577.537	38937.35
577.735	38882.05
577.933	38769.41
578.131	38783.75
578.329	38884.1
578.527	38691.59
578.725	38470.41
578.923	38716.17
579.121	38552.33
579.319	38398.73
579.516	38402.83
579.714	38159.12
579.912	37962.51
580.11	38140.69
580.308	37917.46
580.506	37864.21
580.704	37454.62
580.901	37610.26
581.099	38005.52
581.297	37403.42
581.495	37665.56
581.692	37350.17
581.89	37282.59
582.088	37372.7
582.285	37083.94
582.483	37231.39
582.681	36795.17
582.878	36936.48
583.076	36981.54
583.274	36807.46
583.471	36346.67
583.669	36352.81
583.866	36639.53
584.064	36420.39
584.262	35975.98
584.459	36197.16
584.657	36215.6
584.854	36363.05
585.052	35509.05
585.249	36471.59
585.447	36086.57
585.644	35717.94
585.841	35650.36
586.039	35955.5
586.236	35392.31
586.434	35062.59
586.631	34825.03
586.828	35064.64
587.026	35078.97
587.223	35156.8
587.42	34849.6
587.618	34812.74
587.815	34466.63
588.012	34536.26
588.21	34536.26
588.407	34863.94
588.604	34405.19
588.801	34091.85
588.999	33831.76
589.196	34057.04
589.393	34202.44
589.59	33737.55
589.787	33588.05
589.984	34112.33
590.182	33727.31
590.379	33721.17
590.576	33106.78
590.773	33125.21
590.97	33330.01
591.167	33620.82
591.364	32869.22
591.561	33268.57
591.758	32820.06
591.955	32684.9
592.152	33016.67
592.349	32394.09
592.546	32605.03
592.743	32643.94
592.94	32314.22
593.137	32318.31
593.334	32342.89
593.531	32068.46
593.727	31777.65
593.924	32340.84
594.121	31933.29
594.318	32099.18
594.515	31480.69
594.712	31974.25
594.908	31441.78
595.105	31333.24
595.302	31398.77
595.499	31376.25
595.696	31542.13
595.892	31253.37
596.089	31320.95
596.286	31267.7
596.482	30974.84
596.679	30989.18
596.876	30800.77
597.072	30608.26
597.269	30550.92
597.466	30540.68
597.662	30274.44
597.859	30745.47
598.055	30286.73
598.252	29567.89
598.448	30137.23
598.645	29676.43
598.841	29770.64
599.038	29797.26
599.234	29987.72
599.431	29524.88
599.627	29481.88
599.824	29506.45
600.02	29283.22
600.217	29512.6
600.413	29268.89
600.609	29092.76
600.806	29019.03
601.002	28830.62
601.198	28717.98
601.395	28607.39
601.591	28525.47
601.787	28951.45
601.984	28472.23
602.18	28644.26
602.376	28488.61
602.572	28103.59
602.769	28277.67
602.965	27878.32
603.161	27949.99
603.357	28091.3
603.553	27964.33
603.75	27790.25
603.946	27730.86
604.142	27601.84
604.338	27063.22
604.534	27857.84
604.73	27173.81
604.926	27253.69
605.122	27386.8
605.318	26899.39
605.514	26790.84
605.71	27083.7
605.906	26696.64
606.102	27112.38
606.298	26952.63
606.494	26637.25
606.69	26753.98
606.886	26555.33
607.082	26418.11
607.278	26776.51
607.474	26227.65
607.67	26256.32
607.866	26051.53
608.062	26702.78
608.257	26082.25
608.453	26409.92
608.649	26209.22
608.845	26112.97
609.041	26223.56
609.236	26018.76
609.432	26076.1
609.628	25760.72
609.824	25697.23
610.019	25754.57
610.215	25676.75
610.411	25902.03
610.606	25809.87
610.802	25705.42
610.998	25404.37
611.193	25426.9
611.389	25367.51
611.584	25277.4
611.78	25119.7
611.976	25453.52
612.171	25127.89
612.367	25189.33
612.562	25152.47
612.758	24826.84
612.953	24779.74
613.149	25070.55
613.344	24673.24
613.539	25230.29
613.735	24951.77
613.93	25175
614.126	24871.9
614.321	24972.25
614.517	24898.52
614.712	24708.06
614.907	24558.56
615.103	24738.78
615.298	24572.89
615.493	24847.32
615.688	24300.51
615.884	24839.13
616.079	24204.26
616.274	24474.59
616.47	24185.83
616.665	24566.75
616.86	24159.2
617.055	24148.96
617.25	24019.94
617.445	24081.38
617.641	23727.08
617.836	23876.58
618.031	23710.7
618.226	23985.13
618.421	23796.71
618.616	23612.4
618.811	23514.09
619.006	23669.74
619.201	23167.99
619.396	23682.03
619.591	22928.38
619.786	23450.61
619.981	22965.24
620.176	23421.94
620.371	22737.91
620.566	23186.42
620.761	22817.79
620.956	22971.38
621.151	22651.9
621.346	22508.54
621.541	22168.58
621.735	22774.78
621.93	22160.39
622.125	22076.42
622.32	22162.44
622.515	21892.1
622.709	21627.92
622.904	21400.59
623.099	21660.68
623.294	21216.27
623.488	21021.72
623.683	21412.88
623.878	20870.17
624.072	21066.77
624.267	21224.47
624.462	20849.69
624.656	20491.29
624.851	20810.78
625.046	20341.79
625.24	20288.54
625.435	20194.34
625.629	20106.27
625.824	19993.64
626.018	20151.33
626.213	19393.58
626.407	19766.31
626.602	19788.84
626.796	19483.69
626.991	19244.08
627.185	19252.27
627.38	19381.29
627.574	18826.29
627.768	18953.27
627.963	18795.57
628.157	18719.8
628.352	19020.85
628.546	18639.93
628.74	18717.75
628.935	18320.45
629.129	18537.53
629.323	18134.08
629.517	18453.56
629.712	18132.03
629.906	18312.25
630.1	17540.17
630.294	17878.08
630.489	17892.42
630.683	17798.21
630.877	17536.07
631.071	17343.56
631.265	17464.39
631.459	17380.43
631.653	17181.78
631.848	17146.96
632.042	17089.62
632.236	17011.79
632.43	16634.97
632.624	16847.96
632.818	16614.49
633.012	16481.37
633.206	16473.18
633.4	16223.33
633.594	16256.09
633.788	16313.44
633.982	16165.98
634.176	15879.27
634.369	16120.93
634.563	15928.42
634.757	15969.38
634.951	16067.68
635.145	15643.75
635.339	15869.03
635.533	15408.23
635.726	15576.17
635.92	15318.12
636.114	15146.09
636.308	15185.01
636.501	15283.31
636.695	15164.53
636.889	14959.73
637.083	14922.87
637.276	14593.14
637.47	14589.05
637.664	14638.2
637.857	14625.91
638.051	14763.12
638.244	14400.63
638.438	14361.72
638.632	14371.96
638.825	14374.01
639.019	14177.4
639.212	13923.46
639.406	14036.1
639.599	14109.82
639.793	13917.31
639.986	13847.68
640.18	13737.09
640.373	13825.15
640.567	13278.35
640.76	13401.22
640.954	13257.87
641.147	13425.8
641.34	13139.08
641.534	13354.12
641.727	13323.4
641.92	13405.32
642.114	12975.25
642.307	12958.86
642.5	12901.52
642.694	12792.98
642.887	12407.96
643.08	12858.51
643.273	12823.7
643.467	12709.01
643.66	12455.06
643.853	12594.33
644.046	12270.75
644.239	12377.24
644.432	12270.75
644.626	12041.37
644.819	12022.94
645.012	11965.6
645.205	11957.41
645.398	11881.63
645.591	12024.99
645.784	11756.71
645.977	11697.31
646.17	11797.67
646.363	11752.61
646.556	11277.48
646.749	11594.92
646.942	11572.39
647.135	11465.89
647.328	11400.36
647.521	11400.36
647.714	11080.88
647.907	11136.17
648.099	11170.99
648.292	11150.51
648.485	10970.29
648.678	10927.28
648.871	11054.25
649.064	10630.32
649.256	10763.44
649.449	10796.21
649.642	10466.49
649.835	10679.47
650.027	10644.66
650.22	10427.57
650.413	10388.66
650.605	10429.62
650.798	10190.01
650.991	10200.25
651.183	10233.02
651.376	10159.29
651.568	10200.25
651.761	10142.91
651.954	10044.6
652.146	9999.55
652.339	9845.95
652.531	9741.5
652.724	9698.5
652.916	9788.61
653.109	9573.57
653.301	9721.02
653.494	9561.28
653.686	9526.47
653.879	9624.77
654.071	9383.11
654.263	9301.19
654.456	9428.17
654.648	9495.75
654.84	9049.29
655.033	9241.8
655.225	9182.41
655.417	8918.22
655.61	9151.69
655.802	8965.32
655.994	8750.29
656.186	9082.06
656.379	8924.37
656.571	8877.26
656.763	8836.3
656.955	8821.97
657.148	8764.62
657.34	8608.98
657.532	8619.22
657.724	8563.92
657.916	8375.51
658.108	8451.28
658.3	8248.54
658.492	8451.28
658.684	8252.63
658.876	8269.02
659.068	8309.97
659.26	8330.45
659.452	8226.01
659.644	8158.42
659.836	8056.03
660.028	8139.99
660.22	7730.4
660.412	7867.61
660.604	7816.41
660.796	8037.59
660.988	7722.21
661.18	7859.42
661.372	7656.67
661.563	7800.03
661.755	7722.21
661.947	7791.84
662.139	7501.03
662.331	7455.97
662.522	7390.44
662.714	7441.64
662.906	7306.47
663.097	7410.92
663.289	7333.09
663.481	7455.97
663.673	7285.99
663.864	7247.08
664.056	7326.95
664.247	7167.21
664.439	7128.3
664.631	7144.68
664.822	7009.51
665.014	7081.19
665.205	7179.5
665.397	7003.37
665.588	6921.45
665.78	6722.8
665.971	6710.51
666.163	6937.84
666.354	6853.87
666.546	6751.47
666.737	6657.26
666.929	6700.27
667.12	6704.37
667.311	6700.27
667.503	6403.32
667.694	6604.02
667.885	6548.72
668.077	6577.39
668.268	6642.93
668.459	6472.95
668.651	6456.56
668.842	6526.19
669.033	6382.84
669.224	6319.35
669.416	6481.14
669.607	6403.32
669.798	6343.92
669.989	6214.9
670.18	6192.37
670.371	6194.42
670.563	6300.92
670.754	6231.29
670.945	5975.29
671.136	6135.03
671.327	6239.48
671.518	6044.92
671.709	5977.34
671.9	5944.57
672.091	6067.45
672.282	6006.01
672.473	5840.12
672.664	5891.32
672.855	5895.42
673.046	5938.43
673.237	5848.32
673.428	5719.29
673.619	5960.95
673.809	5844.22
674	5729.53
674.191	5696.77
674.382	5590.27
674.573	5698.81
674.764	5545.22
674.954	5651.71
675.145	5623.04
675.336	5522.69
675.527	5514.5
675.717	5594.37
675.908	5627.14
676.099	5444.87
676.289	5471.49
676.48	5559.55
676.671	5514.5
676.861	5453.06
677.052	5293.32
677.243	5494.02
677.433	5491.97
677.624	5393.67
677.814	5268.74
678.005	5340.42
678.195	5215.49
678.386	5451.01
678.576	5324.04
678.767	5297.41
678.957	5154.05
679.148	5235.97
679.338	5119.24
679.529	5295.36
679.719	5252.36
679.909	5291.27
680.1	5016.84
680.29	5149.96
680.481	4996.36
680.671	5065.99
680.861	4998.41
681.052	5084.42
681.242	4971.79
681.432	5014.79
681.622	5012.74
681.813	5080.33
682.003	5051.66
682.193	4930.83
682.383	5055.75
682.573	4998.41
682.764	4963.59
682.954	5098.76
683.144	4797.71
683.334	4857.1
683.524	4865.29
683.714	4943.11
683.904	4881.67
684.094	4941.07
684.284	4723.98
684.474	4926.73
684.664	4850.96
684.854	4777.23
685.044	4801.8
685.234	4713.74
685.424	4826.38
685.614	4723.98
685.804	4795.66
685.994	4654.35
686.184	4611.34
686.374	4578.58
686.564	4623.63
686.753	4674.83
686.943	4568.34
687.133	4615.44
687.323	4597.01
687.513	4525.33
687.702	4443.41
687.892	4498.7
688.082	4551.95
688.272	4420.88
688.461	4449.55
688.651	4562.19
688.841	4330.77
689.03	4314.39
689.22	4422.93
689.41	4439.31
689.599	4281.62
689.789	4228.37
689.979	4310.29
690.168	4361.49
690.358	4277.52
690.547	4062.49
690.737	4216.08
690.926	4261.14
691.116	4277.52
691.305	4304.15
691.495	3982.62
691.684	3984.66
691.874	4156.69
692.063	3947.8
692.252	4189.46
692.442	4074.78
692.631	4103.45
692.82	4066.58
693.01	3896.6
693.199	4070.68
693.388	3931.42
693.578	4023.58
693.767	3851.55
693.956	3808.54
694.146	3990.81
694.335	3917.08
694.524	3874.07
694.713	3826.97
694.902	3908.89
695.092	3872.03
695.281	3851.55
695.47	3867.93
695.659	3855.64
695.848	3708.19
696.037	3863.83
696.226	3794.2
696.415	3763.48
696.604	3794.2
696.793	3712.28
696.982	3745.05
697.171	3771.68
697.36	3740.96
697.549	3765.53
697.738	3726.62
697.927	3474.72
698.116	3519.78
698.305	3593.5
698.494	3753.24
698.683	3683.61
698.872	3603.74
699.061	3611.93
699.25	3618.08
699.438	3626.27
699.627	3589.41
699.816	3560.73
700.005	3581.21
700.193	3654.94
700.382	3597.6
700.571	3566.88
700.76	3511.58
700.948	3732.76
701.137	3577.12
701.326	3525.92
701.514	3566.88
701.703	3587.36
701.892	3470.62
702.08	3609.89
702.269	3521.82
702.457	3470.62
702.646	3527.97
702.834	3493.15
703.023	3654.94
703.212	3626.27
703.4	3411.23
703.589	3370.27
703.777	3456.29
703.965	3607.84
704.154	3499.3
704.342	3487.01
704.531	3310.88
704.719	3458.34
704.907	3532.06
705.096	3355.94
705.284	3364.13
705.472	3466.53
705.661	3431.71
705.849	3362.08
706.037	3415.33
706.226	3581.21
706.414	3390.75
706.602	3433.76
706.79	3374.37
706.979	3349.79
707.167	3376.42
707.355	3296.55
707.543	3480.86
707.731	3392.8
707.919	3384.61
708.107	3269.92
708.296	3525.92
708.484	3233.06
708.672	3405.09
708.86	3376.42
709.048	3366.18
709.236	3405.09
709.424	3351.84
709.612	3357.99
709.8	3317.03
709.988	3314.98
710.176	3380.51
710.364	3423.52
710.551	3341.6
710.739	3194.15
710.927	3380.51
711.115	3368.23
711.303	3228.96
711.491	3271.97
711.679	3274.02
711.866	3257.64
712.054	3360.03
712.242	3212.58
712.43	3290.4
712.617	3267.88
712.805	3349.79
712.993	3249.44
713.181	3231.01
713.368	3222.82
713.556	3265.83
713.744	3302.69
713.931	3349.79
714.119	3222.82
714.306	3276.07
714.494	3255.59
714.682	3255.59
714.869	3237.16
715.057	3423.52
715.244	3228.96
715.432	3366.18
715.619	3317.03
715.807	3220.77
715.994	3345.7
716.182	3151.14
716.369	3210.53
716.556	3337.51
716.744	3231.01
716.931	3116.33
717.119	3228.96
717.306	3202.34
717.493	3214.63
717.681	3259.68
717.868	3114.28
718.055	3257.64
718.242	3159.33
718.43	3192.1
718.617	3149.09
718.804	3091.75
718.991	3196.2
719.179	3058.98
719.366	3108.13
719.553	3056.93
719.74	3245.35
719.927	3108.13
720.114	3339.55
720.301	3171.62
720.488	3018.02
720.676	3071.27
720.863	3132.71
721.05	3099.94
721.237	3071.27
721.424	3126.57
721.611	3120.42
721.798	3089.7
721.985	3099.94
722.172	3087.65
722.358	3101.99
722.545	3136.81
722.732	3112.23
722.919	3065.13
723.106	3065.13
723.293	3091.75
723.48	3206.44
723.667	3007.78
723.853	3083.56
724.04	3052.84
724.227	3085.61
724.414	3167.52
724.6	3122.47
724.787	3044.65
724.974	3097.89
725.161	3077.41
725.347	3058.98
725.534	3110.18
725.72	3128.61
725.907	3128.61
726.094	3120.42
726.28	3018.02
726.467	3091.75
726.653	3044.65
726.84	2983.21
727.027	3058.98
727.213	2966.82
727.4	3024.17
727.586	3024.17
727.773	3181.86
727.959	3024.17
728.145	2979.11
728.332	3044.65
728.518	3118.37
728.705	2968.87
728.891	2989.35
729.077	3044.65
729.264	3071.27
729.45	3003.69
729.636	3112.23
729.823	3077.41
730.009	2987.3
730.195	2950.44
730.382	2981.16
730.568	2950.44
730.754	2925.86
730.94	3007.78
731.126	3067.17
731.313	2936.1
731.499	2948.39
731.685	2970.92
731.871	2921.77
732.057	2913.58
732.243	2964.78
732.429	2921.77
732.615	2987.3
732.801	2893.1
732.987	2944.3
733.173	2946.34
733.359	3034.41
733.545	2899.24
733.731	2866.47
733.917	2889
734.103	2999.59
734.289	2893.1
734.475	3065.13
734.661	2891.05
734.847	2895.15
735.033	3001.64
735.219	2911.53
735.404	2927.91
735.59	2909.48
735.776	2823.47
735.962	2944.3
736.148	2923.82
736.333	2880.81
736.519	2757.93
736.705	2798.89
736.89	2737.45
737.076	2802.99
737.262	2872.62
737.447	2770.22
737.633	2835.75
737.819	2802.99
738.004	2665.77
738.19	2848.04
738.375	2895.15
738.561	2895.15
738.747	2837.8
738.932	2686.25
739.118	2895.15
739.303	2776.36
739.489	2741.55
739.674	2792.75
739.859	2891.05
740.045	2737.45
740.23	2743.6
740.416	2661.68
740.601	2667.82
740.786	2755.88
740.972	2690.35
741.157	2753.84
741.342	2682.16
741.528	2633.01
741.713	2655.53
741.898	2690.35
742.084	2604.33
742.269	2661.68
742.454	2628.91
742.639	2497.84
742.824	2522.41
743.01	2622.77
743.195	2614.57
743.38	2606.38
743.565	2542.89
743.75	2534.7
743.935	2725.16
744.12	2592.05
744.305	2620.72
744.49	2514.22
744.675	2506.03
744.86	2583.85
745.045	2506.03
745.23	2483.5
745.415	2460.98
745.6	2444.59
745.785	2379.06
745.97	2450.74
746.155	2393.39
746.34	2309.43
746.525	2401.58
746.71	2356.53
746.895	2342.19
747.079	2309.43
747.264	2379.06
747.449	2329.91
747.634	2276.66
747.819	2286.9
748.003	2192.69
748.188	2250.03
748.373	2252.08
748.557	2305.33
748.742	2190.64
748.927	2334
749.111	2190.64
749.296	2161.97
749.481	2053.43
749.665	2088.25
749.85	2061.62
750.034	2057.53
750.219	2133.3
750.404	2065.72
750.588	2149.68
750.773	2020.66
750.957	2106.68
751.141	2063.67
751.326	1922.36
751.51	1973.56
751.695	2010.42
751.879	2004.28
752.064	2037.05
752.248	2059.57
752.432	2065.72
752.617	1887.54
752.801	1953.08
752.985	1871.16
753.17	1926.46
753.354	1842.49
753.538	1811.77
753.722	1793.34
753.907	1871.16
754.091	1764.67
754.275	1869.11
754.459	1887.54
754.643	1733.95
754.828	1852.73
755.012	1748.28
755.196	1750.33
755.38	1727.8
755.564	1826.11
755.748	1678.65
755.932	1744.19
756.116	1635.64
756.3	1670.46
756.484	1649.98
756.668	1596.73
756.852	1578.3
757.036	1504.57
757.22	1596.73
757.404	1527.1
757.588	1629.5
757.772	1600.83
757.956	1639.74
758.14	1553.73
758.323	1523.01
758.507	1553.73
758.691	1551.68
758.875	1611.07
759.059	1561.92
759.242	1578.3
759.426	1443.14
759.61	1451.33
759.794	1510.72
759.977	1506.62
760.161	1586.49
760.345	1465.66
760.528	1457.47
760.712	1373.5
760.895	1568.06
761.079	1410.37
761.263	1408.32
761.446	1338.69
761.63	1328.45
761.813	1365.31
761.997	1297.73
762.18	1410.37
762.364	1371.46
762.547	1371.46
762.731	1369.41
762.914	1340.74
763.098	1332.54
763.281	1363.26
763.464	1305.92
763.648	1307.97
763.831	1314.11
764.015	1256.77
764.198	1369.41
764.381	1283.39
764.564	1330.5
764.748	1221.95
764.931	1291.59
765.114	1238.34
765.297	1230.15
765.481	1269.06
765.664	1303.87
765.847	1213.76
766.03	1260.87
766.213	1166.66
766.397	1185.09
766.58	1154.37
766.763	1289.54
766.946	1252.67
767.129	1215.81
767.312	1164.61
767.495	1148.23
767.678	1181
767.861	1119.56
768.044	1144.13
768.227	1125.7
768.41	1107.27
768.593	1195.33
768.776	1189.19
768.959	1183.04
769.142	1264.96
769.324	1201.47
769.507	1092.93
769.69	1066.31
769.873	1086.79
770.056	1072.45
770.239	1097.03
770.421	1115.46
770.604	1070.4
770.787	1060.17
770.97	1146.18
771.152	1045.83
771.335	1084.74
771.518	1070.4
771.7	1064.26
771.883	994.63
772.066	986.44
772.248	1000.77
772.431	1056.07
772.613	1006.92
772.796	978.25
772.978	1064.26
773.161	996.68
773.343	963.91
773.526	935.24
773.708	925
773.891	961.86
774.073	968.01
774.256	949.57
774.438	996.68
774.621	849.22
774.803	990.53
774.985	890.18
775.168	904.52
775.35	875.85
775.532	945.48
775.715	863.56
775.897	875.85
776.079	978.25
776.261	869.7
776.444	949.57
776.626	935.24
776.808	873.8
776.99	900.42
777.173	771.4
777.355	888.14
777.537	789.83
777.719	892.23
777.901	857.42
778.083	812.36
778.265	769.35
778.447	777.55
778.629	798.03
778.811	761.16
778.993	789.83
779.175	793.93
779.357	841.03
779.539	828.74
779.721	875.85
779.903	757.07
780.085	761.16
780.267	714.06
780.449	695.63
780.631	728.39
780.812	785.74
780.994	752.97
781.176	818.5
781.358	755.02
781.54	705.87
781.721	789.83
781.903	685.39
782.085	693.58
782.267	720.2
782.448	648.52
782.63	585.04
782.812	648.52
782.993	662.86
783.175	656.72
783.357	662.86
783.538	621.9
783.72	677.19
783.901	601.42
784.083	605.52
784.264	515.41
784.446	675.15
784.627	580.94
784.809	630.09
784.99	601.42
785.172	621.9
785.353	599.37
785.535	566.6
785.716	578.89
785.897	505.17
786.079	613.71
786.26	525.65
786.441	503.12
786.623	511.31
786.804	562.51
786.985	488.78
787.167	470.35
787.348	492.88
787.529	556.36
787.71	537.93
787.891	533.84
788.073	449.87
788.254	511.31
788.435	552.27
788.616	554.32
788.797	400.72
788.978	456.01
789.159	503.12
789.34	488.78
789.522	456.01
789.703	460.11
789.884	400.72
790.065	488.78
790.246	456.01
790.427	515.41
790.607	474.45
790.788	501.07
790.969	400.72
791.15	462.16
791.331	380.24
791.512	535.89
791.693	431.44
791.874	470.35
792.054	494.93
792.235	460.11
792.416	398.67
792.597	482.64
792.778	410.96
792.958	453.97
793.139	462.16
793.32	398.67
793.5	394.58
793.681	419.15
793.862	423.25
794.042	435.53
794.223	431.44
794.404	365.9
794.584	384.34
794.765	359.76
794.945	433.49
795.126	367.95
795.306	367.95
795.487	376.14
795.667	324.94
795.848	376.14
796.028	351.57
796.209	410.96
796.389	359.76
796.57	365.9
796.75	318.8
796.93	365.9
797.111	353.62
797.291	365.9
797.471	318.8
797.652	419.15
797.832	310.61
798.012	378.19
798.192	372.05
798.373	386.38
798.553	314.7
798.733	378.19
798.913	294.22
799.093	296.27
799.274	308.56
799.454	302.42
799.634	390.48
799.814	398.67
799.994	382.29
800.174	357.71
800.354	339.28
800.534	296.27
800.714	294.22
800.894	273.75
801.074	306.51
801.254	329.04
801.434	255.31
801.614	273.75
801.794	249.17
801.974	787.79
802.154	339.28
802.334	329.04
802.514	290.13
802.693	304.46
802.873	304.46
803.053	306.51
803.233	265.55
803.413	300.37
803.592	275.79
803.772	255.31
803.952	288.08
804.131	236.88
804.311	277.84
804.491	290.13
804.67	238.93
804.85	189.78
805.03	386.38
805.209	281.94
805.389	255.31
805.568	298.32
805.748	257.36
805.928	257.36
806.107	243.03
806.287	226.64
806.466	320.85
806.646	232.79
806.825	238.93
807.004	208.21
807.184	275.79
807.363	259.41
807.543	294.22
807.722	288.08
807.901	283.98
808.081	208.21
808.26	208.21
808.439	286.03
808.619	228.69
808.798	197.97
808.977	316.75
809.156	243.03
809.336	226.64
809.515	269.65
809.694	251.22
809.873	316.75
810.052	210.26
810.231	218.45
810.411	222.55
810.59	181.59
810.769	187.73
810.948	220.5
811.127	197.97
811.306	288.08
811.485	183.63
811.664	345.42
811.843	277.84
812.022	187.73
812.201	224.59
812.38	259.41
812.559	159.06
812.737	152.91
812.916	157.01
813.095	243.03
813.274	265.55
813.453	214.35
813.632	255.31
813.811	224.59
813.989	189.78
814.168	232.79
814.347	269.65
814.526	177.49
814.704	286.03
814.883	232.79
815.062	173.39
815.24	224.59
815.419	210.26
815.598	208.21
815.776	142.68
815.955	224.59
816.133	126.29
816.312	263.51
816.49	240.98
816.669	124.24
816.847	163.15
817.026	175.44
817.204	161.11
817.383	148.82
817.561	114
817.74	187.73
817.918	228.69
818.097	177.49
818.275	183.63
818.453	191.83
818.632	187.73
818.81	83.28
818.988	218.45
819.167	163.15
819.345	134.48
819.523	157.01
819.701	183.63
819.879	247.12
820.058	173.39
820.236	163.15
820.414	87.38
820.592	77.14
820.77	130.39
820.948	105.81
821.127	183.63
821.305	140.63
821.483	116.05
821.661	161.11
821.839	152.91
822.017	193.87
822.195	130.39
822.373	91.48
822.551	99.67
822.729	87.38
822.907	134.48
823.085	208.21
823.262	101.72
823.44	148.82
823.618	161.11
823.796	140.63
823.974	146.77
824.152	161.11
824.329	116.05
824.507	114
824.685	195.92
824.863	132.44
825.04	175.44
825.218	136.53
825.396	152.91
825.574	120.15
825.751	77.14
825.929	136.53
826.107	99.67
826.284	152.91
826.462	93.52
826.639	136.53
826.817	124.24
826.994	179.54
827.172	116.05
827.349	197.97
827.527	109.91
827.704	120.15
827.882	210.26
828.059	132.44
828.237	128.34
828.414	157.01
828.591	93.52
828.769	134.48
828.946	118.1
829.124	118.1
829.301	161.11
829.478	116.05
829.655	107.86
829.833	107.86
830.01	107.86
830.187	159.06
830.364	97.62
830.542	95.57
830.719	107.86
830.896	93.52
831.073	7.51
831.25	97.62
831.427	167.25
831.604	101.72
831.782	21.84
831.959	103.76
832.136	116.05
832.313	116.05
832.49	93.52
832.667	75.09
832.844	38.23
833.021	171.35
833.198	42.32
833.374	185.68
833.551	148.82
833.728	54.61
833.905	142.68
834.082	60.76
834.259	103.76
834.436	157.01
834.612	68.95
834.789	-2.73
834.966	132.44
835.143	42.32
835.319	89.43
835.496	126.29
835.673	214.35
835.85	144.72
836.026	87.38
836.203	140.63
836.38	60.76
836.556	46.42
836.733	187.73
836.909	169.3
837.086	99.67
837.262	75.09
837.439	126.29
837.616	120.15
837.792	71
837.968	75.09
838.145	-6.83
838.321	46.42
838.498	77.14
838.674	118.1
838.851	101.72
839.027	73.04
839.203	15.7
839.38	107.86
839.556	77.14
839.732	120.15
839.909	42.32
840.085	77.14
840.261	124.24
840.437	171.35
840.614	122.2
840.79	126.29
840.966	71
841.142	132.44
841.318	150.87
841.494	54.61
841.671	38.23
841.847	32.08
842.023	44.37
842.199	118.1
842.375	19.8
842.551	15.7
842.727	42.32
842.903	107.86
843.079	87.38
843.255	83.28
843.431	77.14
843.607	87.38
843.783	56.66
843.959	62.8
844.134	73.04
844.31	83.28
844.486	79.19
844.662	54.61
844.838	79.19
845.013	42.32
845.189	89.43
845.365	120.15
845.541	-4.78
845.716	99.67
845.892	111.96
846.068	27.99
846.244	85.33
846.419	103.76
846.595	91.48
846.77	71
846.946	126.29
847.122	140.63
847.297	56.66
847.473	105.81
847.648	50.52
847.824	77.14
847.999	116.05
848.175	58.71
848.35	66.9
848.526	93.52
848.701	58.71
848.876	87.38
849.052	150.87
849.227	27.99
849.403	27.99
849.578	48.47
849.753	105.81
849.929	75.09
850.104	111.96
850.279	134.48
850.454	101.72
850.63	116.05
850.805	23.89
850.98	68.95
851.155	21.84
851.33	99.67
851.505	7.51
851.681	13.65
851.856	-12.97
852.031	-4.78
852.206	103.76
852.381	71
852.556	44.37
852.731	71
852.906	7.51
853.081	11.61
853.256	56.66
853.431	77.14
853.606	-2.73
853.781	7.51
853.956	21.84
854.131	93.52
854.305	1.37
854.48	66.9
854.655	52.56
854.83	15.7
855.005	48.47
855.18	11.61
855.354	32.08
855.529	38.23
855.704	-0.68
855.879	60.76
856.053	7.51
856.228	3.41
856.403	13.65
856.577	87.38
856.752	48.47
856.926	-37.55
857.101	122.2
857.276	1.37
857.45	83.28
857.625	42.32
857.799	120.15
857.974	32.08
858.148	25.94
858.323	3.41
858.497	97.62
858.672	52.56
858.846	93.52
859.02	179.54
859.195	50.52
859.369	56.66
859.543	34.13
859.718	-21.16
859.892	36.18
860.066	93.52
860.241	25.94
860.415	85.33
860.589	-31.4
860.763	56.66
860.938	38.23
861.112	75.09
861.286	40.28
861.46	66.9
861.634	89.43
861.808	118.1
861.982	13.65
862.157	75.09
862.331	79.19
862.505	81.24
862.679	23.89
862.853	56.66
863.027	109.91
863.201	68.95
863.375	50.52
863.549	50.52
863.722	66.9
863.896	101.72
864.07	50.52
864.244	75.09
864.418	44.37
864.592	21.84
864.766	19.8
864.939	50.52
865.113	9.56
865.287	101.72
865.461	99.67
865.634	-25.26
865.808	34.13
865.982	103.76
866.156	-17.07
866.329	66.9
866.503	116.05
866.676	-70.31
866.85	-10.92
867.024	36.18
867.197	64.85
867.371	25.94
867.544	97.62
867.718	21.84
867.891	30.04
868.065	114
868.238	21.84
868.412	-0.68
868.585	-8.87
868.759	46.42
868.932	48.47
869.105	17.75
869.279	95.57
869.452	105.81
869.625	7.51
869.799	-21.16
869.972	-8.87
870.145	15.7
870.319	91.48
870.492	-45.74
870.665	40.28
870.838	140.63
871.011	-23.21
871.185	7.51
871.358	-29.35
871.531	17.75
871.704	58.71
871.877	54.61
872.05	-2.73
872.223	103.76
872.396	68.95
872.569	42.32
872.742	40.28
872.915	-10.92
873.088	-35.5
873.261	-80.55
873.434	58.71
873.607	79.19
873.78	19.8
873.953	46.42
874.126	-10.92
874.299	-6.83
874.471	56.66
874.644	46.42
874.817	62.8
874.99	99.67
875.163	34.13
875.335	15.7
875.508	50.52
875.681	38.23
875.853	30.04
876.026	-8.87
876.199	36.18
876.371	36.18
876.544	36.18
876.717	36.18
876.889	-10.92
877.062	38.23
877.234	21.84
877.407	-49.83
877.579	71
877.752	9.56
877.924	48.47
878.097	52.56
878.269	30.04
878.442	27.99
878.614	5.46
878.786	-12.97
878.959	42.32
879.131	-23.21
879.303	-4.78
879.476	-0.68
879.648	81.24
879.82	50.52
879.993	-76.46
880.165	7.51
880.337	60.76
880.509	85.33
880.681	34.13
880.854	44.37
881.026	21.84
881.198	134.48
881.37	-37.55
881.542	38.23
881.714	5.46
881.886	62.8
882.058	-10.92
882.23	34.13
882.402	-86.7
882.574	50.52
882.746	5.46
882.918	54.61
883.09	34.13
883.262	21.84
883.434	-17.07
883.606	30.04
883.778	9.56
883.95	111.96
884.122	7.51
884.293	19.8
884.465	50.52
884.637	56.66
884.809	32.08
884.98	27.99
885.152	5.46
885.324	42.32
885.496	-21.16
885.667	58.71
885.839	-2.73
886.011	3.41
886.182	73.04
886.354	60.76
886.525	42.32
886.697	15.7
886.869	-49.83
887.04	25.94
887.212	3.41
887.383	56.66
887.555	-21.16
887.726	36.18
887.897	19.8
888.069	-27.31
888.24	81.24
888.412	62.8
888.583	25.94
888.754	-12.97
888.926	44.37
889.097	27.99
889.268	15.7
889.44	17.75
889.611	-82.6
889.782	-23.21
889.953	36.18
890.125	58.71
890.296	-0.68
890.467	66.9
890.638	52.56
890.809	64.85
890.98	1.37
891.151	25.94
891.323	5.46
891.494	46.42
891.665	79.19
891.836	-10.92
892.007	-2.73
892.178	32.08
892.349	15.7
892.52	-12.97
892.691	56.66
892.862	81.24
893.032	-17.07
893.203	52.56
893.374	-29.35
893.545	-27.31
893.716	7.51
893.887	25.94
894.057	40.28
894.228	-2.73
894.399	21.84
894.57	-0.68
894.74	42.32
894.911	27.99
895.082	-15.02
895.253	9.56
895.423	7.51
895.594	-25.26
895.764	52.56
895.935	-4.78
896.106	27.99
896.276	62.8
896.447	7.51
896.617	-35.5
896.788	81.24
896.958	91.48
897.129	25.94
897.299	58.71
897.47	13.65
897.64	75.09
897.81	38.23
897.981	9.56
898.151	1.37
898.322	32.08
898.492	-0.68
898.662	46.42
898.832	34.13
899.003	44.37
899.173	32.08
899.343	34.13
899.513	9.56
