Data from USB4F104151__15__12-27-02-816.txt Node

Date: Fri Mar 14 12:27:02 EDT 2025
User: louis
Spectrometer: USB4F10415
Trigger mode: 4
Integration Time (sec): 2.000000E-2
Scans to average: 1
Electric dark correction enabled: true
Nonlinearity correction enabled: false
Boxcar width: 0
XAxis mode: Wavelengths
Number of Pixels in Spectrum: 3648
>>>>>Begin Spectral Data<<<<<
178.204	-90.45
178.424	-90.45
178.644	-90.45
178.864	-110.93
179.084	-35.16
179.304	-53.59
179.524	16.04
179.744	-37.2
179.964	3.75
180.184	-43.35
180.404	5.8
180.624	48.81
180.844	3.75
181.064	77.48
181.283	-51.54
181.503	-20.82
181.723	50.86
181.943	-6.49
182.163	118.44
182.383	-6.49
182.602	75.43
182.822	-0.34
183.042	83.63
183.262	38.57
183.482	20.14
183.701	-24.92
183.921	20.14
184.141	3.75
184.361	24.23
184.58	32.43
184.8	-0.34
185.02	7.85
185.239	20.14
185.459	22.19
185.679	69.29
185.898	63.15
186.118	89.77
186.338	32.43
186.557	75.43
186.777	3.75
186.997	13.99
187.216	-12.63
187.436	63.15
187.655	30.38
187.875	42.67
188.095	-6.49
188.314	73.39
188.534	81.58
188.753	-6.49
188.973	24.23
189.192	87.72
189.412	69.29
189.631	50.86
189.851	22.19
190.07	52.91
190.29	18.09
190.509	26.28
190.729	9.9
190.948	73.39
191.168	87.72
191.387	75.43
191.607	-18.77
191.826	67.24
192.045	28.33
192.265	28.33
192.484	5.8
192.704	30.38
192.923	-4.44
193.142	118.44
193.362	38.57
193.581	89.77
193.8	95.91
194.02	69.29
194.239	7.85
194.458	20.14
194.678	44.71
194.897	-0.34
195.116	65.19
195.335	40.62
195.555	71.34
195.774	-29.01
195.993	-10.58
196.212	22.19
196.432	-43.35
196.651	1.71
196.87	34.47
197.089	75.43
197.308	69.29
197.528	48.81
197.747	93.87
197.966	-16.73
198.185	61.1
198.404	-14.68
198.623	26.28
198.842	40.62
199.062	63.15
199.281	42.67
199.5	-0.34
199.719	24.23
199.938	5.8
200.157	63.15
200.376	63.15
200.595	85.67
200.814	46.76
201.033	24.23
201.252	54.95
201.471	57
201.69	59.05
201.909	24.23
202.128	-67.92
202.347	138.92
202.566	-53.59
202.785	28.33
203.004	9.9
203.223	32.43
203.442	30.38
203.661	48.81
203.879	20.14
204.098	-12.63
204.317	13.99
204.536	30.38
204.755	28.33
204.974	13.99
205.193	28.33
205.411	93.87
205.63	32.43
205.849	93.87
206.068	30.38
206.287	-43.35
206.505	104.11
206.724	42.67
206.943	57
207.162	71.34
207.381	67.24
207.599	-18.77
207.818	28.33
208.037	54.95
208.255	75.43
208.474	71.34
208.693	46.76
208.911	-8.53
209.13	18.09
209.349	26.28
209.567	57
209.786	93.87
210.005	110.25
210.223	20.14
210.442	-26.96
210.661	-2.39
210.879	63.15
211.098	59.05
211.316	11.95
211.535	-4.44
211.753	34.47
211.972	40.62
212.191	93.87
212.409	13.99
212.628	77.48
212.846	-0.34
213.065	3.75
213.283	67.24
213.502	112.3
213.72	104.11
213.938	89.77
214.157	1.71
214.375	34.47
214.594	46.76
214.812	54.95
215.031	50.86
215.249	9.9
215.467	50.86
215.686	20.14
215.904	59.05
216.122	54.95
216.341	85.67
216.559	75.43
216.778	97.96
216.996	69.29
217.214	1.71
217.432	-0.34
217.651	54.95
217.869	-16.73
218.087	69.29
218.306	38.57
218.524	44.71
218.742	-12.63
218.96	50.86
219.179	57
219.397	69.29
219.615	34.47
219.833	67.24
220.051	32.43
220.27	34.47
220.488	89.77
220.706	69.29
220.924	1.71
221.142	36.52
221.36	-12.63
221.578	89.77
221.796	16.04
222.015	161.45
222.233	9.9
222.451	22.19
222.669	13.99
222.887	40.62
223.105	9.9
223.323	28.33
223.541	46.76
223.759	7.85
223.977	26.28
224.195	77.48
224.413	-24.92
224.631	34.47
224.849	38.57
225.067	18.09
225.285	-20.82
225.503	22.19
225.721	-35.16
225.939	67.24
226.157	22.19
226.375	136.87
226.592	54.95
226.81	-24.92
227.028	36.52
227.246	69.29
227.464	30.38
227.682	40.62
227.9	24.23
228.117	63.15
228.335	5.8
228.553	69.29
228.771	-6.49
228.989	20.14
229.206	-39.25
229.424	-16.73
229.642	-20.82
229.86	-0.34
230.077	40.62
230.295	65.19
230.513	57
230.731	75.43
230.948	59.05
231.166	46.76
231.384	-0.34
231.601	52.91
231.819	44.71
232.037	28.33
232.254	9.9
232.472	34.47
232.689	71.34
232.907	16.04
233.125	30.38
233.342	59.05
233.56	18.09
233.777	-26.96
233.995	59.05
234.213	44.71
234.43	63.15
234.648	87.72
234.865	134.82
235.083	30.38
235.3	34.47
235.518	65.19
235.735	81.58
235.953	42.67
236.17	32.43
236.388	24.23
236.605	-20.82
236.822	126.63
237.04	7.85
237.257	42.67
237.475	-76.12
237.692	22.19
237.909	59.05
238.127	30.38
238.344	110.25
238.562	145.06
238.779	65.19
238.996	13.99
239.214	48.81
239.431	46.76
239.648	-20.82
239.865	16.04
240.083	26.28
240.3	75.43
240.517	50.86
240.735	116.39
240.952	116.39
241.169	-10.58
241.386	57
241.603	13.99
241.821	22.19
242.038	28.33
242.255	48.81
242.472	9.9
242.689	85.67
242.907	91.82
243.124	-0.34
243.341	20.14
243.558	-8.53
243.775	3.75
243.992	18.09
244.209	77.48
244.426	73.39
244.643	46.76
244.86	59.05
245.078	3.75
245.295	11.95
245.512	42.67
245.729	38.57
245.946	9.9
246.163	57
246.38	9.9
246.597	40.62
246.814	36.52
247.031	44.71
247.248	102.06
247.464	77.48
247.681	7.85
247.898	18.09
248.115	40.62
248.332	48.81
248.549	120.49
248.766	89.77
248.983	26.28
249.2	63.15
249.417	36.52
249.633	5.8
249.85	73.39
250.067	-4.44
250.284	40.62
250.501	81.58
250.717	75.43
250.934	11.95
251.151	75.43
251.368	46.76
251.585	32.43
251.801	-59.73
252.018	-6.49
252.235	28.33
252.451	40.62
252.668	40.62
252.885	93.87
253.102	57
253.318	63.15
253.535	143.02
253.752	24.23
253.968	-4.44
254.185	-6.49
254.401	13.99
254.618	65.19
254.835	34.47
255.051	75.43
255.268	67.24
255.484	-14.68
255.701	22.19
255.917	65.19
256.134	13.99
256.351	-4.44
256.567	7.85
256.784	75.43
257	65.19
257.217	-18.77
257.433	-6.49
257.65	67.24
257.866	44.71
258.082	-8.53
258.299	167.59
258.515	42.67
258.732	42.67
258.948	69.29
259.165	145.06
259.381	34.47
259.597	100.01
259.814	34.47
260.03	26.28
260.246	20.14
260.463	34.47
260.679	138.92
260.895	48.81
261.112	22.19
261.328	44.71
261.544	24.23
261.761	100.01
261.977	65.19
262.193	75.43
262.409	1.71
262.626	81.58
262.842	18.09
263.058	57
263.274	61.1
263.49	85.67
263.707	-14.68
263.923	34.47
264.139	-8.53
264.355	20.14
264.571	81.58
264.787	-26.96
265.004	50.86
265.22	155.3
265.436	32.43
265.652	-39.25
265.868	75.43
266.084	38.57
266.3	26.28
266.516	-22.87
266.732	40.62
266.948	46.76
267.164	36.52
267.38	20.14
267.596	11.95
267.812	134.82
268.028	38.57
268.244	-12.63
268.46	54.95
268.676	-41.3
268.892	95.91
269.108	-16.73
269.324	18.09
269.54	28.33
269.756	52.91
269.972	81.58
270.188	11.95
270.403	32.43
270.619	75.43
270.835	-2.39
271.051	38.57
271.267	42.67
271.483	118.44
271.698	26.28
271.914	130.73
272.13	69.29
272.346	-41.3
272.562	44.71
272.777	30.38
272.993	38.57
273.209	67.24
273.425	83.63
273.64	18.09
273.856	54.95
274.072	50.86
274.287	-12.63
274.503	67.24
274.719	30.38
274.934	65.19
275.15	44.71
275.366	44.71
275.581	-10.58
275.797	71.34
276.012	-29.01
276.228	11.95
276.444	3.75
276.659	46.76
276.875	24.23
277.09	34.47
277.306	18.09
277.521	9.9
277.737	-14.68
277.952	36.52
278.168	38.57
278.383	-16.73
278.599	110.25
278.814	102.06
279.03	42.67
279.245	50.86
279.461	24.23
279.676	-47.44
279.892	50.86
280.107	44.71
280.322	67.24
280.538	118.44
280.753	26.28
280.969	59.05
281.184	50.86
281.399	108.2
281.615	32.43
281.83	77.48
282.045	46.76
282.26	-12.63
282.476	59.05
282.691	16.04
282.906	65.19
283.122	77.48
283.337	32.43
283.552	79.53
283.767	-35.16
283.983	54.95
284.198	52.91
284.413	28.33
284.628	-24.92
284.843	-24.92
285.058	34.47
285.274	79.53
285.489	22.19
285.704	83.63
285.919	83.63
286.134	81.58
286.349	95.91
286.564	32.43
286.779	54.95
286.995	85.67
287.21	-16.73
287.425	91.82
287.64	42.67
287.855	57
288.07	-18.77
288.285	50.86
288.5	77.48
288.715	38.57
288.93	97.96
289.145	83.63
289.36	130.73
289.575	79.53
289.79	52.91
290.004	61.1
290.219	-6.49
290.434	28.33
290.649	-4.44
290.864	-2.39
291.079	-12.63
291.294	73.39
291.509	79.53
291.724	108.2
291.938	9.9
292.153	36.52
292.368	57
292.583	57
292.798	50.86
293.012	-2.39
293.227	69.29
293.442	112.3
293.657	112.3
293.871	81.58
294.086	57
294.301	93.87
294.516	59.05
294.73	42.67
294.945	52.91
295.16	93.87
295.374	-10.58
295.589	77.48
295.804	20.14
296.018	42.67
296.233	26.28
296.447	16.04
296.662	40.62
296.877	151.21
297.091	3.75
297.306	52.91
297.52	22.19
297.735	-0.34
297.949	54.95
298.164	106.15
298.378	-8.53
298.593	20.14
298.807	30.38
299.022	44.71
299.236	16.04
299.451	69.29
299.665	69.29
299.88	-4.44
300.094	3.75
300.309	-16.73
300.523	54.95
300.737	-12.63
300.952	16.04
301.166	9.9
301.381	-6.49
301.595	73.39
301.809	-4.44
302.024	126.63
302.238	65.19
302.452	40.62
302.667	7.85
302.881	79.53
303.095	32.43
303.309	16.04
303.524	48.81
303.738	-26.96
303.952	52.91
304.166	63.15
304.381	71.34
304.595	110.25
304.809	16.04
305.023	85.67
305.237	32.43
305.452	67.24
305.666	61.1
305.88	75.43
306.094	63.15
306.308	57
306.522	69.29
306.736	34.47
306.95	22.19
307.164	32.43
307.379	32.43
307.593	61.1
307.807	30.38
308.021	11.95
308.235	28.33
308.449	5.8
308.663	112.3
308.877	32.43
309.091	67.24
309.305	59.05
309.519	57
309.733	50.86
309.947	7.85
310.161	81.58
310.374	83.63
310.588	26.28
310.802	20.14
311.016	36.52
311.23	-8.53
311.444	9.9
311.658	36.52
311.872	79.53
312.085	100.01
312.299	77.48
312.513	34.47
312.727	108.2
312.941	36.52
313.154	69.29
313.368	63.15
313.582	57
313.796	147.11
314.009	11.95
314.223	28.33
314.437	77.48
314.651	38.57
314.864	44.71
315.078	87.72
315.292	34.47
315.505	46.76
315.719	87.72
315.933	28.33
316.146	69.29
316.36	95.91
316.573	81.58
316.787	52.91
317.001	59.05
317.214	40.62
317.428	67.24
317.641	57
317.855	16.04
318.068	57
318.282	91.82
318.495	61.1
318.709	36.52
318.922	93.87
319.136	59.05
319.349	44.71
319.563	36.52
319.776	134.82
319.99	22.19
320.203	97.96
320.417	34.47
320.63	73.39
320.843	52.91
321.057	188.07
321.27	73.39
321.483	89.77
321.697	120.49
321.91	3.75
322.124	24.23
322.337	100.01
322.55	-6.49
322.763	48.81
322.977	40.62
323.19	32.43
323.403	100.01
323.617	77.48
323.83	118.44
324.043	-6.49
324.256	73.39
324.469	52.91
324.683	171.69
324.896	108.2
325.109	63.15
325.322	-14.68
325.535	46.76
325.748	38.57
325.962	54.95
326.175	57
326.388	32.43
326.601	61.1
326.814	52.91
327.027	-10.58
327.24	91.82
327.453	-49.49
327.666	93.87
327.879	26.28
328.092	57
328.305	108.2
328.518	13.99
328.731	71.34
328.944	46.76
329.157	11.95
329.37	87.72
329.583	83.63
329.796	110.25
330.009	81.58
330.222	-4.44
330.435	85.67
330.648	57
330.861	38.57
331.073	95.91
331.286	71.34
331.499	77.48
331.712	-6.49
331.925	46.76
332.138	16.04
332.35	112.3
332.563	52.91
332.776	26.28
332.989	5.8
333.202	24.23
333.414	36.52
333.627	34.47
333.84	100.01
334.053	48.81
334.265	48.81
334.478	44.71
334.691	63.15
334.903	42.67
335.116	1.71
335.329	71.34
335.541	71.34
335.754	128.68
335.966	26.28
336.179	26.28
336.392	28.33
336.604	69.29
336.817	93.87
337.029	97.96
337.242	24.23
337.454	77.48
337.667	38.57
337.88	100.01
338.092	30.38
338.305	50.86
338.517	54.95
338.729	93.87
338.942	95.91
339.154	26.28
339.367	11.95
339.579	-37.2
339.792	59.05
340.004	69.29
340.217	57
340.429	100.01
340.641	108.2
340.854	36.52
341.066	20.14
341.278	22.19
341.491	63.15
341.703	46.76
341.915	1.71
342.128	151.21
342.34	59.05
342.552	11.95
342.764	50.86
342.977	22.19
343.189	38.57
343.401	42.67
343.613	18.09
343.826	132.78
344.038	-0.34
344.25	132.78
344.462	-2.39
344.674	116.39
344.886	54.95
345.099	122.54
345.311	63.15
345.523	59.05
345.735	11.95
345.947	-6.49
346.159	3.75
346.371	89.77
346.583	13.99
346.795	69.29
347.007	32.43
347.219	-14.68
347.431	63.15
347.643	77.48
347.855	97.96
348.067	71.34
348.279	42.67
348.491	97.96
348.703	18.09
348.915	-2.39
349.127	-0.34
349.339	1.71
349.551	34.47
349.763	97.96
349.975	42.67
350.187	87.72
350.399	63.15
350.61	34.47
350.822	73.39
351.034	34.47
351.246	106.15
351.458	73.39
351.669	28.33
351.881	69.29
352.093	118.44
352.305	75.43
352.517	59.05
352.728	81.58
352.94	34.47
353.152	114.34
353.363	67.24
353.575	11.95
353.787	40.62
353.999	59.05
354.21	48.81
354.422	102.06
354.633	75.43
354.845	83.63
355.057	36.52
355.268	79.53
355.48	24.23
355.692	32.43
355.903	100.01
356.115	79.53
356.326	-74.07
356.538	59.05
356.749	40.62
356.961	140.97
357.172	40.62
357.384	-72.02
357.595	40.62
357.807	57
358.018	67.24
358.23	100.01
358.441	93.87
358.653	50.86
358.864	-0.34
359.075	-4.44
359.287	18.09
359.498	22.19
359.709	112.3
359.921	40.62
360.132	73.39
360.344	59.05
360.555	42.67
360.766	79.53
360.977	13.99
361.189	124.58
361.4	77.48
361.611	100.01
361.823	89.77
362.034	122.54
362.245	-67.92
362.456	79.53
362.667	81.58
362.879	54.95
363.09	77.48
363.301	93.87
363.512	95.91
363.723	40.62
363.935	28.33
364.146	87.72
364.357	9.9
364.568	50.86
364.779	36.52
364.99	120.49
365.201	114.34
365.412	54.95
365.623	32.43
365.834	108.2
366.045	24.23
366.256	69.29
366.467	11.95
366.678	44.71
366.889	-12.63
367.1	59.05
367.311	3.75
367.522	32.43
367.733	116.39
367.944	71.34
368.155	61.1
368.366	120.49
368.577	52.91
368.788	36.52
368.999	112.3
369.209	52.91
369.42	104.11
369.631	114.34
369.842	28.33
370.053	22.19
370.264	128.68
370.474	26.28
370.685	69.29
370.896	42.67
371.107	122.54
371.317	38.57
371.528	-39.25
371.739	81.58
371.95	57
372.16	77.48
372.371	30.38
372.582	-14.68
372.792	38.57
373.003	93.87
373.214	36.52
373.424	73.39
373.635	77.48
373.846	73.39
374.056	63.15
374.267	18.09
374.477	79.53
374.688	71.34
374.898	48.81
375.109	73.39
375.319	73.39
375.53	159.4
375.74	102.06
375.951	118.44
376.161	77.48
376.372	-4.44
376.582	138.92
376.793	89.77
377.003	13.99
377.214	38.57
377.424	40.62
377.635	16.04
377.845	91.82
378.055	163.5
378.266	63.15
378.476	28.33
378.686	-47.44
378.897	85.67
379.107	87.72
379.317	73.39
379.528	1.71
379.738	89.77
379.948	85.67
380.158	63.15
380.369	57
380.579	87.72
380.789	77.48
380.999	46.76
381.21	120.49
381.42	114.34
381.63	-4.44
381.84	83.63
382.05	87.72
382.261	71.34
382.471	65.19
382.681	85.67
382.891	24.23
383.101	61.1
383.311	65.19
383.521	69.29
383.731	52.91
383.941	85.67
384.151	75.43
384.361	50.86
384.571	108.2
384.781	38.57
384.991	128.68
385.201	132.78
385.411	85.67
385.621	91.82
385.831	71.34
386.041	108.2
386.251	63.15
386.461	134.82
386.671	-12.63
386.881	46.76
387.091	73.39
387.301	116.39
387.511	26.28
387.72	145.06
387.93	34.47
388.14	36.52
388.35	83.63
388.56	85.67
388.769	112.3
388.979	61.1
389.189	97.96
389.399	26.28
389.609	77.48
389.818	126.63
390.028	81.58
390.238	40.62
390.447	100.01
390.657	28.33
390.867	40.62
391.076	93.87
391.286	30.38
391.496	128.68
391.705	93.87
391.915	108.2
392.125	128.68
392.334	79.53
392.544	83.63
392.753	194.22
392.963	34.47
393.172	83.63
393.382	97.96
393.591	114.34
393.801	83.63
394.01	89.77
394.22	30.38
394.429	112.3
394.639	42.67
394.848	128.68
395.058	57
395.267	110.25
395.477	79.53
395.686	93.87
395.895	188.07
396.105	173.74
396.314	104.11
396.524	69.29
396.733	145.06
396.942	210.6
397.152	116.39
397.361	108.2
397.57	132.78
397.78	114.34
397.989	100.01
398.198	151.21
398.407	97.96
398.617	153.26
398.826	140.97
399.035	95.91
399.244	63.15
399.453	122.54
399.663	114.34
399.872	159.4
400.081	106.15
400.29	130.73
400.499	116.39
400.708	214.7
400.917	118.44
401.127	44.71
401.336	89.77
401.545	181.93
401.754	145.06
401.963	138.92
402.172	149.16
402.381	181.93
402.59	167.59
402.799	153.26
403.008	120.49
403.217	126.63
403.426	173.74
403.635	116.39
403.844	214.7
404.053	157.35
404.262	263.85
404.471	206.5
404.68	200.36
404.888	149.16
405.097	169.64
405.306	190.12
405.515	216.74
405.724	202.41
405.933	194.22
406.142	239.27
406.35	188.07
406.559	241.32
406.768	138.92
406.977	282.28
407.185	323.24
407.394	313
407.603	233.13
407.812	214.7
408.02	278.18
408.229	255.65
408.438	278.18
408.646	321.19
408.855	206.5
409.064	327.33
409.272	237.22
409.481	327.33
409.69	331.43
409.898	382.63
410.107	394.92
410.315	384.68
410.524	296.61
410.733	437.92
410.941	468.64
411.15	462.5
411.358	528.03
411.567	419.49
411.775	519.84
411.984	478.88
412.192	507.55
412.401	497.32
412.609	575.14
412.818	573.09
413.026	585.38
413.234	554.66
413.443	652.96
413.651	792.22
413.86	657.06
414.068	632.48
414.276	757.41
414.485	794.27
414.693	792.22
414.901	829.09
415.11	755.36
415.318	800.41
415.526	845.47
415.734	933.53
415.943	937.63
416.151	978.59
416.359	939.68
416.567	962.2
416.776	1054.36
416.984	1107.61
417.192	1119.9
417.4	1107.61
417.608	1205.91
417.817	1308.31
418.025	1228.44
418.233	1355.41
418.441	1336.98
418.649	1390.23
418.857	1427.09
419.065	1490.58
419.273	1498.77
419.481	1638.03
419.689	1787.54
419.897	1726.1
420.105	1769.1
420.313	1830.54
420.521	1865.36
420.729	1840.78
420.937	1961.61
421.145	2090.63
421.353	2115.21
421.561	2326.15
421.769	2391.69
421.977	2430.6
422.185	2414.21
422.393	2545.28
422.601	2692.74
422.809	2686.59
423.017	2688.64
423.224	2795.14
423.432	2997.88
423.64	2950.78
423.848	3208.83
424.056	3143.29
424.263	3358.33
424.471	3352.18
424.679	3337.85
424.887	3559.03
425.094	3638.9
425.302	3681.91
425.51	3821.17
425.718	3993.2
425.925	4167.28
426.133	4275.82
426.341	4521.57
426.548	4646.5
426.756	4748.9
426.964	4738.66
427.171	5041.76
427.379	5242.46
427.586	5236.31
427.794	5396.06
428.001	5559.89
428.209	5815.89
428.417	5682.77
428.624	6135.37
428.832	6176.33
429.039	6127.18
429.247	6012.49
429.454	6704.71
429.662	7083.58
429.869	6803.01
430.076	7282.24
430.284	7016
430.491	7278.14
430.699	7644.73
430.906	7767.6
431.114	7771.7
431.321	8271.4
431.528	8269.36
431.736	9049.63
431.943	9315.87
432.15	8853.03
432.358	8857.12
432.565	9487.9
432.772	9512.47
432.979	9963.03
433.187	10063.38
433.394	10247.69
433.601	11054.59
433.808	11021.83
434.016	10925.57
434.223	11384.32
434.43	12133.87
434.637	11808.25
434.844	12688.87
435.052	12703.21
435.259	12791.27
435.466	12748.26
435.673	12840.42
435.88	13567.45
436.087	14155.22
436.294	14382.54
436.501	14200.27
436.708	13995.48
436.915	14953.93
437.122	15562.17
437.329	15601.08
437.537	15857.08
437.743	16319.92
437.95	16213.43
438.157	16881.07
438.364	17872.28
438.571	17620.38
438.778	17474.98
438.985	18959.75
439.192	18417.04
439.399	19164.55
439.606	18775.44
439.813	19670.4
440.02	21011.82
440.227	20573.55
440.433	20323.7
440.64	21036.39
440.847	21001.58
441.054	21648.74
441.261	22785.36
441.467	22848.85
441.674	23108.94
441.881	23932.22
442.088	24124.73
442.294	23612.74
442.501	24468.79
442.708	25019.69
442.914	26051.87
443.121	26778.9
443.328	26080.54
443.534	28052.73
443.741	27223.31
443.948	27110.67
444.154	28869.87
444.361	28638.45
444.568	28972.27
444.774	29136.11
444.981	29402.35
445.187	29994.21
445.394	31304.91
445.6	31001.81
445.807	33817.77
446.013	32316.61
446.22	33617.07
446.426	34368.67
446.633	35200.15
446.839	36039.81
447.046	34626.71
447.252	36484.22
447.459	36433.02
447.665	36316.29
447.871	37946.47
448.078	39826.51
448.284	37569.65
448.491	38573.15
448.697	40447.04
448.903	40961.08
449.11	40987.71
449.316	40285.25
449.522	41374.77
449.728	42503.2
449.935	42611.74
450.141	42497.06
450.347	43758.61
450.553	42337.32
450.76	42785.82
450.966	44286.98
451.172	44090.38
451.378	44649.47
451.584	43893.77
451.791	45067.26
451.997	45030.4
452.203	45577.2
452.409	45876.21
452.615	45591.54
452.821	44196.87
453.027	43349.01
453.233	45646.83
453.44	44033.03
453.646	44585.99
453.852	44657.67
454.058	45319.16
454.264	44190.73
454.47	44878.85
454.676	43861.01
454.882	45720.56
455.088	41329.72
455.294	42163.24
455.5	42261.54
455.705	43125.78
455.911	41952.3
456.117	40639.55
456.323	39976.01
456.529	38222.95
456.735	39842.89
456.941	38628.45
457.147	37915.75
457.352	37248.11
457.558	37131.38
457.764	36381.82
457.97	36359.3
458.176	35382.41
458.381	35138.71
458.587	33764.52
458.793	33637.55
458.999	31741.13
459.204	34499.74
459.41	33060.02
459.616	31026.39
459.821	31253.71
460.027	31065.3
460.233	30422.23
460.438	28812.53
460.644	29078.77
460.85	27884.8
461.055	27555.08
461.261	27415.82
461.466	25275.69
461.672	24364.34
461.878	26193.18
462.083	24579.38
462.289	24124.73
462.494	23895.36
462.7	22816.08
462.905	22093.15
463.111	23117.13
463.316	23147.85
463.522	22639.95
463.727	23055.69
463.932	22476.12
464.138	22343
464.343	22355.29
464.549	21744.99
464.754	22297.94
464.959	22838.61
465.165	22293.85
465.37	21284.2
465.575	20634.99
465.781	21353.83
465.986	21740.89
466.191	21175.66
466.397	20577.65
466.602	19393.92
466.807	20082.04
467.012	20190.58
467.218	20079.99
467.423	20008.31
467.628	20315.51
467.833	20981.1
468.038	20194.68
468.244	19438.98
468.449	20258.17
468.654	19465.6
468.859	19582.34
469.064	19553.66
469.269	18570.64
469.474	18623.89
469.679	19180.93
469.885	18421.14
470.09	18965.9
470.295	18767.24
470.5	18431.38
470.705	18355.6
470.91	18064.79
471.115	17900.95
471.32	18052.5
471.525	17882.52
471.73	17747.36
471.935	17700.25
472.139	17102.25
472.344	17098.15
472.549	16741.8
472.754	17069.48
472.959	16567.73
473.164	16291.25
473.369	16027.06
473.574	16412.08
473.778	16151.99
473.983	16346.55
474.188	16090.55
474.393	15549.89
474.598	15685.05
474.802	15242.69
475.007	15457.73
475.212	15334.85
475.417	14788.04
475.621	14697.93
475.826	14757.32
476.031	14400.97
476.235	14421.45
476.44	14493.13
476.645	14233.04
476.849	14421.45
477.054	14263.76
477.259	14007.76
477.463	13905.37
477.668	13229.54
477.872	13735.39
478.077	13309.41
478.282	13018.6
478.486	13004.26
478.691	12944.87
478.895	12983.78
479.1	12778.98
479.304	13028.84
479.509	12543.47
479.713	12871.14
479.918	12451.31
480.122	12256.75
480.326	12283.38
480.531	12580.33
480.735	12381.68
480.94	12174.83
481.144	12449.26
481.348	12076.53
481.553	12219.89
481.757	11881.97
481.961	12103.15
482.166	12203.5
482.37	12088.82
482.574	11832.82
482.778	11892.21
482.983	12314.09
483.187	12031.48
483.391	12004.85
483.595	11777.53
483.8	11908.6
484.004	11967.99
484.208	12119.54
484.412	11886.07
484.616	11996.66
484.821	11761.14
485.025	11681.27
485.229	12041.71
485.433	11861.49
485.637	11791.86
485.841	11734.52
486.045	11877.88
486.249	11937.27
486.453	11816.44
486.657	12041.71
486.861	12027.38
487.065	11707.9
487.269	11863.54
487.473	11585.02
487.677	12062.19
487.881	11859.45
488.085	11894.26
488.289	12033.52
488.493	11892.21
488.697	11980.28
488.901	11957.75
489.105	11812.34
489.309	11996.66
489.512	12101.11
489.716	12240.37
489.92	12097.01
490.124	12080.63
490.328	12338.67
490.531	12109.3
490.735	12379.63
490.939	12318.19
491.143	12232.18
491.346	12287.47
491.55	12416.49
491.754	12482.03
491.958	12666.35
492.161	12412.4
492.365	12463.6
492.569	12746.22
492.772	12490.22
492.976	12846.57
493.18	12856.81
493.383	12961.25
493.587	13067.75
493.79	13037.03
493.994	12750.31
494.197	13047.27
494.401	13223.39
494.605	13389.28
494.808	13362.65
495.012	13336.03
495.215	13452.77
495.419	13684.19
495.622	13645.27
495.825	13823.45
496.029	14099.92
496.232	14194.13
496.436	14241.23
496.639	14380.5
496.843	14591.44
497.046	14820.81
497.249	15087.04
497.453	14886.34
497.656	15111.62
497.859	14988.74
498.063	15373.76
498.266	15529.41
498.469	15543.74
498.673	15386.05
498.876	15769.02
499.079	15920.57
499.282	16108.98
499.485	16618.93
499.689	16311.73
499.892	16545.2
500.095	16580.01
500.298	17239.46
500.501	17061.29
500.705	17450.4
500.908	17677.72
501.111	17853.85
501.314	17790.36
501.517	17911.19
501.72	18496.91
501.923	18361.75
502.126	19033.48
502.329	19133.83
502.532	19297.67
502.735	19246.47
502.938	19559.81
503.141	19619.2
503.344	19975.55
503.547	20151.67
503.75	20833.64
503.953	20821.36
504.156	20890.99
504.359	21118.31
504.562	21120.36
504.765	21835.1
504.968	21642.59
505.17	22056.28
505.373	21818.72
505.576	22375.77
505.779	22590.8
505.982	22736.21
506.185	23330.12
506.387	23201.1
506.59	23420.23
506.793	23629.12
506.996	24110.39
507.198	24569.14
507.401	24149.31
507.604	24669.49
507.807	24950.06
508.009	25247.02
508.212	25431.33
508.415	25900.32
508.617	26322.2
508.82	26162.46
509.022	25961.76
509.225	26860.82
509.428	27151.63
509.63	27284.75
509.833	27350.28
510.035	27813.12
510.238	28022.02
510.44	28151.04
510.643	28566.77
510.845	28882.16
511.048	28863.73
511.25	29549.8
511.453	29680.87
511.655	30479.58
511.858	29822.18
512.06	30534.87
512.262	30272.73
512.465	30471.39
512.667	31114.45
512.87	31538.38
513.072	31319.24
513.274	32156.86
513.477	32609.47
513.679	32861.37
513.881	32535.74
514.084	33273.01
514.286	33098.93
514.488	33723.56
514.69	34423.97
514.893	34354.33
515.095	34540.7
515.297	35067.03
515.499	34993.3
515.701	35431.57
515.904	35812.49
516.106	35738.76
516.308	36271.23
516.51	36707.45
516.712	36912.25
516.914	36977.78
517.116	37500.01
517.318	37848.17
517.52	37891.18
517.722	37958.76
517.925	38665.31
518.127	39345.23
518.329	38825.05
518.531	39173.2
518.733	39590.99
518.935	40088.65
519.136	40248.39
519.338	40680.51
519.54	40893.5
519.742	41237.56
519.944	41385.01
520.146	41804.84
520.348	41882.67
520.55	42060.84
520.752	42404.9
520.954	43115.54
521.155	42337.32
521.357	43693.07
521.559	43797.52
521.761	44313.61
521.963	43893.77
522.164	43887.63
522.366	44573.7
522.568	44780.54
522.77	45014.01
522.971	45700.08
523.173	45878.25
523.375	45736.94
523.576	45659.12
523.778	45763.57
523.98	46668.77
524.181	46490.6
524.383	46461.93
524.584	47367.13
524.786	46994.4
524.988	47242.2
525.189	47674.32
525.391	48118.73
525.592	48128.97
525.794	48436.17
525.995	48614.34
526.197	48516.04
526.398	48886.72
526.6	48706.5
526.801	49105.85
527.003	49042.37
527.204	49314.75
527.406	49927.09
527.607	49431.48
527.808	50090.93
528.01	49132.48
528.211	49587.13
528.412	50543.53
528.614	50103.21
528.815	50316.2
529.016	50981.79
529.218	50690.98
529.419	50381.74
529.62	50684.84
529.822	50394.03
530.023	50852.77
530.224	50545.58
530.425	50631.59
530.626	50848.67
530.828	50512.81
531.029	51495.83
531.23	51268.51
531.431	51196.83
531.632	51565.46
531.833	51671.96
532.035	51323.8
532.236	51841.94
532.437	51524.5
532.638	50895.78
532.839	51917.71
533.04	52120.46
533.241	51430.3
533.442	52577.16
533.643	51692.44
533.844	51753.88
534.045	51864.47
534.246	51366.81
534.447	52310.92
534.648	51596.18
534.849	51823.51
535.05	51471.26
535.251	51843.99
535.451	51755.92
535.652	52079.5
535.853	51848.08
536.054	51768.21
536.255	52339.6
536.456	51528.6
536.657	52861.83
536.857	51579.8
537.058	52147.09
537.259	52032.4
537.46	52126.61
537.66	51989.39
537.861	51973.01
538.062	51499.93
538.263	51893.14
538.463	51598.23
538.664	51671.96
538.865	51899.28
539.065	51913.62
539.266	51667.86
539.466	52007.83
539.667	51585.94
539.868	52611.98
540.068	51631
540.269	51839.89
540.469	51747.73
540.67	51590.04
540.87	51952.53
541.071	51817.36
541.271	52022.16
541.472	51643.29
541.672	51856.28
541.873	51700.63
542.073	51768.21
542.274	52272.01
542.474	51657.62
542.675	51260.32
542.875	51962.77
543.075	51770.26
543.276	50822.05
543.476	51688.34
543.676	51192.73
543.877	51774.36
544.077	51897.23
544.277	51590.04
544.478	51569.56
544.678	51917.71
544.878	51815.32
545.078	51383.19
545.279	51512.22
545.479	51475.35
545.679	51639.19
545.879	51678.1
546.079	51311.52
546.28	51508.12
546.48	51348.38
546.68	51211.17
546.88	51258.27
547.08	51583.9
547.28	51501.98
547.48	51551.13
547.68	51227.55
547.88	51198.88
548.081	51440.54
548.281	51721.11
548.481	51411.87
548.681	51977.11
548.881	51479.45
549.081	51192.73
549.28	51014.56
549.48	51839.89
549.68	51372.95
549.88	51809.17
550.08	51008.42
550.28	51135.39
550.48	51260.32
550.68	51565.46
550.88	50922.4
551.08	51477.4
551.279	51516.31
551.479	51069.86
551.679	51346.33
551.879	50650.02
552.079	51778.45
552.278	51297.18
552.478	50910.11
552.678	51198.88
552.878	51104.67
553.077	50879.39
553.277	50680.74
553.477	51901.33
553.676	50584.49
553.876	51110.81
554.076	51131.29
554.275	50850.72
554.475	50555.82
554.674	51327.9
554.874	51037.09
555.074	50994.08
555.273	51135.39
555.473	51399.58
555.672	50680.74
555.872	50797.48
556.071	51057.57
556.271	51493.78
556.47	50684.84
556.67	50590.63
556.869	50506.66
557.068	50834.34
557.268	50340.78
557.467	50643.88
557.667	50457.51
557.866	50574.25
558.065	50459.56
558.265	50279.34
558.464	50365.35
558.663	50699.17
558.863	50138.03
559.062	50944.93
559.261	49793.97
559.461	50795.43
559.66	49812.4
559.859	50125.74
560.058	50265
560.258	50293.68
560.457	50054.06
560.656	50389.93
560.855	49851.31
561.054	50230.19
561.253	49613.75
561.453	49775.54
561.652	50013.1
561.851	50064.3
562.05	49583.03
562.249	49347.51
562.448	50027.44
562.647	49540.02
562.846	49474.49
563.045	49376.19
563.244	48767.94
563.443	49970.1
563.642	48890.82
563.841	49435.58
564.04	48972.74
564.239	49785.78
564.438	48784.32
564.637	49011.65
564.836	49224.64
565.035	48462.79
565.234	48774.08
565.432	48450.5
565.631	48583.62
565.83	49255.36
566.029	47954.89
566.228	48653.25
566.427	48341.96
566.625	48587.72
566.824	47666.13
567.023	48368.58
567.222	47551.45
567.42	48577.48
567.619	48454.6
567.818	47713.23
568.016	47807.44
568.215	48352.2
568.414	47717.33
568.612	48098.25
568.811	47453.14
569.01	47502.29
569.208	47123.42
569.407	47643.6
569.605	47277.02
569.804	47897.55
570.002	47207.39
570.201	47500.25
570.4	46605.28
570.598	47145.95
570.797	46785.5
570.995	47168.47
571.193	46509.03
571.392	47328.22
571.59	46674.91
571.789	46736.35
571.987	46779.36
572.186	46812.13
572.384	46566.37
572.582	46525.41
572.781	46760.93
572.979	45802.48
573.177	45927.41
573.376	45925.36
573.574	45892.59
573.772	45921.26
573.971	45480.95
574.169	45935.6
574.367	45270.01
574.565	45769.71
574.763	45454.33
574.962	45108.22
575.16	44594.18
575.358	45554.68
575.556	44792.83
575.754	45388.79
575.952	44583.94
576.151	45265.91
576.349	44270.6
576.547	44336.13
576.745	44731.39
576.943	44282.89
577.141	44628.99
577.339	44745.73
577.537	44168.2
577.735	44217.35
577.933	43799.57
578.131	44454.92
578.329	44024.84
578.527	43529.23
578.725	43564.05
578.923	44409.86
579.121	43754.51
579.319	43834.38
579.516	43445.27
579.714	43365.4
579.912	43074.59
580.11	42894.36
580.308	43062.3
580.506	43062.3
580.704	42499.11
580.901	42615.84
581.099	43127.83
581.297	42574.88
581.495	42708
581.692	42886.17
581.89	42155.05
582.088	42241.06
582.285	42343.46
582.483	42470.43
582.681	41997.35
582.878	42245.16
583.076	41536.56
583.274	41940.01
583.471	41137.21
583.669	41198.65
583.866	41032.76
584.064	41190.45
584.262	40997.95
584.459	41604.14
584.657	40721.47
584.854	41245.75
585.052	40850.49
585.249	40877.11
585.447	41034.81
585.644	40707.13
585.841	40723.52
586.039	40979.51
586.236	39785.55
586.434	40502.34
586.631	40299.59
586.828	39877.71
587.026	40305.73
587.223	40326.21
587.42	39986.25
587.618	39865.42
587.815	39504.98
588.012	39781.45
588.21	39478.35
588.407	39586.89
588.604	39122.01
588.801	39326.8
588.999	39085.14
589.196	38904.92
589.393	39093.33
589.59	38753.37
589.787	38564.96
589.984	38671.45
590.182	38341.73
590.379	38429.79
590.576	38071.4
590.773	38341.73
590.97	38235.24
591.167	38225
591.364	37760.11
591.561	38179.94
591.758	37702.76
591.955	37850.22
592.152	37854.31
592.349	37424.24
592.546	37411.95
592.743	37454.96
592.94	36713.59
593.137	37553.26
593.334	37307.51
593.531	36609.15
593.727	37174.39
593.924	36525.18
594.121	36383.87
594.318	36435.07
594.515	36007.05
594.712	36756.6
594.908	36183.17
595.105	36396.16
595.302	35873.93
595.499	36201.6
595.696	35587.21
595.892	35724.43
596.089	35652.75
596.286	35656.84
596.482	35624.08
596.679	35675.27
596.876	35665.03
597.072	34964.63
597.269	35306.64
597.466	35204.24
597.662	35114.13
597.859	34663.58
598.055	34978.96
598.252	34813.08
598.448	34682.01
598.645	34864.28
598.841	34215.07
599.038	34407.58
599.234	34489.5
599.431	34215.07
599.627	33959.08
599.824	34509.98
600.02	33682.6
600.217	34321.57
600.413	33617.07
600.609	33748.14
600.806	33600.68
601.002	33801.38
601.198	33107.12
601.395	32861.37
601.591	32806.07
601.787	33424.56
601.984	32789.69
602.18	33238.19
602.376	32820.41
602.572	32789.69
602.769	32867.51
602.965	32527.55
603.161	32601.27
603.357	32548.03
603.553	32271.55
603.75	32064.71
603.946	31798.47
604.142	32072.9
604.338	31501.51
604.534	32259.26
604.73	31845.57
604.926	31472.84
605.122	31964.35
605.318	31612.1
605.514	31278.29
605.71	31444.17
605.906	31098.06
606.102	31409.36
606.298	31421.64
606.494	31182.03
606.69	31513.8
606.886	31157.46
607.082	30635.22
607.278	30981.33
607.474	30567.64
607.67	31233.23
607.866	30235.87
608.062	30760.15
608.257	30405.85
608.453	30420.19
608.649	30422.23
608.845	30403.8
609.041	30287.07
609.236	30328.03
609.432	30371.04
609.628	30414.04
609.824	30360.8
610.019	29910.24
610.215	29674.73
610.411	29887.71
610.606	29975.78
610.802	29885.67
610.998	29900
611.193	29652.2
611.389	29994.21
611.584	29594.86
611.78	29404.39
611.976	29521.13
612.171	29504.74
612.367	29586.66
612.562	29320.43
612.758	29142.25
612.953	29179.12
613.149	29676.77
613.344	28912.88
613.539	29408.49
613.735	29375.72
613.93	29281.52
614.126	29029.62
614.321	29312.24
614.517	28898.55
614.712	28949.74
614.907	28658.93
615.103	29121.77
615.298	28572.92
615.493	29146.35
615.688	28396.79
615.884	28808.44
616.079	28288.25
616.274	28900.59
616.47	28599.54
616.665	28312.83
616.86	28343.55
617.055	28370.17
617.25	28163.32
617.445	28513.53
617.641	28011.78
617.836	28183.8
618.031	27847.94
618.226	27997.44
618.421	27708.68
618.616	27868.42
618.811	27428.1
619.006	27895.04
619.201	27149.58
619.396	27401.48
619.591	26899.73
619.786	27364.62
619.981	27038.99
620.176	27284.75
620.371	26746.13
620.566	27053.33
620.761	26713.36
620.956	26428.7
621.151	26309.91
621.346	26178.84
621.541	25869.6
621.735	26307.87
621.93	25691.43
622.125	25728.29
622.32	25578.79
622.515	25672.99
622.709	25566.5
622.904	25476.39
623.099	25290.02
623.294	25247.02
623.488	25220.39
623.683	25242.92
623.878	24714.55
624.072	24655.15
624.267	24464.69
624.462	24282.42
624.656	24454.45
624.851	24278.33
625.046	23932.22
625.24	24085.82
625.435	23911.74
625.629	23819.58
625.824	23266.63
626.018	23375.17
626.213	23180.62
626.407	23342.41
626.602	22848.85
626.796	23139.66
626.991	22830.41
627.185	22842.7
627.38	22519.12
627.574	22263.13
627.768	22410.58
627.963	22226.26
628.157	22050.14
628.352	22205.78
628.546	21884.25
628.74	22125.91
628.935	21658.98
629.129	21706.08
629.323	21140.84
629.517	21355.88
629.712	21296.49
629.906	21372.26
630.1	20852.08
630.294	21189.99
630.489	20968.81
630.683	20870.51
630.877	20366.71
631.071	20387.19
631.265	20800.88
631.459	20268.41
631.653	20082.04
631.848	20211.06
632.042	20096.38
632.236	19926.39
632.43	19965.31
632.624	19834.24
632.818	19586.43
633.012	19582.34
633.206	19389.83
633.4	19367.3
633.594	19314.05
633.788	19246.47
633.982	19045.77
634.176	18990.47
634.369	18861.45
634.563	18896.27
634.757	18802.06
634.951	18673.04
635.145	18642.32
635.339	18785.68
635.533	18410.9
635.726	18288.02
635.92	18113.94
636.114	18189.72
636.308	18124.18
636.501	17886.62
636.695	17663.39
636.889	17636.77
637.083	17472.93
637.276	17589.66
637.47	17542.56
637.664	17440.16
637.857	17466.78
638.051	17339.81
638.244	16930.22
638.438	17092.01
638.632	16864.68
638.825	16815.53
639.019	16745.9
639.212	16504.24
639.406	16557.49
639.599	16580.01
639.793	16713.13
639.986	16090.55
640.18	16119.22
640.373	16317.87
640.567	15977.91
640.76	15949.24
640.954	15818.17
641.147	15650.24
641.34	15795.64
641.534	15465.92
641.727	15605.18
641.92	15721.91
642.114	15396.29
642.307	15181.25
642.5	15345.09
642.694	15011.27
642.887	15322.56
643.08	15068.61
643.273	15078.85
643.467	14853.58
643.66	14929.35
643.853	14783.95
644.046	14630.35
644.239	14855.62
644.432	14400.97
644.626	14566.86
644.819	14403.02
645.012	14370.26
645.205	14284.24
645.398	14093.78
645.591	14134.74
645.784	14355.92
645.977	14353.87
646.17	14093.78
646.363	13864.41
646.556	13653.47
646.749	13743.58
646.942	13794.78
647.135	13669.85
647.328	13487.58
647.521	13250.02
647.714	13313.5
647.907	13241.82
648.099	13448.67
648.292	13286.88
648.485	13045.22
648.678	12975.59
648.871	12928.49
649.064	12883.43
649.256	13037.03
649.449	12754.41
649.642	12701.16
649.835	12733.93
650.027	12512.75
650.22	12436.97
650.413	12555.76
650.605	12488.17
650.798	12428.78
650.991	12416.49
651.183	12336.62
651.376	12099.06
651.568	12086.77
651.761	12019.19
651.954	11699.7
652.146	12037.62
652.339	12004.85
652.531	11689.46
652.724	11726.33
652.916	11736.57
653.109	11732.47
653.301	11720.18
653.494	11671.03
653.686	11580.92
653.879	11642.36
654.071	11494.91
654.263	11171.33
654.456	11372.03
654.648	11191.81
654.84	11130.37
655.033	10999.3
655.225	11011.59
655.417	10980.87
655.61	10849.8
655.802	10911.24
655.994	10950.15
656.186	10845.7
656.379	10569.23
656.571	10616.33
656.763	10688.01
656.955	10518.03
657.148	10520.07
657.34	10274.32
657.532	10210.83
657.724	10057.23
657.916	10384.91
658.108	10288.65
658.3	10155.54
658.492	10178.06
658.684	10149.39
658.876	9930.26
659.068	9868.82
659.26	9784.85
659.452	10010.13
659.644	9860.63
659.836	9612.82
660.028	9856.53
660.22	9451.03
660.412	9569.82
660.604	9514.52
660.796	9600.54
660.988	9360.92
661.18	9401.88
661.372	9113.12
661.563	9258.53
661.755	9197.09
661.947	9305.63
662.139	9205.28
662.331	9031.2
662.522	9063.97
662.714	9072.16
662.906	9018.91
663.097	8801.83
663.289	8853.03
663.481	8726.05
663.673	8865.32
663.864	8683.05
664.056	8652.33
664.247	8697.38
664.439	8568.36
664.631	8736.29
664.822	8619.56
665.014	8590.89
665.205	8490.54
665.397	8617.51
665.588	8386.09
665.78	8205.87
665.971	8369.71
666.163	8205.87
666.354	8298.03
666.546	8183.34
666.737	8175.15
666.929	7974.45
667.12	8156.72
667.311	8080.94
667.503	8023.6
667.694	7855.67
667.885	7806.52
668.077	7888.43
668.268	7833.14
668.459	7818.8
668.651	7738.93
668.842	7884.34
669.033	7597.62
669.224	7663.16
669.416	7687.73
669.607	7624.25
669.798	7603.77
669.989	7716.4
670.18	7405.11
670.371	7349.82
670.563	7396.92
670.754	7423.55
670.945	7120.45
671.136	7421.5
671.327	7169.6
671.518	7327.29
671.709	7255.61
671.9	7241.28
672.091	7091.77
672.282	7091.77
672.473	6995.52
672.664	7120.45
672.855	7079.49
673.046	7036.48
673.237	6921.79
673.428	7095.87
673.619	6899.27
673.809	6893.12
674	6848.07
674.191	6907.46
674.382	6805.06
674.573	6817.35
674.764	6880.83
674.954	6843.97
675.145	6710.85
675.336	6448.71
675.527	6729.28
675.717	6768.2
675.908	6450.76
676.099	6712.9
676.289	6491.72
676.48	6497.86
676.671	6463.05
676.861	6565.45
677.052	6409.8
677.243	6522.44
677.433	6395.47
677.624	6284.87
677.814	6440.52
678.005	6315.59
678.195	6196.81
678.386	6366.79
678.576	6252.11
678.767	6389.32
678.957	6059.6
679.148	6145.61
679.338	6170.19
679.529	6170.19
679.719	6057.55
679.909	6143.56
680.1	6135.37
680.29	5969.49
680.481	6116.94
680.671	5992.02
680.861	5875.28
681.052	6065.74
681.242	5822.03
681.432	5975.63
681.622	5934.67
681.813	6006.35
682.003	5865.04
682.193	5934.67
682.383	5918.29
682.573	5631.57
682.764	5848.66
682.954	5637.72
683.144	5719.64
683.334	5652.05
683.524	5772.88
683.714	5672.53
683.904	5539.41
684.094	5520.98
684.284	5621.33
684.474	5463.64
684.664	5637.72
684.854	5469.78
685.044	5529.17
685.234	5467.74
685.424	5506.65
685.614	5371.48
685.804	5451.35
685.994	5555.8
686.184	5496.41
686.374	5351
686.564	5365.34
686.753	5328.47
686.943	5342.81
687.133	5316.19
687.323	5174.88
687.513	5273.18
687.702	5138.01
687.892	5185.12
688.082	5039.71
688.272	5152.35
688.461	5332.57
688.651	5242.46
688.841	5080.67
689.03	5023.33
689.22	4941.41
689.41	4986.46
689.599	4900.45
689.789	5037.66
689.979	4972.13
690.168	4818.53
690.358	4775.52
690.547	4765.28
690.737	4779.62
690.926	4847.2
691.116	4802.15
691.305	4853.34
691.495	4722.27
691.684	4728.42
691.874	4652.64
692.063	4732.51
692.252	4644.45
692.442	4689.51
692.631	4574.82
692.82	4497
693.01	4482.66
693.199	4415.08
693.388	4556.39
693.578	4376.17
693.767	4497
693.956	4365.93
694.146	4449.89
694.335	4312.68
694.524	4372.07
694.713	4447.85
694.902	4345.45
695.092	4322.92
695.281	4261.48
695.47	4118.12
695.659	4204.14
695.848	3991.15
696.037	4247.15
696.226	4238.95
696.415	4124.27
696.604	4109.93
696.793	4060.78
696.982	4271.72
697.171	4187.75
697.36	4132.46
697.549	4122.22
697.738	4134.51
697.927	3966.57
698.116	4058.73
698.305	4085.36
698.494	4073.07
698.683	3978.86
698.872	3995.25
699.061	3888.75
699.25	4060.78
699.438	3903.09
699.627	4036.21
699.816	3978.86
700.005	3815.02
700.193	3864.18
700.382	3831.41
700.571	3985.01
700.76	3802.74
700.948	3886.7
701.137	3774.07
701.326	3739.25
701.514	3784.3
701.703	3884.66
701.892	3751.54
702.08	3845.74
702.269	3569.27
702.457	3747.44
702.646	3835.5
702.834	3690.1
703.023	3700.34
703.212	3786.35
703.4	3743.35
703.589	3737.2
703.777	3683.95
703.965	3599.99
704.154	3673.71
704.342	3686
704.531	3587.7
704.719	3647.09
704.907	3690.1
705.096	3624.56
705.284	3526.26
705.472	3626.61
705.661	3724.91
705.849	3620.47
706.037	3622.52
706.226	3518.07
706.414	3552.88
706.602	3513.97
706.79	3583.6
706.979	3501.69
707.167	3632.76
707.355	3440.25
707.543	3561.08
707.731	3460.73
707.919	3425.91
708.107	3569.27
708.296	3606.13
708.484	3434.1
708.672	3509.88
708.86	3571.32
709.048	3522.16
709.236	3559.03
709.424	3475.06
709.612	3352.18
709.8	3581.56
709.988	3374.71
710.176	3503.73
710.364	3366.52
710.551	3333.75
710.739	3419.77
710.927	3315.32
711.115	3354.23
711.303	3462.77
711.491	3462.77
711.679	3348.09
711.866	3432.05
712.054	3339.9
712.242	3229.31
712.43	3405.43
712.617	3292.79
712.805	3319.42
712.993	3257.98
713.181	3257.98
713.368	3358.33
713.556	3456.63
713.744	3270.26
713.931	3413.62
714.119	3225.21
714.306	3384.95
714.494	3389.05
714.682	3298.94
714.869	3372.66
715.057	3294.84
715.244	3315.32
715.432	3401.33
715.619	3194.49
715.807	3419.77
715.994	3405.43
716.182	3206.78
716.369	3196.54
716.556	3292.79
716.744	3278.46
716.931	3149.43
717.119	3274.36
717.306	3280.5
717.493	3288.7
717.681	3196.54
717.868	3491.45
718.055	3219.07
718.242	3270.26
718.43	3260.02
718.617	3231.35
718.804	3198.59
718.991	3192.44
719.179	3212.92
719.366	3157.63
719.553	3174.01
719.74	3133.05
719.927	3067.52
720.114	3157.63
720.301	3198.59
720.488	3073.66
720.676	3098.24
720.863	3198.59
721.05	3151.48
721.237	3192.44
721.424	3169.91
721.611	3088
721.798	3044.99
721.985	3229.31
722.172	3131
722.358	3067.52
722.545	3176.06
722.732	3049.08
722.919	3094.14
723.106	3069.56
723.293	3122.81
723.48	3155.58
723.667	3090.04
723.853	3106.43
724.04	3006.08
724.227	3131
724.414	3106.43
724.6	3133.05
724.787	3096.19
724.974	3120.76
725.161	3126.91
725.347	3079.8
725.534	2915.97
725.72	3094.14
725.907	3047.04
726.094	3147.39
726.28	3085.95
726.467	2924.16
726.653	2967.17
726.84	2946.69
727.027	3110.52
727.213	3081.85
727.4	3075.71
727.586	2985.6
727.773	2895.49
727.959	3001.98
728.145	3030.65
728.332	3030.65
728.518	3024.51
728.705	2889.34
728.891	2815.62
729.077	3094.14
729.264	2901.63
729.45	2920.06
729.636	3001.98
729.823	2926.21
730.009	3049.08
730.195	3190.39
730.382	3040.89
730.568	2924.16
730.754	3016.32
730.94	3034.75
731.126	2987.65
731.313	2981.5
731.499	2993.79
731.685	2936.45
731.871	2956.93
732.057	2924.16
732.243	2934.4
732.429	2875.01
732.615	2942.59
732.801	2993.79
732.987	2999.93
733.173	2877.05
733.359	2977.41
733.545	2877.05
733.731	3059.32
733.917	2842.24
734.103	2823.81
734.289	2989.69
734.475	2952.83
734.661	2983.55
734.847	2909.82
735.033	2791.04
735.219	2678.4
735.404	2799.23
735.59	2768.51
735.776	2834.05
735.962	2883.2
736.148	2901.63
736.333	2879.1
736.519	2928.25
736.705	2725.51
736.89	2766.46
737.076	2809.47
737.262	2858.62
737.447	2756.22
737.633	2739.84
737.819	2911.87
738.004	2741.89
738.19	2762.37
738.375	2827.9
738.561	2770.56
738.747	2705.03
738.932	2651.78
739.118	2729.6
739.303	2684.55
739.489	2815.62
739.674	2657.92
739.859	2698.88
740.045	2668.16
740.23	2776.7
740.416	2668.16
740.601	2649.73
740.786	2561.67
740.972	2688.64
741.157	2692.74
741.342	2567.81
741.528	2653.83
741.713	2582.15
741.898	2616.96
742.084	2561.67
742.269	2559.62
742.454	2672.26
742.639	2561.67
742.824	2494.08
743.01	2541.19
743.195	2602.63
743.38	2516.61
743.565	2539.14
743.75	2487.94
743.935	2522.76
744.12	2479.75
744.305	2494.08
744.49	2512.52
744.675	2492.04
744.86	2492.04
745.045	2418.31
745.23	2473.6
745.415	2434.69
745.6	2481.8
745.785	2442.89
745.97	2356.87
746.155	2500.23
746.34	2338.44
746.525	2315.91
746.71	2350.73
746.895	2344.58
747.079	2272.9
747.264	2369.16
747.449	2272.9
747.634	2197.13
747.819	2233.99
748.003	2264.71
748.188	2225.8
748.373	2141.83
748.557	2135.69
748.742	2205.32
748.927	2158.22
749.111	2133.64
749.296	2170.51
749.481	2150.03
749.665	2152.07
749.85	2125.45
750.034	2201.23
750.219	2143.88
750.404	2092.68
750.588	2098.83
750.773	2002.57
750.957	2057.87
751.141	2098.83
751.326	2002.57
751.51	2023.05
751.695	2023.05
751.879	2018.96
752.064	2092.68
752.248	1908.37
752.432	1937.04
752.617	1875.6
752.801	1932.94
752.985	1957.52
753.17	1812.11
753.354	1810.06
753.538	1881.74
753.722	1867.41
753.907	1857.17
754.091	1736.34
754.275	1767.06
754.459	1812.11
754.643	1685.14
754.828	1828.49
755.012	1715.86
755.196	1707.66
755.38	1736.34
755.564	1724.05
755.748	1654.42
755.932	1785.49
756.116	1640.08
756.3	1681.04
756.484	1709.71
756.668	1609.36
756.852	1527.44
757.036	1592.98
757.22	1619.6
757.404	1554.07
757.588	1535.64
757.772	1609.36
757.956	1572.5
758.14	1474.2
758.323	1504.92
758.507	1466
758.691	1443.48
758.875	1545.88
759.059	1490.58
759.242	1578.64
759.426	1506.96
759.61	1470.1
759.794	1455.76
759.977	1433.24
760.161	1537.68
760.345	1336.98
760.528	1529.49
760.712	1498.77
760.895	1402.52
761.079	1302.17
761.263	1373.85
761.446	1425.04
761.63	1418.9
761.813	1457.81
761.997	1349.27
762.18	1320.6
762.364	1400.47
762.547	1328.79
762.731	1363.61
762.914	1341.08
763.098	1330.84
763.281	1302.17
763.464	1304.21
763.648	1263.26
763.831	1320.6
764.015	1279.64
764.198	1279.64
764.381	1318.55
764.564	1308.31
764.748	1316.5
764.931	1271.45
765.114	1318.55
765.297	1228.44
765.481	1222.3
765.664	1189.53
765.847	1195.67
766.03	1240.73
766.213	1148.57
766.397	1183.38
766.58	1150.62
766.763	1154.71
766.946	1091.23
767.129	1121.95
767.312	1183.38
767.495	1212.06
767.678	1257.11
767.861	1302.17
768.044	1250.97
768.227	1212.06
768.41	1160.86
768.593	1203.86
768.776	1224.34
768.959	1199.77
769.142	1197.72
769.324	1128.09
769.507	1076.89
769.69	1072.79
769.873	1105.56
770.056	1138.33
770.239	1183.38
770.421	1132.19
770.604	962.2
770.787	1083.03
770.97	1130.14
771.152	1001.12
771.335	1152.67
771.518	1050.27
771.7	1060.51
771.883	1083.03
772.066	1037.98
772.248	1033.88
772.431	1052.31
772.613	1023.64
772.796	994.97
772.978	990.88
773.161	1040.03
773.343	968.35
773.526	1031.83
773.708	951.96
773.891	1035.93
774.073	962.2
774.256	925.34
774.438	984.73
774.621	951.96
774.803	884.38
774.985	882.33
775.168	884.38
775.35	970.4
775.532	964.25
775.715	915.1
775.897	921.24
776.079	937.63
776.261	906.91
776.444	872.09
776.626	888.48
776.808	861.85
776.99	890.53
777.173	814.75
777.355	833.18
777.537	886.43
777.719	896.67
777.901	833.18
778.083	814.75
778.265	724.64
778.447	837.28
778.629	814.75
778.811	804.51
778.993	677.54
779.175	810.65
779.357	728.74
779.539	779.93
779.721	773.79
779.903	792.22
780.085	808.61
780.267	775.84
780.449	702.11
780.631	736.93
780.812	704.16
780.994	741.02
781.176	741.02
781.358	669.34
781.54	720.54
781.721	693.92
781.903	681.63
782.085	675.49
782.267	732.83
782.448	655.01
782.63	661.15
782.812	667.3
782.993	595.62
783.175	724.64
783.357	679.58
783.538	749.22
783.72	650.91
783.901	704.16
784.083	708.26
784.264	636.58
784.446	718.5
784.627	499.36
784.809	624.29
784.99	566.95
785.172	540.32
785.353	661.15
785.535	566.95
785.716	581.28
785.897	612
786.079	542.37
786.26	495.27
786.441	517.79
786.623	566.95
786.804	587.43
786.985	536.23
787.167	603.81
787.348	540.32
787.529	573.09
787.71	515.75
787.891	478.88
788.073	491.17
788.254	517.79
788.435	517.79
788.616	525.99
788.797	505.51
788.978	478.88
789.159	378.53
789.34	513.7
789.522	444.07
789.703	521.89
789.884	548.51
790.065	495.27
790.246	419.49
790.427	509.6
790.607	458.4
790.788	534.18
790.969	460.45
791.15	452.26
791.331	411.3
791.512	454.31
791.693	401.06
791.874	476.84
792.054	431.78
792.235	421.54
792.416	466.6
792.597	347.81
792.778	439.97
792.958	388.77
793.139	374.44
793.32	458.4
793.5	485.03
793.681	343.72
793.862	425.64
794.042	386.72
794.223	374.44
794.404	433.83
794.584	468.64
794.765	513.7
794.945	376.48
795.126	388.77
795.306	356.01
795.487	401.06
795.667	437.92
795.848	409.25
796.028	362.15
796.209	403.11
796.389	341.67
796.57	415.4
796.75	333.48
796.93	411.3
797.111	429.73
797.291	349.86
797.471	321.19
797.652	347.81
797.832	392.87
798.012	384.68
798.192	358.05
798.373	358.05
798.553	370.34
798.733	317.09
798.913	372.39
799.093	300.71
799.274	345.77
799.454	360.1
799.634	296.61
799.814	353.96
799.994	358.05
800.174	327.33
800.354	319.14
800.534	327.33
800.714	255.65
800.894	214.7
801.074	284.33
801.254	335.53
801.434	294.57
801.614	364.2
801.794	315.05
801.974	734.88
802.154	265.89
802.334	341.67
802.514	239.27
802.693	288.42
802.873	243.37
803.053	321.19
803.233	243.37
803.413	218.79
803.592	231.08
803.772	302.76
803.952	251.56
804.131	284.33
804.311	253.61
804.491	286.37
804.67	296.61
804.85	247.46
805.03	282.28
805.209	317.09
805.389	306.85
805.568	261.8
805.748	265.89
805.928	298.66
806.107	282.28
806.287	300.71
806.466	249.51
806.646	308.9
806.825	251.56
807.004	288.42
807.184	306.85
807.363	214.7
807.543	286.37
807.722	286.37
807.901	325.29
808.081	233.13
808.26	194.22
808.439	308.9
808.619	208.55
808.798	218.79
808.977	196.26
809.156	214.7
809.336	208.55
809.515	284.33
809.694	239.27
809.873	233.13
810.052	274.09
810.231	208.55
810.411	161.45
810.59	308.9
810.769	220.84
810.948	183.98
811.127	151.21
811.306	292.52
811.485	218.79
811.664	265.89
811.843	177.83
812.022	267.94
812.201	202.41
812.38	239.27
812.559	253.61
812.737	208.55
812.916	173.74
813.095	245.41
813.274	241.32
813.453	206.5
813.632	233.13
813.811	136.87
813.989	220.84
814.168	259.75
814.347	116.39
814.526	173.74
814.704	163.5
814.883	190.12
815.062	196.26
815.24	169.64
815.419	210.6
815.598	175.78
815.776	161.45
815.955	269.99
816.133	212.65
816.312	93.87
816.49	114.34
816.669	249.51
816.847	233.13
817.026	196.26
817.204	173.74
817.383	175.78
817.561	151.21
817.74	229.03
817.918	159.4
818.097	177.83
818.275	161.45
818.453	149.16
818.632	155.3
818.81	183.98
818.988	134.82
819.167	122.54
819.345	167.59
819.523	235.18
819.701	208.55
819.879	167.59
820.058	140.97
820.236	122.54
820.414	138.92
820.592	190.12
820.77	140.97
820.948	134.82
821.127	171.69
821.305	200.36
821.483	173.74
821.661	194.22
821.839	198.31
822.017	145.06
822.195	145.06
822.373	151.21
822.551	93.87
822.729	126.63
822.907	136.87
823.085	171.69
823.262	75.43
823.44	143.02
823.618	151.21
823.796	124.58
823.974	73.39
824.152	136.87
824.329	93.87
824.507	143.02
824.685	165.54
824.863	104.11
825.04	93.87
825.218	153.26
825.396	149.16
825.574	132.78
825.751	136.87
825.929	165.54
826.107	128.68
826.284	147.11
826.462	175.78
826.639	145.06
826.817	151.21
826.994	243.37
827.172	124.58
827.349	218.79
827.527	151.21
827.704	212.65
827.882	122.54
828.059	100.01
828.237	40.62
828.414	122.54
828.591	-10.58
828.769	181.93
828.946	102.06
829.124	190.12
829.301	126.63
829.478	140.97
829.655	122.54
829.833	116.39
830.01	89.77
830.187	89.77
830.364	124.58
830.542	206.5
830.719	134.82
830.896	118.44
831.073	116.39
831.25	147.11
831.427	118.44
831.604	81.58
831.782	57
831.959	26.28
832.136	102.06
832.313	120.49
832.49	97.96
832.667	118.44
832.844	30.38
833.021	73.39
833.198	132.78
833.374	110.25
833.551	114.34
833.728	104.11
833.905	130.73
834.082	46.76
834.259	159.4
834.436	116.39
834.612	110.25
834.789	149.16
834.966	179.88
835.143	63.15
835.319	118.44
835.496	124.58
835.673	65.19
835.85	110.25
836.026	32.43
836.203	116.39
836.38	81.58
836.556	93.87
836.733	120.49
836.909	83.63
837.086	59.05
837.262	128.68
837.439	38.57
837.616	161.45
837.792	128.68
837.968	77.48
838.145	28.33
838.321	-22.87
838.498	122.54
838.674	24.23
838.851	112.3
839.027	9.9
839.203	46.76
839.38	57
839.556	87.72
839.732	95.91
839.909	81.58
840.085	122.54
840.261	75.43
840.437	-16.73
840.614	79.53
840.79	87.72
840.966	65.19
841.142	79.53
841.318	104.11
841.494	114.34
841.671	124.58
841.847	57
842.023	83.63
842.199	93.87
842.375	106.15
842.551	130.73
842.727	40.62
842.903	87.72
843.079	44.71
843.255	104.11
843.431	93.87
843.607	59.05
843.783	9.9
843.959	118.44
844.134	36.52
844.31	89.77
844.486	91.82
844.662	32.43
844.838	30.38
845.013	75.43
845.189	85.67
845.365	77.48
845.541	134.82
845.716	124.58
845.892	7.85
846.068	75.43
846.244	44.71
846.419	77.48
846.595	61.1
846.77	24.23
846.946	97.96
847.122	54.95
847.297	91.82
847.473	120.49
847.648	-39.25
847.824	85.67
847.999	20.14
848.175	-16.73
848.35	79.53
848.526	114.34
848.701	102.06
848.876	67.24
849.052	112.3
849.227	100.01
849.403	52.91
849.578	83.63
849.753	-47.44
849.929	32.43
850.104	13.99
850.279	79.53
850.454	83.63
850.63	34.47
850.805	61.1
850.98	75.43
851.155	50.86
851.33	52.91
851.505	81.58
851.681	13.99
851.856	69.29
852.031	83.63
852.206	91.82
852.381	-6.49
852.556	126.63
852.731	93.87
852.906	95.91
853.081	61.1
853.256	26.28
853.431	38.57
853.606	32.43
853.781	13.99
853.956	69.29
854.131	52.91
854.305	24.23
854.48	32.43
854.655	-2.39
854.83	32.43
855.005	-24.92
855.18	83.63
855.354	48.81
855.529	75.43
855.704	102.06
855.879	50.86
856.053	-6.49
856.228	34.47
856.403	50.86
856.577	-10.58
856.752	13.99
856.926	24.23
857.101	100.01
857.276	-49.49
857.45	48.81
857.625	9.9
857.799	-18.77
857.974	85.67
858.148	-61.78
858.323	26.28
858.497	24.23
858.672	87.72
858.846	-18.77
859.02	118.44
859.195	-10.58
859.369	138.92
859.543	-20.82
859.718	71.34
859.892	100.01
860.066	-8.53
860.241	30.38
860.415	32.43
860.589	63.15
860.763	63.15
860.938	3.75
861.112	57
861.286	83.63
861.46	26.28
861.634	77.48
861.808	-0.34
861.982	-35.16
862.157	42.67
862.331	83.63
862.505	-0.34
862.679	112.3
862.853	22.19
863.027	40.62
863.201	112.3
863.375	114.34
863.549	50.86
863.722	18.09
863.896	30.38
864.07	13.99
864.244	59.05
864.418	83.63
864.592	69.29
864.766	44.71
864.939	67.24
865.113	-16.73
865.287	100.01
865.461	3.75
865.634	32.43
865.808	32.43
865.982	-41.3
866.156	-8.53
866.329	26.28
866.503	20.14
866.676	1.71
866.85	61.1
867.024	95.91
867.197	79.53
867.371	48.81
867.544	24.23
867.718	40.62
867.891	26.28
868.065	22.19
868.238	34.47
868.412	91.82
868.585	28.33
868.759	65.19
868.932	16.04
869.105	44.71
869.279	-22.87
869.452	-10.58
869.625	36.52
869.799	75.43
869.972	16.04
870.145	36.52
870.319	28.33
870.492	-26.96
870.665	5.8
870.838	11.95
871.011	-4.44
871.185	-2.39
871.358	16.04
871.531	65.19
871.704	22.19
871.877	83.63
872.05	30.38
872.223	18.09
872.396	13.99
872.569	38.57
872.742	28.33
872.915	-37.2
873.088	-22.87
873.261	46.76
873.434	1.71
873.607	-6.49
873.78	40.62
873.953	3.75
874.126	44.71
874.299	3.75
874.471	-76.12
874.644	-8.53
874.817	34.47
874.99	-6.49
875.163	-6.49
875.335	-10.58
875.508	-12.63
875.681	134.82
875.853	-2.39
876.026	52.91
876.199	75.43
876.371	44.71
876.544	-14.68
876.717	32.43
876.889	3.75
877.062	34.47
877.234	34.47
877.407	7.85
877.579	24.23
877.752	42.67
877.924	100.01
878.097	71.34
878.269	42.67
878.442	24.23
878.614	61.1
878.786	22.19
878.959	61.1
879.131	-31.06
879.303	-6.49
879.476	1.71
879.648	52.91
879.82	-0.34
879.993	16.04
880.165	54.95
880.337	-6.49
880.509	65.19
880.681	34.47
880.854	-63.83
881.026	52.91
881.198	130.73
881.37	42.67
881.542	108.2
881.714	-12.63
881.886	-2.39
882.058	9.9
882.23	46.76
882.402	46.76
882.574	16.04
882.746	138.92
882.918	40.62
883.09	54.95
883.262	-39.25
883.434	34.47
883.606	-43.35
883.778	18.09
883.95	83.63
884.122	38.57
884.293	1.71
884.465	-31.06
884.637	22.19
884.809	-20.82
884.98	48.81
885.152	69.29
885.324	79.53
885.496	42.67
885.667	-12.63
885.839	24.23
886.011	59.05
886.182	36.52
886.354	24.23
886.525	44.71
886.697	42.67
886.869	9.9
887.04	13.99
887.212	48.81
887.383	120.49
887.555	57
887.726	65.19
887.897	3.75
888.069	22.19
888.24	40.62
888.412	83.63
888.583	61.1
888.754	81.58
888.926	24.23
889.097	34.47
889.268	18.09
889.44	97.96
889.611	36.52
889.782	22.19
889.953	24.23
890.125	61.1
890.296	11.95
890.467	57
890.638	16.04
890.809	-26.96
890.98	52.91
891.151	48.81
891.323	52.91
891.494	61.1
891.665	89.77
891.836	-10.58
892.007	54.95
892.178	57
892.349	-20.82
892.52	83.63
892.691	32.43
892.862	24.23
893.032	30.38
893.203	-20.82
893.374	44.71
893.545	67.24
893.716	67.24
893.887	1.71
894.057	-24.92
894.228	44.71
894.399	-55.64
894.57	36.52
894.74	-22.87
894.911	36.52
895.082	18.09
895.253	61.1
895.423	40.62
895.594	16.04
895.764	63.15
895.935	54.95
896.106	-8.53
896.276	-22.87
896.447	18.09
896.617	-45.4
896.788	28.33
896.958	3.75
897.129	61.1
897.299	34.47
897.47	7.85
897.64	38.57
897.81	28.33
897.981	-2.39
898.151	-29.01
898.322	-10.58
898.492	63.15
898.662	-55.64
898.832	71.34
899.003	52.91
899.173	75.43
899.343	9.9
899.513	-8.53
