Data from USB4F104151__73__12-27-48-611.txt Node

Date: Fri Mar 14 12:27:48 EDT 2025
User: louis
Spectrometer: USB4F10415
Trigger mode: 4
Integration Time (sec): 2.000000E-2
Scans to average: 1
Electric dark correction enabled: true
Nonlinearity correction enabled: false
Boxcar width: 0
XAxis mode: Wavelengths
Number of Pixels in Spectrum: 3648
>>>>>Begin Spectral Data<<<<<
178.204	-45.4
178.424	-45.4
178.644	-45.4
178.864	-72.02
179.084	-96.6
179.304	5.8
179.524	13.99
179.744	-16.73
179.964	75.43
180.184	-18.77
180.404	-26.96
180.624	-45.4
180.844	36.52
181.064	-59.73
181.283	-6.49
181.503	3.75
181.723	38.57
181.943	34.47
182.163	106.15
182.383	16.04
182.602	36.52
182.822	22.19
183.042	-18.77
183.262	-80.21
183.482	40.62
183.701	7.85
183.921	18.09
184.141	32.43
184.361	81.58
184.58	30.38
184.8	36.52
185.02	26.28
185.239	52.91
185.459	3.75
185.679	59.05
185.898	30.38
186.118	65.19
186.338	16.04
186.557	108.2
186.777	26.28
186.997	57
187.216	48.81
187.436	54.95
187.655	11.95
187.875	16.04
188.095	30.38
188.314	34.47
188.534	65.19
188.753	-6.49
188.973	63.15
189.192	48.81
189.412	22.19
189.631	59.05
189.851	-6.49
190.07	30.38
190.29	-0.34
190.509	-24.92
190.729	110.25
190.948	75.43
191.168	124.58
191.387	26.28
191.607	-6.49
191.826	5.8
192.045	28.33
192.265	28.33
192.484	42.67
192.704	24.23
192.923	-35.16
193.142	108.2
193.362	-22.87
193.581	48.81
193.8	11.95
194.02	87.72
194.239	3.75
194.458	52.91
194.678	-53.59
194.897	83.63
195.116	-6.49
195.335	30.38
195.555	63.15
195.774	20.14
195.993	13.99
196.212	-6.49
196.432	57
196.651	-59.73
196.87	13.99
197.089	52.91
197.308	7.85
197.528	34.47
197.747	-53.59
197.966	61.1
198.185	26.28
198.404	52.91
198.623	20.14
198.842	1.71
199.062	100.01
199.281	3.75
199.5	-35.16
199.719	36.52
199.938	116.39
200.157	93.87
200.376	-33.11
200.595	75.43
200.814	20.14
201.033	7.85
201.252	71.34
201.471	-2.39
201.69	30.38
201.909	3.75
202.128	59.05
202.347	42.67
202.566	26.28
202.785	42.67
203.004	28.33
203.223	24.23
203.442	-2.39
203.661	63.15
203.879	-24.92
204.098	46.76
204.317	24.23
204.536	-37.2
204.755	-4.44
204.974	77.48
205.193	9.9
205.411	63.15
205.63	-2.39
205.849	16.04
206.068	38.57
206.287	26.28
206.505	63.15
206.724	36.52
206.943	32.43
207.162	-14.68
207.381	87.72
207.599	11.95
207.818	7.85
208.037	20.14
208.255	-29.01
208.474	24.23
208.693	48.81
208.911	42.67
209.13	48.81
209.349	34.47
209.567	-10.58
209.786	1.71
210.005	63.15
210.223	54.95
210.442	5.8
210.661	3.75
210.879	11.95
211.098	54.95
211.316	24.23
211.535	79.53
211.753	26.28
211.972	65.19
212.191	-18.77
212.409	13.99
212.628	54.95
212.846	24.23
213.065	50.86
213.283	63.15
213.502	36.52
213.72	9.9
213.938	50.86
214.157	42.67
214.375	-45.4
214.594	-14.68
214.812	59.05
215.031	34.47
215.249	44.71
215.467	-14.68
215.686	-0.34
215.904	138.92
216.122	79.53
216.341	57
216.559	30.38
216.778	34.47
216.996	36.52
217.214	67.24
217.432	-47.44
217.651	20.14
217.869	28.33
218.087	130.73
218.306	-29.01
218.524	-33.11
218.742	20.14
218.96	36.52
219.179	-22.87
219.397	34.47
219.615	87.72
219.833	-39.25
220.051	3.75
220.27	93.87
220.488	54.95
220.706	50.86
220.924	104.11
221.142	132.78
221.36	-12.63
221.578	-4.44
221.796	36.52
222.015	46.76
222.233	-26.96
222.451	102.06
222.669	13.99
222.887	-12.63
223.105	13.99
223.323	26.28
223.541	-20.82
223.759	-76.12
223.977	46.76
224.195	65.19
224.413	-31.06
224.631	83.63
224.849	61.1
225.067	20.14
225.285	-2.39
225.503	-12.63
225.721	93.87
225.939	32.43
226.157	71.34
226.375	83.63
226.592	36.52
226.81	1.71
227.028	34.47
227.246	110.25
227.464	-4.44
227.682	89.77
227.9	77.48
228.117	65.19
228.335	44.71
228.553	59.05
228.771	24.23
228.989	-4.44
229.206	-0.34
229.424	28.33
229.642	22.19
229.86	30.38
230.077	28.33
230.295	91.82
230.513	-12.63
230.731	130.73
230.948	13.99
231.166	93.87
231.384	59.05
231.601	71.34
231.819	20.14
232.037	36.52
232.254	-24.92
232.472	50.86
232.689	-26.96
232.907	38.57
233.125	30.38
233.342	-14.68
233.56	-10.58
233.777	1.71
233.995	16.04
234.213	73.39
234.43	-16.73
234.648	54.95
234.865	46.76
235.083	46.76
235.3	30.38
235.518	26.28
235.735	20.14
235.953	73.39
236.17	-29.01
236.388	77.48
236.605	32.43
236.822	63.15
237.04	36.52
237.257	73.39
237.475	-29.01
237.692	61.1
237.909	-8.53
238.127	28.33
238.344	34.47
238.562	71.34
238.779	-16.73
238.996	40.62
239.214	42.67
239.431	44.71
239.648	89.77
239.865	79.53
240.083	28.33
240.3	-24.92
240.517	22.19
240.735	59.05
240.952	32.43
241.169	42.67
241.386	-10.58
241.603	13.99
241.821	-10.58
242.038	3.75
242.255	65.19
242.472	59.05
242.689	26.28
242.907	34.47
243.124	7.85
243.341	52.91
243.558	63.15
243.775	40.62
243.992	-12.63
244.209	50.86
244.426	75.43
244.643	38.57
244.86	-16.73
245.078	57
245.295	20.14
245.512	114.34
245.729	63.15
245.946	44.71
246.163	52.91
246.38	122.54
246.597	-24.92
246.814	69.29
247.031	20.14
247.248	42.67
247.464	83.63
247.681	44.71
247.898	44.71
248.115	106.15
248.332	-4.44
248.549	42.67
248.766	69.29
248.983	34.47
249.2	36.52
249.417	40.62
249.633	3.75
249.85	32.43
250.067	-12.63
250.284	34.47
250.501	75.43
250.717	118.44
250.934	-49.49
251.151	18.09
251.368	54.95
251.585	65.19
251.801	77.48
252.018	22.19
252.235	11.95
252.451	24.23
252.668	7.85
252.885	106.15
253.102	65.19
253.318	7.85
253.535	-18.77
253.752	-18.77
253.968	54.95
254.185	22.19
254.401	-20.82
254.618	36.52
254.835	-37.2
255.051	48.81
255.268	91.82
255.484	13.99
255.701	93.87
255.917	54.95
256.134	73.39
256.351	24.23
256.567	1.71
256.784	48.81
257	3.75
257.217	34.47
257.433	57
257.65	97.96
257.866	24.23
258.082	59.05
258.299	54.95
258.515	18.09
258.732	-18.77
258.948	59.05
259.165	32.43
259.381	5.8
259.597	22.19
259.814	-4.44
260.03	32.43
260.246	89.77
260.463	69.29
260.679	16.04
260.895	-2.39
261.112	75.43
261.328	102.06
261.544	30.38
261.761	48.81
261.977	-0.34
262.193	11.95
262.409	28.33
262.626	18.09
262.842	-16.73
263.058	16.04
263.274	24.23
263.49	-26.96
263.707	42.67
263.923	34.47
264.139	7.85
264.355	26.28
264.571	122.54
264.787	57
265.004	46.76
265.22	18.09
265.436	48.81
265.652	63.15
265.868	-0.34
266.084	3.75
266.3	102.06
266.516	3.75
266.732	85.67
266.948	11.95
267.164	42.67
267.38	71.34
267.596	65.19
267.812	71.34
268.028	67.24
268.244	79.53
268.46	81.58
268.676	77.48
268.892	77.48
269.108	9.9
269.324	61.1
269.54	13.99
269.756	79.53
269.972	1.71
270.188	83.63
270.403	18.09
270.619	13.99
270.835	28.33
271.051	-4.44
271.267	32.43
271.483	26.28
271.698	1.71
271.914	67.24
272.13	-33.11
272.346	18.09
272.562	-24.92
272.777	-10.58
272.993	-69.97
273.209	54.95
273.425	71.34
273.64	-0.34
273.856	75.43
274.072	54.95
274.287	-0.34
274.503	36.52
274.719	-22.87
274.934	-4.44
275.15	46.76
275.366	-35.16
275.581	-45.4
275.797	44.71
276.012	57
276.228	61.1
276.444	91.82
276.659	24.23
276.875	40.62
277.09	79.53
277.306	-0.34
277.521	65.19
277.737	-0.34
277.952	28.33
278.168	11.95
278.383	20.14
278.599	77.48
278.814	59.05
279.03	22.19
279.245	18.09
279.461	-0.34
279.676	52.91
279.892	65.19
280.107	95.91
280.322	-33.11
280.538	28.33
280.753	79.53
280.969	38.57
281.184	81.58
281.399	42.67
281.615	44.71
281.83	52.91
282.045	-22.87
282.26	-35.16
282.476	-51.54
282.691	48.81
282.906	54.95
283.122	36.52
283.337	-2.39
283.552	32.43
283.767	-16.73
283.983	-14.68
284.198	61.1
284.413	26.28
284.628	42.67
284.843	36.52
285.058	40.62
285.274	13.99
285.489	-18.77
285.704	48.81
285.919	63.15
286.134	9.9
286.349	-33.11
286.564	173.74
286.779	73.39
286.995	59.05
287.21	-53.59
287.425	61.1
287.64	-24.92
287.855	63.15
288.07	7.85
288.285	20.14
288.5	61.1
288.715	85.67
288.93	132.78
289.145	30.38
289.36	22.19
289.575	44.71
289.79	48.81
290.004	46.76
290.219	30.38
290.434	13.99
290.649	7.85
290.864	32.43
291.079	-0.34
291.294	93.87
291.509	9.9
291.724	-31.06
291.938	59.05
292.153	42.67
292.368	32.43
292.583	-33.11
292.798	44.71
293.012	59.05
293.227	26.28
293.442	-2.39
293.657	32.43
293.871	89.77
294.086	44.71
294.301	73.39
294.516	20.14
294.73	83.63
294.945	-45.4
295.16	54.95
295.374	38.57
295.589	22.19
295.804	28.33
296.018	85.67
296.233	95.91
296.447	-4.44
296.662	20.14
296.877	67.24
297.091	54.95
297.306	106.15
297.52	-49.49
297.735	32.43
297.949	7.85
298.164	120.49
298.378	57
298.593	93.87
298.807	46.76
299.022	-6.49
299.236	102.06
299.451	46.76
299.665	28.33
299.88	-22.87
300.094	24.23
300.309	54.95
300.523	28.33
300.737	42.67
300.952	69.29
301.166	91.82
301.381	46.76
301.595	20.14
301.809	71.34
302.024	38.57
302.238	-88.4
302.452	69.29
302.667	77.48
302.881	-33.11
303.095	57
303.309	71.34
303.524	5.8
303.738	3.75
303.952	-16.73
304.166	77.48
304.381	-18.77
304.595	24.23
304.809	42.67
305.023	42.67
305.237	52.91
305.452	44.71
305.666	26.28
305.88	38.57
306.094	13.99
306.308	32.43
306.522	81.58
306.736	-0.34
306.95	-2.39
307.164	36.52
307.379	67.24
307.593	-8.53
307.807	24.23
308.021	65.19
308.235	11.95
308.449	3.75
308.663	38.57
308.877	85.67
309.091	-24.92
309.305	36.52
309.519	-24.92
309.733	7.85
309.947	-8.53
310.161	122.54
310.374	-20.82
310.588	5.8
310.802	-10.58
311.016	54.95
311.23	20.14
311.444	75.43
311.658	97.96
311.872	48.81
312.085	-45.4
312.299	16.04
312.513	140.97
312.727	5.8
312.941	32.43
313.154	52.91
313.368	1.71
313.582	34.47
313.796	7.85
314.009	46.76
314.223	-10.58
314.437	7.85
314.651	42.67
314.864	69.29
315.078	89.77
315.292	48.81
315.505	-67.92
315.719	32.43
315.933	18.09
316.146	26.28
316.36	52.91
316.573	36.52
316.787	13.99
317.001	38.57
317.214	36.52
317.428	54.95
317.641	32.43
317.855	20.14
318.068	32.43
318.282	42.67
318.495	77.48
318.709	16.04
318.922	3.75
319.136	65.19
319.349	24.23
319.563	16.04
319.776	67.24
319.99	34.47
320.203	13.99
320.417	38.57
320.63	118.44
320.843	91.82
321.057	48.81
321.27	-16.73
321.483	22.19
321.697	61.1
321.91	16.04
322.124	48.81
322.337	34.47
322.55	-55.64
322.763	50.86
322.977	118.44
323.19	28.33
323.403	30.38
323.617	50.86
323.83	-2.39
324.043	-0.34
324.256	3.75
324.469	11.95
324.683	36.52
324.896	57
325.109	71.34
325.322	24.23
325.535	20.14
325.748	-6.49
325.962	26.28
326.175	54.95
326.388	97.96
326.601	106.15
326.814	75.43
327.027	46.76
327.24	26.28
327.453	-37.2
327.666	69.29
327.879	24.23
328.092	50.86
328.305	93.87
328.518	-2.39
328.731	9.9
328.944	30.38
329.157	65.19
329.37	67.24
329.583	95.91
329.796	30.38
330.009	-2.39
330.222	61.1
330.435	3.75
330.648	-31.06
330.861	28.33
331.073	87.72
331.286	16.04
331.499	30.38
331.712	5.8
331.925	61.1
332.138	24.23
332.35	44.71
332.563	54.95
332.776	91.82
332.989	36.52
333.202	116.39
333.414	13.99
333.627	122.54
333.84	-2.39
334.053	-14.68
334.265	40.62
334.478	71.34
334.691	97.96
334.903	-6.49
335.116	32.43
335.329	79.53
335.541	79.53
335.754	3.75
335.966	36.52
336.179	-18.77
336.392	46.76
336.604	85.67
336.817	85.67
337.029	85.67
337.242	24.23
337.454	85.67
337.667	38.57
337.88	61.1
338.092	28.33
338.305	20.14
338.517	16.04
338.729	18.09
338.942	20.14
339.154	63.15
339.367	65.19
339.579	73.39
339.792	9.9
340.004	65.19
340.217	42.67
340.429	85.67
340.641	22.19
340.854	61.1
341.066	50.86
341.278	3.75
341.491	42.67
341.703	-76.12
341.915	42.67
342.128	22.19
342.34	38.57
342.552	57
342.764	38.57
342.977	59.05
343.189	36.52
343.401	30.38
343.613	44.71
343.826	44.71
344.038	63.15
344.25	7.85
344.462	100.01
344.674	59.05
344.886	22.19
345.099	44.71
345.311	67.24
345.523	50.86
345.735	28.33
345.947	71.34
346.159	89.77
346.371	16.04
346.583	7.85
346.795	110.25
347.007	93.87
347.219	3.75
347.431	24.23
347.643	97.96
347.855	5.8
348.067	71.34
348.279	-20.82
348.491	-59.73
348.703	38.57
348.915	3.75
349.127	65.19
349.339	16.04
349.551	89.77
349.763	136.87
349.975	100.01
350.187	16.04
350.399	81.58
350.61	61.1
350.822	-4.44
351.034	11.95
351.246	-20.82
351.458	100.01
351.669	50.86
351.881	93.87
352.093	36.52
352.305	57
352.517	52.91
352.728	26.28
352.94	75.43
353.152	95.91
353.363	-33.11
353.575	134.82
353.787	48.81
353.999	-12.63
354.21	124.58
354.422	57
354.633	13.99
354.845	65.19
355.057	-14.68
355.268	57
355.48	38.57
355.692	54.95
355.903	34.47
356.115	-12.63
356.326	38.57
356.538	67.24
356.749	3.75
356.961	100.01
357.172	48.81
357.384	-18.77
357.595	136.87
357.807	44.71
358.018	30.38
358.23	46.76
358.441	7.85
358.653	73.39
358.864	-14.68
359.075	24.23
359.287	65.19
359.498	30.38
359.709	100.01
359.921	9.9
360.132	-16.73
360.344	24.23
360.555	44.71
360.766	34.47
360.977	32.43
361.189	20.14
361.4	32.43
361.611	42.67
361.823	20.14
362.034	52.91
362.245	30.38
362.456	57
362.667	46.76
362.879	7.85
363.09	67.24
363.301	30.38
363.512	28.33
363.723	91.82
363.935	28.33
364.146	44.71
364.357	26.28
364.568	97.96
364.779	-35.16
364.99	38.57
365.201	22.19
365.412	102.06
365.623	118.44
365.834	59.05
366.045	50.86
366.256	59.05
366.467	95.91
366.678	83.63
366.889	18.09
367.1	3.75
367.311	57
367.522	20.14
367.733	104.11
367.944	83.63
368.155	71.34
368.366	-4.44
368.577	-4.44
368.788	65.19
368.999	65.19
369.209	83.63
369.42	77.48
369.631	32.43
369.842	26.28
370.053	77.48
370.264	63.15
370.474	-43.35
370.685	20.14
370.896	89.77
371.107	75.43
371.317	61.1
371.528	-39.25
371.739	165.54
371.95	79.53
372.16	28.33
372.371	54.95
372.582	22.19
372.792	22.19
373.003	30.38
373.214	61.1
373.424	42.67
373.635	13.99
373.846	69.29
374.056	36.52
374.267	16.04
374.477	91.82
374.688	91.82
374.898	20.14
375.109	59.05
375.319	91.82
375.53	32.43
375.74	46.76
375.951	87.72
376.161	81.58
376.372	75.43
376.582	11.95
376.793	48.81
377.003	44.71
377.214	50.86
377.424	63.15
377.635	54.95
377.845	38.57
378.055	120.49
378.266	50.86
378.476	44.71
378.686	24.23
378.897	-31.06
379.107	24.23
379.317	106.15
379.528	40.62
379.738	50.86
379.948	81.58
380.158	50.86
380.369	52.91
380.579	120.49
380.789	9.9
380.999	73.39
381.21	126.63
381.42	136.87
381.63	63.15
381.84	114.34
382.05	24.23
382.261	73.39
382.471	69.29
382.681	69.29
382.891	7.85
383.101	44.71
383.311	77.48
383.521	-37.2
383.731	18.09
383.941	48.81
384.151	26.28
384.361	79.53
384.571	63.15
384.781	36.52
384.991	32.43
385.201	97.96
385.411	48.81
385.621	71.34
385.831	24.23
386.041	48.81
386.251	40.62
386.461	13.99
386.671	59.05
386.881	120.49
387.091	-18.77
387.301	52.91
387.511	-24.92
387.72	100.01
387.93	147.11
388.14	83.63
388.35	44.71
388.56	81.58
388.769	40.62
388.979	54.95
389.189	20.14
389.399	65.19
389.609	36.52
389.818	57
390.028	83.63
390.238	36.52
390.447	48.81
390.657	-16.73
390.867	93.87
391.076	26.28
391.286	89.77
391.496	79.53
391.705	95.91
391.915	26.28
392.125	-6.49
392.334	28.33
392.544	61.1
392.753	24.23
392.963	91.82
393.172	97.96
393.382	38.57
393.591	112.3
393.801	59.05
394.01	75.43
394.22	108.2
394.429	42.67
394.639	48.81
394.848	38.57
395.058	36.52
395.267	52.91
395.477	75.43
395.686	63.15
395.895	65.19
396.105	145.06
396.314	106.15
396.524	61.1
396.733	30.38
396.942	52.91
397.152	11.95
397.361	81.58
397.57	112.3
397.78	77.48
397.989	57
398.198	132.78
398.407	52.91
398.617	59.05
398.826	61.1
399.035	114.34
399.244	110.25
399.453	50.86
399.663	-10.58
399.872	136.87
400.081	38.57
400.29	130.73
400.499	108.2
400.708	87.72
400.917	130.73
401.127	85.67
401.336	89.77
401.545	214.7
401.754	110.25
401.963	79.53
402.172	104.11
402.381	112.3
402.59	116.39
402.799	181.93
403.008	161.45
403.217	87.72
403.426	108.2
403.635	104.11
403.844	95.91
404.053	108.2
404.262	89.77
404.471	85.67
404.68	128.68
404.888	95.91
405.097	138.92
405.306	145.06
405.515	161.45
405.724	100.01
405.933	114.34
406.142	108.2
406.35	95.91
406.559	198.31
406.768	128.68
406.977	188.07
407.185	192.17
407.394	183.98
407.603	153.26
407.812	120.49
408.02	235.18
408.229	169.64
408.438	145.06
408.646	190.12
408.855	167.59
409.064	198.31
409.272	294.57
409.481	181.93
409.69	202.41
409.898	226.98
410.107	253.61
410.315	325.29
410.524	247.46
410.733	265.89
410.941	239.27
411.15	212.65
411.358	327.33
411.567	345.77
411.775	370.34
411.984	360.1
412.192	388.77
412.401	304.81
412.609	364.2
412.818	425.64
413.026	460.45
413.234	446.12
413.443	442.02
413.651	452.26
413.86	386.72
414.068	456.36
414.276	482.98
414.485	622.24
414.693	558.75
414.901	517.79
415.11	534.18
415.318	556.71
415.526	583.33
415.734	624.29
415.943	528.03
416.151	612
416.359	687.78
416.567	620.19
416.776	741.02
416.984	796.32
417.192	761.5
417.4	698.02
417.608	687.78
417.817	761.5
418.025	882.33
418.233	884.38
418.441	865.95
418.649	927.39
418.857	931.48
419.065	1035.93
419.273	1076.89
419.481	1140.38
419.689	1128.09
419.897	1177.24
420.105	1126.04
420.313	1265.3
420.521	1341.08
420.729	1304.21
420.937	1332.89
421.145	1326.74
421.353	1418.9
421.561	1478.29
421.769	1500.82
421.977	1687.18
422.185	1638.03
422.393	1742.48
422.601	1822.35
422.809	1816.21
423.017	1873.55
423.224	1871.5
423.432	1937.04
423.64	1926.8
423.848	2137.74
424.056	2139.79
424.263	2240.14
424.471	2147.98
424.679	2272.9
424.887	2453.13
425.094	2451.08
425.302	2549.38
425.51	2659.97
425.718	2719.36
425.925	2563.72
426.133	2711.17
426.341	2965.12
426.548	3200.63
426.756	3133.05
426.964	3180.15
427.171	3311.22
427.379	3305.08
427.586	3503.73
427.794	3440.25
428.001	3671.67
428.209	3849.84
428.417	3810.93
428.624	4210.28
428.832	4238.95
429.039	4007.53
429.247	4122.22
429.454	4324.97
429.662	4718.18
429.869	4222.57
430.076	4812.39
430.284	4507.24
430.491	4861.54
430.699	4978.27
430.906	5058.14
431.114	5123.68
431.321	5414.49
431.528	5574.23
431.736	5772.88
431.943	6080.08
432.15	6006.35
432.358	5989.97
432.565	6270.54
432.772	6344.27
432.979	6567.49
433.187	6854.21
433.394	6823.49
433.601	7161.41
433.808	7237.18
434.016	7235.13
434.223	7509.56
434.43	7927.35
434.637	7800.37
434.844	8345.13
435.052	8468.01
435.259	8402.47
435.466	8539.69
435.673	8447.53
435.88	8896.03
436.087	9530.91
436.294	9340.44
436.501	9211.42
436.708	9584.15
436.915	9715.22
437.122	10184.21
437.329	10051.09
437.537	10419.72
437.743	10700.3
437.95	10753.54
438.157	11083.27
438.364	11703.8
438.571	11699.7
438.778	11701.75
438.985	12688.87
439.192	12019.19
439.399	12844.52
439.606	12359.15
439.813	13080.04
440.02	13835.74
440.227	13540.83
440.433	13471.2
440.64	14046.68
440.847	13913.56
441.054	14214.61
441.261	15211.97
441.467	14808.52
441.674	15453.63
441.881	15777.21
442.088	15646.14
442.294	15451.58
442.501	15971.77
442.708	16149.94
442.914	17323.43
443.121	17581.47
443.328	16860.59
443.534	18564.5
443.741	17958.3
443.948	17679.77
444.154	18941.32
444.361	18804.11
444.568	19074.44
444.774	19045.77
444.981	19062.15
445.187	19795.32
445.394	20454.77
445.6	20483.44
445.807	22558.03
446.013	21679.46
446.22	21615.97
446.426	22746.45
446.633	23041.36
446.839	23766.34
447.046	22601.04
447.252	23840.06
447.459	23913.79
447.665	23964.99
447.871	25097.52
448.078	26058.01
448.284	25095.47
448.491	25535.78
448.697	26518.81
448.903	26856.72
449.11	27112.72
449.316	26928.4
449.522	27084.05
449.728	27862.27
449.935	28124.41
450.141	27952.38
450.347	28785.91
450.553	27856.13
450.76	28292.35
450.966	29121.77
451.172	28867.83
451.378	29396.2
451.584	28824.82
451.791	30018.78
451.997	29531.37
452.203	30024.93
452.409	30436.57
452.615	30260.44
452.821	29226.22
453.027	28656.89
453.233	30033.12
453.44	29140.21
453.646	29644.01
453.852	29476.07
454.058	30237.92
454.264	29203.69
454.47	29945.06
454.676	28839.15
454.882	29857
455.088	27309.32
455.294	27614.47
455.5	28392.7
455.705	28796.15
455.911	27454.73
456.117	27020.56
456.323	26715.41
456.529	24939.82
456.735	26451.22
456.941	25439.53
457.147	25074.99
457.352	24503.6
457.558	24091.96
457.764	23989.56
457.97	23692.61
458.176	23219.53
458.381	23209.29
458.587	22041.95
458.793	21941.6
458.999	21114.22
459.204	22535.51
459.41	21759.33
459.616	20387.19
459.821	20256.12
460.027	20329.84
460.233	20217.21
460.438	19158.41
460.644	19180.93
460.85	18163.09
461.055	17919.39
461.261	18048.41
461.466	16844.2
461.672	16088.5
461.878	17268.13
462.083	16106.93
462.289	15674.81
462.494	15480.25
462.7	15107.52
462.905	14521.81
463.111	15209.92
463.316	15214.02
463.522	14859.72
463.727	15017.41
463.932	14749.13
464.138	14710.22
464.343	14585.29
464.549	14185.94
464.754	14814.66
464.959	14497.23
465.165	14607.82
465.37	13944.28
465.575	13630.94
465.781	14044.63
465.986	14114.26
466.191	13684.19
466.397	13313.5
466.602	12729.83
466.807	13379.04
467.012	13368.8
467.218	13207.01
467.423	12953.06
467.628	13120.99
467.833	13524.44
468.038	13139.43
468.244	13102.56
468.449	13233.63
468.654	12965.35
468.859	12744.17
469.064	12445.16
469.269	12379.63
469.474	12266.99
469.679	12518.89
469.885	12457.45
470.09	12541.42
470.295	12174.83
470.5	11965.94
470.705	11892.21
470.91	11761.14
471.115	11683.32
471.32	11933.17
471.525	11748.86
471.73	11523.58
471.935	11507.2
472.139	11365.89
472.344	11206.14
472.549	11075.07
472.754	11011.59
472.959	10763.78
473.164	10305.04
473.369	10548.75
473.574	10884.61
473.778	10583.56
473.983	10620.42
474.188	10663.43
474.393	10231.31
474.598	10141.2
474.802	10024.47
475.007	10130.96
475.212	9932.31
475.417	9750.04
475.621	9762.33
475.826	9580.06
476.031	9416.22
476.235	9313.82
476.44	9561.62
476.645	9250.33
476.849	9182.75
477.054	9053.73
477.259	9084.45
477.463	9088.54
477.668	8693.29
477.872	8730.15
478.077	8691.24
478.282	8425
478.486	8625.7
478.691	8642.09
478.895	8283.69
479.1	8347.18
479.304	8244.78
479.509	7953.97
479.713	8410.67
479.918	8146.48
480.122	7947.83
480.326	8130.09
480.531	8130.09
480.735	7982.64
480.94	8009.26
481.144	8021.55
481.348	7761.46
481.553	7798.32
481.757	7865.91
481.961	7931.44
482.166	7851.57
482.37	7820.85
482.574	7857.71
482.778	7788.08
482.983	8171.05
483.187	7769.65
483.391	7845.43
483.595	7736.88
483.8	7687.73
484.004	7898.67
484.208	7994.93
484.412	7781.94
484.616	7800.37
484.821	7933.49
485.025	7794.23
485.229	7900.72
485.433	7648.82
485.637	7931.44
485.841	7601.72
486.045	7896.63
486.249	7759.41
486.453	7773.75
486.657	7804.47
486.861	7853.62
487.065	7493.18
487.269	7863.86
487.473	7693.88
487.677	7806.52
487.881	7827
488.085	7605.81
488.289	8074.8
488.493	7751.22
488.697	7798.32
488.901	7853.62
489.105	7740.98
489.309	7913.01
489.512	7937.59
489.716	7837.24
489.92	7792.18
490.124	7956.02
490.328	8134.19
490.531	7925.3
490.735	7958.07
490.939	7986.74
491.143	7947.83
491.346	7935.54
491.55	8119.85
491.754	8220.21
491.958	8216.11
492.161	8115.76
492.365	8271.4
492.569	8160.81
492.772	8252.97
492.976	8261.16
493.18	8402.47
493.383	8558.12
493.587	8580.65
493.79	8531.5
493.994	8361.52
494.197	8543.78
494.401	8584.74
494.605	8695.33
494.808	9006.63
495.012	8830.5
495.215	8756.77
495.419	8865.32
495.622	8869.41
495.825	9152.03
496.029	9012.77
496.232	9141.79
496.436	9121.31
496.639	9236
496.843	9471.51
497.046	9524.76
497.249	9524.76
497.453	9627.16
497.656	9717.27
497.859	9801.24
498.063	9960.98
498.266	10366.48
498.469	10300.94
498.673	10243.6
498.876	10491.4
499.079	10458.64
499.282	10292.75
499.485	10733.06
499.689	10763.78
499.892	10944
500.095	10823.17
500.298	11351.55
500.501	11324.93
500.705	11415.04
500.908	11613.69
501.111	11679.22
501.314	11619.83
501.517	11787.77
501.72	11963.89
501.923	11836.92
502.126	12479.98
502.329	12572.14
502.532	12584.43
502.735	12713.45
502.938	12670.44
503.141	12914.15
503.344	13344.22
503.547	13110.75
503.75	13356.51
503.953	13276.64
504.156	13813.21
504.359	13975
504.562	13936.09
504.765	14169.55
504.968	14104.02
505.17	14550.48
505.373	14194.13
505.576	14720.46
505.779	15087.04
505.982	15275.46
506.185	15095.24
506.387	15132.1
506.59	15445.44
506.793	15578.56
506.996	15664.57
507.198	16100.79
507.401	16000.44
507.604	16281.01
507.807	16422.32
508.009	16655.79
508.212	16838.06
508.415	17012.14
508.617	16967.08
508.82	17493.41
509.022	17141.16
509.225	17591.71
509.428	17759.64
509.63	17796.51
509.833	17995.16
510.035	18421.14
510.238	17972.63
510.44	18511.25
510.643	18840.97
510.845	19035.53
511.048	19015.05
511.25	19051.91
511.453	19309.96
511.655	19930.49
511.858	19959.16
512.06	19930.49
512.262	20348.28
512.465	20186.49
512.667	20409.72
512.87	20888.94
513.072	20745.58
513.274	21054.83
513.477	21357.92
513.679	21747.04
513.881	21804.38
514.084	21998.94
514.286	21904.73
514.488	22125.91
514.69	22676.82
514.893	22705.49
515.095	22576.47
515.297	22836.56
515.499	23287.11
515.701	23446.85
515.904	23618.88
516.106	23815.49
516.308	23964.99
516.51	24456.5
516.712	24503.6
516.914	24778.03
517.116	25165.1
517.318	24925.49
517.52	25335.08
517.722	25163.05
517.925	25427.24
518.127	26129.69
518.329	26031.39
518.531	25830.69
518.733	26678.55
518.935	26688.79
519.136	26553.62
519.338	26967.31
519.54	27065.61
519.742	27454.73
519.944	27626.76
520.146	28032.25
520.348	28275.96
520.55	28333.31
520.752	28531.96
520.954	28642.55
521.155	28871.92
521.357	29009.14
521.559	29281.52
521.761	29627.62
521.963	29725.93
522.164	29830.37
522.366	30115.04
522.568	30264.54
522.77	29959.39
522.971	30584.02
523.173	30934.23
523.375	30809.3
523.576	31091.92
523.778	30993.62
523.98	31565
524.181	31386.83
524.383	31857.86
524.584	32201.92
524.786	32226.49
524.988	32070.85
525.189	32441.53
525.391	32601.27
525.592	32654.52
525.794	32801.97
525.995	32703.67
526.197	33273.01
526.398	33045.68
526.6	33203.38
526.801	33766.57
527.003	33420.46
527.204	33381.55
527.406	33948.84
527.607	34020.52
527.808	34159.78
528.01	33891.49
528.211	34041
528.412	35024.02
528.614	34458.78
528.815	34552.99
529.016	34917.53
529.218	34354.33
529.419	34585.75
529.62	34612.38
529.822	34870.42
530.023	35300.5
530.224	34956.44
530.425	35435.66
530.626	34718.87
530.828	34747.54
531.029	35552.4
531.23	35273.87
531.431	35634.31
531.632	35194
531.833	35482.77
532.035	35347.6
532.236	35486.86
532.437	35644.55
532.638	35613.84
532.839	35785.86
533.04	35472.53
533.241	35484.81
533.442	35947.65
533.643	35927.17
533.844	35662.99
534.045	35835.02
534.246	35550.35
534.447	36045.96
534.648	35701.9
534.849	35878.02
535.05	35495.05
535.251	36066.44
535.451	36019.33
535.652	36121.73
535.853	36045.96
536.054	35869.83
536.255	35843.21
536.456	35859.59
536.657	36236.42
536.857	35771.53
537.058	35761.29
537.259	36162.69
537.46	35744.91
537.66	36013.19
537.861	36191.36
538.062	36043.91
538.263	36170.88
538.463	35902.6
538.664	36005
538.865	36326.53
539.065	35953.8
539.266	36064.39
539.466	36744.31
539.667	35384.46
539.868	36246.66
540.068	35789.96
540.269	36017.29
540.469	36062.34
540.67	36152.45
540.87	36306.05
541.071	36195.46
541.271	36074.63
541.472	36177.03
541.672	35857.54
541.873	35937.41
542.073	35452.05
542.274	36224.13
542.474	35966.09
542.675	35716.23
542.875	36349.06
543.075	36011.14
543.276	35550.35
543.476	36035.72
543.676	35837.06
543.877	36080.77
544.077	35687.56
544.277	36113.54
544.478	35931.27
544.678	36203.65
544.878	35734.67
545.078	35761.29
545.279	35652.75
545.479	35650.7
545.679	35755.15
545.879	35730.57
546.079	36238.47
546.28	35679.37
546.48	35937.41
546.68	36002.95
546.88	35859.59
547.08	35769.48
547.28	35945.61
547.48	36050.05
547.68	36111.49
547.88	35851.4
548.081	35933.32
548.281	36076.68
548.481	35777.67
548.681	35886.22
548.881	36045.96
549.081	36052.1
549.28	35765.38
549.48	36433.02
549.68	36027.52
549.88	36150.4
550.08	35757.19
550.28	35953.8
550.48	35697.8
550.68	36029.57
550.88	35574.92
551.08	35869.83
551.279	35548.3
551.479	35816.58
551.679	35994.76
551.879	35390.61
552.079	35548.3
552.278	35529.87
552.478	35769.48
552.678	35902.6
552.878	36136.07
553.077	35443.85
553.277	35701.9
553.477	35873.93
553.676	35472.53
553.876	35572.88
554.076	35630.22
554.275	35906.69
554.475	35210.39
554.674	36005
554.874	35568.78
555.074	35677.32
555.273	35611.79
555.473	35525.77
555.672	35468.43
555.872	35288.21
556.071	35595.4
556.271	35863.69
556.47	35153.04
556.67	35415.18
556.869	35271.82
557.068	35939.46
557.268	35318.93
557.467	35208.34
557.667	35263.63
557.866	35189.91
558.065	35148.95
558.265	35062.93
558.464	34915.48
558.663	35337.36
558.863	34882.71
559.062	35599.5
559.261	34563.23
559.461	35501.2
559.66	34657.43
559.859	35157.14
560.058	34235.55
560.258	35034.26
560.457	34489.5
560.656	34856.09
560.855	34718.87
561.054	34829.46
561.253	34729.11
561.453	34583.71
561.652	34747.54
561.851	34751.64
562.05	34755.74
562.249	34301.09
562.448	34407.58
562.647	34426.01
562.846	34174.11
563.045	34540.7
563.244	34411.68
563.443	34620.57
563.642	33907.88
563.841	33977.51
564.04	33703.08
564.239	34157.73
564.438	33713.32
564.637	34331.81
564.836	33957.03
565.035	33561.77
565.234	34114.72
565.432	33619.11
565.631	33453.23
565.83	33940.64
566.029	33555.63
566.228	33584.3
566.427	33328.3
566.625	33631.4
566.824	33203.38
567.023	33451.18
567.222	32554.17
567.42	33555.63
567.619	33283.25
567.818	33207.47
568.016	33100.98
568.215	33264.82
568.414	32810.17
568.612	32842.93
568.811	32957.62
569.01	32826.55
569.208	32715.96
569.407	32584.89
569.605	32328.89
569.804	32969.91
570.002	32476.35
570.201	32459.96
570.4	32320.7
570.598	32126.14
570.797	31646.92
570.995	32173.25
571.193	31818.95
571.392	32376
571.59	31827.14
571.789	31870.15
571.987	31782.09
572.186	31657.16
572.384	31810.76
572.582	31894.72
572.781	31794.37
572.979	30938.32
573.177	31427.79
573.376	31685.83
573.574	31272.14
573.772	31411.4
573.971	31104.21
574.169	30919.89
574.367	30727.38
574.565	30991.57
574.763	30956.75
574.962	30811.35
575.16	30541.02
575.358	30629.08
575.556	30475.48
575.754	30899.41
575.952	30457.05
576.151	30663.89
576.349	30233.82
576.547	30266.59
576.745	30444.76
576.943	30592.22
577.141	30256.35
577.339	30217.44
577.537	30117.09
577.735	30119.14
577.933	30057.7
578.131	29809.89
578.329	29744.36
578.527	29306.09
578.725	30041.31
578.923	29938.91
579.121	29287.66
579.319	29697.25
579.516	29836.52
579.714	29406.44
579.912	29142.25
580.11	29308.14
580.308	29224.17
580.506	29107.44
580.704	28773.62
580.901	28871.92
581.099	29082.86
581.297	28888.31
581.495	28775.67
581.692	29033.71
581.89	28548.34
582.088	28689.65
582.285	28673.27
582.483	28890.35
582.681	28611.83
582.878	28493.05
583.076	28368.12
583.274	28171.52
583.471	28255.48
583.669	28173.56
583.866	28075.26
584.064	28144.89
584.262	28065.02
584.459	27960.58
584.657	27849.99
584.854	28081.41
585.052	27481.35
585.249	27706.63
585.447	27647.24
585.644	27264.27
585.841	27661.57
586.039	27532.55
586.236	27192.59
586.434	27022.61
586.631	27024.65
586.828	27131.15
587.026	27196.68
587.223	27309.32
587.42	26742.03
587.618	27108.62
587.815	26864.91
588.012	26414.36
588.21	26662.16
588.407	26877.2
588.604	26424.6
588.801	26309.91
588.999	26455.32
589.196	26197.27
589.393	26357.02
589.59	26238.23
589.787	26203.42
589.984	26273.05
590.182	25898.27
590.379	25785.63
590.576	25650.47
590.773	25814.3
590.97	25765.15
591.167	25734.43
591.364	25402.66
591.561	25928.99
591.758	25367.85
591.955	25361.7
592.152	25562.4
592.349	24999.21
592.546	25232.68
592.743	25328.94
592.94	24841.52
593.137	25265.45
593.334	25191.72
593.531	24483.13
593.727	24728.88
593.924	24948.01
594.121	24452.41
594.318	24753.46
594.515	24356.15
594.712	24898.86
594.908	24382.77
595.105	24089.92
595.302	24356.15
595.499	24194.36
595.696	24106.3
595.892	24286.52
596.089	23964.99
596.286	24356.15
596.482	23704.9
596.679	24063.29
596.876	23919.93
597.072	23895.36
597.269	23702.85
597.466	23594.31
597.662	23440.71
597.859	23633.22
598.055	23276.87
598.252	23586.11
598.448	23551.3
598.645	23360.84
598.841	23008.59
599.038	23027.02
599.234	23248.2
599.431	23104.84
599.627	22922.57
599.824	23129.42
600.02	22697.3
600.217	22777.17
600.413	22832.46
600.609	22465.88
600.806	22410.58
601.002	22682.96
601.198	22271.32
601.395	22361.43
601.591	22486.36
601.787	22500.69
601.984	22166.87
602.18	22820.17
602.376	22052.19
602.572	21960.03
602.769	21896.54
602.965	21808.48
603.161	21851.49
603.357	21759.33
603.553	21677.41
603.75	21738.85
603.946	21488.99
604.142	21962.08
604.338	21376.36
604.534	21718.37
604.73	21259.62
604.926	21366.12
605.122	21476.71
605.318	21292.39
605.514	20999.53
605.71	21126.5
605.906	21362.02
606.102	20968.81
606.298	21069.16
606.494	20727.15
606.69	21228.9
606.886	20862.32
607.082	20565.36
607.278	20565.36
607.474	20442.48
607.67	20739.44
607.866	20381.04
608.062	20886.89
608.257	20594.03
608.453	20639.09
608.649	20479.35
608.845	20462.96
609.041	20307.32
609.236	20526.45
609.432	20219.25
609.628	20462.96
609.824	20307.32
610.019	20006.27
610.215	20213.11
610.411	20211.06
610.606	19996.03
610.802	20366.71
610.998	20225.4
611.193	20043.13
611.389	19996.03
611.584	19844.48
611.78	19778.94
611.976	19953.02
612.171	19809.66
612.367	19846.52
612.562	19586.43
612.758	19269
612.953	19541.38
613.149	19869.05
613.344	19402.11
613.539	19905.91
613.735	19533.18
613.93	19785.08
614.126	19697.02
614.321	19651.97
614.517	19647.87
614.712	19293.57
614.907	19283.33
615.103	19426.69
615.298	19230.09
615.493	19408.26
615.688	19121.54
615.884	19541.38
616.079	19070.34
616.274	19225.99
616.47	19195.27
616.665	19088.78
616.86	19156.36
617.055	19041.67
617.25	18902.41
617.445	19146.12
617.641	18828.68
617.836	19133.83
618.031	18793.87
618.226	18865.55
618.421	18716.05
618.616	18902.41
618.811	18314.64
619.006	18908.55
619.201	18460.05
619.396	18562.45
619.591	18273.68
619.786	18400.66
619.981	17880.47
620.176	18410.9
620.371	18042.26
620.566	18068.89
620.761	17923.48
620.956	18013.59
621.151	17419.68
621.346	18050.46
621.541	17382.82
621.735	17593.76
621.93	17485.22
622.125	17509.79
622.32	17270.18
622.515	17083.81
622.709	17231.27
622.904	17358.24
623.099	16967.08
623.294	17143.21
623.488	16844.2
623.683	17046.95
623.878	16547.25
624.072	16553.39
624.267	16555.44
624.462	16481.71
624.656	16526.77
624.851	16240.05
625.046	16274.87
625.24	16338.35
625.435	16231.86
625.629	16055.73
625.824	15887.8
626.018	15828.41
626.213	15596.99
626.407	15754.68
626.602	15467.97
626.796	15420.86
626.991	15424.96
627.185	15265.22
627.38	15238.59
627.574	15308.23
627.768	14902.73
627.963	14896.58
628.157	14820.81
628.352	15017.41
628.546	14843.34
628.74	14745.03
628.935	14638.54
629.129	14618.06
629.323	14460.37
629.517	14566.86
629.712	14532.04
629.906	14296.53
630.1	14022.1
630.294	14071.25
630.489	14046.68
630.683	14243.28
630.877	14067.16
631.071	13946.33
631.265	13911.51
631.459	13569.5
631.653	13694.43
631.848	13579.74
632.042	13266.4
632.236	13585.88
632.43	13690.33
632.624	13372.89
632.818	13284.83
633.012	13268.45
633.206	13350.37
633.4	13059.56
633.594	12785.13
633.788	12848.61
633.982	12991.97
634.176	12731.88
634.369	12721.64
634.563	12764.65
634.757	12764.65
634.951	12862.95
635.145	12496.36
635.339	12439.02
635.533	12072.43
635.726	12502.51
635.92	12131.83
636.114	12105.2
636.308	12242.42
636.501	12107.25
636.695	11927.03
636.889	11892.21
637.083	11820.53
637.276	11677.18
637.47	11869.69
637.664	11699.7
637.857	11640.31
638.051	11642.36
638.244	11580.92
638.438	11611.64
638.632	11568.63
638.825	11253.25
639.019	11296.25
639.212	11337.21
639.406	11232.77
639.599	11138.56
639.793	11142.66
639.986	10778.12
640.18	11099.65
640.373	10931.72
640.567	10808.84
640.76	10810.89
640.954	10661.38
641.147	10630.66
641.34	10608.14
641.534	10569.23
641.727	10599.94
641.92	10593.8
642.114	10399.24
642.307	10397.2
642.5	10313.23
642.694	10182.16
642.887	10135.06
643.08	10178.06
643.273	10135.06
643.467	9940.5
643.66	9815.57
643.853	9911.83
644.046	9928.21
644.239	9797.14
644.432	9836.05
644.626	9903.64
644.819	9848.34
645.012	9668.12
645.205	9764.37
645.398	9600.54
645.591	9508.38
645.784	9405.98
645.977	9727.51
646.17	9528.86
646.363	9434.65
646.556	9143.84
646.749	9215.52
646.942	9330.2
647.135	8949.28
647.328	9121.31
647.521	9121.31
647.714	9045.54
647.907	9203.23
648.099	9133.6
648.292	8916.51
648.485	8896.03
648.678	8697.38
648.871	8762.92
649.064	8695.33
649.256	8783.4
649.449	8670.76
649.642	8574.5
649.835	8498.73
650.027	8592.94
650.22	8480.3
650.413	8402.47
650.605	8347.18
650.798	8461.87
650.991	8310.32
651.183	8279.6
651.376	8154.67
651.568	8183.34
651.761	7986.74
651.954	7902.77
652.146	8140.33
652.339	8048.18
652.531	7753.27
652.724	7720.5
652.916	8097.33
653.109	7849.52
653.301	7894.58
653.494	7734.84
653.686	7714.36
653.879	7749.17
654.071	7804.47
654.263	7714.36
654.456	7697.97
654.648	7591.48
654.84	7464.5
655.033	7589.43
655.225	7507.51
655.417	7546.42
655.61	7411.26
655.802	7358.01
655.994	7394.87
656.186	7235.13
656.379	7276.09
656.571	7312.96
656.763	7181.89
656.955	7087.68
657.148	6977.09
657.34	7220.8
657.532	6919.75
657.724	7026.24
657.916	7114.3
658.108	7081.53
658.3	6923.84
658.492	7032.38
658.684	6708.8
658.876	6727.24
659.068	6862.4
659.26	6737.48
659.452	6721.09
659.644	6850.11
659.836	6479.43
660.028	6592.07
660.22	6583.88
660.412	6602.31
660.604	6469.19
660.796	6620.74
660.988	6512.2
661.18	6356.55
661.372	6331.98
661.563	6389.32
661.755	6321.74
661.947	6374.99
662.139	6309.45
662.331	6178.38
662.522	6043.21
662.714	6207.05
662.906	6108.75
663.097	6049.36
663.289	6053.45
663.481	6080.08
663.673	6073.93
663.864	6127.18
664.056	6030.93
664.247	6032.97
664.439	5822.03
664.631	5920.34
664.822	5752.4
665.014	5834.32
665.205	5856.85
665.397	5858.9
665.588	5862.99
665.78	5662.29
665.971	5621.33
666.163	5733.97
666.354	5697.11
666.546	5660.24
666.737	5631.57
666.929	5504.6
667.12	5637.72
667.311	5480.02
667.503	5400.15
667.694	5473.88
667.885	5424.73
668.077	5541.46
668.268	5396.06
668.459	5355.1
668.651	5373.53
668.842	5365.34
669.033	5477.98
669.224	5258.84
669.416	5174.88
669.607	5172.83
669.798	5205.6
669.989	5275.23
670.18	5209.69
670.371	5191.26
670.563	5189.21
670.754	5154.4
670.945	5101.15
671.136	5082.72
671.327	5062.24
671.518	5056.09
671.709	5109.34
671.9	5000.8
672.091	4972.13
672.282	5064.29
672.473	4832.86
672.664	4972.13
672.855	4935.26
673.046	4986.46
673.237	4916.83
673.428	4933.22
673.619	4853.34
673.809	4726.37
674	4918.88
674.191	4662.88
674.382	4812.39
674.573	4861.54
674.764	4865.63
674.954	4957.79
675.145	4761.19
675.336	4830.82
675.527	4806.24
675.717	4765.28
675.908	4634.21
676.099	4679.27
676.289	4722.27
676.48	4574.82
676.671	4703.84
676.861	4509.29
677.052	4767.33
677.243	4533.86
677.433	4605.54
677.624	4576.87
677.814	4478.57
678.005	4648.55
678.195	4589.16
678.386	4683.36
678.576	4562.53
678.767	4486.76
678.957	4427.37
679.148	4621.92
679.338	4550.25
679.529	4613.73
679.719	4339.3
679.909	4636.26
680.1	4458.09
680.29	4456.04
680.481	4376.17
680.671	4525.67
680.861	4466.28
681.052	4472.42
681.242	4298.35
681.432	4396.65
681.622	4378.22
681.813	4341.35
682.003	4361.83
682.193	4281.96
682.383	4464.23
682.573	4359.78
682.764	4302.44
682.954	4372.07
683.144	4177.51
683.334	4093.55
683.524	4425.32
683.714	4349.54
683.904	4197.99
684.094	4150.89
684.284	4318.82
684.474	4468.33
684.664	4075.12
684.854	4048.49
685.044	4218.47
685.234	4150.89
685.424	4109.93
685.614	4101.74
685.804	4220.52
685.994	4187.75
686.184	3970.67
686.374	4167.28
686.564	4148.84
686.753	4087.4
686.943	4017.77
687.133	3995.25
687.323	4013.68
687.513	4048.49
687.702	3985.01
687.892	4017.77
688.082	3982.96
688.272	3817.07
688.461	3909.23
688.651	3866.22
688.841	3849.84
689.03	3810.93
689.22	3790.45
689.41	3733.11
689.599	3845.74
689.789	3774.07
689.979	3681.91
690.168	3749.49
690.358	3739.25
690.547	3690.1
690.737	3755.63
690.926	3759.73
691.116	3749.49
691.305	3679.86
691.495	3581.56
691.684	3645.04
691.874	3581.56
692.063	3470.97
692.252	3475.06
692.442	3542.64
692.631	3530.36
692.82	3530.36
693.01	3563.12
693.199	3530.36
693.388	3323.51
693.578	3454.58
693.767	3493.49
693.956	3346.04
694.146	3466.87
694.335	3272.31
694.524	3479.16
694.713	3391.09
694.902	3393.14
695.092	3425.91
695.281	3278.46
695.47	3315.32
695.659	3432.05
695.848	3303.03
696.037	3346.04
696.226	3210.87
696.415	3171.96
696.604	3354.23
696.793	3282.55
696.982	3296.89
697.171	3247.74
697.36	3300.98
697.549	3176.06
697.738	3167.87
697.927	3280.5
698.116	3063.42
698.305	3264.12
698.494	3151.48
698.683	3059.32
698.872	3223.16
699.061	3233.4
699.25	3169.91
699.438	3059.32
699.627	3178.11
699.816	3106.43
700.005	3182.2
700.193	3114.62
700.382	2930.3
700.571	3081.85
700.76	3008.12
700.948	3131
701.137	2987.65
701.326	3100.28
701.514	2924.16
701.703	3020.41
701.892	3049.08
702.08	3057.28
702.269	2918.01
702.457	3051.13
702.646	3024.51
702.834	3161.72
703.023	2883.2
703.212	3059.32
703.4	3122.81
703.589	2981.5
703.777	3042.94
703.965	2975.36
704.154	3059.32
704.342	3022.46
704.531	2995.84
704.719	2995.84
704.907	3108.48
705.096	2895.49
705.284	3137.15
705.472	2975.36
705.661	2938.49
705.849	3008.12
706.037	3055.23
706.226	2942.59
706.414	3036.8
706.602	2969.21
706.79	2979.45
706.979	2946.69
707.167	3004.03
707.355	2965.12
707.543	2850.43
707.731	2997.88
707.919	2928.25
708.107	3030.65
708.296	2993.79
708.484	2999.93
708.672	2950.78
708.86	2981.5
709.048	3006.08
709.236	3040.89
709.424	2881.15
709.612	2868.86
709.8	2926.21
709.988	2860.67
710.176	2922.11
710.364	2938.49
710.551	2920.06
710.739	2938.49
710.927	2930.3
711.115	3008.12
711.303	2897.53
711.491	2922.11
711.679	2922.11
711.866	2907.77
712.054	2979.45
712.242	2907.77
712.43	2885.25
712.617	2881.15
712.805	2832
712.993	3067.52
713.181	2899.58
713.368	2879.1
713.556	2901.63
713.744	2918.01
713.931	2922.11
714.119	2844.29
714.306	2905.73
714.494	2944.64
714.682	2862.72
714.869	2832
715.057	3018.36
715.244	2838.14
715.432	2891.39
715.619	2950.78
715.807	2997.88
715.994	3018.36
716.182	3008.12
716.369	2864.77
716.556	3001.98
716.744	2815.62
716.931	3026.56
717.119	3016.32
717.306	2909.82
717.493	2889.34
717.681	2932.35
717.868	2934.4
718.055	2901.63
718.242	2961.02
718.43	2936.45
718.617	2813.57
718.804	2958.97
718.991	2952.83
719.179	2895.49
719.366	2956.93
719.553	3100.28
719.74	3001.98
719.927	2938.49
720.114	2934.4
720.301	2901.63
720.488	2889.34
720.676	2938.49
720.863	2944.64
721.05	2805.38
721.237	2893.44
721.424	2858.62
721.611	2911.87
721.798	2891.39
721.985	2967.17
722.172	2905.73
722.358	2805.38
722.545	2999.93
722.732	2903.68
722.919	2932.35
723.106	2971.26
723.293	2866.81
723.48	2944.64
723.667	2875.01
723.853	2750.08
724.04	2926.21
724.227	2944.64
724.414	2911.87
724.6	2827.9
724.787	2870.91
724.974	2950.78
725.161	2948.73
725.347	3034.75
725.534	2862.72
725.72	2877.05
725.907	2817.66
726.094	2969.21
726.28	2924.16
726.467	2891.39
726.653	2864.77
726.84	2885.25
727.027	2854.53
727.213	2829.95
727.4	2965.12
727.586	2983.55
727.773	2836.1
727.959	2893.44
728.145	2954.88
728.332	2887.29
728.518	2840.19
728.705	2950.78
728.891	2928.25
729.077	2967.17
729.264	2932.35
729.45	2936.45
729.636	2922.11
729.823	2948.73
730.009	2993.79
730.195	2881.15
730.382	2868.86
730.568	2887.29
730.754	2682.5
730.94	2993.79
731.126	2752.13
731.313	2926.21
731.499	2913.92
731.685	2858.62
731.871	2860.67
732.057	2967.17
732.243	2883.2
732.429	2909.82
732.615	2907.77
732.801	2940.54
732.987	2817.66
733.173	2915.97
733.359	2870.91
733.545	2926.21
733.731	2975.36
733.917	2936.45
734.103	2936.45
734.289	2965.12
734.475	2961.02
734.661	2928.25
734.847	2948.73
735.033	2877.05
735.219	2811.52
735.404	2793.09
735.59	2903.68
735.776	2850.43
735.962	2860.67
736.148	2901.63
736.333	2813.57
736.519	2809.47
736.705	2821.76
736.89	2764.42
737.076	2805.38
737.262	2850.43
737.447	2717.31
737.633	2825.86
737.819	2938.49
738.004	2825.86
738.19	2893.44
738.375	2770.56
738.561	2829.95
738.747	2838.14
738.932	2762.37
739.118	2735.74
739.303	2766.46
739.489	2852.48
739.674	2647.68
739.859	2778.75
740.045	2770.56
740.23	2739.84
740.416	2702.98
740.601	2774.66
740.786	2801.28
740.972	2733.7
741.157	2731.65
741.342	2670.21
741.528	2659.97
741.713	2623.11
741.898	2692.74
742.084	2698.88
742.269	2602.63
742.454	2606.72
742.639	2580.1
742.824	2559.62
743.01	2539.14
743.195	2535.04
743.38	2444.93
743.565	2598.53
743.75	2549.38
743.935	2528.9
744.12	2569.86
744.305	2496.13
744.49	2573.96
744.675	2512.52
744.86	2381.45
745.045	2559.62
745.23	2641.54
745.415	2483.84
745.6	2504.32
745.785	2543.24
745.97	2426.5
746.155	2438.79
746.34	2360.97
746.525	2506.37
746.71	2338.44
746.895	2389.64
747.079	2285.19
747.264	2350.73
747.449	2301.58
747.634	2262.66
747.819	2244.23
748.003	2293.38
748.188	2387.59
748.373	2289.29
748.557	2231.94
748.742	2195.08
748.927	2340.49
749.111	2221.7
749.296	2248.33
749.481	2209.42
749.665	2252.42
749.85	2195.08
750.034	2229.9
750.219	2133.64
750.404	2041.48
750.588	2100.87
750.773	2107.02
750.957	2147.98
751.141	2135.69
751.326	1980.04
751.51	1904.27
751.695	2023.05
751.879	1967.76
752.064	2033.29
752.248	2064.01
752.432	2047.63
752.617	1959.56
752.801	1898.13
752.985	2012.81
753.17	1951.37
753.354	1916.56
753.538	1887.89
753.722	1984.14
753.907	1820.3
754.091	1885.84
754.275	1783.44
754.459	1846.93
754.643	1877.65
754.828	1748.62
755.012	1773.2
755.196	1853.07
755.38	1754.77
755.564	1717.9
755.748	1738.38
755.932	1816.21
756.116	1670.8
756.3	1697.42
756.484	1578.64
756.668	1744.53
756.852	1621.65
757.036	1500.82
757.22	1701.52
757.404	1728.14
757.588	1584.79
757.772	1748.62
757.956	1576.59
758.14	1590.93
758.323	1500.82
758.507	1566.35
758.691	1560.21
758.875	1621.65
759.059	1531.54
759.242	1554.07
759.426	1463.96
759.61	1543.83
759.794	1455.76
759.977	1556.11
760.161	1455.76
760.345	1459.86
760.528	1396.37
760.712	1345.17
760.895	1472.15
761.079	1341.08
761.263	1394.33
761.446	1384.09
761.63	1347.22
761.813	1373.85
761.997	1357.46
762.18	1257.11
762.364	1339.03
762.547	1361.56
762.731	1287.83
762.914	1339.03
763.098	1377.94
763.281	1406.61
763.464	1318.55
763.648	1261.21
763.831	1271.45
764.015	1388.18
764.198	1271.45
764.381	1382.04
764.564	1267.35
764.748	1236.63
764.931	1265.3
765.114	1199.77
765.297	1336.98
765.481	1334.93
765.664	1279.64
765.847	1279.64
766.03	1296.02
766.213	1201.82
766.397	1267.35
766.58	1287.83
766.763	1296.02
766.946	1250.97
767.129	1119.9
767.312	1242.78
767.495	1275.54
767.678	1167
767.861	1199.77
768.044	1123.99
768.227	1189.53
768.41	1240.73
768.593	1222.3
768.776	1191.58
768.959	1191.58
769.142	1273.5
769.324	1152.67
769.507	1040.03
769.69	1080.99
769.873	1087.13
770.056	1154.71
770.239	1164.95
770.421	1167
770.604	1109.66
770.787	1056.41
770.97	1074.84
771.152	1031.83
771.335	1080.99
771.518	1017.5
771.7	1087.13
771.883	1066.65
772.066	997.02
772.248	1011.36
772.431	1121.95
772.613	1054.36
772.796	1066.65
772.978	964.25
773.161	1054.36
773.343	917.15
773.526	956.06
773.708	997.02
773.891	943.77
774.073	954.01
774.256	890.53
774.438	992.92
774.621	968.35
774.803	978.59
774.985	960.16
775.168	872.09
775.35	902.81
775.532	968.35
775.715	839.33
775.897	913.05
776.079	966.3
776.261	935.58
776.444	818.85
776.626	870.05
776.808	859.81
776.99	857.76
777.173	937.63
777.355	808.61
777.537	870.05
777.719	847.52
777.901	775.84
778.083	732.83
778.265	745.12
778.447	743.07
778.629	788.13
778.811	702.11
778.993	804.51
779.175	784.03
779.357	777.89
779.539	724.64
779.721	736.93
779.903	755.36
780.085	732.83
780.267	773.79
780.449	818.85
780.631	786.08
780.812	788.13
780.994	655.01
781.176	708.26
781.358	681.63
781.54	661.15
781.721	706.21
781.903	679.58
782.085	695.97
782.267	693.92
782.448	677.54
782.63	626.34
782.812	628.39
782.993	706.21
783.175	630.43
783.357	589.47
783.538	593.57
783.72	612
783.901	597.67
784.083	568.99
784.264	583.33
784.446	530.08
784.627	591.52
784.809	528.03
784.99	575.14
785.172	601.76
785.353	542.37
785.535	564.9
785.716	634.53
785.897	544.42
786.079	583.33
786.26	562.85
786.441	599.71
786.623	536.23
786.804	568.99
786.985	503.46
787.167	540.32
787.348	489.12
787.529	560.8
787.71	548.51
787.891	478.88
788.073	530.08
788.254	446.12
788.435	523.94
788.616	530.08
788.797	454.31
788.978	491.17
789.159	384.68
789.34	439.97
789.522	482.98
789.703	489.12
789.884	505.51
790.065	421.54
790.246	478.88
790.427	446.12
790.607	425.64
790.788	495.27
790.969	460.45
791.15	462.5
791.331	343.72
791.512	409.25
791.693	470.69
791.874	482.98
792.054	575.14
792.235	446.12
792.416	335.53
792.597	411.3
792.778	474.79
792.958	370.34
793.139	448.16
793.32	345.77
793.5	411.3
793.681	433.83
793.862	370.34
794.042	364.2
794.223	329.38
794.404	376.48
794.584	313
794.765	435.88
794.945	427.68
795.126	347.81
795.306	423.59
795.487	388.77
795.667	325.29
795.848	368.29
796.028	337.57
796.209	380.58
796.389	386.72
796.57	343.72
796.75	399.01
796.93	368.29
797.111	384.68
797.291	321.19
797.471	356.01
797.652	310.95
797.832	394.92
798.012	364.2
798.192	347.81
798.373	317.09
798.553	239.27
798.733	345.77
798.913	286.37
799.093	376.48
799.274	321.19
799.454	349.86
799.634	335.53
799.814	388.77
799.994	356.01
800.174	280.23
800.354	284.33
800.534	296.61
800.714	329.38
800.894	300.71
801.074	233.13
801.254	259.75
801.434	308.9
801.614	325.29
801.794	212.65
801.974	726.69
802.154	347.81
802.334	378.53
802.514	233.13
802.693	257.7
802.873	229.03
803.053	327.33
803.233	349.86
803.413	272.04
803.592	294.57
803.772	261.8
803.952	222.89
804.131	235.18
804.311	239.27
804.491	306.85
804.67	263.85
804.85	267.94
805.03	351.91
805.209	239.27
805.389	237.22
805.568	259.75
805.748	331.43
805.928	231.08
806.107	269.99
806.287	290.47
806.466	241.32
806.646	226.98
806.825	231.08
807.004	169.64
807.184	206.5
807.363	274.09
807.543	233.13
807.722	233.13
807.901	255.65
808.081	251.56
808.26	179.88
808.439	243.37
808.619	194.22
808.798	161.45
808.977	186.02
809.156	290.47
809.336	276.13
809.515	241.32
809.694	169.64
809.873	204.46
810.052	204.46
810.231	298.66
810.411	267.94
810.59	235.18
810.769	202.41
810.948	194.22
811.127	100.01
811.306	272.04
811.485	239.27
811.664	224.94
811.843	161.45
812.022	126.63
812.201	177.83
812.38	196.26
812.559	218.79
812.737	220.84
812.916	220.84
813.095	190.12
813.274	196.26
813.453	208.55
813.632	206.5
813.811	159.4
813.989	175.78
814.168	89.77
814.347	165.54
814.526	202.41
814.704	222.89
814.883	169.64
815.062	169.64
815.24	149.16
815.419	210.6
815.598	177.83
815.776	102.06
815.955	200.36
816.133	128.68
816.312	188.07
816.49	165.54
816.669	186.02
816.847	161.45
817.026	204.46
817.204	183.98
817.383	224.94
817.561	155.3
817.74	204.46
817.918	132.78
818.097	188.07
818.275	149.16
818.453	155.3
818.632	140.97
818.81	120.49
818.988	143.02
819.167	153.26
819.345	145.06
819.523	188.07
819.701	188.07
819.879	140.97
820.058	220.84
820.236	181.93
820.414	114.34
820.592	163.5
820.77	106.15
820.948	122.54
821.127	155.3
821.305	149.16
821.483	183.98
821.661	91.82
821.839	73.39
822.017	145.06
822.195	231.08
822.373	155.3
822.551	161.45
822.729	108.2
822.907	126.63
823.085	140.97
823.262	91.82
823.44	186.02
823.618	120.49
823.796	149.16
823.974	57
824.152	167.59
824.329	198.31
824.507	140.97
824.685	136.87
824.863	151.21
825.04	132.78
825.218	210.6
825.396	108.2
825.574	126.63
825.751	102.06
825.929	132.78
826.107	97.96
826.284	165.54
826.462	165.54
826.639	138.92
826.817	147.11
826.994	106.15
827.172	36.52
827.349	163.5
827.527	132.78
827.704	91.82
827.882	138.92
828.059	108.2
828.237	57
828.414	159.4
828.591	147.11
828.769	85.67
828.946	97.96
829.124	100.01
829.301	130.73
829.478	87.72
829.655	118.44
829.833	149.16
830.01	130.73
830.187	153.26
830.364	93.87
830.542	102.06
830.719	155.3
830.896	110.25
831.073	85.67
831.25	114.34
831.427	97.96
831.604	116.39
831.782	95.91
831.959	114.34
832.136	155.3
832.313	61.1
832.49	67.24
832.667	30.38
832.844	112.3
833.021	71.34
833.198	93.87
833.374	138.92
833.551	67.24
833.728	44.71
833.905	108.2
834.082	138.92
834.259	95.91
834.436	124.58
834.612	136.87
834.789	61.1
834.966	124.58
835.143	110.25
835.319	63.15
835.496	140.97
835.673	140.97
835.85	159.4
836.026	67.24
836.203	102.06
836.38	38.57
836.556	54.95
836.733	100.01
836.909	145.06
837.086	83.63
837.262	52.91
837.439	54.95
837.616	75.43
837.792	46.76
837.968	114.34
838.145	128.68
838.321	69.29
838.498	108.2
838.674	128.68
838.851	71.34
839.027	112.3
839.203	112.3
839.38	91.82
839.556	79.53
839.732	48.81
839.909	112.3
840.085	54.95
840.261	61.1
840.437	50.86
840.614	81.58
840.79	163.5
840.966	100.01
841.142	-4.44
841.318	34.47
841.494	95.91
841.671	69.29
841.847	81.58
842.023	32.43
842.199	63.15
842.375	50.86
842.551	54.95
842.727	-0.34
842.903	110.25
843.079	-4.44
843.255	134.82
843.431	104.11
843.607	171.69
843.783	73.39
843.959	-12.63
844.134	11.95
844.31	120.49
844.486	69.29
844.662	57
844.838	85.67
845.013	63.15
845.189	132.78
845.365	93.87
845.541	52.91
845.716	102.06
845.892	48.81
846.068	75.43
846.244	-6.49
846.419	61.1
846.595	50.86
846.77	65.19
846.946	93.87
847.122	52.91
847.297	34.47
847.473	79.53
847.648	110.25
847.824	65.19
847.999	24.23
848.175	50.86
848.35	22.19
848.526	110.25
848.701	85.67
848.876	40.62
849.052	95.91
849.227	46.76
849.403	61.1
849.578	75.43
849.753	57
849.929	91.82
850.104	122.54
850.279	48.81
850.454	85.67
850.63	30.38
850.805	50.86
850.98	42.67
851.155	11.95
851.33	-2.39
851.505	26.28
851.681	85.67
851.856	63.15
852.031	93.87
852.206	26.28
852.381	63.15
852.556	104.11
852.731	89.77
852.906	18.09
853.081	32.43
853.256	130.73
853.431	73.39
853.606	18.09
853.781	-0.34
853.956	9.9
854.131	28.33
854.305	75.43
854.48	67.24
854.655	73.39
854.83	91.82
855.005	5.8
855.18	54.95
855.354	42.67
855.529	46.76
855.704	100.01
855.879	20.14
856.053	13.99
856.228	16.04
856.403	57
856.577	65.19
856.752	-49.49
856.926	28.33
857.101	5.8
857.276	57
857.45	1.71
857.625	34.47
857.799	118.44
857.974	3.75
858.148	-55.64
858.323	114.34
858.497	42.67
858.672	61.1
858.846	-4.44
859.02	44.71
859.195	59.05
859.369	18.09
859.543	85.67
859.718	112.3
859.892	16.04
860.066	40.62
860.241	52.91
860.415	18.09
860.589	57
860.763	20.14
860.938	104.11
861.112	48.81
861.286	69.29
861.46	112.3
861.634	1.71
861.808	100.01
861.982	-26.96
862.157	36.52
862.331	20.14
862.505	32.43
862.679	-6.49
862.853	18.09
863.027	-14.68
863.201	97.96
863.375	-6.49
863.549	30.38
863.722	79.53
863.896	85.67
864.07	91.82
864.244	67.24
864.418	48.81
864.592	77.48
864.766	40.62
864.939	67.24
865.113	30.38
865.287	65.19
865.461	77.48
865.634	16.04
865.808	-31.06
865.982	24.23
866.156	54.95
866.329	71.34
866.503	-8.53
866.676	11.95
866.85	85.67
867.024	-4.44
867.197	85.67
867.371	91.82
867.544	63.15
867.718	-57.68
867.891	73.39
868.065	3.75
868.238	32.43
868.412	75.43
868.585	16.04
868.759	30.38
868.932	63.15
869.105	-0.34
869.279	-37.2
869.452	46.76
869.625	73.39
869.799	1.71
869.972	-4.44
870.145	-61.78
870.319	112.3
870.492	-18.77
870.665	85.67
870.838	110.25
871.011	-26.96
871.185	-6.49
871.358	38.57
871.531	63.15
871.704	40.62
871.877	65.19
872.05	38.57
872.223	18.09
872.396	-0.34
872.569	3.75
872.742	-10.58
872.915	42.67
873.088	44.71
873.261	-20.82
873.434	71.34
873.607	26.28
873.78	61.1
873.953	-10.58
874.126	77.48
874.299	71.34
874.471	-53.59
874.644	5.8
874.817	61.1
874.99	83.63
875.163	-22.87
875.335	36.52
875.508	-10.58
875.681	65.19
875.853	-8.53
876.026	18.09
876.199	1.71
876.371	63.15
876.544	36.52
876.717	20.14
876.889	18.09
877.062	61.1
877.234	63.15
877.407	32.43
877.579	32.43
877.752	-4.44
877.924	22.19
878.097	46.76
878.269	-14.68
878.442	-31.06
878.614	-18.77
878.786	32.43
878.959	18.09
879.131	97.96
879.303	-33.11
879.476	52.91
879.648	40.62
879.82	-16.73
879.993	5.8
880.165	18.09
880.337	34.47
880.509	13.99
880.681	24.23
880.854	67.24
881.026	1.71
881.198	42.67
881.37	-4.44
881.542	-57.68
881.714	44.71
881.886	32.43
882.058	38.57
882.23	50.86
882.402	-8.53
882.574	-22.87
882.746	-10.58
882.918	79.53
883.09	-14.68
883.262	-29.01
883.434	26.28
883.606	13.99
883.778	73.39
883.95	52.91
884.122	-16.73
884.293	67.24
884.465	1.71
884.637	18.09
884.809	61.1
884.98	40.62
885.152	42.67
885.324	85.67
885.496	52.91
885.667	34.47
885.839	13.99
886.011	42.67
886.182	-39.25
886.354	57
886.525	38.57
886.697	-0.34
886.869	1.71
887.04	5.8
887.212	57
887.383	-2.39
887.555	5.8
887.726	-10.58
887.897	-51.54
888.069	-26.96
888.24	-6.49
888.412	-20.82
888.583	11.95
888.754	63.15
888.926	-26.96
889.097	26.28
889.268	42.67
889.44	7.85
889.611	7.85
889.782	3.75
889.953	-22.87
890.125	9.9
890.296	-33.11
890.467	-6.49
890.638	3.75
890.809	38.57
890.98	-26.96
891.151	85.67
891.323	-18.77
891.494	44.71
891.665	-2.39
891.836	69.29
892.007	-39.25
892.178	-18.77
892.349	7.85
892.52	11.95
892.691	7.85
892.862	32.43
893.032	-6.49
893.203	-53.59
893.374	63.15
893.545	44.71
893.716	-53.59
893.887	48.81
894.057	-39.25
894.228	-0.34
894.399	24.23
894.57	9.9
894.74	-12.63
894.911	40.62
895.082	-33.11
895.253	16.04
895.423	3.75
895.594	30.38
895.764	-6.49
895.935	5.8
896.106	36.52
896.276	7.85
896.447	87.72
896.617	22.19
896.788	18.09
896.958	-8.53
897.129	50.86
897.299	61.1
897.47	75.43
897.64	20.14
897.81	7.85
897.981	-2.39
898.151	63.15
898.322	16.04
898.492	50.86
898.662	26.28
898.832	32.43
899.003	18.09
899.173	50.86
899.343	11.95
899.513	-16.73
