Data from USB4F104151__51__12-27-31-753.txt Node

Date: Fri Mar 14 12:27:31 EDT 2025
User: louis
Spectrometer: USB4F10415
Trigger mode: 4
Integration Time (sec): 2.000000E-2
Scans to average: 1
Electric dark correction enabled: true
Nonlinearity correction enabled: false
Boxcar width: 0
XAxis mode: Wavelengths
Number of Pixels in Spectrum: 3648
>>>>>Begin Spectral Data<<<<<
178.204	-77.31
178.424	-77.31
178.644	-77.31
178.864	-79.36
179.084	-97.79
179.304	-44.54
179.524	12.8
179.744	-65.02
179.964	-13.82
180.184	33.28
180.404	37.38
180.624	18.94
180.844	-32.26
181.064	-77.31
181.283	41.47
181.503	80.38
181.723	8.7
181.943	-87.55
182.163	35.33
182.383	-22.02
182.602	4.61
182.822	70.14
183.042	-13.82
183.262	-32.26
183.482	84.48
183.701	23.04
183.921	61.95
184.141	-28.16
184.361	33.28
184.58	37.38
184.8	-32.26
185.02	64
185.239	84.48
185.459	39.42
185.679	29.18
185.898	0.51
186.118	78.33
186.338	-5.63
186.557	76.29
186.777	14.85
186.997	-13.82
187.216	-17.92
187.436	53.76
187.655	-5.63
187.875	20.99
188.095	68.09
188.314	4.61
188.534	-11.78
188.753	88.57
188.973	-1.54
189.192	68.09
189.412	-32.26
189.631	76.29
189.851	-40.45
190.07	10.75
190.29	27.14
190.509	-1.54
190.729	8.7
190.948	55.81
191.168	74.24
191.387	-13.82
191.607	-5.63
191.826	76.29
192.045	41.47
192.265	41.47
192.484	-28.16
192.704	41.47
192.923	-17.92
193.142	49.66
193.362	76.29
193.581	20.99
193.8	47.62
194.02	2.56
194.239	-19.97
194.458	12.8
194.678	41.47
194.897	-7.68
195.116	-22.02
195.335	94.72
195.555	0.51
195.774	8.7
195.993	61.95
196.212	59.9
196.432	53.76
196.651	25.09
196.87	33.28
197.089	70.14
197.308	-19.97
197.528	12.8
197.747	68.09
197.966	-36.35
198.185	92.67
198.404	4.61
198.623	102.91
198.842	49.66
199.062	-36.35
199.281	29.18
199.5	-19.97
199.719	72.19
199.938	53.76
200.157	-30.21
200.376	4.61
200.595	-36.35
200.814	6.66
201.033	27.14
201.252	-3.58
201.471	64
201.69	96.77
201.909	55.81
202.128	61.95
202.347	72.19
202.566	23.04
202.785	-11.78
203.004	25.09
203.223	107.01
203.442	-9.73
203.661	-5.63
203.879	20.99
204.098	82.43
204.317	43.52
204.536	-28.16
204.755	6.66
204.974	10.75
205.193	-24.06
205.411	12.8
205.63	61.95
205.849	16.9
206.068	-24.06
206.287	27.14
206.505	84.48
206.724	37.38
206.943	-30.21
207.162	-7.68
207.381	-7.68
207.599	12.8
207.818	8.7
208.037	-36.35
208.255	33.28
208.474	2.56
208.693	37.38
208.911	49.66
209.13	45.57
209.349	-50.69
209.567	98.81
209.786	43.52
210.005	39.42
210.223	29.18
210.442	31.23
210.661	-36.35
210.879	78.33
211.098	-13.82
211.316	0.51
211.535	0.51
211.753	111.1
211.972	68.09
212.191	39.42
212.409	-32.26
212.628	10.75
212.846	16.9
213.065	111.1
213.283	10.75
213.502	27.14
213.72	88.57
213.938	68.09
214.157	-15.87
214.375	43.52
214.594	-26.11
214.812	74.24
215.031	53.76
215.249	14.85
215.467	-22.02
215.686	31.23
215.904	51.71
216.122	-7.68
216.341	115.2
216.559	-19.97
216.778	0.51
216.996	47.62
217.214	39.42
217.432	59.9
217.651	23.04
217.869	35.33
218.087	-13.82
218.306	6.66
218.524	80.38
218.742	31.23
218.96	16.9
219.179	-17.92
219.397	12.8
219.615	18.94
219.833	80.38
220.051	-13.82
220.27	0.51
220.488	14.85
220.706	39.42
220.924	-19.97
221.142	47.62
221.36	35.33
221.578	25.09
221.796	33.28
222.015	78.33
222.233	8.7
222.451	74.24
222.669	-36.35
222.887	78.33
223.105	86.53
223.323	4.61
223.541	-17.92
223.759	10.75
223.977	61.95
224.195	18.94
224.413	23.04
224.631	23.04
224.849	57.86
225.067	49.66
225.285	51.71
225.503	39.42
225.721	-7.68
225.939	20.99
226.157	20.99
226.375	35.33
226.592	0.51
226.81	31.23
227.028	31.23
227.246	74.24
227.464	8.7
227.682	49.66
227.9	20.99
228.117	59.9
228.335	109.05
228.553	92.67
228.771	41.47
228.989	66.05
229.206	29.18
229.424	10.75
229.642	16.9
229.86	33.28
230.077	61.95
230.295	45.57
230.513	29.18
230.731	90.62
230.948	-5.63
231.166	6.66
231.384	25.09
231.601	-13.82
231.819	51.71
232.037	-58.88
232.254	18.94
232.472	20.99
232.689	-5.63
232.907	12.8
233.125	-5.63
233.342	33.28
233.56	-7.68
233.777	55.81
233.995	-56.83
234.213	6.66
234.43	25.09
234.648	-7.68
234.865	20.99
235.083	39.42
235.3	-17.92
235.518	-9.73
235.735	57.86
235.953	37.38
236.17	2.56
236.388	-36.35
236.605	74.24
236.822	84.48
237.04	53.76
237.257	16.9
237.475	53.76
237.692	-54.78
237.909	78.33
238.127	27.14
238.344	8.7
238.562	-1.54
238.779	33.28
238.996	-32.26
239.214	35.33
239.431	29.18
239.648	-48.64
239.865	-42.5
240.083	76.29
240.3	8.7
240.517	57.86
240.735	45.57
240.952	72.19
241.169	41.47
241.386	27.14
241.603	37.38
241.821	-5.63
242.038	4.61
242.255	43.52
242.472	59.9
242.689	2.56
242.907	57.86
243.124	-19.97
243.341	41.47
243.558	16.9
243.775	23.04
243.992	70.14
244.209	49.66
244.426	29.18
244.643	14.85
244.86	27.14
245.078	123.39
245.295	29.18
245.512	33.28
245.729	6.66
245.946	16.9
246.163	14.85
246.38	16.9
246.597	4.61
246.814	18.94
247.031	-13.82
247.248	18.94
247.464	27.14
247.681	-9.73
247.898	92.67
248.115	84.48
248.332	-11.78
248.549	53.76
248.766	64
248.983	66.05
249.2	-24.06
249.417	20.99
249.633	2.56
249.85	41.47
250.067	53.76
250.284	-19.97
250.501	37.38
250.717	2.56
250.934	-3.58
251.151	14.85
251.368	61.95
251.585	82.43
251.801	78.33
252.018	14.85
252.235	-26.11
252.451	-11.78
252.668	-28.16
252.885	27.14
253.102	31.23
253.318	33.28
253.535	-22.02
253.752	-22.02
253.968	12.8
254.185	37.38
254.401	-1.54
254.618	-7.68
254.835	16.9
255.051	80.38
255.268	14.85
255.484	35.33
255.701	-1.54
255.917	-1.54
256.134	18.94
256.351	12.8
256.567	20.99
256.784	23.04
257	-7.68
257.217	12.8
257.433	76.29
257.65	-1.54
257.866	78.33
258.082	14.85
258.299	4.61
258.515	131.58
258.732	41.47
258.948	-34.3
259.165	-22.02
259.381	51.71
259.597	25.09
259.814	43.52
260.03	23.04
260.246	-15.87
260.463	86.53
260.679	41.47
260.895	-34.3
261.112	4.61
261.328	-15.87
261.544	61.95
261.761	25.09
261.977	-30.21
262.193	123.39
262.409	-1.54
262.626	8.7
262.842	41.47
263.058	41.47
263.274	-9.73
263.49	53.76
263.707	41.47
263.923	-32.26
264.139	0.51
264.355	0.51
264.571	27.14
264.787	25.09
265.004	37.38
265.22	16.9
265.436	-13.82
265.652	29.18
265.868	41.47
266.084	-3.58
266.3	35.33
266.516	39.42
266.732	57.86
266.948	10.75
267.164	66.05
267.38	49.66
267.596	20.99
267.812	131.58
268.028	47.62
268.244	47.62
268.46	29.18
268.676	45.57
268.892	100.86
269.108	33.28
269.324	-36.35
269.54	-28.16
269.756	43.52
269.972	2.56
270.188	119.29
270.403	-7.68
270.619	43.52
270.835	-3.58
271.051	59.9
271.267	-1.54
271.483	82.43
271.698	47.62
271.914	39.42
272.13	74.24
272.346	84.48
272.562	-28.16
272.777	-11.78
272.993	16.9
273.209	10.75
273.425	45.57
273.64	12.8
273.856	111.1
274.072	10.75
274.287	-40.45
274.503	23.04
274.719	-34.3
274.934	51.71
275.15	-32.26
275.366	27.14
275.581	-13.82
275.797	70.14
276.012	20.99
276.228	-5.63
276.444	6.66
276.659	88.57
276.875	35.33
277.09	98.81
277.306	-1.54
277.521	59.9
277.737	33.28
277.952	96.77
278.168	86.53
278.383	49.66
278.599	-1.54
278.814	68.09
279.03	-36.35
279.245	76.29
279.461	59.9
279.676	37.38
279.892	39.42
280.107	0.51
280.322	39.42
280.538	39.42
280.753	-40.45
280.969	25.09
281.184	31.23
281.399	59.9
281.615	47.62
281.83	37.38
282.045	-44.54
282.26	8.7
282.476	76.29
282.691	84.48
282.906	45.57
283.122	14.85
283.337	4.61
283.552	100.86
283.767	72.19
283.983	12.8
284.198	-5.63
284.413	16.9
284.628	-5.63
284.843	80.38
285.058	37.38
285.274	49.66
285.489	-38.4
285.704	82.43
285.919	8.7
286.134	25.09
286.349	47.62
286.564	53.76
286.779	88.57
286.995	68.09
287.21	-114.17
287.425	27.14
287.64	27.14
287.855	-19.97
288.07	8.7
288.285	33.28
288.5	49.66
288.715	72.19
288.93	31.23
289.145	-13.82
289.36	53.76
289.575	0.51
289.79	43.52
290.004	16.9
290.219	23.04
290.434	20.99
290.649	43.52
290.864	2.56
291.079	14.85
291.294	27.14
291.509	55.81
291.724	66.05
291.938	35.33
292.153	12.8
292.368	10.75
292.583	37.38
292.798	-17.92
293.012	6.66
293.227	18.94
293.442	6.66
293.657	35.33
293.871	59.9
294.086	-1.54
294.301	39.42
294.516	80.38
294.73	84.48
294.945	84.48
295.16	86.53
295.374	39.42
295.589	-1.54
295.804	-30.21
296.018	-50.69
296.233	49.66
296.447	55.81
296.662	43.52
296.877	66.05
297.091	-1.54
297.306	35.33
297.52	49.66
297.735	86.53
297.949	31.23
298.164	51.71
298.378	-11.78
298.593	37.38
298.807	33.28
299.022	55.81
299.236	98.81
299.451	61.95
299.665	-13.82
299.88	33.28
300.094	-30.21
300.309	78.33
300.523	-1.54
300.737	10.75
300.952	0.51
301.166	76.29
301.381	51.71
301.595	51.71
301.809	61.95
302.024	-11.78
302.238	39.42
302.452	-3.58
302.667	74.24
302.881	57.86
303.095	74.24
303.309	20.99
303.524	41.47
303.738	16.9
303.952	-36.35
304.166	82.43
304.381	37.38
304.595	74.24
304.809	33.28
305.023	66.05
305.237	-54.78
305.452	12.8
305.666	31.23
305.88	64
306.094	10.75
306.308	96.77
306.522	-17.92
306.736	109.05
306.95	53.76
307.164	6.66
307.379	49.66
307.593	111.1
307.807	29.18
308.021	88.57
308.235	76.29
308.449	59.9
308.663	18.94
308.877	12.8
309.091	-11.78
309.305	51.71
309.519	-1.54
309.733	59.9
309.947	-26.11
310.161	82.43
310.374	61.95
310.588	39.42
310.802	-26.11
311.016	16.9
311.23	86.53
311.444	-56.83
311.658	27.14
311.872	76.29
312.085	47.62
312.299	72.19
312.513	94.72
312.727	25.09
312.941	-38.4
313.154	-32.26
313.368	18.94
313.582	-3.58
313.796	23.04
314.009	41.47
314.223	68.09
314.437	29.18
314.651	14.85
314.864	84.48
315.078	-32.26
315.292	35.33
315.505	16.9
315.719	33.28
315.933	10.75
316.146	16.9
316.36	-62.98
316.573	55.81
316.787	-5.63
317.001	47.62
317.214	2.56
317.428	25.09
317.641	25.09
317.855	14.85
318.068	49.66
318.282	115.2
318.495	-19.97
318.709	39.42
318.922	47.62
319.136	16.9
319.349	39.42
319.563	37.38
319.776	82.43
319.99	-1.54
320.203	-9.73
320.417	6.66
320.63	-60.93
320.843	84.48
321.057	49.66
321.27	33.28
321.483	0.51
321.697	76.29
321.91	64
322.124	23.04
322.337	41.47
322.55	2.56
322.763	29.18
322.977	-30.21
323.19	64
323.403	45.57
323.617	55.81
323.83	88.57
324.043	33.28
324.256	12.8
324.469	31.23
324.683	-7.68
324.896	37.38
325.109	31.23
325.322	27.14
325.535	72.19
325.748	133.63
325.962	-9.73
326.175	39.42
326.388	41.47
326.601	59.9
326.814	51.71
327.027	96.77
327.24	23.04
327.453	0.51
327.666	57.86
327.879	53.76
328.092	39.42
328.305	76.29
328.518	18.94
328.731	47.62
328.944	29.18
329.157	66.05
329.37	-15.87
329.583	90.62
329.796	135.68
330.009	8.7
330.222	25.09
330.435	16.9
330.648	12.8
330.861	16.9
331.073	55.81
331.286	35.33
331.499	82.43
331.712	61.95
331.925	25.09
332.138	-1.54
332.35	47.62
332.563	31.23
332.776	137.73
332.989	88.57
333.202	4.61
333.414	49.66
333.627	84.48
333.84	27.14
334.053	61.95
334.265	70.14
334.478	-7.68
334.691	127.49
334.903	25.09
335.116	33.28
335.329	98.81
335.541	4.61
335.754	8.7
335.966	104.96
336.179	57.86
336.392	-7.68
336.604	98.81
336.817	20.99
337.029	94.72
337.242	66.05
337.454	70.14
337.667	18.94
337.88	127.49
338.092	-11.78
338.305	68.09
338.517	37.38
338.729	49.66
338.942	70.14
339.154	78.33
339.367	55.81
339.579	84.48
339.792	-48.64
340.004	23.04
340.217	-11.78
340.429	66.05
340.641	-19.97
340.854	94.72
341.066	2.56
341.278	20.99
341.491	10.75
341.703	27.14
341.915	16.9
342.128	66.05
342.34	57.86
342.552	78.33
342.764	20.99
342.977	37.38
343.189	80.38
343.401	43.52
343.613	23.04
343.826	94.72
344.038	-1.54
344.25	39.42
344.462	-30.21
344.674	41.47
344.886	-5.63
345.099	25.09
345.311	78.33
345.523	107.01
345.735	-3.58
345.947	39.42
346.159	-40.45
346.371	68.09
346.583	49.66
346.795	160.25
347.007	-13.82
347.219	8.7
347.431	-13.82
347.643	66.05
347.855	49.66
348.067	74.24
348.279	57.86
348.491	72.19
348.703	-19.97
348.915	4.61
349.127	68.09
349.339	66.05
349.551	23.04
349.763	49.66
349.975	0.51
350.187	31.23
350.399	18.94
350.61	39.42
350.822	-3.58
351.034	-17.92
351.246	12.8
351.458	37.38
351.669	-9.73
351.881	35.33
352.093	27.14
352.305	68.09
352.517	-24.06
352.728	86.53
352.94	68.09
353.152	55.81
353.363	64
353.575	68.09
353.787	98.81
353.999	76.29
354.21	111.1
354.422	64
354.633	39.42
354.845	59.9
355.057	27.14
355.268	59.9
355.48	10.75
355.692	23.04
355.903	78.33
356.115	-9.73
356.326	25.09
356.538	39.42
356.749	31.23
356.961	70.14
357.172	-9.73
357.384	-11.78
357.595	51.71
357.807	98.81
358.018	16.9
358.23	98.81
358.441	29.18
358.653	37.38
358.864	86.53
359.075	35.33
359.287	59.9
359.498	94.72
359.709	20.99
359.921	139.77
360.132	86.53
360.344	31.23
360.555	59.9
360.766	25.09
360.977	29.18
361.189	143.87
361.4	-13.82
361.611	8.7
361.823	64
362.034	53.76
362.245	39.42
362.456	72.19
362.667	107.01
362.879	41.47
363.09	55.81
363.301	80.38
363.512	27.14
363.723	0.51
363.935	43.52
364.146	86.53
364.357	18.94
364.568	68.09
364.779	68.09
364.99	55.81
365.201	100.86
365.412	18.94
365.623	-50.69
365.834	98.81
366.045	0.51
366.256	33.28
366.467	39.42
366.678	68.09
366.889	-3.58
367.1	84.48
367.311	43.52
367.522	88.57
367.733	84.48
367.944	29.18
368.155	6.66
368.366	45.57
368.577	135.68
368.788	-22.02
368.999	64
369.209	74.24
369.42	100.86
369.631	131.58
369.842	121.34
370.053	-28.16
370.264	12.8
370.474	4.61
370.685	174.59
370.896	61.95
371.107	57.86
371.317	41.47
371.528	92.67
371.739	6.66
371.95	29.18
372.16	-1.54
372.371	80.38
372.582	51.71
372.792	82.43
373.003	57.86
373.214	-11.78
373.424	104.96
373.635	39.42
373.846	129.53
374.056	31.23
374.267	37.38
374.477	31.23
374.688	-7.68
374.898	20.99
375.109	59.9
375.319	88.57
375.53	49.66
375.74	14.85
375.951	33.28
376.161	39.42
376.372	109.05
376.582	27.14
376.793	98.81
377.003	-9.73
377.214	53.76
377.424	68.09
377.635	66.05
377.845	113.15
378.055	90.62
378.266	61.95
378.476	84.48
378.686	-30.21
378.897	-1.54
379.107	45.57
379.317	35.33
379.528	8.7
379.738	86.53
379.948	84.48
380.158	76.29
380.369	55.81
380.579	-38.4
380.789	-5.63
380.999	129.53
381.21	-11.78
381.42	78.33
381.63	18.94
381.84	76.29
382.05	20.99
382.261	55.81
382.471	49.66
382.681	59.9
382.891	129.53
383.101	94.72
383.311	2.56
383.521	74.24
383.731	61.95
383.941	61.95
384.151	-26.11
384.361	39.42
384.571	-17.92
384.781	23.04
384.991	76.29
385.201	115.2
385.411	43.52
385.621	84.48
385.831	82.43
386.041	100.86
386.251	86.53
386.461	70.14
386.671	84.48
386.881	92.67
387.091	31.23
387.301	68.09
387.511	76.29
387.72	84.48
387.93	-24.06
388.14	-15.87
388.35	94.72
388.56	109.05
388.769	127.49
388.979	139.77
389.189	94.72
389.399	90.62
389.609	123.39
389.818	35.33
390.028	86.53
390.238	96.77
390.447	51.71
390.657	47.62
390.867	23.04
391.076	37.38
391.286	2.56
391.496	14.85
391.705	8.7
391.915	92.67
392.125	12.8
392.334	47.62
392.544	139.77
392.753	88.57
392.963	88.57
393.172	94.72
393.382	78.33
393.591	29.18
393.801	51.71
394.01	66.05
394.22	55.81
394.429	90.62
394.639	86.53
394.848	78.33
395.058	104.96
395.267	49.66
395.477	53.76
395.686	29.18
395.895	213.5
396.105	14.85
396.314	68.09
396.524	133.63
396.733	74.24
396.942	117.25
397.152	78.33
397.361	76.29
397.57	197.12
397.78	49.66
397.989	72.19
398.198	98.81
398.407	64
398.617	137.73
398.826	145.92
399.035	107.01
399.244	98.81
399.453	117.25
399.663	113.15
399.872	76.29
400.081	131.58
400.29	154.11
400.499	121.34
400.708	139.77
400.917	90.62
401.127	100.86
401.336	139.77
401.545	125.44
401.754	109.05
401.963	64
402.172	121.34
402.381	172.54
402.59	117.25
402.799	141.82
403.008	133.63
403.217	104.96
403.426	143.87
403.635	96.77
403.844	137.73
404.053	203.26
404.262	107.01
404.471	170.49
404.68	152.06
404.888	162.3
405.097	107.01
405.306	166.4
405.515	166.4
405.724	188.93
405.933	141.82
406.142	209.4
406.35	197.12
406.559	213.5
406.768	195.07
406.977	254.46
407.185	215.55
407.394	207.36
407.603	199.16
407.812	330.23
408.02	205.31
408.229	215.55
408.438	231.93
408.646	225.79
408.855	203.26
409.064	248.32
409.272	272.89
409.481	322.04
409.69	311.8
409.898	283.13
410.107	383.48
410.315	334.33
410.524	315.9
410.733	305.66
410.941	299.52
411.15	463.35
411.358	412.15
411.567	375.29
411.775	387.58
411.984	479.74
412.192	459.26
412.401	393.72
412.609	545.27
412.818	518.65
413.026	426.49
413.234	520.7
413.443	655.86
413.651	586.23
413.86	616.95
414.068	678.39
414.276	629.24
414.485	696.82
414.693	723.44
414.901	793.08
415.11	745.97
415.318	694.77
415.526	831.99
415.734	784.88
415.943	866.8
416.151	905.71
416.359	913.91
416.567	942.58
416.776	971.25
416.984	1083.89
417.192	1030.64
417.4	1065.46
417.608	1047.02
417.817	1233.39
418.025	1137.13
418.233	1257.96
418.441	1235.44
418.649	1360.36
418.857	1307.12
419.065	1354.22
419.273	1325.55
419.481	1442.28
419.689	1520.1
419.897	1626.6
420.105	1556.97
420.313	1622.5
420.521	1702.37
420.729	1671.65
420.937	1761.77
421.145	1890.79
421.353	1966.56
421.561	2075.1
421.769	2138.59
421.977	2079.2
422.185	2212.32
422.393	2286.05
422.601	2470.36
422.809	2400.73
423.017	2523.61
423.224	2644.44
423.432	2638.3
423.64	2738.65
423.848	2859.48
424.056	2830.8
424.263	3090.9
424.471	3027.41
424.679	3127.76
424.887	3340.75
425.094	3453.39
425.302	3424.72
425.51	3516.87
425.718	3637.7
425.925	3707.34
426.133	3903.94
426.341	4078.02
426.548	4239.81
426.756	4151.74
426.964	4172.22
427.171	4510.14
427.379	4620.73
427.586	4790.71
427.794	4893.11
428.001	4989.36
428.209	5300.66
428.417	5147.06
428.624	5560.75
428.832	5552.56
429.039	5556.65
429.247	5468.59
429.454	6205.86
429.662	6562.2
429.869	6023.59
430.076	6478.24
430.284	6351.26
430.491	6515.1
430.699	7043.48
430.906	7043.48
431.114	7246.23
431.321	7405.97
431.528	7600.52
431.736	8083.84
431.943	8235.39
432.15	8155.52
432.358	8145.28
432.565	8700.28
432.772	8647.04
432.979	8931.7
433.187	9257.33
433.394	9331.06
433.601	10045.8
433.808	9855.34
434.016	10070.37
434.223	10537.31
434.43	11026.78
434.637	10617.18
434.844	11290.96
435.052	11702.61
435.259	11575.63
435.466	11708.75
435.673	11520.34
435.88	12261.7
436.087	12874.04
436.294	12929.34
436.501	12542.27
436.708	12966.2
436.915	13429.04
437.122	13920.56
437.329	14008.62
437.537	14340.39
437.743	14410.02
437.95	14371.11
438.157	15272.21
438.364	15747.34
438.571	15552.79
438.778	15806.73
438.985	17381.62
439.192	16664.83
439.399	16750.85
439.606	16806.14
439.813	17760.5
440.02	18819.3
440.227	18249.96
440.433	18290.92
440.64	18987.23
440.847	18573.54
441.054	19046.62
441.261	20371.66
441.467	20625.61
441.674	20840.64
441.881	21641.4
442.088	21502.14
442.294	21178.56
442.501	21674.17
442.708	22220.97
442.914	23337.12
443.121	24369.29
443.328	23462.04
443.534	25180.29
443.741	24455.31
443.948	24203.41
444.154	26022
444.361	25806.97
444.568	25907.32
444.774	25847.93
444.981	26398.83
445.187	27013.22
445.394	28012.63
445.6	28135.51
445.807	30429.23
446.013	29194.31
446.22	29825.08
446.426	30777.39
446.633	30914.6
446.839	32344.08
447.046	30775.34
447.252	32344.08
447.459	32663.57
447.665	32448.53
447.871	33929.21
448.078	35936.22
448.284	33718.27
448.491	34476.02
448.697	36227.03
448.903	36464.6
449.11	36700.11
449.316	36005.85
449.522	36976.59
449.728	37742.53
449.935	38234.04
450.141	38105.02
450.347	39241.64
450.553	37658.56
450.76	38555.57
450.966	39620.52
451.172	39329.7
451.378	40279.96
451.584	39133.1
451.791	40062.88
451.997	40241.05
452.203	40761.23
452.409	40806.29
452.615	40753.04
452.821	39260.07
453.027	38707.12
453.233	40923.02
453.44	39045.04
453.646	39428.01
453.852	39911.33
454.058	40466.33
454.264	39182.25
454.47	40069.02
454.676	39276.46
454.882	40566.68
455.088	37367.75
455.294	37541.83
455.5	38033.34
455.705	38653.87
455.911	37347.27
456.117	36061.15
456.323	35909.6
456.529	34400.24
456.735	35856.35
456.941	34646
457.147	33873.92
457.352	33118.21
457.558	32796.68
457.764	32888.84
457.97	32194.58
458.176	31430.69
458.381	31610.91
458.587	30111.8
458.793	29880.38
458.999	28403.79
459.204	30447.66
459.41	29763.64
459.616	27525.21
459.821	27752.54
460.027	27506.78
460.233	26908.77
460.438	25702.52
460.644	26026.1
460.85	24897.67
461.055	24746.12
461.261	24293.52
461.466	22610.09
461.672	21813.43
461.878	23580.82
462.083	22040.75
462.289	21227.71
462.494	21057.73
462.7	20328.65
462.905	19646.68
463.111	20469.96
463.316	20603.08
463.522	20048.08
463.727	20203.72
463.932	20291.79
464.138	19679.44
464.343	19742.93
464.549	19362.01
464.754	20082.89
464.959	19912.91
465.165	19994.83
465.37	18680.03
465.575	18151.66
465.781	19128.54
465.986	19214.55
466.191	18602.21
466.397	17950.96
466.602	17142.01
466.807	17862.9
467.012	17936.62
467.218	18079.98
467.423	17651.95
467.628	17838.32
467.833	18292.97
468.038	17983.73
468.244	17086.72
468.449	17832.18
468.654	17443.06
468.859	16937.21
469.064	17242.36
469.269	16611.59
469.474	16804.1
469.679	17004.8
469.885	16421.13
470.09	16851.2
470.295	16550.15
470.5	16042.25
470.705	16367.88
470.91	15960.33
471.115	16075.02
471.32	16220.42
471.525	16066.83
471.73	15384.85
471.935	15446.29
472.139	14952.73
472.344	15155.48
472.549	14897.44
472.754	14844.19
472.959	14702.88
473.164	14418.21
473.369	14219.56
473.574	14704.93
473.778	14493.99
473.983	14117.16
474.188	14094.63
474.393	13685.04
474.598	13844.78
474.802	13693.23
475.007	13529.39
475.212	13779.25
475.417	13093.18
475.621	12915
475.826	13158.71
476.031	12935.48
476.235	12507.46
476.44	13001.02
476.645	12403.01
476.849	12472.64
477.054	12269.89
477.259	12198.21
477.463	12171.59
477.668	11665.74
477.872	11858.25
478.077	11815.24
478.282	11622.73
478.486	11600.21
478.691	11354.45
478.895	11549.01
479.1	11159.89
479.304	11428.18
479.509	10957.14
479.713	11176.28
479.918	10725.72
480.122	10727.77
480.326	10957.14
480.531	11037.02
480.735	10627.42
480.94	10774.88
481.144	11057.5
481.348	10623.33
481.553	10482.02
481.757	10340.71
481.961	10600.8
482.166	10750.3
482.37	10434.91
482.574	10277.22
482.778	10277.22
482.983	10533.22
483.187	10512.74
483.391	10535.26
483.595	10275.17
483.8	10418.53
484.004	10477.92
484.208	10543.46
484.412	10367.33
484.616	10520.93
484.821	10506.59
485.025	10477.92
485.229	10754.4
485.433	10383.71
485.637	10504.54
485.841	10379.62
486.045	10266.98
486.249	10473.82
486.453	10133.86
486.657	10434.91
486.861	10561.89
487.065	10340.71
487.269	10506.59
487.473	10228.07
487.677	10656.09
487.881	10527.07
488.085	10297.7
488.289	10543.46
488.493	10539.36
488.697	10598.75
488.901	10588.51
489.105	10592.61
489.309	10432.86
489.512	10565.98
489.716	10617.18
489.92	10715.48
490.124	10502.5
490.328	10715.48
490.531	10721.63
490.735	10725.72
490.939	10787.16
491.143	10717.53
491.346	10498.4
491.55	10905.95
491.754	10971.48
491.958	10854.75
492.161	11075.93
492.365	11034.97
492.569	10750.3
492.772	10791.26
492.976	11104.6
493.18	11190.61
493.383	11340.11
493.587	11372.88
493.79	11561.3
493.994	11252.05
494.197	11407.7
494.401	11553.1
494.605	11546.96
494.808	11716.94
495.012	11688.27
495.215	11839.82
495.419	11997.51
495.622	11821.39
495.825	12052.81
496.029	12140.87
496.232	12183.88
496.436	12376.39
496.639	12634.43
496.843	12620.1
497.046	12691.77
497.249	12945.72
497.453	12849.47
497.656	13166.9
497.859	13211.96
498.063	13191.48
498.266	13697.33
498.469	13519.15
498.673	13660.46
498.876	14063.91
499.079	14078.25
499.282	13869.36
499.485	14457.12
499.689	14487.84
499.892	14510.37
500.095	14362.92
500.298	15018.27
500.501	14917.92
500.705	15171.86
500.908	15354.13
501.111	15616.27
501.314	15882.51
501.517	15724.82
501.72	16228.62
501.923	16183.56
502.126	16513.28
502.329	16642.31
502.532	16824.58
502.735	16947.45
502.938	17199.35
503.141	17420.53
503.344	17262.84
503.547	17533.17
503.75	17973.49
503.953	17866.99
504.156	18256.11
504.359	18233.58
504.562	18432.23
504.765	19032.29
504.968	19128.54
505.17	19413.21
505.373	19308.76
505.576	19871.95
505.779	19982.54
505.982	19990.73
506.185	20523.21
506.387	20547.78
506.59	20562.12
506.793	21172.41
506.996	20957.38
507.198	21557.43
507.401	21133.5
507.604	21690.55
507.807	21971.12
508.009	22118.57
508.212	22513.83
508.415	22714.53
508.617	22845.6
508.82	22849.7
509.022	22964.39
509.225	23640.22
509.428	23869.59
509.63	23951.51
509.833	24211.6
510.035	24656.01
510.238	24574.09
510.44	24623.24
510.643	25411.71
510.845	25223.3
511.048	25192.58
511.25	25890.93
511.453	25753.72
511.655	26495.08
511.858	26396.78
512.06	26531.95
512.262	27070.56
512.465	27318.37
512.667	27310.18
512.87	28076.12
513.072	28084.31
513.274	28436.56
513.477	28465.23
513.679	28842.06
513.881	29491.26
514.084	29311.04
514.286	29599.8
514.488	29519.93
514.69	30556.21
514.893	30429.23
515.095	30603.31
515.297	31260.71
515.499	30902.31
515.701	31471.65
515.904	31871
516.106	31928.34
516.308	32415.76
516.51	32415.76
516.712	32356.37
516.914	33054.73
517.116	33456.13
517.318	33681.41
517.52	33751.04
517.722	33843.2
517.925	34621.42
518.127	34797.55
518.329	35262.44
518.531	35112.94
518.733	35727.33
518.935	35461.09
519.136	35966.94
519.338	36364.25
519.54	36476.88
519.742	36802.51
519.944	36802.51
520.146	37590.98
520.348	37693.38
520.55	37916.61
520.752	37908.41
520.954	39002.03
521.155	38557.62
521.357	38938.54
521.559	39110.57
521.761	39649.19
521.963	39903.14
522.164	39774.11
522.366	40030.11
522.568	40662.93
522.77	41000.85
522.971	41340.81
523.173	41031.57
523.375	41346.95
523.576	41656.2
523.778	41973.63
523.98	42016.64
524.181	42313.59
524.383	42354.55
524.584	42590.07
524.786	42858.35
524.988	42831.73
525.189	43102.06
525.391	43450.22
525.592	43765.6
525.794	43425.64
525.995	44269.4
526.197	44132.19
526.398	43829.09
526.6	44275.55
526.801	44779.35
527.003	44670.81
527.204	44781.4
527.406	45225.81
527.607	45137.74
527.808	45559.62
528.01	45072.21
528.211	45182.8
528.412	46583.61
528.614	45918.02
528.815	46001.99
529.016	46458.68
529.218	46214.97
529.419	46458.68
529.62	46102.34
529.822	45582.15
530.023	46239.55
530.224	46284.61
530.425	46698.3
530.626	46452.54
530.828	46448.44
531.029	47226.67
531.23	46450.49
531.431	46817.08
531.632	46651.19
531.833	47116.08
532.035	46761.78
532.236	47232.82
532.437	47161.14
532.638	46794.55
532.839	47580.97
533.04	47517.48
533.241	47071.03
533.442	47675.18
533.643	47804.2
533.844	47845.16
534.045	47333.17
534.246	46835.51
534.447	47394.6
534.648	47836.97
534.849	47945.51
535.05	47218.48
535.251	47806.25
535.451	47304.49
535.652	48131.87
535.853	47245.1
536.054	47456.04
536.255	47775.53
536.456	47107.89
536.657	48244.51
536.857	47847.21
537.058	47249.2
537.259	47812.39
537.46	47570.73
537.66	47570.73
537.861	47763.24
538.062	47128.37
538.263	47703.85
538.463	47337.26
538.664	47359.79
538.865	47238.96
539.065	48037.67
539.266	47187.76
539.466	47775.53
539.667	47118.13
539.868	48107.3
540.068	47384.36
540.269	47531.82
540.469	47607.59
540.67	47116.08
540.87	47263.53
541.071	47607.59
541.271	47804.2
541.472	47423.28
541.672	47357.74
541.873	47318.83
542.073	46817.08
542.274	48029.48
542.474	47124.27
542.675	47292.21
542.875	47767.34
543.075	47830.82
543.276	46999.35
543.476	47988.52
543.676	47259.44
543.877	47466.28
544.077	47796.01
544.277	47587.11
544.478	47470.38
544.678	47546.15
544.878	47404.84
545.078	47222.58
545.279	46878.52
545.479	47335.21
545.679	47636.27
545.879	47202.1
546.079	46974.77
546.28	47339.31
546.48	47038.26
546.68	47064.88
546.88	47261.49
547.08	47144.75
547.28	46796.6
547.48	46509.88
547.68	47587.11
547.88	47335.21
548.081	47085.36
548.281	47038.26
548.481	47157.04
548.681	47087.41
548.881	47296.3
549.081	47472.43
549.28	46997.3
549.48	46700.34
549.68	47195.95
549.88	47603.5
550.08	46980.92
550.28	47099.7
550.48	46901.04
550.68	47560.49
550.88	47001.39
551.08	46767.93
551.279	46825.27
551.479	46845.75
551.679	46821.17
551.879	46923.57
552.079	47460.14
552.278	46661.43
552.478	47042.35
552.678	46905.14
552.878	46833.46
553.077	47025.97
553.277	46503.74
553.477	47175.47
553.676	46667.58
553.876	46843.7
554.076	46387
554.275	46763.83
554.475	46047.04
554.674	46624.57
554.874	46825.27
555.074	46491.45
555.273	46948.15
555.473	46886.71
555.672	46337.85
555.872	46544.7
556.071	46634.81
556.271	46567.23
556.47	46546.75
556.67	46182.21
556.869	46341.95
557.068	46567.23
557.268	45930.31
557.467	45881.16
557.667	46169.92
557.866	45725.51
558.065	46141.25
558.265	46038.85
558.464	45756.23
558.663	46180.16
558.863	45477.71
559.062	46374.72
559.261	45741.89
559.461	46051.14
559.66	45242.19
559.859	45875.01
560.058	45002.58
560.258	45606.73
560.457	44787.54
560.656	45514.57
560.855	45385.55
561.054	45428.55
561.253	45170.51
561.453	45444.94
561.652	45102.93
561.851	45467.47
562.05	45391.69
562.249	44617.56
562.448	45274.96
562.647	45133.65
562.846	44951.38
563.045	44748.63
563.244	44263.26
563.443	44945.23
563.642	44318.56
563.841	44525.4
564.04	44697.43
564.239	45092.69
564.438	44435.29
564.637	44531.54
564.836	44328.8
565.035	43908.96
565.234	44500.82
565.432	43978.59
565.631	43990.88
565.83	44171.1
566.029	43714.4
566.228	43595.62
566.427	43515.75
566.625	43712.36
566.824	43188.08
567.023	43368.3
567.222	42768.24
567.42	43833.19
567.619	42915.7
567.818	43468.65
568.016	42909.55
568.215	43616.1
568.414	42852.21
568.612	43147.12
568.811	42749.81
569.01	43046.77
569.208	42684.28
569.407	42583.93
569.605	42215.29
569.804	42688.37
570.002	42024.83
570.201	42418.04
570.4	41885.57
570.598	42194.81
570.797	41731.97
570.995	41787.27
571.193	41443.21
571.392	42366.84
571.59	41748.35
571.789	41717.64
571.987	41439.11
572.186	41428.87
572.384	41197.45
572.582	41572.23
572.781	41080.72
572.979	40781.71
573.177	41052.05
573.376	41058.19
573.574	41023.37
573.772	41090.96
573.971	40540.05
574.169	40726.42
574.367	40601.49
574.565	40583.06
574.763	40259.48
574.962	40636.31
575.16	39780.26
575.358	40191.9
575.556	39874.46
575.754	40247.19
575.952	39690.15
576.151	39894.94
576.349	39354.28
576.547	39745.44
576.745	39473.06
576.943	39362.47
577.141	39215.02
577.339	39579.56
577.537	39341.99
577.735	39059.37
577.933	39002.03
578.131	39169.96
578.329	38780.85
578.527	38789.04
578.725	38965.17
578.923	38698.93
579.121	38690.74
579.319	38602.67
579.516	38827.95
579.714	38164.41
579.912	38295.48
580.11	37955.52
580.308	38039.48
580.506	38047.68
580.704	37519.3
580.901	37824.45
581.099	37853.12
581.297	37455.81
581.495	37633.99
581.692	37480.39
581.89	37183.43
582.088	37633.99
582.285	37222.34
582.483	37201.86
582.681	37058.51
582.878	36810.7
583.076	36562.9
583.274	36763.6
583.471	36530.13
583.669	36642.77
583.866	36184.02
584.064	36259.8
584.262	35950.56
584.459	36528.08
584.657	36194.26
584.854	36175.83
585.052	35526.63
585.249	35911.64
585.447	36104.15
585.644	35295.21
585.841	35667.94
586.039	35674.08
586.236	35028.97
586.434	35299.3
586.631	35354.6
586.828	35131.37
587.026	35088.36
587.223	35047.4
587.42	34621.42
587.618	35098.6
587.815	34447.35
588.012	34580.46
588.21	34510.83
588.407	34938.86
588.604	34588.66
588.801	34043.9
588.999	34238.45
589.196	34332.66
589.393	33966.07
589.59	34099.19
589.787	33841.15
589.984	33796.09
590.182	33343.49
590.379	33728.51
590.576	33640.45
590.773	33458.18
590.97	33181.7
591.167	33363.97
591.364	32999.43
591.561	33284.1
591.758	32849.93
591.955	32595.98
592.152	33019.91
592.349	32542.74
592.546	32307.22
592.743	32706.57
592.94	32086.04
593.137	32800.78
593.334	32407.57
593.531	31963.16
593.727	31989.78
593.924	31897.63
594.121	31801.37
594.318	32337.94
594.515	31678.49
594.712	32180.24
594.908	31567.9
595.105	31512.61
595.302	31035.43
595.499	31627.29
595.696	31211.56
595.892	31178.79
596.089	31156.26
596.286	31264.8
596.482	30742.57
596.679	30670.89
596.876	30867.5
597.072	30269.49
597.269	30625.84
597.466	30183.48
597.662	30206
597.859	30322.74
598.055	30216.24
598.252	30017.59
598.448	30029.88
598.645	30021.69
598.841	29392.96
599.038	29972.53
599.234	29796.41
599.431	29902.9
599.627	29403.2
599.824	29519.93
600.02	29218.88
600.217	29530.17
600.413	29235.27
600.609	28917.83
600.806	29120.58
601.002	29061.19
601.198	28678.22
601.395	28880.97
601.591	28885.06
601.787	28418.13
601.984	28438.61
602.18	28704.84
602.376	28508.24
602.572	28424.27
602.769	28135.51
602.965	27859.03
603.161	28293.2
603.357	27687
603.553	27953.24
603.75	27910.23
603.946	27400.29
604.142	28231.76
604.338	27349.09
604.534	27555.93
604.73	27281.5
604.926	27185.25
605.122	27336.8
605.318	27148.39
605.514	27152.48
605.71	27009.12
605.906	27005.03
606.102	27058.28
606.298	26955.88
606.494	26839.14
606.69	26581.1
606.886	26902.63
607.082	26527.85
607.278	26683.5
607.474	26271.86
607.67	26632.3
607.866	26259.57
608.062	26435.69
608.257	26419.31
608.453	26497.13
608.649	26345.58
608.845	25847.93
609.041	25985.14
609.236	26177.65
609.432	25833.59
609.628	25743.48
609.824	25872.5
610.019	25639.03
610.215	25755.77
610.411	25886.84
610.606	25442.43
610.802	25700.47
610.998	25729.14
611.193	25413.76
611.389	25407.61
611.584	25333.89
611.78	25415.8
611.976	25481.34
612.171	25589.88
612.367	25194.62
612.562	24946.82
612.758	24842.37
612.953	24920.2
613.149	25143.42
613.344	24666.25
613.539	25284.73
613.735	24869
613.93	25002.11
614.126	24924.29
614.321	25008.26
614.517	24715.4
614.712	24651.91
614.907	24483.98
615.103	24899.72
615.298	24721.54
615.493	24942.72
615.688	24293.52
615.884	24789.13
616.079	24064.14
616.274	24238.22
616.47	24305.81
616.665	24252.56
616.86	24131.73
617.055	24074.38
617.25	23822.48
617.445	24322.19
617.641	23744.66
617.836	23951.51
618.031	23744.66
618.226	24170.64
618.421	23679.13
618.616	23810.2
618.811	23615.64
619.006	24021.14
619.201	23283.87
619.396	23492.76
619.591	22988.96
619.786	23693.46
619.981	22868.13
620.176	23281.82
620.371	22886.56
620.566	22866.08
620.761	22806.69
620.956	22800.55
621.151	22261.93
621.346	22710.44
621.541	22186.16
621.735	22476.97
621.93	22153.39
622.125	22096.05
622.32	21727.41
622.515	22163.63
622.709	21819.57
622.904	21932.21
623.099	21682.36
623.294	21596.34
623.488	21452.98
623.683	21264.57
623.878	20926.66
624.072	21121.21
624.267	20930.75
624.462	20687.04
624.656	20639.94
624.851	20553.93
625.046	20551.88
625.24	20279.5
625.435	20130
625.629	20142.28
625.824	20191.44
626.018	20140.24
626.213	19607.76
626.407	20039.89
626.602	19581.14
626.796	19517.65
626.991	19400.92
627.185	19491.03
627.38	19159.26
627.574	19058.91
627.768	19157.21
627.963	19020
628.157	18649.32
628.352	18680.03
628.546	18626.79
628.74	18694.37
628.935	18350.31
629.129	18387.18
629.323	18297.06
629.517	18241.77
629.712	17805.55
629.906	17965.29
630.1	17907.95
630.294	17858.8
630.489	17823.98
630.683	17936.62
630.877	17359.1
631.071	17488.12
631.265	17629.43
631.459	17457.4
631.653	17336.57
631.848	17113.34
632.042	17037.56
632.236	17058.04
632.43	16703.75
632.624	16720.13
632.818	16509.19
633.012	16449.8
633.206	16658.69
633.4	16267.53
633.594	16302.34
633.788	16251.14
633.982	15954.19
634.176	16193.8
634.369	16077.07
634.563	15968.52
634.757	15855.89
634.951	15984.91
635.145	15853.84
635.339	15767.82
635.533	15579.41
635.726	15431.96
635.92	15243.54
636.114	15257.88
636.308	15268.12
636.501	15143.19
636.695	15046.94
636.889	14938.4
637.083	14913.82
637.276	14735.65
637.47	14836
637.664	14643.49
637.857	14776.61
638.051	14635.3
638.244	14379.3
638.438	14545.19
638.632	14350.63
638.825	14113.06
639.019	14375.2
639.212	14008.62
639.406	14010.67
639.599	14098.73
639.793	13932.84
639.986	13449.52
640.18	13984.04
640.373	13580.59
640.567	13488.43
640.76	13474.1
640.954	13592.88
641.147	13459.76
641.34	13271.35
641.534	13291.83
641.727	13160.76
641.92	13117.75
642.114	13146.42
642.307	13005.11
642.5	12738.88
642.694	12722.49
642.887	12863.8
643.08	12810.56
643.273	12788.03
643.467	12861.76
643.66	12587.33
643.853	12419.39
644.046	12394.82
644.239	12353.86
644.432	12317
644.626	12298.56
644.819	12112.2
645.012	12130.63
645.205	11940.17
645.398	11843.92
645.591	11741.52
645.784	11835.72
645.977	11614.54
646.17	11993.42
646.363	11559.25
646.556	11508.05
646.749	11481.42
646.942	11608.4
647.135	11430.23
647.328	11360.59
647.521	11071.83
647.714	11170.13
647.907	11102.55
648.099	11182.42
648.292	11063.64
648.485	10889.56
648.678	10907.99
648.871	10834.27
649.064	10705.24
649.256	10770.78
649.449	10541.41
649.642	10547.55
649.835	10494.3
650.027	10402.15
650.22	10508.64
650.413	10336.61
650.605	10228.07
650.798	10488.16
650.991	10291.55
651.183	10264.93
651.376	9957.74
651.568	10183.01
651.761	10033.51
651.954	10060.13
652.146	10039.65
652.339	9896.3
652.531	9754.99
652.724	9705.84
652.916	9654.64
653.109	9677.16
653.301	9644.4
653.494	9662.83
653.686	9529.71
653.879	9613.68
654.071	9529.71
654.263	9251.19
654.456	9478.51
654.648	9531.76
654.84	9378.16
655.033	9079.16
655.225	9320.82
655.417	9202.04
655.61	8984.95
655.802	9060.73
655.994	8905.08
656.186	8999.29
656.379	8864.12
656.571	9042.29
656.763	8720.76
656.955	8589.69
657.148	8769.91
657.34	8790.39
657.532	8618.36
657.724	8667.52
657.916	8489.34
658.108	8505.73
658.3	8579.45
658.492	8354.18
658.684	8216.96
658.876	8409.47
659.068	8288.64
659.26	8311.17
659.452	8262.02
659.644	8104.32
659.836	8053.13
660.028	7891.34
660.22	7883.14
660.412	8085.89
660.604	7987.59
660.796	7846.28
660.988	7965.06
661.18	7909.77
661.372	7760.27
661.563	7680.39
661.755	7612.81
661.947	7692.68
662.139	7592.33
662.331	7631.24
662.522	7659.92
662.714	7436.69
662.906	7606.67
663.097	7537.04
663.289	7283.09
663.481	7328.14
663.673	7369.1
663.864	7340.43
664.056	7354.77
664.247	7164.31
664.439	7139.73
664.631	7057.81
664.822	7129.49
665.014	7184.79
665.205	6992.28
665.397	7020.95
665.588	6969.75
665.78	7033.24
665.971	6896.02
666.163	6904.21
666.354	6728.09
666.546	6867.35
666.737	6816.15
666.929	6582.68
667.12	6865.3
667.311	6640.03
667.503	6619.55
667.694	6572.44
667.885	6668.7
668.077	6570.4
668.268	6572.44
668.459	6611.36
668.651	6599.07
668.842	6476.19
669.033	6293.92
669.224	6314.4
669.416	6375.84
669.607	6353.31
669.798	6449.57
669.989	6324.64
670.18	6099.36
670.371	6295.97
670.563	6222.24
670.754	6076.84
670.945	6029.73
671.136	6273.44
671.327	6148.51
671.518	5960.1
671.709	6009.25
671.9	5902.76
672.091	5720.49
672.282	6023.59
672.473	5855.65
672.664	5917.09
672.855	5904.81
673.046	5882.28
673.237	5872.04
673.428	5841.32
673.619	5808.55
673.809	5687.72
674	5734.82
674.191	5765.54
674.382	5593.51
674.573	5575.08
674.764	5626.28
674.954	5562.8
675.145	5534.12
675.336	5474.73
675.527	5638.57
675.717	5689.77
675.908	5548.46
676.099	5536.17
676.289	5507.5
676.48	5540.27
676.671	5378.48
676.861	5413.29
677.052	5255.6
677.243	5325.23
677.433	5364.14
677.624	5401.01
677.814	5263.79
678.005	5208.5
678.195	5163.44
678.386	5145.01
678.576	5167.54
678.767	5370.29
678.957	5263.79
679.148	5329.33
679.338	5235.12
679.529	5204.4
679.719	5112.24
679.909	5175.73
680.1	5142.96
680.29	5257.65
680.481	5196.21
680.671	5052.85
680.861	4970.93
681.052	5079.47
681.242	5155.25
681.432	5069.23
681.622	4942.26
681.813	5077.43
682.003	5075.38
682.193	4946.36
682.383	5013.94
682.573	4946.36
682.764	4985.27
682.954	5134.77
683.144	4852.15
683.334	4891.06
683.524	4936.12
683.714	4815.29
683.904	4874.68
684.094	4860.34
684.284	4932.02
684.474	4874.68
684.664	4723.13
684.854	4929.97
685.044	4878.77
685.234	4610.49
685.424	4862.39
685.614	4678.07
685.804	4702.65
685.994	4741.56
686.184	4733.37
686.374	4764.09
686.564	4497.85
686.753	4637.11
686.943	4579.77
687.133	4542.91
687.323	4712.89
687.513	4544.95
687.702	4514.24
687.892	4456.89
688.082	4391.36
688.272	4610.49
688.461	4506.04
688.651	4446.65
688.841	4450.75
689.03	4336.06
689.22	4456.89
689.41	4450.75
689.599	4260.29
689.789	4458.94
689.979	4282.81
690.168	4321.73
690.358	4176.32
690.547	4356.54
690.737	4153.79
690.926	4217.28
691.116	4184.51
691.305	4147.65
691.495	4118.98
691.684	3994.05
691.874	4178.37
692.063	4172.22
692.252	4069.83
692.442	4035.01
692.631	3959.24
692.82	4143.55
693.01	3905.99
693.199	3975.62
693.388	3881.41
693.578	3887.56
693.767	3946.95
693.956	4125.12
694.146	3930.56
694.335	3750.34
694.524	3871.17
694.713	4022.72
694.902	3963.33
695.092	3832.26
695.281	3770.82
695.47	3983.81
695.659	3772.87
695.848	3731.91
696.037	3805.64
696.226	3754.44
696.415	3705.29
696.604	3887.56
696.793	3760.58
696.982	3783.11
697.171	3838.41
697.36	3801.54
697.549	3588.55
697.738	3674.57
697.927	3682.76
698.116	3695.05
698.305	3684.81
698.494	3596.75
698.683	3682.76
698.872	3719.62
699.061	3682.76
699.25	3787.21
699.438	3733.96
699.627	3654.09
699.816	3674.57
700.005	3594.7
700.193	3604.94
700.382	3598.79
700.571	3541.45
700.76	3525.07
700.948	3551.69
701.137	3518.92
701.326	3699.14
701.514	3578.31
701.703	3588.55
701.892	3398.09
702.08	3568.07
702.269	3561.93
702.457	3541.45
702.646	3514.83
702.834	3531.21
703.023	3424.72
703.212	3451.34
703.4	3582.41
703.589	3404.24
703.777	3580.36
703.965	3375.56
704.154	3535.31
704.342	3506.63
704.531	3541.45
704.719	3332.56
704.907	3453.39
705.096	3209.68
705.284	3514.83
705.472	3410.38
705.661	3488.2
705.849	3518.92
706.037	3518.92
706.226	3359.18
706.414	3385.8
706.602	3367.37
706.79	3496.39
706.979	3418.57
707.167	3541.45
707.355	3289.55
707.543	3353.04
707.731	3516.87
707.919	3381.71
708.107	3375.56
708.296	3367.37
708.484	3307.98
708.672	3332.56
708.86	3312.08
709.048	3383.76
709.236	3377.61
709.424	3451.34
709.612	3369.42
709.8	3398.09
709.988	3475.91
710.176	3424.72
710.364	3279.31
710.551	3445.2
710.739	3320.27
710.927	3252.69
711.115	3320.27
711.303	3283.41
711.491	3160.53
711.679	3316.17
711.866	3193.3
712.054	3391.95
712.242	3203.54
712.43	3338.7
712.617	3195.34
712.805	3150.29
712.993	3205.58
713.181	3219.92
713.368	3183.06
713.556	3307.98
713.744	3230.16
713.931	3287.5
714.119	3205.58
714.306	3256.78
714.494	3236.3
714.682	3154.38
714.869	3301.84
715.057	3267.02
715.244	3246.54
715.432	3267.02
715.619	3254.73
715.807	3197.39
715.994	3303.89
716.182	3269.07
716.369	3254.73
716.556	3205.58
716.744	3189.2
716.931	3232.21
717.119	3283.41
717.306	3234.25
717.493	3148.24
717.681	3197.39
717.868	3350.99
718.055	3150.29
718.242	3015.12
718.43	3256.78
718.617	3178.96
718.804	3172.82
718.991	3357.13
719.179	3281.36
719.366	3101.14
719.553	3238.35
719.74	3144.14
719.927	3185.1
720.114	3162.58
720.301	3178.96
720.488	3168.72
720.676	3056.08
720.863	3105.23
721.05	3267.02
721.237	3160.53
721.424	3181.01
721.611	3047.89
721.798	3041.75
721.985	3084.75
722.172	3119.57
722.358	3066.32
722.545	3142.1
722.732	3039.7
722.919	2990.55
723.106	3109.33
723.293	3086.8
723.48	3144.14
723.667	3101.14
723.853	3015.12
724.04	3121.62
724.227	3041.75
724.414	3181.01
724.6	3000.79
724.787	3140.05
724.974	3107.28
725.161	3064.27
725.347	3000.79
725.534	3013.07
725.72	3023.31
725.907	3191.25
726.094	3066.32
726.28	3015.12
726.467	3068.37
726.653	3019.22
726.84	3056.08
727.027	3058.13
727.213	3000.79
727.4	3037.65
727.586	3078.61
727.773	3039.7
727.959	2974.16
728.145	2990.55
728.332	2963.92
728.518	2974.16
728.705	3074.51
728.891	3070.42
729.077	3090.9
729.264	2953.68
729.45	3058.13
729.636	3049.94
729.823	2939.35
730.009	3140.05
730.195	3072.47
730.382	3056.08
730.568	2984.4
730.754	3090.9
730.94	3127.76
731.126	2910.68
731.313	2998.74
731.499	2986.45
731.685	3023.31
731.871	2988.5
732.057	3035.6
732.243	2974.16
732.429	2912.72
732.615	2941.4
732.801	2886.1
732.987	2968.02
733.173	2951.63
733.359	2961.87
733.545	2890.2
733.731	2857.43
733.917	2965.97
734.103	2968.02
734.289	2855.38
734.475	2763.22
734.661	2963.92
734.847	2904.53
735.033	3015.12
735.219	2959.83
735.404	2830.8
735.59	2806.23
735.776	2839
735.962	2961.87
736.148	2935.25
736.333	2892.24
736.519	2959.83
736.705	2947.54
736.89	2859.48
737.076	2875.86
737.262	2871.76
737.447	2886.1
737.633	2843.09
737.819	2957.78
738.004	2714.07
738.19	2736.6
738.375	2795.99
738.561	2886.1
738.747	2808.28
738.932	2693.59
739.118	2912.72
739.303	2851.28
739.489	2761.17
739.674	2689.49
739.859	2834.9
740.045	2759.13
740.23	2808.28
740.416	2679.26
740.601	2615.77
740.786	2814.42
740.972	2718.17
741.157	2832.85
741.342	2705.88
741.528	2671.06
741.713	2736.6
741.898	2728.41
742.084	2564.57
742.269	2724.31
742.454	2623.96
742.639	2730.45
742.824	2640.34
743.01	2617.82
743.195	2642.39
743.38	2619.86
743.565	2562.52
743.75	2609.62
743.935	2566.62
744.12	2537.95
744.305	2480.6
744.49	2595.29
744.675	2441.69
744.86	2396.64
745.045	2443.74
745.23	2494.94
745.415	2468.31
745.6	2417.12
745.785	2501.08
745.97	2380.25
746.155	2386.4
746.34	2410.97
746.525	2372.06
746.71	2464.22
746.895	2363.87
747.079	2378.2
747.264	2232.8
747.449	2324.96
747.634	2310.62
747.819	2238.94
748.003	2300.38
748.188	2363.87
748.373	2331.1
748.557	2363.87
748.742	2187.74
748.927	2165.21
749.111	2099.68
749.296	2267.61
749.481	2259.42
749.665	2132.45
749.85	2042.34
750.034	2120.16
750.219	2136.54
750.404	2114.02
750.588	2228.7
750.773	2034.14
750.957	2148.83
751.141	2009.57
751.326	1987.04
751.51	2087.39
751.695	1974.75
751.879	2052.58
752.064	2011.62
752.248	1972.71
752.432	2009.57
752.617	1878.5
752.801	1958.37
752.985	1939.94
753.17	1917.41
753.354	1909.22
753.538	1776.1
753.722	1864.16
753.907	1894.88
754.091	1806.82
754.275	1788.39
754.459	1905.12
754.643	1765.86
754.828	1786.34
755.012	1817.06
755.196	1765.86
755.38	1735.14
755.564	1763.81
755.748	1571.3
755.932	1753.57
756.116	1595.88
756.3	1622.5
756.484	1604.07
756.668	1788.39
756.852	1649.13
757.036	1620.46
757.22	1559.02
757.404	1587.69
757.588	1546.73
757.772	1593.83
757.956	1647.08
758.14	1573.35
758.323	1491.43
758.507	1432.04
758.691	1561.06
758.875	1505.77
759.059	1501.67
759.242	1485.29
759.426	1401.32
759.61	1608.17
759.794	1520.1
759.977	1522.15
760.161	1526.25
760.345	1450.47
760.528	1358.32
760.712	1399.27
760.895	1384.94
761.079	1327.6
761.263	1354.22
761.446	1374.7
761.63	1401.32
761.813	1393.13
761.997	1352.17
762.18	1362.41
762.364	1403.37
762.547	1315.31
762.731	1352.17
762.914	1315.31
763.098	1257.96
763.281	1427.95
763.464	1274.35
763.648	1251.82
763.831	1270.25
764.015	1315.31
764.198	1296.88
764.381	1358.32
764.564	1178.09
764.748	1317.36
764.931	1288.68
765.114	1167.85
765.297	1243.63
765.481	1251.82
765.664	1247.72
765.847	1200.62
766.03	1247.72
766.213	1214.96
766.397	1262.06
766.58	1155.57
766.763	1217.01
766.946	1143.28
767.129	1120.75
767.312	1161.71
767.495	1128.94
767.678	1130.99
767.861	1135.09
768.044	1106.42
768.227	1169.9
768.41	1182.19
768.593	1192.43
768.776	1073.65
768.959	1180.14
769.142	1202.67
769.324	1108.46
769.507	1200.62
769.69	1198.57
769.873	1040.88
770.056	1010.16
770.239	1159.66
770.421	1157.61
770.604	1087.98
770.787	1104.37
770.97	1083.89
771.152	1092.08
771.335	1044.98
771.518	1012.21
771.7	946.67
771.883	1010.16
772.066	954.87
772.248	1016.3
772.431	1012.21
772.613	1047.02
772.796	1028.59
772.978	1001.97
773.161	1010.16
773.343	1063.41
773.526	952.82
773.708	952.82
773.891	1022.45
774.073	969.2
774.256	887.28
774.438	1014.26
774.621	926.19
774.803	903.67
774.985	934.39
775.168	852.47
775.35	901.62
775.532	1016.3
775.715	920.05
775.897	840.18
776.079	952.82
776.261	883.19
776.444	952.82
776.626	977.39
776.808	797.17
776.99	793.08
777.173	825.84
777.355	874.99
777.537	791.03
777.719	854.51
777.901	762.36
778.083	774.64
778.265	786.93
778.447	807.41
778.629	750.07
778.811	795.12
778.993	866.8
779.175	713.21
779.357	766.45
779.539	705.01
779.721	758.26
779.903	815.6
780.085	807.41
780.267	745.97
780.449	709.11
780.631	733.68
780.812	760.31
780.994	649.72
781.176	750.07
781.358	758.26
781.54	750.07
781.721	616.95
781.903	639.48
782.085	637.43
782.267	715.25
782.448	631.29
782.63	690.68
782.812	686.58
782.993	666.1
783.175	612.85
783.357	619
783.538	653.81
783.72	623.09
783.901	571.9
784.083	619
784.264	526.84
784.446	619
784.627	584.18
784.809	584.18
784.99	621.05
785.172	543.22
785.353	590.33
785.535	637.43
785.716	612.85
785.897	553.46
786.079	582.14
786.26	567.8
786.441	477.69
786.623	485.88
786.804	535.03
786.985	530.94
787.167	586.23
787.348	539.13
787.529	494.07
787.71	487.93
787.891	557.56
788.073	430.59
788.254	477.69
788.435	530.94
788.616	539.13
788.797	492.02
788.978	496.12
789.159	440.83
789.34	469.5
789.522	492.02
789.703	545.27
789.884	473.59
790.065	539.13
790.246	485.88
790.427	547.32
790.607	418.3
790.788	451.07
790.969	459.26
791.15	432.63
791.331	436.73
791.512	342.52
791.693	430.59
791.874	416.25
792.054	475.64
792.235	446.97
792.416	391.67
792.597	369.15
792.778	320
792.958	520.7
793.139	440.83
793.32	387.58
793.5	356.86
793.681	375.29
793.862	412.15
794.042	367.1
794.223	397.82
794.404	418.3
794.584	295.42
794.765	315.9
794.945	401.91
795.126	436.73
795.306	481.78
795.487	338.43
795.667	379.39
795.848	330.23
796.028	334.33
796.209	354.81
796.389	338.43
796.57	457.21
796.75	350.71
796.93	389.63
797.111	291.32
797.291	348.67
797.471	328.19
797.652	313.85
797.832	311.8
798.012	324.09
798.192	279.04
798.373	305.66
798.553	291.32
798.733	248.32
798.913	285.18
799.093	309.76
799.274	289.28
799.454	262.65
799.634	287.23
799.814	356.86
799.994	311.8
800.174	305.66
800.354	293.37
800.534	307.71
800.714	311.8
800.894	252.41
801.074	324.09
801.254	248.32
801.434	276.99
801.614	363
801.794	279.04
801.974	793.08
802.154	264.7
802.334	315.9
802.514	256.51
802.693	254.46
802.873	270.84
803.053	305.66
803.233	375.29
803.413	205.31
803.592	264.7
803.772	233.98
803.952	301.56
804.131	248.32
804.311	242.17
804.491	338.43
804.67	285.18
804.85	248.32
805.03	240.12
805.209	289.28
805.389	303.61
805.568	281.08
805.748	289.28
805.928	246.27
806.107	195.07
806.287	186.88
806.466	299.52
806.646	256.51
806.825	332.28
807.004	127.49
807.184	207.36
807.363	258.56
807.543	213.5
807.722	174.59
807.901	272.89
808.081	248.32
808.26	227.84
808.439	225.79
808.619	233.98
808.798	242.17
808.977	219.64
809.156	311.8
809.336	213.5
809.515	236.03
809.694	199.16
809.873	219.64
810.052	217.6
810.231	305.66
810.411	238.08
810.59	190.97
810.769	219.64
810.948	223.74
811.127	180.73
811.306	160.25
811.485	166.4
811.664	242.17
811.843	242.17
812.022	250.36
812.201	168.45
812.38	150.01
812.559	111.1
812.737	201.21
812.916	158.21
813.095	107.01
813.274	225.79
813.453	184.83
813.632	258.56
813.811	223.74
813.989	76.29
814.168	225.79
814.347	143.87
814.526	244.22
814.704	184.83
814.883	201.21
815.062	115.2
815.24	236.03
815.419	109.05
815.598	156.16
815.776	215.55
815.955	180.73
816.133	170.49
816.312	176.64
816.49	141.82
816.669	180.73
816.847	170.49
817.026	168.45
817.204	119.29
817.383	172.54
817.561	145.92
817.74	201.21
817.918	182.78
818.097	96.77
818.275	141.82
818.453	137.73
818.632	197.12
818.81	125.44
818.988	133.63
819.167	127.49
819.345	131.58
819.523	162.3
819.701	127.49
819.879	119.29
820.058	197.12
820.236	172.54
820.414	131.58
820.592	107.01
820.77	135.68
820.948	221.69
821.127	131.58
821.305	172.54
821.483	125.44
821.661	164.35
821.839	203.26
822.017	174.59
822.195	166.4
822.373	219.64
822.551	119.29
822.729	143.87
822.907	162.3
823.085	109.05
823.262	98.81
823.44	221.69
823.618	98.81
823.796	156.16
823.974	119.29
824.152	135.68
824.329	64
824.507	123.39
824.685	57.86
824.863	145.92
825.04	141.82
825.218	125.44
825.396	143.87
825.574	186.88
825.751	98.81
825.929	139.77
826.107	131.58
826.284	107.01
826.462	68.09
826.639	139.77
826.817	80.38
826.994	127.49
827.172	53.76
827.349	160.25
827.527	174.59
827.704	76.29
827.882	123.39
828.059	96.77
828.237	27.14
828.414	162.3
828.591	72.19
828.769	80.38
828.946	37.38
829.124	12.8
829.301	131.58
829.478	133.63
829.655	117.25
829.833	84.48
830.01	80.38
830.187	94.72
830.364	98.81
830.542	135.68
830.719	150.01
830.896	119.29
831.073	156.16
831.25	156.16
831.427	102.91
831.604	139.77
831.782	61.95
831.959	107.01
832.136	104.96
832.313	168.45
832.49	70.14
832.667	92.67
832.844	98.81
833.021	107.01
833.198	27.14
833.374	121.34
833.551	96.77
833.728	111.1
833.905	104.96
834.082	80.38
834.259	104.96
834.436	135.68
834.612	37.38
834.789	104.96
834.966	84.48
835.143	125.44
835.319	92.67
835.496	152.06
835.673	92.67
835.85	236.03
836.026	104.96
836.203	107.01
836.38	96.77
836.556	76.29
836.733	64
836.909	59.9
837.086	53.76
837.262	64
837.439	55.81
837.616	14.85
837.792	61.95
837.968	43.52
838.145	45.57
838.321	121.34
838.498	102.91
838.674	72.19
838.851	70.14
839.027	59.9
839.203	90.62
839.38	29.18
839.556	90.62
839.732	53.76
839.909	78.33
840.085	37.38
840.261	76.29
840.437	49.66
840.614	39.42
840.79	156.16
840.966	86.53
841.142	57.86
841.318	74.24
841.494	8.7
841.671	66.05
841.847	94.72
842.023	88.57
842.199	121.34
842.375	41.47
842.551	51.71
842.727	47.62
842.903	25.09
843.079	100.86
843.255	66.05
843.431	29.18
843.607	64
843.783	33.28
843.959	45.57
844.134	70.14
844.31	39.42
844.486	20.99
844.662	70.14
844.838	145.92
845.013	41.47
845.189	74.24
845.365	55.81
845.541	35.33
845.716	23.04
845.892	55.81
846.068	86.53
846.244	37.38
846.419	86.53
846.595	16.9
846.77	51.71
846.946	100.86
847.122	-38.4
847.297	-15.87
847.473	86.53
847.648	10.75
847.824	-34.3
847.999	61.95
848.175	39.42
848.35	31.23
848.526	78.33
848.701	-30.21
848.876	35.33
849.052	-26.11
849.227	92.67
849.403	18.94
849.578	86.53
849.753	113.15
849.929	64
850.104	102.91
850.279	55.81
850.454	111.1
850.63	45.57
850.805	53.76
850.98	53.76
851.155	66.05
851.33	64
851.505	25.09
851.681	104.96
851.856	10.75
852.031	102.91
852.206	57.86
852.381	39.42
852.556	76.29
852.731	51.71
852.906	-28.16
853.081	20.99
853.256	72.19
853.431	43.52
853.606	59.9
853.781	70.14
853.956	-11.78
854.131	72.19
854.305	55.81
854.48	-19.97
854.655	70.14
854.83	39.42
855.005	61.95
855.18	76.29
855.354	-38.4
855.529	88.57
855.704	35.33
855.879	70.14
856.053	-11.78
856.228	33.28
856.403	2.56
856.577	45.57
856.752	43.52
856.926	35.33
857.101	-13.82
857.276	-17.92
857.45	23.04
857.625	29.18
857.799	72.19
857.974	64
858.148	12.8
858.323	43.52
858.497	18.94
858.672	35.33
858.846	-30.21
859.02	-13.82
859.195	-30.21
859.369	70.14
859.543	14.85
859.718	94.72
859.892	104.96
860.066	-30.21
860.241	41.47
860.415	23.04
860.589	31.23
860.763	70.14
860.938	29.18
861.112	84.48
861.286	18.94
861.46	68.09
861.634	51.71
861.808	49.66
861.982	-22.02
862.157	-7.68
862.331	8.7
862.505	-11.78
862.679	10.75
862.853	39.42
863.027	-19.97
863.201	76.29
863.375	-26.11
863.549	43.52
863.722	-79.36
863.896	29.18
864.07	-7.68
864.244	-30.21
864.418	-5.63
864.592	25.09
864.766	-3.58
864.939	57.86
865.113	61.95
865.287	61.95
865.461	-22.02
865.634	41.47
865.808	-15.87
865.982	-7.68
866.156	59.9
866.329	102.91
866.503	41.47
866.676	43.52
866.85	-52.74
867.024	-30.21
867.197	-17.92
867.371	23.04
867.544	39.42
867.718	25.09
867.891	-17.92
868.065	35.33
868.238	53.76
868.412	-32.26
868.585	16.9
868.759	-32.26
868.932	39.42
869.105	-24.06
869.279	-17.92
869.452	29.18
869.625	-11.78
869.799	61.95
869.972	6.66
870.145	-19.97
870.319	37.38
870.492	51.71
870.665	-5.63
870.838	88.57
871.011	0.51
871.185	-7.68
871.358	0.51
871.531	33.28
871.704	35.33
871.877	-19.97
872.05	49.66
872.223	-52.74
872.396	20.99
872.569	20.99
872.742	12.8
872.915	53.76
873.088	-30.21
873.261	-1.54
873.434	51.71
873.607	27.14
873.78	4.61
873.953	-26.11
874.126	14.85
874.299	-30.21
874.471	102.91
874.644	12.8
874.817	59.9
874.99	41.47
875.163	-1.54
875.335	45.57
875.508	43.52
875.681	47.62
875.853	-1.54
876.026	51.71
876.199	43.52
876.371	66.05
876.544	31.23
876.717	-5.63
876.889	-69.12
877.062	31.23
877.234	4.61
877.407	43.52
877.579	-11.78
877.752	35.33
877.924	27.14
878.097	74.24
878.269	0.51
878.442	74.24
878.614	33.28
878.786	45.57
878.959	51.71
879.131	43.52
879.303	-13.82
879.476	8.7
879.648	-9.73
879.82	4.61
879.993	27.14
880.165	20.99
880.337	-15.87
880.509	59.9
880.681	-28.16
880.854	39.42
881.026	-11.78
881.198	43.52
881.37	-50.69
881.542	23.04
881.714	-3.58
881.886	35.33
882.058	-9.73
882.23	41.47
882.402	-26.11
882.574	4.61
882.746	6.66
882.918	-22.02
883.09	82.43
883.262	25.09
883.434	-26.11
883.606	-5.63
883.778	-5.63
883.95	4.61
884.122	64
884.293	33.28
884.465	-1.54
884.637	49.66
884.809	47.62
884.98	-19.97
885.152	98.81
885.324	25.09
885.496	4.61
885.667	-7.68
885.839	-15.87
886.011	74.24
886.182	-34.3
886.354	-19.97
886.525	-7.68
886.697	14.85
886.869	-24.06
887.04	-44.54
887.212	27.14
887.383	14.85
887.555	-22.02
887.726	12.8
887.897	8.7
888.069	45.57
888.24	37.38
888.412	-5.63
888.583	-28.16
888.754	74.24
888.926	2.56
889.097	113.15
889.268	27.14
889.44	-19.97
889.611	-24.06
889.782	-40.45
889.953	-3.58
890.125	-3.58
890.296	-1.54
890.467	33.28
890.638	-9.73
890.809	-22.02
890.98	29.18
891.151	53.76
891.323	-19.97
891.494	25.09
891.665	16.9
891.836	27.14
892.007	-3.58
892.178	80.38
892.349	47.62
892.52	55.81
892.691	-22.02
892.862	-11.78
893.032	-36.35
893.203	66.05
893.374	27.14
893.545	96.77
893.716	-5.63
893.887	33.28
894.057	20.99
894.228	82.43
894.399	-9.73
894.57	-7.68
894.74	-3.58
894.911	45.57
895.082	23.04
895.253	23.04
895.423	-11.78
895.594	29.18
895.764	20.99
895.935	-26.11
896.106	-15.87
896.276	-9.73
896.447	23.04
896.617	0.51
896.788	39.42
896.958	47.62
897.129	-44.54
897.299	-11.78
897.47	4.61
897.64	57.86
897.81	-1.54
897.981	35.33
898.151	-17.92
898.322	27.14
898.492	20.99
898.662	-11.78
898.832	-24.06
899.003	37.38
899.173	59.9
899.343	68.09
899.513	-11.78
