Data from USB4F104151__91__12-28-17-368.txt Node

Date: Fri Mar 14 12:28:17 EDT 2025
User: louis
Spectrometer: USB4F10415
Trigger mode: 4
Integration Time (sec): 2.000000E-2
Scans to average: 1
Electric dark correction enabled: true
Nonlinearity correction enabled: false
Boxcar width: 0
XAxis mode: Wavelengths
Number of Pixels in Spectrum: 3648
>>>>>Begin Spectral Data<<<<<
178.204	-153.09
178.424	-153.09
178.644	-153.09
178.864	-110.08
179.084	-116.22
179.304	-22.02
179.524	-28.16
179.744	-24.06
179.964	-15.87
180.184	27.14
180.404	0.51
180.624	98.81
180.844	-48.64
181.064	-22.02
181.283	18.94
181.503	-44.54
181.723	59.9
181.943	-54.78
182.163	29.18
182.383	92.67
182.602	-11.78
182.822	-108.03
183.042	115.2
183.262	-3.58
183.482	8.7
183.701	-48.64
183.921	4.61
184.141	23.04
184.361	47.62
184.58	-48.64
184.8	2.56
185.02	33.28
185.239	25.09
185.459	-48.64
185.679	-40.45
185.898	-30.21
186.118	47.62
186.338	-22.02
186.557	41.47
186.777	14.85
186.997	4.61
187.216	-7.68
187.436	-46.59
187.655	-32.26
187.875	23.04
188.095	27.14
188.314	20.99
188.534	59.9
188.753	-36.35
188.973	14.85
189.192	78.33
189.412	31.23
189.631	-38.4
189.851	-13.82
190.07	12.8
190.29	-40.45
190.509	20.99
190.729	-7.68
190.948	-11.78
191.168	39.42
191.387	59.9
191.607	0.51
191.826	39.42
192.045	23.04
192.265	-3.58
192.484	16.9
192.704	-7.68
192.923	-1.54
193.142	104.96
193.362	-26.11
193.581	70.14
193.8	31.23
194.02	37.38
194.239	-54.78
194.458	35.33
194.678	-42.5
194.897	-44.54
195.116	35.33
195.335	41.47
195.555	76.29
195.774	-32.26
195.993	-1.54
196.212	4.61
196.432	-11.78
196.651	-5.63
196.87	-15.87
197.089	57.86
197.308	4.61
197.528	-22.02
197.747	-32.26
197.966	31.23
198.185	10.75
198.404	-1.54
198.623	-1.54
198.842	0.51
199.062	25.09
199.281	-19.97
199.5	-38.4
199.719	-11.78
199.938	35.33
200.157	20.99
200.376	-65.02
200.595	-40.45
200.814	-32.26
201.033	88.57
201.252	90.62
201.471	25.09
201.69	-17.92
201.909	-89.6
202.128	-11.78
202.347	113.15
202.566	-32.26
202.785	-26.11
203.004	-67.07
203.223	-48.64
203.442	2.56
203.661	6.66
203.879	27.14
204.098	61.95
204.317	-22.02
204.536	-17.92
204.755	10.75
204.974	12.8
205.193	55.81
205.411	20.99
205.63	27.14
205.849	23.04
206.068	25.09
206.287	55.81
206.505	2.56
206.724	37.38
206.943	-38.4
207.162	86.53
207.381	8.7
207.599	8.7
207.818	31.23
208.037	37.38
208.255	-3.58
208.474	4.61
208.693	-46.59
208.911	14.85
209.13	80.38
209.349	31.23
209.567	55.81
209.786	-17.92
210.005	51.71
210.223	18.94
210.442	-17.92
210.661	61.95
210.879	10.75
211.098	16.9
211.316	12.8
211.535	-3.58
211.753	-22.02
211.972	10.75
212.191	4.61
212.409	8.7
212.628	6.66
212.846	14.85
213.065	47.62
213.283	45.57
213.502	-3.58
213.72	-48.64
213.938	-62.98
214.157	43.52
214.375	59.9
214.594	-54.78
214.812	-28.16
215.031	-9.73
215.249	-40.45
215.467	-24.06
215.686	10.75
215.904	31.23
216.122	6.66
216.341	35.33
216.559	0.51
216.778	59.9
216.996	6.66
217.214	37.38
217.432	-22.02
217.651	8.7
217.869	-34.3
218.087	61.95
218.306	-15.87
218.524	-1.54
218.742	6.66
218.96	41.47
219.179	-9.73
219.397	64
219.615	18.94
219.833	-15.87
220.051	0.51
220.27	-22.02
220.488	74.24
220.706	37.38
220.924	49.66
221.142	-5.63
221.36	2.56
221.578	-3.58
221.796	76.29
222.015	14.85
222.233	-30.21
222.451	-36.35
222.669	-44.54
222.887	0.51
223.105	29.18
223.323	27.14
223.541	-22.02
223.759	-48.64
223.977	-67.07
224.195	-5.63
224.413	-34.3
224.631	59.9
224.849	-7.68
225.067	74.24
225.285	-50.69
225.503	33.28
225.721	-7.68
225.939	-58.88
226.157	-34.3
226.375	57.86
226.592	20.99
226.81	-28.16
227.028	-3.58
227.246	14.85
227.464	-52.74
227.682	-32.26
227.9	39.42
228.117	49.66
228.335	25.09
228.553	25.09
228.771	-26.11
228.989	39.42
229.206	25.09
229.424	12.8
229.642	-5.63
229.86	-40.45
230.077	-1.54
230.295	31.23
230.513	27.14
230.731	33.28
230.948	18.94
231.166	82.43
231.384	-38.4
231.601	-56.83
231.819	14.85
232.037	-19.97
232.254	16.9
232.472	-7.68
232.689	-1.54
232.907	16.9
233.125	35.33
233.342	-32.26
233.56	-58.88
233.777	14.85
233.995	18.94
234.213	12.8
234.43	-24.06
234.648	29.18
234.865	20.99
235.083	-30.21
235.3	-22.02
235.518	45.57
235.735	53.76
235.953	23.04
236.17	12.8
236.388	33.28
236.605	14.85
236.822	14.85
237.04	27.14
237.257	45.57
237.475	23.04
237.692	57.86
237.909	-5.63
238.127	-36.35
238.344	41.47
238.562	-1.54
238.779	-24.06
238.996	-7.68
239.214	39.42
239.431	27.14
239.648	70.14
239.865	51.71
240.083	-19.97
240.3	10.75
240.517	-105.98
240.735	4.61
240.952	14.85
241.169	-15.87
241.386	27.14
241.603	31.23
241.821	2.56
242.038	2.56
242.255	-28.16
242.472	-32.26
242.689	39.42
242.907	86.53
243.124	2.56
243.341	18.94
243.558	74.24
243.775	25.09
243.992	14.85
244.209	10.75
244.426	-15.87
244.643	8.7
244.86	-3.58
245.078	55.81
245.295	4.61
245.512	0.51
245.729	-34.3
245.946	18.94
246.163	-34.3
246.38	-15.87
246.597	2.56
246.814	16.9
247.031	-11.78
247.248	-108.03
247.464	-19.97
247.681	-15.87
247.898	29.18
248.115	-34.3
248.332	0.51
248.549	-28.16
248.766	25.09
248.983	57.86
249.2	-11.78
249.417	20.99
249.633	12.8
249.85	92.67
250.067	-44.54
250.284	23.04
250.501	18.94
250.717	55.81
250.934	-28.16
251.151	41.47
251.368	14.85
251.585	61.95
251.801	47.62
252.018	-19.97
252.235	4.61
252.451	2.56
252.668	-44.54
252.885	98.81
253.102	45.57
253.318	25.09
253.535	-11.78
253.752	0.51
253.968	-48.64
254.185	6.66
254.401	37.38
254.618	74.24
254.835	-9.73
255.051	8.7
255.268	-54.78
255.484	18.94
255.701	8.7
255.917	23.04
256.134	43.52
256.351	-26.11
256.567	35.33
256.784	-24.06
257	35.33
257.217	90.62
257.433	4.61
257.65	8.7
257.866	-50.69
258.082	37.38
258.299	-40.45
258.515	-1.54
258.732	-28.16
258.948	12.8
259.165	-42.5
259.381	23.04
259.597	66.05
259.814	59.9
260.03	25.09
260.246	23.04
260.463	27.14
260.679	4.61
260.895	-24.06
261.112	49.66
261.328	39.42
261.544	-28.16
261.761	82.43
261.977	12.8
262.193	-42.5
262.409	-19.97
262.626	12.8
262.842	-13.82
263.058	12.8
263.274	-24.06
263.49	-75.26
263.707	18.94
263.923	8.7
264.139	-95.74
264.355	39.42
264.571	8.7
264.787	-19.97
265.004	18.94
265.22	57.86
265.436	-54.78
265.652	-50.69
265.868	31.23
266.084	16.9
266.3	64
266.516	0.51
266.732	-79.36
266.948	-30.21
267.164	12.8
267.38	27.14
267.596	84.48
267.812	-60.93
268.028	127.49
268.244	-56.83
268.46	49.66
268.676	-19.97
268.892	78.33
269.108	-52.74
269.324	-1.54
269.54	-24.06
269.756	2.56
269.972	-13.82
270.188	20.99
270.403	18.94
270.619	-15.87
270.835	-60.93
271.051	31.23
271.267	-17.92
271.483	76.29
271.698	-28.16
271.914	45.57
272.13	-26.11
272.346	-40.45
272.562	43.52
272.777	-15.87
272.993	-24.06
273.209	16.9
273.425	20.99
273.64	12.8
273.856	4.61
274.072	-13.82
274.287	37.38
274.503	27.14
274.719	57.86
274.934	-22.02
275.15	-30.21
275.366	-9.73
275.581	25.09
275.797	-24.06
276.012	-7.68
276.228	-28.16
276.444	-9.73
276.659	61.95
276.875	-17.92
277.09	33.28
277.306	41.47
277.521	29.18
277.737	-9.73
277.952	2.56
278.168	41.47
278.383	18.94
278.599	31.23
278.814	20.99
279.03	-11.78
279.245	66.05
279.461	-26.11
279.676	4.61
279.892	0.51
280.107	18.94
280.322	27.14
280.538	43.52
280.753	-32.26
280.969	39.42
281.184	35.33
281.399	72.19
281.615	-1.54
281.83	-22.02
282.045	10.75
282.26	-5.63
282.476	-1.54
282.691	61.95
282.906	-40.45
283.122	35.33
283.337	-13.82
283.552	33.28
283.767	45.57
283.983	35.33
284.198	33.28
284.413	74.24
284.628	14.85
284.843	-44.54
285.058	35.33
285.274	-46.59
285.489	-42.5
285.704	2.56
285.919	-19.97
286.134	59.9
286.349	25.09
286.564	104.96
286.779	66.05
286.995	27.14
287.21	-46.59
287.425	-24.06
287.64	-40.45
287.855	23.04
288.07	-11.78
288.285	123.39
288.5	23.04
288.715	-5.63
288.93	-19.97
289.145	6.66
289.36	43.52
289.575	29.18
289.79	14.85
290.004	35.33
290.219	12.8
290.434	20.99
290.649	-7.68
290.864	0.51
291.079	-120.32
291.294	59.9
291.509	35.33
291.724	-46.59
291.938	-1.54
292.153	2.56
292.368	-22.02
292.583	18.94
292.798	-1.54
293.012	23.04
293.227	18.94
293.442	25.09
293.657	29.18
293.871	59.9
294.086	39.42
294.301	92.67
294.516	57.86
294.73	35.33
294.945	53.76
295.16	-15.87
295.374	23.04
295.589	107.01
295.804	-9.73
296.018	33.28
296.233	74.24
296.447	-42.5
296.662	-40.45
296.877	-11.78
297.091	-11.78
297.306	66.05
297.52	-36.35
297.735	35.33
297.949	-52.74
298.164	35.33
298.378	10.75
298.593	47.62
298.807	-32.26
299.022	-24.06
299.236	4.61
299.451	0.51
299.665	18.94
299.88	-11.78
300.094	6.66
300.309	-42.5
300.523	-7.68
300.737	4.61
300.952	59.9
301.166	49.66
301.381	-38.4
301.595	-91.65
301.809	23.04
302.024	-3.58
302.238	-13.82
302.452	152.06
302.667	-22.02
302.881	14.85
303.095	31.23
303.309	-56.83
303.524	47.62
303.738	-17.92
303.952	-30.21
304.166	23.04
304.381	-3.58
304.595	72.19
304.809	-52.74
305.023	-11.78
305.237	-13.82
305.452	18.94
305.666	20.99
305.88	-5.63
306.094	-44.54
306.308	18.94
306.522	-32.26
306.736	80.38
306.95	59.9
307.164	12.8
307.379	-28.16
307.593	4.61
307.807	64
308.021	0.51
308.235	43.52
308.449	8.7
308.663	4.61
308.877	82.43
309.091	-17.92
309.305	78.33
309.519	-1.54
309.733	80.38
309.947	16.9
310.161	25.09
310.374	0.51
310.588	82.43
310.802	-19.97
311.016	-1.54
311.23	-24.06
311.444	-28.16
311.658	49.66
311.872	90.62
312.085	-3.58
312.299	84.48
312.513	18.94
312.727	64
312.941	14.85
313.154	31.23
313.368	-32.26
313.582	100.86
313.796	-30.21
314.009	70.14
314.223	86.53
314.437	-15.87
314.651	-69.12
314.864	-22.02
315.078	-71.17
315.292	33.28
315.505	18.94
315.719	10.75
315.933	6.66
316.146	41.47
316.36	-1.54
316.573	6.66
316.787	49.66
317.001	35.33
317.214	2.56
317.428	18.94
317.641	2.56
317.855	43.52
318.068	8.7
318.282	-32.26
318.495	74.24
318.709	2.56
318.922	-15.87
319.136	20.99
319.349	18.94
319.563	53.76
319.776	-13.82
319.99	-32.26
320.203	20.99
320.417	43.52
320.63	4.61
320.843	115.2
321.057	-69.12
321.27	53.76
321.483	-40.45
321.697	27.14
321.91	51.71
322.124	-32.26
322.337	2.56
322.55	-40.45
322.763	29.18
322.977	43.52
323.19	-26.11
323.403	39.42
323.617	-26.11
323.83	8.7
324.043	29.18
324.256	6.66
324.469	47.62
324.683	33.28
324.896	41.47
325.109	23.04
325.322	20.99
325.535	-1.54
325.748	33.28
325.962	25.09
326.175	-5.63
326.388	53.76
326.601	31.23
326.814	51.71
327.027	164.35
327.24	-17.92
327.453	-46.59
327.666	4.61
327.879	16.9
328.092	25.09
328.305	-42.5
328.518	12.8
328.731	-48.64
328.944	-9.73
329.157	0.51
329.37	6.66
329.583	41.47
329.796	-9.73
330.009	-101.89
330.222	47.62
330.435	2.56
330.648	-22.02
330.861	14.85
331.073	12.8
331.286	57.86
331.499	33.28
331.712	-24.06
331.925	-9.73
332.138	6.66
332.35	39.42
332.563	8.7
332.776	90.62
332.989	6.66
333.202	23.04
333.414	16.9
333.627	8.7
333.84	-44.54
334.053	43.52
334.265	49.66
334.478	16.9
334.691	37.38
334.903	-44.54
335.116	27.14
335.329	-15.87
335.541	12.8
335.754	45.57
335.966	-46.59
336.179	80.38
336.392	-67.07
336.604	0.51
336.817	23.04
337.029	84.48
337.242	4.61
337.454	72.19
337.667	33.28
337.88	64
338.092	51.71
338.305	49.66
338.517	-81.41
338.729	-11.78
338.942	4.61
339.154	4.61
339.367	-3.58
339.579	78.33
339.792	-9.73
340.004	-93.69
340.217	-13.82
340.429	31.23
340.641	33.28
340.854	-69.12
341.066	-38.4
341.278	4.61
341.491	68.09
341.703	2.56
341.915	-54.78
342.128	12.8
342.34	-15.87
342.552	-24.06
342.764	-48.64
342.977	16.9
343.189	16.9
343.401	23.04
343.613	16.9
343.826	51.71
344.038	-36.35
344.25	-30.21
344.462	-15.87
344.674	37.38
344.886	18.94
345.099	29.18
345.311	37.38
345.523	-77.31
345.735	-5.63
345.947	51.71
346.159	6.66
346.371	-56.83
346.583	16.9
346.795	74.24
347.007	8.7
347.219	51.71
347.431	47.62
347.643	43.52
347.855	86.53
348.067	96.77
348.279	82.43
348.491	-15.87
348.703	31.23
348.915	25.09
349.127	31.23
349.339	10.75
349.551	-11.78
349.763	102.91
349.975	-44.54
350.187	25.09
350.399	66.05
350.61	31.23
350.822	-22.02
351.034	14.85
351.246	6.66
351.458	23.04
351.669	-34.3
351.881	16.9
352.093	-40.45
352.305	33.28
352.517	-34.3
352.728	-19.97
352.94	86.53
353.152	-5.63
353.363	-11.78
353.575	23.04
353.787	53.76
353.999	16.9
354.21	27.14
354.422	-32.26
354.633	18.94
354.845	84.48
355.057	31.23
355.268	-3.58
355.48	57.86
355.692	8.7
355.903	-38.4
356.115	-30.21
356.326	-32.26
356.538	78.33
356.749	23.04
356.961	59.9
357.172	74.24
357.384	16.9
357.595	41.47
357.807	66.05
358.018	8.7
358.23	31.23
358.441	35.33
358.653	12.8
358.864	-83.45
359.075	37.38
359.287	0.51
359.498	37.38
359.709	29.18
359.921	12.8
360.132	0.51
360.344	-1.54
360.555	-34.3
360.766	41.47
360.977	0.51
361.189	76.29
361.4	70.14
361.611	6.66
361.823	94.72
362.034	-15.87
362.245	29.18
362.456	61.95
362.667	-15.87
362.879	-1.54
363.09	41.47
363.301	61.95
363.512	-56.83
363.723	-42.5
363.935	-13.82
364.146	55.81
364.357	49.66
364.568	20.99
364.779	12.8
364.99	6.66
365.201	-69.12
365.412	0.51
365.623	16.9
365.834	-5.63
366.045	31.23
366.256	-7.68
366.467	-9.73
366.678	43.52
366.889	16.9
367.1	-24.06
367.311	33.28
367.522	61.95
367.733	78.33
367.944	68.09
368.155	-13.82
368.366	20.99
368.577	53.76
368.788	25.09
368.999	2.56
369.209	4.61
369.42	12.8
369.631	74.24
369.842	25.09
370.053	94.72
370.264	18.94
370.474	-42.5
370.685	66.05
370.896	55.81
371.107	27.14
371.317	-15.87
371.528	6.66
371.739	39.42
371.95	23.04
372.16	27.14
372.371	23.04
372.582	25.09
372.792	51.71
373.003	57.86
373.214	-28.16
373.424	23.04
373.635	2.56
373.846	0.51
374.056	8.7
374.267	78.33
374.477	-22.02
374.688	12.8
374.898	12.8
375.109	59.9
375.319	-24.06
375.53	-1.54
375.74	-15.87
375.951	-17.92
376.161	31.23
376.372	-15.87
376.582	14.85
376.793	-26.11
377.003	-52.74
377.214	39.42
377.424	47.62
377.635	14.85
377.845	-54.78
378.055	14.85
378.266	-85.5
378.476	43.52
378.686	-24.06
378.897	4.61
379.107	-5.63
379.317	-19.97
379.528	82.43
379.738	41.47
379.948	-58.88
380.158	94.72
380.369	66.05
380.579	72.19
380.789	6.66
380.999	-7.68
381.21	139.77
381.42	43.52
381.63	-128.51
381.84	51.71
382.05	41.47
382.261	61.95
382.471	72.19
382.681	-7.68
382.891	68.09
383.101	10.75
383.311	-9.73
383.521	49.66
383.731	59.9
383.941	55.81
384.151	2.56
384.361	8.7
384.571	51.71
384.781	10.75
384.991	135.68
385.201	74.24
385.411	6.66
385.621	68.09
385.831	27.14
386.041	59.9
386.251	-30.21
386.461	64
386.671	37.38
386.881	20.99
387.091	45.57
387.301	-71.17
387.511	64
387.72	18.94
387.93	10.75
388.14	18.94
388.35	53.76
388.56	84.48
388.769	72.19
388.979	35.33
389.189	23.04
389.399	2.56
389.609	16.9
389.818	23.04
390.028	18.94
390.238	47.62
390.447	45.57
390.657	80.38
390.867	25.09
391.076	18.94
391.286	18.94
391.496	-34.3
391.705	-28.16
391.915	74.24
392.125	82.43
392.334	23.04
392.544	78.33
392.753	47.62
392.963	-1.54
393.172	23.04
393.382	43.52
393.591	82.43
393.801	66.05
394.01	45.57
394.22	20.99
394.429	33.28
394.639	49.66
394.848	43.52
395.058	29.18
395.267	45.57
395.477	96.77
395.686	61.95
395.895	59.9
396.105	98.81
396.314	-3.58
396.524	70.14
396.733	23.04
396.942	64
397.152	47.62
397.361	154.11
397.57	-36.35
397.78	37.38
397.989	31.23
398.198	84.48
398.407	84.48
398.617	66.05
398.826	53.76
399.035	33.28
399.244	41.47
399.453	80.38
399.663	-1.54
399.872	94.72
400.081	31.23
400.29	68.09
400.499	16.9
400.708	16.9
400.917	0.51
401.127	35.33
401.336	59.9
401.545	86.53
401.754	41.47
401.963	39.42
402.172	117.25
402.381	-1.54
402.59	80.38
402.799	59.9
403.008	70.14
403.217	109.05
403.426	119.29
403.635	100.86
403.844	27.14
404.053	84.48
404.262	82.43
404.471	121.34
404.68	113.15
404.888	113.15
405.097	68.09
405.306	100.86
405.515	72.19
405.724	66.05
405.933	-11.78
406.142	76.29
406.35	39.42
406.559	82.43
406.768	64
406.977	186.88
407.185	170.49
407.394	162.3
407.603	143.87
407.812	158.21
408.02	102.91
408.229	197.12
408.438	154.11
408.646	147.97
408.855	180.73
409.064	199.16
409.272	141.82
409.481	219.64
409.69	139.77
409.898	172.54
410.107	174.59
410.315	256.51
410.524	158.21
410.733	244.22
410.941	164.35
411.15	219.64
411.358	143.87
411.567	240.12
411.775	244.22
411.984	293.37
412.192	266.75
412.401	209.4
412.609	238.08
412.818	236.03
413.026	387.58
413.234	360.95
413.443	334.33
413.651	377.34
413.86	408.06
414.068	346.62
414.276	475.64
414.485	354.81
414.693	418.3
414.901	522.74
415.11	485.88
415.318	438.78
415.526	524.79
415.734	483.83
415.943	545.27
416.151	586.23
416.359	553.46
416.567	500.22
416.776	594.42
416.984	649.72
417.192	711.16
417.4	524.79
417.608	629.24
417.817	649.72
418.025	737.78
418.233	780.79
418.441	727.54
418.649	850.42
418.857	831.99
419.065	883.19
419.273	903.67
419.481	852.47
419.689	991.73
419.897	958.96
420.105	1042.93
420.313	1010.16
420.521	1126.89
420.729	1118.7
420.937	1055.22
421.145	1081.84
421.353	1081.84
421.561	1223.15
421.769	1274.35
421.977	1425.9
422.185	1335.79
422.393	1423.85
422.601	1520.1
422.809	1507.82
423.017	1489.39
423.224	1571.3
423.432	1692.13
423.64	1653.22
423.848	1843.68
424.056	1778.15
424.263	1933.79
424.471	1907.17
424.679	1931.75
424.887	2036.19
425.094	2081.25
425.302	2140.64
425.51	2073.06
425.718	2208.22
425.925	2281.95
426.133	2220.51
426.341	2445.79
426.548	2554.33
426.756	2595.29
426.964	2683.35
427.171	2802.13
427.379	2920.92
427.586	2890.2
427.794	3025.36
428.001	3092.94
428.209	3326.41
428.417	3076.56
428.624	3473.87
428.832	3512.78
429.039	3387.85
429.247	3578.31
429.454	3893.7
429.662	3963.33
429.869	3770.82
430.076	4108.74
430.284	3832.26
430.491	4100.55
430.699	4360.64
430.906	4364.73
431.114	4338.11
431.321	4592.06
431.528	4829.62
431.736	4921.78
431.943	5253.55
432.15	4895.16
432.358	4977.08
432.565	5276.08
432.772	5192.11
432.979	5599.66
433.187	5611.95
433.394	5708.2
433.601	6187.43
433.808	6181.28
434.016	6113.7
434.223	6263.2
434.43	6828.44
434.637	6685.08
434.844	6900.12
435.052	7188.88
435.259	7094.68
435.466	7170.45
435.673	7190.93
435.88	7772.55
436.087	8120.71
436.294	8073.6
436.501	7973.25
436.708	7872.9
436.915	8319.36
437.122	8751.48
437.329	8810.87
437.537	8962.42
437.743	9056.63
437.95	9249.14
438.157	9421.17
438.364	9822.57
438.571	9697.64
438.778	9787.75
438.985	10836.31
439.192	10203.49
439.399	10598.75
439.606	10420.58
439.813	11024.73
440.02	11755.85
440.227	11360.59
440.433	11297.11
440.64	11931.98
440.847	11694.41
441.054	11966.79
441.261	12654.91
441.467	12642.62
441.674	12636.48
441.881	13381.94
442.088	13179.19
442.294	13250.87
442.501	13543.73
442.708	13844.78
442.914	14594.34
443.121	14979.36
443.328	14432.55
443.534	15755.54
443.741	15016.22
443.948	14977.31
444.154	16189.7
444.361	16089.35
444.568	16005.39
444.774	16204.04
444.981	16503.04
445.187	16834.82
445.394	17584.37
445.6	17162.49
445.807	18999.52
446.013	18186.47
446.22	18493.67
446.426	19300.57
446.633	19302.62
446.839	19794.13
447.046	19120.35
447.252	20289.74
447.459	20308.17
447.665	20205.77
447.871	21190.84
448.078	22098.09
448.284	20850.88
448.491	21604.53
448.697	22493.35
448.903	22851.75
449.11	22904.99
449.316	22784.16
449.522	23044.26
449.728	23550.1
449.935	23586.97
450.141	23578.78
450.347	24533.13
450.553	23494.81
450.76	23711.89
450.966	24406.16
451.172	24639.62
451.378	24983.68
451.584	24535.18
451.791	25145.47
451.997	24848.52
452.203	25710.71
452.409	25491.58
452.615	25497.72
452.821	24541.32
453.027	24322.19
453.233	25264.25
453.44	24529.03
453.646	25026.69
453.852	25034.88
454.058	25376.89
454.264	24531.08
454.47	25268.35
454.676	24357
454.882	25288.83
455.088	23173.28
455.294	23490.71
455.5	23531.67
455.705	24002.71
455.911	22982.82
456.117	22747.3
456.323	22155.44
456.529	21199.04
456.735	22300.84
456.941	21235.9
457.147	21188.8
457.352	20705.48
457.558	19962.06
457.764	20332.75
457.97	20254.92
458.176	19423.45
458.381	19589.33
458.587	18409.7
458.793	18563.3
458.999	17619.19
459.204	19149.02
459.41	18227.43
459.616	16859.39
459.821	17154.3
460.027	17088.76
460.233	16761.09
460.438	15960.33
460.644	16179.47
460.85	15339.8
461.055	14997.79
461.261	15040.79
461.466	14119.21
461.672	13588.78
461.878	14500.13
462.083	13527.35
462.289	13482.29
462.494	13189.43
462.7	12525.89
462.905	12464.45
463.111	12601.66
463.316	12648.77
463.522	12431.68
463.727	12390.72
463.932	12517.7
464.138	12446.02
464.343	12329.28
464.549	11999.56
464.754	12222.79
464.959	12251.46
465.165	12282.18
465.37	11665.74
465.575	11280.72
465.781	11743.56
465.986	11790.67
466.191	11540.82
466.397	11217.24
466.602	10860.89
466.807	11182.42
467.012	11182.42
467.218	11114.84
467.423	11037.02
467.628	11012.44
467.833	11675.98
468.038	11198.81
468.244	10869.08
468.449	11108.69
468.654	10654.05
468.859	10821.98
469.064	10799.45
469.269	10156.39
469.474	10363.23
469.679	10561.89
469.885	10152.29
470.09	10441.06
470.295	10447.2
470.5	10031.46
470.705	10287.46
470.91	9900.39
471.115	9804.14
471.32	10033.51
471.525	9853.29
471.73	9505.13
471.935	9515.37
472.139	9181.56
472.344	9535.85
472.549	9425.26
472.754	9140.6
472.959	9025.91
473.164	8843.64
473.369	8726.91
473.574	9105.78
473.778	8790.39
473.983	8909.18
474.188	8896.89
474.393	8374.66
474.598	8491.39
474.802	8491.39
475.007	8464.77
475.212	8425.86
475.417	8024.45
475.621	8145.28
475.826	8208.77
476.031	7967.11
476.235	7743.88
476.44	7952.77
476.645	7618.96
476.849	7790.99
477.054	7627.15
477.259	7504.27
477.463	7553.42
477.668	7311.76
477.872	7369.1
478.077	7401.87
478.282	6982.04
478.486	6957.46
478.691	6910.36
478.895	7102.87
479.1	6902.17
479.304	6934.93
479.509	6781.34
479.713	6887.83
479.918	6592.92
480.122	6658.46
480.326	6912.41
480.531	6617.5
480.735	6750.62
480.94	6574.49
481.144	6994.33
481.348	6472.09
481.553	6578.59
481.757	6310.3
481.961	6435.23
482.166	6619.55
482.37	6740.38
482.574	6381.98
482.778	6447.52
482.983	6605.21
483.187	6519.2
483.391	6670.75
483.595	6570.4
483.8	6324.64
484.004	6619.55
484.208	6494.62
484.412	6457.76
484.616	6560.16
484.821	6588.83
485.025	6486.43
485.229	6502.81
485.433	6379.93
485.637	6379.93
485.841	6334.88
486.045	6478.24
486.249	6427.04
486.453	6396.32
486.657	6289.82
486.861	6402.46
487.065	6437.28
487.269	6592.92
487.473	6298.02
487.677	6529.44
487.881	6537.63
488.085	6494.62
488.289	6511
488.493	6513.05
488.697	6457.76
488.901	6683.03
489.105	6361.5
489.309	6482.33
489.512	6599.07
489.716	6541.72
489.92	6601.12
490.124	6392.22
490.328	6721.95
490.531	6435.23
490.735	6762.9
490.939	6631.83
491.143	6654.36
491.346	6705.56
491.55	6719.9
491.754	6736.28
491.958	6769.05
492.161	6723.99
492.365	6683.03
492.569	6984.09
492.772	6869.4
492.976	6912.41
493.18	6955.41
493.383	7111.06
493.587	6969.75
493.79	7240.08
493.994	7088.53
494.197	7119.25
494.401	7332.24
494.605	7131.54
494.808	7260.56
495.012	7274.9
495.215	7393.68
495.419	7451.02
495.622	7420.3
495.825	7539.08
496.029	7461.26
496.232	7752.07
496.436	7799.18
496.639	7838.09
496.843	7786.89
497.046	7776.65
497.249	7999.88
497.453	7903.62
497.656	8120.71
497.859	8276.35
498.063	8262.02
498.266	8450.43
498.469	8475.01
498.673	8526.21
498.876	8513.92
499.079	8716.67
499.282	8628.6
499.485	8804.73
499.689	8833.4
499.892	8937.85
500.095	8939.9
500.298	9257.33
500.501	9357.68
500.705	9488.75
500.908	9419.12
501.111	9562.48
501.314	9732.46
501.517	9873.77
501.72	10123.62
501.923	9849.19
502.126	10060.13
502.329	10299.75
502.532	10457.44
502.735	10324.32
502.938	10520.93
503.141	10459.49
503.344	10740.06
503.547	10957.14
503.75	11055.45
503.953	11180.37
504.156	11475.28
504.359	11450.71
504.562	11383.12
504.765	11688.27
504.968	11495.76
505.17	11884.87
505.373	11782.48
505.576	11923.79
505.779	12362.05
505.982	12343.62
506.185	12650.81
506.387	12499.27
506.59	12380.48
506.793	12943.67
506.996	12990.78
507.198	13381.94
507.401	12777.79
507.604	13279.54
507.807	13633.84
508.009	13656.37
508.212	13803.82
508.415	14035.24
508.617	14178.6
508.82	14192.94
509.022	13979.95
509.225	14528.8
509.428	14487.84
509.63	14500.13
509.833	14774.56
510.035	14901.53
510.238	14942.49
510.44	15208.73
510.643	15673.62
510.845	15567.12
511.048	15542.55
511.25	15855.89
511.453	16130.31
511.655	16163.08
511.858	16388.36
512.06	16183.56
512.262	16601.35
512.465	16867.58
512.667	16797.95
512.87	17240.31
513.072	17015.04
513.274	17199.35
513.477	17608.95
513.679	17473.78
513.881	17875.18
514.084	18071.79
514.286	18008.3
514.488	18030.83
514.69	18348.26
514.893	18641.12
515.095	19146.97
515.297	18790.63
515.499	18704.61
515.701	19255.51
515.904	19527.89
516.106	19433.69
516.308	19671.25
516.51	20232.4
516.712	20025.55
516.914	20279.5
517.116	20553.93
517.318	20480.2
517.52	20830.4
517.722	20678.85
517.925	21147.84
518.127	21033.15
518.329	21223.61
518.531	21213.37
518.733	21811.38
518.935	21790.9
519.136	21964.98
519.338	22126.77
519.54	22274.22
519.742	22732.97
519.944	22730.92
520.146	23007.39
520.348	23183.52
520.55	23369.88
520.752	23081.12
520.954	23656.6
521.155	23713.94
521.357	23980.18
521.559	23902.36
521.761	24383.63
521.963	24238.22
522.164	24488.07
522.366	24754.31
522.568	24809.61
522.77	25163.9
522.971	25456.76
523.173	25055.36
523.375	25278.59
523.576	25241.73
523.778	25524.35
523.98	25991.28
524.181	25694.33
524.383	25776.25
524.584	26376.3
524.786	26194.03
524.988	26218.61
525.189	26484.84
525.391	26923.11
525.592	26728.55
525.794	26722.41
525.995	27011.17
526.197	26779.75
526.398	27277.41
526.6	27435.1
526.801	27283.55
527.003	27478.11
527.204	27158.63
527.406	27785.3
527.607	27594.84
527.808	28026.96
528.01	27623.51
528.211	27674.71
528.412	28223.57
528.614	28354.64
528.815	28213.33
529.016	28520.52
529.218	28332.11
529.419	28686.41
529.62	28260.43
529.822	28536.91
530.023	28647.5
530.224	28588.11
530.425	28758.09
530.626	28467.28
530.828	28567.63
531.029	28946.5
531.23	28676.17
531.431	28928.07
531.632	28770.38
531.833	28923.97
532.035	29048.9
532.236	29114.44
532.437	28997.7
532.638	29124.68
532.839	29325.38
533.04	29171.78
533.241	28864.58
533.442	29345.86
533.643	29177.92
533.844	29022.28
534.045	29464.64
534.246	28948.55
534.447	29321.28
534.648	28952.65
534.849	29145.16
535.05	29057.09
535.251	29167.68
535.451	29046.85
535.652	29116.48
535.853	29306.94
536.054	29192.26
536.255	29184.07
536.456	28887.11
536.657	29229.12
536.857	29433.92
537.058	29315.14
537.259	29671.48
537.46	29429.82
537.66	29122.63
537.861	29401.15
538.062	29450.3
538.263	29536.32
538.463	28858.44
538.664	29333.57
538.865	29102.15
539.065	29835.32
539.266	29261.89
539.466	29423.68
539.667	29098.05
539.868	29501.5
540.068	29311.04
540.269	29308.99
540.469	29603.9
540.67	29122.63
540.87	29380.67
541.071	29452.35
541.271	29419.58
541.472	29114.44
541.672	29290.56
541.873	28936.26
542.073	28698.7
542.274	29306.94
542.474	29352
542.675	28708.94
542.875	29608
543.075	29132.87
543.276	28946.5
543.476	29292.61
543.676	29218.88
543.877	29456.45
544.077	29055.04
544.277	29106.24
544.478	29139.01
544.678	29483.07
544.878	29165.63
545.078	29001.8
545.279	28629.07
545.479	29116.48
545.679	29163.59
545.879	29206.59
546.079	29003.85
546.28	28893.26
546.48	28971.08
546.68	29337.66
546.88	29300.8
547.08	29108.29
547.28	28901.45
547.48	28770.38
547.68	29243.46
547.88	28813.38
548.081	29128.77
548.281	29096
548.481	29073.48
548.681	29495.36
548.881	28936.26
549.081	29009.99
549.28	28700.75
549.48	28909.64
549.68	28850.25
549.88	29343.81
550.08	28885.06
550.28	29145.16
550.48	28768.33
550.68	29081.67
550.88	29044.8
551.08	28928.07
551.279	28667.98
551.479	28852.3
551.679	28874.82
551.879	28805.19
552.079	29087.81
552.278	28616.78
552.478	28878.92
552.678	28891.21
552.878	29020.23
553.077	28721.23
553.277	28375.12
553.477	28747.85
553.676	28866.63
553.876	28665.93
554.076	28543.05
554.275	28614.73
554.475	28643.4
554.674	28590.16
554.874	28688.46
555.074	28538.96
555.273	28475.47
555.473	28581.96
555.672	28627.02
555.872	28622.92
556.071	28674.12
556.271	28287.06
556.47	28588.11
556.67	28473.42
556.869	28489.81
557.068	28108.88
557.268	28244.05
557.467	28498
557.667	28227.67
557.866	28280.91
558.065	28262.48
558.265	28088.4
558.464	27824.22
558.663	28368.98
558.863	28035.16
559.062	28444.75
559.261	27930.71
559.461	28209.23
559.66	27445.34
559.859	28039.25
560.058	27961.43
560.258	27752.54
560.457	27912.28
560.656	27781.21
560.855	27625.56
561.054	28018.77
561.253	27482.2
561.453	27506.78
561.652	27842.65
561.851	27959.38
562.05	27514.97
562.249	27377.76
562.448	27736.15
562.647	27459.68
562.846	27365.47
563.045	27607.13
563.244	27385.95
563.443	27633.75
563.642	27142.24
563.841	27363.42
564.04	27062.37
564.239	27480.16
564.438	27193.44
564.637	27234.4
564.836	27101.28
565.035	26714.22
565.234	27060.32
565.432	26839.14
565.631	27035.75
565.83	27127.91
566.029	26620.01
566.228	26769.51
566.427	26507.37
566.625	26667.11
566.824	26396.78
567.023	26521.71
567.222	25823.35
567.42	26691.69
567.619	26601.58
567.818	26404.97
568.016	26435.69
568.215	26376.3
568.414	26067.06
568.612	26560.62
568.811	26015.86
569.01	26237.04
569.208	25524.35
569.407	26237.04
569.605	25747.58
569.804	25776.25
570.002	25958.52
570.201	25849.97
570.4	25626.74
570.598	25403.52
570.797	25223.3
570.995	25526.39
571.193	25251.97
571.392	25505.91
571.59	25305.21
571.789	25391.23
571.987	25471.1
572.186	25407.61
572.384	25151.62
572.582	25129.09
572.781	25084.03
572.979	24649.86
573.177	24739.97
573.376	24875.14
573.574	24739.97
573.772	24971.39
573.971	24389.77
574.169	24483.98
574.367	24361.1
574.565	24148.11
574.763	24219.79
574.962	24322.19
575.16	24359.05
575.358	24246.41
575.556	24049.81
575.754	24326.28
575.952	24035.47
576.151	24361.1
576.349	24068.24
576.547	23914.64
576.745	24101.01
576.943	24156.3
577.141	23974.03
577.339	23955.6
577.537	23617.69
577.735	23548.06
577.933	23842.96
578.131	23750.81
578.329	23632.02
578.527	23378.08
578.725	23398.55
578.923	23507.1
579.121	23138.46
579.319	23283.87
579.516	23484.57
579.714	23298.2
579.912	23019.68
580.11	23136.41
580.308	23156.89
580.506	23136.41
580.704	22618.28
580.901	22718.63
581.099	23314.59
581.297	22745.25
581.495	22907.04
581.692	22464.68
581.89	22661.29
582.088	22896.8
582.285	22749.35
582.483	22663.33
582.681	22479.02
582.878	22483.11
583.076	22081.71
583.274	22380.71
583.471	22077.62
583.669	22159.53
583.866	21901.49
584.064	22063.28
584.262	22010.03
584.459	22126.77
584.657	21735.6
584.854	22126.77
585.052	21567.67
585.249	22036.66
585.447	21899.44
585.644	21649.59
585.841	21567.67
586.039	21545.14
586.236	21379.26
586.434	21223.61
586.631	21510.33
586.828	21448.89
587.026	21280.96
587.223	21330.11
587.42	21000.38
587.618	21061.82
587.815	20807.87
588.012	20818.11
588.21	20797.63
588.407	20965.57
588.604	20846.79
588.801	20574.41
588.999	20572.36
589.196	20854.98
589.393	20537.54
589.59	20605.13
589.787	20240.59
589.984	20363.47
590.182	20531.4
590.379	20472.01
590.576	20271.31
590.773	20093.13
590.97	20234.44
591.167	20271.31
591.364	20039.89
591.561	20052.17
591.758	19833.04
591.955	20119.76
592.152	19894.48
592.349	19654.87
592.546	19781.84
592.743	19656.92
592.94	19300.57
593.137	19749.07
593.334	19507.41
593.531	19278.04
593.727	19622.1
593.924	19595.48
594.121	19151.07
594.318	19347.67
594.515	18923.74
594.712	19273.95
594.908	19142.88
595.105	19052.77
595.302	18985.18
595.499	19075.29
595.696	18954.46
595.892	18858.21
596.089	19130.59
596.286	18972.89
596.482	18573.54
596.679	18606.31
596.876	18567.4
597.072	18491.62
597.269	18620.64
597.466	18534.63
597.662	18114.8
597.859	18311.4
598.055	18186.47
598.252	18008.3
598.448	17975.53
598.645	18223.34
598.841	18022.64
599.038	17991.92
599.234	18188.52
599.431	17871.09
599.627	17639.67
599.824	18090.22
600.02	18002.16
600.217	17803.5
600.413	17893.61
600.609	17559.8
600.806	17477.88
601.002	17795.31
601.198	17398.01
601.395	17404.15
601.591	17258.74
601.787	17344.76
601.984	17318.14
602.18	17252.6
602.376	17131.77
602.572	17268.98
602.769	16967.93
602.965	17064.19
603.161	17082.62
603.357	17064.19
603.553	16871.68
603.75	17056
603.946	16802.05
604.142	16918.78
604.338	16431.37
604.534	16873.73
604.73	16324.87
604.926	16386.31
605.122	16685.31
605.318	16396.55
605.514	16482.56
605.71	16304.39
605.906	16269.58
606.102	16384.26
606.298	16308.49
606.494	16263.43
606.69	16451.84
606.886	16156.94
607.082	16050.44
607.278	16029.96
607.474	15763.73
607.67	16101.64
607.866	15606.03
608.062	16210.18
608.257	15862.03
608.453	15778.06
608.649	15706.38
608.845	15634.71
609.041	15776.02
609.236	15847.69
609.432	15857.93
609.628	15614.23
609.824	15575.31
610.019	15747.34
610.215	15716.62
610.411	15696.14
610.606	15448.34
610.802	15479.06
610.998	15104.28
611.193	15304.98
611.389	15270.17
611.584	15524.12
611.78	15235.35
611.976	15241.5
612.171	15347.99
612.367	15345.94
612.562	15089.95
612.758	14979.36
612.953	14977.31
613.149	15257.88
613.344	15044.89
613.539	15155.48
613.735	15202.58
613.93	15130.91
614.126	15001.88
614.321	15132.95
614.517	15046.94
614.712	15022.36
614.907	14866.72
615.103	14879
615.298	14582.05
615.493	14930.2
615.688	14932.25
615.884	15034.65
616.079	14860.57
616.274	14803.23
616.47	14792.99
616.665	14713.12
616.86	14676.26
617.055	14663.97
617.25	14616.86
617.445	14739.74
617.641	14283.05
617.836	14659.87
618.031	14229.8
618.226	14688.54
618.421	14141.74
618.616	14448.93
618.811	14278.95
619.006	14328.1
619.201	14102.82
619.396	14297.38
619.591	13783.34
619.786	14102.82
619.981	13783.34
620.176	14078.25
620.371	13709.61
620.566	13981.99
620.761	13881.64
620.956	13785.39
621.151	13883.69
621.346	13816.11
621.541	13347.12
621.735	13637.94
621.93	13171
622.125	13470
622.32	13091.13
622.515	13441.33
622.709	13193.53
622.904	13201.72
623.099	13134.14
623.294	13005.11
623.488	12837.18
623.683	12974.39
623.878	12802.36
624.072	12816.7
624.267	12589.38
624.462	12554.56
624.656	12298.56
624.851	12497.22
625.046	12486.98
625.24	12331.33
625.435	12273.99
625.629	12243.27
625.824	12177.73
626.018	12169.54
626.213	11800.91
626.407	11964.75
626.602	11784.52
626.796	11813.2
626.991	11858.25
627.185	11774.28
627.38	11450.71
627.574	11612.49
627.768	11696.46
627.963	11544.91
628.157	11462.99
628.352	11487.57
628.546	11223.38
628.74	11280.72
628.935	11163.99
629.129	11233.62
629.323	11080.02
629.517	10926.43
629.712	10758.49
629.906	11182.42
630.1	10639.71
630.294	10582.37
630.489	10699.1
630.683	10731.87
630.877	10430.82
631.071	10580.32
631.265	10563.93
631.459	10320.23
631.653	10336.61
631.848	10484.06
632.042	10168.68
632.236	10158.44
632.43	10019.18
632.624	10049.89
632.818	10160.48
633.012	10041.7
633.206	10006.89
633.4	9906.54
633.594	9664.88
633.788	9736.56
633.982	9834.86
634.176	9750.89
634.369	9589.1
634.563	9660.78
634.757	9630.06
634.951	9550.19
635.145	9599.34
635.339	9595.25
635.533	9496.94
635.726	9392.5
635.92	9144.69
636.114	9257.33
636.308	9226.61
636.501	9064.82
636.695	9206.13
636.889	9077.11
637.083	8964.47
637.276	9111.92
637.47	8821.11
637.664	8851.83
637.857	8864.12
638.051	8810.87
638.244	8716.67
638.438	8821.11
638.632	8677.76
638.825	8585.6
639.019	8585.6
639.212	8388.99
639.406	8556.93
639.599	8286.59
639.793	8409.47
639.986	8354.18
640.18	8343.94
640.373	8341.89
640.567	8239.49
640.76	8223.11
640.954	8184.2
641.147	8126.85
641.34	8116.61
641.534	8049.03
641.727	8012.17
641.92	7899.53
642.114	8114.56
642.307	7813.51
642.5	7815.56
642.694	7803.27
642.887	7727.5
643.08	7745.93
643.273	7649.68
643.467	7750.03
643.66	7586.19
643.853	7532.94
644.046	7393.68
644.239	7389.58
644.432	7381.39
644.626	7348.62
644.819	7463.31
645.012	7399.82
645.205	7258.51
645.398	7256.47
645.591	7299.47
645.784	7149.97
645.977	7113.11
646.17	7178.64
646.363	7123.35
646.556	6928.79
646.749	6936.98
646.942	6904.21
647.135	6652.31
647.328	6984.09
647.521	6904.21
647.714	6850.97
647.907	6740.38
648.099	6797.72
648.292	6662.55
648.485	6627.74
648.678	6668.7
648.871	6680.99
649.064	6597.02
649.256	6498.72
649.449	6357.41
649.642	6633.88
649.835	6566.3
650.027	6261.15
650.22	6228.38
650.413	6312.35
650.605	6287.78
650.798	6207.91
650.991	6246.82
651.183	6181.28
651.376	6076.84
651.568	6064.55
651.761	6085.03
651.954	6035.88
652.146	6150.56
652.339	5980.58
652.531	6205.86
652.724	6091.17
652.916	5943.72
653.109	5960.1
653.301	5921.19
653.494	5982.63
653.686	5767.59
653.879	5888.42
654.071	5773.74
654.263	5654.95
654.456	5671.34
654.648	5673.39
654.84	5499.31
655.033	5747.11
655.225	5613.99
655.417	5548.46
655.61	5605.8
655.802	5544.36
655.994	5540.27
656.186	5339.57
656.379	5368.24
656.571	5415.34
656.763	5331.37
656.955	5382.57
657.148	5388.72
657.34	5374.38
657.532	5173.68
657.724	5140.91
657.916	5220.78
658.108	5243.31
658.3	5153.2
658.492	5142.96
658.684	5003.7
658.876	5056.95
659.068	5036.47
659.26	4981.17
659.452	4843.96
659.644	5106.1
659.836	5136.82
660.028	5009.84
660.22	4768.18
660.412	4872.63
660.604	4827.57
660.796	4970.93
660.988	4721.08
661.18	4819.38
661.372	4712.89
661.563	4729.27
661.755	4737.46
661.947	4682.17
662.139	4704.7
662.331	4610.49
662.522	4553.15
662.714	4604.35
662.906	4571.58
663.097	4585.91
663.289	4530.62
663.481	4495.8
663.673	4489.66
663.864	4639.16
664.056	4471.23
664.247	4415.93
664.439	4346.3
664.631	4489.66
664.822	4487.61
665.014	4327.87
665.205	4293.05
665.397	4362.69
665.588	4293.05
665.78	4264.38
665.971	4202.94
666.163	4245.95
666.354	4153.79
666.546	4121.03
666.737	4102.59
666.929	4102.59
667.12	4170.18
667.311	4219.33
667.503	3992
667.694	4309.44
667.885	4018.63
668.077	4248
668.268	4041.15
668.459	3959.24
668.651	4110.79
668.842	3946.95
669.033	3944.9
669.224	3897.8
669.416	4016.58
669.607	3973.57
669.798	3834.31
669.989	4012.48
670.18	3840.45
670.371	4002.24
670.563	3805.64
670.754	3819.97
670.945	3914.18
671.136	3834.31
671.327	3752.39
671.518	3897.8
671.709	3756.49
671.9	3891.65
672.091	3752.39
672.282	3840.45
672.473	3783.11
672.664	3754.44
672.855	3674.57
673.046	3824.07
673.237	3645.9
673.428	3686.86
673.619	3559.88
673.809	3594.7
674	3633.61
674.191	3629.51
674.382	3621.32
674.573	3635.66
674.764	3643.85
674.954	3600.84
675.145	3461.58
675.336	3502.54
675.527	3394
675.717	3559.88
675.908	3588.55
676.099	3451.34
676.289	3611.08
676.48	3459.53
676.671	3523.02
676.861	3432.91
677.052	3445.2
677.243	3449.29
677.433	3469.77
677.624	3527.11
677.814	3359.18
678.005	3420.62
678.195	3447.24
678.386	3363.28
678.576	3359.18
678.767	3297.74
678.957	3430.86
679.148	3398.09
679.338	3340.75
679.529	3389.9
679.719	3336.65
679.909	3439.05
680.1	3338.7
680.29	3301.84
680.481	3221.97
680.671	3418.57
680.861	3330.51
681.052	3191.25
681.242	3285.45
681.432	3277.26
681.622	3367.37
681.813	3217.87
682.003	3215.82
682.193	3193.3
682.383	3373.52
682.573	3301.84
682.764	3138
682.954	3273.17
683.144	3211.73
683.334	3273.17
683.524	3234.25
683.714	3232.21
683.904	3203.54
684.094	3244.49
684.284	3213.77
684.474	3213.77
684.664	3088.85
684.854	3129.81
685.044	3127.76
685.234	3090.9
685.424	3209.68
685.614	3092.94
685.804	3117.52
685.994	3013.07
686.184	3131.86
686.374	3066.32
686.564	3092.94
686.753	3043.79
686.943	3049.94
687.133	2992.59
687.323	3002.83
687.513	3049.94
687.702	3049.94
687.892	2994.64
688.082	3064.27
688.272	2968.02
688.461	2982.35
688.651	2963.92
688.841	2920.92
689.03	2978.26
689.22	2818.52
689.41	2707.93
689.599	2798.04
689.789	2890.2
689.979	2783.7
690.168	2814.42
690.358	2746.84
690.547	2685.4
690.737	2759.13
690.926	2824.66
691.116	2720.21
691.305	2857.43
691.495	2755.03
691.684	2714.07
691.874	2644.44
692.063	2810.33
692.252	2687.45
692.442	2619.86
692.631	2552.28
692.82	2677.21
693.01	2570.71
693.199	2675.16
693.388	2650.58
693.578	2597.34
693.767	2585.05
693.956	2542.04
694.146	2542.04
694.335	2447.83
694.524	2511.32
694.713	2507.23
694.902	2587.1
695.092	2419.16
695.281	2472.41
695.47	2542.04
695.659	2441.69
695.848	2480.6
696.037	2410.97
696.226	2468.31
696.415	2353.63
696.604	2392.54
696.793	2388.44
696.982	2445.79
697.171	2351.58
697.36	2378.2
697.549	2347.48
697.738	2384.35
697.927	2392.54
698.116	2413.02
698.305	2499.03
698.494	2316.76
698.683	2402.78
698.872	2292.19
699.061	2302.43
699.25	2355.68
699.438	2329.05
699.627	2304.48
699.816	2339.29
700.005	2380.25
700.193	2279.9
700.382	2380.25
700.571	2306.52
700.76	2382.3
700.948	2238.94
701.137	2216.41
701.326	2351.58
701.514	2257.37
701.703	2222.56
701.892	2230.75
702.08	2349.53
702.269	2308.57
702.457	2267.61
702.646	2308.57
702.834	2212.32
703.023	2310.62
703.212	2367.96
703.4	2324.96
703.589	2206.17
703.777	2288.09
703.965	2179.55
704.154	2210.27
704.342	2245.09
704.531	2275.81
704.719	2286.05
704.907	2243.04
705.096	2249.18
705.284	2288.09
705.472	2337.24
705.661	2245.09
705.849	2310.62
706.037	2261.47
706.226	2267.61
706.414	2267.61
706.602	2329.05
706.79	2224.61
706.979	2372.06
707.167	2191.84
707.355	2243.04
707.543	2298.33
707.731	2206.17
707.919	2281.95
708.107	2234.85
708.296	2320.86
708.484	2275.81
708.672	2159.07
708.86	2269.66
709.048	2226.65
709.236	2144.74
709.424	2296.28
709.612	2277.85
709.8	2419.16
709.988	2267.61
710.176	2290.14
710.364	2324.96
710.551	2382.3
710.739	2324.96
710.927	2318.81
711.115	2376.16
711.303	2427.35
711.491	2298.33
711.679	2253.28
711.866	2353.63
712.054	2308.57
712.242	2343.39
712.43	2390.49
712.617	2337.24
712.805	2298.33
712.993	2394.59
713.181	2331.1
713.368	2281.95
713.556	2251.23
713.744	2245.09
713.931	2214.37
714.119	2294.24
714.306	2327
714.494	2425.31
714.682	2273.76
714.869	2333.15
715.057	2314.72
715.244	2372.06
715.432	2437.59
715.619	2388.44
715.807	2265.57
715.994	2269.66
716.182	2304.48
716.369	2380.25
716.556	2353.63
716.744	2314.72
716.931	2331.1
717.119	2316.76
717.306	2361.82
717.493	2273.76
717.681	2386.4
717.868	2273.76
718.055	2392.54
718.242	2388.44
718.43	2298.33
718.617	2335.2
718.804	2357.72
718.991	2273.76
719.179	2331.1
719.366	2367.96
719.553	2419.16
719.74	2302.43
719.927	2382.3
720.114	2410.97
720.301	2314.72
720.488	2341.34
720.676	2345.44
720.863	2378.2
721.05	2421.21
721.237	2396.64
721.424	2415.07
721.611	2320.86
721.798	2269.66
721.985	2404.83
722.172	2220.51
722.358	2447.83
722.545	2337.24
722.732	2413.02
722.919	2388.44
723.106	2400.73
723.293	2404.83
723.48	2441.69
723.667	2501.08
723.853	2462.17
724.04	2316.76
724.227	2474.46
724.414	2312.67
724.6	2380.25
724.787	2410.97
724.974	2402.78
725.161	2310.62
725.347	2417.12
725.534	2447.83
725.72	2308.57
725.907	2333.15
726.094	2361.82
726.28	2327
726.467	2390.49
726.653	2460.12
726.84	2486.75
727.027	2462.17
727.213	2292.19
727.4	2257.37
727.586	2460.12
727.773	2402.78
727.959	2394.59
728.145	2370.01
728.332	2382.3
728.518	2296.28
728.705	2458.07
728.891	2294.24
729.077	2443.74
729.264	2523.61
729.45	2380.25
729.636	2421.21
729.823	2490.84
730.009	2474.46
730.195	2376.16
730.382	2496.99
730.568	2466.27
730.754	2306.52
730.94	2441.69
731.126	2404.83
731.313	2419.16
731.499	2425.31
731.685	2443.74
731.871	2474.46
732.057	2357.72
732.243	2347.48
732.429	2423.26
732.615	2331.1
732.801	2494.94
732.987	2511.32
733.173	2349.53
733.359	2468.31
733.545	2275.81
733.731	2300.38
733.917	2400.73
734.103	2419.16
734.289	2402.78
734.475	2445.79
734.661	2537.95
734.847	2339.29
735.033	2378.2
735.219	2453.98
735.404	2511.32
735.59	2273.76
735.776	2398.68
735.962	2185.69
736.148	2400.73
736.333	2335.2
736.519	2353.63
736.705	2353.63
736.89	2271.71
737.076	2390.49
737.262	2398.68
737.447	2320.86
737.633	2378.2
737.819	2453.98
738.004	2337.24
738.19	2212.32
738.375	2333.15
738.561	2464.22
738.747	2431.45
738.932	2292.19
739.118	2324.96
739.303	2343.39
739.489	2240.99
739.674	2195.93
739.859	2232.8
740.045	2292.19
740.23	2142.69
740.416	2200.03
740.601	2306.52
740.786	2200.03
740.972	2296.28
741.157	2122.21
741.342	2261.47
741.528	2185.69
741.713	2154.98
741.898	2273.76
742.084	2179.55
742.269	2259.42
742.454	2224.61
742.639	2154.98
742.824	2212.32
743.01	2206.17
743.195	2152.93
743.38	2128.35
743.565	2200.03
743.75	2134.5
743.935	2021.86
744.12	2081.25
744.305	2101.73
744.49	2056.67
744.675	2236.89
744.86	2109.92
745.045	2111.97
745.23	2122.21
745.415	2034.14
745.6	2120.16
745.785	2023.91
745.97	2097.63
746.155	2050.53
746.34	2161.12
746.525	2011.62
746.71	2060.77
746.895	2011.62
747.079	2015.71
747.264	1999.33
747.449	1958.37
747.634	1950.18
747.819	1894.88
748.003	1909.22
748.188	1835.49
748.373	1948.13
748.557	1911.27
748.742	1769.96
748.927	1812.96
749.111	1866.21
749.296	1812.96
749.481	1888.74
749.665	1903.07
749.85	1782.24
750.034	1866.21
750.219	1772
750.404	1839.59
750.588	1776.1
750.773	1767.91
750.957	1792.48
751.141	1718.76
751.326	1667.56
751.51	1716.71
751.695	1688.04
751.879	1632.74
752.064	1722.85
752.248	1675.75
752.432	1720.81
752.617	1550.82
752.801	1636.84
752.985	1710.57
753.17	1634.79
753.354	1612.26
753.538	1563.11
753.722	1452.52
753.907	1579.5
754.091	1567.21
754.275	1501.67
754.459	1479.15
754.643	1419.75
754.828	1526.25
755.012	1520.1
755.196	1458.67
755.38	1481.19
755.564	1366.51
755.748	1370.6
755.932	1548.78
756.116	1368.56
756.3	1436.14
756.484	1436.14
756.668	1415.66
756.852	1313.26
757.036	1346.03
757.22	1444.33
757.404	1407.47
757.588	1452.52
757.772	1343.98
757.956	1362.41
758.14	1409.51
758.323	1333.74
758.507	1350.12
758.691	1339.88
758.875	1329.64
759.059	1311.21
759.242	1315.31
759.426	1247.72
759.61	1360.36
759.794	1239.53
759.977	1268.2
760.161	1141.23
760.345	1249.77
760.528	1257.96
760.712	1151.47
760.895	1264.11
761.079	1237.49
761.263	1243.63
761.446	1235.44
761.63	1139.18
761.813	1116.65
761.997	1149.42
762.18	1108.46
762.364	1180.14
762.547	1006.06
762.731	1108.46
762.914	1133.04
763.098	1106.42
763.281	1024.5
763.464	1149.42
763.648	1108.46
763.831	1149.42
764.015	1120.75
764.198	1143.28
764.381	1073.65
764.564	1024.5
764.748	1096.18
764.931	1077.74
765.114	1071.6
765.297	1083.89
765.481	1094.13
765.664	969.2
765.847	979.44
766.03	1077.74
766.213	1073.65
766.397	1042.93
766.58	993.78
766.763	977.39
766.946	1044.98
767.129	985.58
767.312	1106.42
767.495	915.95
767.678	952.82
767.861	1004.02
768.044	946.67
768.227	899.57
768.41	883.19
768.593	948.72
768.776	899.57
768.959	993.78
769.142	969.2
769.324	965.11
769.507	860.66
769.69	856.56
769.873	870.9
770.056	997.87
770.239	903.67
770.421	903.67
770.604	897.52
770.787	893.43
770.97	891.38
771.152	809.46
771.335	901.62
771.518	899.57
771.7	938.48
771.883	883.19
772.066	799.22
772.248	807.41
772.431	760.31
772.613	883.19
772.796	840.18
772.978	846.32
773.161	799.22
773.343	829.94
773.526	745.97
773.708	813.56
773.891	780.79
774.073	813.56
774.256	713.21
774.438	780.79
774.621	788.98
774.803	827.89
774.985	811.51
775.168	733.68
775.35	719.35
775.532	848.37
775.715	739.83
775.897	768.5
776.079	791.03
776.261	752.12
776.444	668.15
776.626	690.68
776.808	739.83
776.99	596.47
777.173	727.54
777.355	670.2
777.537	641.53
777.719	664.05
777.901	594.42
778.083	672.25
778.265	637.43
778.447	676.34
778.629	721.4
778.811	659.96
778.993	737.78
779.175	662.01
779.357	686.58
779.539	610.81
779.721	608.76
779.903	631.29
780.085	594.42
780.267	680.44
780.449	578.04
780.631	541.18
780.812	598.52
780.994	567.8
781.176	592.37
781.358	518.65
781.54	553.46
781.721	604.66
781.903	567.8
782.085	508.41
782.267	528.89
782.448	506.36
782.63	522.74
782.812	541.18
782.993	594.42
783.175	459.26
783.357	526.84
783.538	489.98
783.72	459.26
783.901	549.37
784.083	469.5
784.264	530.94
784.446	477.69
784.627	475.64
784.809	465.4
784.99	524.79
785.172	502.26
785.353	500.22
785.535	383.48
785.716	436.73
785.897	428.54
786.079	438.78
786.26	422.39
786.441	430.59
786.623	401.91
786.804	449.02
786.985	436.73
787.167	358.91
787.348	381.43
787.529	442.87
787.71	422.39
787.891	543.22
788.073	377.34
788.254	379.39
788.435	399.87
788.616	451.07
788.797	328.19
788.978	375.29
789.159	365.05
789.34	414.2
789.522	422.39
789.703	387.58
789.884	332.28
790.065	322.04
790.246	297.47
790.427	371.19
790.607	324.09
790.788	469.5
790.969	375.29
791.15	301.56
791.331	371.19
791.512	367.1
791.693	283.13
791.874	383.48
792.054	291.32
792.235	299.52
792.416	342.52
792.597	367.1
792.778	328.19
792.958	422.39
793.139	291.32
793.32	379.39
793.5	317.95
793.681	369.15
793.862	264.7
794.042	369.15
794.223	209.4
794.404	330.23
794.584	256.51
794.765	291.32
794.945	344.57
795.126	330.23
795.306	338.43
795.487	227.84
795.667	219.64
795.848	281.08
796.028	272.89
796.209	320
796.389	356.86
796.57	309.76
796.75	219.64
796.93	326.14
797.111	320
797.291	301.56
797.471	289.28
797.652	197.12
797.832	250.36
798.012	297.47
798.192	250.36
798.373	254.46
798.553	291.32
798.733	295.42
798.913	336.38
799.093	207.36
799.274	231.93
799.454	283.13
799.634	233.98
799.814	221.69
799.994	270.84
800.174	186.88
800.354	236.03
800.534	164.35
800.714	207.36
800.894	301.56
801.074	205.31
801.254	272.89
801.434	231.93
801.614	236.03
801.794	223.74
801.974	627.19
802.154	166.4
802.334	207.36
802.514	188.93
802.693	223.74
802.873	162.3
803.053	279.04
803.233	270.84
803.413	174.59
803.592	246.27
803.772	252.41
803.952	213.5
804.131	217.6
804.311	236.03
804.491	289.28
804.67	135.68
804.85	201.21
805.03	170.49
805.209	215.55
805.389	223.74
805.568	215.55
805.748	166.4
805.928	215.55
806.107	213.5
806.287	225.79
806.466	209.4
806.646	158.21
806.825	154.11
807.004	160.25
807.184	215.55
807.363	158.21
807.543	168.45
807.722	217.6
807.901	201.21
808.081	166.4
808.26	109.05
808.439	117.25
808.619	244.22
808.798	172.54
808.977	162.3
809.156	190.97
809.336	123.39
809.515	244.22
809.694	193.02
809.873	80.38
810.052	104.96
810.231	195.07
810.411	141.82
810.59	127.49
810.769	219.64
810.948	207.36
811.127	137.73
811.306	160.25
811.485	166.4
811.664	209.4
811.843	92.67
812.022	147.97
812.201	141.82
812.38	127.49
812.559	143.87
812.737	203.26
812.916	96.77
813.095	152.06
813.274	143.87
813.453	107.01
813.632	129.53
813.811	188.93
813.989	121.34
814.168	254.46
814.347	160.25
814.526	72.19
814.704	100.86
814.883	178.69
815.062	117.25
815.24	115.2
815.419	127.49
815.598	139.77
815.776	111.1
815.955	125.44
816.133	113.15
816.312	127.49
816.49	64
816.669	160.25
816.847	86.53
817.026	184.83
817.204	78.33
817.383	129.53
817.561	137.73
817.74	127.49
817.918	88.57
818.097	207.36
818.275	76.29
818.453	154.11
818.632	135.68
818.81	94.72
818.988	174.59
819.167	172.54
819.345	76.29
819.523	154.11
819.701	80.38
819.879	174.59
820.058	88.57
820.236	178.69
820.414	53.76
820.592	82.43
820.77	150.01
820.948	80.38
821.127	98.81
821.305	154.11
821.483	174.59
821.661	86.53
821.839	72.19
822.017	29.18
822.195	119.29
822.373	104.96
822.551	137.73
822.729	178.69
822.907	102.91
823.085	170.49
823.262	131.58
823.44	125.44
823.618	74.24
823.796	131.58
823.974	66.05
824.152	61.95
824.329	141.82
824.507	121.34
824.685	111.1
824.863	92.67
825.04	156.16
825.218	109.05
825.396	90.62
825.574	111.1
825.751	98.81
825.929	78.33
826.107	74.24
826.284	72.19
826.462	59.9
826.639	55.81
826.817	45.57
826.994	4.61
827.172	35.33
827.349	170.49
827.527	135.68
827.704	45.57
827.882	133.63
828.059	-17.92
828.237	78.33
828.414	143.87
828.591	-30.21
828.769	109.05
828.946	43.52
829.124	43.52
829.301	74.24
829.478	131.58
829.655	86.53
829.833	88.57
830.01	59.9
830.187	100.86
830.364	125.44
830.542	14.85
830.719	57.86
830.896	98.81
831.073	104.96
831.25	113.15
831.427	76.29
831.604	59.9
831.782	88.57
831.959	90.62
832.136	4.61
832.313	55.81
832.49	-17.92
832.667	90.62
832.844	94.72
833.021	117.25
833.198	-7.68
833.374	70.14
833.551	55.81
833.728	80.38
833.905	45.57
834.082	66.05
834.259	94.72
834.436	29.18
834.612	45.57
834.789	113.15
834.966	-40.45
835.143	2.56
835.319	66.05
835.496	47.62
835.673	23.04
835.85	64
836.026	61.95
836.203	47.62
836.38	68.09
836.556	45.57
836.733	31.23
836.909	41.47
837.086	41.47
837.262	78.33
837.439	59.9
837.616	115.2
837.792	31.23
837.968	57.86
838.145	51.71
838.321	88.57
838.498	98.81
838.674	131.58
838.851	10.75
839.027	61.95
839.203	12.8
839.38	43.52
839.556	10.75
839.732	66.05
839.909	94.72
840.085	2.56
840.261	66.05
840.437	123.39
840.614	64
840.79	33.28
840.966	47.62
841.142	43.52
841.318	0.51
841.494	41.47
841.671	117.25
841.847	57.86
842.023	96.77
842.199	68.09
842.375	102.91
842.551	29.18
842.727	-34.3
842.903	107.01
843.079	-19.97
843.255	68.09
843.431	20.99
843.607	88.57
843.783	-15.87
843.959	37.38
844.134	8.7
844.31	123.39
844.486	-11.78
844.662	6.66
844.838	-38.4
845.013	47.62
845.189	107.01
845.365	12.8
845.541	29.18
845.716	100.86
845.892	55.81
846.068	88.57
846.244	27.14
846.419	121.34
846.595	76.29
846.77	-30.21
846.946	41.47
847.122	80.38
847.297	59.9
847.473	100.86
847.648	-11.78
847.824	92.67
847.999	-17.92
848.175	31.23
848.35	14.85
848.526	6.66
848.701	61.95
848.876	10.75
849.052	23.04
849.227	27.14
849.403	-22.02
849.578	55.81
849.753	12.8
849.929	55.81
850.104	-26.11
850.279	0.51
850.454	-60.93
850.63	23.04
850.805	8.7
850.98	76.29
851.155	47.62
851.33	53.76
851.505	-5.63
851.681	55.81
851.856	-42.5
852.031	80.38
852.206	61.95
852.381	-9.73
852.556	0.51
852.731	31.23
852.906	70.14
853.081	-26.11
853.256	-52.74
853.431	70.14
853.606	39.42
853.781	16.9
853.956	-40.45
854.131	43.52
854.305	-32.26
854.48	76.29
854.655	-9.73
854.83	23.04
855.005	4.61
855.18	72.19
855.354	76.29
855.529	86.53
855.704	-32.26
855.879	33.28
856.053	-73.21
856.228	39.42
856.403	-30.21
856.577	37.38
856.752	-48.64
856.926	23.04
857.101	59.9
857.276	55.81
857.45	31.23
857.625	-38.4
857.799	-46.59
857.974	55.81
858.148	-22.02
858.323	82.43
858.497	-13.82
858.672	4.61
858.846	-42.5
859.02	20.99
859.195	-28.16
859.369	-71.17
859.543	12.8
859.718	-19.97
859.892	66.05
860.066	-11.78
860.241	-56.83
860.415	31.23
860.589	-60.93
860.763	20.99
860.938	8.7
861.112	-38.4
861.286	27.14
861.46	10.75
861.634	-48.64
861.808	2.56
861.982	-34.3
862.157	31.23
862.331	-26.11
862.505	12.8
862.679	-15.87
862.853	72.19
863.027	16.9
863.201	127.49
863.375	-5.63
863.549	-28.16
863.722	23.04
863.896	-42.5
864.07	12.8
864.244	96.77
864.418	72.19
864.592	59.9
864.766	25.09
864.939	64
865.113	20.99
865.287	23.04
865.461	0.51
865.634	-26.11
865.808	43.52
865.982	55.81
866.156	-65.02
866.329	-1.54
866.503	-28.16
866.676	18.94
866.85	-5.63
867.024	47.62
867.197	16.9
867.371	33.28
867.544	-36.35
867.718	86.53
867.891	18.94
868.065	-40.45
868.238	10.75
868.412	41.47
868.585	10.75
868.759	-69.12
868.932	51.71
869.105	-30.21
869.279	-22.02
869.452	12.8
869.625	-52.74
869.799	-7.68
869.972	-3.58
870.145	-7.68
870.319	49.66
870.492	96.77
870.665	68.09
870.838	57.86
871.011	10.75
871.185	-24.06
871.358	14.85
871.531	-30.21
871.704	10.75
871.877	78.33
872.05	-26.11
872.223	4.61
872.396	-19.97
872.569	39.42
872.742	-34.3
872.915	-52.74
873.088	20.99
873.261	41.47
873.434	-24.06
873.607	-40.45
873.78	33.28
873.953	-81.41
874.126	-1.54
874.299	33.28
874.471	4.61
874.644	-28.16
874.817	-7.68
874.99	47.62
875.163	-13.82
875.335	33.28
875.508	-22.02
875.681	66.05
875.853	-15.87
876.026	8.7
876.199	-24.06
876.371	-28.16
876.544	-22.02
876.717	82.43
876.889	-30.21
877.062	92.67
877.234	-5.63
877.407	-36.35
877.579	-32.26
877.752	49.66
877.924	-15.87
878.097	-11.78
878.269	33.28
878.442	35.33
878.614	27.14
878.786	23.04
878.959	-7.68
879.131	-19.97
879.303	-52.74
879.476	-15.87
879.648	-5.63
879.82	25.09
879.993	-40.45
880.165	23.04
880.337	-60.93
880.509	8.7
880.681	-1.54
880.854	8.7
881.026	-24.06
881.198	57.86
881.37	33.28
881.542	-85.5
881.714	-48.64
881.886	29.18
882.058	4.61
882.23	-19.97
882.402	-19.97
882.574	-34.3
882.746	-24.06
882.918	-9.73
883.09	29.18
883.262	-60.93
883.434	33.28
883.606	18.94
883.778	12.8
883.95	57.86
884.122	-69.12
884.293	-9.73
884.465	-50.69
884.637	47.62
884.809	-54.78
884.98	37.38
885.152	-11.78
885.324	23.04
885.496	-32.26
885.667	37.38
885.839	-9.73
886.011	59.9
886.182	-24.06
886.354	86.53
886.525	18.94
886.697	25.09
886.869	39.42
887.04	45.57
887.212	6.66
887.383	35.33
887.555	-22.02
887.726	37.38
887.897	-93.69
888.069	23.04
888.24	90.62
888.412	-5.63
888.583	6.66
888.754	35.33
888.926	-38.4
889.097	6.66
889.268	-15.87
889.44	4.61
889.611	-44.54
889.782	-65.02
889.953	35.33
890.125	-36.35
890.296	-44.54
890.467	-32.26
890.638	-1.54
890.809	4.61
890.98	-22.02
891.151	-28.16
891.323	37.38
891.494	-7.68
891.665	29.18
891.836	23.04
892.007	-17.92
892.178	29.18
892.349	-52.74
892.52	92.67
892.691	14.85
892.862	-32.26
893.032	23.04
893.203	-22.02
893.374	-34.3
893.545	6.66
893.716	-24.06
893.887	96.77
894.057	-15.87
894.228	-71.17
894.399	-54.78
894.57	25.09
894.74	18.94
894.911	43.52
895.082	-15.87
895.253	-5.63
895.423	-22.02
895.594	57.86
895.764	-38.4
895.935	-81.41
896.106	-7.68
896.276	-17.92
896.447	33.28
896.617	29.18
896.788	-36.35
896.958	-11.78
897.129	-105.98
897.299	-19.97
897.47	113.15
897.64	12.8
897.81	27.14
897.981	18.94
898.151	-54.78
898.322	-17.92
898.492	33.28
898.662	2.56
898.832	-42.5
899.003	2.56
899.173	35.33
899.343	16.9
899.513	-15.87
