Data from USB4F104151__4__12-26-54-200.txt Node

Date: Fri Mar 14 12:26:54 EDT 2025
User: louis
Spectrometer: USB4F10415
Trigger mode: 4
Integration Time (sec): 2.000000E-2
Scans to average: 1
Electric dark correction enabled: true
Nonlinearity correction enabled: false
Boxcar width: 0
XAxis mode: Wavelengths
Number of Pixels in Spectrum: 3648
>>>>>Begin Spectral Data<<<<<
178.204	-62.46
178.424	-62.46
178.644	-62.46
178.864	-121.85
179.084	-80.89
179.304	-44.03
179.524	-41.98
179.744	1.02
179.964	35.84
180.184	31.74
180.404	-9.22
180.624	-44.03
180.844	11.26
181.064	1.02
181.283	48.13
181.503	-15.36
181.723	25.6
181.943	3.07
182.163	1.02
182.383	-7.17
182.602	13.31
182.822	54.27
183.042	1.02
183.262	62.46
183.482	31.74
183.701	37.89
183.921	52.22
184.141	-1.02
184.361	60.42
184.58	-48.13
184.8	-21.5
185.02	-19.46
185.239	48.13
185.459	-15.36
185.679	66.56
185.898	39.94
186.118	95.23
186.338	29.7
186.557	132.09
186.777	-48.13
186.997	111.61
187.216	7.17
187.436	37.89
187.655	27.65
187.875	44.03
188.095	-33.79
188.314	27.65
188.534	21.5
188.753	-1.02
188.973	19.46
189.192	70.65
189.412	21.5
189.631	17.41
189.851	-23.55
190.07	78.85
190.29	-31.74
190.509	-7.17
190.729	46.08
190.948	99.33
191.168	160.77
191.387	9.22
191.607	5.12
191.826	-5.12
192.045	25.6
192.265	23.55
192.484	-3.07
192.704	37.89
192.923	-68.61
193.142	113.66
193.362	25.6
193.581	80.89
193.8	-50.18
194.02	64.51
194.239	46.08
194.458	54.27
194.678	23.55
194.897	25.6
195.116	64.51
195.335	23.55
195.555	72.7
195.774	52.22
195.993	48.13
196.212	25.6
196.432	-27.65
196.651	21.5
196.87	103.42
197.089	62.46
197.308	89.09
197.528	-11.26
197.747	-7.17
197.966	76.8
198.185	72.7
198.404	95.23
198.623	46.08
198.842	97.28
199.062	5.12
199.281	56.32
199.5	5.12
199.719	9.22
199.938	-1.02
200.157	72.7
200.376	7.17
200.595	13.31
200.814	-27.65
201.033	-5.12
201.252	3.07
201.471	74.75
201.69	99.33
201.909	3.07
202.128	23.55
202.347	35.84
202.566	9.22
202.785	-11.26
203.004	3.07
203.223	82.94
203.442	17.41
203.661	23.55
203.879	62.46
204.098	15.36
204.317	-1.02
204.536	-11.26
204.755	29.7
204.974	17.41
205.193	-41.98
205.411	162.81
205.63	19.46
205.849	23.55
206.068	7.17
206.287	60.42
206.505	19.46
206.724	7.17
206.943	70.65
207.162	15.36
207.381	35.84
207.599	33.79
207.818	-54.27
208.037	-7.17
208.255	7.17
208.474	128
208.693	-3.07
208.911	-27.65
209.13	13.31
209.349	82.94
209.567	50.18
209.786	62.46
210.005	5.12
210.223	64.51
210.442	68.61
210.661	52.22
210.879	-23.55
211.098	-7.17
211.316	72.7
211.535	33.79
211.753	-21.5
211.972	-17.41
212.191	50.18
212.409	15.36
212.628	91.13
212.846	-5.12
213.065	41.98
213.283	-9.22
213.502	60.42
213.72	44.03
213.938	7.17
214.157	29.7
214.375	66.56
214.594	105.47
214.812	-5.12
215.031	62.46
215.249	13.31
215.467	99.33
215.686	29.7
215.904	68.61
216.122	-13.31
216.341	11.26
216.559	44.03
216.778	33.79
216.996	154.62
217.214	39.94
217.432	-52.22
217.651	15.36
217.869	68.61
218.087	19.46
218.306	31.74
218.524	37.89
218.742	70.65
218.96	76.8
219.179	52.22
219.397	72.7
219.615	58.37
219.833	74.75
220.051	44.03
220.27	25.6
220.488	54.27
220.706	33.79
220.924	1.02
221.142	-13.31
221.36	58.37
221.578	123.9
221.796	-5.12
222.015	35.84
222.233	27.65
222.451	39.94
222.669	17.41
222.887	50.18
223.105	23.55
223.323	23.55
223.541	-66.56
223.759	82.94
223.977	46.08
224.195	80.89
224.413	46.08
224.631	44.03
224.849	46.08
225.067	76.8
225.285	72.7
225.503	17.41
225.721	-15.36
225.939	-5.12
226.157	60.42
226.375	125.95
226.592	21.5
226.81	107.52
227.028	91.13
227.246	109.57
227.464	58.37
227.682	48.13
227.9	29.7
228.117	48.13
228.335	99.33
228.553	27.65
228.771	48.13
228.989	78.85
229.206	76.8
229.424	-15.36
229.642	-5.12
229.86	54.27
230.077	27.65
230.295	25.6
230.513	72.7
230.731	-5.12
230.948	31.74
231.166	72.7
231.384	13.31
231.601	56.32
231.819	9.22
232.037	70.65
232.254	52.22
232.472	103.42
232.689	72.7
232.907	48.13
233.125	-7.17
233.342	-21.5
233.56	-11.26
233.777	19.46
233.995	62.46
234.213	74.75
234.43	27.65
234.648	19.46
234.865	54.27
235.083	27.65
235.3	19.46
235.518	50.18
235.735	66.56
235.953	97.28
236.17	23.55
236.388	33.79
236.605	25.6
236.822	62.46
237.04	23.55
237.257	74.75
237.475	23.55
237.692	19.46
237.909	-37.89
238.127	72.7
238.344	-3.07
238.562	17.41
238.779	39.94
238.996	25.6
239.214	9.22
239.431	113.66
239.648	33.79
239.865	54.27
240.083	54.27
240.3	-3.07
240.517	-5.12
240.735	17.41
240.952	70.65
241.169	121.85
241.386	93.18
241.603	70.65
241.821	50.18
242.038	72.7
242.255	68.61
242.472	1.02
242.689	58.37
242.907	62.46
243.124	37.89
243.341	3.07
243.558	-9.22
243.775	-46.08
243.992	-31.74
244.209	41.98
244.426	19.46
244.643	87.04
244.86	-9.22
245.078	84.99
245.295	7.17
245.512	76.8
245.729	3.07
245.946	29.7
246.163	70.65
246.38	54.27
246.597	52.22
246.814	33.79
247.031	68.61
247.248	64.51
247.464	60.42
247.681	39.94
247.898	-19.46
248.115	66.56
248.332	-21.5
248.549	27.65
248.766	117.76
248.983	84.99
249.2	9.22
249.417	76.8
249.633	54.27
249.85	-33.79
250.067	-41.98
250.284	37.89
250.501	60.42
250.717	76.8
250.934	82.94
251.151	-9.22
251.368	70.65
251.585	15.36
251.801	25.6
252.018	31.74
252.235	-48.13
252.451	58.37
252.668	3.07
252.885	64.51
253.102	46.08
253.318	-3.07
253.535	44.03
253.752	25.6
253.968	-5.12
254.185	-5.12
254.401	-17.41
254.618	54.27
254.835	13.31
255.051	111.61
255.268	11.26
255.484	87.04
255.701	54.27
255.917	7.17
256.134	27.65
256.351	58.37
256.567	11.26
256.784	33.79
257	-44.03
257.217	87.04
257.433	76.8
257.65	70.65
257.866	23.55
258.082	-17.41
258.299	-11.26
258.515	23.55
258.732	25.6
258.948	-21.5
259.165	25.6
259.381	-15.36
259.597	35.84
259.814	25.6
260.03	17.41
260.246	39.94
260.463	97.28
260.679	97.28
260.895	39.94
261.112	46.08
261.328	56.32
261.544	-76.8
261.761	-7.17
261.977	-17.41
262.193	-29.7
262.409	64.51
262.626	54.27
262.842	21.5
263.058	64.51
263.274	74.75
263.49	21.5
263.707	33.79
263.923	25.6
264.139	78.85
264.355	46.08
264.571	93.18
264.787	-25.6
265.004	68.61
265.22	70.65
265.436	-48.13
265.652	-31.74
265.868	62.46
266.084	27.65
266.3	60.42
266.516	5.12
266.732	15.36
266.948	25.6
267.164	52.22
267.38	76.8
267.596	23.55
267.812	33.79
268.028	46.08
268.244	11.26
268.46	64.51
268.676	41.98
268.892	101.37
269.108	7.17
269.324	-44.03
269.54	48.13
269.756	46.08
269.972	-23.55
270.188	48.13
270.403	27.65
270.619	27.65
270.835	-7.17
271.051	29.7
271.267	23.55
271.483	25.6
271.698	37.89
271.914	27.65
272.13	-3.07
272.346	-3.07
272.562	21.5
272.777	66.56
272.993	35.84
273.209	21.5
273.425	50.18
273.64	-78.85
273.856	105.47
274.072	93.18
274.287	-19.46
274.503	62.46
274.719	33.79
274.934	62.46
275.15	-1.02
275.366	29.7
275.581	37.89
275.797	54.27
276.012	50.18
276.228	9.22
276.444	113.66
276.659	107.52
276.875	5.12
277.09	-23.55
277.306	-29.7
277.521	9.22
277.737	-19.46
277.952	70.65
278.168	-11.26
278.383	-3.07
278.599	-39.94
278.814	39.94
279.03	60.42
279.245	62.46
279.461	-1.02
279.676	84.99
279.892	33.79
280.107	-9.22
280.322	48.13
280.538	11.26
280.753	62.46
280.969	50.18
281.184	66.56
281.399	62.46
281.615	33.79
281.83	64.51
282.045	-1.02
282.26	1.02
282.476	58.37
282.691	-25.6
282.906	11.26
283.122	15.36
283.337	15.36
283.552	101.37
283.767	-17.41
283.983	78.85
284.198	15.36
284.413	58.37
284.628	9.22
284.843	7.17
285.058	74.75
285.274	21.5
285.489	9.22
285.704	1.02
285.919	21.5
286.134	62.46
286.349	62.46
286.564	23.55
286.779	-25.6
286.995	128
287.21	17.41
287.425	84.99
287.64	56.32
287.855	1.02
288.07	-72.7
288.285	66.56
288.5	39.94
288.715	119.81
288.93	-7.17
289.145	-29.7
289.36	-5.12
289.575	35.84
289.79	44.03
290.004	1.02
290.219	-17.41
290.434	39.94
290.649	31.74
290.864	-13.31
291.079	89.09
291.294	39.94
291.509	50.18
291.724	41.98
291.938	3.07
292.153	111.61
292.368	52.22
292.583	109.57
292.798	91.13
293.012	-3.07
293.227	44.03
293.442	50.18
293.657	46.08
293.871	21.5
294.086	78.85
294.301	138.24
294.516	56.32
294.73	13.31
294.945	-11.26
295.16	89.09
295.374	87.04
295.589	97.28
295.804	-29.7
296.018	-11.26
296.233	62.46
296.447	72.7
296.662	37.89
296.877	5.12
297.091	-13.31
297.306	44.03
297.52	54.27
297.735	37.89
297.949	-44.03
298.164	91.13
298.378	-25.6
298.593	29.7
298.807	84.99
299.022	15.36
299.236	-17.41
299.451	41.98
299.665	27.65
299.88	13.31
300.094	78.85
300.309	-5.12
300.523	37.89
300.737	7.17
300.952	27.65
301.166	-13.31
301.381	58.37
301.595	103.42
301.809	44.03
302.024	-31.74
302.238	27.65
302.452	-1.02
302.667	52.22
302.881	68.61
303.095	31.74
303.309	33.79
303.524	93.18
303.738	15.36
303.952	-27.65
304.166	72.7
304.381	35.84
304.595	101.37
304.809	109.57
305.023	41.98
305.237	74.75
305.452	25.6
305.666	87.04
305.88	27.65
306.094	31.74
306.308	29.7
306.522	11.26
306.736	3.07
306.95	41.98
307.164	-1.02
307.379	15.36
307.593	33.79
307.807	109.57
308.021	41.98
308.235	56.32
308.449	3.07
308.663	48.13
308.877	142.33
309.091	37.89
309.305	-7.17
309.519	50.18
309.733	134.14
309.947	54.27
310.161	27.65
310.374	11.26
310.588	74.75
310.802	76.8
311.016	33.79
311.23	33.79
311.444	68.61
311.658	80.89
311.872	80.89
312.085	46.08
312.299	27.65
312.513	17.41
312.727	48.13
312.941	50.18
313.154	84.99
313.368	52.22
313.582	156.67
313.796	64.51
314.009	29.7
314.223	-7.17
314.437	105.47
314.651	15.36
314.864	115.71
315.078	66.56
315.292	70.65
315.505	41.98
315.719	58.37
315.933	44.03
316.146	41.98
316.36	50.18
316.573	154.62
316.787	33.79
317.001	5.12
317.214	-15.36
317.428	78.85
317.641	1.02
317.855	11.26
318.068	37.89
318.282	93.18
318.495	121.85
318.709	54.27
318.922	64.51
319.136	105.47
319.349	101.37
319.563	27.65
319.776	-5.12
319.99	78.85
320.203	72.7
320.417	78.85
320.63	58.37
320.843	44.03
321.057	19.46
321.27	11.26
321.483	66.56
321.697	76.8
321.91	103.42
322.124	62.46
322.337	35.84
322.55	-52.22
322.763	105.47
322.977	3.07
323.19	17.41
323.403	52.22
323.617	76.8
323.83	54.27
324.043	54.27
324.256	19.46
324.469	-15.36
324.683	35.84
324.896	52.22
325.109	-21.5
325.322	48.13
325.535	66.56
325.748	21.5
325.962	9.22
326.175	7.17
326.388	44.03
326.601	29.7
326.814	15.36
327.027	76.8
327.24	93.18
327.453	33.79
327.666	119.81
327.879	-13.31
328.092	84.99
328.305	74.75
328.518	1.02
328.731	-23.55
328.944	62.46
329.157	76.8
329.37	62.46
329.583	78.85
329.796	37.89
330.009	1.02
330.222	66.56
330.435	64.51
330.648	80.89
330.861	95.23
331.073	-19.46
331.286	46.08
331.499	103.42
331.712	19.46
331.925	21.5
332.138	9.22
332.35	41.98
332.563	-39.94
332.776	64.51
332.989	37.89
333.202	84.99
333.414	80.89
333.627	33.79
333.84	-21.5
334.053	52.22
334.265	35.84
334.478	-15.36
334.691	91.13
334.903	11.26
335.116	7.17
335.329	103.42
335.541	33.79
335.754	35.84
335.966	29.7
336.179	52.22
336.392	-11.26
336.604	66.56
336.817	9.22
337.029	148.48
337.242	46.08
337.454	17.41
337.667	3.07
337.88	93.18
338.092	68.61
338.305	68.61
338.517	64.51
338.729	3.07
338.942	23.55
339.154	33.79
339.367	54.27
339.579	68.61
339.792	37.89
340.004	-5.12
340.217	-19.46
340.429	128
340.641	99.33
340.854	39.94
341.066	7.17
341.278	97.28
341.491	23.55
341.703	5.12
341.915	25.6
342.128	195.58
342.34	60.42
342.552	41.98
342.764	19.46
342.977	37.89
343.189	93.18
343.401	37.89
343.613	35.84
343.826	-17.41
344.038	29.7
344.25	60.42
344.462	80.89
344.674	76.8
344.886	46.08
345.099	54.27
345.311	54.27
345.523	50.18
345.735	-56.32
345.947	37.89
346.159	9.22
346.371	35.84
346.583	70.65
346.795	128
347.007	31.74
347.219	31.74
347.431	44.03
347.643	56.32
347.855	7.17
348.067	39.94
348.279	33.79
348.491	84.99
348.703	31.74
348.915	-48.13
349.127	-15.36
349.339	62.46
349.551	-1.02
349.763	48.13
349.975	41.98
350.187	113.66
350.399	76.8
350.61	95.23
350.822	115.71
351.034	64.51
351.246	37.89
351.458	50.18
351.669	50.18
351.881	-11.26
352.093	93.18
352.305	115.71
352.517	74.75
352.728	97.28
352.94	121.85
353.152	39.94
353.363	5.12
353.575	-5.12
353.787	-31.74
353.999	-1.02
354.21	134.14
354.422	9.22
354.633	46.08
354.845	37.89
355.057	44.03
355.268	72.7
355.48	132.09
355.692	-1.02
355.903	95.23
356.115	-39.94
356.326	-13.31
356.538	74.75
356.749	52.22
356.961	70.65
357.172	37.89
357.384	-31.74
357.595	140.29
357.807	5.12
358.018	89.09
358.23	-9.22
358.441	37.89
358.653	95.23
358.864	21.5
359.075	17.41
359.287	95.23
359.498	80.89
359.709	82.94
359.921	58.37
360.132	11.26
360.344	60.42
360.555	93.18
360.766	50.18
360.977	35.84
361.189	1.02
361.4	50.18
361.611	31.74
361.823	111.61
362.034	7.17
362.245	-13.31
362.456	37.89
362.667	-1.02
362.879	19.46
363.09	91.13
363.301	17.41
363.512	95.23
363.723	37.89
363.935	37.89
364.146	31.74
364.357	7.17
364.568	72.7
364.779	-21.5
364.99	123.9
365.201	-11.26
365.412	109.57
365.623	7.17
365.834	87.04
366.045	76.8
366.256	66.56
366.467	33.79
366.678	39.94
366.889	17.41
367.1	21.5
367.311	72.7
367.522	-11.26
367.733	128
367.944	50.18
368.155	89.09
368.366	74.75
368.577	80.89
368.788	115.71
368.999	33.79
369.209	97.28
369.42	95.23
369.631	62.46
369.842	93.18
370.053	70.65
370.264	64.51
370.474	101.37
370.685	9.22
370.896	35.84
371.107	183.29
371.317	37.89
371.528	68.61
371.739	91.13
371.95	19.46
372.16	70.65
372.371	66.56
372.582	54.27
372.792	48.13
373.003	52.22
373.214	33.79
373.424	134.14
373.635	7.17
373.846	72.7
374.056	25.6
374.267	78.85
374.477	80.89
374.688	37.89
374.898	37.89
375.109	23.55
375.319	99.33
375.53	64.51
375.74	74.75
375.951	44.03
376.161	82.94
376.372	87.04
376.582	-23.55
376.793	3.07
377.003	17.41
377.214	91.13
377.424	21.5
377.635	64.51
377.845	101.37
378.055	48.13
378.266	31.74
378.476	29.7
378.686	35.84
378.897	56.32
379.107	68.61
379.317	44.03
379.528	72.7
379.738	121.85
379.948	60.42
380.158	68.61
380.369	66.56
380.579	84.99
380.789	185.34
380.999	134.14
381.21	209.92
381.42	70.65
381.63	68.61
381.84	54.27
382.05	99.33
382.261	31.74
382.471	13.31
382.681	-3.07
382.891	109.57
383.101	130.05
383.311	17.41
383.521	93.18
383.731	87.04
383.941	66.56
384.151	72.7
384.361	46.08
384.571	27.65
384.781	89.09
384.991	123.9
385.201	84.99
385.411	119.81
385.621	130.05
385.831	74.75
386.041	35.84
386.251	52.22
386.461	72.7
386.671	60.42
386.881	84.99
387.091	56.32
387.301	89.09
387.511	46.08
387.72	93.18
387.93	93.18
388.14	64.51
388.35	9.22
388.56	107.52
388.769	54.27
388.979	89.09
389.189	46.08
389.399	84.99
389.609	72.7
389.818	97.28
390.028	105.47
390.238	125.95
390.447	82.94
390.657	72.7
390.867	78.85
391.076	74.75
391.286	158.72
391.496	1.02
391.705	66.56
391.915	111.61
392.125	87.04
392.334	52.22
392.544	76.8
392.753	117.76
392.963	5.12
393.172	130.05
393.382	39.94
393.591	80.89
393.801	70.65
394.01	148.48
394.22	39.94
394.429	89.09
394.639	-13.31
394.848	80.89
395.058	123.9
395.267	109.57
395.477	113.66
395.686	93.18
395.895	214.01
396.105	64.51
396.314	144.38
396.524	138.24
396.733	95.23
396.942	101.37
397.152	130.05
397.361	105.47
397.57	109.57
397.78	138.24
397.989	115.71
398.198	70.65
398.407	175.1
398.617	134.14
398.826	111.61
399.035	171.01
399.244	78.85
399.453	148.48
399.663	113.66
399.872	119.81
400.081	25.6
400.29	123.9
400.499	66.56
400.708	97.28
400.917	68.61
401.127	121.85
401.336	64.51
401.545	107.52
401.754	138.24
401.963	119.81
402.172	44.03
402.381	44.03
402.59	154.62
402.799	62.46
403.008	195.58
403.217	150.53
403.426	140.29
403.635	68.61
403.844	123.9
404.053	205.82
404.262	134.14
404.471	238.59
404.68	148.48
404.888	193.53
405.097	111.61
405.306	267.26
405.515	209.92
405.724	173.05
405.933	138.24
406.142	144.38
406.35	211.96
406.559	203.77
406.768	152.57
406.977	316.41
407.185	140.29
407.394	166.91
407.603	187.39
407.812	205.82
408.02	310.27
408.229	252.92
408.438	257.02
408.646	162.81
408.855	203.77
409.064	220.16
409.272	228.35
409.481	347.13
409.69	306.17
409.898	375.8
410.107	209.92
410.315	283.64
410.524	328.7
410.733	338.94
410.941	328.7
411.15	353.27
411.358	457.72
411.567	338.94
411.775	322.56
411.984	445.43
412.192	445.43
412.401	529.4
412.609	519.16
412.818	484.34
413.026	502.78
413.234	521.21
413.443	508.92
413.651	525.3
413.86	599.03
414.068	625.65
414.276	631.8
414.485	580.6
414.693	644.09
414.901	590.84
415.11	703.48
415.318	721.91
415.526	732.15
415.734	762.87
415.943	783.35
416.151	836.6
416.359	814.07
416.567	838.64
416.776	928.75
416.984	941.04
417.192	943.09
417.4	934.9
417.608	949.23
417.817	992.24
418.025	1143.79
418.233	1217.52
418.441	1059.82
418.649	1240.05
418.857	1281
419.065	1289.2
419.273	1254.38
419.481	1295.34
419.689	1479.66
419.897	1496.04
420.105	1524.71
420.313	1573.86
420.521	1584.1
420.729	1725.41
420.937	1698.79
421.145	1790.95
421.353	1801.19
421.561	1942.5
421.769	1924.07
421.977	1948.64
422.185	2048.99
422.393	2153.44
422.601	2282.46
422.809	2284.51
423.017	2300.89
423.224	2391
423.432	2474.97
423.64	2558.94
423.848	2739.16
424.056	2626.52
424.263	2771.93
424.471	2866.13
424.679	2900.95
424.887	3120.08
425.094	3173.33
425.302	3142.61
425.51	3404.75
425.718	3367.88
425.925	3439.56
426.133	3754.95
426.341	3701.7
426.548	3810.25
426.756	3967.94
426.964	4021.19
427.171	4277.18
427.379	4301.76
427.586	4416.44
427.794	4578.23
428.001	4897.72
428.209	5012.4
428.417	4795.32
428.624	5223.34
428.832	5225.39
429.039	5194.67
429.247	5229.49
429.454	5862.31
429.662	5950.37
429.869	5704.62
430.076	6247.33
430.284	5919.65
430.491	6181.79
430.699	6691.74
430.906	6554.52
431.114	6400.93
431.321	6912.92
431.528	7148.43
431.736	7400.34
431.943	7814.02
432.15	7615.37
432.358	7642
432.565	8010.63
432.772	8045.45
432.979	8467.33
433.187	8760.19
433.394	8725.37
433.601	9280.37
433.808	9479.02
434.016	9175.92
434.223	9669.48
434.43	10222.44
434.637	9853.8
434.844	10771.29
435.052	10875.74
435.259	10890.07
435.466	10951.51
435.673	11037.53
435.88	11328.34
436.087	12086.09
436.294	12221.25
436.501	11907.91
436.708	11998.02
436.915	12387.14
437.122	13216.57
437.329	13105.98
437.537	13302.58
437.743	13609.78
437.95	13568.82
438.157	14334.76
438.364	14766.88
438.571	14594.85
438.778	14998.3
438.985	16206.6
439.192	15704.85
439.399	16257.8
439.606	15897.36
439.813	16782.08
440.02	17857.26
440.227	17238.78
440.433	17265.4
440.64	17935.09
440.847	17697.52
441.054	18146.03
441.261	19391.19
441.467	19112.67
441.674	19403.48
441.881	20157.13
442.088	19925.71
442.294	20032.21
442.501	20712.13
442.708	20845.25
442.914	21818.04
443.121	22516.39
443.328	22184.62
443.534	23622.3
443.741	22618.79
443.948	22737.57
444.154	24525.45
444.361	24263.31
444.568	24545.93
444.774	24474.25
444.981	24738.44
445.187	25617.02
445.394	26483.31
445.6	26020.47
445.807	28748.36
446.013	27503.2
446.22	28129.87
446.426	29172.29
446.633	28897.86
446.839	30345.78
447.046	28871.24
447.252	30906.92
447.459	30706.22
447.665	30577.2
447.871	32154.13
448.078	33579.52
448.284	31896.09
448.491	32549.39
448.697	33868.28
448.903	34746.86
449.11	34890.22
449.316	33974.78
449.522	34714.09
449.728	35858.91
449.935	36225.5
450.141	35899.87
450.347	36688.34
450.553	35455.46
450.76	36061.66
450.966	37290.44
451.172	37079.5
451.378	37728.7
451.584	37292.49
451.791	38181.31
451.997	38083
452.203	38582.71
452.409	38595
452.615	38490.55
452.821	36884.94
453.027	37149.13
453.233	38324.66
453.44	37173.7
453.646	37632.45
453.852	37626.31
454.058	38414.77
454.264	36938.19
454.47	37964.22
454.676	37358.02
454.882	38560.18
455.088	34937.32
455.294	35645.92
455.5	36180.44
455.705	36209.11
455.911	34849.26
456.117	34226.68
456.323	33886.71
456.529	32293.4
456.735	33831.42
456.941	32881.16
457.147	32137.75
457.352	30904.87
457.558	30712.36
457.764	31095.33
457.97	30378.54
458.176	29829.69
458.381	29794.87
458.587	28256.85
458.793	28504.65
458.999	26978.92
459.204	28817.99
459.41	27961.94
459.616	25881.21
459.821	26120.82
460.027	26077.81
460.233	25385.6
460.438	24449.67
460.644	24580.74
460.85	23302.81
461.055	22874.79
461.261	22919.84
461.466	21234.36
461.672	20507.34
461.878	22215.34
462.083	20802.24
462.289	20380.36
462.494	19974.86
462.7	19280.6
462.905	18666.21
463.111	19389.14
463.316	19694.29
463.522	19194.59
463.727	19190.49
463.932	18973.41
464.138	18954.97
464.343	18979.55
464.549	18387.69
464.754	18916.06
464.959	18813.66
465.165	18780.9
465.37	17918.7
465.575	17425.14
465.781	18209.51
465.986	18088.68
466.191	17548.02
466.397	17212.15
466.602	16528.13
466.807	16993.02
467.012	16831.23
467.218	16956.16
467.423	17025.79
467.628	16933.63
467.833	17505.01
468.038	16933.63
468.244	16521.99
468.449	16968.45
468.654	16573.19
468.859	16198.41
469.064	16618.24
469.269	15579.92
469.474	15616.79
469.679	16022.28
469.885	15612.69
470.09	15864.59
470.295	15801.1
470.5	15598.35
470.705	15344.41
470.91	15246.1
471.115	15000.35
471.32	15346.45
471.525	15033.11
471.73	14574.37
471.935	14582.56
472.139	14193.45
472.344	14578.47
472.549	14265.13
472.754	14154.54
472.959	13957.93
473.164	13593.39
473.369	13646.64
473.574	13880.11
473.778	13671.22
473.983	13382.45
474.188	13740.85
474.393	13110.07
474.598	13046.58
474.802	12743.49
475.007	12952.38
475.212	12923.71
475.417	12542.78
475.621	12311.36
475.826	12215.11
476.031	12129.09
476.235	12065.61
476.44	12053.32
476.645	11866.95
476.849	11889.48
477.054	11739.98
477.259	11682.64
477.463	11656.01
477.668	11467.6
477.872	11486.03
478.077	11318.1
478.282	10773.34
478.486	11213.65
478.691	10900.31
478.895	10802.01
479.1	10763.1
479.304	10646.37
479.509	10357.6
479.713	10697.56
479.918	10253.16
480.122	10173.28
480.326	10261.35
480.531	10378.08
480.735	10312.55
480.94	10197.86
481.144	10570.59
481.348	9974.63
481.553	10177.38
481.757	9843.56
481.961	10277.73
482.166	10234.72
482.37	10048.36
482.574	9784.17
482.778	10173.28
482.983	10081.13
483.187	9806.7
483.391	9958.25
483.595	9880.43
483.8	9948.01
484.004	9974.63
484.208	10013.54
484.412	10058.6
484.616	9993.06
484.821	9943.91
485.025	9773.93
485.229	9970.54
485.433	9833.32
485.637	10007.4
485.841	9905
486.045	9984.87
486.249	10068.84
486.453	9909.1
486.657	9974.63
486.861	10009.45
487.065	9769.83
487.269	9874.28
487.473	9704.3
487.677	10161
487.881	9919.34
488.085	9839.47
488.289	9888.62
488.493	9974.63
488.697	10197.86
488.901	10263.4
489.105	10193.76
489.309	10005.35
489.512	10175.33
489.716	9972.58
489.92	10185.57
490.124	10066.79
490.328	10429.28
490.531	10204
490.735	10404.71
490.939	10275.68
491.143	10285.92
491.346	10378.08
491.55	10404.71
491.754	10425.18
491.958	10468.19
492.161	10470.24
492.365	10478.43
492.569	10371.94
492.772	10638.17
492.976	10572.64
493.18	10621.79
493.383	10746.72
493.587	10992.47
493.79	10908.51
493.994	10898.27
494.197	10920.79
494.401	11271
494.605	11135.83
494.808	11316.05
495.012	11467.6
495.215	11367.25
495.419	11400.02
495.622	11316.05
495.825	11606.86
496.029	11434.83
496.232	11916.11
496.436	11680.59
496.639	12309.32
496.843	12143.43
497.046	12221.25
497.249	12292.93
497.453	12628.8
497.656	12559.17
497.859	12606.27
498.063	12747.58
498.266	12868.41
498.469	13085.5
498.673	13116.22
498.876	13409.08
499.079	13466.42
499.282	13331.25
499.485	13863.72
499.689	13894.44
499.892	14093.1
500.095	14125.86
500.298	14447.4
500.501	14328.61
500.705	14621.47
500.908	14764.83
501.111	15045.4
501.314	14971.68
501.517	15199
501.72	15530.77
501.923	15377.17
502.126	15768.34
502.329	15901.45
502.532	16073.48
502.735	15991.56
502.938	16521.99
503.141	16472.84
503.344	16853.76
503.547	16655.11
503.75	17115.9
503.953	17396.47
504.156	17525.49
504.359	17625.84
504.562	17736.43
504.765	18080.49
504.968	18137.84
505.17	18373.35
505.373	18365.16
505.576	18871.01
505.779	18991.84
505.982	19356.38
506.185	19438.3
506.387	19704.53
506.59	19550.93
506.793	20001.49
506.996	20009.68
507.198	20583.11
507.401	20601.54
507.604	20902.59
507.807	20755.14
508.009	21041.85
508.212	21254.84
508.415	21353.15
508.617	21613.24
508.82	21793.46
509.022	21940.91
509.225	22444.71
509.428	22649.51
509.63	22743.72
509.833	22940.32
510.035	23419.55
510.238	23382.68
510.44	23569.05
510.643	23853.72
510.845	24103.57
511.048	24111.76
511.25	24566.41
511.453	24378
511.655	25627.26
511.858	25080.45
512.06	25211.52
512.262	25545.34
512.465	25561.72
512.667	26294.89
512.87	26448.49
513.072	26194.54
513.274	26886.76
513.477	26897
513.679	27316.83
513.881	27503.2
514.084	27746.9
514.286	27806.3
514.488	28146.26
514.69	29104.71
514.893	28764.75
515.095	28701.26
515.297	29200.96
515.499	29465.15
515.701	29782.59
515.904	30276.15
516.106	30511.66
516.308	30444.08
516.51	30773.8
516.712	30556.72
516.914	31293.99
517.116	31638.05
517.318	31625.76
517.52	31832.6
517.722	32086.55
517.925	32537.1
518.127	32401.94
518.329	33012.23
518.531	32561.68
518.733	33567.23
518.935	33985.02
519.136	33659.39
519.338	34302.45
519.54	34187.77
519.742	34726.38
519.944	34664.94
520.146	35566.05
520.348	35254.76
520.55	35351.01
520.752	35699.17
520.954	36284.89
521.155	35760.61
521.357	36628.95
521.559	36876.75
521.761	37476.8
521.963	36934.09
522.164	37392.84
522.366	37882.3
522.568	37747.14
522.77	37972.41
522.971	38513.08
523.173	38420.92
523.375	39098.8
523.576	38615.47
523.778	38719.92
523.98	39297.45
524.181	39322.02
524.383	39451.05
524.584	40012.19
524.786	39983.52
524.988	39981.47
525.189	40425.88
525.391	40380.82
525.592	41021.84
525.794	40798.61
525.995	40888.72
526.197	41294.22
526.398	41134.48
526.6	41290.12
526.801	41789.83
527.003	41617.8
527.204	41795.97
527.406	42551.67
527.607	42353.02
527.808	42764.66
528.01	41886.08
528.211	42211.71
528.412	43092.33
528.614	42703.22
528.815	42955.12
529.016	43493.74
529.218	42854.77
529.419	42742.13
529.62	42948.98
529.822	43170.16
530.023	43108.72
530.224	43028.85
530.425	43305.32
530.626	43100.53
530.828	43213.16
531.029	44206.43
531.23	43497.83
531.431	44030.3
531.632	43911.52
531.833	43962.72
532.035	43698.53
532.236	44018.02
532.437	44239.2
532.638	43651.43
532.839	44192.09
533.04	44493.15
533.241	43868.51
533.442	44384.6
533.643	44015.97
533.844	44413.27
534.045	44142.94
534.246	43700.58
534.447	44550.49
534.648	43944.29
534.849	44183.9
535.05	43788.64
535.251	44331.36
535.451	44239.2
535.652	44239.2
535.853	44159.33
536.054	44394.84
536.255	44554.58
536.456	43891.04
536.657	44759.38
536.857	44280.16
537.058	43962.72
537.259	44374.36
537.46	44427.61
537.66	43886.95
537.861	43979.1
538.062	44593.5
538.263	43893.09
538.463	44421.47
538.664	44263.77
538.865	44560.73
539.065	44904.79
539.266	43915.62
539.466	44632.41
539.667	43643.24
539.868	44099.94
540.068	44433.75
540.269	44511.58
540.469	44118.37
540.67	43731.3
540.87	44231.01
541.071	44384.6
541.271	44441.95
541.472	44034.4
541.672	43886.95
541.873	44142.94
542.073	43581.8
542.274	44480.86
542.474	44204.38
542.675	43757.92
542.875	44446.04
543.075	43845.99
543.276	43563.37
543.476	44259.68
543.676	43618.66
543.877	44091.74
544.077	43905.38
544.277	44079.46
544.478	44063.07
544.678	44349.79
544.878	44204.38
545.078	44005.73
545.279	44321.12
545.479	43565.42
545.679	43813.22
545.879	44013.92
546.079	43800.93
546.28	44132.7
546.48	43647.33
546.68	43784.55
546.88	43948.39
547.08	43903.33
547.28	44167.52
547.48	43870.56
547.68	43985.25
547.88	43356.52
548.081	44280.16
548.281	44028.26
548.481	43710.82
548.681	44058.98
548.881	43524.46
549.081	43932
549.28	44237.15
549.48	44253.53
549.68	43491.69
549.88	44302.68
550.08	43686.25
550.28	43829.6
550.48	43827.56
550.68	44202.33
550.88	43784.55
551.08	43592.04
551.279	43819.36
551.479	43479.4
551.679	43630.95
551.879	43925.86
552.079	43362.67
552.278	43692.39
552.478	43583.85
552.678	43833.7
552.878	43993.44
553.077	43678.05
553.277	43282.8
553.477	44028.26
553.676	43563.37
553.876	43678.05
554.076	43706.73
554.275	43389.29
554.475	43352.43
554.674	43907.43
554.874	43503.98
555.074	43692.39
555.273	42987.89
555.473	43807.08
555.672	43254.12
555.872	43303.28
556.071	43579.75
556.271	43870.56
556.47	43153.77
556.67	43129.2
556.869	43209.07
557.068	43368.81
557.268	43127.15
557.467	42873.2
557.667	43258.22
557.866	42955.12
558.065	42721.65
558.265	42781.04
558.464	42844.53
558.663	43258.22
558.863	42398.07
559.062	43592.04
559.261	42424.7
559.461	43100.53
559.66	42467.7
559.859	42822
560.058	42393.98
560.258	43039.09
560.457	42264.96
560.656	42752.37
560.855	42547.57
561.054	42793.33
561.253	41798.02
561.453	42461.56
561.652	42379.64
561.851	42615.16
562.05	42199.42
562.249	42119.55
562.448	42475.9
562.647	42246.52
562.846	42029.44
563.045	42254.72
563.244	41931.14
563.443	42307.96
563.642	41527.69
563.841	41822.59
564.04	41548.17
564.239	42105.21
564.438	41517.45
564.637	42072.45
564.836	41859.46
565.035	41265.55
565.234	41513.35
565.432	41539.97
565.631	41212.3
565.83	41533.83
566.029	40853.9
566.228	41191.82
566.427	40812.95
566.625	41032.08
566.824	40755.6
567.023	41036.17
567.222	40255.9
567.42	40921.49
567.619	40800.66
567.818	40540.57
568.016	40595.86
568.215	40757.65
568.414	40393.11
568.612	41062.8
568.811	40384.92
569.01	39963.04
569.208	39784.86
569.407	40110.49
569.605	39737.76
569.804	40221.08
570.002	39895.46
570.201	40317.34
570.4	39784.86
570.598	39561.64
570.797	39610.79
570.995	39827.87
571.193	39483.81
571.392	39743.91
571.59	39315.88
571.789	39500.2
571.987	38906.29
572.186	39113.13
572.384	39238.06
572.582	39328.17
572.781	39168.43
572.979	38701.49
573.177	39055.79
573.376	38932.91
573.574	38558.13
573.772	39025.07
573.971	38840.75
574.169	38672.82
574.367	38310.33
574.565	38295.99
574.763	38382.01
574.962	38396.34
575.16	37923.26
575.358	38230.46
575.556	37489.09
575.754	38353.33
575.952	37820.86
576.151	37962.17
576.349	37740.99
576.547	37781.95
576.745	37554.63
576.943	37900.73
577.141	37632.45
577.339	37710.27
577.537	37351.88
577.735	37683.65
577.933	37302.73
578.131	37648.83
578.329	37333.45
578.527	36780.49
578.725	37079.5
578.923	37253.58
579.121	36649.42
579.319	36415.96
579.516	36643.28
579.714	36780.49
579.912	36411.86
580.11	36587.99
580.308	36587.99
580.506	36352.47
580.704	35932.64
580.901	36385.24
581.099	36604.37
581.297	36385.24
581.495	35793.37
581.692	36116.95
581.89	35410.4
582.088	35797.47
582.285	35809.76
582.483	35504.61
582.681	35766.75
582.878	35486.18
583.076	35191.27
583.274	35402.21
583.471	35201.51
583.669	35084.78
583.866	35064.3
584.064	35480.03
584.262	34736.62
584.459	35203.56
584.657	34671.09
584.854	34925.04
585.052	34265.59
585.249	34830.83
585.447	34640.37
585.644	34245.11
585.841	34488.82
586.039	34525.68
586.236	33716.73
586.434	34066.94
586.631	33802.75
586.828	33851.9
587.026	33724.93
587.223	33835.52
587.42	33503.74
587.618	33952.25
587.815	33253.89
588.012	33364.48
588.21	33163.78
588.407	33913.34
588.604	33491.46
588.801	33155.59
588.999	33319.43
589.196	33116.68
589.393	32999.94
589.59	32965.13
589.787	32666.13
589.984	32395.79
590.182	32326.16
590.379	32666.13
590.576	32545.3
590.773	32567.82
590.97	31728.16
591.167	32184.85
591.364	31978.01
591.561	31978.01
591.758	31316.51
591.955	31730.2
592.152	31894.04
592.349	31431.2
592.546	31752.73
592.743	31838.75
592.94	31160.87
593.137	31441.44
593.334	31373.86
593.531	30642.73
593.727	31076.9
593.924	30888.49
594.121	30724.65
594.318	31033.89
594.515	30427.7
594.712	31062.57
594.908	30554.67
595.105	30997.03
595.302	30839.34
595.499	30349.87
595.696	30059.06
595.892	30028.34
596.089	30259.76
596.286	30280.24
596.482	30159.41
596.679	30065.21
596.876	30251.57
597.072	29790.78
597.269	29628.99
597.466	29823.54
597.662	29432.38
597.859	29307.46
598.055	29520.45
598.252	29198.91
598.448	29160
598.645	29022.79
598.841	29016.65
599.038	29088.32
599.234	28985.93
599.431	28858.95
599.627	28551.76
599.824	28885.58
600.02	28420.69
600.217	28572.24
600.413	28412.49
600.609	28318.29
600.806	28361.3
601.002	28240.47
601.198	28267.09
601.395	27847.26
601.591	27925.08
601.787	27877.97
601.984	27660.89
602.18	28310.1
602.376	27218.53
602.572	27499.1
602.769	27609.69
602.965	27093.6
603.161	27652.7
603.357	27187.81
603.553	27241.06
603.75	27060.84
603.946	26892.9
604.142	27042.4
604.338	26569.32
604.534	27007.59
604.73	26567.27
604.926	26493.55
605.122	26530.41
605.318	26770.02
605.514	26516.08
605.71	26155.63
605.906	26243.7
606.102	26319.47
606.298	26372.72
606.494	26090.1
606.69	26225.26
606.886	26262.13
607.082	25993.84
607.278	26118.77
607.474	25518.71
607.67	26178.16
607.866	25518.71
608.062	25752.18
608.257	25813.62
608.453	25528.95
608.649	25664.12
608.845	25543.29
609.041	25535.1
609.236	25330.3
609.432	25430.65
609.628	25313.92
609.824	25358.97
610.019	25338.49
610.215	25348.73
610.411	25426.56
610.606	25010.82
610.802	24875.65
610.998	25096.83
611.193	25057.92
611.389	24787.59
611.584	24783.49
611.78	25012.87
611.976	25098.88
612.171	24844.93
612.367	24912.52
612.562	24699.53
612.758	24345.23
612.953	24343.18
613.149	24685.19
613.344	24181.39
613.539	24507.02
613.735	24715.91
613.93	24660.62
614.126	24504.97
614.321	24519.31
614.517	24253.07
614.712	24439.44
614.907	24285.84
615.103	24400.52
615.298	24117.9
615.493	24529.55
615.688	23935.63
615.884	24478.35
616.079	23714.45
616.274	24183.44
616.47	24048.27
616.665	24150.67
616.86	23939.73
617.055	23929.49
617.25	23562.9
617.445	23857.81
617.641	23308.96
617.836	23857.81
618.031	23427.74
618.226	23808.66
618.421	23458.46
618.616	23540.38
618.811	23073.44
619.006	23425.69
619.201	22887.07
619.396	23034.53
619.591	22598.31
619.786	23026.34
619.981	22618.79
620.176	22956.71
620.371	22407.85
620.566	22850.21
620.761	22516.39
620.956	22663.85
621.151	22137.52
621.346	22330.03
621.541	22016.69
621.735	22287.02
621.93	21754.55
622.125	21707.44
622.32	21787.32
622.515	21971.63
622.709	21217.98
622.904	21668.53
623.099	21596.85
623.294	21449.4
623.488	20859.59
623.683	20753.09
623.878	20773.57
624.072	20861.63
624.267	20734.66
624.462	20574.92
624.656	20290.25
624.851	20357.83
625.046	20294.35
625.24	20232.91
625.435	19999.44
625.629	19868.37
625.824	19862.22
626.018	19952.34
626.213	19364.57
626.407	19669.72
626.602	19208.92
626.796	19489.49
626.991	19053.28
627.185	19053.28
627.38	18938.59
627.574	19012.32
627.768	18805.47
627.963	18883.3
628.157	18637.54
628.352	18817.76
628.546	18365.16
628.74	18457.32
628.935	18219.75
629.129	18529
629.323	18189.03
629.517	18051.82
629.712	17885.94
629.906	17818.35
630.1	17806.06
630.294	17672.95
630.489	17466.1
630.683	17617.65
630.877	17312.5
631.071	17306.36
631.265	17193.72
631.459	17072.89
631.653	16997.12
631.848	17111.8
632.042	16884.48
632.236	16968.45
632.43	16741.12
632.624	16798.46
632.818	16503.56
633.012	16413.45
633.206	16397.06
633.4	16292.62
633.594	16151.31
633.788	16093.96
633.982	16157.45
634.176	15803.15
634.369	15883.02
634.563	15780.62
634.757	15899.41
634.951	15706.9
635.145	15659.79
635.339	15725.33
635.533	15233.82
635.726	15475.48
635.92	15258.39
636.114	15229.72
636.308	15094.55
636.501	15248.15
636.695	15022.87
636.889	14986.01
637.083	15035.16
637.276	14768.93
637.47	14578.47
637.664	14779.17
637.857	14795.55
638.051	14562.08
638.244	14410.53
638.438	14426.92
638.632	14373.67
638.825	14242.6
639.019	14160.68
639.212	13923.12
639.406	13937.45
639.599	13771.57
639.793	13790
639.986	13513.52
640.18	13820.72
640.373	13863.72
640.567	13447.99
640.76	13456.18
640.954	13421.36
641.147	13282.1
641.34	13230.9
641.534	13329.2
641.727	13423.41
641.92	13161.27
642.114	13103.93
642.307	12935.99
642.5	12915.51
642.694	12837.69
642.887	12876.6
643.08	12925.75
643.273	12763.97
643.467	12591.94
643.66	12350.28
643.853	12772.16
644.046	12450.63
644.239	12401.47
644.432	12174.15
644.626	12143.43
644.819	12286.79
645.012	12200.77
645.205	12079.94
645.398	12053.32
645.591	11938.63
645.784	12010.31
645.977	11744.08
646.17	11799.37
646.363	11594.58
646.556	11557.71
646.749	11676.49
646.942	11588.43
647.135	11420.5
647.328	11516.75
647.521	11281.24
647.714	11367.25
647.907	11098.97
648.099	11047.77
648.292	11160.41
648.485	11166.55
648.678	10908.51
648.871	10883.93
649.064	10773.34
649.256	10939.23
649.449	10826.59
649.642	10736.48
649.835	10597.21
650.027	10613.6
650.22	10656.61
650.413	10396.51
650.605	10390.37
650.798	10457.95
650.991	10337.12
651.183	10197.86
651.376	10468.19
651.568	10302.31
651.761	10337.12
651.954	10181.48
652.146	10107.75
652.339	9988.97
652.531	9919.34
652.724	9972.58
652.916	9708.4
653.109	9890.67
653.301	9864.04
653.494	9730.92
653.686	9548.65
653.879	9661.29
654.071	9603.95
654.263	9470.83
654.456	9438.06
654.648	9524.08
654.84	9335.67
655.033	9257.84
655.225	9206.64
655.417	9128.82
655.61	9198.45
655.802	9173.88
655.994	9057.14
656.186	9171.83
656.379	9057.14
656.571	8844.15
656.763	8940.41
656.955	8735.61
657.148	8881.02
657.34	8588.16
657.532	8618.88
657.724	8737.66
657.916	8614.78
658.108	8635.26
658.3	8563.58
658.492	8489.85
658.684	8434.56
658.876	8506.24
659.068	8352.64
659.26	8194.95
659.452	8242.05
659.644	8330.11
659.836	8364.93
660.028	8305.54
660.22	7979.91
660.412	8221.57
660.604	7967.62
660.796	7981.96
660.988	8008.58
661.18	7930.76
661.372	7826.31
661.563	7953.29
661.755	7834.5
661.947	7682.95
662.139	7719.82
662.331	7771.02
662.522	7668.62
662.714	7568.27
662.906	7717.77
663.097	7457.68
663.289	7539.6
663.481	7439.25
663.673	7375.76
663.864	7367.57
664.056	7472.01
664.247	7445.39
664.439	7222.16
664.631	7121.81
664.822	7238.55
665.014	7209.87
665.205	7084.95
665.397	7068.56
665.588	7039.89
665.78	7064.47
665.971	6925.21
666.163	7117.72
666.354	6966.17
666.546	6863.77
666.737	6861.72
666.929	6890.39
667.12	6896.53
667.311	6618.01
667.503	6622.11
667.694	6777.75
667.885	6552.48
668.077	6781.85
668.268	6484.89
668.459	6632.35
668.651	6495.13
668.842	6405.02
669.033	6486.94
669.224	6335.39
669.416	6329.25
669.607	6448.03
669.798	6235.04
669.989	6251.42
670.18	6335.39
670.371	6398.88
670.563	6091.68
670.754	6149.03
670.945	6251.42
671.136	6329.25
671.327	6044.58
671.518	5915.56
671.709	5946.28
671.9	6120.35
672.091	5985.19
672.282	6001.57
672.473	5858.21
672.664	6034.34
672.855	5944.23
673.046	5972.9
673.237	5940.13
673.428	5856.17
673.619	5827.5
673.809	5850.02
674	5774.25
674.191	5821.35
674.382	5700.52
674.573	5833.64
674.764	5675.95
674.954	5630.89
675.145	5526.44
675.336	5659.56
675.527	5512.11
675.717	5669.8
675.908	5665.71
676.099	5634.99
676.289	5602.22
676.48	5469.1
676.671	5315.5
676.861	5378.99
677.052	5313.45
677.243	5284.78
677.433	5344.17
677.624	5344.17
677.814	5223.34
678.005	5256.11
678.195	5409.71
678.386	5290.93
678.576	5295.02
678.767	5268.4
678.957	5147.57
679.148	5094.32
679.338	5159.86
679.529	5018.55
679.719	5090.23
679.909	5112.75
680.1	5039.03
680.29	5157.81
680.481	4989.88
680.671	4922.29
680.861	4991.92
681.052	5045.17
681.242	5061.55
681.432	4973.49
681.622	4973.49
681.813	4905.91
682.003	4846.52
682.193	4959.16
682.383	4869.05
682.573	4918.2
682.764	4770.74
682.954	4848.57
683.144	4852.66
683.334	4895.67
683.524	4799.41
683.714	4778.94
683.904	4680.63
684.094	4869.05
684.284	4643.77
684.474	4950.96
684.664	4635.58
684.854	4649.91
685.044	4643.77
685.234	4625.34
685.424	4697.02
685.614	4565.95
685.804	4567.99
685.994	4541.37
686.184	4613.05
686.374	4617.15
686.564	4457.4
686.753	4531.13
686.943	4406.2
687.133	4461.5
687.323	4436.92
687.513	4357.05
687.702	4387.77
687.892	4387.77
688.082	4379.58
688.272	4326.33
688.461	4400.06
688.651	4180.93
688.841	4191.17
689.03	4291.52
689.22	4217.79
689.41	4156.35
689.599	4258.75
689.789	4185.02
689.979	4129.73
690.168	4084.67
690.358	4072.39
690.547	4078.53
690.737	4099.01
690.926	4219.84
691.116	3996.61
691.305	3953.6
691.495	4070.34
691.684	3974.08
691.874	3933.12
692.063	3888.07
692.252	3920.84
692.442	3943.36
692.631	3830.73
692.82	3759.05
693.01	3812.29
693.199	3959.75
693.388	3675.08
693.578	3822.53
693.767	3705.8
693.956	3703.75
694.146	3681.22
694.335	3668.94
694.524	3763.14
694.713	3630.02
694.902	3734.47
695.092	3650.5
695.281	3724.23
695.47	3531.72
695.659	3550.15
695.848	3591.11
696.037	3673.03
696.226	3632.07
696.415	3429.32
696.604	3531.72
696.793	3431.37
696.982	3525.58
697.171	3531.72
697.36	3521.48
697.549	3443.66
697.738	3476.43
697.927	3537.87
698.116	3486.67
698.305	3503.05
698.494	3492.81
698.683	3437.52
698.872	3345.36
699.061	3363.79
699.25	3384.27
699.438	3388.36
699.627	3560.39
699.816	3412.94
700.005	3298.25
700.193	3400.65
700.382	3371.98
700.571	3380.17
700.76	3279.82
700.948	3419.08
701.137	3261.39
701.326	3281.87
701.514	3242.96
701.703	3259.34
701.892	3103.7
702.08	3261.39
702.269	3150.8
702.457	3283.92
702.646	3210.19
702.834	3171.28
703.023	3193.81
703.212	3191.76
703.4	3136.46
703.589	3226.57
703.777	3093.46
703.965	3169.23
704.154	3259.34
704.342	3214.29
704.531	3171.28
704.719	3070.93
704.907	3261.39
705.096	3079.12
705.284	3136.46
705.472	3302.35
705.661	3064.79
705.849	3296.21
706.037	3142.61
706.226	3138.51
706.414	3027.92
706.602	3034.07
706.79	2958.29
706.979	3052.5
707.167	3118.03
707.355	3054.55
707.543	2999.25
707.731	3066.83
707.919	3019.73
708.107	3040.21
708.296	2999.25
708.484	3120.08
708.672	2991.06
708.86	3064.79
709.048	3021.78
709.236	3111.89
709.424	3040.21
709.612	3040.21
709.8	3013.59
709.988	3105.74
710.176	3099.6
710.364	2900.95
710.551	3140.56
710.739	3040.21
710.927	3044.31
711.115	3013.59
711.303	2982.87
711.491	3019.73
711.679	2855.89
711.866	2903
712.054	2954.19
712.242	2933.72
712.43	3083.22
712.617	2970.58
712.805	2925.52
712.993	2999.25
713.181	2950.1
713.368	2972.63
713.556	3023.83
713.744	2978.77
713.931	3019.73
714.119	2952.15
714.306	3003.35
714.494	2984.91
714.682	2974.67
714.869	3021.78
715.057	2886.61
715.244	2780.12
715.432	2843.6
715.619	2925.52
715.807	2872.28
715.994	2851.8
716.182	2773.97
716.369	2911.19
716.556	2755.54
716.744	2966.48
716.931	3036.11
717.119	2835.41
717.306	3036.11
717.493	2859.99
717.681	3079.12
717.868	2845.65
718.055	2810.84
718.242	2870.23
718.43	2733.01
718.617	2876.37
718.804	2880.47
718.991	2943.96
719.179	2788.31
719.366	2692.05
719.553	2819.03
719.74	2862.04
719.927	2673.62
720.114	2851.8
720.301	2821.08
720.488	2804.69
720.676	2763.73
720.863	2841.56
721.05	2825.17
721.237	2808.79
721.424	2819.03
721.611	2806.74
721.798	2726.87
721.985	2903
722.172	2651.1
722.358	2644.95
722.545	2837.46
722.732	2806.74
722.919	2730.97
723.106	2675.67
723.293	2821.08
723.48	2829.27
723.667	2765.78
723.853	2829.27
724.04	2919.38
724.227	2808.79
724.414	2780.12
724.6	2624.47
724.787	2843.6
724.974	2819.03
725.161	2702.29
725.347	2773.97
725.534	2741.21
725.72	2687.96
725.907	2808.79
726.094	2753.49
726.28	2743.25
726.467	2771.93
726.653	2765.78
726.84	2722.77
727.027	2769.88
727.213	2737.11
727.4	2780.12
727.586	2829.27
727.773	2644.95
727.959	2759.64
728.145	2556.89
728.332	2743.25
728.518	2804.69
728.705	2722.77
728.891	2667.48
729.077	2593.75
729.264	2647
729.45	2636.76
729.636	2698.2
729.823	2647
730.009	2755.54
730.195	2702.29
730.382	2620.38
730.568	2659.29
730.754	2644.95
730.94	2679.77
731.126	2735.06
731.313	2773.97
731.499	2671.58
731.685	2702.29
731.871	2714.58
732.057	2814.93
732.243	2780.12
732.429	2657.24
732.615	2651.1
732.801	2683.86
732.987	2687.96
733.173	2722.77
733.359	2640.86
733.545	2532.31
733.731	2626.52
733.917	2640.86
734.103	2593.75
734.289	2692.05
734.475	2554.84
734.661	2722.77
734.847	2620.38
735.033	2687.96
735.219	2728.92
735.404	2712.53
735.59	2632.66
735.776	2603.99
735.962	2659.29
736.148	2544.6
736.333	2530.27
736.519	2509.79
736.705	2595.8
736.89	2552.79
737.076	2479.07
737.262	2479.07
737.447	2540.51
737.633	2542.55
737.819	2554.84
738.004	2634.71
738.19	2593.75
738.375	2558.94
738.561	2503.64
738.747	2612.18
738.932	2485.21
739.118	2565.08
739.303	2440.15
739.489	2380.76
739.674	2386.91
739.859	2546.65
740.045	2431.96
740.23	2444.25
740.416	2384.86
740.601	2427.87
740.786	2431.96
740.972	2436.06
741.157	2423.77
741.342	2415.58
741.528	2382.81
741.713	2327.52
741.898	2268.13
742.084	2395.1
742.269	2350.04
742.454	2444.25
742.639	2370.52
742.824	2259.93
743.01	2409.44
743.195	2325.47
743.38	2274.27
743.565	2284.51
743.75	2325.47
743.935	2280.41
744.12	2300.89
744.305	2270.17
744.49	2274.27
744.675	2313.18
744.86	2227.17
745.045	2186.21
745.23	2243.55
745.415	2235.36
745.6	2257.89
745.785	2192.35
745.97	2286.56
746.155	2214.88
746.34	2212.83
746.525	2167.77
746.71	2200.54
746.895	2098.14
747.079	2106.34
747.264	2071.52
747.449	2130.91
747.634	2139.1
747.819	2053.09
748.003	2022.37
748.188	2087.9
748.373	1977.31
748.557	1973.22
748.742	1989.6
748.927	1891.3
749.111	1981.41
749.296	1938.4
749.481	2008.03
749.665	1850.34
749.85	1952.74
750.034	1940.45
750.219	2012.13
750.404	1852.39
750.588	1893.35
750.773	1825.76
750.957	1876.96
751.141	1795.04
751.326	1938.4
751.51	1774.56
751.695	1788.9
751.879	1881.06
752.064	1844.2
752.248	1729.51
752.432	1745.89
752.617	1760.23
752.801	1737.7
752.985	1778.66
753.17	1649.64
753.354	1625.06
753.538	1649.64
753.722	1663.97
753.907	1645.54
754.091	1692.65
754.275	1637.35
754.459	1633.26
754.643	1690.6
754.828	1539.05
755.012	1659.88
755.196	1672.17
755.38	1530.86
755.564	1559.53
755.748	1567.72
755.932	1502.19
756.116	1596.39
756.3	1602.54
756.484	1534.95
756.668	1571.82
756.852	1483.75
757.036	1457.13
757.22	1567.72
757.404	1420.27
757.588	1516.52
757.772	1465.32
757.956	1350.64
758.14	1463.27
758.323	1491.95
758.507	1489.9
758.691	1442.79
758.875	1518.57
759.059	1356.78
759.242	1397.74
759.426	1405.93
759.61	1362.92
759.794	1379.31
759.977	1252.33
760.161	1344.49
760.345	1278.96
760.528	1307.63
760.712	1317.87
760.895	1315.82
761.079	1281
761.263	1242.09
761.446	1248.24
761.63	1293.29
761.813	1250.28
761.997	1248.24
762.18	1240.05
762.364	1285.1
762.547	1240.05
762.731	1197.04
762.914	1276.91
763.098	1274.86
763.281	1240.05
763.464	1207.28
763.648	1178.61
763.831	1223.66
764.015	1209.33
764.198	1221.61
764.381	1266.67
764.564	1170.41
764.748	1205.23
764.931	1162.22
765.114	1129.45
765.297	1201.13
765.481	1123.31
765.664	1207.28
765.847	1143.79
766.03	1156.08
766.213	1084.4
766.397	1059.82
766.58	1070.06
766.763	1111.02
766.946	1164.27
767.129	1094.64
767.312	1092.59
767.495	1113.07
767.678	1115.12
767.861	1160.17
768.044	1115.12
768.227	1121.26
768.41	1104.88
768.593	1137.65
768.776	1131.5
768.959	1008.62
769.142	1047.54
769.324	967.67
769.507	996.34
769.69	994.29
769.873	1051.63
770.056	1096.69
770.239	992.24
770.421	1020.91
770.604	971.76
770.787	1014.77
770.97	1014.77
771.152	1002.48
771.335	889.84
771.518	979.95
771.7	1016.82
771.883	965.62
772.066	1035.25
772.248	941.04
772.431	1025.01
772.613	1012.72
772.796	916.47
772.978	857.07
773.161	982
773.343	857.07
773.526	879.6
773.708	918.51
773.891	820.21
774.073	830.45
774.256	1006.58
774.438	1037.3
774.621	805.88
774.803	936.95
774.985	836.6
775.168	951.28
775.35	844.79
775.532	893.94
775.715	775.16
775.897	910.32
776.079	869.36
776.261	785.4
776.444	764.92
776.626	793.59
776.808	871.41
776.99	713.72
777.173	863.22
777.355	777.2
777.537	783.35
777.719	809.97
777.901	785.4
778.083	758.77
778.265	699.38
778.447	779.25
778.629	721.91
778.811	891.89
778.993	769.01
779.175	726
779.357	699.38
779.539	603.13
779.721	639.99
779.903	719.86
780.085	773.11
780.267	748.53
780.449	709.62
780.631	705.53
780.812	691.19
780.994	707.57
781.176	723.96
781.358	635.89
781.54	594.93
781.721	666.61
781.903	609.27
782.085	656.37
782.267	635.89
782.448	629.75
782.63	592.89
782.812	576.5
782.993	689.14
783.175	617.46
783.357	588.79
783.538	627.7
783.72	621.56
783.901	605.17
784.083	621.56
784.264	539.64
784.446	576.5
784.627	498.68
784.809	506.87
784.99	517.11
785.172	560.12
785.353	472.06
785.535	615.41
785.716	519.16
785.897	459.77
786.079	547.83
786.26	556.02
786.441	500.73
786.623	502.78
786.804	637.94
786.985	498.68
787.167	517.11
787.348	381.95
787.529	474.1
787.71	435.19
787.891	523.26
788.073	459.77
788.254	445.43
788.435	537.59
788.616	506.87
788.797	467.96
788.978	515.06
789.159	461.82
789.34	484.34
789.522	424.95
789.703	508.92
789.884	390.14
790.065	424.95
790.246	404.47
790.427	521.21
790.607	488.44
790.788	494.58
790.969	396.28
791.15	408.57
791.331	427
791.512	480.25
791.693	394.23
791.874	383.99
792.054	449.53
792.235	414.71
792.416	467.96
792.597	334.84
792.778	386.04
792.958	390.14
793.139	347.13
793.32	369.66
793.5	379.9
793.681	406.52
793.862	369.66
794.042	402.43
794.223	392.19
794.404	349.18
794.584	365.56
794.765	340.99
794.945	394.23
795.126	363.51
795.306	361.47
795.487	402.43
795.667	359.42
795.848	355.32
796.028	359.42
796.209	377.85
796.389	371.71
796.57	340.99
796.75	373.75
796.93	293.88
797.111	412.67
797.291	359.42
797.471	357.37
797.652	345.08
797.832	263.16
798.012	371.71
798.192	207.87
798.373	320.51
798.553	332.79
798.733	291.84
798.913	211.96
799.093	281.6
799.274	277.5
799.454	312.32
799.634	269.31
799.814	355.32
799.994	232.44
800.174	383.99
800.354	250.88
800.534	246.78
800.714	340.99
800.894	205.82
801.074	285.69
801.254	261.12
801.434	336.89
801.614	312.32
801.794	353.27
801.974	631.8
802.154	310.27
802.334	293.88
802.514	340.99
802.693	308.22
802.873	259.07
803.053	310.27
803.233	361.47
803.413	267.26
803.592	236.54
803.772	216.06
803.952	252.92
804.131	265.21
804.311	310.27
804.491	328.7
804.67	211.96
804.85	244.73
805.03	261.12
805.209	257.02
805.389	222.2
805.568	164.86
805.748	261.12
805.928	193.53
806.107	314.36
806.287	230.4
806.466	226.3
806.646	236.54
806.825	236.54
807.004	191.49
807.184	228.35
807.363	259.07
807.543	183.29
807.722	238.59
807.901	293.88
808.081	185.34
808.26	271.36
808.439	218.11
808.619	222.2
808.798	275.45
808.977	246.78
809.156	224.25
809.336	203.77
809.515	236.54
809.694	246.78
809.873	197.63
810.052	265.21
810.231	211.96
810.411	148.48
810.59	214.01
810.769	160.77
810.948	185.34
811.127	191.49
811.306	142.33
811.485	216.06
811.664	175.1
811.843	203.77
812.022	238.59
812.201	177.15
812.38	232.44
812.559	175.1
812.737	207.87
812.916	207.87
813.095	136.19
813.274	171.01
813.453	164.86
813.632	234.49
813.811	207.87
813.989	164.86
814.168	158.72
814.347	226.3
814.526	121.85
814.704	205.82
814.883	211.96
815.062	191.49
815.24	199.68
815.419	125.95
815.598	132.09
815.776	195.58
815.955	134.14
816.133	150.53
816.312	164.86
816.49	171.01
816.669	160.77
816.847	179.2
817.026	105.47
817.204	193.53
817.383	183.29
817.561	166.91
817.74	240.64
817.918	173.05
818.097	125.95
818.275	156.67
818.453	166.91
818.632	140.29
818.81	101.37
818.988	189.44
819.167	158.72
819.345	111.61
819.523	216.06
819.701	142.33
819.879	87.04
820.058	158.72
820.236	144.38
820.414	164.86
820.592	44.03
820.77	68.61
820.948	134.14
821.127	117.76
821.305	173.05
821.483	78.85
821.661	156.67
821.839	168.96
822.017	109.57
822.195	103.42
822.373	95.23
822.551	199.68
822.729	168.96
822.907	80.89
823.085	70.65
823.262	84.99
823.44	97.28
823.618	113.66
823.796	152.57
823.974	136.19
824.152	109.57
824.329	115.71
824.507	107.52
824.685	78.85
824.863	121.85
825.04	109.57
825.218	125.95
825.396	128
825.574	113.66
825.751	109.57
825.929	130.05
826.107	48.13
826.284	58.37
826.462	132.09
826.639	35.84
826.817	123.9
826.994	93.18
827.172	93.18
827.349	119.81
827.527	181.25
827.704	107.52
827.882	115.71
828.059	140.29
828.237	62.46
828.414	166.91
828.591	136.19
828.769	109.57
828.946	97.28
829.124	156.67
829.301	128
829.478	76.8
829.655	101.37
829.833	56.32
830.01	21.5
830.187	150.53
830.364	62.46
830.542	119.81
830.719	128
830.896	101.37
831.073	95.23
831.25	91.13
831.427	44.03
831.604	144.38
831.782	121.85
831.959	117.76
832.136	70.65
832.313	134.14
832.49	173.05
832.667	152.57
832.844	109.57
833.021	166.91
833.198	76.8
833.374	93.18
833.551	150.53
833.728	150.53
833.905	99.33
834.082	62.46
834.259	144.38
834.436	111.61
834.612	78.85
834.789	60.42
834.966	50.18
835.143	84.99
835.319	99.33
835.496	113.66
835.673	105.47
835.85	144.38
836.026	-1.02
836.203	76.8
836.38	46.08
836.556	58.37
836.733	58.37
836.909	109.57
837.086	93.18
837.262	37.89
837.439	111.61
837.616	99.33
837.792	103.42
837.968	46.08
838.145	50.18
838.321	87.04
838.498	95.23
838.674	62.46
838.851	52.22
839.027	78.85
839.203	25.6
839.38	97.28
839.556	41.98
839.732	152.57
839.909	103.42
840.085	95.23
840.261	21.5
840.437	93.18
840.614	17.41
840.79	93.18
840.966	35.84
841.142	103.42
841.318	-46.08
841.494	66.56
841.671	58.37
841.847	37.89
842.023	97.28
842.199	48.13
842.375	-33.79
842.551	17.41
842.727	31.74
842.903	121.85
843.079	27.65
843.255	80.89
843.431	-25.6
843.607	68.61
843.783	5.12
843.959	87.04
844.134	17.41
844.31	115.71
844.486	35.84
844.662	-23.55
844.838	91.13
845.013	87.04
845.189	58.37
845.365	93.18
845.541	5.12
845.716	70.65
845.892	109.57
846.068	7.17
846.244	-1.02
846.419	93.18
846.595	23.55
846.77	7.17
846.946	107.52
847.122	21.5
847.297	33.79
847.473	78.85
847.648	78.85
847.824	68.61
847.999	74.75
848.175	19.46
848.35	138.24
848.526	25.6
848.701	64.51
848.876	74.75
849.052	70.65
849.227	76.8
849.403	58.37
849.578	70.65
849.753	64.51
849.929	101.37
850.104	54.27
850.279	58.37
850.454	117.76
850.63	111.61
850.805	93.18
850.98	64.51
851.155	41.98
851.33	93.18
851.505	35.84
851.681	95.23
851.856	-7.17
852.031	58.37
852.206	97.28
852.381	113.66
852.556	62.46
852.731	74.75
852.906	68.61
853.081	68.61
853.256	72.7
853.431	121.85
853.606	7.17
853.781	103.42
853.956	54.27
854.131	-25.6
854.305	-3.07
854.48	1.02
854.655	109.57
854.83	11.26
855.005	44.03
855.18	60.42
855.354	-9.22
855.529	189.44
855.704	74.75
855.879	64.51
856.053	31.74
856.228	72.7
856.403	15.36
856.577	68.61
856.752	3.07
856.926	-25.6
857.101	56.32
857.276	19.46
857.45	48.13
857.625	113.66
857.799	35.84
857.974	27.65
858.148	-15.36
858.323	72.7
858.497	17.41
858.672	70.65
858.846	-7.17
859.02	82.94
859.195	-29.7
859.369	29.7
859.543	15.36
859.718	58.37
859.892	97.28
860.066	11.26
860.241	91.13
860.415	-39.94
860.589	15.36
860.763	56.32
860.938	35.84
861.112	35.84
861.286	62.46
861.46	-93.18
861.634	-29.7
861.808	148.48
861.982	25.6
862.157	64.51
862.331	-25.6
862.505	33.79
862.679	46.08
862.853	17.41
863.027	21.5
863.201	97.28
863.375	-3.07
863.549	23.55
863.722	31.74
863.896	27.65
864.07	29.7
864.244	19.46
864.418	-11.26
864.592	48.13
864.766	29.7
864.939	-23.55
865.113	66.56
865.287	54.27
865.461	5.12
865.634	31.74
865.808	54.27
865.982	9.22
866.156	-50.18
866.329	52.22
866.503	60.42
866.676	25.6
866.85	60.42
867.024	91.13
867.197	44.03
867.371	80.89
867.544	39.94
867.718	54.27
867.891	72.7
868.065	7.17
868.238	-21.5
868.412	15.36
868.585	60.42
868.759	17.41
868.932	70.65
869.105	-23.55
869.279	78.85
869.452	21.5
869.625	46.08
869.799	46.08
869.972	-17.41
870.145	-54.27
870.319	-31.74
870.492	15.36
870.665	35.84
870.838	5.12
871.011	46.08
871.185	1.02
871.358	-101.37
871.531	-19.46
871.704	37.89
871.877	-19.46
872.05	21.5
872.223	50.18
872.396	19.46
872.569	25.6
872.742	15.36
872.915	5.12
873.088	35.84
873.261	25.6
873.434	58.37
873.607	91.13
873.78	21.5
873.953	29.7
874.126	31.74
874.299	9.22
874.471	-33.79
874.644	103.42
874.817	39.94
874.99	64.51
875.163	-41.98
875.335	39.94
875.508	109.57
875.681	52.22
875.853	17.41
876.026	-37.89
876.199	39.94
876.371	9.22
876.544	74.75
876.717	66.56
876.889	33.79
877.062	29.7
877.234	-17.41
877.407	25.6
877.579	23.55
877.752	54.27
877.924	-1.02
878.097	35.84
878.269	3.07
878.442	89.09
878.614	21.5
878.786	3.07
878.959	15.36
879.131	-33.79
879.303	-3.07
879.476	23.55
879.648	13.31
879.82	25.6
879.993	33.79
880.165	21.5
880.337	-37.89
880.509	25.6
880.681	37.89
880.854	31.74
881.026	13.31
881.198	62.46
881.37	9.22
881.542	-11.26
881.714	64.51
881.886	-27.65
882.058	54.27
882.23	52.22
882.402	-25.6
882.574	27.65
882.746	35.84
882.918	5.12
883.09	25.6
883.262	17.41
883.434	-11.26
883.606	-13.31
883.778	91.13
883.95	111.61
884.122	50.18
884.293	76.8
884.465	25.6
884.637	119.81
884.809	-23.55
884.98	33.79
885.152	5.12
885.324	11.26
885.496	-15.36
885.667	17.41
885.839	31.74
886.011	54.27
886.182	50.18
886.354	-29.7
886.525	-15.36
886.697	111.61
886.869	74.75
887.04	5.12
887.212	46.08
887.383	27.65
887.555	-13.31
887.726	-48.13
887.897	3.07
888.069	52.22
888.24	5.12
888.412	-31.74
888.583	74.75
888.754	82.94
888.926	39.94
889.097	21.5
889.268	13.31
889.44	17.41
889.611	-23.55
889.782	44.03
889.953	60.42
890.125	54.27
890.296	-97.28
890.467	70.65
890.638	27.65
890.809	-11.26
890.98	3.07
891.151	37.89
891.323	95.23
891.494	35.84
891.665	-7.17
891.836	82.94
892.007	11.26
892.178	-5.12
892.349	58.37
892.52	-9.22
892.691	48.13
892.862	-35.84
893.032	19.46
893.203	-3.07
893.374	35.84
893.545	19.46
893.716	-1.02
893.887	-35.84
894.057	39.94
894.228	68.61
894.399	15.36
894.57	62.46
894.74	-9.22
894.911	70.65
895.082	-23.55
895.253	31.74
895.423	-11.26
895.594	68.61
895.764	-9.22
895.935	-13.31
896.106	-50.18
896.276	-23.55
896.447	33.79
896.617	21.5
896.788	-58.37
896.958	66.56
897.129	41.98
897.299	39.94
897.47	9.22
897.64	105.47
897.81	27.65
897.981	54.27
898.151	3.07
898.322	19.46
898.492	15.36
898.662	15.36
898.832	-9.22
899.003	62.46
899.173	7.17
899.343	9.22
899.513	33.79
