Data from USB4F104151__16__12-27-05-557.txt Node

Date: Fri Mar 14 12:27:05 EDT 2025
User: louis
Spectrometer: USB4F10415
Trigger mode: 4
Integration Time (sec): 2.000000E-2
Scans to average: 1
Electric dark correction enabled: true
Nonlinearity correction enabled: false
Boxcar width: 0
XAxis mode: Wavelengths
Number of Pixels in Spectrum: 3648
>>>>>Begin Spectral Data<<<<<
178.204	-56.32
178.424	-56.32
178.644	-56.32
178.864	-15.36
179.084	-54.27
179.304	-76.8
179.524	35.84
179.744	-23.55
179.964	50.18
180.184	-13.31
180.404	-27.65
180.624	35.84
180.844	-13.31
181.064	11.26
181.283	44.03
181.503	-35.84
181.723	13.31
181.943	-33.79
182.163	23.55
182.383	-35.84
182.602	56.32
182.822	7.17
183.042	50.18
183.262	56.32
183.482	29.7
183.701	39.94
183.921	-21.5
184.141	-1.02
184.361	66.56
184.58	84.99
184.8	27.65
185.02	64.51
185.239	54.27
185.459	46.08
185.679	89.09
185.898	5.12
186.118	-41.98
186.338	35.84
186.557	23.55
186.777	25.6
186.997	11.26
187.216	41.98
187.436	64.51
187.655	54.27
187.875	76.8
188.095	-37.89
188.314	31.74
188.534	70.65
188.753	23.55
188.973	33.79
189.192	54.27
189.412	39.94
189.631	1.02
189.851	25.6
190.07	50.18
190.29	-23.55
190.509	-1.02
190.729	17.41
190.948	-33.79
191.168	113.66
191.387	66.56
191.607	-5.12
191.826	91.13
192.045	15.36
192.265	66.56
192.484	-13.31
192.704	62.46
192.923	46.08
193.142	82.94
193.362	46.08
193.581	113.66
193.8	-25.6
194.02	31.74
194.239	-37.89
194.458	84.99
194.678	-19.46
194.897	115.71
195.116	78.85
195.335	23.55
195.555	48.13
195.774	35.84
195.993	82.94
196.212	-1.02
196.432	35.84
196.651	41.98
196.87	95.23
197.089	48.13
197.308	23.55
197.528	76.8
197.747	-1.02
197.966	48.13
198.185	58.37
198.404	-29.7
198.623	68.61
198.842	15.36
199.062	58.37
199.281	97.28
199.5	13.31
199.719	87.04
199.938	-23.55
200.157	125.95
200.376	46.08
200.595	52.22
200.814	64.51
201.033	52.22
201.252	19.46
201.471	76.8
201.69	44.03
201.909	101.37
202.128	19.46
202.347	21.5
202.566	74.75
202.785	87.04
203.004	52.22
203.223	125.95
203.442	9.22
203.661	25.6
203.879	78.85
204.098	56.32
204.317	56.32
204.536	76.8
204.755	31.74
204.974	35.84
205.193	29.7
205.411	84.99
205.63	117.76
205.849	-3.07
206.068	19.46
206.287	15.36
206.505	11.26
206.724	50.18
206.943	-25.6
207.162	87.04
207.381	150.53
207.599	-19.46
207.818	33.79
208.037	7.17
208.255	11.26
208.474	72.7
208.693	35.84
208.911	-5.12
209.13	64.51
209.349	27.65
209.567	5.12
209.786	50.18
210.005	80.89
210.223	27.65
210.442	-15.36
210.661	58.37
210.879	7.17
211.098	89.09
211.316	60.42
211.535	3.07
211.753	-35.84
211.972	27.65
212.191	44.03
212.409	95.23
212.628	82.94
212.846	15.36
213.065	-11.26
213.283	41.98
213.502	60.42
213.72	91.13
213.938	-21.5
214.157	103.42
214.375	56.32
214.594	-27.65
214.812	23.55
215.031	13.31
215.249	58.37
215.467	3.07
215.686	41.98
215.904	101.37
216.122	52.22
216.341	9.22
216.559	-13.31
216.778	-3.07
216.996	19.46
217.214	68.61
217.432	60.42
217.651	-23.55
217.869	-1.02
218.087	39.94
218.306	68.61
218.524	84.99
218.742	60.42
218.96	44.03
219.179	11.26
219.397	64.51
219.615	-5.12
219.833	54.27
220.051	21.5
220.27	91.13
220.488	109.57
220.706	5.12
220.924	-15.36
221.142	89.09
221.36	93.18
221.578	82.94
221.796	31.74
222.015	-19.46
222.233	39.94
222.451	37.89
222.669	62.46
222.887	1.02
223.105	52.22
223.323	82.94
223.541	-99.33
223.759	76.8
223.977	39.94
224.195	58.37
224.413	44.03
224.631	21.5
224.849	56.32
225.067	52.22
225.285	39.94
225.503	64.51
225.721	19.46
225.939	74.75
226.157	39.94
226.375	107.52
226.592	70.65
226.81	-35.84
227.028	54.27
227.246	35.84
227.464	39.94
227.682	101.37
227.9	117.76
228.117	-21.5
228.335	5.12
228.553	21.5
228.771	41.98
228.989	35.84
229.206	39.94
229.424	31.74
229.642	-50.18
229.86	-35.84
230.077	72.7
230.295	-37.89
230.513	123.9
230.731	50.18
230.948	146.43
231.166	60.42
231.384	15.36
231.601	41.98
231.819	99.33
232.037	52.22
232.254	-41.98
232.472	56.32
232.689	87.04
232.907	93.18
233.125	-41.98
233.342	41.98
233.56	-29.7
233.777	3.07
233.995	66.56
234.213	128
234.43	37.89
234.648	13.31
234.865	50.18
235.083	21.5
235.3	82.94
235.518	56.32
235.735	91.13
235.953	99.33
236.17	62.46
236.388	-23.55
236.605	64.51
236.822	39.94
237.04	58.37
237.257	50.18
237.475	-5.12
237.692	35.84
237.909	44.03
238.127	70.65
238.344	56.32
238.562	82.94
238.779	58.37
238.996	50.18
239.214	21.5
239.431	-1.02
239.648	-9.22
239.865	84.99
240.083	27.65
240.3	82.94
240.517	25.6
240.735	142.33
240.952	35.84
241.169	56.32
241.386	-5.12
241.603	33.79
241.821	27.65
242.038	76.8
242.255	-25.6
242.472	25.6
242.689	60.42
242.907	54.27
243.124	46.08
243.341	19.46
243.558	76.8
243.775	11.26
243.992	11.26
244.209	87.04
244.426	91.13
244.643	-7.17
244.86	46.08
245.078	-13.31
245.295	21.5
245.512	-37.89
245.729	37.89
245.946	13.31
246.163	60.42
246.38	62.46
246.597	44.03
246.814	99.33
247.031	17.41
247.248	-11.26
247.464	41.98
247.681	84.99
247.898	11.26
248.115	89.09
248.332	56.32
248.549	35.84
248.766	95.23
248.983	101.37
249.2	105.47
249.417	72.7
249.633	74.75
249.85	-17.41
250.067	9.22
250.284	-17.41
250.501	-7.17
250.717	3.07
250.934	-21.5
251.151	7.17
251.368	54.27
251.585	80.89
251.801	-5.12
252.018	44.03
252.235	60.42
252.451	111.61
252.668	-1.02
252.885	44.03
253.102	17.41
253.318	7.17
253.535	68.61
253.752	58.37
253.968	70.65
254.185	62.46
254.401	60.42
254.618	80.89
254.835	78.85
255.051	29.7
255.268	62.46
255.484	39.94
255.701	76.8
255.917	89.09
256.134	21.5
256.351	82.94
256.567	68.61
256.784	-44.03
257	17.41
257.217	13.31
257.433	152.57
257.65	76.8
257.866	25.6
258.082	3.07
258.299	19.46
258.515	44.03
258.732	58.37
258.948	27.65
259.165	41.98
259.381	44.03
259.597	29.7
259.814	54.27
260.03	56.32
260.246	17.41
260.463	52.22
260.679	23.55
260.895	11.26
261.112	72.7
261.328	-76.8
261.544	64.51
261.761	95.23
261.977	3.07
262.193	-11.26
262.409	66.56
262.626	17.41
262.842	37.89
263.058	21.5
263.274	76.8
263.49	54.27
263.707	117.76
263.923	109.57
264.139	56.32
264.355	56.32
264.571	58.37
264.787	-5.12
265.004	15.36
265.22	-7.17
265.436	44.03
265.652	33.79
265.868	11.26
266.084	54.27
266.3	60.42
266.516	-15.36
266.732	48.13
266.948	13.31
267.164	29.7
267.38	95.23
267.596	64.51
267.812	107.52
268.028	82.94
268.244	70.65
268.46	48.13
268.676	3.07
268.892	84.99
269.108	44.03
269.324	-37.89
269.54	-3.07
269.756	128
269.972	31.74
270.188	7.17
270.403	125.95
270.619	70.65
270.835	74.75
271.051	80.89
271.267	60.42
271.483	-3.07
271.698	50.18
271.914	72.7
272.13	56.32
272.346	-1.02
272.562	50.18
272.777	41.98
272.993	48.13
273.209	31.74
273.425	31.74
273.64	15.36
273.856	91.13
274.072	91.13
274.287	62.46
274.503	60.42
274.719	66.56
274.934	-11.26
275.15	27.65
275.366	13.31
275.581	13.31
275.797	-25.6
276.012	50.18
276.228	39.94
276.444	72.7
276.659	89.09
276.875	76.8
277.09	-1.02
277.306	48.13
277.521	1.02
277.737	39.94
277.952	93.18
278.168	3.07
278.383	78.85
278.599	64.51
278.814	97.28
279.03	-56.32
279.245	123.9
279.461	56.32
279.676	50.18
279.892	72.7
280.107	25.6
280.322	11.26
280.538	66.56
280.753	50.18
280.969	66.56
281.184	11.26
281.399	46.08
281.615	78.85
281.83	-5.12
282.045	93.18
282.26	58.37
282.476	52.22
282.691	39.94
282.906	111.61
283.122	-60.42
283.337	31.74
283.552	58.37
283.767	72.7
283.983	15.36
284.198	113.66
284.413	50.18
284.628	19.46
284.843	25.6
285.058	87.04
285.274	1.02
285.489	23.55
285.704	52.22
285.919	23.55
286.134	21.5
286.349	64.51
286.564	66.56
286.779	33.79
286.995	103.42
287.21	80.89
287.425	37.89
287.64	-25.6
287.855	62.46
288.07	44.03
288.285	89.09
288.5	29.7
288.715	35.84
288.93	29.7
289.145	25.6
289.36	62.46
289.575	56.32
289.79	62.46
290.004	62.46
290.219	87.04
290.434	89.09
290.649	29.7
290.864	52.22
291.079	68.61
291.294	11.26
291.509	9.22
291.724	107.52
291.938	48.13
292.153	95.23
292.368	48.13
292.583	54.27
292.798	103.42
293.012	44.03
293.227	29.7
293.442	15.36
293.657	123.9
293.871	35.84
294.086	1.02
294.301	33.79
294.516	52.22
294.73	-27.65
294.945	7.17
295.16	58.37
295.374	117.76
295.589	56.32
295.804	29.7
296.018	27.65
296.233	84.99
296.447	117.76
296.662	66.56
296.877	105.47
297.091	78.85
297.306	89.09
297.52	62.46
297.735	50.18
297.949	-13.31
298.164	62.46
298.378	91.13
298.593	41.98
298.807	-54.27
299.022	87.04
299.236	70.65
299.451	1.02
299.665	7.17
299.88	23.55
300.094	-35.84
300.309	-29.7
300.523	13.31
300.737	15.36
300.952	60.42
301.166	33.79
301.381	15.36
301.595	48.13
301.809	101.37
302.024	44.03
302.238	60.42
302.452	68.61
302.667	50.18
302.881	68.61
303.095	132.09
303.309	41.98
303.524	33.79
303.738	27.65
303.952	23.55
304.166	9.22
304.381	44.03
304.595	58.37
304.809	-50.18
305.023	35.84
305.237	-19.46
305.452	7.17
305.666	50.18
305.88	17.41
306.094	17.41
306.308	54.27
306.522	76.8
306.736	-19.46
306.95	78.85
307.164	33.79
307.379	58.37
307.593	70.65
307.807	25.6
308.021	54.27
308.235	52.22
308.449	-21.5
308.663	-3.07
308.877	1.02
309.091	68.61
309.305	33.79
309.519	13.31
309.733	60.42
309.947	-27.65
310.161	27.65
310.374	99.33
310.588	19.46
310.802	62.46
311.016	66.56
311.23	9.22
311.444	82.94
311.658	3.07
311.872	62.46
312.085	74.75
312.299	48.13
312.513	33.79
312.727	93.18
312.941	-5.12
313.154	72.7
313.368	-1.02
313.582	97.28
313.796	21.5
314.009	-23.55
314.223	66.56
314.437	29.7
314.651	27.65
314.864	37.89
315.078	103.42
315.292	35.84
315.505	31.74
315.719	48.13
315.933	48.13
316.146	25.6
316.36	56.32
316.573	-54.27
316.787	97.28
317.001	19.46
317.214	9.22
317.428	91.13
317.641	41.98
317.855	64.51
318.068	82.94
318.282	109.57
318.495	58.37
318.709	105.47
318.922	1.02
319.136	-29.7
319.349	58.37
319.563	87.04
319.776	5.12
319.99	41.98
320.203	35.84
320.417	158.72
320.63	113.66
320.843	60.42
321.057	68.61
321.27	58.37
321.483	35.84
321.697	29.7
321.91	82.94
322.124	60.42
322.337	123.9
322.55	62.46
322.763	84.99
322.977	39.94
323.19	-15.36
323.403	72.7
323.617	113.66
323.83	117.76
324.043	64.51
324.256	23.55
324.469	-13.31
324.683	41.98
324.896	29.7
325.109	44.03
325.322	70.65
325.535	48.13
325.748	7.17
325.962	84.99
326.175	27.65
326.388	109.57
326.601	78.85
326.814	56.32
327.027	-17.41
327.24	44.03
327.453	54.27
327.666	56.32
327.879	113.66
328.092	19.46
328.305	87.04
328.518	-27.65
328.731	54.27
328.944	64.51
329.157	87.04
329.37	46.08
329.583	74.75
329.796	111.61
330.009	19.46
330.222	39.94
330.435	54.27
330.648	72.7
330.861	-11.26
331.073	62.46
331.286	48.13
331.499	107.52
331.712	35.84
331.925	128
332.138	91.13
332.35	60.42
332.563	58.37
332.776	76.8
332.989	1.02
333.202	87.04
333.414	74.75
333.627	37.89
333.84	1.02
334.053	99.33
334.265	66.56
334.478	44.03
334.691	60.42
334.903	7.17
335.116	39.94
335.329	-33.79
335.541	54.27
335.754	31.74
335.966	11.26
336.179	50.18
336.392	41.98
336.604	54.27
336.817	95.23
337.029	62.46
337.242	101.37
337.454	195.58
337.667	87.04
337.88	109.57
338.092	52.22
338.305	89.09
338.517	82.94
338.729	107.52
338.942	70.65
339.154	19.46
339.367	68.61
339.579	82.94
339.792	15.36
340.004	37.89
340.217	39.94
340.429	58.37
340.641	109.57
340.854	89.09
341.066	44.03
341.278	80.89
341.491	74.75
341.703	-27.65
341.915	103.42
342.128	5.12
342.34	54.27
342.552	54.27
342.764	62.46
342.977	58.37
343.189	130.05
343.401	80.89
343.613	78.85
343.826	91.13
344.038	37.89
344.25	52.22
344.462	58.37
344.674	56.32
344.886	68.61
345.099	29.7
345.311	78.85
345.523	46.08
345.735	-3.07
345.947	123.9
346.159	72.7
346.371	80.89
346.583	60.42
346.795	35.84
347.007	-9.22
347.219	33.79
347.431	33.79
347.643	52.22
347.855	82.94
348.067	70.65
348.279	60.42
348.491	99.33
348.703	82.94
348.915	37.89
349.127	113.66
349.339	33.79
349.551	56.32
349.763	70.65
349.975	29.7
350.187	48.13
350.399	50.18
350.61	17.41
350.822	84.99
351.034	68.61
351.246	39.94
351.458	99.33
351.669	87.04
351.881	119.81
352.093	44.03
352.305	107.52
352.517	56.32
352.728	78.85
352.94	107.52
353.152	117.76
353.363	31.74
353.575	3.07
353.787	21.5
353.999	99.33
354.21	93.18
354.422	87.04
354.633	13.31
354.845	60.42
355.057	50.18
355.268	27.65
355.48	62.46
355.692	25.6
355.903	113.66
356.115	37.89
356.326	29.7
356.538	103.42
356.749	54.27
356.961	76.8
357.172	60.42
357.384	15.36
357.595	60.42
357.807	58.37
358.018	35.84
358.23	74.75
358.441	121.85
358.653	52.22
358.864	68.61
359.075	48.13
359.287	35.84
359.498	37.89
359.709	103.42
359.921	25.6
360.132	52.22
360.344	58.37
360.555	37.89
360.766	89.09
360.977	60.42
361.189	48.13
361.4	74.75
361.611	91.13
361.823	130.05
362.034	3.07
362.245	27.65
362.456	52.22
362.667	52.22
362.879	54.27
363.09	37.89
363.301	99.33
363.512	89.09
363.723	44.03
363.935	97.28
364.146	111.61
364.357	17.41
364.568	101.37
364.779	52.22
364.99	105.47
365.201	44.03
365.412	50.18
365.623	-9.22
365.834	87.04
366.045	84.99
366.256	56.32
366.467	-17.41
366.678	39.94
366.889	23.55
367.1	78.85
367.311	76.8
367.522	52.22
367.733	62.46
367.944	35.84
368.155	44.03
368.366	87.04
368.577	52.22
368.788	15.36
368.999	56.32
369.209	117.76
369.42	48.13
369.631	125.95
369.842	74.75
370.053	33.79
370.264	39.94
370.474	56.32
370.685	138.24
370.896	58.37
371.107	80.89
371.317	97.28
371.528	95.23
371.739	101.37
371.95	150.53
372.16	115.71
372.371	62.46
372.582	-5.12
372.792	97.28
373.003	60.42
373.214	46.08
373.424	89.09
373.635	-33.79
373.846	76.8
374.056	72.7
374.267	48.13
374.477	48.13
374.688	29.7
374.898	72.7
375.109	62.46
375.319	93.18
375.53	93.18
375.74	134.14
375.951	-1.02
376.161	35.84
376.372	9.22
376.582	37.89
376.793	109.57
377.003	-5.12
377.214	52.22
377.424	-7.17
377.635	46.08
377.845	70.65
378.055	115.71
378.266	103.42
378.476	105.47
378.686	58.37
378.897	52.22
379.107	87.04
379.317	105.47
379.528	3.07
379.738	113.66
379.948	15.36
380.158	146.43
380.369	125.95
380.579	138.24
380.789	46.08
380.999	115.71
381.21	84.99
381.42	39.94
381.63	50.18
381.84	21.5
382.05	95.23
382.261	91.13
382.471	-3.07
382.681	164.86
382.891	82.94
383.101	37.89
383.311	50.18
383.521	25.6
383.731	21.5
383.941	70.65
384.151	101.37
384.361	93.18
384.571	68.61
384.781	150.53
384.991	103.42
385.201	93.18
385.411	175.1
385.621	121.85
385.831	48.13
386.041	115.71
386.251	68.61
386.461	103.42
386.671	74.75
386.881	99.33
387.091	17.41
387.301	82.94
387.511	48.13
387.72	87.04
387.93	87.04
388.14	23.55
388.35	44.03
388.56	44.03
388.769	95.23
388.979	84.99
389.189	-7.17
389.399	46.08
389.609	142.33
389.818	132.09
390.028	134.14
390.238	11.26
390.447	33.79
390.657	52.22
390.867	93.18
391.076	132.09
391.286	115.71
391.496	123.9
391.705	142.33
391.915	107.52
392.125	105.47
392.334	164.86
392.544	11.26
392.753	84.99
392.963	99.33
393.172	123.9
393.382	17.41
393.591	105.47
393.801	21.5
394.01	105.47
394.22	107.52
394.429	62.46
394.639	93.18
394.848	115.71
395.058	119.81
395.267	78.85
395.477	66.56
395.686	95.23
395.895	121.85
396.105	142.33
396.314	148.48
396.524	132.09
396.733	95.23
396.942	144.38
397.152	134.14
397.361	138.24
397.57	62.46
397.78	84.99
397.989	128
398.198	132.09
398.407	121.85
398.617	130.05
398.826	203.77
399.035	105.47
399.244	123.9
399.453	150.53
399.663	164.86
399.872	205.82
400.081	138.24
400.29	62.46
400.499	146.43
400.708	164.86
400.917	103.42
401.127	142.33
401.336	89.09
401.545	152.57
401.754	134.14
401.963	156.67
402.172	154.62
402.381	232.44
402.59	113.66
402.799	107.52
403.008	103.42
403.217	150.53
403.426	113.66
403.635	146.43
403.844	183.29
404.053	164.86
404.262	154.62
404.471	191.49
404.68	244.73
404.888	121.85
405.097	195.58
405.306	115.71
405.515	144.38
405.724	146.43
405.933	183.29
406.142	234.49
406.35	244.73
406.559	199.68
406.768	136.19
406.977	314.36
407.185	265.21
407.394	230.4
407.603	205.82
407.812	197.63
408.02	277.5
408.229	240.64
408.438	326.65
408.646	365.56
408.855	195.58
409.064	224.25
409.272	375.8
409.481	379.9
409.69	297.98
409.898	332.79
410.107	412.67
410.315	379.9
410.524	297.98
410.733	322.56
410.941	437.24
411.15	363.51
411.358	406.52
411.567	377.85
411.775	445.43
411.984	429.05
412.192	449.53
412.401	453.63
412.609	508.92
412.818	588.79
413.026	535.54
413.234	578.55
413.443	588.79
413.651	560.12
413.86	683
414.068	615.41
414.276	625.65
414.485	599.03
414.693	691.19
414.901	668.66
415.11	695.29
415.318	715.77
415.526	857.07
415.734	842.74
415.943	873.46
416.151	955.38
416.359	926.71
416.567	912.37
416.776	979.95
416.984	918.51
417.192	1049.58
417.4	1096.69
417.608	951.28
417.817	1072.11
418.025	1178.61
418.233	1260.52
418.441	1229.81
418.649	1266.67
418.857	1391.59
419.065	1356.78
419.273	1407.98
419.481	1432.55
419.689	1631.21
419.897	1614.82
420.105	1655.78
420.313	1682.41
420.521	1754.09
420.729	1844.2
420.937	1725.41
421.145	1850.34
421.353	2051.04
421.561	2102.24
421.769	2135.01
421.977	2218.97
422.185	2110.43
422.393	2382.81
422.601	2483.16
422.809	2378.72
423.017	2431.96
423.224	2589.66
423.432	2784.21
423.64	2653.14
423.848	3003.35
424.056	2823.12
424.263	3011.54
424.471	3093.46
424.679	3070.93
424.887	3269.58
425.094	3367.88
425.302	3316.69
425.51	3617.74
425.718	3687.37
425.925	3611.59
426.133	3916.74
426.341	4154.3
426.548	4330.43
426.756	4201.41
426.964	4318.14
427.171	4391.87
427.379	4547.51
427.586	4643.77
427.794	4850.61
428.001	5006.26
428.209	5370.8
428.417	5235.63
428.624	5501.87
428.832	5608.36
429.039	5682.09
429.247	5485.48
429.454	6034.34
429.662	6421.41
429.869	6020
430.076	6534.04
430.284	6192.03
430.491	6613.92
430.699	6953.88
430.906	6910.87
431.114	7068.56
431.321	7246.74
431.528	7433.1
431.736	8141.7
431.943	8356.74
432.15	7912.33
432.358	8207.23
432.565	8438.66
432.772	8604.54
432.979	9059.19
433.187	9251.7
433.394	9323.38
433.601	9919.34
433.808	9991.02
434.016	10142.57
434.223	10371.94
434.43	10570.59
434.637	10675.04
434.844	11645.77
435.052	11645.77
435.259	11606.86
435.466	11742.03
435.673	11686.73
435.88	12385.09
436.087	12976.95
436.294	12753.73
436.501	12798.78
436.708	12747.58
436.915	13366.07
437.122	14035.75
437.329	13962.03
437.537	14328.61
437.743	14836.51
437.95	14564.13
438.157	15094.55
438.364	15852.3
438.571	15760.14
438.778	15706.9
438.985	17498.87
439.192	16552.71
439.399	17138.43
439.606	16952.06
439.813	18090.73
440.02	18961.12
440.227	18617.06
440.433	18465.51
440.64	18983.65
440.847	18793.19
441.054	19274.46
441.261	20769.48
441.467	20476.62
441.674	20746.95
441.881	21725.88
442.088	21566.13
442.294	21332.67
442.501	21871.28
442.708	22317.74
442.914	23200.41
443.121	24171.15
443.328	23655.06
443.534	25295.49
443.741	24611.46
443.948	24298.13
444.154	25920.12
444.361	25909.88
444.568	25830.01
444.774	26026.61
444.981	26405.49
445.187	27132.51
445.394	28531.28
445.6	28004.95
445.807	30636.59
446.013	29329.98
446.22	29487.68
446.426	30841.39
446.633	31494.69
446.839	32147.99
447.046	31013.41
447.252	32829.96
447.459	32795.15
447.665	32610.83
447.871	34226.68
448.078	35553.76
448.284	33804.8
448.491	35318.25
448.697	36114.9
448.903	36932.04
449.11	36913.61
449.316	36395.48
449.522	37229
449.728	38085.05
449.935	37872.06
450.141	38353.33
450.347	39242.15
450.553	37702.08
450.76	38435.25
450.966	39586.21
451.172	39162.28
451.378	40452.5
451.584	39467.43
451.791	40313.24
451.997	40403.35
452.203	41214.35
452.409	41431.43
452.615	40679.83
452.821	39756.19
453.027	39260.58
453.233	40894.86
453.44	39430.57
453.646	40108.44
453.852	40104.35
454.058	40743.31
454.264	39043.5
454.47	40108.44
454.676	39549.35
454.882	41030.03
455.088	36936.14
455.294	37470.66
455.5	37994.94
455.705	38437.3
455.911	36962.76
456.117	36827.6
456.323	35772.89
456.529	34030.07
456.735	35885.53
456.941	34935.27
457.147	34433.52
457.352	33397.25
457.558	32590.35
457.764	32580.11
457.97	32160.28
458.176	31453.73
458.381	31416.86
458.587	30147.12
458.793	30132.79
458.999	28150.35
459.204	30765.61
459.41	29647.42
459.616	27988.56
459.821	27677.27
460.027	27466.33
460.233	26872.42
460.438	25705.08
460.644	25729.66
460.85	24701.58
461.055	24490.63
461.261	24509.07
461.466	22647.46
461.672	21953.2
461.878	23607.96
462.083	21627.57
462.289	21543.61
462.494	21408.44
462.7	20464.33
462.905	20093.65
463.111	20540.1
463.316	20570.82
463.522	20038.35
463.727	20374.22
463.932	20218.57
464.138	19948.24
464.343	20165.32
464.549	19628.76
464.754	20099.79
464.959	19698.39
465.165	20091.6
465.37	18895.58
465.575	18565.86
465.781	19065.57
465.986	19370.71
466.191	18795.23
466.397	18223.85
466.602	17341.18
466.807	18232.04
467.012	18098.92
467.218	17849.07
467.423	17853.17
467.628	17904.37
467.833	18748.13
468.038	18088.68
468.244	17453.81
468.449	18125.55
468.654	17646.32
468.859	17431.29
469.064	17335.03
469.269	16554.76
469.474	16935.68
469.679	17249.02
469.885	16581.38
470.09	16681.73
470.295	16759.55
470.5	16454.4
470.705	16612.1
470.91	16249.61
471.115	15688.46
471.32	16296.71
471.525	16147.21
471.73	15897.36
471.935	15680.27
472.139	14949.15
472.344	15409.94
472.549	15250.2
472.754	14965.53
472.959	14639.9
473.164	14330.66
473.369	14291.75
473.574	14861.09
473.778	14777.12
473.983	14494.5
474.188	14328.61
474.393	13888.3
474.598	13851.44
474.802	13509.43
475.007	13658.93
475.212	13679.41
475.417	13036.35
475.621	13157.18
475.826	13212.47
476.031	12950.33
476.235	12780.35
476.44	12989.24
476.645	12786.49
476.849	12536.64
477.054	12532.54
477.259	12270.4
477.463	12299.08
477.668	11823.95
477.872	12217.16
478.077	11979.59
478.282	11703.12
478.486	11576.14
478.691	11549.52
478.895	11332.44
479.1	11389.78
479.304	11506.51
479.509	11092.82
479.713	11408.21
479.918	11246.42
480.122	11027.29
480.326	11012.95
480.531	10838.87
480.735	10914.65
480.94	11094.87
481.144	11193.17
481.348	10576.73
481.553	10797.92
481.757	10562.4
481.961	10652.51
482.166	10900.31
482.37	10568.54
482.574	10650.46
482.778	10550.11
482.983	11039.58
483.187	10586.97
483.391	10611.55
483.595	10414.95
483.8	10429.28
484.004	10457.95
484.208	10658.65
484.412	10558.3
484.616	10593.12
484.821	10523.49
485.025	10382.18
485.229	10584.93
485.433	10623.84
485.637	10660.7
485.841	10521.44
486.045	10406.75
486.249	10556.25
486.453	10478.43
486.657	10697.56
486.861	10785.63
487.065	10187.62
487.269	10629.98
487.473	10421.09
487.677	10711.9
487.881	11023.19
488.085	10593.12
488.289	10615.65
488.493	10664.8
488.697	10814.3
488.901	10851.16
489.105	10677.09
489.309	10976.09
489.512	10705.76
489.716	10681.18
489.92	10656.61
490.124	10521.44
490.328	11021.14
490.531	10890.07
490.735	10736.48
490.939	11051.86
491.143	10683.23
491.346	10883.93
491.55	11381.59
491.754	10859.35
491.958	11111.25
492.161	11172.69
492.365	10869.59
492.569	11125.59
492.772	11291.48
492.976	11318.1
493.18	11414.35
493.383	11508.56
493.587	11389.78
493.79	11592.53
493.994	11543.38
494.197	11641.68
494.401	11717.45
494.605	11922.25
494.808	12038.98
495.012	12081.99
495.215	12084.04
495.419	12342.08
495.622	12059.46
495.825	12284.74
496.029	12307.27
496.232	12550.98
496.436	12622.66
496.639	12983.1
496.843	12657.47
497.046	13030.2
497.249	13062.97
497.453	13196.09
497.656	13499.19
497.859	13458.23
498.063	13574.96
498.266	13968.17
498.469	13665.07
498.673	13814.57
498.876	14213.93
499.079	14191.4
499.282	14158.63
499.485	14822.17
499.689	14586.66
499.892	14869.28
500.095	14785.31
500.298	15381.27
500.501	15115.03
500.705	15358.74
500.908	15670.03
501.111	16057.1
501.314	16231.18
501.517	16155.4
501.72	16200.46
501.923	16319.24
502.126	16593.67
502.329	16894.72
502.532	17144.57
502.735	17210.11
502.938	17474.29
503.141	17804.02
503.344	17777.39
503.547	17804.02
503.75	18055.92
503.953	18389.74
504.156	18432.74
504.359	18727.65
504.562	18744.03
504.765	19444.44
504.968	19436.25
505.17	19319.51
505.373	19528.41
505.576	20062.93
505.779	19983.06
505.982	20189.9
506.185	20875.97
506.387	20597.45
506.59	20910.78
506.793	21379.77
506.996	21070.53
507.198	21963.44
507.401	21717.68
507.604	21797.56
507.807	22270.64
508.009	22215.34
508.212	22553.26
508.415	22758.05
508.617	23233.18
508.82	23192.22
509.022	23149.21
509.225	23845.52
509.428	23855.76
509.63	24085.14
509.833	24105.62
510.035	24490.63
510.238	24726.15
510.44	24959.62
510.643	25428.6
510.845	25488
511.048	25432.7
511.25	26012.28
511.453	26280.56
511.655	26800.74
511.858	26706.54
512.06	26636.91
512.262	27458.14
512.465	27445.85
512.667	27937.37
512.87	28138.07
513.072	27851.35
513.274	28439.12
513.477	28656.2
513.679	29004.36
513.881	29205.06
514.084	29684.28
514.286	29805.11
514.488	29565.5
514.69	30833.19
514.893	30280.24
515.095	30693.93
515.297	31103.53
515.499	31220.26
515.701	31201.83
515.904	31695.39
516.106	31965.72
516.308	32209.43
516.51	32504.34
516.712	32725.52
516.914	32985.61
517.116	33458.69
517.318	33571.33
517.52	33597.95
517.722	33765.88
517.925	34374.13
518.127	34929.13
518.329	34406.9
518.531	34855.4
518.733	35707.36
518.935	35494.37
519.136	35414.5
519.338	36155.86
519.54	36030.94
519.742	36504.02
519.944	36880.85
520.146	36661.71
520.348	37489.09
520.55	37329.35
520.752	37753.28
520.954	38361.53
521.155	37753.28
521.357	38484.4
521.559	38879.66
521.761	39123.37
521.963	38771.12
522.164	39358.89
522.366	39612.84
522.568	39989.66
522.77	40380.82
522.971	40610.2
523.173	40040.86
523.375	40931.73
523.576	41038.22
523.778	40876.43
523.98	41539.97
524.181	41388.42
524.383	41691.52
524.584	41732.48
524.786	42133.89
524.988	41795.97
525.189	42523
525.391	42781.04
525.592	42922.35
525.794	43094.38
525.995	42924.4
526.197	42901.87
526.398	43374.95
526.6	43696.49
526.801	43692.39
527.003	43964.77
527.204	43776.36
527.406	44435.8
527.607	44071.26
527.808	44347.74
528.01	44097.89
528.211	44472.67
528.412	44984.66
528.614	44786
528.815	44904.79
529.016	45066.58
529.218	45076.82
529.419	44786
529.62	45445.45
529.822	45050.19
530.023	45490.51
530.224	45302.09
530.425	45433.16
530.626	45271.37
530.828	44974.42
531.029	46055.75
531.23	45201.74
531.431	45541.71
531.632	45769.03
531.833	45738.31
532.035	45928.77
532.236	45971.78
532.437	46459.2
532.638	45963.59
532.839	46174.53
533.04	45973.83
533.241	45470.03
533.442	46670.14
533.643	46534.97
533.844	46059.84
534.045	46207.29
534.246	46006.59
534.447	46567.74
534.648	46350.65
534.849	46358.84
535.05	45846.85
535.251	46246.21
535.451	46367.04
535.652	46774.58
535.853	46475.58
536.054	46203.2
536.255	46790.97
536.456	45693.25
536.657	47034.67
536.857	46385.47
537.058	46090.56
537.259	46723.38
537.46	46461.24
537.66	46424.38
537.861	46408
538.062	46080.32
538.263	46090.56
538.463	46004.55
538.664	46154.05
538.865	46510.39
539.065	46342.46
539.266	45738.31
539.466	46465.34
539.667	45859.14
539.868	46453.05
540.068	45773.13
540.269	46278.97
540.469	46360.89
540.67	46111.04
540.87	46494.01
541.071	45797.7
541.271	46256.45
541.472	45861.19
541.672	46199.1
541.873	45967.68
542.073	45582.66
542.274	46494.01
542.474	45848.9
542.675	45431.11
542.875	46629.18
543.075	46145.86
543.276	45766.98
543.476	46356.8
543.676	45646.15
543.877	46166.34
544.077	45904.2
544.277	45965.63
544.478	45832.52
544.678	46301.5
544.878	45758.79
545.078	46014.79
545.279	45908.29
545.479	45953.35
545.679	45928.77
545.879	45617.48
546.079	45693.25
546.28	45723.97
546.48	45265.23
546.68	45373.77
546.88	46170.43
547.08	45746.5
547.28	45642.06
547.48	45367.63
547.68	46113.09
547.88	45740.36
548.081	46287.17
548.281	45891.91
548.481	45597
548.681	45930.82
548.881	45457.74
549.081	45920.58
549.28	45539.66
549.48	46053.7
549.68	45762.89
549.88	46520.63
550.08	45187.41
550.28	45848.9
550.48	45424.97
550.68	46063.94
550.88	45334.86
551.08	45402.44
551.279	45668.68
551.479	45404.49
551.679	45846.85
551.879	45449.55
552.079	45447.5
552.278	45467.98
552.478	45648.2
552.678	45789.51
552.878	46207.29
553.077	45504.84
553.277	45322.57
553.477	46037.31
553.676	45482.31
553.876	45220.17
554.076	45300.04
554.275	44886.36
554.475	44943.7
554.674	45373.77
554.874	45343.05
555.074	45465.93
555.273	45171.02
555.473	45373.77
555.672	44892.5
555.872	45052.24
556.071	45277.52
556.271	45214.03
556.47	45220.17
556.67	44263.77
556.869	44939.6
557.068	45097.3
557.268	44974.42
557.467	44798.29
557.667	44749.14
557.866	45062.48
558.065	44937.55
558.265	44374.36
558.464	44753.24
558.663	44990.8
558.863	44390.75
559.062	44863.83
559.261	43993.44
559.461	44923.22
559.66	44243.29
559.859	44712.28
560.058	44089.7
560.258	44519.77
560.457	43950.43
560.656	44681.56
560.855	44319.07
561.054	44726.61
561.253	43757.92
561.453	44515.67
561.652	44302.68
561.851	44048.74
562.05	44155.23
562.249	43794.79
562.448	44048.74
562.647	43542.89
562.846	43835.75
563.045	43614.57
563.244	43581.8
563.443	43987.3
563.642	43329.9
563.841	43737.44
564.04	43434.35
564.239	43901.28
564.438	43288.94
564.637	43635.05
564.836	43151.73
565.035	42707.32
565.234	43082.09
565.432	43075.95
565.631	43139.44
565.83	42930.54
566.029	43088.24
566.228	43004.27
566.427	42815.86
566.625	42271.1
566.824	42121.6
567.023	42733.94
567.222	42037.63
567.42	42711.41
567.619	42291.58
567.818	42408.31
568.016	42180.99
568.215	42576.25
568.414	42383.74
568.612	42387.83
568.811	41890.18
569.01	42039.68
569.208	41509.25
569.407	42101.12
569.605	41394.57
569.804	42076.54
570.002	41757.06
570.201	41675.14
570.4	41079.18
570.598	41388.42
570.797	41236.87
570.995	41212.3
571.193	40860.05
571.392	41206.16
571.59	41288.07
571.789	41095.56
571.987	40622.48
572.186	40898.96
572.384	40563.09
572.582	40571.28
572.781	41146.76
572.979	40292.76
573.177	40341.91
573.376	40610.2
573.574	39590.31
573.772	40386.97
573.971	39981.47
574.169	40159.64
574.367	39750.05
574.565	39883.17
574.763	39807.39
574.962	39334.31
575.16	39637.41
575.358	39635.36
575.556	38902.19
575.754	39840.16
575.952	38947.25
576.151	39778.72
576.349	39037.36
576.547	39090.6
576.745	39072.17
576.943	39317.93
577.141	38973.87
577.339	38975.92
577.537	39018.92
577.735	38922.67
577.933	38314.42
578.131	38683.06
578.329	38420.92
578.527	38386.1
578.725	38773.17
578.923	38498.74
579.121	38101.43
579.319	37667.27
579.516	38300.09
579.714	37853.63
579.912	37677.51
580.11	37814.72
580.308	37525.96
580.506	37364.17
580.704	37429.7
580.901	37347.78
581.099	37841.34
581.297	37142.99
581.495	37312.97
581.692	37317.06
581.89	36997.58
582.088	37497.28
582.285	36823.5
582.483	37120.46
582.681	37040.59
582.878	36663.76
583.076	36553.17
583.274	36581.84
583.471	35881.44
583.669	36561.36
583.866	36235.74
584.064	36501.97
584.262	35752.41
584.459	36434.39
584.657	35600.86
584.854	36196.82
585.052	35680.74
585.249	35803.61
585.447	35764.7
585.644	35303.91
585.841	35627.49
586.039	35738.08
586.236	35140.07
586.434	35111.4
586.631	35103.21
586.828	35127.78
587.026	35193.32
587.223	34849.26
587.42	34906.6
587.618	35009
587.815	34218.49
588.012	34374.13
588.21	34415.09
588.407	34845.16
588.604	34316.79
588.801	33997.31
588.999	33954.3
589.196	34243.06
589.393	34025.98
589.59	33829.37
589.787	34066.94
589.984	33843.71
590.182	33352.2
590.379	33735.17
590.576	33286.66
590.773	33577.47
590.97	33364.48
591.167	33239.56
591.364	32815.63
591.561	33497.6
591.758	32811.53
591.955	32883.21
592.152	32979.46
592.349	32649.74
592.546	32582.16
592.743	32469.52
592.94	32182.8
593.137	32645.65
593.334	32446.99
593.531	31861.27
593.727	32064.02
593.924	32401.94
594.121	31613.47
594.318	32002.58
594.515	31592.99
594.712	31793.69
594.908	31427.1
595.105	31468.06
595.302	31392.29
595.499	31351.33
595.696	31621.66
595.892	31083.05
596.089	31109.67
596.286	31341.09
596.482	30796.33
596.679	31001.13
596.876	31234.6
597.072	31117.86
597.269	30954.02
597.466	30521.9
597.662	30579.25
597.859	30421.55
598.055	30325.3
598.252	30218.8
598.448	30132.79
598.645	30065.21
598.841	29760.06
599.038	30036.53
599.234	30007.86
599.431	29698.62
599.627	29649.47
599.824	29669.95
600.02	29561.4
600.217	29047.36
600.413	29387.33
600.609	29655.61
600.806	29170.24
601.002	29407.81
601.198	28873.29
601.395	28873.29
601.591	28863.05
601.787	28885.58
601.984	28760.65
602.18	29035.08
602.376	28445.26
602.572	28279.38
602.769	28697.16
602.965	28144.21
603.161	28166.74
603.357	28064.34
603.553	28148.31
603.75	28072.53
603.946	28052.05
604.142	27990.61
604.338	27615.83
604.534	27961.94
604.73	27517.53
604.926	27226.72
605.122	27705.95
605.318	27660.89
605.514	27511.39
605.71	27380.32
605.906	27150.95
606.102	27085.41
606.298	27028.07
606.494	27290.21
606.69	27239.01
606.886	27120.23
607.082	26876.52
607.278	26802.79
607.474	26522.22
607.67	26880.61
607.866	26511.98
608.062	26761.83
608.257	26413.68
608.453	26983.01
608.649	26538.6
608.845	26239.6
609.041	25969.27
609.236	26313.33
609.432	26309.23
609.628	26190.45
609.824	26520.17
610.019	26319.47
610.215	26366.57
610.411	25811.57
610.606	25811.57
610.802	25989.75
610.998	25821.81
611.193	25905.78
611.389	25614.97
611.584	25799.29
611.78	25492.09
611.976	25696.89
612.171	25664.12
612.367	25664.12
612.562	25520.76
612.758	25373.31
612.953	25234.05
613.149	25731.7
613.344	25098.88
613.539	25737.85
613.735	25528.95
613.93	25451.13
614.126	25375.36
614.321	25399.93
614.517	25225.86
614.712	25201.28
614.907	24914.56
615.103	25197.18
615.298	25131.65
615.493	25500.28
615.688	24990.34
615.884	25203.33
616.079	24814.21
616.274	24611.46
616.47	24767.11
616.665	24803.97
616.86	24595.08
617.055	24681.1
617.25	24511.11
617.445	24443.53
617.641	24095.38
617.836	24281.74
618.031	24169.1
618.226	24343.18
618.421	24040.08
618.616	24345.23
618.811	24234.64
619.006	24070.8
619.201	23489.18
619.396	23986.83
619.591	23669.4
619.786	23958.16
619.981	23397.02
620.176	23511.71
620.371	23007.9
620.566	23382.68
620.761	23081.63
620.956	23093.92
621.151	22760.1
621.346	22823.59
621.541	22635.17
621.735	22895.27
621.93	22213.29
622.125	22643.37
622.32	21951.15
622.515	22207.15
622.709	21893.81
622.904	22203.05
623.099	21887.67
623.294	21846.71
623.488	21467.83
623.683	21799.6
623.878	21396.15
624.072	21564.09
624.267	21660.34
624.462	21062.33
624.656	20923.07
624.851	21076.67
625.046	20859.59
625.24	20771.52
625.435	20335.31
625.629	20458.18
625.824	20398.79
626.018	20175.56
626.213	20093.65
626.407	20409.03
626.602	19921.62
626.796	20044.49
626.991	19923.66
627.185	19786.45
627.38	19286.75
627.574	19516.12
627.768	18887.39
627.963	19225.31
628.157	19241.69
628.352	19346.14
628.546	18731.75
628.74	19088.09
628.935	18739.94
629.129	18670.31
629.323	18522.85
629.517	18361.06
629.712	18350.82
629.906	18164.46
630.1	17820.4
630.294	18170.6
630.489	17779.44
630.683	18043.63
630.877	17554.16
631.071	17758.96
631.265	17687.28
631.459	17384.18
631.653	17339.13
631.848	17421.05
632.042	17177.34
632.236	17449.72
632.43	17091.32
632.624	17173.24
632.818	16890.62
633.012	16661.25
633.206	17054.46
633.4	16765.7
633.594	16780.03
633.788	16448.26
633.982	16530.18
634.176	16446.21
634.369	16214.79
634.563	16298.76
634.757	16065.29
634.951	16216.84
635.145	16091.91
635.339	16294.66
635.533	15897.36
635.726	15737.62
635.92	15708.94
636.114	15592.21
636.308	15389.46
636.501	15428.37
636.695	15670.03
636.889	15303.45
637.083	15174.42
637.276	15133.47
637.47	15164.18
637.664	14975.77
637.857	15008.54
638.051	14918.43
638.244	14744.35
638.438	14775.07
638.632	14697.25
638.825	14660.38
639.019	14603.04
639.212	14330.66
639.406	14457.64
639.599	14349.09
639.793	14336.81
639.986	13943.6
640.18	14226.21
640.373	14072.62
640.567	13712.17
640.76	13878.06
640.954	13685.55
641.147	13611.82
641.34	13654.83
641.534	13560.63
641.727	13685.55
641.92	13407.03
642.114	13116.22
642.307	13343.54
642.5	13095.74
642.694	12831.55
642.887	12878.65
643.08	13247.29
643.273	13009.72
643.467	12809.02
643.66	13028.15
643.853	12610.37
644.046	12497.73
644.239	12641.09
644.432	12723.01
644.626	12403.52
644.819	12198.73
645.012	12561.22
645.205	12190.53
645.398	12303.17
645.591	12274.5
645.784	12014.41
645.977	12133.19
646.17	11844.43
646.363	11752.27
646.556	11928.39
646.749	11885.39
646.942	11811.66
647.135	11823.95
647.328	11606.86
647.521	11733.84
647.714	11467.6
647.907	11563.86
648.099	11393.87
648.292	11271
648.485	11438.93
648.678	11309.91
648.871	11189.08
649.064	11201.37
649.256	11244.37
649.449	11127.64
649.642	10904.41
649.835	10916.7
650.027	10705.76
650.22	10820.44
650.413	10754.91
650.605	10763.1
650.798	10691.42
650.991	10529.63
651.183	10613.6
651.376	10400.61
651.568	10623.84
651.761	10421.09
651.954	10349.41
652.146	10345.31
652.339	10238.82
652.531	10171.24
652.724	10257.25
652.916	10134.37
653.109	9986.92
653.301	9870.19
653.494	9907.05
653.686	9823.08
653.879	10064.74
654.071	9665.39
654.263	9669.48
654.456	9651.05
654.648	9839.47
654.84	9470.83
655.033	9487.22
655.225	9433.97
655.417	9327.47
655.61	9487.22
655.802	9311.09
655.994	9143.16
656.186	9233.27
656.379	9126.77
656.571	9268.08
656.763	9094.01
656.955	9112.44
657.148	9087.86
657.34	9134.96
657.532	9057.14
657.724	8977.27
657.916	8936.31
658.108	8891.26
658.3	8895.35
658.492	8588.16
658.684	8641.4
658.876	8557.44
659.068	8645.5
659.26	8528.77
659.452	8596.35
659.644	8412.03
659.836	8420.22
660.028	8362.88
660.22	8305.54
660.412	8260.48
660.604	8196.99
660.796	8348.54
660.988	8045.45
661.18	8254.34
661.372	7887.75
661.563	8086.4
661.755	7979.91
661.947	7963.53
662.139	7998.34
662.331	7893.9
662.522	7766.92
662.714	7766.92
662.906	7607.18
663.097	7863.18
663.289	7592.84
663.481	7631.76
663.673	7676.81
663.864	7551.88
664.056	7410.57
664.247	7500.69
664.439	7332.75
664.631	7578.51
664.822	7234.45
665.014	7426.96
665.205	7359.38
665.397	7273.36
665.588	7168.91
665.78	7078.8
665.971	7164.82
666.163	7142.29
666.354	7152.53
666.546	7213.97
666.737	6998.93
666.929	7011.22
667.12	7078.8
667.311	6955.93
667.503	6863.77
667.694	6747.03
667.885	6777.75
668.077	7056.28
668.268	6785.94
668.459	6568.86
668.651	6863.77
668.842	6644.63
669.033	6544.28
669.224	6570.91
669.416	6632.35
669.607	6675.35
669.798	6603.68
669.989	6593.44
670.18	6497.18
670.371	6364.06
670.563	6429.6
670.754	6294.43
670.945	6237.09
671.136	6425.5
671.327	6235.04
671.518	6247.33
671.709	6253.47
671.9	6429.6
672.091	6230.94
672.282	6235.04
672.473	6116.26
672.664	6200.23
672.855	6065.06
673.046	6095.78
673.237	6091.68
673.428	6028.2
673.619	6050.72
673.809	6046.63
674	5850.02
674.191	5997.48
674.382	5796.78
674.573	5790.63
674.764	5886.89
674.954	5804.97
675.145	5874.6
675.336	5735.34
675.527	5735.34
675.717	5673.9
675.908	5581.74
676.099	5618.6
676.289	5721
676.48	5532.59
676.671	5602.22
676.861	5686.19
677.052	5536.68
677.243	5589.93
677.433	5587.88
677.624	5608.36
677.814	5436.33
678.005	5614.51
678.195	5608.36
678.386	5284.78
678.576	5182.38
678.767	5358.51
678.957	5335.98
679.148	5370.8
679.338	5161.91
679.529	5395.37
679.719	5512.11
679.909	5395.37
680.1	5356.46
680.29	5200.82
680.481	5217.2
680.671	5194.67
680.861	5456.81
681.052	5202.86
681.242	5129.14
681.432	5389.23
681.622	5036.98
681.813	5022.64
682.003	5172.15
682.193	4981.68
682.383	5182.38
682.573	5053.36
682.764	5108.66
682.954	5129.14
683.144	5122.99
683.334	5104.56
683.524	4922.29
683.714	5039.03
683.904	4957.11
684.094	4836.28
684.284	4840.37
684.474	4842.42
684.664	4889.53
684.854	4803.51
685.044	4805.56
685.234	4778.94
685.424	4817.85
685.614	4760.5
685.804	4582.33
685.994	4707.26
686.184	4881.33
686.374	4805.56
686.564	4643.77
686.753	4672.44
686.943	4600.76
687.133	4473.79
687.323	4578.23
687.513	4694.97
687.702	4565.95
687.892	4555.71
688.082	4453.31
688.272	4565.95
688.461	4225.98
688.651	4608.95
688.841	4402.11
689.03	4373.44
689.22	4359.1
689.41	4479.93
689.599	4383.68
689.789	4342.72
689.979	4189.12
690.168	4246.46
690.358	4246.46
690.547	4240.32
690.737	4242.37
690.926	4320.19
691.116	4078.53
691.305	4201.41
691.495	4056
691.684	4019.14
691.874	4064.19
692.063	3922.88
692.252	4033.47
692.442	3883.97
692.631	4101.06
692.82	4021.19
693.01	3943.36
693.199	3867.59
693.388	3947.46
693.578	3967.94
693.767	3924.93
693.956	3877.83
694.146	3949.51
694.335	3840.97
694.524	3881.92
694.713	3861.45
694.902	3703.75
695.092	3855.3
695.281	3816.39
695.47	3666.89
695.659	3687.37
695.848	3824.58
696.037	3587.02
696.226	3546.06
696.415	3748.81
696.604	3636.17
696.793	3605.45
696.982	3531.72
697.171	3638.22
697.36	3613.64
697.549	3593.16
697.738	3619.78
697.927	3574.73
698.116	3548.11
698.305	3535.82
698.494	3587.02
698.683	3515.34
698.872	3562.44
699.061	3539.91
699.25	3451.85
699.438	3541.96
699.627	3478.47
699.816	3451.85
700.005	3312.59
700.193	3535.82
700.382	3390.41
700.571	3464.14
700.76	3470.28
700.948	3431.37
701.137	3378.12
701.326	3277.77
701.514	3251.15
701.703	3410.89
701.892	3406.8
702.08	3396.56
702.269	3285.97
702.457	3290.06
702.646	3361.74
702.834	3242.96
703.023	3267.53
703.212	3230.67
703.4	3431.37
703.589	3331.02
703.777	3357.64
703.965	3283.92
704.154	3228.62
704.342	3222.48
704.531	3347.4
704.719	3085.26
704.907	3316.69
705.096	3290.06
705.284	3261.39
705.472	3228.62
705.661	3032.02
705.849	3300.3
706.037	3124.18
706.226	3222.48
706.414	3290.06
706.602	3206.1
706.79	3167.18
706.979	3218.38
707.167	3066.83
707.355	3181.52
707.543	3087.31
707.731	3148.75
707.919	3134.42
708.107	3173.33
708.296	3310.54
708.484	3169.23
708.672	3259.34
708.86	3056.59
709.048	3099.6
709.236	3040.21
709.424	3058.64
709.612	3095.5
709.8	3113.94
709.988	3183.57
710.176	3124.18
710.364	3089.36
710.551	3154.9
710.739	3013.59
710.927	2980.82
711.115	3130.32
711.303	3003.35
711.491	2999.25
711.679	3027.92
711.866	3179.47
712.054	2954.19
712.242	2946
712.43	3050.45
712.617	3036.11
712.805	3111.89
712.993	2958.29
713.181	3083.22
713.368	3027.92
713.556	3064.79
713.744	3025.87
713.931	3144.66
714.119	3075.03
714.306	3062.74
714.494	3099.6
714.682	2972.63
714.869	2968.53
715.057	2954.19
715.244	2931.67
715.432	3097.55
715.619	3062.74
715.807	2997.2
715.994	2896.85
716.182	3058.64
716.369	2954.19
716.556	3060.69
716.744	3101.65
716.931	3023.83
717.119	3007.44
717.306	2946
717.493	2898.9
717.681	2931.67
717.868	3083.22
718.055	2993.11
718.242	2995.15
718.43	2905.04
718.617	2941.91
718.804	2968.53
718.991	3032.02
719.179	2962.39
719.366	2886.61
719.553	3011.54
719.74	2952.15
719.927	2876.37
720.114	2876.37
720.301	2849.75
720.488	2939.86
720.676	2831.32
720.863	2900.95
721.05	2997.2
721.237	2962.39
721.424	2923.48
721.611	2907.09
721.798	2925.52
721.985	2995.15
722.172	2859.99
722.358	2941.91
722.545	3021.78
722.732	2855.89
722.919	2960.34
723.106	2886.61
723.293	2993.11
723.48	2917.33
723.667	2829.27
723.853	2853.84
724.04	2923.48
724.227	2864.08
724.414	2874.32
724.6	2892.76
724.787	2894.8
724.974	2915.28
725.161	2909.14
725.347	3025.87
725.534	2835.41
725.72	2870.23
725.907	2798.55
726.094	2950.1
726.28	2782.17
726.467	2929.62
726.653	2829.27
726.84	2866.13
727.027	2882.52
727.213	2716.63
727.4	2790.36
727.586	2849.75
727.773	2884.56
727.959	2812.89
728.145	2923.48
728.332	2829.27
728.518	2884.56
728.705	2868.18
728.891	2851.8
729.077	2714.58
729.264	2884.56
729.45	2771.93
729.636	2851.8
729.823	2843.6
730.009	2833.36
730.195	2831.32
730.382	2776.02
730.568	2841.56
730.754	2849.75
730.94	2915.28
731.126	2900.95
731.313	2845.65
731.499	2786.26
731.685	2757.59
731.871	2808.79
732.057	2753.49
732.243	2780.12
732.429	2728.92
732.615	2741.21
732.801	2816.98
732.987	2773.97
733.173	2833.36
733.359	2816.98
733.545	2876.37
733.731	2747.35
733.917	2829.27
734.103	2831.32
734.289	2780.12
734.475	2679.77
734.661	2821.08
734.847	2800.6
735.033	2880.47
735.219	2677.72
735.404	2710.49
735.59	2722.77
735.776	2724.82
735.962	2733.01
736.148	2778.07
736.333	2685.91
736.519	2782.17
736.705	2704.34
736.89	2743.25
737.076	2749.4
737.262	2716.63
737.447	2638.81
737.633	2657.24
737.819	2714.58
738.004	2745.3
738.19	2804.69
738.375	2653.14
738.561	2720.73
738.747	2653.14
738.932	2581.46
739.118	2497.5
739.303	2771.93
739.489	2663.38
739.674	2673.62
739.859	2647
740.045	2595.8
740.23	2651.1
740.416	2595.8
740.601	2581.46
740.786	2628.57
740.972	2628.57
741.157	2589.66
741.342	2583.51
741.528	2440.15
741.713	2554.84
741.898	2540.51
742.084	2589.66
742.269	2530.27
742.454	2552.79
742.639	2530.27
742.824	2470.87
743.01	2376.67
743.195	2540.51
743.38	2509.79
743.565	2583.51
743.75	2481.11
743.935	2372.57
744.12	2444.25
744.305	2411.48
744.49	2448.35
744.675	2419.68
744.86	2362.33
745.045	2405.34
745.23	2253.79
745.415	2386.91
745.6	2462.68
745.785	2233.31
745.97	2384.86
746.155	2225.12
746.34	2315.23
746.525	2227.17
746.71	2366.43
746.895	2110.43
747.079	2323.42
747.264	2288.61
747.449	2237.41
747.634	2116.58
747.819	2264.03
748.003	2173.92
748.188	2141.15
748.373	2124.77
748.557	2128.86
748.742	2141.15
748.927	2145.25
749.111	2073.57
749.296	2110.43
749.481	2081.76
749.665	2065.38
749.85	2108.38
750.034	2161.63
750.219	1977.31
750.404	1901.54
750.588	1936.35
750.773	1971.17
750.957	1928.16
751.141	1995.75
751.326	1850.34
751.51	1922.02
751.695	1997.79
751.879	1926.11
752.064	1819.62
752.248	1887.2
752.432	1942.5
752.617	1803.24
752.801	1842.15
752.985	1915.87
753.17	1840.1
753.354	1711.08
753.538	1819.62
753.722	1876.96
753.907	1725.41
754.091	1713.13
754.275	1809.38
754.459	1672.17
754.643	1674.21
754.828	1661.93
755.012	1604.58
755.196	1731.56
755.38	1684.45
755.564	1610.73
755.748	1526.76
755.932	1700.84
756.116	1678.31
756.3	1604.58
756.484	1606.63
756.668	1555.43
756.852	1639.4
757.036	1602.54
757.22	1487.85
757.404	1633.26
757.588	1586.15
757.772	1711.08
757.956	1567.72
758.14	1493.99
758.323	1534.95
758.507	1606.63
758.691	1485.8
758.875	1537
759.059	1545.19
759.242	1430.51
759.426	1487.85
759.61	1434.6
759.794	1537
759.977	1487.85
760.161	1463.27
760.345	1553.38
760.528	1393.64
760.712	1399.79
760.895	1326.06
761.079	1414.12
761.263	1383.4
761.446	1334.25
761.63	1410.03
761.813	1317.87
761.997	1283.05
762.18	1332.2
762.364	1350.64
762.547	1252.33
762.731	1268.72
762.914	1289.2
763.098	1332.2
763.281	1278.96
763.464	1276.91
763.648	1289.2
763.831	1256.43
764.015	1248.24
764.198	1344.49
764.381	1272.81
764.564	1213.42
764.748	1182.7
764.931	1266.67
765.114	1188.85
765.297	1137.65
765.481	1240.05
765.664	1201.13
765.847	1264.62
766.03	1113.07
766.213	1172.46
766.397	1194.99
766.58	1217.52
766.763	1156.08
766.946	1184.75
767.129	1158.13
767.312	1059.82
767.495	1106.93
767.678	1100.78
767.861	1149.93
768.044	1139.69
768.227	1156.08
768.41	1121.26
768.593	1215.47
768.776	1113.07
768.959	1033.2
769.142	1180.65
769.324	1133.55
769.507	1164.27
769.69	1108.98
769.873	1094.64
770.056	1076.21
770.239	988.14
770.421	1055.73
770.604	943.09
770.787	1072.11
770.97	1072.11
771.152	1068.02
771.335	1008.62
771.518	1160.17
771.7	961.52
771.883	1092.59
772.066	1027.06
772.248	1072.11
772.431	990.19
772.613	1051.63
772.796	986.1
772.978	969.71
773.161	965.62
773.343	945.14
773.526	982
773.708	961.52
773.891	959.47
774.073	916.47
774.256	908.27
774.438	957.43
774.621	910.32
774.803	932.85
774.985	875.51
775.168	902.13
775.35	947.19
775.532	945.14
775.715	881.65
775.897	863.22
776.079	889.84
776.261	875.51
776.444	826.36
776.626	855.03
776.808	924.66
776.99	836.6
777.173	805.88
777.355	918.51
777.537	844.79
777.719	799.73
777.901	795.64
778.083	900.08
778.265	744.44
778.447	904.18
778.629	766.96
778.811	824.31
778.993	814.07
779.175	826.36
779.357	738.29
779.539	709.62
779.721	728.05
779.903	766.96
780.085	707.57
780.267	707.57
780.449	848.88
780.631	789.49
780.812	738.29
780.994	711.67
781.176	803.83
781.358	721.91
781.54	687.09
781.721	642.04
781.903	771.06
782.085	726
782.267	666.61
782.448	703.48
782.63	639.99
782.812	723.96
782.993	711.67
783.175	578.55
783.357	627.7
783.538	605.17
783.72	578.55
783.901	644.09
784.083	586.74
784.264	601.08
784.446	646.13
784.627	629.75
784.809	570.36
784.99	498.68
785.172	607.22
785.353	558.07
785.535	566.26
785.716	584.7
785.897	531.45
786.079	564.22
786.26	531.45
786.441	576.5
786.623	470.01
786.804	478.2
786.985	574.46
787.167	558.07
787.348	564.22
787.529	588.79
787.71	568.31
787.891	537.59
788.073	502.78
788.254	500.73
788.435	527.35
788.616	451.58
788.797	445.43
788.978	496.63
789.159	484.34
789.34	535.54
789.522	453.63
789.703	427
789.884	453.63
790.065	504.82
790.246	545.78
790.427	455.67
790.607	451.58
790.788	445.43
790.969	482.3
791.15	480.25
791.331	439.29
791.512	388.09
791.693	379.9
791.874	510.97
792.054	490.49
792.235	386.04
792.416	424.95
792.597	310.27
792.778	498.68
792.958	377.85
793.139	332.79
793.32	455.67
793.5	427
793.681	515.06
793.862	349.18
794.042	332.79
794.223	388.09
794.404	347.13
794.584	365.56
794.765	336.89
794.945	357.37
795.126	420.86
795.306	435.19
795.487	363.51
795.667	295.93
795.848	412.67
796.028	400.38
796.209	318.46
796.389	345.08
796.57	314.36
796.75	377.85
796.93	371.71
797.111	343.03
797.291	365.56
797.471	412.67
797.652	318.46
797.832	343.03
798.012	330.75
798.192	349.18
798.373	297.98
798.553	338.94
798.733	308.22
798.913	328.7
799.093	338.94
799.274	338.94
799.454	365.56
799.634	275.45
799.814	302.08
799.994	275.45
800.174	254.97
800.354	324.6
800.534	275.45
800.714	306.17
800.894	394.23
801.074	271.36
801.254	246.78
801.434	365.56
801.614	267.26
801.794	259.07
801.974	736.24
802.154	248.83
802.334	300.03
802.514	316.41
802.693	308.22
802.873	250.88
803.053	271.36
803.233	261.12
803.413	281.6
803.592	226.3
803.772	287.74
803.952	211.96
804.131	216.06
804.311	293.88
804.491	285.69
804.67	216.06
804.85	224.25
805.03	273.4
805.209	326.65
805.389	330.75
805.568	218.11
805.748	291.84
805.928	197.63
806.107	205.82
806.287	232.44
806.466	240.64
806.646	257.02
806.825	332.79
807.004	263.16
807.184	218.11
807.363	326.65
807.543	250.88
807.722	252.92
807.901	220.16
808.081	218.11
808.26	173.05
808.439	193.53
808.619	281.6
808.798	179.2
808.977	209.92
809.156	310.27
809.336	207.87
809.515	277.5
809.694	234.49
809.873	234.49
810.052	218.11
810.231	175.1
810.411	214.01
810.59	271.36
810.769	211.96
810.948	156.67
811.127	128
811.306	179.2
811.485	211.96
811.664	242.68
811.843	234.49
812.022	283.64
812.201	203.77
812.38	177.15
812.559	187.39
812.737	183.29
812.916	181.25
813.095	224.25
813.274	224.25
813.453	191.49
813.632	234.49
813.811	248.83
813.989	140.29
814.168	119.81
814.347	240.64
814.526	277.5
814.704	181.25
814.883	232.44
815.062	146.43
815.24	232.44
815.419	138.24
815.598	248.83
815.776	173.05
815.955	171.01
816.133	134.14
816.312	134.14
816.49	275.45
816.669	158.72
816.847	144.38
817.026	205.82
817.204	177.15
817.383	191.49
817.561	150.53
817.74	232.44
817.918	228.35
818.097	191.49
818.275	181.25
818.453	222.2
818.632	95.23
818.81	205.82
818.988	179.2
819.167	87.04
819.345	152.57
819.523	164.86
819.701	234.49
819.879	197.63
820.058	193.53
820.236	107.52
820.414	175.1
820.592	146.43
820.77	185.34
820.948	158.72
821.127	125.95
821.305	66.56
821.483	150.53
821.661	95.23
821.839	197.63
822.017	218.11
822.195	125.95
822.373	58.37
822.551	166.91
822.729	164.86
822.907	93.18
823.085	214.01
823.262	150.53
823.44	107.52
823.618	150.53
823.796	113.66
823.974	134.14
824.152	218.11
824.329	162.81
824.507	140.29
824.685	136.19
824.863	109.57
825.04	130.05
825.218	168.96
825.396	226.3
825.574	160.77
825.751	113.66
825.929	109.57
826.107	162.81
826.284	113.66
826.462	132.09
826.639	113.66
826.817	93.18
826.994	125.95
827.172	109.57
827.349	117.76
827.527	76.8
827.704	103.42
827.882	130.05
828.059	107.52
828.237	97.28
828.414	103.42
828.591	54.27
828.769	99.33
828.946	144.38
829.124	154.62
829.301	191.49
829.478	119.81
829.655	119.81
829.833	72.7
830.01	82.94
830.187	72.7
830.364	158.72
830.542	136.19
830.719	140.29
830.896	103.42
831.073	144.38
831.25	80.89
831.427	113.66
831.604	99.33
831.782	91.13
831.959	60.42
832.136	78.85
832.313	128
832.49	62.46
832.667	89.09
832.844	95.23
833.021	144.38
833.198	115.71
833.374	105.47
833.551	113.66
833.728	121.85
833.905	119.81
834.082	111.61
834.259	123.9
834.436	160.77
834.612	66.56
834.789	144.38
834.966	125.95
835.143	72.7
835.319	82.94
835.496	134.14
835.673	177.15
835.85	107.52
836.026	136.19
836.203	99.33
836.38	44.03
836.556	101.37
836.733	95.23
836.909	142.33
837.086	78.85
837.262	48.13
837.439	146.43
837.616	60.42
837.792	121.85
837.968	125.95
838.145	37.89
838.321	89.09
838.498	111.61
838.674	109.57
838.851	117.76
839.027	82.94
839.203	-3.07
839.38	95.23
839.556	128
839.732	130.05
839.909	103.42
840.085	48.13
840.261	123.9
840.437	101.37
840.614	91.13
840.79	121.85
840.966	82.94
841.142	68.61
841.318	56.32
841.494	142.33
841.671	19.46
841.847	52.22
842.023	60.42
842.199	82.94
842.375	93.18
842.551	52.22
842.727	60.42
842.903	115.71
843.079	-29.7
843.255	84.99
843.431	128
843.607	29.7
843.783	52.22
843.959	31.74
844.134	115.71
844.31	113.66
844.486	109.57
844.662	60.42
844.838	56.32
845.013	68.61
845.189	52.22
845.365	130.05
845.541	78.85
845.716	37.89
845.892	66.56
846.068	68.61
846.244	46.08
846.419	58.37
846.595	70.65
846.77	111.61
846.946	109.57
847.122	19.46
847.297	123.9
847.473	89.09
847.648	82.94
847.824	117.76
847.999	99.33
848.175	7.17
848.35	48.13
848.526	29.7
848.701	54.27
848.876	121.85
849.052	64.51
849.227	54.27
849.403	56.32
849.578	-3.07
849.753	48.13
849.929	134.14
850.104	5.12
850.279	23.55
850.454	56.32
850.63	50.18
850.805	62.46
850.98	58.37
851.155	136.19
851.33	66.56
851.505	33.79
851.681	82.94
851.856	23.55
852.031	27.65
852.206	87.04
852.381	70.65
852.556	60.42
852.731	80.89
852.906	164.86
853.081	78.85
853.256	66.56
853.431	-15.36
853.606	27.65
853.781	58.37
853.956	58.37
854.131	15.36
854.305	-15.36
854.48	41.98
854.655	25.6
854.83	76.8
855.005	48.13
855.18	76.8
855.354	23.55
855.529	109.57
855.704	23.55
855.879	29.7
856.053	74.75
856.228	87.04
856.403	23.55
856.577	58.37
856.752	-17.41
856.926	93.18
857.101	15.36
857.276	29.7
857.45	50.18
857.625	82.94
857.799	60.42
857.974	-3.07
858.148	3.07
858.323	46.08
858.497	23.55
858.672	41.98
858.846	21.5
859.02	103.42
859.195	11.26
859.369	15.36
859.543	41.98
859.718	-23.55
859.892	91.13
860.066	60.42
860.241	17.41
860.415	-21.5
860.589	52.22
860.763	56.32
860.938	103.42
861.112	84.99
861.286	41.98
861.46	5.12
861.634	-7.17
861.808	15.36
861.982	87.04
862.157	56.32
862.331	54.27
862.505	27.65
862.679	35.84
862.853	41.98
863.027	1.02
863.201	84.99
863.375	31.74
863.549	97.28
863.722	62.46
863.896	76.8
864.07	-5.12
864.244	72.7
864.418	54.27
864.592	21.5
864.766	-27.65
864.939	70.65
865.113	89.09
865.287	52.22
865.461	33.79
865.634	62.46
865.808	17.41
865.982	95.23
866.156	29.7
866.329	39.94
866.503	123.9
866.676	44.03
866.85	19.46
867.024	9.22
867.197	-7.17
867.371	66.56
867.544	11.26
867.718	-19.46
867.891	50.18
868.065	25.6
868.238	23.55
868.412	-37.89
868.585	70.65
868.759	89.09
868.932	-7.17
869.105	-70.65
869.279	13.31
869.452	64.51
869.625	9.22
869.799	89.09
869.972	29.7
870.145	33.79
870.319	101.37
870.492	-7.17
870.665	7.17
870.838	68.61
871.011	15.36
871.185	-7.17
871.358	97.28
871.531	-7.17
871.704	-11.26
871.877	52.22
872.05	33.79
872.223	-89.09
872.396	66.56
872.569	39.94
872.742	9.22
872.915	7.17
873.088	31.74
873.261	1.02
873.434	68.61
873.607	-9.22
873.78	27.65
873.953	-54.27
874.126	35.84
874.299	-46.08
874.471	44.03
874.644	3.07
874.817	76.8
874.99	95.23
875.163	-13.31
875.335	13.31
875.508	9.22
875.681	17.41
875.853	5.12
876.026	56.32
876.199	25.6
876.371	-15.36
876.544	-48.13
876.717	148.48
876.889	9.22
877.062	19.46
877.234	21.5
877.407	19.46
877.579	9.22
877.752	68.61
877.924	5.12
878.097	82.94
878.269	-76.8
878.442	1.02
878.614	48.13
878.786	5.12
878.959	23.55
879.131	21.5
879.303	13.31
879.476	44.03
879.648	39.94
879.82	3.07
879.993	-37.89
880.165	19.46
880.337	-52.22
880.509	15.36
880.681	21.5
880.854	78.85
881.026	35.84
881.198	46.08
881.37	33.79
881.542	23.55
881.714	23.55
881.886	21.5
882.058	15.36
882.23	-5.12
882.402	33.79
882.574	109.57
882.746	56.32
882.918	50.18
883.09	60.42
883.262	-7.17
883.434	15.36
883.606	39.94
883.778	5.12
883.95	70.65
884.122	7.17
884.293	103.42
884.465	7.17
884.637	23.55
884.809	66.56
884.98	25.6
885.152	-31.74
885.324	146.43
885.496	78.85
885.667	-31.74
885.839	-64.51
886.011	66.56
886.182	7.17
886.354	19.46
886.525	23.55
886.697	-76.8
886.869	23.55
887.04	54.27
887.212	-48.13
887.383	54.27
887.555	35.84
887.726	76.8
887.897	33.79
888.069	9.22
888.24	27.65
888.412	103.42
888.583	5.12
888.754	58.37
888.926	9.22
889.097	48.13
889.268	7.17
889.44	48.13
889.611	17.41
889.782	74.75
889.953	11.26
890.125	-1.02
890.296	41.98
890.467	-46.08
890.638	23.55
890.809	21.5
890.98	17.41
891.151	-23.55
891.323	52.22
891.494	50.18
891.665	1.02
891.836	35.84
892.007	84.99
892.178	19.46
892.349	1.02
892.52	25.6
892.691	27.65
892.862	31.74
893.032	62.46
893.203	-7.17
893.374	58.37
893.545	105.47
893.716	-13.31
893.887	44.03
894.057	37.89
894.228	-5.12
894.399	-27.65
894.57	52.22
894.74	52.22
894.911	1.02
895.082	109.57
895.253	25.6
895.423	13.31
895.594	-68.61
895.764	23.55
895.935	29.7
896.106	15.36
896.276	-13.31
896.447	25.6
896.617	-7.17
896.788	-37.89
896.958	-19.46
897.129	87.04
897.299	11.26
897.47	17.41
897.64	31.74
897.81	74.75
897.981	31.74
898.151	-5.12
898.322	44.03
898.492	56.32
898.662	23.55
898.832	33.79
899.003	21.5
899.173	29.7
899.343	-27.65
899.513	-46.08
