Data from USB4F104151__12__12-27-01-917.txt Node

Date: Fri Mar 14 12:27:01 EDT 2025
User: louis
Spectrometer: USB4F10415
Trigger mode: 4
Integration Time (sec): 2.000000E-2
Scans to average: 1
Electric dark correction enabled: true
Nonlinearity correction enabled: false
Boxcar width: 0
XAxis mode: Wavelengths
Number of Pixels in Spectrum: 3648
>>>>>Begin Spectral Data<<<<<
178.204	-52.91
178.424	-52.91
178.644	-52.91
178.864	-73.39
179.084	-126.63
179.304	-46.76
179.524	-52.91
179.744	14.68
179.964	-9.9
180.184	53.59
180.404	6.49
180.624	-28.33
180.844	-26.28
181.064	-9.9
181.283	51.54
181.503	-11.95
181.723	59.73
181.943	-153.26
182.163	104.79
182.383	37.2
182.602	31.06
182.822	108.88
183.042	-48.81
183.262	80.21
183.482	-18.09
183.701	-63.15
183.921	-36.52
184.141	-18.09
184.361	39.25
184.58	18.77
184.8	47.44
185.02	18.77
185.239	98.64
185.459	-30.38
185.679	49.49
185.898	16.73
186.118	16.73
186.338	0.34
186.557	29.01
186.777	-44.71
186.997	-40.62
187.216	-7.85
187.436	2.39
187.655	57.68
187.875	22.87
188.095	0.34
188.314	51.54
188.534	29.01
188.753	53.59
188.973	37.2
189.192	57.68
189.412	-9.9
189.631	10.58
189.851	2.39
190.07	-16.04
190.29	4.44
190.509	8.53
190.729	8.53
190.948	61.78
191.168	239.95
191.387	63.83
191.607	6.49
191.826	69.97
192.045	37.2
192.265	55.64
192.484	-7.85
192.704	33.11
192.923	14.68
193.142	92.5
193.362	65.88
193.581	20.82
193.8	24.92
194.02	24.92
194.239	6.49
194.458	-16.04
194.678	14.68
194.897	-30.38
195.116	4.44
195.335	88.4
195.555	-11.95
195.774	100.69
195.993	22.87
196.212	-69.29
196.432	31.06
196.651	16.73
196.87	4.44
197.089	82.26
197.308	41.3
197.528	26.96
197.747	51.54
197.966	49.49
198.185	-42.67
198.404	6.49
198.623	104.79
198.842	-48.81
199.062	31.06
199.281	35.16
199.5	-26.28
199.719	-40.62
199.938	16.73
200.157	31.06
200.376	0.34
200.595	12.63
200.814	14.68
201.033	-16.04
201.252	57.68
201.471	88.4
201.69	94.55
201.909	29.01
202.128	-5.8
202.347	49.49
202.566	12.63
202.785	18.77
203.004	24.92
203.223	104.79
203.442	-3.75
203.661	-16.04
203.879	-11.95
204.098	4.44
204.317	57.68
204.536	22.87
204.755	-24.23
204.974	4.44
205.193	57.68
205.411	82.26
205.63	14.68
205.849	55.64
206.068	-20.14
206.287	0.34
206.505	33.11
206.724	-1.71
206.943	-11.95
207.162	51.54
207.381	-20.14
207.599	-22.19
207.818	53.59
208.037	-22.19
208.255	82.26
208.474	33.11
208.693	37.2
208.911	41.3
209.13	49.49
209.349	63.83
209.567	18.77
209.786	115.03
210.005	63.83
210.223	-67.24
210.442	-1.71
210.661	49.49
210.879	-42.67
211.098	31.06
211.316	51.54
211.535	65.88
211.753	37.2
211.972	65.88
212.191	4.44
212.409	-57
212.628	22.87
212.846	76.12
213.065	35.16
213.283	123.22
213.502	16.73
213.72	-42.67
213.938	84.31
214.157	8.53
214.375	43.35
214.594	-5.8
214.812	106.84
215.031	98.64
215.249	-26.28
215.467	4.44
215.686	-38.57
215.904	72.02
216.122	74.07
216.341	88.4
216.559	24.92
216.778	94.55
216.996	76.12
217.214	-7.85
217.432	43.35
217.651	43.35
217.869	51.54
218.087	47.44
218.306	29.01
218.524	20.82
218.742	-32.43
218.96	41.3
219.179	26.96
219.397	0.34
219.615	-38.57
219.833	78.16
220.051	49.49
220.27	16.73
220.488	24.92
220.706	45.4
220.924	-30.38
221.142	22.87
221.36	2.39
221.578	-61.1
221.796	20.82
222.015	-1.71
222.233	-11.95
222.451	8.53
222.669	-7.85
222.887	72.02
223.105	-1.71
223.323	35.16
223.541	8.53
223.759	51.54
223.977	51.54
224.195	39.25
224.413	86.36
224.631	53.59
224.849	65.88
225.067	96.6
225.285	8.53
225.503	16.73
225.721	8.53
225.939	-34.47
226.157	12.63
226.375	31.06
226.592	-40.62
226.81	-26.28
227.028	24.92
227.246	43.35
227.464	-40.62
227.682	65.88
227.9	47.44
228.117	-1.71
228.335	6.49
228.553	-16.04
228.771	43.35
228.989	74.07
229.206	6.49
229.424	-40.62
229.642	12.63
229.86	39.25
230.077	37.2
230.295	-46.76
230.513	57.68
230.731	-11.95
230.948	24.92
231.166	43.35
231.384	-24.23
231.601	-44.71
231.819	47.44
232.037	35.16
232.254	51.54
232.472	45.4
232.689	-54.95
232.907	6.49
233.125	-18.09
233.342	72.02
233.56	-13.99
233.777	47.44
233.995	-5.8
234.213	39.25
234.43	-30.38
234.648	33.11
234.865	41.3
235.083	-1.71
235.3	2.39
235.518	-22.19
235.735	57.68
235.953	-24.23
236.17	6.49
236.388	31.06
236.605	2.39
236.822	8.53
237.04	37.2
237.257	55.64
237.475	37.2
237.692	35.16
237.909	65.88
238.127	31.06
238.344	63.83
238.562	69.97
238.779	-22.19
238.996	12.63
239.214	10.58
239.431	-48.81
239.648	-1.71
239.865	-7.85
240.083	-11.95
240.3	-42.67
240.517	96.6
240.735	-91.82
240.952	24.92
241.169	37.2
241.386	67.92
241.603	61.78
241.821	-26.28
242.038	-18.09
242.255	74.07
242.472	-18.09
242.689	47.44
242.907	-1.71
243.124	47.44
243.341	-13.99
243.558	10.58
243.775	26.96
243.992	-32.43
244.209	63.83
244.426	6.49
244.643	45.4
244.86	10.58
245.078	24.92
245.295	16.73
245.512	33.11
245.729	18.77
245.946	59.73
246.163	41.3
246.38	76.12
246.597	4.44
246.814	12.63
247.031	117.08
247.248	20.82
247.464	35.16
247.681	-32.43
247.898	22.87
248.115	-3.75
248.332	78.16
248.549	49.49
248.766	39.25
248.983	-28.33
249.2	26.96
249.417	-1.71
249.633	63.83
249.85	100.69
250.067	-5.8
250.284	37.2
250.501	47.44
250.717	80.21
250.934	24.92
251.151	31.06
251.368	33.11
251.585	41.3
251.801	-3.75
252.018	-42.67
252.235	57.68
252.451	20.82
252.668	-40.62
252.885	45.4
253.102	127.32
253.318	-13.99
253.535	63.83
253.752	-38.57
253.968	39.25
254.185	-32.43
254.401	18.77
254.618	45.4
254.835	0.34
255.051	102.74
255.268	31.06
255.484	67.92
255.701	31.06
255.917	24.92
256.134	76.12
256.351	45.4
256.567	0.34
256.784	8.53
257	-46.76
257.217	47.44
257.433	31.06
257.65	35.16
257.866	59.73
258.082	-9.9
258.299	-22.19
258.515	41.3
258.732	12.63
258.948	-87.72
259.165	14.68
259.381	-26.28
259.597	33.11
259.814	39.25
260.03	-48.81
260.246	-22.19
260.463	43.35
260.679	33.11
260.895	43.35
261.112	10.58
261.328	-48.81
261.544	61.78
261.761	37.2
261.977	33.11
262.193	6.49
262.409	51.54
262.626	51.54
262.842	-44.71
263.058	6.49
263.274	61.78
263.49	94.55
263.707	26.96
263.923	2.39
264.139	-9.9
264.355	26.96
264.571	33.11
264.787	57.68
265.004	31.06
265.22	-40.62
265.436	57.68
265.652	-11.95
265.868	82.26
266.084	14.68
266.3	61.78
266.516	-44.71
266.732	55.64
266.948	22.87
267.164	51.54
267.38	123.22
267.596	47.44
267.812	84.31
268.028	-22.19
268.244	31.06
268.46	20.82
268.676	45.4
268.892	35.16
269.108	-32.43
269.324	51.54
269.54	67.92
269.756	33.11
269.972	-1.71
270.188	-38.57
270.403	57.68
270.619	80.21
270.835	102.74
271.051	94.55
271.267	12.63
271.483	0.34
271.698	-34.47
271.914	-3.75
272.13	59.73
272.346	-61.1
272.562	76.12
272.777	0.34
272.993	14.68
273.209	24.92
273.425	72.02
273.64	69.97
273.856	67.92
274.072	67.92
274.287	-5.8
274.503	-44.71
274.719	22.87
274.934	49.49
275.15	-46.76
275.366	61.78
275.581	-7.85
275.797	22.87
276.012	55.64
276.228	59.73
276.444	-30.38
276.659	86.36
276.875	-57
277.09	49.49
277.306	37.2
277.521	0.34
277.737	-24.23
277.952	-18.09
278.168	94.55
278.383	6.49
278.599	-9.9
278.814	98.64
279.03	55.64
279.245	-5.8
279.461	8.53
279.676	39.25
279.892	-3.75
280.107	-1.71
280.322	59.73
280.538	94.55
280.753	78.16
280.969	41.3
281.184	59.73
281.399	33.11
281.615	16.73
281.83	20.82
282.045	47.44
282.26	98.64
282.476	-67.24
282.691	2.39
282.906	41.3
283.122	90.45
283.337	16.73
283.552	-44.71
283.767	-18.09
283.983	123.22
284.198	39.25
284.413	20.82
284.628	37.2
284.843	104.79
285.058	33.11
285.274	82.26
285.489	43.35
285.704	67.92
285.919	14.68
286.134	-7.85
286.349	4.44
286.564	31.06
286.779	47.44
286.995	92.5
287.21	2.39
287.425	74.07
287.64	67.92
287.855	49.49
288.07	-11.95
288.285	35.16
288.5	-9.9
288.715	61.78
288.93	39.25
289.145	12.63
289.36	0.34
289.575	47.44
289.79	-24.23
290.004	14.68
290.219	-5.8
290.434	43.35
290.649	74.07
290.864	49.49
291.079	20.82
291.294	-9.9
291.509	-1.71
291.724	61.78
291.938	45.4
292.153	10.58
292.368	69.97
292.583	-16.04
292.798	-1.71
293.012	41.3
293.227	24.92
293.442	20.82
293.657	59.73
293.871	88.4
294.086	35.16
294.301	90.45
294.516	131.41
294.73	45.4
294.945	-38.57
295.16	31.06
295.374	78.16
295.589	72.02
295.804	45.4
296.018	67.92
296.233	33.11
296.447	155.99
296.662	57.68
296.877	96.6
297.091	0.34
297.306	8.53
297.52	-34.47
297.735	6.49
297.949	43.35
298.164	37.2
298.378	-11.95
298.593	-44.71
298.807	8.53
299.022	20.82
299.236	65.88
299.451	2.39
299.665	-24.23
299.88	76.12
300.094	-13.99
300.309	104.79
300.523	-42.67
300.737	35.16
300.952	18.77
301.166	69.97
301.381	-5.8
301.595	-22.19
301.809	61.78
302.024	125.27
302.238	18.77
302.452	55.64
302.667	35.16
302.881	80.21
303.095	2.39
303.309	55.64
303.524	45.4
303.738	74.07
303.952	106.84
304.166	10.58
304.381	-44.71
304.595	37.2
304.809	-5.8
305.023	14.68
305.237	-52.91
305.452	14.68
305.666	39.25
305.88	84.31
306.094	16.73
306.308	14.68
306.522	80.21
306.736	53.59
306.95	4.44
307.164	6.49
307.379	-20.14
307.593	41.3
307.807	133.46
308.021	39.25
308.235	74.07
308.449	6.49
308.663	-48.81
308.877	69.97
309.091	49.49
309.305	67.92
309.519	59.73
309.733	43.35
309.947	-30.38
310.161	69.97
310.374	12.63
310.588	133.46
310.802	8.53
311.016	8.53
311.23	47.44
311.444	-3.75
311.658	18.77
311.872	22.87
312.085	41.3
312.299	55.64
312.513	86.36
312.727	-36.52
312.941	6.49
313.154	22.87
313.368	61.78
313.582	74.07
313.796	63.83
314.009	57.68
314.223	-7.85
314.437	0.34
314.651	57.68
314.864	55.64
315.078	67.92
315.292	18.77
315.505	33.11
315.719	82.26
315.933	0.34
316.146	-61.1
316.36	100.69
316.573	61.78
316.787	78.16
317.001	119.12
317.214	24.92
317.428	90.45
317.641	-3.75
317.855	6.49
318.068	26.96
318.282	37.2
318.495	90.45
318.709	74.07
318.922	-24.23
319.136	82.26
319.349	24.92
319.563	-7.85
319.776	65.88
319.99	59.73
320.203	39.25
320.417	14.68
320.63	74.07
320.843	110.93
321.057	31.06
321.27	74.07
321.483	14.68
321.697	-7.85
321.91	-36.52
322.124	57.68
322.337	123.22
322.55	37.2
322.763	84.31
322.977	24.92
323.19	100.69
323.403	6.49
323.617	61.78
323.83	2.39
324.043	35.16
324.256	45.4
324.469	10.58
324.683	6.49
324.896	80.21
325.109	39.25
325.322	-1.71
325.535	65.88
325.748	18.77
325.962	59.73
326.175	-24.23
326.388	67.92
326.601	51.54
326.814	65.88
327.027	65.88
327.24	69.97
327.453	35.16
327.666	96.6
327.879	8.53
328.092	-26.28
328.305	26.96
328.518	39.25
328.731	47.44
328.944	94.55
329.157	-42.67
329.37	2.39
329.583	162.13
329.796	67.92
330.009	69.97
330.222	72.02
330.435	41.3
330.648	63.83
330.861	61.78
331.073	53.59
331.286	-1.71
331.499	49.49
331.712	-32.43
331.925	10.58
332.138	49.49
332.35	-24.23
332.563	26.96
332.776	72.02
332.989	20.82
333.202	-9.9
333.414	24.92
333.627	2.39
333.84	-3.75
334.053	61.78
334.265	20.82
334.478	47.44
334.691	49.49
334.903	78.16
335.116	33.11
335.329	8.53
335.541	-1.71
335.754	121.17
335.966	16.73
336.179	22.87
336.392	8.53
336.604	-16.04
336.817	-5.8
337.029	39.25
337.242	41.3
337.454	16.73
337.667	14.68
337.88	78.16
338.092	45.4
338.305	41.3
338.517	63.83
338.729	53.59
338.942	74.07
339.154	59.73
339.367	8.53
339.579	74.07
339.792	2.39
340.004	47.44
340.217	78.16
340.429	22.87
340.641	18.77
340.854	-13.99
341.066	53.59
341.278	94.55
341.491	57.68
341.703	72.02
341.915	57.68
342.128	67.92
342.34	45.4
342.552	80.21
342.764	76.12
342.977	80.21
343.189	49.49
343.401	-16.04
343.613	-32.43
343.826	31.06
344.038	112.98
344.25	-40.62
344.462	4.44
344.674	96.6
344.886	55.64
345.099	-79.53
345.311	80.21
345.523	33.11
345.735	-48.81
345.947	69.97
346.159	8.53
346.371	-7.85
346.583	-13.99
346.795	20.82
347.007	31.06
347.219	72.02
347.431	39.25
347.643	18.77
347.855	8.53
348.067	59.73
348.279	90.45
348.491	55.64
348.703	127.32
348.915	41.3
349.127	74.07
349.339	39.25
349.551	26.96
349.763	94.55
349.975	18.77
350.187	67.92
350.399	86.36
350.61	-9.9
350.822	47.44
351.034	108.88
351.246	133.46
351.458	90.45
351.669	45.4
351.881	53.59
352.093	29.01
352.305	119.12
352.517	26.96
352.728	24.92
352.94	-22.19
353.152	94.55
353.363	35.16
353.575	104.79
353.787	86.36
353.999	10.58
354.21	65.88
354.422	24.92
354.633	20.82
354.845	41.3
355.057	14.68
355.268	12.63
355.48	55.64
355.692	18.77
355.903	43.35
356.115	35.16
356.326	24.92
356.538	55.64
356.749	69.97
356.961	59.73
357.172	125.27
357.384	90.45
357.595	168.27
357.807	80.21
358.018	49.49
358.23	53.59
358.441	41.3
358.653	43.35
358.864	47.44
359.075	2.39
359.287	16.73
359.498	4.44
359.709	26.96
359.921	127.32
360.132	49.49
360.344	78.16
360.555	-11.95
360.766	4.44
360.977	69.97
361.189	57.68
361.4	108.88
361.611	63.83
361.823	69.97
362.034	94.55
362.245	53.59
362.456	31.06
362.667	45.4
362.879	160.08
363.09	-44.71
363.301	53.59
363.512	-9.9
363.723	16.73
363.935	8.53
364.146	43.35
364.357	98.64
364.568	78.16
364.779	37.2
364.99	76.12
365.201	16.73
365.412	67.92
365.623	14.68
365.834	-22.19
366.045	166.23
366.256	37.2
366.467	94.55
366.678	67.92
366.889	53.59
367.1	31.06
367.311	53.59
367.522	78.16
367.733	39.25
367.944	65.88
368.155	-3.75
368.366	115.03
368.577	119.12
368.788	78.16
368.999	76.12
369.209	29.01
369.42	112.98
369.631	49.49
369.842	51.54
370.053	20.82
370.264	182.61
370.474	98.64
370.685	-36.52
370.896	33.11
371.107	61.78
371.317	35.16
371.528	67.92
371.739	55.64
371.95	59.73
372.16	-3.75
372.371	45.4
372.582	4.44
372.792	51.54
373.003	82.26
373.214	45.4
373.424	88.4
373.635	39.25
373.846	26.96
374.056	20.82
374.267	12.63
374.477	8.53
374.688	59.73
374.898	35.16
375.109	149.84
375.319	57.68
375.53	72.02
375.74	47.44
375.951	96.6
376.161	106.84
376.372	37.2
376.582	-32.43
376.793	69.97
377.003	88.4
377.214	133.46
377.424	63.83
377.635	61.78
377.845	59.73
378.055	22.87
378.266	108.88
378.476	82.26
378.686	10.58
378.897	88.4
379.107	-3.75
379.317	45.4
379.528	51.54
379.738	65.88
379.948	102.74
380.158	92.5
380.369	117.08
380.579	65.88
380.789	92.5
380.999	96.6
381.21	16.73
381.42	139.6
381.63	90.45
381.84	69.97
382.05	92.5
382.261	115.03
382.471	47.44
382.681	74.07
382.891	104.79
383.101	69.97
383.311	35.16
383.521	35.16
383.731	59.73
383.941	82.26
384.151	86.36
384.361	33.11
384.571	84.31
384.781	82.26
384.991	104.79
385.201	119.12
385.411	149.84
385.621	51.54
385.831	53.59
386.041	100.69
386.251	-26.28
386.461	51.54
386.671	-34.47
386.881	51.54
387.091	69.97
387.301	69.97
387.511	55.64
387.72	104.79
387.93	63.83
388.14	37.2
388.35	31.06
388.56	106.84
388.769	115.03
388.979	49.49
389.189	49.49
389.399	26.96
389.609	125.27
389.818	92.5
390.028	57.68
390.238	153.94
390.447	67.92
390.657	115.03
390.867	67.92
391.076	96.6
391.286	47.44
391.496	88.4
391.705	53.59
391.915	80.21
392.125	119.12
392.334	12.63
392.544	65.88
392.753	53.59
392.963	88.4
393.172	137.56
393.382	51.54
393.591	41.3
393.801	55.64
394.01	84.31
394.22	65.88
394.429	69.97
394.639	86.36
394.848	96.6
395.058	80.21
395.267	155.99
395.477	53.59
395.686	76.12
395.895	106.84
396.105	-1.71
396.314	133.46
396.524	164.18
396.733	98.64
396.942	123.22
397.152	104.79
397.361	170.32
397.57	49.49
397.78	162.13
397.989	135.51
398.198	153.94
398.407	104.79
398.617	121.17
398.826	53.59
399.035	131.41
399.244	153.94
399.453	115.03
399.663	53.59
399.872	110.93
400.081	88.4
400.29	86.36
400.499	164.18
400.708	61.78
400.917	22.87
401.127	133.46
401.336	41.3
401.545	254.29
401.754	207.19
401.963	149.84
402.172	190.8
402.381	117.08
402.59	100.69
402.799	76.12
403.008	135.51
403.217	129.36
403.426	135.51
403.635	123.22
403.844	203.09
404.053	112.98
404.262	143.7
404.471	186.71
404.68	172.37
404.888	131.41
405.097	198.99
405.306	186.71
405.515	153.94
405.724	186.71
405.933	190.8
406.142	112.98
406.35	180.56
406.559	164.18
406.768	174.42
406.977	223.57
407.185	258.39
407.394	274.77
407.603	229.71
407.812	274.77
408.02	252.24
408.229	250.19
408.438	237.91
408.646	215.38
408.855	301.39
409.064	319.82
409.272	262.48
409.481	330.06
409.69	215.38
409.898	305.49
410.107	364.88
410.315	336.21
410.524	403.79
410.733	467.28
410.941	364.88
411.15	514.38
411.358	438.61
411.567	510.29
411.775	432.46
411.984	459.09
412.192	518.48
412.401	520.53
412.609	489.81
412.818	573.77
413.026	635.21
413.234	598.35
413.443	538.96
413.651	606.54
413.86	639.31
414.068	702.79
414.276	588.11
414.485	717.13
414.693	756.04
414.901	745.8
415.11	778.57
415.318	815.43
415.526	821.58
415.734	919.88
415.943	934.22
416.151	971.08
416.359	928.07
416.567	1016.13
416.776	1016.13
416.984	1079.62
417.192	1077.57
417.4	1106.24
417.608	1165.64
417.817	1237.31
418.025	1171.78
418.233	1339.71
418.441	1272.13
418.649	1444.16
418.857	1470.78
419.065	1558.85
419.273	1431.87
419.481	1632.57
419.689	1616.19
419.897	1798.46
420.105	1780.03
420.313	1763.64
420.521	1872.18
420.729	1857.85
420.937	1995.06
421.145	1982.78
421.353	2201.91
421.561	2224.44
421.769	2371.89
421.977	2357.55
422.185	2363.7
422.393	2560.3
422.601	2701.61
422.809	2615.6
423.017	2677.04
423.224	2720.04
423.432	2875.69
423.64	2875.69
423.848	3189.03
424.056	3217.7
424.263	3309.86
424.471	3430.69
424.679	3399.97
424.887	3541.28
425.094	3756.32
425.302	3741.98
425.51	3895.58
425.718	4020.5
425.925	4047.13
426.133	4149.53
426.341	4450.58
426.548	4452.63
426.756	4686.09
426.964	4616.46
427.171	4952.33
427.379	5071.11
427.586	5318.92
427.794	5445.89
428.001	5654.78
428.209	5783.81
428.417	5599.49
428.624	5935.35
428.832	6113.53
429.039	6025.47
429.247	6203.64
429.454	6721.77
429.662	7114.98
429.869	6842.6
430.076	7237.86
430.284	6842.6
430.491	7235.81
430.699	7616.74
430.906	7700.7
431.114	7753.95
431.321	8294.61
431.528	8392.92
431.736	8757.46
431.943	9167.05
432.15	8827.09
432.358	8886.48
432.565	9496.77
432.772	9607.36
432.979	10084.54
433.187	10199.23
433.394	10416.31
433.601	10840.24
433.808	11180.2
434.016	10694.83
434.223	11329.7
434.43	11993.25
434.637	11997.34
434.844	12495
435.052	12972.18
435.259	12486.81
435.466	12693.65
435.673	12771.47
435.88	13529.22
436.087	14514.3
436.294	14393.47
436.501	13951.1
436.708	14200.96
436.915	14825.59
437.122	15368.3
437.329	15245.42
437.537	15843.43
437.743	16425.05
437.95	16257.12
438.157	17125.46
438.364	17344.59
438.571	17473.61
438.778	17461.32
438.985	19241.01
439.192	18352.19
439.399	19050.55
439.606	18436.16
439.813	19439.66
440.02	20656.15
440.227	20725.79
440.433	20363.29
440.64	21018.64
440.847	20668.44
441.054	21192.72
441.261	22792.19
441.467	22374.4
441.674	22941.69
441.881	24061.93
442.088	23711.72
442.294	23848.94
442.501	24082.41
442.708	24633.31
442.914	25546.7
443.121	26828.73
443.328	26087.37
443.534	28047.27
443.741	27207.61
443.948	26781.63
444.154	28856.22
444.361	28475.3
444.568	28377
444.774	28829.6
444.981	29187.99
445.187	29994.89
445.394	31541.11
445.6	31072.12
445.807	33886.03
446.013	32610.15
446.22	32862.05
446.426	34772.8
446.633	34512.71
446.839	36144.94
447.046	34262.86
447.252	36468.52
447.459	36253.48
447.665	36233
447.871	38078.22
448.078	39554.81
448.284	37515.03
448.491	38582.02
448.697	40173.3
448.903	40519.4
449.11	41119.46
449.316	40412.91
449.522	41025.25
449.728	42315.47
449.935	42643.15
450.141	42577.61
450.347	43583.16
450.553	42051.28
450.76	42727.11
450.966	44039.86
451.172	43538.11
451.378	44707.5
451.584	44076.72
451.791	45053.61
451.997	44758.7
452.203	45762.2
452.409	45452.96
452.615	45143.72
452.821	43325.12
453.027	43056.84
453.233	45842.07
453.44	43902.65
453.646	44461.74
453.852	44873.38
454.058	45096.61
454.264	43613.88
454.47	44953.26
454.676	43472.57
454.882	45407.9
455.088	41281.25
455.294	42159.83
455.5	42497.74
455.705	42989.25
455.911	41408.22
456.117	40785.64
456.323	40054.51
456.529	37932.82
456.735	39855.86
456.941	38594.31
457.147	38082.32
457.352	37160.73
457.558	36800.29
457.764	36515.62
457.97	36138.8
458.176	34930.5
458.381	35430.2
458.587	33730.39
458.793	33836.88
458.999	32065.39
459.204	34027.34
459.41	33019.74
459.616	31045.5
459.821	30898.05
460.027	30961.53
460.233	30082.95
460.438	28641.18
460.644	29101.98
460.85	27496.37
461.055	27328.44
461.261	27400.12
461.466	25229.27
461.672	24657.89
461.878	26345.41
462.083	24547.29
462.289	24180.71
462.494	23934.95
462.7	22837.24
462.905	22198.27
463.111	22962.17
463.316	22980.6
463.522	22671.36
463.727	22720.51
463.932	22683.64
464.138	22106.12
464.343	22304.77
464.549	21811.21
464.754	22331.39
464.959	22329.34
465.165	21745.67
465.37	21092.37
465.575	20877.33
465.781	21317.65
465.986	21581.84
466.191	20719.64
466.397	20516.89
466.602	19308.59
466.807	20383.77
467.012	20281.38
467.218	19884.07
467.423	19814.44
467.628	20135.97
467.833	20756.5
468.038	20078.63
468.244	19802.15
468.449	20113.44
468.654	19654.7
468.859	19347.5
469.064	19185.71
469.269	18454.59
469.474	18708.54
469.679	19097.65
469.885	18573.37
470.09	18767.93
470.295	18782.26
470.5	18303.04
470.705	18131.01
470.91	17854.53
471.115	17637.45
471.32	17946.69
471.525	17797.19
471.73	17596.49
471.935	17731.65
472.139	16846.93
472.344	17125.46
472.549	17242.19
472.754	16998.48
472.959	16355.42
473.164	16175.2
473.369	15923.3
473.574	16250.97
473.778	16261.21
473.983	16402.52
474.188	16179.29
474.393	15351.92
474.598	15540.33
474.802	15417.45
475.007	15341.68
475.212	15640.68
475.417	14755.96
475.621	14628.98
475.826	14749.81
476.031	14489.72
476.235	14225.53
476.44	14616.69
476.645	13953.15
476.849	14147.71
477.054	13969.54
477.259	13967.49
477.463	13717.64
477.668	13494.41
477.872	13858.95
478.077	13207.69
478.282	12996.75
478.486	12966.03
478.691	12718.23
478.895	12986.51
479.1	12900.5
479.304	12816.53
479.509	12458.14
479.713	12699.8
479.918	12261.53
480.122	12261.53
480.326	12402.84
480.531	12488.85
480.735	12138.65
480.94	12134.56
481.144	12562.58
481.348	11964.57
481.553	12036.25
481.757	11837.6
481.961	12095.64
482.166	12101.79
482.37	11964.57
482.574	11778.21
482.778	11804.83
482.983	11976.86
483.187	11841.7
483.391	12032.16
483.595	11724.96
483.8	11643.04
484.004	12050.59
484.208	12015.77
484.412	11931.81
484.616	11761.83
484.821	11972.77
485.025	11767.97
485.229	11954.33
485.433	11866.27
485.637	11870.37
485.841	11802.79
486.045	11733.15
486.249	11810.98
486.453	11808.93
486.657	11980.96
486.861	11907.23
487.065	11729.06
487.269	11643.04
487.473	11692.19
487.677	11720.87
487.881	12177.56
488.085	11948.19
488.289	12071.07
488.493	11976.86
488.697	12140.7
488.901	11882.66
489.105	11905.18
489.309	11942.05
489.512	11927.71
489.716	12124.32
489.92	12015.77
490.124	12073.12
490.328	12097.69
490.531	11872.42
490.735	12333.21
490.939	12320.92
491.143	12146.84
491.346	12216.47
491.55	12460.18
491.754	12476.57
491.958	12552.34
492.161	12335.26
492.365	12509.33
492.569	12648.6
492.772	12640.4
492.976	12458.14
493.18	12726.42
493.383	12791.95
493.587	12923.02
493.79	13035.66
493.994	12925.07
494.197	13107.34
494.401	13299.85
494.605	13222.03
494.808	13275.27
495.012	13377.67
495.215	13678.72
495.419	13605
495.622	13645.96
495.825	14080.13
496.029	13799.55
496.232	14233.72
496.436	13975.68
496.639	14499.96
496.843	14352.51
497.046	14680.18
497.249	14639.22
497.453	14862.45
497.656	15077.49
497.859	15175.79
498.063	15073.39
498.266	15386.73
498.469	15585.38
498.673	15575.14
498.876	15749.22
499.079	15956.07
499.282	15851.62
499.485	16386.14
499.689	16220.25
499.892	16625.75
500.095	16672.85
500.298	17025.11
500.501	16922.71
500.705	17623.11
500.908	17635.4
501.111	17723.46
501.314	17999.94
501.517	18161.73
501.72	18305.09
501.923	18249.79
502.126	18825.27
502.329	18962.48
502.532	19222.58
502.735	19200.05
502.938	19677.23
503.141	19705.9
503.344	20084.77
503.547	19974.18
503.75	20103.2
503.953	20660.25
504.156	20781.08
504.359	20867.09
504.562	21045.27
504.765	21196.82
504.968	21706.76
505.17	21764.11
505.373	21727.24
505.576	22370.3
505.779	22530.05
505.982	22736.89
506.185	23101.43
506.387	23076.85
506.59	23185.4
506.793	24078.31
506.996	23658.48
507.198	24543.2
507.401	24442.85
507.604	24840.15
507.807	25077.72
508.009	25255.89
508.212	25380.82
508.415	25579.47
508.617	26208.2
508.82	25923.53
509.022	25880.52
509.225	26681.28
509.428	26939.32
509.63	27203.51
509.833	27719.6
510.035	27725.74
510.238	27408.31
510.44	28155.82
510.643	28551.07
510.845	28667.81
511.048	28645.28
511.25	29165.46
511.453	29403.03
511.655	30793.6
511.858	30132.11
512.06	30240.65
512.262	30369.67
512.465	30855.04
512.667	31496.05
512.87	31328.12
513.072	31266.68
513.274	31979.37
513.477	32077.68
513.679	32773.99
513.881	32726.88
514.084	33228.63
514.286	33056.6
514.488	33320.79
514.69	34125.64
514.893	34301.77
515.095	34209.61
515.297	34608.97
515.499	34891.58
515.701	35589.94
515.904	35395.39
516.106	35837.75
516.308	36122.41
516.51	36597.54
516.712	36812.58
516.914	36812.58
517.116	37605.14
517.318	37492.51
517.52	37527.32
517.722	38002.45
517.925	38506.25
518.127	38647.56
518.329	39216.89
518.531	38887.17
518.733	39671.54
518.935	40079.09
519.136	40034.03
519.338	40791.78
519.54	40478.44
519.742	40988.39
519.944	41141.99
520.146	41703.13
520.348	41823.96
520.55	42071.76
520.752	42133.2
520.954	42456.78
521.155	42917.57
521.357	43470.53
521.559	43601.6
521.761	43894.46
521.963	43890.36
522.164	44238.51
522.366	43970.23
522.568	45094.57
522.77	44662.44
522.971	45663.9
523.173	45055.65
523.375	45512.35
523.576	45655.71
523.778	45971.1
523.98	46442.13
524.181	46470.8
524.383	46247.57
524.584	46751.37
524.786	47111.81
524.988	47136.39
525.189	47396.48
525.391	47816.32
525.592	47765.12
525.794	48387.7
525.995	48014.97
526.197	48170.61
526.398	48418.42
526.6	48807.53
526.801	49217.13
527.003	48866.92
527.204	48932.46
527.406	49481.31
527.607	49405.54
527.808	49530.47
528.01	49264.23
528.211	49352.29
528.412	50789.97
528.614	50159.19
528.815	50277.97
529.016	50652.75
529.218	50101.85
529.419	50339.41
529.62	50456.15
529.822	50452.05
530.023	50460.24
530.224	50673.23
530.425	50386.52
530.626	50470.48
530.828	50298.45
531.029	51197.51
531.23	50683.47
531.431	50812.49
531.632	50867.79
531.833	51220.04
532.035	51277.38
532.236	51422.79
532.437	51314.25
532.638	51355.21
532.839	51611.2
533.04	51791.42
533.241	51101.26
533.442	51785.28
533.643	51555.91
533.844	51371.59
534.045	51783.23
534.246	50742.86
534.447	51639.87
534.648	50953.8
534.849	51947.07
535.05	51426.88
535.251	51908.16
535.451	51811.9
535.652	51764.8
535.853	51400.26
536.054	51719.74
536.255	51709.5
536.456	51748.42
536.657	52305.46
536.857	51547.71
537.058	51138.12
537.259	52174.39
537.46	51910.21
537.66	51314.25
537.861	51736.13
538.062	51695.17
538.263	52170.3
538.463	51557.95
538.664	51635.78
538.865	51627.59
539.065	51957.31
539.266	51680.83
539.466	52293.18
539.667	51363.4
539.868	52137.53
540.068	51699.26
540.269	51539.52
540.469	52008.51
540.67	51568.19
540.87	51566.15
541.071	51838.53
541.271	51660.35
541.472	51533.38
541.672	51316.29
541.873	51658.31
542.073	50927.18
542.274	51951.16
542.474	51379.78
542.675	51082.83
542.875	51922.49
543.075	51789.38
543.276	51013.19
543.476	51369.54
543.676	51088.97
543.877	51721.79
544.077	51519.04
544.277	51117.64
544.478	51592.77
544.678	51617.35
544.878	51402.31
545.078	51295.81
545.279	51136.07
545.479	51326.53
545.679	51666.5
545.879	51435.08
546.079	51035.72
546.28	51058.25
546.48	50755.15
546.68	51322.44
546.88	51564.1
547.08	51555.91
547.28	51115.59
547.48	51050.06
547.68	51205.7
547.88	51213.9
548.081	51404.36
548.281	51447.36
548.481	51072.59
548.681	51107.4
548.881	51844.67
549.081	51215.94
549.28	50953.8
549.48	51246.66
549.68	51394.12
549.88	51596.87
550.08	50955.85
550.28	51545.67
550.48	51234.38
550.68	51492.42
550.88	51125.83
551.08	51125.83
551.279	51295.81
551.479	51093.07
551.679	51093.07
551.879	51025.48
552.079	51394.12
552.278	51146.31
552.478	51076.68
552.678	50978.38
552.878	51250.76
553.077	51074.63
553.277	50312.79
553.477	51213.9
553.676	51140.17
553.876	50427.48
554.076	50888.27
554.275	50474.58
554.475	50368.08
554.674	50845.26
554.874	50816.59
555.074	50538.07
555.273	50785.87
555.473	51054.15
555.672	50849.36
555.872	50450
556.071	50826.83
556.271	51340.87
556.47	50435.67
556.67	50331.22
556.869	50206.3
557.068	50619.98
557.268	50503.25
557.467	50290.26
557.667	50507.35
557.866	50595.41
558.065	50566.74
558.265	50253.4
558.464	50021.98
558.663	50533.97
558.863	49974.87
559.062	51144.26
559.261	49706.59
559.461	50378.32
559.66	49452.64
559.859	49962.59
560.058	49649.25
560.258	50067.03
560.457	49780.32
560.656	50040.41
560.855	49657.44
561.054	50161.24
561.253	49694.3
561.453	49440.35
561.652	49929.82
561.851	49667.68
562.05	49843.8
562.249	49557.09
562.448	49806.94
562.647	49714.78
562.846	49116.78
563.045	49434.21
563.244	48815.72
563.443	49725.02
563.642	48813.68
563.841	48932.46
564.04	48660.08
564.239	49323.62
564.438	48727.66
564.637	48885.36
564.836	48772.72
565.035	48301.68
565.234	48944.75
565.432	48477.81
565.631	48017.02
565.83	48928.36
566.029	48324.21
566.228	48526.96
566.427	48250.49
566.625	47953.53
566.824	47566.46
567.023	48209.53
567.222	47658.62
567.42	48242.29
567.619	48084.6
567.818	47492.74
568.016	47572.61
568.215	48121.46
568.414	47842.94
568.612	48297.59
568.811	47470.21
569.01	47595.14
569.208	47062.66
569.407	47388.29
569.605	47173.25
569.804	47500.93
570.002	46921.35
570.201	47427.2
570.4	47132.29
570.598	46694.03
570.797	46655.12
570.995	46702.22
571.193	46233.24
571.392	46698.12
571.59	46315.15
571.789	46028.44
571.987	46304.91
572.186	45887.13
572.384	46083.73
572.582	46405.27
572.781	46243.48
572.979	45864.6
573.177	45711
573.376	46223
573.574	45633.18
573.772	45811.35
573.971	45567.65
574.169	45135.52
574.367	45213.35
574.565	45428.38
574.763	45051.56
574.962	45334.18
575.16	44594.86
575.358	45450.91
575.556	44373.68
575.754	45067.94
575.952	44648.11
576.151	45020.84
576.349	44275.38
576.547	44377.78
576.745	44666.54
576.943	44213.94
577.141	44203.7
577.339	44476.08
577.537	44140.21
577.735	43521.73
577.933	43935.41
578.131	43857.59
578.329	43734.71
578.527	43542.2
578.725	43200.19
578.923	43646.65
579.121	43431.61
579.319	43067.08
579.516	43404.99
579.714	43081.41
579.912	42909.38
580.11	43067.08
580.308	42878.66
580.506	42852.04
580.704	41856.73
580.901	42964.68
581.099	43040.45
581.297	42325.71
581.495	42483.41
581.692	42395.34
581.89	41991.89
582.088	42446.54
582.285	41881.3
582.483	42530.51
582.681	41838.29
582.878	41897.69
583.076	41049.83
583.274	42049.24
583.471	41420.51
583.669	40982.24
583.866	41203.42
584.064	41555.68
584.262	40984.29
584.459	41367.26
584.657	40957.67
584.854	41326.3
585.052	40531.69
585.249	41039.59
585.447	40824.55
585.644	40503.02
585.841	40408.81
586.039	40851.17
586.236	39925.49
586.434	40087.28
586.631	40015.6
586.828	40312.56
587.026	39902.96
587.223	39874.29
587.42	39907.06
587.618	39294.72
587.815	39335.68
588.012	39667.45
588.21	39268.09
588.407	39925.49
588.604	39239.42
588.801	39139.07
588.999	39016.19
589.196	38756.1
589.393	39001.86
589.59	38862.6
589.787	38471.43
589.984	38668.04
590.182	38518.54
590.379	38950.66
590.576	37809.94
590.773	38168.33
590.97	38029.07
591.167	38479.63
591.364	37398.3
591.561	37697.3
591.758	37555.99
591.955	37633.82
592.152	37930.77
592.349	37343
592.546	37877.52
592.743	37324.57
592.94	36536.1
593.137	37009.18
593.334	37111.58
593.531	36716.33
593.727	37031.71
593.924	36804.39
594.121	36443.95
594.318	36726.56
594.515	35739.44
594.712	36628.26
594.908	36050.74
595.105	36126.51
595.302	36099.89
595.499	36607.78
595.696	35575.61
595.892	35725.11
596.089	35755.83
596.286	35882.8
596.482	35157.82
596.679	35454.78
596.876	35460.92
597.072	34983.74
597.269	35184.44
597.466	34832.19
597.662	34635.59
597.859	34981.7
598.055	34926.4
598.252	34471.75
598.448	34481.99
598.645	34486.09
598.841	33781.59
599.038	34443.08
599.234	34651.97
599.431	33806.16
599.627	33503.06
599.824	34068.3
600.02	33595.22
600.217	33671
600.413	33587.03
600.609	33378.14
600.806	33165.15
601.002	33412.95
601.198	32913.25
601.395	33234.78
601.591	33167.2
601.787	32972.64
601.984	32880.48
602.18	32931.68
602.376	33118.04
602.572	32534.37
602.769	32440.17
602.965	32155.5
603.161	32198.51
603.357	31833.97
603.553	32087.92
603.75	32180.07
603.946	31778.67
604.142	32266.09
604.338	31717.23
604.534	31842.16
604.73	31793.01
604.926	31614.83
605.122	31326.07
605.318	31567.73
605.514	31719.28
605.71	31326.07
605.906	31156.09
606.102	31233.91
606.298	31483.76
606.494	30846.85
606.69	30801.79
606.886	30928.77
607.082	30578.56
607.278	30926.72
607.474	30775.17
607.67	30719.87
607.866	30203.78
608.062	30601.09
608.257	30508.93
608.453	30332.81
608.649	30338.95
608.845	30109.58
609.041	29990.8
609.236	30168.97
609.432	30441.35
609.628	29763.47
609.824	30041.99
610.019	29663.12
610.215	29802.38
610.411	29826.96
610.606	29882.25
610.802	29530
610.998	29869.97
611.193	29552.53
611.389	29540.24
611.584	29280.15
611.78	29075.35
611.976	29175.7
612.171	29157.27
612.367	29259.67
612.562	29171.61
612.758	28682.14
612.953	28899.23
613.149	29204.38
613.344	28710.82
613.539	29771.66
613.735	29212.57
613.93	29101.98
614.126	28747.68
614.321	28819.36
614.517	28733.34
614.712	29003.67
614.907	28624.8
615.103	28794.78
615.298	28499.87
615.493	28975
615.688	28465.06
615.884	29095.83
616.079	28041.13
616.274	28542.88
616.47	28276.65
616.665	28182.44
616.86	28200.87
617.055	27998.12
617.25	27994.03
617.445	28139.43
617.641	27506.61
617.836	27897.77
618.031	27985.83
618.226	27914.16
618.421	27463.6
618.616	27994.03
618.811	27492.27
619.006	28116.9
619.201	27154.36
619.396	27627.44
619.591	27107.26
619.786	27023.29
619.981	26798.01
620.176	27097.02
620.371	26902.46
620.566	26533.82
620.761	26640.32
620.956	26552.26
621.151	26212.29
621.346	26189.77
621.541	26144.71
621.735	26177.48
621.93	25657.29
622.125	25606.09
622.32	25778.12
622.515	25731.02
622.709	25403.35
622.904	25102.29
623.099	25210.84
623.294	25223.12
623.488	24805.34
623.683	25137.11
623.878	24434.66
624.072	24633.31
624.267	24440.8
624.462	24403.94
624.656	24072.17
624.851	24070.12
625.046	23937
625.24	23873.51
625.435	23400.43
625.629	23672.81
625.824	23306.23
626.018	23279.6
626.213	22947.83
626.407	23224.31
626.602	22906.87
626.796	22872.06
626.991	22849.53
627.185	22306.82
627.38	22401.02
627.574	22345.73
627.768	22173.7
627.963	22073.35
628.157	21858.31
628.352	21792.78
628.546	21612.56
628.74	21897.22
628.935	21702.67
629.129	21655.56
629.323	21370.9
629.517	21399.57
629.712	21106.71
629.906	21252.11
630.1	20852.76
630.294	20934.68
630.489	20617.24
630.683	20858.9
630.877	20443.17
631.071	20695.07
631.265	20553.76
631.459	20144.16
631.653	20019.24
631.848	20084.77
632.042	20000.8
632.236	20228.13
632.43	19714.09
632.624	19712.04
632.818	19408.94
633.012	19327.02
633.206	19554.35
633.4	19302.45
633.594	19064.88
633.788	19312.69
633.982	19249.2
634.176	19159.09
634.369	18737.21
634.563	18692.15
634.757	18446.4
634.951	18554.94
635.145	18647.1
635.339	18522.17
635.533	18149.44
635.726	18141.25
635.92	17901.64
636.114	18266.17
636.308	17727.56
636.501	17987.65
636.695	17936.45
636.889	17522.76
637.083	17422.41
637.276	17551.43
637.47	17166.42
637.664	17166.42
637.857	17336.4
638.051	17092.69
638.244	16793.69
638.438	16998.48
638.632	16879.7
638.825	17021.01
639.019	16760.92
639.212	16693.33
639.406	16451.67
639.599	16371.8
639.793	16377.95
639.986	16070.75
640.18	16361.56
640.373	16187.49
640.567	15816.8
640.76	15861.86
640.954	15581.29
641.147	15798.37
641.34	15714.41
641.534	15806.56
641.727	15755.36
641.92	15417.45
642.114	15390.83
642.307	15493.22
642.5	15556.71
642.694	14948.47
642.887	15280.24
643.08	15057.01
643.273	15016.05
643.467	15028.34
643.66	14854.26
643.853	14989.42
644.046	14321.79
644.239	14715
644.432	14542.97
644.626	14645.37
644.819	14366.84
645.012	14473.34
645.205	14370.94
645.398	14235.77
645.591	14014.59
645.784	13981.82
645.977	13668.48
646.17	13904
646.363	13715.59
646.556	13822.08
646.749	13635.72
646.942	13641.86
647.135	13459.59
647.328	13568.13
647.521	13273.23
647.714	13095.05
647.907	13176.97
648.099	13072.53
648.292	12966.03
648.485	13256.84
648.678	13131.92
648.871	12972.18
649.064	12781.71
649.256	12902.54
649.449	12646.55
649.642	12615.83
649.835	12681.36
650.027	12550.29
650.22	12382.36
650.413	12359.83
650.605	12314.78
650.798	12320.92
650.991	12167.32
651.183	12290.2
651.376	12105.88
651.568	11970.72
651.761	11708.58
651.954	11954.33
652.146	11770.02
652.339	11753.63
652.531	11737.25
652.724	11518.12
652.916	11360.42
653.109	11624.61
653.301	11638.95
653.494	11708.58
653.686	11303.08
653.879	11479.21
654.071	11294.89
654.263	11255.98
654.456	11014.32
654.648	11278.51
654.84	10965.17
655.033	10952.88
655.225	10993.84
655.417	10959.02
655.61	10930.35
655.802	10799.28
655.994	10756.27
656.186	10766.51
656.379	10619.06
656.571	10760.37
656.763	10545.33
656.955	10303.67
657.148	10533.04
657.34	10166.46
657.532	10311.86
657.724	10209.47
657.916	10287.29
658.108	10117.31
658.3	10043.58
658.492	10123.45
658.684	9965.76
658.876	9924.8
659.068	9834.69
659.26	9623.75
659.452	9640.13
659.644	9935.04
659.836	9785.54
660.028	9672.9
660.22	9648.32
660.412	9541.83
660.604	9552.07
660.796	9521.35
660.988	9459.91
661.18	9476.29
661.372	9230.54
661.563	9222.34
661.755	9251.02
661.947	9351.37
662.139	9193.67
662.331	9074.89
662.522	9115.85
662.714	8980.68
662.906	8820.94
663.097	8741.07
663.289	8769.74
663.481	8900.81
663.673	8659.15
663.864	8536.28
664.056	8546.51
664.247	8683.73
664.439	8499.41
664.631	8675.54
664.822	8513.75
665.014	8528.08
665.205	8468.69
665.397	8171.74
665.588	8290.52
665.78	8370.39
665.971	8397.01
666.163	8272.09
666.354	8329.43
666.546	8212.7
666.737	8071.39
666.929	7966.94
667.12	7979.23
667.311	7995.61
667.503	7821.53
667.694	7913.69
667.885	7698.66
668.077	7721.18
668.268	7649.5
668.459	7917.79
668.651	7702.75
668.842	7579.87
669.033	7635.17
669.224	7696.61
669.416	7698.66
669.607	7491.81
669.798	7536.87
669.989	7522.53
670.18	7407.84
670.371	7340.26
670.563	7422.18
670.754	7258.34
670.945	7051.5
671.136	7231.72
671.327	7381.22
671.518	7121.13
671.709	7074.03
671.9	7170.28
672.091	7254.25
672.282	7096.55
672.473	7031.02
672.664	6940.91
672.855	6875.37
673.046	7125.22
673.237	6910.19
673.428	6887.66
673.619	6945
673.809	6811.89
674	6676.72
674.191	6768.88
674.382	6672.62
674.573	6717.68
674.764	6635.76
674.954	6666.48
675.145	6494.45
675.336	6701.3
675.527	6682.86
675.717	6627.57
675.908	6529.27
676.099	6578.42
676.289	6420.72
676.48	6578.42
676.671	6408.44
676.861	6541.55
677.052	6316.28
677.243	6297.85
677.433	6209.78
677.624	6424.82
677.814	6179.06
678.005	6078.71
678.195	6078.71
678.386	6367.48
678.576	6250.74
678.767	6164.73
678.957	6119.67
679.148	6152.44
679.338	6164.73
679.529	6136.06
679.719	6103.29
679.909	6117.62
680.1	5982.46
680.29	5935.35
680.481	5898.49
680.671	5908.73
680.861	5939.45
681.052	6017.27
681.242	5894.4
681.432	5871.87
681.622	5822.72
681.813	5738.75
682.003	5705.98
682.193	5818.62
682.383	5761.28
682.573	5771.52
682.764	5599.49
682.954	5593.34
683.144	5648.64
683.334	5732.61
683.524	5665.02
683.714	5566.72
683.904	5558.53
684.094	5689.6
684.284	5525.76
684.474	5583.1
684.664	5527.81
684.854	5439.75
685.044	5591.3
685.234	5497.09
685.424	5404.93
685.614	5443.84
685.804	5345.54
685.994	5460.23
686.184	5374.21
686.374	5363.97
686.564	5216.52
686.753	5386.5
686.943	5122.31
687.133	5089.54
687.323	5112.07
687.513	5247.24
687.702	5148.93
687.892	5198.09
688.082	5134.6
688.272	5134.6
688.461	4966.67
688.651	5085.45
688.841	4964.62
689.03	5017.86
689.22	4894.99
689.41	4886.79
689.599	4798.73
689.789	4907.27
689.979	4870.41
690.168	4761.87
690.358	4677.9
690.547	4714.77
690.737	4765.96
690.926	4768.01
691.116	4610.32
691.305	4978.95
691.495	4720.91
691.684	4669.71
691.874	4616.46
692.063	4636.94
692.252	4526.35
692.442	4495.63
692.631	4483.34
692.82	4442.39
693.01	4331.8
693.199	4417.81
693.388	4452.63
693.578	4360.47
693.767	4423.95
693.956	4321.56
694.146	4348.18
694.335	4360.47
694.524	4290.84
694.713	4282.64
694.902	4098.33
695.092	4307.22
695.281	4178.2
695.47	4251.92
695.659	4151.57
695.848	4225.3
696.037	4172.05
696.226	4184.34
696.415	4188.44
696.604	4186.39
696.793	4034.84
696.982	4075.8
697.171	4116.76
697.36	4038.94
697.549	4024.6
697.738	3967.26
697.927	3979.54
698.116	4053.27
698.305	4016.41
698.494	4020.5
698.683	3911.96
698.872	3889.43
699.061	3834.14
699.25	3881.24
699.438	3821.85
699.627	3817.76
699.816	4004.12
700.005	3678.49
700.193	3799.32
700.382	3932.44
700.571	3789.08
700.76	3701.02
700.948	3873.05
701.137	3787.04
701.326	3797.28
701.514	3803.42
701.703	3709.21
701.892	3729.69
702.08	3696.92
702.269	3752.22
702.457	3674.4
702.646	3633.44
702.834	3561.76
703.023	3670.3
703.212	3797.28
703.4	3612.96
703.589	3498.27
703.777	3705.12
703.965	3498.27
704.154	3592.48
704.342	3563.81
704.531	3598.62
704.719	3569.95
704.907	3617.05
705.096	3569.95
705.284	3612.96
705.472	3594.53
705.661	3582.24
705.849	3586.33
706.037	3604.77
706.226	3399.97
706.414	3322.15
706.602	3551.52
706.79	3461.41
706.979	3584.29
707.167	3383.59
707.355	3582.24
707.543	3518.75
707.731	3561.76
707.919	3576.09
708.107	3422.5
708.296	3447.07
708.484	3477.79
708.672	3350.82
708.86	3514.66
709.048	3502.37
709.236	3496.22
709.424	3496.22
709.612	3467.55
709.8	3395.87
709.988	3350.82
710.176	3569.95
710.364	3508.51
710.551	3322.15
710.739	3352.87
710.927	3356.96
711.115	3414.31
711.303	3344.67
711.491	3391.78
711.679	3277.09
711.866	3297.57
712.054	3277.09
712.242	3248.42
712.43	3428.64
712.617	3377.44
712.805	3262.76
712.993	3377.44
713.181	3242.28
713.368	3453.22
713.556	3375.39
713.744	3238.18
713.931	3365.15
714.119	3395.87
714.306	3285.28
714.494	3318.05
714.682	3201.32
714.869	3094.82
715.057	3369.25
715.244	3215.65
715.432	3313.95
715.619	3273
715.807	3273
715.994	3285.28
716.182	3363.11
716.369	3217.7
716.556	3256.61
716.744	3170.6
716.931	3242.28
717.119	3160.36
717.306	3227.94
717.493	3283.24
717.681	3180.84
717.868	3232.04
718.055	3211.56
718.242	3221.8
718.43	3258.66
718.617	3076.39
718.804	3182.88
718.991	3156.26
719.179	3320.1
719.366	3186.98
719.553	3180.84
719.74	3060.01
719.927	3117.35
720.114	3176.74
720.301	3123.49
720.488	3105.06
720.676	3133.73
720.863	3025.19
721.05	3053.86
721.237	3041.57
721.424	3164.45
721.611	3172.64
721.798	3146.02
721.985	2994.47
722.172	2986.28
722.358	3088.68
722.545	3168.55
722.732	2982.18
722.919	3135.78
723.106	3121.45
723.293	3049.77
723.48	3027.24
723.667	3066.15
723.853	2926.89
724.04	3031.34
724.227	3019.05
724.414	3117.35
724.6	2894.12
724.787	3035.43
724.974	3092.77
725.161	3002.66
725.347	3017
725.534	3055.91
725.72	2849.07
725.907	2914.6
726.094	2939.18
726.28	2869.55
726.467	2801.96
726.653	2973.99
726.84	2988.33
727.027	3076.39
727.213	2896.17
727.4	2881.83
727.586	3088.68
727.773	2861.35
727.959	2963.75
728.145	3006.76
728.332	3090.73
728.518	2926.89
728.705	3078.44
728.891	2928.94
729.077	2892.07
729.264	2873.64
729.45	2914.6
729.636	2906.41
729.823	2904.36
730.009	2900.27
730.195	2949.42
730.382	3019.05
730.568	2867.5
730.754	2873.64
730.94	2949.42
731.126	2847.02
731.313	3033.38
731.499	2885.93
731.685	2916.65
731.871	2933.03
732.057	2849.07
732.243	2896.17
732.429	2820.39
732.615	2949.42
732.801	2746.67
732.987	2709.8
733.173	2992.42
733.359	2869.55
733.545	2681.13
733.731	2724.14
733.917	2771.24
734.103	2900.27
734.289	2844.97
734.475	2783.53
734.661	2869.55
734.847	2830.63
735.033	2777.39
735.219	2724.14
735.404	2875.69
735.59	2693.42
735.776	2795.82
735.962	2785.58
736.148	2804.01
736.333	2777.39
736.519	2713.9
736.705	2701.61
736.89	2840.87
737.076	2887.98
737.262	2793.77
737.447	2689.32
737.633	2718
737.819	2836.78
738.004	2705.71
738.19	2826.54
738.375	2689.32
738.561	2787.63
738.747	2595.12
738.932	2740.52
739.118	2736.43
739.303	2699.56
739.489	2668.84
739.674	2605.36
739.859	2652.46
740.045	2631.98
740.23	2629.93
740.416	2609.45
740.601	2666.8
740.786	2545.97
740.972	2617.65
741.157	2691.37
741.342	2611.5
741.528	2560.3
741.713	2591.02
741.898	2570.54
742.084	2441.52
742.269	2470.19
742.454	2441.52
742.639	2666.8
742.824	2511.15
743.01	2543.92
743.195	2459.95
743.38	2523.44
743.565	2472.24
743.75	2529.58
743.935	2443.57
744.12	2408.75
744.305	2341.17
744.49	2484.53
744.675	2382.13
744.86	2390.32
745.045	2427.18
745.23	2441.52
745.415	2431.28
745.6	2287.92
745.785	2263.35
745.97	2310.45
746.155	2326.83
746.34	2224.44
746.525	2330.93
746.71	2310.45
746.895	2251.06
747.079	2234.68
747.264	2285.87
747.449	2253.11
747.634	2199.86
747.819	2183.48
748.003	2257.2
748.188	2148.66
748.373	2058.55
748.557	2171.19
748.742	2199.86
748.927	2154.8
749.111	2152.76
749.296	2083.13
749.481	2103.61
749.665	2124.08
749.85	2083.13
750.034	2214.2
750.219	1929.53
750.404	1993.01
750.588	2081.08
750.773	2023.73
750.957	1923.38
751.141	2015.54
751.326	1892.66
751.51	2001.21
751.695	1771.83
751.879	2009.4
752.064	1923.38
752.248	2001.21
752.432	1947.96
752.617	1892.66
752.801	1777.98
752.985	1886.52
753.17	1765.69
753.354	1925.43
753.538	1890.62
753.722	1734.97
753.907	1831.23
754.091	1724.73
754.275	1825.08
754.459	1790.27
754.643	1669.44
754.828	1667.39
755.012	1739.07
755.196	1665.34
755.38	1751.35
755.564	1691.96
755.748	1616.19
755.932	1706.3
756.116	1710.4
756.3	1677.63
756.484	1546.56
756.668	1612.09
756.852	1564.99
757.036	1628.48
757.22	1642.81
757.404	1589.57
757.588	1644.86
757.772	1591.61
757.956	1564.99
758.14	1605.95
758.323	1548.61
758.507	1481.02
758.691	1415.49
758.875	1476.93
759.059	1487.17
759.242	1425.73
759.426	1452.35
759.61	1511.74
759.794	1538.37
759.977	1358.14
760.161	1435.97
760.345	1474.88
760.528	1454.4
760.712	1386.82
760.895	1499.45
761.079	1358.14
761.263	1202.5
761.446	1374.53
761.63	1333.57
761.813	1411.39
761.997	1423.68
762.18	1374.53
762.364	1288.51
762.547	1306.95
762.731	1354.05
762.914	1341.76
763.098	1202.5
763.281	1325.38
763.464	1286.47
763.648	1286.47
763.831	1276.23
764.015	1204.55
764.198	1268.03
764.381	1261.89
764.564	1249.6
764.748	1214.79
764.931	1225.03
765.114	1225.03
765.297	1233.22
765.481	1184.07
765.664	1212.74
765.847	1124.68
766.03	1204.55
766.213	1261.89
766.397	1198.4
766.58	1122.63
766.763	1200.45
766.946	1237.31
767.129	1145.16
767.312	1171.78
767.495	1161.54
767.678	1171.78
767.861	1204.55
768.044	1050.95
768.227	1116.48
768.41	1151.3
768.593	1149.25
768.776	1038.66
768.959	1106.24
769.142	1216.83
769.324	1073.48
769.507	1096
769.69	1102.15
769.873	1069.38
770.056	1053
770.239	997.7
770.421	1065.29
770.604	1044.81
770.787	997.7
770.97	1069.38
771.152	934.22
771.335	1046.85
771.518	1046.85
771.7	1048.9
771.883	1038.66
772.066	995.65
772.248	991.56
772.431	1079.62
772.613	1030.47
772.796	1104.2
772.978	1044.81
773.161	962.89
773.343	989.51
773.526	936.26
773.708	928.07
773.891	874.82
774.073	880.97
774.256	928.07
774.438	926.02
774.621	885.06
774.803	1055.05
774.985	907.59
775.168	942.41
775.35	817.48
775.532	887.11
775.715	919.88
775.897	936.26
776.079	893.26
776.261	887.11
776.444	899.4
776.626	878.92
776.808	751.95
776.99	727.37
777.173	903.5
777.355	831.82
777.537	803.15
777.719	776.52
777.901	813.38
778.083	743.75
778.265	799.05
778.447	905.54
778.629	846.15
778.811	799.05
778.993	776.52
779.175	774.47
779.357	803.15
779.539	706.89
779.721	753.99
779.903	782.67
780.085	762.19
780.267	753.99
780.449	809.29
780.631	713.03
780.812	807.24
780.994	770.38
781.176	686.41
781.358	684.36
781.54	596.3
781.721	704.84
781.903	792.91
782.085	708.94
782.267	588.11
782.448	616.78
782.63	717.13
782.812	690.51
782.993	667.98
783.175	606.54
783.357	602.44
783.538	672.08
783.72	592.2
783.901	624.97
784.083	584.01
784.264	567.63
784.446	530.77
784.627	594.25
784.809	622.92
784.99	588.11
785.172	616.78
785.353	530.77
785.535	594.25
785.716	536.91
785.897	639.31
786.079	659.79
786.26	579.92
786.441	547.15
786.623	510.29
786.804	522.57
786.985	553.29
787.167	475.47
787.348	545.1
787.529	541.01
787.71	514.38
787.891	489.81
788.073	526.67
788.254	459.09
788.435	506.19
788.616	510.29
788.797	534.86
788.978	530.77
789.159	465.23
789.34	416.08
789.522	508.24
789.703	397.65
789.884	504.14
790.065	485.71
790.246	473.42
790.427	487.76
790.607	430.41
790.788	547.15
790.969	362.83
791.15	452.94
791.331	430.41
791.512	409.94
791.693	432.46
791.874	450.89
792.054	469.33
792.235	479.57
792.416	358.74
792.597	420.17
792.778	397.65
792.958	450.89
793.139	389.46
793.32	401.74
793.5	399.7
793.681	336.21
793.862	397.65
794.042	411.98
794.223	350.54
794.404	358.74
794.584	409.94
794.765	342.35
794.945	401.74
795.126	319.82
795.306	444.75
795.487	368.98
795.667	319.82
795.848	481.61
796.028	348.5
796.209	403.79
796.389	411.98
796.57	360.78
796.75	264.53
796.93	411.98
797.111	315.73
797.291	354.64
797.471	303.44
797.652	371.02
797.832	293.2
798.012	364.88
798.192	297.3
798.373	350.54
798.553	426.32
798.733	346.45
798.913	340.3
799.093	317.78
799.274	299.34
799.454	373.07
799.634	336.21
799.814	342.35
799.994	350.54
800.174	270.67
800.354	313.68
800.534	307.54
800.714	293.2
800.894	323.92
801.074	295.25
801.254	254.29
801.434	336.21
801.614	313.68
801.794	242
801.974	692.55
802.154	295.25
802.334	362.83
802.514	205.14
802.693	266.58
802.873	278.87
803.053	254.29
803.233	299.34
803.413	244.05
803.592	266.58
803.772	182.61
803.952	278.87
804.131	244.05
804.311	313.68
804.491	262.48
804.67	264.53
804.85	213.33
805.03	231.76
805.209	278.87
805.389	248.15
805.568	246.1
805.748	233.81
805.928	315.73
806.107	209.23
806.287	287.06
806.466	225.62
806.646	209.23
806.825	170.32
807.004	244.05
807.184	225.62
807.363	285.01
807.543	225.62
807.722	215.38
807.901	190.8
808.081	260.43
808.26	215.38
808.439	229.71
808.619	229.71
808.798	239.95
808.977	242
809.156	196.95
809.336	205.14
809.515	246.1
809.694	266.58
809.873	215.38
810.052	293.2
810.231	295.25
810.411	178.51
810.59	170.32
810.769	135.51
810.948	194.9
811.127	215.38
811.306	211.28
811.485	242
811.664	215.38
811.843	119.12
812.022	180.56
812.201	252.24
812.38	176.47
812.559	125.27
812.737	198.99
812.916	184.66
813.095	168.27
813.274	168.27
813.453	129.36
813.632	196.95
813.811	229.71
813.989	188.75
814.168	145.75
814.347	127.32
814.526	254.29
814.704	217.43
814.883	237.91
815.062	112.98
815.24	196.95
815.419	184.66
815.598	213.33
815.776	151.89
815.955	205.14
816.133	121.17
816.312	108.88
816.49	231.76
816.669	158.03
816.847	194.9
817.026	194.9
817.204	108.88
817.383	209.23
817.561	151.89
817.74	285.01
817.918	188.75
818.097	176.47
818.275	133.46
818.453	180.56
818.632	201.04
818.81	137.56
818.988	145.75
819.167	137.56
819.345	164.18
819.523	170.32
819.701	92.5
819.879	186.71
820.058	110.93
820.236	166.23
820.414	160.08
820.592	149.84
820.77	121.17
820.948	82.26
821.127	221.52
821.305	194.9
821.483	219.47
821.661	203.09
821.839	110.93
822.017	153.94
822.195	102.74
822.373	119.12
822.551	139.6
822.729	155.99
822.907	168.27
823.085	131.41
823.262	90.45
823.44	139.6
823.618	127.32
823.796	155.99
823.974	102.74
824.152	127.32
824.329	123.22
824.507	164.18
824.685	92.5
824.863	96.6
825.04	110.93
825.218	115.03
825.396	117.08
825.574	121.17
825.751	180.56
825.929	123.22
826.107	29.01
826.284	153.94
826.462	115.03
826.639	88.4
826.817	127.32
826.994	158.03
827.172	76.12
827.349	147.8
827.527	129.36
827.704	180.56
827.882	153.94
828.059	139.6
828.237	96.6
828.414	121.17
828.591	31.06
828.769	108.88
828.946	160.08
829.124	143.7
829.301	137.56
829.478	108.88
829.655	65.88
829.833	147.8
830.01	82.26
830.187	102.74
830.364	65.88
830.542	94.55
830.719	33.11
830.896	115.03
831.073	153.94
831.25	80.21
831.427	108.88
831.604	90.45
831.782	125.27
831.959	82.26
832.136	78.16
832.313	47.44
832.49	121.17
832.667	129.36
832.844	112.98
833.021	115.03
833.198	104.79
833.374	74.07
833.551	92.5
833.728	90.45
833.905	164.18
834.082	41.3
834.259	63.83
834.436	61.78
834.612	135.51
834.789	178.51
834.966	-11.95
835.143	33.11
835.319	90.45
835.496	153.94
835.673	160.08
835.85	92.5
836.026	104.79
836.203	104.79
836.38	82.26
836.556	20.82
836.733	55.64
836.909	145.75
837.086	72.02
837.262	49.49
837.439	63.83
837.616	106.84
837.792	67.92
837.968	106.84
838.145	31.06
838.321	125.27
838.498	112.98
838.674	90.45
838.851	119.12
839.027	26.96
839.203	117.08
839.38	53.59
839.556	31.06
839.732	151.89
839.909	84.31
840.085	129.36
840.261	94.55
840.437	76.12
840.614	33.11
840.79	22.87
840.966	14.68
841.142	110.93
841.318	88.4
841.494	72.02
841.671	133.46
841.847	65.88
842.023	10.58
842.199	14.68
842.375	178.51
842.551	82.26
842.727	45.4
842.903	69.97
843.079	29.01
843.255	96.6
843.431	-7.85
843.607	59.73
843.783	72.02
843.959	82.26
844.134	33.11
844.31	145.75
844.486	12.63
844.662	26.96
844.838	69.97
845.013	125.27
845.189	84.31
845.365	92.5
845.541	67.92
845.716	41.3
845.892	67.92
846.068	117.08
846.244	57.68
846.419	12.63
846.595	37.2
846.77	55.64
846.946	20.82
847.122	133.46
847.297	-18.09
847.473	139.6
847.648	-13.99
847.824	67.92
847.999	-28.33
848.175	63.83
848.35	18.77
848.526	33.11
848.701	49.49
848.876	80.21
849.052	63.83
849.227	49.49
849.403	14.68
849.578	59.73
849.753	74.07
849.929	49.49
850.104	74.07
850.279	49.49
850.454	14.68
850.63	22.87
850.805	14.68
850.98	-44.71
851.155	33.11
851.33	41.3
851.505	-11.95
851.681	102.74
851.856	94.55
852.031	80.21
852.206	16.73
852.381	59.73
852.556	8.53
852.731	55.64
852.906	90.45
853.081	61.78
853.256	98.64
853.431	65.88
853.606	18.77
853.781	65.88
853.956	29.01
854.131	33.11
854.305	-83.63
854.48	43.35
854.655	74.07
854.83	74.07
855.005	92.5
855.18	-32.43
855.354	49.49
855.529	20.82
855.704	-5.8
855.879	57.68
856.053	-5.8
856.228	76.12
856.403	-16.04
856.577	43.35
856.752	24.92
856.926	72.02
857.101	61.78
857.276	31.06
857.45	67.92
857.625	76.12
857.799	57.68
857.974	45.4
858.148	31.06
858.323	16.73
858.497	51.54
858.672	24.92
858.846	-9.9
859.02	76.12
859.195	-61.1
859.369	47.44
859.543	-13.99
859.718	26.96
859.892	10.58
860.066	63.83
860.241	18.77
860.415	33.11
860.589	20.82
860.763	69.97
860.938	82.26
861.112	31.06
861.286	-11.95
861.46	22.87
861.634	24.92
861.808	-20.14
861.982	47.44
862.157	-9.9
862.331	-52.91
862.505	16.73
862.679	-11.95
862.853	45.4
863.027	8.53
863.201	-9.9
863.375	-57
863.549	92.5
863.722	57.68
863.896	72.02
864.07	-18.09
864.244	29.01
864.418	61.78
864.592	78.16
864.766	-7.85
864.939	43.35
865.113	-54.95
865.287	74.07
865.461	31.06
865.634	72.02
865.808	8.53
865.982	43.35
866.156	-18.09
866.329	20.82
866.503	14.68
866.676	61.78
866.85	18.77
867.024	-22.19
867.197	51.54
867.371	37.2
867.544	16.73
867.718	-18.09
867.891	86.36
868.065	-3.75
868.238	-32.43
868.412	76.12
868.585	-40.62
868.759	8.53
868.932	8.53
869.105	29.01
869.279	-24.23
869.452	51.54
869.625	29.01
869.799	16.73
869.972	43.35
870.145	-40.62
870.319	72.02
870.492	-9.9
870.665	20.82
870.838	41.3
871.011	16.73
871.185	14.68
871.358	72.02
871.531	31.06
871.704	-52.91
871.877	-1.71
872.05	22.87
872.223	37.2
872.396	-1.71
872.569	94.55
872.742	-16.04
872.915	12.63
873.088	6.49
873.261	18.77
873.434	74.07
873.607	22.87
873.78	33.11
873.953	-1.71
874.126	45.4
874.299	80.21
874.471	20.82
874.644	18.77
874.817	98.64
874.99	35.16
875.163	-5.8
875.335	55.64
875.508	-83.63
875.681	45.4
875.853	-13.99
876.026	61.78
876.199	55.64
876.371	-36.52
876.544	84.31
876.717	84.31
876.889	47.44
877.062	125.27
877.234	24.92
877.407	35.16
877.579	-3.75
877.752	-75.43
877.924	43.35
878.097	69.97
878.269	-28.33
878.442	-40.62
878.614	20.82
878.786	12.63
878.959	35.16
879.131	26.96
879.303	-54.95
879.476	33.11
879.648	-16.04
879.82	0.34
879.993	78.16
880.165	-30.38
880.337	-34.47
880.509	29.01
880.681	2.39
880.854	4.44
881.026	74.07
881.198	33.11
881.37	-7.85
881.542	57.68
881.714	24.92
881.886	127.32
882.058	22.87
882.23	-34.47
882.402	45.4
882.574	24.92
882.746	-3.75
882.918	69.97
883.09	16.73
883.262	-52.91
883.434	-63.15
883.606	22.87
883.778	100.69
883.95	127.32
884.122	-24.23
884.293	49.49
884.465	8.53
884.637	29.01
884.809	26.96
884.98	-26.28
885.152	-46.76
885.324	-18.09
885.496	-24.23
885.667	-1.71
885.839	14.68
886.011	41.3
886.182	12.63
886.354	0.34
886.525	4.44
886.697	43.35
886.869	-46.76
887.04	22.87
887.212	2.39
887.383	49.49
887.555	74.07
887.726	-11.95
887.897	16.73
888.069	2.39
888.24	59.73
888.412	-40.62
888.583	-22.19
888.754	63.83
888.926	-32.43
889.097	8.53
889.268	59.73
889.44	14.68
889.611	-7.85
889.782	12.63
889.953	24.92
890.125	-75.43
890.296	-24.23
890.467	-26.28
890.638	-77.48
890.809	88.4
890.98	-9.9
891.151	12.63
891.323	31.06
891.494	33.11
891.665	-40.62
891.836	8.53
892.007	45.4
892.178	-42.67
892.349	-61.1
892.52	-22.19
892.691	59.73
892.862	10.58
893.032	35.16
893.203	6.49
893.374	47.44
893.545	22.87
893.716	-52.91
893.887	26.96
894.057	18.77
894.228	-59.05
894.399	43.35
894.57	45.4
894.74	-36.52
894.911	41.3
895.082	-24.23
895.253	26.96
895.423	-3.75
895.594	72.02
895.764	55.64
895.935	-71.34
896.106	67.92
896.276	-9.9
896.447	18.77
896.617	16.73
896.788	-75.43
896.958	49.49
897.129	-63.15
897.299	-71.34
897.47	12.63
897.64	-30.38
897.81	-120.49
897.981	92.5
898.151	-73.39
898.322	37.2
898.492	-16.04
898.662	53.59
898.832	-13.99
899.003	-69.29
899.173	-67.24
899.343	18.77
899.513	-28.33
