Data from USB4F104151__35__12-27-18-394.txt Node

Date: Fri Mar 14 12:27:18 EDT 2025
User: louis
Spectrometer: USB4F10415
Trigger mode: 4
Integration Time (sec): 2.000000E-2
Scans to average: 1
Electric dark correction enabled: true
Nonlinearity correction enabled: false
Boxcar width: 0
XAxis mode: Wavelengths
Number of Pixels in Spectrum: 3648
>>>>>Begin Spectral Data<<<<<
178.204	-122.54
178.424	-122.54
178.644	-122.54
178.864	-87.72
179.084	-149.16
179.304	-13.99
179.524	-7.85
179.744	-59.05
179.964	16.73
180.184	-16.04
180.404	6.49
180.624	10.58
180.844	51.54
181.064	-57
181.283	-3.75
181.503	-13.99
181.723	86.36
181.943	-65.19
182.163	-9.9
182.383	8.53
182.602	2.39
182.822	82.26
183.042	65.88
183.262	-18.09
183.482	59.73
183.701	82.26
183.921	33.11
184.141	-9.9
184.361	84.31
184.58	51.54
184.8	-7.85
185.02	-38.57
185.239	55.64
185.459	78.16
185.679	49.49
185.898	4.44
186.118	14.68
186.338	57.68
186.557	-28.33
186.777	14.68
186.997	8.53
187.216	-18.09
187.436	112.98
187.655	-69.29
187.875	-24.23
188.095	22.87
188.314	2.39
188.534	57.68
188.753	16.73
188.973	20.82
189.192	20.82
189.412	-16.04
189.631	53.59
189.851	33.11
190.07	35.16
190.29	-3.75
190.509	-9.9
190.729	16.73
190.948	80.21
191.168	43.35
191.387	18.77
191.607	98.64
191.826	-13.99
192.045	-5.8
192.265	61.78
192.484	-65.19
192.704	-16.04
192.923	55.64
193.142	24.92
193.362	57.68
193.581	119.12
193.8	57.68
194.02	0.34
194.239	53.59
194.458	35.16
194.678	-5.8
194.897	-1.71
195.116	63.83
195.335	-1.71
195.555	2.39
195.774	18.77
195.993	69.97
196.212	57.68
196.432	22.87
196.651	33.11
196.87	16.73
197.089	74.07
197.308	-30.38
197.528	16.73
197.747	-3.75
197.966	65.88
198.185	53.59
198.404	51.54
198.623	82.26
198.842	43.35
199.062	108.88
199.281	-9.9
199.5	-36.52
199.719	35.16
199.938	24.92
200.157	55.64
200.376	-13.99
200.595	4.44
200.814	96.6
201.033	-3.75
201.252	72.02
201.471	0.34
201.69	-32.43
201.909	63.83
202.128	31.06
202.347	37.2
202.566	-48.81
202.785	45.4
203.004	-11.95
203.223	63.83
203.442	6.49
203.661	-52.91
203.879	16.73
204.098	63.83
204.317	-42.67
204.536	86.36
204.755	-11.95
204.974	22.87
205.193	41.3
205.411	22.87
205.63	59.73
205.849	98.64
206.068	24.92
206.287	35.16
206.505	65.88
206.724	59.73
206.943	-5.8
207.162	-28.33
207.381	20.82
207.599	33.11
207.818	-1.71
208.037	10.58
208.255	2.39
208.474	22.87
208.693	10.58
208.911	6.49
209.13	-3.75
209.349	78.16
209.567	-7.85
209.786	26.96
210.005	10.58
210.223	102.74
210.442	12.63
210.661	12.63
210.879	18.77
211.098	39.25
211.316	43.35
211.535	45.4
211.753	-16.04
211.972	86.36
212.191	20.82
212.409	65.88
212.628	35.16
212.846	-1.71
213.065	67.92
213.283	12.63
213.502	-18.09
213.72	29.01
213.938	35.16
214.157	92.5
214.375	35.16
214.594	67.92
214.812	35.16
215.031	37.2
215.249	80.21
215.467	0.34
215.686	67.92
215.904	49.49
216.122	-5.8
216.341	131.41
216.559	26.96
216.778	94.55
216.996	69.97
217.214	18.77
217.432	18.77
217.651	29.01
217.869	43.35
218.087	31.06
218.306	41.3
218.524	76.12
218.742	-7.85
218.96	63.83
219.179	26.96
219.397	6.49
219.615	98.64
219.833	74.07
220.051	-52.91
220.27	20.82
220.488	18.77
220.706	37.2
220.924	8.53
221.142	10.58
221.36	6.49
221.578	-22.19
221.796	29.01
222.015	18.77
222.233	-5.8
222.451	41.3
222.669	104.79
222.887	49.49
223.105	20.82
223.323	-11.95
223.541	-9.9
223.759	-20.14
223.977	12.63
224.195	78.16
224.413	-1.71
224.631	86.36
224.849	-1.71
225.067	88.4
225.285	-1.71
225.503	6.49
225.721	-30.38
225.939	31.06
226.157	59.73
226.375	-5.8
226.592	35.16
226.81	-28.33
227.028	-18.09
227.246	45.4
227.464	12.63
227.682	10.58
227.9	26.96
228.117	45.4
228.335	-42.67
228.553	53.59
228.771	29.01
228.989	55.64
229.206	45.4
229.424	8.53
229.642	29.01
229.86	-3.75
230.077	-22.19
230.295	-1.71
230.513	14.68
230.731	8.53
230.948	-7.85
231.166	106.84
231.384	57.68
231.601	-57
231.819	82.26
232.037	-20.14
232.254	-18.09
232.472	22.87
232.689	37.2
232.907	47.44
233.125	35.16
233.342	84.31
233.56	61.78
233.777	55.64
233.995	12.63
234.213	45.4
234.43	65.88
234.648	22.87
234.865	49.49
235.083	24.92
235.3	47.44
235.518	39.25
235.735	41.3
235.953	37.2
236.17	20.82
236.388	29.01
236.605	43.35
236.822	16.73
237.04	18.77
237.257	49.49
237.475	-44.71
237.692	20.82
237.909	-30.38
238.127	18.77
238.344	24.92
238.562	49.49
238.779	-36.52
238.996	57.68
239.214	-11.95
239.431	49.49
239.648	-1.71
239.865	59.73
240.083	41.3
240.3	74.07
240.517	-40.62
240.735	20.82
240.952	2.39
241.169	143.7
241.386	18.77
241.603	-9.9
241.821	-20.14
242.038	26.96
242.255	108.88
242.472	72.02
242.689	-16.04
242.907	86.36
243.124	57.68
243.341	8.53
243.558	29.01
243.775	24.92
243.992	35.16
244.209	102.74
244.426	76.12
244.643	12.63
244.86	0.34
245.078	63.83
245.295	94.55
245.512	12.63
245.729	4.44
245.946	53.59
246.163	10.58
246.38	43.35
246.597	43.35
246.814	63.83
247.031	4.44
247.248	47.44
247.464	39.25
247.681	51.54
247.898	117.08
248.115	51.54
248.332	55.64
248.549	43.35
248.766	51.54
248.983	65.88
249.2	35.16
249.417	-5.8
249.633	-24.23
249.85	12.63
250.067	65.88
250.284	-7.85
250.501	96.6
250.717	-7.85
250.934	-7.85
251.151	-5.8
251.368	35.16
251.585	86.36
251.801	78.16
252.018	2.39
252.235	108.88
252.451	45.4
252.668	18.77
252.885	-7.85
253.102	37.2
253.318	41.3
253.535	53.59
253.752	10.58
253.968	-20.14
254.185	8.53
254.401	-20.14
254.618	59.73
254.835	31.06
255.051	49.49
255.268	35.16
255.484	35.16
255.701	55.64
255.917	16.73
256.134	-79.53
256.351	67.92
256.567	12.63
256.784	24.92
257	18.77
257.217	88.4
257.433	10.58
257.65	26.96
257.866	88.4
258.082	6.49
258.299	-9.9
258.515	20.82
258.732	-11.95
258.948	-30.38
259.165	-1.71
259.381	47.44
259.597	18.77
259.814	4.44
260.03	61.78
260.246	33.11
260.463	55.64
260.679	37.2
260.895	72.02
261.112	80.21
261.328	-1.71
261.544	-11.95
261.761	90.45
261.977	0.34
262.193	65.88
262.409	100.69
262.626	57.68
262.842	29.01
263.058	-9.9
263.274	18.77
263.49	82.26
263.707	0.34
263.923	8.53
264.139	72.02
264.355	61.78
264.571	55.64
264.787	53.59
265.004	20.82
265.22	10.58
265.436	-9.9
265.652	29.01
265.868	72.02
266.084	-28.33
266.3	-5.8
266.516	41.3
266.732	20.82
266.948	74.07
267.164	8.53
267.38	35.16
267.596	65.88
267.812	26.96
268.028	-16.04
268.244	0.34
268.46	6.49
268.676	37.2
268.892	29.01
269.108	-18.09
269.324	-13.99
269.54	8.53
269.756	18.77
269.972	10.58
270.188	31.06
270.403	-38.57
270.619	100.69
270.835	22.87
271.051	55.64
271.267	20.82
271.483	84.31
271.698	31.06
271.914	82.26
272.13	-1.71
272.346	2.39
272.562	63.83
272.777	72.02
272.993	20.82
273.209	39.25
273.425	78.16
273.64	-5.8
273.856	33.11
274.072	72.02
274.287	-9.9
274.503	45.4
274.719	24.92
274.934	-36.52
275.15	12.63
275.366	-5.8
275.581	-20.14
275.797	86.36
276.012	-9.9
276.228	-18.09
276.444	-24.23
276.659	-26.28
276.875	-32.43
277.09	33.11
277.306	24.92
277.521	20.82
277.737	41.3
277.952	63.83
278.168	35.16
278.383	65.88
278.599	76.12
278.814	84.31
279.03	10.58
279.245	10.58
279.461	121.17
279.676	102.74
279.892	-30.38
280.107	4.44
280.322	-1.71
280.538	92.5
280.753	2.39
280.969	26.96
281.184	-3.75
281.399	88.4
281.615	45.4
281.83	39.25
282.045	-9.9
282.26	80.21
282.476	55.64
282.691	74.07
282.906	35.16
283.122	6.49
283.337	2.39
283.552	78.16
283.767	-3.75
283.983	65.88
284.198	8.53
284.413	20.82
284.628	22.87
284.843	16.73
285.058	31.06
285.274	31.06
285.489	51.54
285.704	20.82
285.919	-54.95
286.134	76.12
286.349	61.78
286.564	31.06
286.779	51.54
286.995	-20.14
287.21	-22.19
287.425	76.12
287.64	57.68
287.855	8.53
288.07	8.53
288.285	41.3
288.5	-57
288.715	53.59
288.93	41.3
289.145	-7.85
289.36	-28.33
289.575	98.64
289.79	74.07
290.004	31.06
290.219	-1.71
290.434	12.63
290.649	78.16
290.864	31.06
291.079	53.59
291.294	33.11
291.509	110.93
291.724	24.92
291.938	65.88
292.153	43.35
292.368	96.6
292.583	37.2
292.798	41.3
293.012	37.2
293.227	47.44
293.442	31.06
293.657	55.64
293.871	76.12
294.086	20.82
294.301	88.4
294.516	100.69
294.73	51.54
294.945	59.73
295.16	4.44
295.374	49.49
295.589	61.78
295.804	18.77
296.018	78.16
296.233	61.78
296.447	67.92
296.662	12.63
296.877	29.01
297.091	59.73
297.306	41.3
297.52	22.87
297.735	16.73
297.949	55.64
298.164	82.26
298.378	-1.71
298.593	24.92
298.807	-13.99
299.022	112.98
299.236	94.55
299.451	51.54
299.665	84.31
299.88	51.54
300.094	74.07
300.309	92.5
300.523	59.73
300.737	37.2
300.952	67.92
301.166	67.92
301.381	-5.8
301.595	47.44
301.809	45.4
302.024	-22.19
302.238	12.63
302.452	106.84
302.667	-36.52
302.881	2.39
303.095	39.25
303.309	-32.43
303.524	53.59
303.738	24.92
303.952	51.54
304.166	59.73
304.381	-20.14
304.595	67.92
304.809	-20.14
305.023	8.53
305.237	76.12
305.452	45.4
305.666	57.68
305.88	-9.9
306.094	-61.1
306.308	0.34
306.522	125.27
306.736	-9.9
306.95	61.78
307.164	10.58
307.379	10.58
307.593	57.68
307.807	137.56
308.021	102.74
308.235	51.54
308.449	8.53
308.663	65.88
308.877	47.44
309.091	16.73
309.305	55.64
309.519	-26.28
309.733	67.92
309.947	24.92
310.161	78.16
310.374	55.64
310.588	123.22
310.802	-1.71
311.016	-13.99
311.23	22.87
311.444	29.01
311.658	76.12
311.872	57.68
312.085	61.78
312.299	-24.23
312.513	90.45
312.727	51.54
312.941	-3.75
313.154	92.5
313.368	22.87
313.582	35.16
313.796	49.49
314.009	78.16
314.223	37.2
314.437	47.44
314.651	63.83
314.864	20.82
315.078	0.34
315.292	61.78
315.505	16.73
315.719	29.01
315.933	86.36
316.146	35.16
316.36	4.44
316.573	39.25
316.787	29.01
317.001	117.08
317.214	39.25
317.428	22.87
317.641	26.96
317.855	29.01
318.068	88.4
318.282	51.54
318.495	65.88
318.709	72.02
318.922	10.58
319.136	10.58
319.349	26.96
319.563	-13.99
319.776	57.68
319.99	67.92
320.203	88.4
320.417	-11.95
320.63	43.35
320.843	29.01
321.057	43.35
321.27	61.78
321.483	112.98
321.697	47.44
321.91	-13.99
322.124	82.26
322.337	65.88
322.55	41.3
322.763	57.68
322.977	72.02
323.19	63.83
323.403	57.68
323.617	29.01
323.83	61.78
324.043	-36.52
324.256	45.4
324.469	-16.04
324.683	-13.99
324.896	37.2
325.109	10.58
325.322	20.82
325.535	104.79
325.748	45.4
325.962	61.78
326.175	45.4
326.388	80.21
326.601	65.88
326.814	-1.71
327.027	94.55
327.24	22.87
327.453	63.83
327.666	22.87
327.879	24.92
328.092	92.5
328.305	55.64
328.518	63.83
328.731	20.82
328.944	-50.86
329.157	12.63
329.37	31.06
329.583	35.16
329.796	47.44
330.009	-63.15
330.222	43.35
330.435	72.02
330.648	76.12
330.861	-18.09
331.073	10.58
331.286	-3.75
331.499	63.83
331.712	12.63
331.925	45.4
332.138	63.83
332.35	45.4
332.563	0.34
332.776	43.35
332.989	49.49
333.202	14.68
333.414	37.2
333.627	39.25
333.84	-1.71
334.053	74.07
334.265	10.58
334.478	72.02
334.691	82.26
334.903	8.53
335.116	8.53
335.329	35.16
335.541	72.02
335.754	59.73
335.966	47.44
336.179	39.25
336.392	51.54
336.604	4.44
336.817	80.21
337.029	45.4
337.242	10.58
337.454	59.73
337.667	119.12
337.88	55.64
338.092	20.82
338.305	151.89
338.517	86.36
338.729	143.7
338.942	86.36
339.154	6.49
339.367	63.83
339.579	39.25
339.792	67.92
340.004	26.96
340.217	0.34
340.429	35.16
340.641	6.49
340.854	8.53
341.066	-9.9
341.278	53.59
341.491	151.89
341.703	90.45
341.915	37.2
342.128	61.78
342.34	20.82
342.552	29.01
342.764	-3.75
342.977	26.96
343.189	67.92
343.401	63.83
343.613	33.11
343.826	104.79
344.038	18.77
344.25	18.77
344.462	88.4
344.674	14.68
344.886	-13.99
345.099	33.11
345.311	-30.38
345.523	22.87
345.735	-16.04
345.947	123.22
346.159	37.2
346.371	29.01
346.583	-3.75
346.795	-40.62
347.007	35.16
347.219	72.02
347.431	2.39
347.643	35.16
347.855	41.3
348.067	35.16
348.279	0.34
348.491	14.68
348.703	6.49
348.915	14.68
349.127	-3.75
349.339	67.92
349.551	6.49
349.763	63.83
349.975	72.02
350.187	35.16
350.399	78.16
350.61	74.07
350.822	76.12
351.034	49.49
351.246	-20.14
351.458	41.3
351.669	170.32
351.881	-16.04
352.093	102.74
352.305	80.21
352.517	2.39
352.728	67.92
352.94	49.49
353.152	53.59
353.363	45.4
353.575	72.02
353.787	0.34
353.999	98.64
354.21	98.64
354.422	18.77
354.633	92.5
354.845	80.21
355.057	78.16
355.268	22.87
355.48	57.68
355.692	-36.52
355.903	53.59
356.115	84.31
356.326	-65.19
356.538	-24.23
356.749	43.35
356.961	16.73
357.172	-1.71
357.384	-34.47
357.595	41.3
357.807	61.78
358.018	8.53
358.23	4.44
358.441	96.6
358.653	8.53
358.864	63.83
359.075	6.49
359.287	16.73
359.498	100.69
359.709	24.92
359.921	74.07
360.132	51.54
360.344	-42.67
360.555	0.34
360.766	0.34
360.977	-9.9
361.189	94.55
361.4	8.53
361.611	29.01
361.823	92.5
362.034	53.59
362.245	-9.9
362.456	65.88
362.667	63.83
362.879	16.73
363.09	33.11
363.301	72.02
363.512	12.63
363.723	-52.91
363.935	84.31
364.146	80.21
364.357	12.63
364.568	53.59
364.779	26.96
364.99	102.74
365.201	12.63
365.412	49.49
365.623	-13.99
365.834	24.92
366.045	2.39
366.256	35.16
366.467	29.01
366.678	16.73
366.889	49.49
367.1	-40.62
367.311	53.59
367.522	96.6
367.733	104.79
367.944	67.92
368.155	47.44
368.366	57.68
368.577	26.96
368.788	33.11
368.999	-9.9
369.209	-16.04
369.42	74.07
369.631	98.64
369.842	16.73
370.053	61.78
370.264	24.92
370.474	63.83
370.685	96.6
370.896	63.83
371.107	10.58
371.317	84.31
371.528	6.49
371.739	22.87
371.95	69.97
372.16	108.88
372.371	10.58
372.582	53.59
372.792	43.35
373.003	88.4
373.214	63.83
373.424	98.64
373.635	-44.71
373.846	53.59
374.056	24.92
374.267	59.73
374.477	94.55
374.688	67.92
374.898	24.92
375.109	33.11
375.319	76.12
375.53	57.68
375.74	94.55
375.951	74.07
376.161	22.87
376.372	80.21
376.582	76.12
376.793	59.73
377.003	-32.43
377.214	82.26
377.424	14.68
377.635	49.49
377.845	10.58
378.055	112.98
378.266	-32.43
378.476	-7.85
378.686	37.2
378.897	41.3
379.107	31.06
379.317	0.34
379.528	-22.19
379.738	35.16
379.948	72.02
380.158	-18.09
380.369	88.4
380.579	4.44
380.789	12.63
380.999	18.77
381.21	98.64
381.42	102.74
381.63	100.69
381.84	59.73
382.05	-3.75
382.261	90.45
382.471	94.55
382.681	31.06
382.891	33.11
383.101	20.82
383.311	-3.75
383.521	78.16
383.731	51.54
383.941	90.45
384.151	106.84
384.361	69.97
384.571	16.73
384.781	12.63
384.991	80.21
385.201	127.32
385.411	69.97
385.621	43.35
385.831	26.96
386.041	39.25
386.251	78.16
386.461	72.02
386.671	45.4
386.881	24.92
387.091	90.45
387.301	158.03
387.511	90.45
387.72	92.5
387.93	18.77
388.14	-26.28
388.35	47.44
388.56	102.74
388.769	29.01
388.979	53.59
389.189	86.36
389.399	82.26
389.609	86.36
389.818	94.55
390.028	78.16
390.238	76.12
390.447	-16.04
390.657	88.4
390.867	92.5
391.076	39.25
391.286	63.83
391.496	72.02
391.705	8.53
391.915	16.73
392.125	65.88
392.334	12.63
392.544	41.3
392.753	47.44
392.963	24.92
393.172	35.16
393.382	76.12
393.591	67.92
393.801	86.36
394.01	106.84
394.22	2.39
394.429	65.88
394.639	84.31
394.848	14.68
395.058	115.03
395.267	94.55
395.477	45.4
395.686	59.73
395.895	53.59
396.105	137.56
396.314	82.26
396.524	135.51
396.733	33.11
396.942	37.2
397.152	10.58
397.361	76.12
397.57	24.92
397.78	80.21
397.989	145.75
398.198	84.31
398.407	117.08
398.617	166.23
398.826	131.41
399.035	117.08
399.244	143.7
399.453	90.45
399.663	94.55
399.872	125.27
400.081	45.4
400.29	211.28
400.499	51.54
400.708	33.11
400.917	88.4
401.127	112.98
401.336	39.25
401.545	260.43
401.754	155.99
401.963	188.75
402.172	139.6
402.381	190.8
402.59	37.2
402.799	104.79
403.008	29.01
403.217	86.36
403.426	127.32
403.635	88.4
403.844	84.31
404.053	135.51
404.262	41.3
404.471	223.57
404.68	98.64
404.888	108.88
405.097	166.23
405.306	123.22
405.515	108.88
405.724	117.08
405.933	153.94
406.142	192.85
406.35	151.89
406.559	178.51
406.768	217.43
406.977	174.42
407.185	213.33
407.394	145.75
407.603	164.18
407.812	252.24
408.02	166.23
408.229	227.67
408.438	182.61
408.646	174.42
408.855	254.29
409.064	188.75
409.272	201.04
409.481	270.67
409.69	78.16
409.898	274.77
410.107	258.39
410.315	297.3
410.524	227.67
410.733	272.72
410.941	293.2
411.15	297.3
411.358	305.49
411.567	203.09
411.775	293.2
411.984	356.69
412.192	297.3
412.401	336.21
412.609	352.59
412.818	426.32
413.026	362.83
413.234	446.8
413.443	414.03
413.651	446.8
413.86	461.13
414.068	457.04
414.276	522.57
414.485	553.29
414.693	536.91
414.901	514.38
415.11	577.87
415.318	504.14
415.526	614.73
415.734	618.83
415.943	584.01
416.151	594.25
416.359	665.93
416.567	743.75
416.776	639.31
416.984	690.51
417.192	856.39
417.4	790.86
417.608	678.22
417.817	805.19
418.025	893.26
418.233	915.78
418.441	880.97
418.649	1003.85
418.857	1087.81
419.065	1118.53
419.273	1034.57
419.481	1061.19
419.689	1001.8
419.897	1167.68
420.105	1241.41
420.313	1296.71
420.521	1253.7
420.729	1358.14
420.937	1253.7
421.145	1388.86
421.353	1382.72
421.561	1493.31
421.769	1579.33
421.977	1620.28
422.185	1663.29
422.393	1657.15
422.601	1802.55
422.809	1800.51
423.017	1868.09
423.224	1790.27
423.432	1984.82
423.64	2036.02
423.848	2138.42
424.056	2056.5
424.263	2238.77
424.471	2251.06
424.679	2234.68
424.887	2404.66
425.094	2427.18
425.302	2447.66
425.51	2728.24
425.718	2670.89
425.925	2687.28
426.133	2808.11
426.341	2924.84
426.548	3019.05
426.756	3094.82
426.964	3146.02
427.171	3359.01
427.379	3426.59
427.586	3473.7
427.794	3539.23
428.001	3778.84
428.209	3981.59
428.417	3879.19
428.624	4096.28
428.832	4026.65
429.039	4266.26
429.247	4118.81
429.454	4473.11
429.662	4878.6
429.869	4458.77
430.076	4663.57
430.284	4647.18
430.491	4860.17
430.699	5222.66
430.906	5273.86
431.114	5185.8
431.321	5437.7
431.528	5523.71
431.736	5849.34
431.943	6101.24
432.15	5923.07
432.358	5935.35
432.565	6381.81
432.772	6430.96
432.979	6568.18
433.187	6691.06
433.394	6877.42
433.601	7217.38
433.808	7272.68
434.016	7106.79
434.223	7528.67
434.43	7768.29
434.637	7905.5
434.844	8399.06
435.052	8495.32
435.259	8556.75
435.466	8483.03
435.673	8276.18
435.88	9023.69
436.087	9482.44
436.294	9482.44
436.501	9074.89
436.708	9457.86
436.915	9871.55
437.122	10221.75
437.329	10176.7
437.537	10598.58
437.743	10770.61
437.95	10416.31
438.157	11298.98
438.364	11585.7
438.571	11489.45
438.778	11665.57
438.985	12562.58
439.192	12126.36
439.399	12791.95
439.606	12204.19
439.813	13103.25
440.02	13836.42
440.227	13828.23
440.433	13521.03
440.64	13793.41
440.847	13766.79
441.054	14153.85
441.261	15196.27
441.467	14903.41
441.674	15063.15
441.881	15718.5
442.088	15720.55
442.294	15636.58
442.501	15980.64
442.708	16425.05
442.914	16959.57
443.121	17641.54
443.328	17184.85
443.534	18387
443.741	17838.15
443.948	17768.52
444.154	19036.21
444.361	18909.24
444.568	19304.49
444.774	18921.52
444.981	19167.28
445.187	19703.85
445.394	20742.17
445.6	20504.6
445.807	22167.56
446.013	21307.41
446.22	21499.92
446.426	22898.68
446.633	22761.47
446.839	23474.16
447.046	22585.34
447.252	24195.04
447.459	24115.17
447.665	23896.04
447.871	24741.85
448.078	25800.65
448.284	25020.38
448.491	25137.11
448.697	26277.83
448.903	27011
449.11	26728.38
449.316	26425.28
449.522	26996.67
449.728	27688.88
449.935	28082.09
450.141	27985.83
450.347	28823.45
450.553	28082.09
450.76	28114.86
450.966	28936.09
451.172	28891.04
451.378	29462.42
451.584	28680.1
451.791	29470.61
451.997	29007.77
452.203	30054.28
452.409	29984.65
452.615	29974.41
452.821	28848.03
453.027	28436.39
453.233	29857.68
453.44	28653.47
453.646	29126.55
453.852	29130.65
454.058	29644.69
454.264	28798.88
454.47	29349.78
454.676	28682.14
454.882	29904.78
455.088	27328.44
455.294	27566
455.5	28241.83
455.705	28168.1
455.911	27176.89
456.117	26529.73
456.323	25960.39
456.529	25049.05
456.735	25987.02
456.941	25231.32
457.147	24938.46
457.352	23980.01
457.558	23902.18
457.764	23949.29
457.97	23404.53
458.176	22992.89
458.381	23244.79
458.587	21948.42
458.793	21884.94
458.999	20621.34
459.204	22288.39
459.41	21596.17
459.616	20088.87
459.821	20107.3
460.027	20240.42
460.233	19648.55
460.438	18878.52
460.644	18882.61
460.85	18282.56
461.055	17715.27
461.261	17829.96
461.466	16713.81
461.672	16132.19
461.878	17066.06
462.083	15917.15
462.289	15270
462.494	15452.27
462.7	14715
462.905	14413.95
463.111	14979.18
463.316	14905.46
463.522	14844.02
463.727	14614.65
463.932	14616.69
464.138	14471.29
464.343	14446.71
464.549	14014.59
464.754	14665.85
464.959	14297.21
465.165	14395.51
465.37	13705.35
465.575	13389.96
465.781	14037.12
465.986	13906.05
466.191	13594.76
466.397	13133.96
466.602	12581.01
466.807	13133.96
467.012	13209.74
467.218	13039.76
467.423	12796.05
467.628	12703.89
467.833	13557.89
468.038	12949.65
468.244	12802.19
468.449	13054.09
468.654	12615.83
468.859	12675.22
469.064	12646.55
469.269	11968.67
469.474	12198.04
469.679	12347.54
469.885	11886.75
470.09	12157.08
470.295	12085.4
470.5	11436.2
470.705	12095.64
470.91	11530.41
471.115	11591.84
471.32	11862.18
471.525	11743.39
471.73	11362.47
471.935	11364.52
472.139	11075.76
472.344	11151.53
472.549	11129
472.754	10885.3
472.959	10612.92
473.164	10234.04
473.369	10440.89
473.574	10692.79
473.778	10541.24
473.983	10590.39
474.188	10299.58
474.393	10076.35
474.598	10047.68
474.802	10029.24
475.007	9928.89
475.212	9883.84
475.417	9529.54
475.621	9527.49
475.826	9642.18
476.031	9400.52
476.235	9398.47
476.44	9402.57
476.645	9175.24
476.849	9150.67
477.054	9027.79
477.259	8954.06
477.463	8798.42
477.668	8661.2
477.872	8792.27
478.077	8536.28
478.282	8349.91
478.486	8429.78
478.691	8151.26
478.895	8431.83
479.1	8339.67
479.304	8145.11
479.509	7954.65
479.713	8196.31
479.918	8050.91
480.122	7842.01
480.326	7885.02
480.531	8057.05
480.735	7907.55
480.94	7876.83
481.144	8077.53
481.348	7643.36
481.553	7684.32
481.757	7690.46
481.961	7833.82
482.166	7723.23
482.37	7786.72
482.574	7637.22
482.778	7708.9
482.983	7682.27
483.187	7792.86
483.391	7622.88
483.595	7712.99
483.8	7579.87
484.004	7758.05
484.208	7780.57
484.412	7489.76
484.616	7598.31
484.821	7764.19
485.025	7530.72
485.229	7721.18
485.433	7729.38
485.637	7608.55
485.841	7563.49
486.045	7747.81
486.249	7569.63
486.453	7545.06
486.657	7776.48
486.861	7698.66
487.065	7442.66
487.269	7764.19
487.473	7622.88
487.677	7698.66
487.881	7690.46
488.085	7598.31
488.289	7768.29
488.493	7655.65
488.697	7948.51
488.901	7674.08
489.105	7659.74
489.309	7682.27
489.512	7960.8
489.716	7729.38
489.92	7745.76
490.124	7659.74
490.328	7948.51
490.531	7899.36
490.735	7887.07
490.939	7946.46
491.143	7874.78
491.346	7803.1
491.55	8055
491.754	7907.55
491.958	7934.17
492.161	7950.56
492.365	7997.66
492.569	8116.44
492.772	8026.33
492.976	8239.32
493.18	8177.88
493.383	8247.51
493.587	8241.37
493.79	8331.48
493.994	8327.38
494.197	8397.01
494.401	8493.27
494.605	8655.06
494.808	8653.01
495.012	8820.94
495.215	8642.77
495.419	8796.37
495.622	8863.95
495.825	8886.48
496.029	8642.77
496.232	9066.7
496.436	9109.71
496.639	9142.47
496.843	9210.06
497.046	9369.8
497.249	9504.96
497.453	9615.55
497.656	9625.79
497.859	9558.21
498.063	9644.23
498.266	9785.54
498.469	9994.43
498.673	10166.46
498.876	10197.18
499.079	10156.22
499.282	10250.42
499.485	10670.26
499.689	10510.52
499.892	10866.86
500.095	10772.66
500.298	11010.22
500.501	10999.98
500.705	11288.75
500.908	11063.47
501.111	11372.71
501.314	11356.33
501.517	11589.8
501.72	11880.61
501.923	11915.42
502.126	12005.53
502.329	12220.57
502.532	12146.84
502.735	12370.07
502.938	12646.55
503.141	12501.14
503.344	12941.46
503.547	12853.39
503.75	12808.34
503.953	13234.32
504.156	13185.16
504.359	13357.19
504.562	13623.43
504.765	13854.85
504.968	13955.2
505.17	14041.22
505.373	14233.72
505.576	14321.79
505.779	14483.58
505.982	14409.85
506.185	14571.64
506.387	14784.63
506.59	15048.82
506.793	15308.91
506.996	15226.99
507.198	15874.15
507.401	15749.22
507.604	15839.33
507.807	15781.99
508.009	16191.58
508.212	16171.1
508.415	16363.61
508.617	16730.2
508.82	16844.88
509.022	16820.31
509.225	17086.54
509.428	17297.49
509.63	17283.15
509.833	17461.32
510.035	17993.79
510.238	17801.29
510.44	17940.55
510.643	18446.4
510.845	18593.85
511.048	18503.74
511.25	18788.41
511.453	18653.24
511.655	19535.92
511.858	19367.98
512.06	19429.42
512.262	19632.17
512.465	19605.55
512.667	20113.44
512.87	20426.78
513.072	20430.88
513.274	20510.75
513.477	20842.52
513.679	20824.09
513.881	21178.39
514.084	21274.64
514.286	21471.25
514.488	21479.44
514.69	22061.06
514.893	21856.26
515.095	22104.07
515.297	22480.89
515.499	22528
515.701	22943.74
515.904	22910.97
516.106	23310.32
516.308	23390.19
516.51	23461.87
516.712	23617.52
516.914	23652.33
517.116	24063.97
517.318	24326.11
517.52	24385.51
517.722	24596.45
517.925	24801.24
518.127	24844.25
518.329	25116.63
518.531	25264.08
518.733	25722.83
518.935	25735.12
519.136	26097.61
519.338	26116.04
519.54	26349.51
519.742	26511.3
519.944	26759.1
520.146	26777.53
520.348	27346.87
520.55	27635.63
520.752	27412.4
520.954	27844.52
521.155	27744.17
521.357	28004.27
521.559	28250.02
521.761	28573.6
521.963	28528.55
522.164	28745.63
522.366	28942.24
522.568	29329.3
522.77	29511.57
522.971	29769.62
523.173	29517.71
523.375	29964.17
523.576	29792.14
523.778	29749.14
523.98	30048.14
524.181	30234.5
524.383	30191.5
524.584	30717.82
524.786	30736.26
524.988	30656.39
525.189	31086.46
525.391	31227.77
525.592	31330.17
525.794	31373.17
525.995	31143.8
526.197	31547.25
526.398	31424.37
526.6	31844.21
526.801	31852.4
527.003	32409.45
527.204	32233.32
527.406	32499.56
527.607	32419.69
527.808	32876.38
528.01	32401.25
528.211	32563.04
528.412	33218.39
528.614	32733.03
528.815	33165.15
529.016	33159
529.218	33165.15
529.419	33005.41
529.62	33417.05
529.822	33308.51
530.023	33169.24
530.224	33261.4
530.425	33251.16
530.626	33038.17
530.828	33027.93
531.029	34025.29
531.23	33343.32
531.431	33722.19
531.632	33560.41
531.833	33834.83
532.035	33820.5
532.236	33664.85
532.437	33939.28
532.638	33683.28
532.839	34033.49
533.04	33992.53
533.241	33754.96
533.442	34137.93
533.643	33863.5
533.844	34324.3
534.045	34168.65
534.246	33611.6
534.447	34027.34
534.648	33658.71
534.849	34115.4
535.05	33570.65
535.251	34051.92
535.451	33955.66
535.652	34078.54
535.853	34072.4
536.054	34111.31
536.255	34297.67
536.456	33785.68
536.657	34674.5
536.857	34205.52
537.058	34168.65
537.259	34103.12
537.46	34058.06
537.66	33984.33
537.861	34180.94
538.062	33888.08
538.263	34176.84
538.463	33541.97
538.664	34021.2
538.865	34137.93
539.065	34275.15
539.266	33605.46
539.466	34172.75
539.667	33705.81
539.868	34625.35
540.068	34238.28
540.269	33992.53
540.469	34494.28
540.67	33929.04
540.87	34242.38
541.071	34015.05
541.271	34295.63
541.472	33881.94
541.672	34019.15
541.873	33881.94
542.073	33593.17
542.274	34223.95
542.474	34158.41
542.675	33931.09
542.875	34117.45
543.075	33871.7
543.276	33802.07
543.476	33951.57
543.676	33867.6
543.877	33777.49
544.077	33959.76
544.277	33707.86
544.478	33867.6
544.678	33945.42
544.878	33562.45
545.078	34031.44
545.279	33595.22
545.479	33550.17
545.679	33720.15
545.879	33671
546.079	33720.15
546.28	33640.28
546.48	33519.45
546.68	33691.48
546.88	33693.52
547.08	33742.67
547.28	33521.49
547.48	33443.67
547.68	33748.82
547.88	33607.51
548.081	34021.2
548.281	33761.11
548.481	33732.43
548.681	34033.49
548.881	33711.95
549.081	33767.25
549.28	33488.73
549.48	33845.07
549.68	33429.34
549.88	33861.46
550.08	33513.3
550.28	33945.42
550.48	33503.06
550.68	33826.64
550.88	33584.98
551.08	33757.01
551.279	33505.11
551.479	33529.69
551.679	33539.93
551.879	33349.46
552.079	33779.54
552.278	33202.01
552.478	33089.37
552.678	33599.32
552.878	33984.33
553.077	33345.37
553.277	33455.96
553.477	33527.64
553.676	33468.25
553.876	33410.9
554.076	33447.77
554.275	33615.7
554.475	33044.32
554.674	33398.62
554.874	33605.46
555.074	32896.86
555.273	33226.59
555.473	33421.14
555.672	33214.3
555.872	33212.25
556.071	33222.49
556.271	33122.14
556.47	33357.66
556.67	33097.56
556.869	32962.4
557.068	33066.84
557.268	32843.62
557.467	32771.94
557.667	33105.76
557.866	32677.73
558.065	32778.08
558.265	32753.51
558.464	32782.18
558.663	33292.12
558.863	32698.21
559.062	33134.43
559.261	32702.31
559.461	32956.25
559.66	32374.63
559.859	33009.5
560.058	32386.92
560.258	32464.74
560.457	32460.65
560.656	32679.78
560.855	32407.4
561.054	32841.57
561.253	32374.63
561.453	32872.29
561.652	32329.58
561.851	32683.87
562.05	32073.58
562.249	32141.16
562.448	32239.47
562.647	32241.51
562.846	32278.38
563.045	32452.45
563.244	32120.68
563.443	32188.27
563.642	31823.73
563.841	32104.3
564.04	31731.57
564.239	32034.67
564.438	31723.38
564.637	31487.86
564.836	31958.89
565.035	31489.91
565.234	31805.3
565.432	31369.08
565.631	31670.13
565.83	31424.37
566.029	31334.26
566.228	31211.39
566.427	31375.22
566.625	31084.41
566.824	31094.65
567.023	31274.87
567.222	30545.8
567.42	31317.88
567.619	30994.3
567.818	31022.97
568.016	30926.72
568.215	30967.68
568.414	30926.72
568.612	30803.84
568.811	30990.2
569.01	31162.23
569.208	30498.69
569.407	30873.47
569.605	30330.76
569.804	30879.61
570.002	30087.05
570.201	30721.92
570.4	30398.34
570.598	29820.81
570.797	29786
570.995	30539.65
571.193	29773.71
571.392	30236.55
571.59	29939.6
571.789	29872.01
571.987	29845.39
572.186	29798.29
572.384	29437.84
572.582	29478.8
572.781	29747.09
572.979	29521.81
573.177	29714.32
573.376	29689.74
573.574	29335.45
573.772	29648.78
573.971	29513.62
574.169	28917.66
574.367	29253.53
574.565	29245.34
574.763	28942.24
574.962	28915.61
575.16	28643.23
575.358	29317.01
575.556	28573.6
575.754	29022.11
575.952	28587.94
576.151	28420
576.349	28417.96
576.547	28297.13
576.745	28637.09
576.943	28598.18
577.141	28307.37
577.339	28592.03
577.537	28198.82
577.735	28084.14
577.933	28053.42
578.131	28092.33
578.329	28270.5
578.527	27680.69
578.725	27692.97
578.923	28454.82
579.121	27600.82
579.319	27815.85
579.516	27871.15
579.714	27783.09
579.912	27555.76
580.11	27416.5
580.308	27711.41
580.506	27443.12
580.704	26972.09
580.901	27574.19
581.099	27459.51
581.297	27187.13
581.495	26953.66
581.692	27021.24
581.89	26785.72
582.088	26767.29
582.285	26603.46
582.483	27000.76
582.681	26767.29
582.878	26931.13
583.076	26499.01
583.274	27047.86
583.471	26345.41
583.669	26388.42
583.866	26288.07
584.064	26570.69
584.262	25933.77
584.459	26466.24
584.657	26138.57
584.854	26406.85
585.052	26013.64
585.249	25829.32
585.447	26202.05
585.644	25769.93
585.841	25817.04
586.039	26216.39
586.236	25569.23
586.434	25290.71
586.631	25452.5
586.828	25380.82
587.026	25610.19
587.223	25515.98
587.42	25178.07
587.618	25290.71
587.815	25288.66
588.012	25139.16
588.21	25069.53
588.407	25133.01
588.604	24725.47
588.801	24825.82
588.999	24819.67
589.196	24778.72
589.393	24805.34
589.59	24797.15
589.787	24477.66
589.984	24365.03
590.182	24186.85
590.379	24498.14
590.576	24354.79
590.773	24076.26
590.97	24014.82
591.167	23969.77
591.364	24135.65
591.561	23971.82
591.758	23717.87
591.955	23762.92
592.152	24184.8
592.349	23719.92
592.546	23871.47
592.743	23762.92
592.94	23584.75
593.137	23463.92
593.334	23730.16
593.531	23230.45
593.727	23320.56
593.924	23371.76
594.121	22794.23
594.318	23236.59
594.515	22870.01
594.712	23486.45
594.908	22767.61
595.105	22976.5
595.302	22657.02
595.499	22718.46
595.696	22382.59
595.892	22501.37
596.089	22818.81
596.286	22646.78
596.482	22353.92
596.679	22523.9
596.876	22540.29
597.072	22220.8
597.269	22222.85
597.466	22093.83
597.662	22046.72
597.859	22106.12
598.055	22149.12
598.252	21948.42
598.448	21735.43
598.645	21653.51
598.841	21747.72
599.038	21805.06
599.234	21860.36
599.431	21534.73
599.627	21334.03
599.824	21555.21
600.02	21254.16
600.217	21422.09
600.413	21518.35
600.609	21424.14
600.806	20867.09
601.002	21184.53
601.198	21055.51
601.395	20819.99
601.591	20832.28
601.787	20844.57
601.984	20762.65
602.18	20787.22
602.376	20850.71
602.572	20578.33
602.769	20500.51
602.965	20527.13
603.161	20654.11
603.357	20303.9
603.553	20338.72
603.75	20516.89
603.946	19849.25
604.142	20346.91
604.338	19875.88
604.534	20357.15
604.73	19857.45
604.926	19943.46
605.122	20152.35
605.318	20006.95
605.514	19877.93
605.71	19832.87
605.906	19632.17
606.102	19859.49
606.298	19736.62
606.494	19583.02
606.69	19576.87
606.886	19709.99
607.082	18956.34
607.278	19441.71
607.474	19013.68
607.67	19040.31
607.866	19118.13
608.062	19238.96
608.257	18962.48
608.453	19198
608.649	18997.3
608.845	19071.03
609.041	18995.25
609.236	19001.4
609.432	19019.83
609.628	18731.06
609.824	18825.27
610.019	18765.88
610.215	18849.85
610.411	18772.02
610.606	18851.89
610.802	18733.11
610.998	18700.34
611.193	18720.82
611.389	18724.92
611.584	18718.78
611.78	18454.59
611.976	18464.83
612.171	18526.27
612.367	18417.72
612.562	18196.54
612.758	18102.34
612.953	18124.86
613.149	18556.99
613.344	18133.06
613.539	18128.96
613.735	18540.6
613.93	18378.81
614.126	18133.06
614.321	18239.55
614.517	18116.67
614.712	18061.38
614.907	17918.02
615.103	18266.17
615.298	17862.72
615.493	18042.95
615.688	17729.61
615.884	18303.04
616.079	17702.98
616.274	17952.84
616.47	17934.4
616.665	17723.46
616.86	17940.55
617.055	17809.48
617.25	17520.71
617.445	17793.09
617.641	17600.58
617.836	17657.93
618.031	17387.6
618.226	17367.12
618.421	17262.67
618.616	17639.5
618.811	17338.44
619.006	17537.1
619.201	17029.2
619.396	17283.15
619.591	17166.42
619.786	17068.11
619.981	16531.55
620.176	16894.04
620.371	16547.93
620.566	16873.56
620.761	16773.21
620.956	16701.53
621.151	16459.87
621.346	16500.83
621.541	16255.07
621.735	16474.2
621.93	16064.61
622.125	16283.74
622.32	15951.97
622.515	16238.69
622.709	16029.79
622.904	16220.25
623.099	15898.72
623.294	15994.98
623.488	15753.32
623.683	15679.59
623.878	15435.88
624.072	15456.36
624.267	15595.62
624.462	15417.45
624.656	15124.59
624.851	15079.54
625.046	15175.79
625.24	15237.23
625.435	14741.62
625.629	14846.07
625.824	14874.74
626.018	14792.82
626.213	14209.15
626.407	14534.78
626.602	14153.85
626.796	14426.23
626.991	14528.63
627.185	14153.85
627.38	14246.01
627.574	13973.63
627.768	14004.35
627.963	13938.82
628.157	13805.7
628.352	13815.94
628.546	13719.68
628.74	13762.69
628.935	13426.82
629.129	13453.45
629.323	13160.59
629.517	13303.95
629.712	13322.38
629.906	13162.64
630.1	12961.94
630.294	12976.27
630.489	13133.96
630.683	13260.94
630.877	12818.58
631.071	12796.05
631.265	12716.18
631.459	12767.38
631.653	12642.45
631.848	12599.45
632.042	12499.09
632.236	12656.79
632.43	12327.07
632.624	12572.82
632.818	11931.81
633.012	12058.78
633.206	12062.88
633.4	12085.4
633.594	12001.44
633.788	11905.18
633.982	11903.14
634.176	12042.4
634.369	11714.72
634.563	11778.21
634.757	11600.04
634.951	11661.48
635.145	11589.8
635.339	11440.29
635.533	11471.01
635.726	11405.48
635.92	11407.53
636.114	11198.63
636.308	11399.34
636.501	11118.76
636.695	11008.17
636.889	11176.11
637.083	10991.79
637.276	10827.95
637.47	10873.01
637.664	10842.29
637.857	10848.43
638.051	10672.31
638.244	10479.8
638.438	10678.45
638.632	10576.05
638.825	10600.63
639.019	10406.07
639.212	10395.83
639.406	10377.4
639.599	10260.66
639.793	10338.49
639.986	9994.43
640.18	10047.68
640.373	9926.85
640.567	10100.92
640.76	9994.43
640.954	9969.85
641.147	9658.56
641.34	9906.37
641.534	9726.14
641.727	9758.91
641.92	9572.55
642.114	9615.55
642.307	9521.35
642.5	9488.58
642.694	9464
642.887	9418.95
643.08	9500.87
643.273	9472.2
643.467	9412.81
643.66	9142.47
643.853	9248.97
644.046	9179.34
644.239	9091.27
644.432	9011.4
644.626	9015.5
644.819	8794.32
645.012	8843.47
645.205	8822.99
645.398	8945.87
645.591	8782.03
645.784	8566.99
645.977	8532.18
646.17	8628.43
646.363	8519.89
646.556	8503.51
646.749	8546.51
646.942	8646.87
647.135	8343.77
647.328	8315.09
647.521	8382.68
647.714	8229.08
647.907	8341.72
648.099	8138.97
648.292	8175.83
648.485	8136.92
648.678	8122.59
648.871	8077.53
649.064	8014.04
649.256	8089.82
649.449	8052.95
649.642	7897.31
649.835	7819.49
650.027	7715.04
650.22	7594.21
650.413	7688.42
650.605	7530.72
650.798	7729.38
650.991	7520.48
651.183	7540.96
651.376	7579.87
651.568	7540.96
651.761	7518.43
651.954	7444.71
652.146	7461.09
652.339	7373.03
652.531	7291.11
652.724	7237.86
652.916	7264.49
653.109	7147.75
653.301	7149.8
653.494	7311.59
653.686	6938.86
653.879	7162.09
654.071	7080.17
654.263	6916.33
654.456	6992.11
654.648	6959.34
654.84	6942.96
655.033	7024.87
655.225	6754.54
655.417	6828.27
655.61	6789.36
655.802	6813.93
655.994	6576.37
656.186	6607.09
656.379	6562.03
656.571	6588.66
656.763	6457.59
656.955	6412.53
657.148	6469.87
657.34	6451.44
657.532	6228.21
657.724	6480.11
657.916	6480.11
658.108	6428.92
658.3	6338.8
658.492	6199.54
658.684	6103.29
658.876	6252.79
659.068	6152.44
659.26	6117.62
659.452	6355.19
659.644	6050.04
659.836	6062.33
660.028	6197.49
660.22	5970.17
660.412	5861.63
660.604	5867.77
660.796	5968.12
660.988	5900.54
661.18	5900.54
661.372	5734.65
661.563	5759.23
661.755	5748.99
661.947	5822.72
662.139	5746.94
662.331	5726.46
662.522	5646.59
662.714	5671.17
662.906	5687.55
663.097	5531.9
663.289	5441.79
663.481	5443.84
663.673	5615.87
663.864	5572.86
664.056	5406.98
664.247	5415.17
664.439	5366.02
664.631	5325.06
664.822	5255.43
665.014	5409.03
665.205	5337.35
665.397	5234.95
665.588	5206.28
665.78	5107.98
665.971	5333.25
666.163	5107.98
666.354	5226.76
666.546	5060.87
666.737	5101.83
666.929	4915.47
667.12	5030.15
667.311	5091.59
667.503	5030.15
667.694	4915.47
667.885	4954.38
668.077	4909.32
668.268	4874.51
668.459	4759.82
668.651	4849.93
668.842	4737.29
669.033	4802.83
669.224	4720.91
669.416	4808.97
669.607	4786.44
669.798	4845.84
669.989	4710.67
670.18	4708.62
670.371	4626.7
670.563	4647.18
670.754	4651.28
670.945	4618.51
671.136	4571.41
671.327	4616.46
671.518	4432.15
671.709	4501.78
671.9	4532.5
672.091	4577.55
672.282	4376.85
672.473	4434.19
672.664	4497.68
672.855	4462.87
673.046	4329.75
673.237	4411.67
673.428	4309.27
673.619	4344.08
673.809	4282.64
674	4301.08
674.191	4385.04
674.382	4317.46
674.573	4122.9
674.764	4428.05
674.954	4266.26
675.145	4278.55
675.336	4213.01
675.527	4096.28
675.717	4274.45
675.908	4032.79
676.099	4237.59
676.289	4147.48
676.48	4174.1
676.671	4053.27
676.861	4061.46
677.052	4092.18
677.243	3954.97
677.433	3959.06
677.624	4024.6
677.814	4026.65
678.005	4118.81
678.195	3977.5
678.386	4047.13
678.576	3914.01
678.767	3920.15
678.957	3918.11
679.148	3967.26
679.338	3889.43
679.529	3836.19
679.719	3875.1
679.909	3997.98
680.1	3961.11
680.29	3940.63
680.481	3844.38
680.671	3963.16
680.861	3803.42
681.052	3621.15
681.242	3782.94
681.432	3834.14
681.622	3752.22
681.813	3703.07
682.003	3866.91
682.193	3780.89
682.383	3703.07
682.573	3719.45
682.764	3684.64
682.954	3719.45
683.144	3696.92
683.334	3637.53
683.524	3608.86
683.714	3635.49
683.904	3592.48
684.094	3662.11
684.284	3637.53
684.474	3721.5
684.664	3639.58
684.854	3584.29
685.044	3735.84
685.234	3598.62
685.424	3608.86
685.614	3473.7
685.804	3535.14
685.994	3592.48
686.184	3561.76
686.374	3471.65
686.564	3438.88
686.753	3465.5
686.943	3393.83
687.133	3485.98
687.323	3522.85
687.513	3418.4
687.702	3387.68
687.892	3363.11
688.082	3391.78
688.272	3299.62
688.461	3340.58
688.651	3445.02
688.841	3305.76
689.03	3295.52
689.22	3252.52
689.41	3297.57
689.599	3232.04
689.789	3115.3
689.979	3270.95
690.168	3156.26
690.358	3166.5
690.547	3266.85
690.737	3088.68
690.926	3006.76
691.116	3064.1
691.305	3211.56
691.495	3041.57
691.684	2982.18
691.874	3070.25
692.063	3037.48
692.252	3027.24
692.442	2986.28
692.631	2965.8
692.82	2990.38
693.01	3051.81
693.199	3014.95
693.388	2961.7
693.578	2746.67
693.767	2797.87
693.956	2943.27
694.146	2804.01
694.335	2861.35
694.524	2818.35
694.713	2875.69
694.902	2734.38
695.092	2869.55
695.281	2728.24
695.47	2754.86
695.659	2804.01
695.848	2644.27
696.037	2718
696.226	2752.81
696.415	2711.85
696.604	2849.07
696.793	2748.72
696.982	2732.33
697.171	2701.61
697.36	2748.72
697.549	2683.18
697.738	2787.63
697.927	2732.33
698.116	2674.99
698.305	2701.61
698.494	2674.99
698.683	2611.5
698.872	2521.39
699.061	2640.17
699.25	2552.11
699.438	2580.78
699.627	2603.31
699.816	2664.75
700.005	2515.25
700.193	2517.29
700.382	2537.77
700.571	2474.29
700.76	2591.02
700.948	2515.25
701.137	2593.07
701.326	2527.53
701.514	2570.54
701.703	2529.58
701.892	2455.86
702.08	2586.93
702.269	2468.14
702.457	2541.87
702.646	2529.58
702.834	2521.39
703.023	2505.01
703.212	2521.39
703.4	2443.57
703.589	2447.66
703.777	2492.72
703.965	2478.38
704.154	2521.39
704.342	2482.48
704.531	2371.89
704.719	2484.53
704.907	2558.25
705.096	2404.66
705.284	2451.76
705.472	2414.9
705.661	2478.38
705.849	2457.9
706.037	2472.24
706.226	2404.66
706.414	2320.69
706.602	2441.52
706.79	2367.79
706.979	2433.33
707.167	2414.9
707.355	2365.75
707.543	2320.69
707.731	2478.38
707.919	2474.29
708.107	2341.17
708.296	2423.09
708.484	2363.7
708.672	2474.29
708.86	2347.31
709.048	2437.42
709.236	2453.81
709.424	2378.03
709.612	2418.99
709.8	2279.73
709.988	2337.07
710.176	2277.68
710.364	2386.22
710.551	2304.31
710.739	2388.27
710.927	2224.44
711.115	2300.21
711.303	2357.55
711.491	2408.75
711.679	2292.02
711.866	2484.53
712.054	2277.68
712.242	2371.89
712.43	2390.32
712.617	2343.22
712.805	2355.51
712.993	2408.75
713.181	2345.27
713.368	2396.46
713.556	2343.22
713.744	2242.87
713.931	2423.09
714.119	2394.42
714.306	2267.44
714.494	2386.22
714.682	2208.05
714.869	2394.42
715.057	2308.4
715.244	2222.39
715.432	2298.16
715.619	2459.95
715.807	2361.65
715.994	2349.36
716.182	2269.49
716.369	2242.87
716.556	2369.84
716.744	2332.98
716.931	2361.65
717.119	2296.11
717.306	2269.49
717.493	2304.31
717.681	2312.5
717.868	2332.98
718.055	2408.75
718.242	2363.7
718.43	2361.65
718.617	2365.75
718.804	2478.38
718.991	2330.93
719.179	2380.08
719.366	2369.84
719.553	2242.87
719.74	2326.83
719.927	2447.66
720.114	2300.21
720.301	2371.89
720.488	2447.66
720.676	2259.25
720.863	2349.36
721.05	2435.38
721.237	2373.94
721.424	2351.41
721.611	2406.7
721.798	2275.63
721.985	2367.79
722.172	2181.43
722.358	2384.18
722.545	2244.92
722.732	2287.92
722.919	2292.02
723.106	2306.35
723.293	2328.88
723.48	2222.39
723.667	2367.79
723.853	2306.35
724.04	2332.98
724.227	2285.87
724.414	2316.59
724.6	2328.88
724.787	2349.36
724.974	2308.4
725.161	2328.88
725.347	2347.31
725.534	2373.94
725.72	2304.31
725.907	2328.88
726.094	2367.79
726.28	2263.35
726.467	2320.69
726.653	2257.2
726.84	2341.17
727.027	2304.31
727.213	2316.59
727.4	2265.39
727.586	2281.78
727.773	2318.64
727.959	2357.55
728.145	2322.74
728.332	2275.63
728.518	2316.59
728.705	2238.77
728.891	2363.7
729.077	2271.54
729.264	2427.18
729.45	2253.11
729.636	2351.41
729.823	2384.18
730.009	2244.92
730.195	2255.15
730.382	2390.32
730.568	2277.68
730.754	2394.42
730.94	2359.6
731.126	2300.21
731.313	2275.63
731.499	2298.16
731.685	2328.88
731.871	2326.83
732.057	2300.21
732.243	2242.87
732.429	2343.22
732.615	2324.79
732.801	2246.96
732.987	2375.99
733.173	2328.88
733.359	2249.01
733.545	2251.06
733.731	2304.31
733.917	2386.22
734.103	2357.55
734.289	2363.7
734.475	2285.87
734.661	2386.22
734.847	2296.11
735.033	2255.15
735.219	2318.64
735.404	2306.35
735.59	2310.45
735.776	2326.83
735.962	2271.54
736.148	2277.68
736.333	2267.44
736.519	2285.87
736.705	2165.04
736.89	2335.03
737.076	2156.85
737.262	2236.72
737.447	2208.05
737.633	2218.29
737.819	2296.11
738.004	2228.53
738.19	2169.14
738.375	2279.73
738.561	2187.57
738.747	2328.88
738.932	2253.11
739.118	2238.77
739.303	2185.52
739.489	2216.24
739.674	2124.08
739.859	2302.26
740.045	2163
740.23	2267.44
740.416	2179.38
740.601	2238.77
740.786	2220.34
740.972	2079.03
741.157	2240.82
741.342	2097.46
741.528	2124.08
741.713	2185.52
741.898	2199.86
742.084	2140.47
742.269	2148.66
742.454	2201.91
742.639	2070.84
742.824	2044.21
743.01	2134.32
743.195	2117.94
743.38	2081.08
743.565	2171.19
743.75	1986.87
743.935	2144.56
744.12	2068.79
744.305	2050.36
744.49	2038.07
744.675	2013.49
744.86	2117.94
745.045	2113.85
745.23	2036.02
745.415	2025.78
745.6	2060.6
745.785	1952.06
745.97	2019.64
746.155	1972.54
746.34	1898.81
746.525	1945.91
746.71	1972.54
746.895	1929.53
747.079	1972.54
747.264	1863.99
747.449	1941.82
747.634	1833.27
747.819	1861.94
748.003	1870.14
748.188	1775.93
748.373	1741.11
748.557	1863.99
748.742	1802.55
748.927	1872.18
749.111	1816.89
749.296	1691.96
749.481	1728.83
749.665	1878.33
749.85	1675.58
750.034	1788.22
750.219	1829.18
750.404	1759.55
750.588	1646.91
750.773	1644.86
750.957	1724.73
751.141	1784.12
751.326	1714.49
751.51	1642.81
751.695	1591.61
751.879	1616.19
752.064	1689.92
752.248	1581.37
752.432	1681.72
752.617	1634.62
752.801	1503.55
752.985	1581.37
753.17	1634.62
753.354	1536.32
753.538	1564.99
753.722	1519.93
753.907	1454.4
754.091	1409.34
754.275	1499.45
754.459	1476.93
754.643	1495.36
754.828	1515.84
755.012	1417.54
755.196	1470.78
755.38	1308.99
755.564	1458.5
755.748	1368.38
755.932	1386.82
756.116	1468.73
756.3	1364.29
756.484	1372.48
756.668	1388.86
756.852	1362.24
757.036	1300.8
757.22	1395.01
757.404	1370.43
757.588	1206.59
757.772	1380.67
757.956	1280.32
758.14	1374.53
758.323	1241.41
758.507	1294.66
758.691	1261.89
758.875	1268.03
759.059	1290.56
759.242	1222.98
759.426	1280.32
759.61	1235.27
759.794	1259.84
759.977	1116.48
760.161	1292.61
760.345	1147.2
760.528	1188.16
760.712	1194.31
760.895	1050.95
761.079	1192.26
761.263	1177.92
761.446	1194.31
761.63	1194.31
761.813	1120.58
761.997	1050.95
762.18	1169.73
762.364	1171.78
762.547	1136.96
762.731	1009.99
762.914	1126.72
763.098	1106.24
763.281	1112.39
763.464	1130.82
763.648	1098.05
763.831	962.89
764.015	962.89
764.198	1057.09
764.381	1057.09
764.564	1136.96
764.748	1143.11
764.931	1061.19
765.114	975.17
765.297	1071.43
765.481	940.36
765.664	952.65
765.847	991.56
766.03	1042.76
766.213	1007.94
766.397	999.75
766.58	971.08
766.763	969.03
766.946	911.69
767.129	1001.8
767.312	997.7
767.495	878.92
767.678	1003.85
767.861	891.21
768.044	993.61
768.227	1028.42
768.41	975.17
768.593	979.27
768.776	942.41
768.959	966.98
769.142	923.98
769.324	903.5
769.507	911.69
769.69	942.41
769.873	950.6
770.056	903.5
770.239	932.17
770.421	889.16
770.604	944.45
770.787	899.4
770.97	971.08
771.152	909.64
771.335	923.98
771.518	803.15
771.7	895.3
771.883	858.44
772.066	809.29
772.248	883.02
772.431	809.29
772.613	833.86
772.796	794.95
772.978	778.57
773.161	813.38
773.343	772.43
773.526	862.54
773.708	848.2
773.891	706.89
774.073	766.28
774.256	813.38
774.438	803.15
774.621	788.81
774.803	731.47
774.985	715.08
775.168	819.53
775.35	835.91
775.532	760.14
775.715	692.55
775.897	729.42
776.079	713.03
776.261	749.9
776.444	692.55
776.626	704.84
776.808	706.89
776.99	731.47
777.173	756.04
777.355	670.03
777.537	674.12
777.719	706.89
777.901	727.37
778.083	678.22
778.265	536.91
778.447	596.3
778.629	674.12
778.811	629.07
778.993	612.68
779.175	606.54
779.357	592.2
779.539	672.08
779.721	600.4
779.903	639.31
780.085	481.61
780.267	647.5
780.449	557.39
780.631	536.91
780.812	592.2
780.994	641.36
781.176	549.2
781.358	575.82
781.54	524.62
781.721	616.78
781.903	528.72
782.085	614.73
782.267	557.39
782.448	530.77
782.63	510.29
782.812	516.43
782.993	594.25
783.175	541.01
783.357	553.29
783.538	512.33
783.72	442.7
783.901	555.34
784.083	467.28
784.264	473.42
784.446	514.38
784.627	526.67
784.809	557.39
784.99	512.33
785.172	498
785.353	459.09
785.535	491.85
785.716	440.65
785.897	313.68
786.079	371.02
786.26	440.65
786.441	500.05
786.623	395.6
786.804	508.24
786.985	379.22
787.167	442.7
787.348	364.88
787.529	428.37
787.71	409.94
787.891	493.9
788.073	405.84
788.254	440.65
788.435	405.84
788.616	487.76
788.797	473.42
788.978	377.17
789.159	426.32
789.34	366.93
789.522	303.44
789.703	416.08
789.884	432.46
790.065	420.17
790.246	395.6
790.427	387.41
790.607	379.22
790.788	428.37
790.969	407.89
791.15	352.59
791.331	371.02
791.512	334.16
791.693	348.5
791.874	373.07
792.054	430.41
792.235	307.54
792.416	278.87
792.597	323.92
792.778	344.4
792.958	344.4
793.139	344.4
793.32	354.64
793.5	264.53
793.681	330.06
793.862	346.45
794.042	368.98
794.223	282.96
794.404	342.35
794.584	262.48
794.765	328.02
794.945	325.97
795.126	330.06
795.306	344.4
795.487	258.39
795.667	231.76
795.848	368.98
796.028	293.2
796.209	276.82
796.389	350.54
796.57	362.83
796.75	383.31
796.93	248.15
797.111	293.2
797.291	280.91
797.471	182.61
797.652	278.87
797.832	225.62
798.012	321.87
798.192	270.67
798.373	233.81
798.553	270.67
798.733	276.82
798.913	313.68
799.093	237.91
799.274	176.47
799.454	276.82
799.634	287.06
799.814	225.62
799.994	174.42
800.174	285.01
800.354	260.43
800.534	252.24
800.714	264.53
800.894	223.57
801.074	198.99
801.254	235.86
801.434	248.15
801.614	274.77
801.794	248.15
801.974	581.96
802.154	196.95
802.334	217.43
802.514	149.84
802.693	176.47
802.873	274.77
803.053	207.19
803.233	258.39
803.413	229.71
803.592	293.2
803.772	266.58
803.952	186.71
804.131	205.14
804.311	237.91
804.491	219.47
804.67	172.37
804.85	211.28
805.03	145.75
805.209	270.67
805.389	176.47
805.568	198.99
805.748	250.19
805.928	254.29
806.107	231.76
806.287	194.9
806.466	172.37
806.646	176.47
806.825	229.71
807.004	184.66
807.184	188.75
807.363	182.61
807.543	196.95
807.722	160.08
807.901	211.28
808.081	221.52
808.26	178.51
808.439	256.34
808.619	186.71
808.798	248.15
808.977	160.08
809.156	168.27
809.336	213.33
809.515	166.23
809.694	172.37
809.873	153.94
810.052	231.76
810.231	205.14
810.411	223.57
810.59	215.38
810.769	205.14
810.948	178.51
811.127	186.71
811.306	166.23
811.485	244.05
811.664	237.91
811.843	192.85
812.022	164.18
812.201	166.23
812.38	155.99
812.559	106.84
812.737	158.03
812.916	84.31
813.095	129.36
813.274	178.51
813.453	135.51
813.632	170.32
813.811	194.9
813.989	121.17
814.168	270.67
814.347	127.32
814.526	192.85
814.704	72.02
814.883	219.47
815.062	211.28
815.24	196.95
815.419	129.36
815.598	166.23
815.776	170.32
815.955	170.32
816.133	108.88
816.312	225.62
816.49	104.79
816.669	164.18
816.847	117.08
817.026	184.66
817.204	172.37
817.383	147.8
817.561	63.83
817.74	125.27
817.918	61.78
818.097	131.41
818.275	76.12
818.453	63.83
818.632	88.4
818.81	143.7
818.988	121.17
819.167	141.65
819.345	76.12
819.523	133.46
819.701	92.5
819.879	147.8
820.058	192.85
820.236	131.41
820.414	94.55
820.592	182.61
820.77	133.46
820.948	100.69
821.127	115.03
821.305	98.64
821.483	160.08
821.661	194.9
821.839	149.84
822.017	127.32
822.195	100.69
822.373	110.93
822.551	35.16
822.729	72.02
822.907	80.21
823.085	137.56
823.262	119.12
823.44	106.84
823.618	82.26
823.796	115.03
823.974	96.6
824.152	84.31
824.329	153.94
824.507	94.55
824.685	115.03
824.863	74.07
825.04	69.97
825.218	145.75
825.396	92.5
825.574	135.51
825.751	100.69
825.929	112.98
826.107	76.12
826.284	145.75
826.462	80.21
826.639	98.64
826.817	196.95
826.994	155.99
827.172	117.08
827.349	145.75
827.527	100.69
827.704	88.4
827.882	162.13
828.059	63.83
828.237	153.94
828.414	137.56
828.591	80.21
828.769	147.8
828.946	100.69
829.124	76.12
829.301	80.21
829.478	102.74
829.655	112.98
829.833	53.59
830.01	57.68
830.187	145.75
830.364	-3.75
830.542	102.74
830.719	102.74
830.896	74.07
831.073	67.92
831.25	65.88
831.427	63.83
831.604	63.83
831.782	90.45
831.959	43.35
832.136	137.56
832.313	121.17
832.49	57.68
832.667	110.93
832.844	90.45
833.021	67.92
833.198	53.59
833.374	129.36
833.551	-5.8
833.728	78.16
833.905	123.22
834.082	55.64
834.259	78.16
834.436	123.22
834.612	47.44
834.789	82.26
834.966	8.53
835.143	67.92
835.319	37.2
835.496	98.64
835.673	127.32
835.85	-7.85
836.026	162.13
836.203	137.56
836.38	45.4
836.556	16.73
836.733	22.87
836.909	100.69
837.086	35.16
837.262	96.6
837.439	98.64
837.616	65.88
837.792	-9.9
837.968	57.68
838.145	69.97
838.321	80.21
838.498	10.58
838.674	90.45
838.851	88.4
839.027	94.55
839.203	69.97
839.38	92.5
839.556	61.78
839.732	90.45
839.909	125.27
840.085	74.07
840.261	12.63
840.437	69.97
840.614	47.44
840.79	125.27
840.966	65.88
841.142	92.5
841.318	41.3
841.494	104.79
841.671	119.12
841.847	-13.99
842.023	88.4
842.199	18.77
842.375	69.97
842.551	35.16
842.727	61.78
842.903	112.98
843.079	-5.8
843.255	82.26
843.431	-18.09
843.607	108.88
843.783	49.49
843.959	43.35
844.134	61.78
844.31	57.68
844.486	102.74
844.662	12.63
844.838	10.58
845.013	84.31
845.189	-7.85
845.365	69.97
845.541	74.07
845.716	110.93
845.892	72.02
846.068	49.49
846.244	74.07
846.419	115.03
846.595	-3.75
846.77	37.2
846.946	39.25
847.122	-3.75
847.297	65.88
847.473	127.32
847.648	24.92
847.824	31.06
847.999	69.97
848.175	90.45
848.35	14.68
848.526	84.31
848.701	10.58
848.876	80.21
849.052	22.87
849.227	37.2
849.403	-28.33
849.578	88.4
849.753	59.73
849.929	80.21
850.104	-20.14
850.279	16.73
850.454	49.49
850.63	74.07
850.805	-5.8
850.98	12.63
851.155	-1.71
851.33	72.02
851.505	31.06
851.681	-16.04
851.856	72.02
852.031	65.88
852.206	53.59
852.381	76.12
852.556	-22.19
852.731	39.25
852.906	45.4
853.081	53.59
853.256	35.16
853.431	59.73
853.606	10.58
853.781	-1.71
853.956	8.53
854.131	-13.99
854.305	41.3
854.48	16.73
854.655	84.31
854.83	39.25
855.005	2.39
855.18	88.4
855.354	4.44
855.529	67.92
855.704	35.16
855.879	74.07
856.053	37.2
856.228	61.78
856.403	-5.8
856.577	12.63
856.752	39.25
856.926	67.92
857.101	43.35
857.276	72.02
857.45	45.4
857.625	-3.75
857.799	16.73
857.974	80.21
858.148	-13.99
858.323	16.73
858.497	12.63
858.672	12.63
858.846	-16.04
859.02	37.2
859.195	29.01
859.369	-5.8
859.543	51.54
859.718	51.54
859.892	10.58
860.066	29.01
860.241	33.11
860.415	-5.8
860.589	-9.9
860.763	20.82
860.938	24.92
861.112	-18.09
861.286	61.78
861.46	76.12
861.634	2.39
861.808	90.45
861.982	2.39
862.157	47.44
862.331	31.06
862.505	24.92
862.679	12.63
862.853	-42.67
863.027	22.87
863.201	41.3
863.375	-7.85
863.549	31.06
863.722	35.16
863.896	55.64
864.07	31.06
864.244	33.11
864.418	121.17
864.592	74.07
864.766	22.87
864.939	47.44
865.113	-42.67
865.287	12.63
865.461	-22.19
865.634	-34.47
865.808	-18.09
865.982	57.68
866.156	-13.99
866.329	12.63
866.503	51.54
866.676	55.64
866.85	-9.9
867.024	26.96
867.197	55.64
867.371	29.01
867.544	39.25
867.718	14.68
867.891	86.36
868.065	41.3
868.238	55.64
868.412	51.54
868.585	22.87
868.759	-40.62
868.932	-1.71
869.105	12.63
869.279	84.31
869.452	53.59
869.625	6.49
869.799	35.16
869.972	-16.04
870.145	41.3
870.319	20.82
870.492	0.34
870.665	10.58
870.838	16.73
871.011	-28.33
871.185	10.58
871.358	16.73
871.531	-7.85
871.704	-36.52
871.877	22.87
872.05	29.01
872.223	26.96
872.396	26.96
872.569	-13.99
872.742	8.53
872.915	43.35
873.088	2.39
873.261	-1.71
873.434	0.34
873.607	39.25
873.78	45.4
873.953	-3.75
874.126	90.45
874.299	-13.99
874.471	43.35
874.644	-11.95
874.817	49.49
874.99	-28.33
875.163	22.87
875.335	78.16
875.508	-5.8
875.681	0.34
875.853	80.21
876.026	78.16
876.199	-3.75
876.371	51.54
876.544	57.68
876.717	-24.23
876.889	20.82
877.062	82.26
877.234	14.68
877.407	4.44
877.579	-5.8
877.752	29.01
877.924	24.92
878.097	18.77
878.269	-24.23
878.442	18.77
878.614	53.59
878.786	-40.62
878.959	67.92
879.131	18.77
879.303	-5.8
879.476	43.35
879.648	31.06
879.82	8.53
879.993	31.06
880.165	20.82
880.337	-16.04
880.509	-1.71
880.681	-11.95
880.854	18.77
881.026	14.68
881.198	100.69
881.37	-22.19
881.542	26.96
881.714	26.96
881.886	12.63
882.058	-28.33
882.23	20.82
882.402	-18.09
882.574	16.73
882.746	-18.09
882.918	20.82
883.09	37.2
883.262	41.3
883.434	8.53
883.606	6.49
883.778	12.63
883.95	33.11
884.122	20.82
884.293	90.45
884.465	41.3
884.637	37.2
884.809	0.34
884.98	-28.33
885.152	-42.67
885.324	-13.99
885.496	-34.47
885.667	6.49
885.839	98.64
886.011	22.87
886.182	-9.9
886.354	55.64
886.525	43.35
886.697	-42.67
886.869	-61.1
887.04	74.07
887.212	67.92
887.383	-20.14
887.555	84.31
887.726	43.35
887.897	-65.19
888.069	26.96
888.24	67.92
888.412	16.73
888.583	0.34
888.754	4.44
888.926	29.01
889.097	31.06
889.268	-11.95
889.44	18.77
889.611	74.07
889.782	-50.86
889.953	0.34
890.125	-48.81
890.296	-91.82
890.467	24.92
890.638	-20.14
890.809	-5.8
890.98	18.77
891.151	29.01
891.323	51.54
891.494	125.27
891.665	-9.9
891.836	24.92
892.007	-22.19
892.178	47.44
892.349	-9.9
892.52	59.73
892.691	2.39
892.862	20.82
893.032	24.92
893.203	-65.19
893.374	-16.04
893.545	61.78
893.716	14.68
893.887	26.96
894.057	24.92
894.228	-16.04
894.399	0.34
894.57	37.2
894.74	-7.85
894.911	47.44
895.082	-24.23
895.253	-7.85
895.423	18.77
895.594	33.11
895.764	-13.99
895.935	10.58
896.106	-1.71
896.276	31.06
896.447	43.35
896.617	35.16
896.788	-13.99
896.958	-5.8
897.129	31.06
897.299	37.2
897.47	24.92
897.64	78.16
897.81	57.68
897.981	-7.85
898.151	2.39
898.322	49.49
898.492	-26.28
898.662	53.59
898.832	-5.8
899.003	-20.14
899.173	35.16
899.343	-3.75
899.513	-28.33
