Data from USB4F104151__97__12-28-23-567.txt Node

Date: Fri Mar 14 12:28:23 EDT 2025
User: louis
Spectrometer: USB4F10415
Trigger mode: 4
Integration Time (sec): 2.000000E-2
Scans to average: 1
Electric dark correction enabled: true
Nonlinearity correction enabled: false
Boxcar width: 0
XAxis mode: Wavelengths
Number of Pixels in Spectrum: 3648
>>>>>Begin Spectral Data<<<<<
178.204	-134.82
178.424	-134.82
178.644	-134.82
178.864	-89.77
179.084	-132.78
179.304	-16.04
179.524	51.54
179.744	-44.71
179.964	47.44
180.184	-18.09
180.404	-24.23
180.624	31.06
180.844	4.44
181.064	-145.06
181.283	-42.67
181.503	45.4
181.723	110.93
181.943	22.87
182.163	16.73
182.383	20.82
182.602	20.82
182.822	41.3
183.042	-13.99
183.262	-20.14
183.482	22.87
183.701	24.92
183.921	37.2
184.141	55.64
184.361	-22.19
184.58	63.83
184.8	63.83
185.02	6.49
185.239	-20.14
185.459	63.83
185.679	10.58
185.898	-28.33
186.118	24.92
186.338	26.96
186.557	76.12
186.777	51.54
186.997	33.11
187.216	-20.14
187.436	24.92
187.655	55.64
187.875	10.58
188.095	12.63
188.314	2.39
188.534	96.6
188.753	26.96
188.973	43.35
189.192	82.26
189.412	65.88
189.631	26.96
189.851	-5.8
190.07	6.49
190.29	-7.85
190.509	-46.76
190.729	-40.62
190.948	121.17
191.168	96.6
191.387	26.96
191.607	22.87
191.826	8.53
192.045	-18.09
192.265	-18.09
192.484	59.73
192.704	12.63
192.923	10.58
193.142	78.16
193.362	86.36
193.581	29.01
193.8	51.54
194.02	67.92
194.239	4.44
194.458	35.16
194.678	37.2
194.897	-7.85
195.116	-9.9
195.335	39.25
195.555	-5.8
195.774	-7.85
195.993	59.73
196.212	-50.86
196.432	-44.71
196.651	35.16
196.87	-22.19
197.089	78.16
197.308	65.88
197.528	51.54
197.747	-32.43
197.966	35.16
198.185	41.3
198.404	37.2
198.623	96.6
198.842	49.49
199.062	-34.47
199.281	74.07
199.5	-1.71
199.719	45.4
199.938	29.01
200.157	94.55
200.376	-63.15
200.595	67.92
200.814	39.25
201.033	47.44
201.252	-1.71
201.471	76.12
201.69	33.11
201.909	10.58
202.128	12.63
202.347	-20.14
202.566	117.08
202.785	43.35
203.004	86.36
203.223	47.44
203.442	47.44
203.661	2.39
203.879	39.25
204.098	53.59
204.317	6.49
204.536	2.39
204.755	-1.71
204.974	18.77
205.193	24.92
205.411	69.97
205.63	61.78
205.849	84.31
206.068	104.79
206.287	74.07
206.505	39.25
206.724	80.21
206.943	-48.81
207.162	41.3
207.381	-24.23
207.599	-5.8
207.818	24.92
208.037	37.2
208.255	2.39
208.474	35.16
208.693	22.87
208.911	-40.62
209.13	55.64
209.349	76.12
209.567	10.58
209.786	59.73
210.005	8.53
210.223	65.88
210.442	49.49
210.661	47.44
210.879	-63.15
211.098	0.34
211.316	16.73
211.535	29.01
211.753	55.64
211.972	8.53
212.191	20.82
212.409	69.97
212.628	104.79
212.846	96.6
213.065	67.92
213.283	76.12
213.502	-7.85
213.72	-20.14
213.938	8.53
214.157	45.4
214.375	51.54
214.594	-13.99
214.812	0.34
215.031	61.78
215.249	24.92
215.467	-28.33
215.686	33.11
215.904	35.16
216.122	72.02
216.341	8.53
216.559	51.54
216.778	16.73
216.996	59.73
217.214	33.11
217.432	-1.71
217.651	39.25
217.869	-24.23
218.087	41.3
218.306	-65.19
218.524	49.49
218.742	74.07
218.96	69.97
219.179	49.49
219.397	26.96
219.615	-16.04
219.833	78.16
220.051	-16.04
220.27	12.63
220.488	84.31
220.706	26.96
220.924	43.35
221.142	57.68
221.36	37.2
221.578	20.82
221.796	-44.71
222.015	24.92
222.233	72.02
222.451	-1.71
222.669	-71.34
222.887	39.25
223.105	43.35
223.323	39.25
223.541	41.3
223.759	31.06
223.977	-42.67
224.195	35.16
224.413	86.36
224.631	86.36
224.849	84.31
225.067	102.74
225.285	-5.8
225.503	96.6
225.721	37.2
225.939	20.82
226.157	88.4
226.375	115.03
226.592	-44.71
226.81	-5.8
227.028	41.3
227.246	39.25
227.464	33.11
227.682	80.21
227.9	-32.43
228.117	33.11
228.335	47.44
228.553	74.07
228.771	43.35
228.989	29.01
229.206	2.39
229.424	94.55
229.642	47.44
229.86	-38.57
230.077	14.68
230.295	78.16
230.513	26.96
230.731	35.16
230.948	4.44
231.166	41.3
231.384	-32.43
231.601	-13.99
231.819	18.77
232.037	59.73
232.254	33.11
232.472	16.73
232.689	-22.19
232.907	14.68
233.125	20.82
233.342	4.44
233.56	59.73
233.777	-18.09
233.995	-9.9
234.213	55.64
234.43	10.58
234.648	-18.09
234.865	76.12
235.083	82.26
235.3	4.44
235.518	61.78
235.735	72.02
235.953	45.4
236.17	20.82
236.388	-30.38
236.605	33.11
236.822	63.83
237.04	39.25
237.257	51.54
237.475	10.58
237.692	61.78
237.909	12.63
238.127	29.01
238.344	43.35
238.562	69.97
238.779	43.35
238.996	61.78
239.214	-11.95
239.431	69.97
239.648	-9.9
239.865	72.02
240.083	96.6
240.3	43.35
240.517	63.83
240.735	29.01
240.952	12.63
241.169	74.07
241.386	106.84
241.603	51.54
241.821	39.25
242.038	96.6
242.255	69.97
242.472	-34.47
242.689	-52.91
242.907	18.77
243.124	-24.23
243.341	86.36
243.558	16.73
243.775	-100.01
243.992	4.44
244.209	88.4
244.426	31.06
244.643	29.01
244.86	-24.23
245.078	78.16
245.295	-16.04
245.512	-7.85
245.729	20.82
245.946	-18.09
246.163	0.34
246.38	74.07
246.597	88.4
246.814	90.45
247.031	43.35
247.248	0.34
247.464	-13.99
247.681	57.68
247.898	10.58
248.115	0.34
248.332	35.16
248.549	-5.8
248.766	24.92
248.983	22.87
249.2	37.2
249.417	65.88
249.633	106.84
249.85	67.92
250.067	39.25
250.284	51.54
250.501	31.06
250.717	92.5
250.934	-9.9
251.151	0.34
251.368	53.59
251.585	6.49
251.801	84.31
252.018	45.4
252.235	22.87
252.451	0.34
252.668	80.21
252.885	24.92
253.102	102.74
253.318	69.97
253.535	33.11
253.752	26.96
253.968	-42.67
254.185	-3.75
254.401	51.54
254.618	8.53
254.835	39.25
255.051	74.07
255.268	20.82
255.484	24.92
255.701	53.59
255.917	92.5
256.134	63.83
256.351	12.63
256.567	45.4
256.784	10.58
257	-28.33
257.217	104.79
257.433	45.4
257.65	67.92
257.866	14.68
258.082	24.92
258.299	33.11
258.515	80.21
258.732	43.35
258.948	0.34
259.165	-3.75
259.381	110.93
259.597	74.07
259.814	35.16
260.03	22.87
260.246	53.59
260.463	37.2
260.679	-5.8
260.895	55.64
261.112	72.02
261.328	-20.14
261.544	57.68
261.761	88.4
261.977	96.6
262.193	0.34
262.409	69.97
262.626	24.92
262.842	20.82
263.058	26.96
263.274	-1.71
263.49	12.63
263.707	49.49
263.923	-44.71
264.139	47.44
264.355	49.49
264.571	47.44
264.787	110.93
265.004	10.58
265.22	8.53
265.436	33.11
265.652	39.25
265.868	-40.62
266.084	37.2
266.3	14.68
266.516	63.83
266.732	78.16
266.948	4.44
267.164	72.02
267.38	26.96
267.596	26.96
267.812	63.83
268.028	37.2
268.244	45.4
268.46	-93.87
268.676	35.16
268.892	-46.76
269.108	-1.71
269.324	8.53
269.54	33.11
269.756	61.78
269.972	-40.62
270.188	55.64
270.403	22.87
270.619	-5.8
270.835	59.73
271.051	84.31
271.267	-7.85
271.483	41.3
271.698	2.39
271.914	2.39
272.13	24.92
272.346	69.97
272.562	18.77
272.777	112.98
272.993	-20.14
273.209	24.92
273.425	108.88
273.64	18.77
273.856	26.96
274.072	2.39
274.287	-36.52
274.503	84.31
274.719	94.55
274.934	37.2
275.15	14.68
275.366	49.49
275.581	72.02
275.797	4.44
276.012	-54.95
276.228	-34.47
276.444	53.59
276.659	49.49
276.875	20.82
277.09	39.25
277.306	82.26
277.521	43.35
277.737	18.77
277.952	49.49
278.168	92.5
278.383	51.54
278.599	37.2
278.814	94.55
279.03	-54.95
279.245	37.2
279.461	86.36
279.676	76.12
279.892	-28.33
280.107	53.59
280.322	78.16
280.538	4.44
280.753	-59.05
280.969	67.92
281.184	-18.09
281.399	51.54
281.615	92.5
281.83	37.2
282.045	18.77
282.26	37.2
282.476	16.73
282.691	35.16
282.906	39.25
283.122	112.98
283.337	41.3
283.552	72.02
283.767	-44.71
283.983	45.4
284.198	45.4
284.413	39.25
284.628	-24.23
284.843	26.96
285.058	86.36
285.274	102.74
285.489	18.77
285.704	117.08
285.919	14.68
286.134	0.34
286.349	35.16
286.564	10.58
286.779	-13.99
286.995	-1.71
287.21	55.64
287.425	80.21
287.64	8.53
287.855	43.35
288.07	43.35
288.285	61.78
288.5	-20.14
288.715	53.59
288.93	76.12
289.145	-3.75
289.36	-1.71
289.575	26.96
289.79	-24.23
290.004	29.01
290.219	84.31
290.434	37.2
290.649	49.49
290.864	53.59
291.079	65.88
291.294	-1.71
291.509	104.79
291.724	20.82
291.938	14.68
292.153	31.06
292.368	-28.33
292.583	16.73
292.798	33.11
293.012	96.6
293.227	61.78
293.442	37.2
293.657	67.92
293.871	96.6
294.086	74.07
294.301	67.92
294.516	26.96
294.73	31.06
294.945	10.58
295.16	45.4
295.374	57.68
295.589	20.82
295.804	67.92
296.018	63.83
296.233	86.36
296.447	119.12
296.662	63.83
296.877	4.44
297.091	26.96
297.306	20.82
297.52	49.49
297.735	4.44
297.949	41.3
298.164	65.88
298.378	18.77
298.593	-24.23
298.807	4.44
299.022	41.3
299.236	80.21
299.451	-38.57
299.665	63.83
299.88	26.96
300.094	53.59
300.309	57.68
300.523	41.3
300.737	37.2
300.952	-34.47
301.166	57.68
301.381	37.2
301.595	53.59
301.809	35.16
302.024	-1.71
302.238	-36.52
302.452	47.44
302.667	59.73
302.881	53.59
303.095	-20.14
303.309	-5.8
303.524	88.4
303.738	37.2
303.952	20.82
304.166	-13.99
304.381	-30.38
304.595	-3.75
304.809	31.06
305.023	33.11
305.237	24.92
305.452	16.73
305.666	51.54
305.88	24.92
306.094	8.53
306.308	31.06
306.522	61.78
306.736	39.25
306.95	74.07
307.164	78.16
307.379	51.54
307.593	65.88
307.807	59.73
308.021	61.78
308.235	14.68
308.449	-28.33
308.663	41.3
308.877	129.36
309.091	12.63
309.305	0.34
309.519	-11.95
309.733	69.97
309.947	-69.29
310.161	108.88
310.374	-11.95
310.588	123.22
310.802	37.2
311.016	55.64
311.23	139.6
311.444	14.68
311.658	41.3
311.872	110.93
312.085	39.25
312.299	65.88
312.513	6.49
312.727	4.44
312.941	55.64
313.154	20.82
313.368	14.68
313.582	61.78
313.796	110.93
314.009	-52.91
314.223	26.96
314.437	78.16
314.651	-32.43
314.864	57.68
315.078	18.77
315.292	-18.09
315.505	2.39
315.719	18.77
315.933	4.44
316.146	57.68
316.36	-28.33
316.573	16.73
316.787	14.68
317.001	106.84
317.214	-5.8
317.428	-13.99
317.641	-7.85
317.855	35.16
318.068	47.44
318.282	63.83
318.495	41.3
318.709	55.64
318.922	35.16
319.136	-1.71
319.349	31.06
319.563	43.35
319.776	2.39
319.99	-44.71
320.203	108.88
320.417	31.06
320.63	57.68
320.843	43.35
321.057	51.54
321.27	78.16
321.483	82.26
321.697	29.01
321.91	41.3
322.124	69.97
322.337	112.98
322.55	12.63
322.763	2.39
322.977	39.25
323.19	41.3
323.403	57.68
323.617	108.88
323.83	98.64
324.043	78.16
324.256	24.92
324.469	49.49
324.683	55.64
324.896	43.35
325.109	26.96
325.322	63.83
325.535	67.92
325.748	-26.28
325.962	-46.76
326.175	123.22
326.388	63.83
326.601	12.63
326.814	90.45
327.027	-9.9
327.24	61.78
327.453	18.77
327.666	41.3
327.879	76.12
328.092	39.25
328.305	57.68
328.518	69.97
328.731	94.55
328.944	53.59
329.157	69.97
329.37	59.73
329.583	55.64
329.796	45.4
330.009	-5.8
330.222	37.2
330.435	18.77
330.648	49.49
330.861	24.92
331.073	37.2
331.286	102.74
331.499	94.55
331.712	4.44
331.925	55.64
332.138	31.06
332.35	37.2
332.563	45.4
332.776	59.73
332.989	-1.71
333.202	-3.75
333.414	63.83
333.627	82.26
333.84	49.49
334.053	88.4
334.265	74.07
334.478	67.92
334.691	72.02
334.903	8.53
335.116	-20.14
335.329	104.79
335.541	65.88
335.754	45.4
335.966	14.68
336.179	82.26
336.392	20.82
336.604	49.49
336.817	69.97
337.029	49.49
337.242	59.73
337.454	72.02
337.667	-1.71
337.88	37.2
338.092	33.11
338.305	51.54
338.517	-3.75
338.729	33.11
338.942	39.25
339.154	12.63
339.367	26.96
339.579	10.58
339.792	-18.09
340.004	-36.52
340.217	37.2
340.429	6.49
340.641	59.73
340.854	14.68
341.066	78.16
341.278	112.98
341.491	74.07
341.703	59.73
341.915	8.53
342.128	-5.8
342.34	-20.14
342.552	76.12
342.764	24.92
342.977	24.92
343.189	26.96
343.401	72.02
343.613	-13.99
343.826	12.63
344.038	74.07
344.25	41.3
344.462	82.26
344.674	112.98
344.886	94.55
345.099	53.59
345.311	37.2
345.523	45.4
345.735	-20.14
345.947	41.3
346.159	-7.85
346.371	49.49
346.583	31.06
346.795	94.55
347.007	92.5
347.219	-3.75
347.431	49.49
347.643	69.97
347.855	35.16
348.067	117.08
348.279	16.73
348.491	106.84
348.703	37.2
348.915	49.49
349.127	78.16
349.339	10.58
349.551	8.53
349.763	24.92
349.975	37.2
350.187	57.68
350.399	59.73
350.61	92.5
350.822	-9.9
351.034	76.12
351.246	0.34
351.458	14.68
351.669	106.84
351.881	110.93
352.093	72.02
352.305	14.68
352.517	100.69
352.728	51.54
352.94	14.68
353.152	35.16
353.363	84.31
353.575	92.5
353.787	31.06
353.999	102.74
354.21	61.78
354.422	69.97
354.633	104.79
354.845	4.44
355.057	82.26
355.268	37.2
355.48	29.01
355.692	41.3
355.903	57.68
356.115	4.44
356.326	35.16
356.538	20.82
356.749	57.68
356.961	108.88
357.172	43.35
357.384	61.78
357.595	61.78
357.807	135.51
358.018	-11.95
358.23	51.54
358.441	119.12
358.653	96.6
358.864	108.88
359.075	47.44
359.287	-5.8
359.498	86.36
359.709	80.21
359.921	80.21
360.132	117.08
360.344	2.39
360.555	26.96
360.766	92.5
360.977	63.83
361.189	31.06
361.4	47.44
361.611	106.84
361.823	43.35
362.034	100.69
362.245	8.53
362.456	143.7
362.667	14.68
362.879	67.92
363.09	72.02
363.301	26.96
363.512	33.11
363.723	35.16
363.935	-67.24
364.146	90.45
364.357	100.69
364.568	14.68
364.779	14.68
364.99	74.07
365.201	-13.99
365.412	53.59
365.623	2.39
365.834	53.59
366.045	-36.52
366.256	76.12
366.467	45.4
366.678	67.92
366.889	57.68
367.1	84.31
367.311	12.63
367.522	4.44
367.733	-20.14
367.944	29.01
368.155	0.34
368.366	65.88
368.577	-83.63
368.788	-11.95
368.999	88.4
369.209	49.49
369.42	104.79
369.631	76.12
369.842	86.36
370.053	12.63
370.264	78.16
370.474	24.92
370.685	69.97
370.896	37.2
371.107	119.12
371.317	86.36
371.528	16.73
371.739	106.84
371.95	74.07
372.16	106.84
372.371	31.06
372.582	80.21
372.792	57.68
373.003	20.82
373.214	184.66
373.424	96.6
373.635	45.4
373.846	78.16
374.056	29.01
374.267	10.58
374.477	100.69
374.688	47.44
374.898	-3.75
375.109	110.93
375.319	61.78
375.53	94.55
375.74	65.88
375.951	35.16
376.161	117.08
376.372	96.6
376.582	4.44
376.793	55.64
377.003	78.16
377.214	82.26
377.424	41.3
377.635	51.54
377.845	110.93
378.055	41.3
378.266	14.68
378.476	-36.52
378.686	53.59
378.897	35.16
379.107	88.4
379.317	63.83
379.528	-3.75
379.738	94.55
379.948	96.6
380.158	108.88
380.369	117.08
380.579	39.25
380.789	65.88
380.999	90.45
381.21	76.12
381.42	96.6
381.63	49.49
381.84	41.3
382.05	18.77
382.261	59.73
382.471	57.68
382.681	18.77
382.891	61.78
383.101	45.4
383.311	47.44
383.521	8.53
383.731	2.39
383.941	24.92
384.151	59.73
384.361	47.44
384.571	20.82
384.781	47.44
384.991	108.88
385.201	74.07
385.411	119.12
385.621	76.12
385.831	-9.9
386.041	84.31
386.251	-50.86
386.461	92.5
386.671	39.25
386.881	106.84
387.091	106.84
387.301	67.92
387.511	20.82
387.72	82.26
387.93	96.6
388.14	59.73
388.35	35.16
388.56	53.59
388.769	-5.8
388.979	108.88
389.189	65.88
389.399	72.02
389.609	22.87
389.818	43.35
390.028	47.44
390.238	18.77
390.447	31.06
390.657	69.97
390.867	102.74
391.076	-1.71
391.286	69.97
391.496	53.59
391.705	55.64
391.915	104.79
392.125	37.2
392.334	61.78
392.544	35.16
392.753	76.12
392.963	53.59
393.172	155.99
393.382	31.06
393.591	207.19
393.801	65.88
394.01	86.36
394.22	117.08
394.429	65.88
394.639	14.68
394.848	92.5
395.058	112.98
395.267	112.98
395.477	145.75
395.686	84.31
395.895	61.78
396.105	180.56
396.314	102.74
396.524	106.84
396.733	141.65
396.942	80.21
397.152	88.4
397.361	82.26
397.57	74.07
397.78	37.2
397.989	74.07
398.198	108.88
398.407	76.12
398.617	90.45
398.826	74.07
399.035	100.69
399.244	86.36
399.453	104.79
399.663	88.4
399.872	86.36
400.081	117.08
400.29	213.33
400.499	74.07
400.708	139.6
400.917	90.45
401.127	119.12
401.336	14.68
401.545	182.61
401.754	131.41
401.963	84.31
402.172	104.79
402.381	92.5
402.59	20.82
402.799	178.51
403.008	86.36
403.217	162.13
403.426	149.84
403.635	67.92
403.844	149.84
404.053	117.08
404.262	98.64
404.471	155.99
404.68	141.65
404.888	209.23
405.097	139.6
405.306	192.85
405.515	112.98
405.724	170.32
405.933	131.41
406.142	192.85
406.35	229.71
406.559	176.47
406.768	192.85
406.977	190.8
407.185	174.42
407.394	225.62
407.603	196.95
407.812	196.95
408.02	227.67
408.229	239.95
408.438	196.95
408.646	205.14
408.855	186.71
409.064	315.73
409.272	262.48
409.481	315.73
409.69	303.44
409.898	313.68
410.107	305.49
410.315	368.98
410.524	297.3
410.733	276.82
410.941	299.34
411.15	385.36
411.358	346.45
411.567	373.07
411.775	358.74
411.984	307.54
412.192	428.37
412.401	389.46
412.609	477.52
412.818	469.33
413.026	448.85
413.234	434.51
413.443	508.24
413.651	471.37
413.86	504.14
414.068	567.63
414.276	584.01
414.485	555.34
414.693	559.44
414.901	684.36
415.11	618.83
415.318	647.5
415.526	657.74
415.734	717.13
415.943	729.42
416.151	745.8
416.359	840.01
416.567	854.34
416.776	844.1
416.984	827.72
417.192	852.3
417.4	856.39
417.608	891.21
417.817	1026.37
418.025	1003.85
418.233	1067.33
418.441	1065.29
418.649	1087.81
418.857	1210.69
419.065	1225.03
419.273	1141.06
419.481	1190.21
419.689	1382.72
419.897	1308.99
420.105	1366.34
420.313	1456.45
420.521	1521.98
420.729	1562.94
420.937	1595.71
421.145	1560.89
421.353	1673.53
421.561	1651
421.769	1730.87
421.977	1925.43
422.185	1868.09
422.393	2011.45
422.601	2019.64
422.809	2130.23
423.017	2163
423.224	2267.44
423.432	2263.35
423.64	2285.87
423.848	2550.06
424.056	2478.38
424.263	2568.49
424.471	2648.36
424.679	2711.85
424.887	2754.86
425.094	2855.21
425.302	3060.01
425.51	3066.15
425.718	3105.06
425.925	3182.88
426.133	3295.52
426.341	3576.09
426.548	3682.59
426.756	3750.17
426.964	3606.81
427.171	3997.98
427.379	3963.16
427.586	3897.63
427.794	4167.96
428.001	4217.11
428.209	4417.81
428.417	4454.67
428.624	4739.34
428.832	4739.34
429.039	4792.59
429.247	4854.03
429.454	5224.71
429.662	5409.03
429.869	5232.9
430.076	5683.45
430.284	5454.08
430.491	5595.39
430.699	5867.77
430.906	5884.16
431.114	5990.65
431.321	6332.66
431.528	6379.76
431.736	6725.87
431.943	7071.98
432.15	6877.42
432.358	7125.22
432.565	7461.09
432.772	7330.02
432.979	7690.46
433.187	7919.84
433.394	7762.14
433.601	8343.77
433.808	8532.18
434.016	8577.23
434.223	8573.14
434.43	9248.97
434.637	9228.49
434.844	9607.36
435.052	9547.97
435.259	9812.16
435.466	9832.64
435.673	9818.3
435.88	10371.26
436.087	11010.22
436.294	10959.02
436.501	10633.4
436.708	10854.58
436.915	11298.98
437.122	11833.5
437.329	11608.23
437.537	12241.05
437.743	12241.05
437.95	12265.63
438.157	12841.11
438.364	13277.32
438.571	13279.37
438.778	13262.99
438.985	14678.13
439.192	14014.59
439.399	14426.23
439.606	14213.24
439.813	15163.5
440.02	15714.41
440.227	15491.18
440.433	15468.65
440.64	16111.71
440.847	16005.22
441.054	16259.17
441.261	17373.26
441.467	16971.86
441.674	17631.3
441.881	18194.5
442.088	18065.47
442.294	18114.62
442.501	18647.1
442.708	18851.89
442.914	19585.07
443.121	20303.9
443.328	19808.3
443.534	21092.37
443.741	20420.64
443.948	20475.93
444.154	21776.39
444.361	21837.83
444.568	21780.49
444.774	21993.48
444.981	22464.51
445.187	22728.7
445.394	23580.65
445.6	23556.08
445.807	25909.19
446.013	24506.34
446.22	25309.14
446.426	25964.49
446.633	26150.85
446.839	27144.12
447.046	26167.24
447.252	27664.3
447.459	27748.27
447.665	27207.61
447.871	28694.43
448.078	29749.14
448.284	28141.48
448.491	29169.56
448.697	30631.81
448.903	30619.52
449.11	30930.81
449.316	30549.89
449.522	31033.21
449.728	31768.43
449.935	32288.62
450.141	32182.12
450.347	32841.57
450.553	31846.26
450.76	32147.31
450.966	33202.01
451.172	33021.79
451.378	33970
451.584	33064.8
451.791	33630.04
451.997	34113.36
452.203	34590.53
452.409	34967.36
452.615	34205.52
452.821	33122.14
453.027	32565.09
453.233	34641.73
453.44	32952.16
453.646	33519.45
453.852	33384.28
454.058	34217.8
454.264	33017.69
454.47	33970
454.676	32917.34
454.882	34133.84
455.088	31149.95
455.294	31539.06
455.5	32579.43
455.705	32530.28
455.911	31459.19
456.117	30586.75
456.323	30193.54
456.529	28811.17
456.735	29659.02
456.941	28968.86
457.147	28663.71
457.352	28016.55
457.558	27441.07
457.764	27725.74
457.97	27248.57
458.176	26402.75
458.381	26562.5
458.587	25276.37
458.793	25067.48
458.999	23734.25
459.204	25774.03
459.41	24924.12
459.616	23318.51
459.821	23588.85
460.027	22859.77
460.233	22562.81
460.438	21446.67
460.644	21688.33
460.85	20607
461.055	20539.42
461.261	20588.57
461.466	18821.17
461.672	18202.69
461.878	19679.27
462.083	18421.82
462.289	17991.75
462.494	17958.98
462.7	17266.77
462.905	16451.67
463.111	16982.1
463.316	17389.64
463.522	16853.08
463.727	16869.46
463.932	16963.67
464.138	16707.67
464.343	16803.92
464.549	16009.31
464.754	16826.45
464.959	16762.97
465.165	16801.88
465.37	15710.31
465.575	15448.17
465.781	16177.25
465.986	16197.73
466.191	15335.53
466.397	15329.39
466.602	14729.33
466.807	14897.27
467.012	15194.22
467.218	14827.64
467.423	14569.59
467.628	14764.15
467.833	15589.48
468.038	14844.02
468.244	14428.28
468.449	15126.64
468.654	14635.13
468.859	14514.3
469.064	14352.51
469.269	14014.59
469.474	14033.02
469.679	14170.24
469.885	13830.27
470.09	13987.97
470.295	13957.25
470.5	13553.8
470.705	13486.22
470.91	13326.47
471.115	13240.46
471.32	13480.07
471.525	13193.36
471.73	12976.27
471.935	13090.96
472.139	12802.19
472.344	12724.37
472.549	12595.35
472.754	12298.39
472.959	12384.41
473.164	11782.31
473.369	12101.79
473.574	12230.81
473.778	12066.97
473.983	11813.03
474.188	11782.31
474.393	11325.61
474.598	11534.5
474.802	11346.09
475.007	11325.61
475.212	11466.92
475.417	10877.1
475.621	11018.41
475.826	10911.92
476.031	10731.7
476.235	10537.14
476.44	10571.96
476.645	10590.39
476.849	10467.51
477.054	10205.37
477.259	10174.65
477.463	10084.54
477.668	9898.17
477.872	10037.44
478.077	9963.71
478.282	9724.1
478.486	9525.44
478.691	9547.97
478.895	9466.05
479.1	9271.5
479.304	9455.81
479.509	9126.09
479.713	9265.35
479.918	9171.15
480.122	9144.52
480.326	9091.27
480.531	9216.2
480.735	9121.99
480.94	8898.77
481.144	9134.28
481.348	8796.37
481.553	8958.16
481.757	8698.06
481.961	8939.72
482.166	9009.36
482.37	8808.65
482.574	8573.14
482.778	8739.02
482.983	8888.53
483.187	8800.46
483.391	8972.49
483.595	8628.43
483.8	8446.16
484.004	8755.41
484.208	8909.01
484.412	8554.71
484.616	8818.89
484.821	8726.74
485.025	8607.95
485.229	8741.07
485.433	8771.79
485.637	8683.73
485.841	8544.47
486.045	8614.1
486.249	8550.61
486.453	8339.67
486.657	8927.44
486.861	8761.55
487.065	8626.39
487.269	8773.84
487.473	8597.71
487.677	8689.87
487.881	8900.81
488.085	8829.13
488.289	8841.42
488.493	8579.28
488.697	8566.99
488.901	8890.57
489.105	8693.97
489.309	8546.51
489.512	8728.78
489.716	8859.85
489.92	8804.56
490.124	8847.57
490.328	8874.19
490.531	8644.82
490.735	8878.29
490.939	9011.4
491.143	8884.43
491.346	8696.02
491.55	9042.12
491.754	9072.84
491.958	9119.95
492.161	8939.72
492.365	9183.43
492.569	9173.19
492.772	9255.11
492.976	9195.72
493.18	9228.49
493.383	9367.75
493.587	9353.41
493.79	9543.88
493.994	9351.37
494.197	9513.16
494.401	9711.81
494.605	9519.3
494.808	9758.91
495.012	9857.21
495.215	9898.17
495.419	9959.61
495.622	9945.28
495.825	9986.24
496.029	9875.65
496.232	10328.25
496.436	10227.9
496.639	10426.55
496.843	10459.32
497.046	10688.69
497.249	10596.53
497.453	10729.65
497.656	10930.35
497.859	10819.76
498.063	10922.16
498.266	11423.91
498.469	11139.24
498.673	11546.79
498.876	11495.59
499.079	11661.48
499.282	11532.45
499.485	11858.08
499.689	11841.7
499.892	12204.19
500.095	12193.95
500.298	12417.18
500.501	12304.54
500.705	12929.17
500.908	12834.96
501.111	12851.35
501.314	13142.16
501.517	13213.84
501.72	13410.44
501.923	13070.48
502.126	13611.14
502.329	13660.29
502.532	13938.82
502.735	14076.03
502.938	14190.72
503.141	14188.67
503.344	14178.43
503.547	14342.27
503.75	14499.96
503.953	14921.84
504.156	15126.64
504.359	15186.03
504.562	15368.3
504.765	15523.94
504.968	15648.87
505.17	15865.96
505.373	15808.61
505.576	16150.62
505.779	16549.98
505.982	16253.02
506.185	16468.06
506.387	16566.36
506.59	16832.6
506.793	17223.76
506.996	17119.31
507.198	17668.17
507.401	17530.95
507.604	18147.39
507.807	18229.31
508.009	18243.65
508.212	18245.69
508.415	18688.06
508.617	18681.91
508.82	18950.2
509.022	18757.69
509.225	19478.57
509.428	19449.9
509.63	19675.18
509.833	19623.98
510.035	20076.58
510.238	19806.25
510.44	20289.57
510.643	20455.45
510.845	20645.91
511.048	20424.73
511.25	20830.23
511.453	20889.62
511.655	21895.18
511.858	21516.3
512.06	21755.91
512.262	22210.56
512.465	22173.7
512.667	22452.22
512.87	22540.29
513.072	22751.23
513.274	23128.05
513.477	23128.05
513.679	23568.37
513.881	23771.11
514.084	23887.85
514.286	23697.39
514.488	24303.59
514.69	24930.26
514.893	24387.55
515.095	24721.37
515.297	24883.16
515.499	25012.18
515.701	25466.83
515.904	25423.83
516.106	25681.87
516.308	26337.22
516.51	26451.91
516.712	26181.57
516.914	26580.93
517.116	27041.72
517.318	26955.71
517.52	27332.53
517.722	27445.17
517.925	27684.78
518.127	27701.17
518.329	28037.03
518.531	27934.64
518.733	28764.06
518.935	28868.51
519.136	28598.18
519.338	29192.09
519.54	29425.56
519.742	29382.55
519.944	29616.02
520.146	30341
520.348	30209.93
520.55	30334.85
520.752	30451.59
520.954	30822.27
521.155	30734.21
521.357	31336.31
521.559	31430.52
521.761	31926.13
521.963	31737.71
522.164	32155.5
522.366	32167.79
522.568	32229.23
522.77	32481.13
522.971	33036.13
523.173	32802.66
523.375	33191.77
523.576	33015.65
523.778	33228.63
523.98	33339.22
524.181	33587.03
524.383	33554.26
524.584	34080.59
524.786	34031.44
524.988	34127.69
525.189	34029.39
525.391	34692.93
525.592	34742.08
525.794	34885.44
525.995	34916.16
526.197	35555.13
526.398	35049.28
526.6	35141.44
526.801	35100.48
527.003	35407.67
527.204	35565.37
527.406	36054.83
527.607	35452.73
527.808	36101.93
528.01	35284.79
528.211	36124.46
528.412	36620.07
528.614	36454.19
528.815	36448.04
529.016	36523.82
529.218	36239.15
529.419	36683.56
529.62	36589.35
529.822	36521.77
530.023	36538.15
530.224	36517.67
530.425	36532.01
530.626	36513.58
530.828	36820.77
531.029	37261.08
531.23	36833.06
531.431	36822.82
531.632	36988.7
531.833	37007.14
532.035	37424.92
532.236	37373.72
532.437	37414.68
532.638	37060.38
532.839	37474.07
533.04	37627.67
533.241	37205.79
533.442	38248.21
533.643	37674.77
533.844	37502.75
534.045	37437.21
534.246	36935.46
534.447	37652.25
534.648	37467.93
534.849	37406.49
535.05	37340.96
535.251	37390.11
535.451	37373.72
535.652	37320.48
535.853	37297.95
536.054	37566.23
536.255	37281.56
536.456	36906.79
536.657	37814.04
536.857	37457.69
537.058	37691.16
537.259	37652.25
537.46	37379.87
537.66	37408.54
537.861	37351.2
538.062	37240.61
538.263	37377.82
538.463	37586.71
538.664	37332.76
538.865	37398.3
539.065	37783.32
539.266	37488.41
539.466	37711.64
539.667	37095.2
539.868	37492.51
540.068	37414.68
540.269	37498.65
540.469	37564.18
540.67	36884.26
540.87	37408.54
541.071	37707.54
541.271	37779.22
541.472	37644.05
541.672	37383.96
541.873	37416.73
542.073	37152.54
542.274	37627.67
542.474	37373.72
542.675	37238.56
542.875	37431.07
543.075	37377.82
543.276	36726.56
543.476	37943.06
543.676	37355.29
543.877	37267.23
544.077	37533.46
544.277	36861.73
544.478	37166.88
544.678	37367.58
544.878	37287.71
545.078	37238.56
545.279	37123.87
545.479	36972.32
545.679	36732.71
545.879	37138.21
546.079	36966.18
546.28	36933.41
546.48	36640.55
546.68	37117.73
546.88	37230.37
547.08	36974.37
547.28	37302.04
547.48	36849.44
547.68	37277.47
547.88	37048.1
548.081	36988.7
548.281	37007.14
548.481	36988.7
548.681	37160.73
548.881	37201.69
549.081	37195.55
549.28	36544.3
549.48	36831.01
549.68	36753.19
549.88	37218.08
550.08	36769.57
550.28	36861.73
550.48	36757.28
550.68	37056.29
550.88	36675.37
551.08	36570.92
551.279	36945.7
551.479	36554.54
551.679	36898.59
551.879	36839.2
552.079	37027.62
552.278	36773.67
552.478	36855.59
552.678	36611.88
552.878	36986.66
553.077	36730.66
553.277	36265.77
553.477	36986.66
553.676	36423.47
553.876	36048.69
554.076	36599.59
554.275	36351.79
554.475	35968.82
554.674	36714.28
554.874	36312.88
555.074	36366.12
555.273	36355.88
555.473	36886.31
555.672	36525.86
555.872	36206.38
556.071	36273.96
556.271	36910.88
556.47	36296.49
556.67	36136.75
556.869	36175.66
557.068	36411.18
557.268	36030.26
557.467	36085.55
557.667	35829.55
557.866	35837.75
558.065	36060.98
558.265	36161.33
558.464	35591.99
558.663	36128.56
558.863	35475.26
559.062	36114.22
559.261	35718.96
559.461	35854.13
559.66	35540.79
559.859	35774.26
560.058	35665.72
560.258	35665.72
560.457	35598.13
560.656	35632.95
560.855	35575.61
561.054	35815.22
561.253	35178.3
561.453	35292.99
561.652	35278.65
561.851	35559.22
562.05	35323.71
562.249	35071.81
562.448	35510.07
562.647	35182.4
562.846	35430.2
563.045	35280.7
563.244	34721.6
563.443	35397.43
563.642	34514.76
563.841	34961.22
564.04	34885.44
564.239	35342.14
564.438	35012.42
564.637	35028.8
564.836	34774.85
565.035	34246.47
565.234	34750.28
565.432	34676.55
565.631	34094.93
565.83	34322.25
566.029	34105.16
566.228	34111.31
566.427	34369.35
566.625	34201.42
566.824	33595.22
567.023	34320.2
567.222	33505.11
567.42	34324.3
567.619	33795.92
567.818	33941.33
568.016	33681.24
568.215	34156.36
568.414	33636.18
568.612	34025.29
568.811	33347.42
569.01	33701.72
569.208	33103.71
569.407	33578.84
569.605	33316.7
569.804	33232.73
570.002	33298.27
570.201	33501.01
570.4	33072.99
570.598	32816.99
570.797	32737.12
570.995	33296.22
571.193	32978.78
571.392	32903.01
571.59	32573.28
571.789	32677.73
571.987	32466.79
572.186	32821.09
572.384	32470.89
572.582	32782.18
572.781	32583.52
572.979	32321.38
573.177	32431.97
573.376	32534.37
573.574	32055.15
573.772	32038.76
573.971	31827.82
574.169	31954.8
574.367	31805.3
574.565	31680.37
574.763	31891.31
574.962	31745.9
575.16	31598.45
575.358	31764.34
575.556	31342.46
575.754	31915.89
575.952	31176.57
576.151	31287.16
576.349	31094.65
576.547	31065.98
576.745	31086.46
576.943	31481.72
577.141	31305.59
577.339	30957.44
577.537	30943.1
577.735	31195
577.933	30527.36
578.131	30766.98
578.329	30449.54
578.527	30551.94
578.725	30773.12
578.923	30631.81
579.121	30379.91
579.319	30222.22
579.516	30287.75
579.714	30105.48
579.912	29972.36
580.11	30175.11
580.308	29853.58
580.506	29882.25
580.704	29624.21
580.901	29831.05
581.099	29783.95
581.297	29556.63
581.495	29349.78
581.692	29867.92
581.89	29478.8
582.088	29665.17
582.285	29405.08
582.483	29417.36
582.681	29026.2
582.878	29085.59
583.076	28989.34
583.274	28909.47
583.471	28895.13
583.669	29159.32
583.866	28917.66
584.064	28952.48
584.262	28587.94
584.459	28946.33
584.657	28637.09
584.854	28778.4
585.052	27922.35
585.249	28661.66
585.447	28755.87
585.644	27977.64
585.841	28100.52
586.039	28622.75
586.236	28059.56
586.434	28166.06
586.631	27889.58
586.828	27924.4
587.026	27989.93
587.223	27639.73
587.42	27592.62
587.618	27785.13
587.815	27398.07
588.012	27240.37
588.21	27350.96
588.407	27729.84
588.604	27201.46
588.801	27223.99
588.999	27101.11
589.196	27047.86
589.393	27006.91
589.59	27092.92
589.787	26685.37
589.984	26625.98
590.182	26544.06
590.379	26918.84
590.576	26611.65
590.773	26595.26
590.97	26261.44
591.167	26394.56
591.364	25786.32
591.561	26220.49
591.758	25774.03
591.955	26146.76
592.152	26200.01
592.349	25860.04
592.546	25954.25
592.743	25962.44
592.94	25272.28
593.137	25880.52
593.334	25653.2
593.531	25468.88
593.727	25249.75
593.924	25294.8
594.121	25194.45
594.318	25534.42
594.515	24770.52
594.712	25477.07
594.908	24963.03
595.105	25409.49
595.302	25049.05
595.499	25063.38
595.696	24782.81
595.892	24338.4
596.089	24979.42
596.286	25028.57
596.482	24473.57
596.679	24442.85
596.876	24635.36
597.072	24297.44
597.269	24598.49
597.466	24240.1
597.662	24131.56
597.859	24158.18
598.055	23947.24
598.252	24074.21
598.448	23873.51
598.645	23703.53
598.841	23506.93
599.038	23539.69
599.234	23693.29
599.431	23277.55
599.627	23433.2
599.824	23721.96
600.02	23504.88
600.217	23496.69
600.413	23025.65
600.609	23527.41
600.806	22958.07
601.002	23349.23
601.198	22865.91
601.395	22783.99
601.591	23021.56
601.787	22898.68
601.984	22691.84
602.18	22728.7
602.376	22585.34
602.572	22562.81
602.769	22636.54
602.965	22306.82
603.161	22697.98
603.357	21911.56
603.553	22425.6
603.75	22124.55
603.946	21950.47
604.142	22149.12
604.338	21841.93
604.534	21948.42
604.73	21606.41
604.926	21553.16
605.122	21895.18
605.318	21540.88
605.514	21391.37
605.71	21745.67
605.906	21334.03
606.102	21454.86
606.298	21241.87
606.494	21542.92
606.69	21139.47
606.886	21321.74
607.082	20830.23
607.278	21051.41
607.474	20457.5
607.67	21180.43
607.866	20758.55
608.062	20844.57
608.257	21135.38
608.453	20967.45
608.649	20854.81
608.845	20711.45
609.041	20879.38
609.236	20654.11
609.432	20750.36
609.628	20809.75
609.824	20484.12
610.019	20660.25
610.215	20404.25
610.411	20570.14
610.606	20248.61
610.802	20455.45
610.998	20473.88
611.193	20559.9
611.389	20025.38
611.584	19988.52
611.78	20181.03
611.976	20013.09
612.171	20105.25
612.367	19978.28
612.562	19998.76
612.758	20074.53
612.953	20156.45
613.149	20144.16
613.344	19851.3
613.539	20224.03
613.735	19646.51
613.93	19671.08
614.126	19781.67
614.321	20082.72
614.517	19626.03
614.712	19757.1
614.907	19656.75
615.103	19783.72
615.298	19542.06
615.493	19847.21
615.688	19329.07
615.884	19982.37
616.079	19300.4
616.274	19482.67
616.47	19623.98
616.665	19357.74
616.86	19533.87
617.055	19003.44
617.25	19114.03
617.445	19509.29
617.641	18968.63
617.836	19071.03
618.031	18823.22
618.226	19204.14
618.421	18939.96
618.616	19152.95
618.811	18776.12
619.006	18972.72
619.201	18554.94
619.396	19050.55
619.591	18477.12
619.786	18655.29
619.981	18360.38
620.176	18538.55
620.371	18231.36
620.566	18286.65
620.761	18270.27
620.956	18307.13
621.151	17948.74
621.346	18042.95
621.541	17696.84
621.735	18188.35
621.93	17502.28
622.125	17811.53
622.32	17201.23
622.515	17543.24
622.709	17352.78
622.904	17295.44
623.099	17330.25
623.294	17457.23
623.488	17051.73
623.683	17070.16
623.878	16904.28
624.072	16959.57
624.267	16824.4
624.462	16851.03
624.656	16486.49
624.851	16812.12
625.046	16466.01
625.24	16312.41
625.435	16173.15
625.629	16300.12
625.824	15937.63
626.018	16257.12
626.213	15784.04
626.407	16021.6
626.602	15831.14
626.796	15810.66
626.991	15558.76
627.185	15327.34
627.38	15296.62
627.574	15239.28
627.768	14919.79
627.963	15169.65
628.157	14977.14
628.352	15073.39
628.546	14653.56
628.74	14942.32
628.935	14530.68
629.129	14772.34
629.323	14547.06
629.517	14485.62
629.712	14514.3
629.906	14479.48
630.1	14073.98
630.294	14372.99
630.489	14235.77
630.683	14264.44
630.877	14028.93
631.071	13848.71
631.265	13877.38
631.459	13787.27
631.653	13670.53
631.848	13545.61
632.042	13578.37
632.236	13512.84
632.43	13320.33
632.624	13394.06
632.818	13082.77
633.012	13013.13
633.206	13312.14
633.4	13246.6
633.594	12955.79
633.788	13052.05
633.982	12935.31
634.176	12705.94
634.369	12714.13
634.563	12787.86
634.757	12687.51
634.951	12634.26
635.145	12716.18
635.339	12384.41
635.533	12609.68
635.726	12460.18
635.92	12122.27
636.114	12191.9
636.308	12300.44
636.501	12062.88
636.695	12015.77
636.889	12144.8
637.083	11983.01
637.276	11913.38
637.47	11907.23
637.664	11776.16
637.857	11776.16
638.051	11774.11
638.244	11747.49
638.438	11589.8
638.632	11530.41
638.825	11290.79
639.019	11344.04
639.212	11018.41
639.406	11165.87
639.599	11157.68
639.793	11221.16
639.986	10979.5
640.18	11065.52
640.373	11178.15
640.567	10969.26
640.76	10899.63
640.954	10598.58
641.147	10930.35
641.34	10776.75
641.534	10531
641.727	10528.95
641.92	10522.8
642.114	10604.72
642.307	10406.07
642.5	10453.17
642.694	10199.23
642.887	10203.32
643.08	10090.68
643.273	10111.16
643.467	10162.36
643.66	10084.54
643.853	10021.05
644.046	9945.28
644.239	9965.76
644.432	9892.03
644.626	9904.32
644.819	9709.76
645.012	9715.91
645.205	9736.38
645.398	9855.17
645.591	9406.66
645.784	9574.6
645.977	9275.59
646.17	9459.91
646.363	9302.22
646.556	9197.77
646.749	9476.29
646.942	9375.94
647.135	9257.16
647.328	9136.33
647.521	9158.86
647.714	9089.23
647.907	9038.03
648.099	8958.16
648.292	9066.7
648.485	9027.79
648.678	8765.65
648.871	8771.79
649.064	8700.11
649.256	8693.97
649.449	8585.43
649.642	8650.96
649.835	8610
650.027	8483.03
650.22	8544.47
650.413	8530.13
650.605	8249.56
650.798	8386.77
650.991	8245.46
651.183	8313.05
651.376	8206.55
651.568	8210.65
651.761	8134.87
651.954	8079.58
652.146	7891.16
652.339	8012
652.531	8177.88
652.724	7887.07
652.916	7915.74
653.109	7889.12
653.301	7905.5
653.494	7774.43
653.686	7803.1
653.879	7829.73
654.071	7596.26
654.263	7575.78
654.456	7669.98
654.648	7510.24
654.84	7512.29
655.033	7495.91
655.225	7377.12
655.417	7377.12
655.61	7389.41
655.802	7407.84
655.994	7256.29
656.186	7186.66
656.379	7102.7
656.571	7045.35
656.763	7131.37
656.955	7131.37
657.148	7145.7
657.34	6965.48
657.532	6992.11
657.724	7028.97
657.916	6820.08
658.108	7114.98
658.3	6867.18
658.492	6963.44
658.684	6707.44
658.876	6858.99
659.068	6701.3
659.26	6502.64
659.452	6570.23
659.644	6729.97
659.836	6629.62
660.028	6508.79
660.22	6531.31
660.412	6443.25
660.604	6557.94
660.796	6412.53
660.988	6529.27
661.18	6338.8
661.372	6174.97
661.563	6357.24
661.755	6263.03
661.947	6277.37
662.139	6236.41
662.331	6095.1
662.522	6201.59
662.714	5986.55
662.906	6119.67
663.097	6113.53
663.289	5941.5
663.481	6007.03
663.673	5828.86
663.864	5986.55
664.056	5867.77
664.247	5804.28
664.439	5859.58
664.631	5753.09
664.822	5740.8
665.014	5785.85
665.205	5587.2
665.397	5617.92
665.588	5609.73
665.78	5689.6
665.971	5697.79
666.163	5736.7
666.354	5570.82
666.546	5529.86
666.737	5552.38
666.929	5421.31
667.12	5417.22
667.311	5464.32
667.503	5347.59
667.694	5394.69
667.885	5269.76
668.077	5376.26
668.268	5540.1
668.459	5222.66
668.651	5097.74
668.842	5226.76
669.033	5105.93
669.224	5155.08
669.416	5232.9
669.607	5087.5
669.798	4995.34
669.989	5099.78
670.18	5114.12
670.371	5191.94
670.563	5038.34
670.754	5028.1
670.945	5003.53
671.136	4968.71
671.327	4960.52
671.518	4821.26
671.709	4989.19
671.9	4983.05
672.091	4931.85
672.282	4944.14
672.473	4899.08
672.664	4825.36
672.855	4849.93
673.046	4815.12
673.237	4708.62
673.428	4813.07
673.619	4741.39
673.809	4677.9
674	4835.6
674.191	4612.37
674.382	4751.63
674.573	4626.7
674.764	4716.81
674.954	4587.79
675.145	4542.74
675.336	4602.13
675.527	4638.99
675.717	4608.27
675.908	4565.26
676.099	4542.74
676.289	4540.69
676.48	4626.7
676.671	4520.21
676.861	4540.69
677.052	4319.51
677.243	4462.87
677.433	4319.51
677.624	4495.63
677.814	4247.83
678.005	4387.09
678.195	4323.6
678.386	4342.04
678.576	4432.15
678.767	4098.33
678.957	4346.13
679.148	4335.89
679.338	4165.91
679.529	4174.1
679.719	4262.16
679.909	4278.55
680.1	4294.93
680.29	4245.78
680.481	4157.72
680.671	4233.49
680.861	4194.58
681.052	4219.16
681.242	4163.86
681.432	4217.11
681.622	4038.94
681.813	4186.39
682.003	4139.29
682.193	4055.32
682.383	4092.18
682.573	4094.23
682.764	4075.8
682.954	4010.26
683.144	3985.69
683.334	4081.94
683.524	4030.74
683.714	3952.92
683.904	4012.31
684.094	4116.76
684.284	3983.64
684.474	4045.08
684.664	3856.67
684.854	3985.69
685.044	3938.59
685.234	3916.06
685.424	3871
685.614	3871
685.804	4010.26
685.994	3844.38
686.184	3895.58
686.374	3692.83
686.564	3651.87
686.753	3838.23
686.943	3696.92
687.133	3703.07
687.323	3696.92
687.513	3803.42
687.702	3684.64
687.892	3617.05
688.082	3588.38
688.272	3572
688.461	3684.64
688.651	3483.94
688.841	3735.84
689.03	3645.73
689.22	3580.19
689.41	3537.18
689.599	3539.23
689.789	3569.95
689.979	3590.43
690.168	3453.22
690.358	3496.22
690.547	3457.31
690.737	3457.31
690.926	3488.03
691.116	3346.72
691.305	3412.26
691.495	3297.57
691.684	3305.76
691.874	3352.87
692.063	3373.35
692.252	3297.57
692.442	3232.04
692.631	3287.33
692.82	3207.46
693.01	3154.21
693.199	3199.27
693.388	3176.74
693.578	3148.07
693.767	3234.08
693.956	3221.8
694.146	3168.55
694.335	3019.05
694.524	3004.71
694.713	3162.41
694.902	2992.42
695.092	3025.19
695.281	2947.37
695.47	3080.49
695.659	3080.49
695.848	2994.47
696.037	2930.98
696.226	2961.7
696.415	2980.14
696.604	2971.94
696.793	2910.5
696.982	2906.41
697.171	2859.31
697.36	3068.2
697.549	2804.01
697.738	2804.01
697.927	2875.69
698.116	2857.26
698.305	2877.74
698.494	2967.85
698.683	2742.57
698.872	2918.7
699.061	2797.87
699.25	2904.36
699.438	2781.48
699.627	2873.64
699.816	2789.67
700.005	2746.67
700.193	2808.11
700.382	2801.96
700.571	2844.97
700.76	2777.39
700.948	2736.43
701.137	2797.87
701.326	2771.24
701.514	2685.23
701.703	2763.05
701.892	2844.97
702.08	2740.52
702.269	2650.41
702.457	2777.39
702.646	2658.6
702.834	2769.2
703.023	2601.26
703.212	2744.62
703.4	2754.86
703.589	2691.37
703.777	2707.76
703.965	2713.9
704.154	2666.8
704.342	2631.98
704.531	2724.14
704.719	2701.61
704.907	2687.28
705.096	2541.87
705.284	2582.83
705.472	2750.76
705.661	2750.76
705.849	2689.32
706.037	2695.47
706.226	2765.1
706.414	2640.17
706.602	2666.8
706.79	2611.5
706.979	2699.56
707.167	2691.37
707.355	2685.23
707.543	2611.5
707.731	2695.47
707.919	2701.61
708.107	2672.94
708.296	2640.17
708.484	2691.37
708.672	2679.08
708.86	2638.13
709.048	2646.32
709.236	2586.93
709.424	2674.99
709.612	2707.76
709.8	2609.45
709.988	2586.93
710.176	2568.49
710.364	2660.65
710.551	2617.65
710.739	2543.92
710.927	2648.36
711.115	2570.54
711.303	2666.8
711.491	2576.69
711.679	2783.53
711.866	2707.76
712.054	2662.7
712.242	2492.72
712.43	2765.1
712.617	2634.03
712.805	2713.9
712.993	2500.91
713.181	2591.02
713.368	2648.36
713.556	2654.51
713.744	2552.11
713.931	2623.79
714.119	2599.21
714.306	2615.6
714.494	2646.32
714.682	2545.97
714.869	2595.12
715.057	2699.56
715.244	2726.19
715.432	2558.25
715.619	2631.98
715.807	2648.36
715.994	2548.01
716.182	2539.82
716.369	2646.32
716.556	2627.89
716.744	2613.55
716.931	2519.34
717.119	2494.77
717.306	2597.17
717.493	2599.21
717.681	2636.08
717.868	2611.5
718.055	2625.84
718.242	2603.31
718.43	2625.84
718.617	2736.43
718.804	2648.36
718.991	2650.41
719.179	2558.25
719.366	2545.97
719.553	2570.54
719.74	2728.24
719.927	2580.78
720.114	2650.41
720.301	2656.56
720.488	2607.41
720.676	2523.44
720.863	2562.35
721.05	2613.55
721.237	2609.45
721.424	2636.08
721.611	2560.3
721.798	2515.25
721.985	2627.89
722.172	2537.77
722.358	2513.2
722.545	2670.89
722.732	2509.1
722.919	2543.92
723.106	2531.63
723.293	2556.21
723.48	2650.41
723.667	2625.84
723.853	2564.4
724.04	2564.4
724.227	2498.86
724.414	2609.45
724.6	2556.21
724.787	2486.58
724.974	2517.29
725.161	2556.21
725.347	2550.06
725.534	2648.36
725.72	2492.72
725.907	2599.21
726.094	2627.89
726.28	2566.45
726.467	2545.97
726.653	2541.87
726.84	2406.7
727.027	2545.97
727.213	2425.14
727.4	2505.01
727.586	2427.18
727.773	2494.77
727.959	2631.98
728.145	2558.25
728.332	2535.73
728.518	2517.29
728.705	2556.21
728.891	2677.04
729.077	2494.77
729.264	2617.65
729.45	2580.78
729.636	2502.96
729.823	2529.58
730.009	2631.98
730.195	2492.72
730.382	2543.92
730.568	2429.23
730.754	2574.64
730.94	2631.98
731.126	2402.61
731.313	2582.83
731.499	2488.62
731.685	2521.39
731.871	2517.29
732.057	2568.49
732.243	2554.16
732.429	2556.21
732.615	2693.42
732.801	2472.24
732.987	2625.84
733.173	2605.36
733.359	2603.31
733.545	2529.58
733.731	2453.81
733.917	2603.31
734.103	2529.58
734.289	2582.83
734.475	2498.86
734.661	2599.21
734.847	2462
735.033	2545.97
735.219	2554.16
735.404	2408.75
735.59	2515.25
735.776	2486.58
735.962	2525.49
736.148	2611.5
736.333	2425.14
736.519	2459.95
736.705	2455.86
736.89	2584.88
737.076	2404.66
737.262	2382.13
737.447	2382.13
737.633	2390.32
737.819	2423.09
738.004	2414.9
738.19	2437.42
738.375	2439.47
738.561	2474.29
738.747	2373.94
738.932	2349.36
739.118	2386.22
739.303	2310.45
739.489	2378.03
739.674	2351.41
739.859	2384.18
740.045	2439.47
740.23	2353.46
740.416	2517.29
740.601	2304.31
740.786	2349.36
740.972	2412.85
741.157	2341.17
741.342	2378.03
741.528	2351.41
741.713	2390.32
741.898	2292.02
742.084	2320.69
742.269	2236.72
742.454	2322.74
742.639	2332.98
742.824	2269.49
743.01	2234.68
743.195	2236.72
743.38	2199.86
743.565	2283.83
743.75	2296.11
743.935	2265.39
744.12	2390.32
744.305	2173.24
744.49	2249.01
744.675	2156.85
744.86	2206
745.045	2218.29
745.23	2179.38
745.415	2115.89
745.6	2146.61
745.785	2158.9
745.97	2130.23
746.155	2193.72
746.34	2109.75
746.525	2144.56
746.71	2103.61
746.895	2109.75
747.079	1952.06
747.264	2064.69
747.449	2017.59
747.634	2019.64
747.819	2003.25
748.003	2083.13
748.188	1950.01
748.373	1939.77
748.557	1980.73
748.742	1849.66
748.927	1925.43
749.111	1876.28
749.296	1849.66
749.481	1861.94
749.665	1884.47
749.85	1849.66
750.034	1921.34
750.219	1866.04
750.404	1855.8
750.588	1931.58
750.773	1782.07
750.957	1743.16
751.141	1763.64
751.326	1798.46
751.51	1775.93
751.695	1771.83
751.879	1724.73
752.064	1802.55
752.248	1685.82
752.432	1720.64
752.617	1648.96
752.801	1782.07
752.985	1622.33
753.17	1644.86
753.354	1657.15
753.538	1685.82
753.722	1524.03
753.907	1714.49
754.091	1620.28
754.275	1640.76
754.459	1698.11
754.643	1706.3
754.828	1513.79
755.012	1657.15
755.196	1472.83
755.38	1614.14
755.564	1505.6
755.748	1493.31
755.932	1505.6
756.116	1431.87
756.3	1462.59
756.484	1519.93
756.668	1456.45
756.852	1399.1
757.036	1337.66
757.22	1425.73
757.404	1341.76
757.588	1333.57
757.772	1352
757.956	1388.86
758.14	1384.77
758.323	1290.56
758.507	1442.11
758.691	1370.43
758.875	1360.19
759.059	1272.13
759.242	1311.04
759.426	1272.13
759.61	1370.43
759.794	1231.17
759.977	1395.01
760.161	1395.01
760.345	1245.51
760.528	1153.35
760.712	1302.85
760.895	1335.62
761.079	1179.97
761.263	1214.79
761.446	1220.93
761.63	1184.07
761.813	1227.07
761.997	1212.74
762.18	1212.74
762.364	1212.74
762.547	1175.88
762.731	1261.89
762.914	1222.98
763.098	1257.79
763.281	1151.3
763.464	1200.45
763.648	1096
763.831	1177.92
764.015	1175.88
764.198	1106.24
764.381	1122.63
764.564	1075.52
764.748	1089.86
764.931	1216.83
765.114	1186.12
765.297	1159.49
765.481	1024.33
765.664	1106.24
765.847	1100.1
766.03	1079.62
766.213	1059.14
766.397	1042.76
766.58	1028.42
766.763	1110.34
766.946	1063.24
767.129	1009.99
767.312	1034.57
767.495	1050.95
767.678	991.56
767.861	1030.47
768.044	1040.71
768.227	1012.04
768.41	1024.33
768.593	1022.28
768.776	999.75
768.959	1032.52
769.142	979.27
769.324	989.51
769.507	1055.05
769.69	954.69
769.873	999.75
770.056	973.13
770.239	985.41
770.421	1034.57
770.604	958.79
770.787	907.59
770.97	895.3
771.152	919.88
771.335	887.11
771.518	946.5
771.7	1001.8
771.883	993.61
772.066	962.89
772.248	782.67
772.431	905.54
772.613	870.73
772.796	821.58
772.978	936.26
773.161	872.78
773.343	930.12
773.526	829.77
773.708	872.78
773.891	799.05
774.073	831.82
774.256	817.48
774.438	823.62
774.621	817.48
774.803	823.62
774.985	868.68
775.168	731.47
775.35	790.86
775.532	715.08
775.715	799.05
775.897	852.3
776.079	733.51
776.261	794.95
776.444	766.28
776.626	784.71
776.808	811.34
776.99	667.98
777.173	723.27
777.355	784.71
777.537	710.99
777.719	749.9
777.901	733.51
778.083	721.23
778.265	717.13
778.447	690.51
778.629	723.27
778.811	614.73
778.993	635.21
779.175	684.36
779.357	692.55
779.539	717.13
779.721	637.26
779.903	620.88
780.085	565.58
780.267	614.73
780.449	647.5
780.631	635.21
780.812	735.56
780.994	606.54
781.176	627.02
781.358	684.36
781.54	553.29
781.721	692.55
781.903	592.2
782.085	596.3
782.267	573.77
782.448	575.82
782.63	534.86
782.812	629.07
782.993	592.2
783.175	508.24
783.357	547.15
783.538	536.91
783.72	534.86
783.901	581.96
784.083	534.86
784.264	541.01
784.446	465.23
784.627	590.16
784.809	498
784.99	506.19
785.172	498
785.353	608.59
785.535	520.53
785.716	526.67
785.897	506.19
786.079	524.62
786.26	502.09
786.441	528.72
786.623	483.66
786.804	522.57
786.985	522.57
787.167	465.23
787.348	430.41
787.529	405.84
787.71	495.95
787.891	450.89
788.073	432.46
788.254	385.36
788.435	428.37
788.616	461.13
788.797	500.05
788.978	510.29
789.159	422.22
789.34	432.46
789.522	334.16
789.703	438.61
789.884	405.84
790.065	422.22
790.246	381.26
790.427	375.12
790.607	444.75
790.788	411.98
790.969	399.7
791.15	391.5
791.331	395.6
791.512	338.26
791.693	323.92
791.874	407.89
792.054	360.78
792.235	368.98
792.416	348.5
792.597	362.83
792.778	403.79
792.958	414.03
793.139	352.59
793.32	346.45
793.5	350.54
793.681	397.65
793.862	338.26
794.042	399.7
794.223	285.01
794.404	348.5
794.584	289.1
794.765	373.07
794.945	344.4
795.126	332.11
795.306	325.97
795.487	332.11
795.667	395.6
795.848	328.02
796.028	313.68
796.209	272.72
796.389	293.2
796.57	319.82
796.75	231.76
796.93	315.73
797.111	305.49
797.291	217.43
797.471	215.38
797.652	330.06
797.832	268.63
798.012	338.26
798.192	282.96
798.373	287.06
798.553	295.25
798.733	321.87
798.913	211.28
799.093	340.3
799.274	411.98
799.454	305.49
799.634	289.1
799.814	299.34
799.994	268.63
800.174	262.48
800.354	188.75
800.534	252.24
800.714	323.92
800.894	276.82
801.074	248.15
801.254	205.14
801.434	250.19
801.614	235.86
801.794	307.54
801.974	684.36
802.154	266.58
802.334	293.2
802.514	248.15
802.693	291.15
802.873	229.71
803.053	315.73
803.233	246.1
803.413	190.8
803.592	233.81
803.772	217.43
803.952	186.71
804.131	217.43
804.311	215.38
804.491	285.01
804.67	229.71
804.85	264.53
805.03	203.09
805.209	209.23
805.389	203.09
805.568	174.42
805.748	198.99
805.928	233.81
806.107	235.86
806.287	227.67
806.466	260.43
806.646	198.99
806.825	184.66
807.004	217.43
807.184	117.08
807.363	178.51
807.543	196.95
807.722	86.36
807.901	215.38
808.081	223.57
808.26	176.47
808.439	239.95
808.619	188.75
808.798	194.9
808.977	196.95
809.156	174.42
809.336	201.04
809.515	180.56
809.694	188.75
809.873	225.62
810.052	217.43
810.231	274.77
810.411	192.85
810.59	266.58
810.769	170.32
810.948	180.56
811.127	174.42
811.306	182.61
811.485	168.27
811.664	244.05
811.843	190.8
812.022	145.75
812.201	168.27
812.38	188.75
812.559	184.66
812.737	190.8
812.916	112.98
813.095	151.89
813.274	225.62
813.453	162.13
813.632	223.57
813.811	90.45
813.989	94.55
814.168	182.61
814.347	190.8
814.526	96.6
814.704	188.75
814.883	172.37
815.062	74.07
815.24	160.08
815.419	110.93
815.598	221.52
815.776	164.18
815.955	127.32
816.133	110.93
816.312	106.84
816.49	231.76
816.669	123.22
816.847	145.75
817.026	110.93
817.204	139.6
817.383	125.27
817.561	121.17
817.74	127.32
817.918	100.69
818.097	141.65
818.275	94.55
818.453	133.46
818.632	180.56
818.81	164.18
818.988	123.22
819.167	153.94
819.345	127.32
819.523	153.94
819.701	162.13
819.879	149.84
820.058	139.6
820.236	92.5
820.414	82.26
820.592	198.99
820.77	162.13
820.948	147.8
821.127	98.64
821.305	123.22
821.483	141.65
821.661	151.89
821.839	155.99
822.017	78.16
822.195	155.99
822.373	172.37
822.551	92.5
822.729	182.61
822.907	168.27
823.085	121.17
823.262	86.36
823.44	119.12
823.618	94.55
823.796	141.65
823.974	143.7
824.152	133.46
824.329	135.51
824.507	151.89
824.685	121.17
824.863	127.32
825.04	80.21
825.218	182.61
825.396	119.12
825.574	94.55
825.751	92.5
825.929	186.71
826.107	129.36
826.284	129.36
826.462	155.99
826.639	106.84
826.817	26.96
826.994	137.56
827.172	98.64
827.349	172.37
827.527	133.46
827.704	90.45
827.882	74.07
828.059	43.35
828.237	90.45
828.414	135.51
828.591	127.32
828.769	82.26
828.946	65.88
829.124	108.88
829.301	115.03
829.478	160.08
829.655	102.74
829.833	131.41
830.01	49.49
830.187	4.44
830.364	55.64
830.542	119.12
830.719	55.64
830.896	158.03
831.073	51.54
831.25	115.03
831.427	104.79
831.604	82.26
831.782	29.01
831.959	131.41
832.136	45.4
832.313	182.61
832.49	123.22
832.667	125.27
832.844	35.16
833.021	88.4
833.198	115.03
833.374	104.79
833.551	35.16
833.728	65.88
833.905	57.68
834.082	117.08
834.259	147.8
834.436	147.8
834.612	55.64
834.789	69.97
834.966	72.02
835.143	86.36
835.319	90.45
835.496	20.82
835.673	147.8
835.85	106.84
836.026	59.73
836.203	172.37
836.38	41.3
836.556	74.07
836.733	-5.8
836.909	49.49
837.086	117.08
837.262	51.54
837.439	33.11
837.616	37.2
837.792	112.98
837.968	35.16
838.145	-34.47
838.321	18.77
838.498	112.98
838.674	80.21
838.851	94.55
839.027	16.73
839.203	61.78
839.38	84.31
839.556	39.25
839.732	69.97
839.909	65.88
840.085	47.44
840.261	29.01
840.437	14.68
840.614	69.97
840.79	88.4
840.966	84.31
841.142	57.68
841.318	55.64
841.494	8.53
841.671	90.45
841.847	59.73
842.023	45.4
842.199	74.07
842.375	67.92
842.551	96.6
842.727	110.93
842.903	121.17
843.079	-5.8
843.255	20.82
843.431	106.84
843.607	88.4
843.783	-7.85
843.959	49.49
844.134	45.4
844.31	137.56
844.486	6.49
844.662	41.3
844.838	61.78
845.013	129.36
845.189	20.82
845.365	67.92
845.541	41.3
845.716	33.11
845.892	88.4
846.068	96.6
846.244	53.59
846.419	57.68
846.595	55.64
846.77	65.88
846.946	110.93
847.122	90.45
847.297	65.88
847.473	102.74
847.648	26.96
847.824	45.4
847.999	-3.75
848.175	-59.05
848.35	45.4
848.526	49.49
848.701	35.16
848.876	86.36
849.052	-48.81
849.227	26.96
849.403	72.02
849.578	90.45
849.753	82.26
849.929	129.36
850.104	8.53
850.279	35.16
850.454	12.63
850.63	96.6
850.805	53.59
850.98	16.73
851.155	69.97
851.33	74.07
851.505	78.16
851.681	33.11
851.856	4.44
852.031	0.34
852.206	76.12
852.381	10.58
852.556	57.68
852.731	61.78
852.906	61.78
853.081	59.73
853.256	67.92
853.431	41.3
853.606	20.82
853.781	-20.14
853.956	18.77
854.131	92.5
854.305	-5.8
854.48	61.78
854.655	76.12
854.83	59.73
855.005	-11.95
855.18	65.88
855.354	72.02
855.529	49.49
855.704	72.02
855.879	47.44
856.053	29.01
856.228	31.06
856.403	94.55
856.577	76.12
856.752	-24.23
856.926	57.68
857.101	31.06
857.276	47.44
857.45	37.2
857.625	49.49
857.799	18.77
857.974	69.97
858.148	22.87
858.323	110.93
858.497	-22.19
858.672	88.4
858.846	-5.8
859.02	102.74
859.195	-1.71
859.369	61.78
859.543	115.03
859.718	31.06
859.892	108.88
860.066	115.03
860.241	67.92
860.415	-22.19
860.589	20.82
860.763	72.02
860.938	26.96
861.112	51.54
861.286	67.92
861.46	29.01
861.634	47.44
861.808	22.87
861.982	12.63
862.157	-34.47
862.331	18.77
862.505	53.59
862.679	16.73
862.853	-30.38
863.027	-54.95
863.201	139.6
863.375	106.84
863.549	24.92
863.722	55.64
863.896	61.78
864.07	-44.71
864.244	2.39
864.418	47.44
864.592	43.35
864.766	-7.85
864.939	45.4
865.113	-24.23
865.287	67.92
865.461	39.25
865.634	78.16
865.808	39.25
865.982	51.54
866.156	31.06
866.329	24.92
866.503	55.64
866.676	67.92
866.85	37.2
867.024	12.63
867.197	39.25
867.371	82.26
867.544	20.82
867.718	41.3
867.891	53.59
868.065	22.87
868.238	57.68
868.412	-13.99
868.585	-13.99
868.759	22.87
868.932	-38.57
869.105	41.3
869.279	63.83
869.452	37.2
869.625	45.4
869.799	98.64
869.972	2.39
870.145	20.82
870.319	10.58
870.492	-18.09
870.665	29.01
870.838	-18.09
871.011	-104.11
871.185	26.96
871.358	14.68
871.531	57.68
871.704	37.2
871.877	33.11
872.05	29.01
872.223	-36.52
872.396	43.35
872.569	26.96
872.742	-22.19
872.915	47.44
873.088	117.08
873.261	-22.19
873.434	100.69
873.607	12.63
873.78	6.49
873.953	53.59
874.126	59.73
874.299	4.44
874.471	-26.28
874.644	16.73
874.817	45.4
874.99	12.63
875.163	31.06
875.335	29.01
875.508	8.53
875.681	31.06
875.853	26.96
876.026	29.01
876.199	-3.75
876.371	47.44
876.544	-40.62
876.717	80.21
876.889	74.07
877.062	67.92
877.234	35.16
877.407	22.87
877.579	-1.71
877.752	6.49
877.924	49.49
878.097	53.59
878.269	-3.75
878.442	-18.09
878.614	-28.33
878.786	6.49
878.959	20.82
879.131	88.4
879.303	-48.81
879.476	29.01
879.648	26.96
879.82	55.64
879.993	-3.75
880.165	-1.71
880.337	-16.04
880.509	47.44
880.681	-26.28
880.854	-22.19
881.026	-44.71
881.198	6.49
881.37	-9.9
881.542	53.59
881.714	59.73
881.886	24.92
882.058	10.58
882.23	51.54
882.402	-26.28
882.574	-28.33
882.746	63.83
882.918	53.59
883.09	69.97
883.262	72.02
883.434	35.16
883.606	37.2
883.778	29.01
883.95	74.07
884.122	8.53
884.293	35.16
884.465	39.25
884.637	43.35
884.809	18.77
884.98	33.11
885.152	45.4
885.324	18.77
885.496	-79.53
885.667	8.53
885.839	-57
886.011	123.22
886.182	0.34
886.354	-3.75
886.525	39.25
886.697	41.3
886.869	78.16
887.04	55.64
887.212	69.97
887.383	2.39
887.555	-26.28
887.726	80.21
887.897	6.49
888.069	-3.75
888.24	-3.75
888.412	29.01
888.583	-73.39
888.754	-36.52
888.926	-13.99
889.097	47.44
889.268	-57
889.44	-9.9
889.611	41.3
889.782	39.25
889.953	-9.9
890.125	37.2
890.296	-1.71
890.467	6.49
890.638	-3.75
890.809	-16.04
890.98	-3.75
891.151	-22.19
891.323	10.58
891.494	92.5
891.665	45.4
891.836	-7.85
892.007	26.96
892.178	24.92
892.349	-40.62
892.52	-5.8
892.691	-34.47
892.862	16.73
893.032	0.34
893.203	51.54
893.374	18.77
893.545	-24.23
893.716	8.53
893.887	6.49
894.057	53.59
894.228	4.44
894.399	43.35
894.57	22.87
894.74	41.3
894.911	80.21
895.082	-5.8
895.253	-20.14
895.423	6.49
895.594	29.01
895.764	-5.8
895.935	35.16
896.106	-91.82
896.276	94.55
896.447	33.11
896.617	-36.52
896.788	-22.19
896.958	12.63
897.129	26.96
897.299	-11.95
897.47	51.54
897.64	-69.29
897.81	12.63
897.981	18.77
898.151	-9.9
898.322	-11.95
898.492	47.44
898.662	-22.19
898.832	8.53
899.003	-20.14
899.173	43.35
899.343	-5.8
899.513	29.01
