Data from USB4F104151__90__12-28-15-388.txt Node

Date: Fri Mar 14 12:28:15 EDT 2025
User: louis
Spectrometer: USB4F10415
Trigger mode: 4
Integration Time (sec): 2.000000E-2
Scans to average: 1
Electric dark correction enabled: true
Nonlinearity correction enabled: false
Boxcar width: 0
XAxis mode: Wavelengths
Number of Pixels in Spectrum: 3648
>>>>>Begin Spectral Data<<<<<
178.204	-22.36
178.424	-22.36
178.644	-22.36
178.864	-130.9
179.084	-46.93
179.304	41.13
179.524	-22.36
179.744	2.22
179.964	-10.07
180.184	65.71
180.404	-18.26
180.624	41.13
180.844	-3.93
181.064	-53.08
181.283	-14.17
181.503	-30.55
181.723	2.22
181.943	-14.17
182.163	75.95
182.383	43.18
182.602	45.23
182.822	80.04
183.042	6.31
183.262	26.79
183.482	49.32
183.701	43.18
183.921	-8.02
184.141	-18.26
184.361	108.71
184.58	47.27
184.8	65.71
185.02	77.99
185.239	26.79
185.459	59.56
185.679	22.7
185.898	59.56
186.118	-1.88
186.338	0.17
186.557	47.27
186.777	-18.26
186.997	47.27
187.216	47.27
187.436	88.23
187.655	14.51
187.875	57.51
188.095	63.66
188.314	145.58
188.534	84.14
188.753	37.03
188.973	32.94
189.192	121
189.412	26.79
189.631	47.27
189.851	37.03
190.07	-8.02
190.29	14.51
190.509	22.7
190.729	71.85
190.948	14.51
191.168	108.71
191.387	53.42
191.607	2.22
191.826	28.84
192.045	39.08
192.265	2.22
192.484	4.27
192.704	55.47
192.923	2.22
193.142	84.14
193.362	77.99
193.581	8.36
193.8	43.18
194.02	86.19
194.239	63.66
194.458	92.33
194.678	57.51
194.897	94.38
195.116	37.03
195.335	32.94
195.555	-30.55
195.774	37.03
195.993	-3.93
196.212	43.18
196.432	45.23
196.651	43.18
196.87	-18.26
197.089	49.32
197.308	45.23
197.528	67.75
197.747	30.89
197.966	2.22
198.185	43.18
198.404	-18.26
198.623	73.9
198.842	59.56
199.062	8.36
199.281	16.55
199.5	80.04
199.719	-3.93
199.938	47.27
200.157	77.99
200.376	90.28
200.595	102.57
200.814	43.18
201.033	53.42
201.252	67.75
201.471	39.08
201.69	45.23
201.909	24.75
202.128	34.99
202.347	61.61
202.566	47.27
202.785	-32.6
203.004	80.04
203.223	69.8
203.442	-57.17
203.661	43.18
203.879	24.75
204.098	26.79
204.317	26.79
204.536	-5.97
204.755	2.22
204.974	28.84
205.193	41.13
205.411	24.75
205.63	34.99
205.849	12.46
206.068	-28.5
206.287	30.89
206.505	55.47
206.724	47.27
206.943	26.79
207.162	16.55
207.381	49.32
207.599	-20.31
207.818	37.03
208.037	8.36
208.255	106.67
208.474	22.7
208.693	16.55
208.911	20.65
209.13	30.89
209.349	41.13
209.567	90.28
209.786	71.85
210.005	84.14
210.223	67.75
210.442	41.13
210.661	90.28
210.879	12.46
211.098	32.94
211.316	67.75
211.535	6.31
211.753	-48.98
211.972	57.51
212.191	24.75
212.409	8.36
212.628	39.08
212.846	12.46
213.065	16.55
213.283	141.48
213.502	10.41
213.72	53.42
213.938	73.9
214.157	-14.17
214.375	28.84
214.594	24.75
214.812	41.13
215.031	41.13
215.249	12.46
215.467	141.48
215.686	53.42
215.904	2.22
216.122	39.08
216.341	92.33
216.559	34.99
216.778	92.33
216.996	55.47
217.214	-71.51
217.432	12.46
217.651	73.9
217.869	0.17
218.087	61.61
218.306	-8.02
218.524	98.47
218.742	4.27
218.96	131.24
219.179	-26.45
219.397	-16.21
219.615	57.51
219.833	0.17
220.051	53.42
220.27	16.55
220.488	86.19
220.706	118.95
220.924	30.89
221.142	-63.32
221.36	43.18
221.578	20.65
221.796	108.71
222.015	59.56
222.233	22.7
222.451	18.6
222.669	39.08
222.887	98.47
223.105	-12.12
223.323	49.32
223.541	67.75
223.759	127.14
223.977	-1.88
224.195	55.47
224.413	73.9
224.631	86.19
224.849	24.75
225.067	118.95
225.285	10.41
225.503	0.17
225.721	45.23
225.939	8.36
226.157	45.23
226.375	6.31
226.592	26.79
226.81	30.89
227.028	41.13
227.246	59.56
227.464	98.47
227.682	22.7
227.9	63.66
228.117	80.04
228.335	80.04
228.553	41.13
228.771	53.42
228.989	-38.74
229.206	57.51
229.424	55.47
229.642	71.85
229.86	32.94
230.077	75.95
230.295	8.36
230.513	69.8
230.731	75.95
230.948	63.66
231.166	77.99
231.384	34.99
231.601	47.27
231.819	-16.21
232.037	53.42
232.254	51.37
232.472	18.6
232.689	-8.02
232.907	39.08
233.125	12.46
233.342	82.09
233.56	49.32
233.777	55.47
233.995	-10.07
234.213	69.8
234.43	114.86
234.648	22.7
234.865	116.9
235.083	84.14
235.3	55.47
235.518	43.18
235.735	90.28
235.953	73.9
236.17	94.38
236.388	12.46
236.605	20.65
236.822	22.7
237.04	-8.02
237.257	-8.02
237.475	-16.21
237.692	41.13
237.909	157.86
238.127	20.65
238.344	-3.93
238.562	47.27
238.779	43.18
238.996	-3.93
239.214	43.18
239.431	26.79
239.648	45.23
239.865	10.41
240.083	55.47
240.3	37.03
240.517	75.95
240.735	59.56
240.952	32.94
241.169	24.75
241.386	82.09
241.603	-24.4
241.821	65.71
242.038	57.51
242.255	71.85
242.472	18.6
242.689	61.61
242.907	90.28
243.124	8.36
243.341	-20.31
243.558	0.17
243.775	73.9
243.992	18.6
244.209	34.99
244.426	-32.6
244.643	26.79
244.86	14.51
245.078	53.42
245.295	96.43
245.512	-24.4
245.729	71.85
245.946	63.66
246.163	57.51
246.38	108.71
246.597	41.13
246.814	65.71
247.031	30.89
247.248	10.41
247.464	98.47
247.681	45.23
247.898	112.81
248.115	92.33
248.332	90.28
248.549	108.71
248.766	96.43
248.983	55.47
249.2	217.26
249.417	137.38
249.633	49.32
249.85	2.22
250.067	41.13
250.284	-16.21
250.501	69.8
250.717	57.51
250.934	67.75
251.151	14.51
251.368	-5.97
251.585	143.53
251.801	28.84
252.018	-12.12
252.235	96.43
252.451	2.22
252.668	-5.97
252.885	88.23
253.102	26.79
253.318	41.13
253.535	34.99
253.752	55.47
253.968	63.66
254.185	47.27
254.401	51.37
254.618	88.23
254.835	90.28
255.051	116.9
255.268	84.14
255.484	77.99
255.701	53.42
255.917	20.65
256.134	-30.55
256.351	22.7
256.567	51.37
256.784	118.95
257	-16.21
257.217	84.14
257.433	90.28
257.65	135.34
257.866	69.8
258.082	67.75
258.299	28.84
258.515	24.75
258.732	32.94
258.948	106.67
259.165	14.51
259.381	77.99
259.597	49.32
259.814	12.46
260.03	43.18
260.246	75.95
260.463	82.09
260.679	57.51
260.895	6.31
261.112	34.99
261.328	43.18
261.544	75.95
261.761	92.33
261.977	67.75
262.193	32.94
262.409	53.42
262.626	51.37
262.842	-16.21
263.058	110.76
263.274	67.75
263.49	80.04
263.707	47.27
263.923	-1.88
264.139	41.13
264.355	-8.02
264.571	-20.31
264.787	57.51
265.004	47.27
265.22	75.95
265.436	37.03
265.652	24.75
265.868	41.13
266.084	30.89
266.3	-3.93
266.516	108.71
266.732	32.94
266.948	55.47
267.164	30.89
267.38	4.27
267.596	14.51
267.812	110.76
268.028	164.01
268.244	2.22
268.46	4.27
268.676	67.75
268.892	104.62
269.108	18.6
269.324	75.95
269.54	20.65
269.756	37.03
269.972	86.19
270.188	92.33
270.403	-1.88
270.619	51.37
270.835	82.09
271.051	2.22
271.267	-40.79
271.483	65.71
271.698	59.56
271.914	82.09
272.13	112.81
272.346	84.14
272.562	51.37
272.777	116.9
272.993	112.81
273.209	24.75
273.425	61.61
273.64	92.33
273.856	108.71
274.072	90.28
274.287	59.56
274.503	59.56
274.719	47.27
274.934	71.85
275.15	22.7
275.366	43.18
275.581	-18.26
275.797	73.9
276.012	65.71
276.228	18.6
276.444	39.08
276.659	67.75
276.875	32.94
277.09	8.36
277.306	-8.02
277.521	-8.02
277.737	37.03
277.952	55.47
278.168	43.18
278.383	43.18
278.599	53.42
278.814	41.13
279.03	67.75
279.245	39.08
279.461	75.95
279.676	71.85
279.892	49.32
280.107	53.42
280.322	30.89
280.538	14.51
280.753	49.32
280.969	14.51
281.184	8.36
281.399	94.38
281.615	24.75
281.83	32.94
282.045	45.23
282.26	22.7
282.476	8.36
282.691	34.99
282.906	65.71
283.122	32.94
283.337	110.76
283.552	65.71
283.767	100.52
283.983	110.76
284.198	-26.45
284.413	-1.88
284.628	-38.74
284.843	61.61
285.058	59.56
285.274	14.51
285.489	30.89
285.704	55.47
285.919	6.31
286.134	39.08
286.349	-34.64
286.564	14.51
286.779	67.75
286.995	53.42
287.21	0.17
287.425	75.95
287.64	32.94
287.855	18.6
288.07	57.51
288.285	90.28
288.5	-12.12
288.715	121
288.93	61.61
289.145	-22.36
289.36	49.32
289.575	77.99
289.79	45.23
290.004	39.08
290.219	32.94
290.434	45.23
290.649	14.51
290.864	51.37
291.079	82.09
291.294	20.65
291.509	26.79
291.724	28.84
291.938	24.75
292.153	53.42
292.368	26.79
292.583	116.9
292.798	51.37
293.012	-8.02
293.227	67.75
293.442	47.27
293.657	86.19
293.871	145.58
294.086	-10.07
294.301	61.61
294.516	47.27
294.73	102.57
294.945	108.71
295.16	20.65
295.374	112.81
295.589	65.71
295.804	16.55
296.018	69.8
296.233	73.9
296.447	6.31
296.662	61.61
296.877	80.04
297.091	51.37
297.306	16.55
297.52	24.75
297.735	73.9
297.949	108.71
298.164	100.52
298.378	49.32
298.593	20.65
298.807	51.37
299.022	59.56
299.236	43.18
299.451	75.95
299.665	53.42
299.88	90.28
300.094	67.75
300.309	153.77
300.523	-24.4
300.737	73.9
300.952	73.9
301.166	88.23
301.381	-18.26
301.595	77.99
301.809	6.31
302.024	77.99
302.238	30.89
302.452	90.28
302.667	59.56
302.881	143.53
303.095	39.08
303.309	10.41
303.524	106.67
303.738	80.04
303.952	34.99
304.166	43.18
304.381	12.46
304.595	39.08
304.809	80.04
305.023	55.47
305.237	63.66
305.452	37.03
305.666	77.99
305.88	92.33
306.094	65.71
306.308	-8.02
306.522	47.27
306.736	57.51
306.95	98.47
307.164	55.47
307.379	24.75
307.593	69.8
307.807	123.05
308.021	63.66
308.235	26.79
308.449	59.56
308.663	37.03
308.877	26.79
309.091	24.75
309.305	75.95
309.519	34.99
309.733	24.75
309.947	4.27
310.161	75.95
310.374	34.99
310.588	98.47
310.802	39.08
311.016	84.14
311.23	26.79
311.444	80.04
311.658	94.38
311.872	-1.88
312.085	98.47
312.299	94.38
312.513	96.43
312.727	37.03
312.941	22.7
313.154	-30.55
313.368	49.32
313.582	80.04
313.796	4.27
314.009	14.51
314.223	61.61
314.437	73.9
314.651	41.13
314.864	37.03
315.078	26.79
315.292	32.94
315.505	30.89
315.719	67.75
315.933	18.6
316.146	123.05
316.36	0.17
316.573	102.57
316.787	149.67
317.001	141.48
317.214	39.08
317.428	106.67
317.641	73.9
317.855	39.08
318.068	71.85
318.282	108.71
318.495	41.13
318.709	14.51
318.922	-8.02
319.136	88.23
319.349	118.95
319.563	108.71
319.776	75.95
319.99	47.27
320.203	96.43
320.417	43.18
320.63	102.57
320.843	71.85
321.057	22.7
321.27	94.38
321.483	41.13
321.697	102.57
321.91	67.75
322.124	94.38
322.337	63.66
322.55	-26.45
322.763	96.43
322.977	69.8
323.19	71.85
323.403	0.17
323.617	-8.02
323.83	65.71
324.043	55.47
324.256	84.14
324.469	-20.31
324.683	73.9
324.896	61.61
325.109	112.81
325.322	32.94
325.535	112.81
325.748	30.89
325.962	61.61
326.175	61.61
326.388	41.13
326.601	57.51
326.814	-18.26
327.027	110.76
327.24	110.76
327.453	77.99
327.666	106.67
327.879	32.94
328.092	10.41
328.305	37.03
328.518	80.04
328.731	53.42
328.944	63.66
329.157	57.51
329.37	45.23
329.583	143.53
329.796	108.71
330.009	75.95
330.222	106.67
330.435	69.8
330.648	39.08
330.861	135.34
331.073	145.58
331.286	65.71
331.499	118.95
331.712	-36.69
331.925	14.51
332.138	49.32
332.35	75.95
332.563	22.7
332.776	129.19
332.989	28.84
333.202	75.95
333.414	-3.93
333.627	98.47
333.84	20.65
334.053	108.71
334.265	63.66
334.478	2.22
334.691	12.46
334.903	67.75
335.116	98.47
335.329	10.41
335.541	94.38
335.754	96.43
335.966	71.85
336.179	73.9
336.392	53.42
336.604	37.03
336.817	55.47
337.029	159.91
337.242	0.17
337.454	108.71
337.667	34.99
337.88	141.48
338.092	41.13
338.305	123.05
338.517	53.42
338.729	45.23
338.942	57.51
339.154	41.13
339.367	51.37
339.579	82.09
339.792	34.99
340.004	77.99
340.217	71.85
340.429	112.81
340.641	26.79
340.854	98.47
341.066	80.04
341.278	125.1
341.491	88.23
341.703	112.81
341.915	14.51
342.128	73.9
342.34	108.71
342.552	108.71
342.764	82.09
342.977	51.37
343.189	108.71
343.401	75.95
343.613	-12.12
343.826	30.89
344.038	12.46
344.25	94.38
344.462	37.03
344.674	34.99
344.886	65.71
345.099	2.22
345.311	88.23
345.523	47.27
345.735	51.37
345.947	12.46
346.159	88.23
346.371	14.51
346.583	63.66
346.795	61.61
347.007	45.23
347.219	108.71
347.431	77.99
347.643	75.95
347.855	26.79
348.067	34.99
348.279	73.9
348.491	20.65
348.703	71.85
348.915	77.99
349.127	67.75
349.339	73.9
349.551	71.85
349.763	84.14
349.975	51.37
350.187	28.84
350.399	65.71
350.61	90.28
350.822	12.46
351.034	133.29
351.246	75.95
351.458	88.23
351.669	80.04
351.881	24.75
352.093	114.86
352.305	28.84
352.517	67.75
352.728	55.47
352.94	84.14
353.152	39.08
353.363	-14.17
353.575	12.46
353.787	96.43
353.999	67.75
354.21	47.27
354.422	53.42
354.633	135.34
354.845	106.67
355.057	37.03
355.268	98.47
355.48	71.85
355.692	118.95
355.903	43.18
356.115	22.7
356.326	37.03
356.538	80.04
356.749	108.71
356.961	90.28
357.172	73.9
357.384	104.62
357.595	71.85
357.807	67.75
358.018	96.43
358.23	71.85
358.441	129.19
358.653	133.29
358.864	80.04
359.075	96.43
359.287	65.71
359.498	104.62
359.709	57.51
359.921	94.38
360.132	59.56
360.344	59.56
360.555	118.95
360.766	69.8
360.977	104.62
361.189	172.2
361.4	22.7
361.611	67.75
361.823	65.71
362.034	59.56
362.245	10.41
362.456	127.14
362.667	45.23
362.879	73.9
363.09	37.03
363.301	125.1
363.512	73.9
363.723	61.61
363.935	24.75
364.146	43.18
364.357	69.8
364.568	121
364.779	98.47
364.99	47.27
365.201	92.33
365.412	102.57
365.623	53.42
365.834	28.84
366.045	47.27
366.256	108.71
366.467	30.89
366.678	98.47
366.889	94.38
367.1	104.62
367.311	49.32
367.522	114.86
367.733	98.47
367.944	53.42
368.155	34.99
368.366	39.08
368.577	22.7
368.788	55.47
368.999	49.32
369.209	12.46
369.42	145.58
369.631	55.47
369.842	0.17
370.053	96.43
370.264	104.62
370.474	63.66
370.685	24.75
370.896	106.67
371.107	88.23
371.317	49.32
371.528	6.31
371.739	90.28
371.95	100.52
372.16	67.75
372.371	63.66
372.582	61.61
372.792	129.19
373.003	80.04
373.214	49.32
373.424	75.95
373.635	116.9
373.846	129.19
374.056	139.43
374.267	53.42
374.477	71.85
374.688	90.28
374.898	96.43
375.109	129.19
375.319	110.76
375.53	102.57
375.74	116.9
375.951	61.61
376.161	49.32
376.372	174.25
376.582	77.99
376.793	28.84
377.003	94.38
377.214	65.71
377.424	86.19
377.635	106.67
377.845	98.47
378.055	90.28
378.266	63.66
378.476	86.19
378.686	88.23
378.897	102.57
379.107	73.9
379.317	139.43
379.528	55.47
379.738	164.01
379.948	73.9
380.158	92.33
380.369	51.37
380.579	53.42
380.789	143.53
380.999	114.86
381.21	45.23
381.42	123.05
381.63	90.28
381.84	114.86
382.05	112.81
382.261	153.77
382.471	139.43
382.681	-12.12
382.891	59.56
383.101	143.53
383.311	96.43
383.521	69.8
383.731	168.1
383.941	147.62
384.151	90.28
384.361	41.13
384.571	100.52
384.781	145.58
384.991	96.43
385.201	0.17
385.411	118.95
385.621	104.62
385.831	125.1
386.041	86.19
386.251	53.42
386.461	114.86
386.671	131.24
386.881	39.08
387.091	125.1
387.301	43.18
387.511	63.66
387.72	102.57
387.93	139.43
388.14	6.31
388.35	88.23
388.56	108.71
388.769	141.48
388.979	65.71
389.189	90.28
389.399	80.04
389.609	84.14
389.818	51.37
390.028	63.66
390.238	45.23
390.447	94.38
390.657	118.95
390.867	104.62
391.076	61.61
391.286	86.19
391.496	53.42
391.705	161.96
391.915	135.34
392.125	127.14
392.334	75.95
392.544	209.06
392.753	71.85
392.963	118.95
393.172	88.23
393.382	59.56
393.591	116.9
393.801	104.62
394.01	94.38
394.22	125.1
394.429	98.47
394.639	137.38
394.848	184.49
395.058	108.71
395.267	194.73
395.477	125.1
395.686	71.85
395.895	182.44
396.105	176.3
396.314	145.58
396.524	151.72
396.733	131.24
396.942	118.95
397.152	207.02
397.361	131.24
397.57	131.24
397.78	114.86
397.989	108.71
398.198	227.5
398.407	100.52
398.617	125.1
398.826	102.57
399.035	102.57
399.244	116.9
399.453	168.1
399.663	174.25
399.872	155.82
400.081	108.71
400.29	159.91
400.499	129.19
400.708	207.02
400.917	84.14
401.127	155.82
401.336	75.95
401.545	139.43
401.754	121
401.963	178.34
402.172	129.19
402.381	237.74
402.59	211.11
402.799	96.43
403.008	141.48
403.217	184.49
403.426	209.06
403.635	137.38
403.844	168.1
404.053	182.44
404.262	194.73
404.471	225.45
404.68	168.1
404.888	213.16
405.097	225.45
405.306	235.69
405.515	256.17
405.724	178.34
405.933	278.69
406.142	254.12
406.35	225.45
406.559	172.2
406.768	192.68
406.977	313.51
407.185	268.45
407.394	209.06
407.603	293.03
407.812	237.74
408.02	385.19
408.229	276.65
408.438	280.74
408.646	417.96
408.855	309.41
409.064	293.03
409.272	391.33
409.481	463.01
409.69	387.24
409.898	372.9
410.107	434.34
410.315	403.62
410.524	430.24
410.733	428.2
410.941	411.81
411.15	483.49
411.358	506.02
411.567	616.61
411.775	606.37
411.984	561.31
412.192	518.31
412.401	626.85
412.609	626.85
412.818	651.42
413.026	637.09
413.234	706.72
413.443	659.62
413.651	698.53
413.86	802.97
414.068	751.78
414.276	833.69
414.485	866.46
414.693	884.89
414.901	925.85
415.11	956.57
415.318	864.41
415.526	985.24
415.734	981.15
415.943	1011.87
416.151	1183.9
416.359	1116.31
416.567	1132.7
416.776	1261.72
416.984	1228.95
417.192	1317.01
417.4	1288.34
417.608	1308.82
417.817	1382.55
418.025	1501.33
418.233	1523.86
418.441	1495.19
418.649	1546.39
418.857	1691.79
419.065	1808.53
419.273	1738.9
419.481	1806.48
419.689	1941.65
419.897	1958.03
420.105	2056.33
420.313	2066.57
420.521	2177.16
420.729	2181.26
420.937	2314.38
421.145	2400.39
421.353	2451.59
421.561	2615.43
421.769	2562.18
421.977	2764.93
422.185	2574.47
422.393	2838.66
422.601	3063.93
422.809	3057.79
423.017	3031.16
423.224	3158.14
423.432	3291.26
423.64	3260.54
423.848	3633.27
424.056	3555.44
424.263	3795.06
424.471	3872.88
424.679	3897.46
424.887	4092.01
425.094	4245.61
425.302	4298.86
425.51	4331.62
425.718	4460.65
425.925	4532.33
426.133	4735.07
426.341	5023.84
426.548	5302.36
426.756	5220.44
426.964	5259.35
427.171	5625.94
427.379	5783.63
427.586	5826.64
427.794	6144.08
428.001	6307.91
428.209	6666.31
428.417	6625.35
428.624	7104.57
428.832	6963.26
429.039	6836.29
429.247	6877.25
429.454	7516.22
429.662	8005.68
429.869	7417.91
430.076	7936.05
430.284	7936.05
430.491	8114.22
430.699	8667.17
430.906	8572.97
431.114	8773.67
431.321	9076.77
431.528	9332.76
431.736	9809.94
431.943	10313.74
432.15	10201.1
432.358	10205.2
432.565	10776.58
432.772	10668.04
432.979	11196.42
433.187	11628.54
433.394	11288.57
433.601	12197.87
433.808	12294.13
434.016	11980.79
434.223	12861.41
434.43	13541.34
434.637	13160.42
434.844	14016.47
435.052	14368.72
435.259	14165.97
435.466	14419.92
435.673	14278.61
435.88	15284.16
436.087	16074.68
436.294	16066.49
436.501	15554.49
436.708	15890.36
436.915	16457.65
437.122	17293.22
437.329	17262.5
437.537	17754.01
437.743	18100.12
437.95	17821.59
438.157	18628.49
438.364	19175.3
438.571	19140.49
438.778	19455.87
438.985	21235.56
439.192	20475.76
439.399	21047.15
439.606	20696.94
439.813	21938.01
440.02	23261
440.227	22873.93
440.433	22531.92
440.64	23529.28
440.847	23152.46
441.054	23867.2
441.261	25343.78
441.467	24973.1
441.674	25261.87
441.881	26408.73
442.088	26568.47
442.294	26156.83
442.501	26634
442.708	27227.92
442.914	28813.04
443.121	29409
443.328	28776.18
443.534	30711.51
443.741	30041.82
443.948	29394.67
444.154	31741.64
444.361	31108.82
444.568	31866.56
444.774	31938.24
444.981	32257.73
445.187	32958.13
445.394	34659.99
445.6	34471.58
445.807	37480.05
446.013	35542.67
446.22	36693.63
446.426	37824.11
446.633	38041.19
446.839	39278.16
447.046	37690.99
447.252	39749.2
447.459	40324.68
447.665	39679.57
447.871	41526.83
448.078	43343.38
448.284	41231.93
448.491	42671.65
448.697	44076.55
448.903	44889.6
449.11	44635.65
449.316	44547.59
449.522	45024.76
449.728	46308.84
449.935	46435.81
450.141	46462.44
450.347	47680.98
450.553	46437.86
450.76	46665.19
450.966	48317.9
451.172	47662.55
451.378	49493.43
451.584	47629.78
451.791	48997.82
451.997	48899.52
452.203	49739.19
452.409	50331.05
452.615	49370.55
452.821	47936.98
453.027	47205.85
453.233	49614.26
453.44	48211.4
453.646	48448.97
453.852	48606.66
454.058	49753.52
454.264	47793.62
454.47	49010.11
454.676	48160.2
454.882	49360.31
455.088	45428.21
455.294	45686.26
455.5	46949.85
455.705	47068.64
455.911	45622.77
456.117	44723.71
456.323	43828.75
456.529	41879.08
456.735	43431.44
456.941	42460.71
457.147	41631.28
457.352	40390.21
457.558	40103.49
457.764	40173.13
457.97	39437.9
458.176	38733.4
458.381	38618.72
458.587	36667
458.793	37109.36
458.999	34944.66
459.204	36882.04
459.41	36447.87
459.616	34064.03
459.821	33818.28
460.027	34125.47
460.233	33466.03
460.438	31352.52
460.644	32071.36
460.85	30602.97
461.055	30193.37
461.261	30113.5
461.466	27805.44
461.672	27062.03
461.878	28583.67
462.083	27154.19
462.289	26466.07
462.494	26050.33
462.7	24792.88
462.905	24168.25
463.111	25179.95
463.316	25517.86
463.522	24397.62
463.727	24567.6
463.932	24551.22
464.138	24479.54
464.343	24274.74
464.549	23813.95
464.754	24422.2
464.959	24174.39
465.165	24252.22
465.37	23162.7
465.575	22513.49
465.781	23420.74
465.986	23772.99
466.191	22808.4
466.397	22206.3
466.602	21165.93
466.807	22038.36
467.012	21811.04
467.218	21944.16
467.423	21704.54
467.628	21802.85
467.833	22599.51
468.038	21751.65
468.244	21272.42
468.449	22034.27
468.654	21454.69
468.859	21165.93
469.064	21055.34
469.269	20483.95
469.474	20676.46
469.679	20797.29
469.885	20023.16
470.09	20776.81
470.295	20092.79
470.5	19939.19
470.705	19828.6
470.91	19455.87
471.115	19242.89
471.32	19849.08
471.525	19494.79
471.73	19025.8
471.935	19095.43
472.139	18339.73
472.344	18644.88
472.549	18526.1
472.754	18251.67
472.959	17817.5
473.164	17631.13
473.369	17268.64
473.574	18093.97
473.778	17807.26
473.983	17549.21
474.188	17149.86
474.393	16682.92
474.598	16770.99
474.802	16691.12
475.007	16531.37
475.212	16582.57
475.417	15966.14
475.621	15810.49
475.826	15785.91
476.031	15747
476.235	15284.16
476.44	15738.81
476.645	15189.95
476.849	15347.65
477.054	15108.04
477.259	14872.52
477.463	14796.74
477.668	14483.41
477.872	14704.59
478.077	14477.26
478.282	14082
478.486	14092.24
478.691	14014.42
478.895	13955.03
479.1	13866.97
479.304	13803.48
479.509	13496.28
479.713	13656.03
479.918	13133.79
480.122	13154.27
480.326	13326.3
480.531	13328.35
480.735	12969.96
480.94	13115.36
481.144	13533.15
481.348	12910.57
481.553	12951.53
481.757	12615.66
481.961	12804.07
482.166	13047.78
482.37	12922.85
482.574	12898.28
482.778	12840.93
482.983	13047.78
483.187	12589.03
483.391	12912.61
483.595	12601.32
483.8	12652.52
484.004	12701.67
484.208	13027.3
484.412	12775.4
484.616	12820.46
484.821	12572.65
485.025	12570.6
485.229	12824.55
485.433	12691.43
485.637	12847.08
485.841	12574.7
486.045	12863.46
486.249	12857.32
486.453	12789.74
486.657	12810.22
486.861	12881.89
487.065	12681.19
487.269	12738.54
487.473	12543.98
487.677	12875.75
487.881	12806.12
488.085	12789.74
488.289	12926.95
488.493	12505.07
488.697	12718.06
488.901	12820.46
489.105	12900.33
489.309	12867.56
489.512	12947.43
489.716	12998.63
489.92	12832.74
490.124	12820.46
490.328	13113.31
490.531	13055.97
490.735	13174.75
490.939	13146.08
491.143	12922.85
491.346	13168.61
491.55	13510.62
491.754	13342.69
491.958	13268.96
492.161	13246.43
492.365	13545.44
492.569	13242.34
492.772	13271.01
492.976	13408.22
493.18	13467.61
493.383	13422.56
493.587	14043.09
493.79	13895.64
493.994	13606.88
494.197	14006.23
494.401	14165.97
494.605	14204.88
494.808	14434.25
495.012	14456.78
495.215	14534.6
495.419	14567.37
495.622	14327.76
495.825	14780.36
496.029	14716.87
496.232	15237.06
496.436	14802.89
496.639	15267.78
496.843	15214.53
497.046	15644.6
497.249	15587.26
497.453	15859.64
497.656	16111.54
497.859	16039.86
498.063	16119.73
498.266	16443.31
498.469	16289.71
498.673	17004.46
498.876	16990.12
499.079	17024.93
499.282	16961.45
499.485	17543.07
499.689	17459.1
499.892	17874.84
500.095	17956.76
500.298	18292.63
500.501	17790.88
500.705	18775.95
500.908	18808.72
501.111	18937.74
501.314	18902.92
501.517	19294.08
501.72	19578.75
501.923	19521.41
502.126	19773.31
502.329	20279.16
502.532	20285.3
502.735	20232.05
502.938	20801.39
503.141	20758.38
503.344	21010.28
503.547	21401.44
503.75	21780.32
503.953	21897.05
504.156	22013.79
504.359	22331.22
504.562	22445.91
504.765	22675.28
504.968	23357.25
505.17	23183.18
505.373	23369.54
505.576	23750.46
505.779	24061.76
505.982	24411.96
506.185	24661.81
506.387	24758.06
506.59	24835.89
506.793	25657.12
506.996	25120.56
507.198	26230.55
507.401	26003.23
507.604	26228.51
507.807	26830.61
508.009	26746.64
508.212	27090.7
508.415	27201.29
508.617	27787.01
508.82	27619.08
509.022	27934.46
509.225	28546.81
509.428	28600.05
509.63	28927.73
509.833	28673.78
510.035	29576.94
510.238	29523.69
510.44	30054.11
510.643	30641.88
510.845	30916.31
511.048	30435.03
511.25	30955.22
511.453	31350.48
511.655	32345.79
511.858	32034.5
512.06	32327.36
512.262	32657.08
512.465	32409.28
512.667	33087.15
512.87	33216.18
513.072	33482.41
513.274	34420.38
513.477	34723.48
513.679	34717.34
513.881	35147.41
514.084	35247.76
514.286	35468.94
514.488	35649.16
514.69	36923
514.893	36759.16
515.095	36836.98
515.297	37244.53
515.499	37162.61
515.701	37926.5
515.904	37977.7
516.106	38145.64
516.308	38694.49
516.51	38917.72
516.712	39108.18
516.914	39534.16
517.116	39908.94
517.318	40138.31
517.52	40183.37
517.722	40666.69
517.925	41145.91
518.127	41655.86
518.329	41788.97
518.531	41915.95
518.733	42698.27
518.935	42853.92
519.136	43017.75
519.338	43314.71
519.54	43869.71
519.742	43939.34
519.944	44228.1
520.146	45233.66
520.348	45061.63
520.55	45354.49
520.752	45004.28
520.954	46028.27
521.155	46052.84
521.357	46470.63
521.559	46931.42
521.761	47486.42
521.963	47609.3
522.164	47642.07
522.366	47914.45
522.568	48268.75
522.77	47789.52
522.971	49046.97
523.173	48745.92
523.375	49026.49
523.576	48979.39
523.778	49606.07
523.98	49673.65
524.181	49726.9
524.383	50204.08
524.584	50650.53
524.786	50458.02
524.988	50324.91
525.189	50902.43
525.391	51236.25
525.592	51598.74
525.794	51213.73
525.995	51819.92
526.197	51920.27
526.398	51910.03
526.6	52204.94
526.801	52360.59
527.003	52368.78
527.204	52790.66
527.406	53237.12
527.607	52794.76
527.808	53564.79
528.01	52856.2
528.211	53226.88
528.412	54394.22
528.614	53935.48
528.815	53878.13
529.016	54562.15
529.218	53978.48
529.419	54160.75
529.62	54388.08
529.822	54101.36
530.023	54113.65
530.224	54326.64
530.425	54455.66
530.626	54314.35
530.828	54246.77
531.029	55362.91
531.23	54547.82
531.431	54467.95
531.632	54957.41
531.833	54955.36
532.035	55227.74
532.236	55168.35
532.437	55641.43
532.638	54779.24
532.839	55100.77
533.04	55588.19
533.241	54902.12
533.442	55729.5
533.643	55039.33
533.844	55448.92
534.045	55616.86
534.246	55068
534.447	55651.67
534.648	55145.83
534.849	55733.59
535.05	54971.75
535.251	55379.29
535.451	55244.13
535.652	55792.98
535.853	55170.4
536.054	55586.14
536.255	55545.18
536.456	55350.62
536.657	56120.66
536.857	55397.73
537.058	55244.13
537.259	55596.38
537.46	55590.23
537.66	55047.52
537.861	55831.89
538.062	55700.82
538.263	55879
538.463	55504.22
538.664	55321.95
538.865	55518.56
539.065	55870.81
539.266	55440.73
539.466	55858.52
539.667	54662.5
539.868	55870.81
540.068	55448.92
540.269	55481.69
540.469	55577.95
540.67	55407.97
540.87	55219.55
541.071	55201.12
541.271	56075.6
541.472	55377.25
541.672	55219.55
541.873	55190.88
542.073	54701.42
542.274	55414.11
542.474	55477.6
542.675	55039.33
542.875	55393.63
543.075	55020.9
543.276	55031.14
543.476	55446.88
543.676	55117.15
543.877	55471.45
544.077	55272.8
544.277	55586.14
544.478	54990.18
544.678	54824.29
544.878	54918.5
545.078	55096.67
545.279	55006.56
545.479	54928.74
545.679	55121.25
545.879	55276.9
546.079	55008.61
546.28	54828.39
546.48	54605.16
546.68	55049.57
546.88	54988.13
547.08	54553.96
547.28	54994.28
547.48	54660.46
547.68	54838.63
547.88	54316.4
548.081	54758.76
548.281	54891.88
548.481	54873.45
548.681	55278.94
548.881	54547.82
549.081	55031.14
549.28	54420.84
549.48	55166.3
549.68	54601.07
549.88	55455.07
550.08	54746.47
550.28	54865.25
550.48	54308.21
550.68	55041.38
550.88	54197.62
551.08	54541.67
551.279	54467.95
551.479	54175.09
551.679	54758.76
551.879	54508.91
552.079	54984.04
552.278	54398.32
552.478	54807.91
552.678	54623.59
552.878	54924.64
553.077	54498.67
553.277	54041.97
553.477	54754.66
553.676	54179.18
553.876	54496.62
554.076	54451.56
554.275	53964.15
554.475	53724.53
554.674	54553.96
554.874	54185.33
555.074	54058.35
555.273	54107.51
555.473	54725.99
555.672	53702.01
555.872	54148.46
556.071	54091.12
556.271	54386.03
556.47	53775.73
556.67	54019.44
556.869	53904.76
557.068	54105.46
557.268	53245.31
557.467	53613.94
557.667	53204.35
557.866	53962.1
558.065	53263.74
558.265	53261.69
558.464	53048.71
558.663	53835.13
558.863	53392.76
559.062	53923.19
559.261	53296.51
559.461	53865.84
559.66	53226.88
559.859	53618.04
560.058	53071.23
560.258	53269.89
560.457	52759.94
560.656	53253.5
560.855	52825.48
561.054	52903.3
561.253	52327.82
561.453	52772.23
561.652	53015.94
561.851	52624.78
562.05	52628.87
562.249	52170.13
562.448	52503.95
562.647	52833.67
562.846	52688.26
563.045	52399.5
563.244	51965.33
563.443	52747.65
563.642	51897.75
563.841	52415.88
564.04	51789.2
564.239	52417.93
564.438	52090.26
564.637	51752.34
564.836	51944.85
565.035	51385.75
565.234	51922.32
565.432	51549.59
565.631	51824.02
565.83	51402.14
566.029	51266.97
566.228	51103.13
566.427	51604.89
566.625	50927.01
566.824	50793.89
567.023	51471.77
567.222	50206.12
567.42	51180.96
567.619	50824.61
567.818	50593.19
568.016	49931.7
568.215	50970.02
568.414	50732.45
568.612	50660.77
568.811	50240.94
569.01	49866.16
569.208	50415.02
569.407	50259.37
569.605	49561.01
569.804	50574.76
570.002	49681.84
570.201	50140.59
570.4	49413.56
570.598	49509.82
570.797	48932.29
570.995	49665.46
571.193	49278.39
571.392	49313.21
571.59	48825.79
571.789	49425.85
571.987	48905.66
572.186	49042.88
572.384	49075.65
572.582	49116.61
572.781	48747.97
572.979	47816.15
573.177	48575.94
573.376	48657.86
573.574	48379.34
573.772	48238.03
573.971	48033.23
574.169	47504.85
574.367	47543.77
574.565	48010.7
574.763	47609.3
574.962	47695.31
575.16	47193.56
575.358	47717.84
575.556	46892.51
575.754	47785.43
575.952	46839.26
576.151	47414.74
576.349	46552.55
576.547	47224.28
576.745	46800.35
576.943	47011.29
577.141	46921.18
577.339	46626.28
577.537	46491.11
577.735	46421.48
577.933	45911.53
578.131	46003.69
578.329	46110.19
578.527	46024.17
578.725	45882.86
578.923	46179.82
579.121	45571.57
579.319	45643.25
579.516	45977.07
579.714	45379.06
579.912	45483.51
580.11	45276.66
580.308	44994.04
580.506	45184.51
580.704	44490.24
580.901	44924.41
581.099	45503.99
581.297	44531.2
581.495	44807.68
581.692	44879.36
581.89	44127.75
582.088	44684.8
582.285	44101.13
582.483	43933.2
582.681	44023.31
582.878	43687.44
583.076	43597.33
583.274	43742.74
583.471	43519.51
583.669	43918.86
583.866	43320.85
584.064	43644.43
584.262	43064.86
584.459	43542.03
584.657	42894.88
584.854	43281.94
585.052	42329.64
585.249	42823.2
585.447	43021.85
585.644	42534.43
585.841	42538.53
586.039	42909.21
586.236	42010.15
586.434	42274.34
586.631	41801.26
586.828	41784.88
587.026	41739.82
587.223	41694.77
587.42	41506.35
587.618	41844.27
587.815	41293.36
588.012	41358.9
588.21	41082.42
588.407	41707.05
588.604	41285.17
588.801	40830.52
588.999	41063.99
589.196	40549.95
589.393	40857.15
589.59	40824.38
589.787	40517.18
589.984	40255.04
590.182	39779.92
590.379	40371.78
590.576	40058.44
590.773	40007.24
590.97	39499.34
591.167	39738.96
591.364	38952.54
591.561	39429.71
591.758	39560.78
591.955	38919.77
592.152	39644.75
592.349	39018.07
592.546	39067.22
592.743	38897.24
592.94	38336.1
593.137	39040.6
593.334	38862.43
593.531	38327.91
593.727	38796.89
593.924	38360.67
594.121	37887.59
594.318	38401.63
594.515	37744.23
594.712	38127.2
594.908	37809.77
595.105	37938.79
595.302	37289.59
595.499	37690.99
595.696	37756.52
595.892	37322.35
596.089	37875.3
596.286	37160.56
596.482	36798.07
596.679	36972.15
596.876	37006.97
597.072	36810.36
597.269	36587.13
597.466	36388.48
597.662	36443.77
597.859	36460.16
598.055	36679.29
598.252	36259.46
598.448	36112
598.645	35911.3
598.841	35860.1
599.038	35837.58
599.234	35878.54
599.431	35540.62
599.627	35106.45
599.824	35260.05
600.02	35094.16
600.217	35286.67
600.413	35458.7
600.609	34768.54
600.806	34535.07
601.002	34889.37
601.198	34551.45
601.395	34666.14
601.591	34485.92
601.787	34717.34
601.984	33982.12
602.18	34324.13
602.376	34209.44
602.572	34266.78
602.769	33642.15
602.965	33904.29
603.161	33832.61
603.357	33353.39
603.553	33771.18
603.75	33521.32
603.946	33324.72
604.142	33197.74
604.338	33195.7
604.534	33334.96
604.73	32937.65
604.926	32921.27
605.122	33146.54
605.318	32411.32
605.514	32577.21
605.71	32532.15
605.906	32335.55
606.102	32337.6
606.298	32423.61
606.494	32087.75
606.69	32540.35
606.886	32243.39
607.082	31745.73
607.278	32157.38
607.474	31479.5
607.67	32220.86
607.866	31610.57
608.062	32257.73
608.257	31682.25
608.453	31743.69
608.649	31672.01
608.845	31330
609.041	31610.57
609.236	31246.03
609.432	31446.73
609.628	31248.08
609.824	31147.73
610.019	31176.4
610.215	31286.99
610.411	31297.23
610.606	30858.96
610.802	30858.96
610.998	30858.96
611.193	30811.86
611.389	30658.26
611.584	30588.63
611.78	30207.71
611.976	30410.46
612.171	30498.52
612.367	30562.01
612.562	30361.31
612.758	30111.46
612.953	30037.73
613.149	30455.51
613.344	30082.78
613.539	30400.22
613.735	30299.87
613.93	30209.76
614.126	29812.45
614.321	30392.03
614.517	29982.43
614.712	29974.24
614.907	29601.51
615.103	29978.34
615.298	29452.01
615.493	30021.34
615.688	29202.16
615.884	30162.65
616.079	29396.71
616.274	29701.86
616.47	29322.99
616.665	29077.23
616.86	29026.03
617.055	29236.97
617.25	29337.32
617.445	29353.71
617.641	28696.31
617.836	29222.64
618.031	28884.72
618.226	28434.17
618.421	28671.73
618.616	28845.81
618.811	28311.29
619.006	28688.12
619.201	28147.45
619.396	28385.02
619.591	28116.73
619.786	28178.17
619.981	27725.57
620.176	28030.72
620.371	27756.29
620.566	27850.5
620.761	27424.52
620.956	27717.38
621.151	27045.65
621.346	27516.68
621.541	27041.55
621.735	27119.37
621.93	26609.43
622.125	26803.99
622.32	26140.44
622.515	26715.92
622.709	26312.47
622.904	26279.71
623.099	26240.79
623.294	26156.83
623.488	25700.13
623.683	25921.31
623.878	25423.65
624.072	25579.3
624.267	25536.29
624.462	25286.44
624.656	24973.1
624.851	25210.67
625.046	24891.18
625.24	24839.98
625.435	24667.95
625.629	24772.4
625.824	24502.07
626.018	24276.79
626.213	24047.42
626.407	24088.38
626.602	23791.42
626.796	24080.19
626.991	23406.41
627.185	23373.64
627.38	23680.83
627.574	23072.59
627.768	23074.63
627.963	22878.03
628.157	22638.42
628.352	22771.54
628.546	22380.37
628.74	22609.75
628.935	22560.59
629.129	22392.66
629.323	22069.08
629.517	22138.71
629.712	21888.86
629.906	22161.24
630.1	21368.68
630.294	21866.33
630.489	21483.36
630.683	21647.2
630.877	21452.64
631.071	21178.22
631.265	21297
631.459	21077.87
631.653	20703.09
631.848	20887.4
632.042	20764.53
632.236	20805.49
632.43	20318.07
632.624	20428.66
632.818	20193.14
633.012	19840.89
633.206	19969.91
633.4	20289.4
633.594	19767.17
633.788	19947.39
633.982	19992.44
634.176	19681.15
634.369	19681.15
634.563	19369.86
634.757	19154.82
634.951	19333
635.145	19126.15
635.339	19472.26
635.533	18915.21
635.726	18878.35
635.92	18780.04
636.114	18448.27
636.308	18605.97
636.501	18648.97
636.695	18601.87
636.889	18470.8
637.083	18136.98
637.276	17928.09
637.47	17768.35
637.664	17872.79
637.857	17649.57
638.051	17665.95
638.244	17504.16
638.438	17532.83
638.632	17575.84
638.825	17313.7
639.019	17106.85
639.212	17008.55
639.406	16949.16
639.599	16832.43
639.793	16811.95
639.986	16637.87
640.18	16785.32
640.373	16756.65
640.567	16545.71
640.76	16623.53
640.954	16164.79
641.147	15974.33
641.34	16238.51
641.534	16289.71
641.727	16256.95
641.92	15790.01
642.114	15763.39
642.307	15720.38
642.5	15837.11
642.694	15577.02
642.887	15640.51
643.08	15691.71
643.273	15235.01
643.467	15521.73
643.66	15159.24
643.853	15269.83
644.046	14915.53
644.239	14995.4
644.432	15022.02
644.626	14956.49
644.819	14745.55
645.012	14766.03
645.205	14802.89
645.398	14649.29
645.591	14206.93
645.784	14434.25
645.977	14047.19
646.17	14301.14
646.363	13977.56
646.556	13832.15
646.749	14073.81
646.942	14102.48
647.135	13899.73
647.328	13674.46
647.521	13932.5
647.714	13590.49
647.907	13670.36
648.099	13414.37
648.292	13762.52
648.485	13352.93
648.678	13295.58
648.871	13289.44
649.064	13144.03
649.256	13268.96
649.449	13135.84
649.642	12990.44
649.835	12763.11
650.027	12890.09
650.22	12879.85
650.413	12773.35
650.605	12756.97
650.798	12695.53
650.991	12476.4
651.183	12603.37
651.376	12234.74
651.568	12234.74
651.761	12216.3
651.954	12152.82
652.146	11986.93
652.339	12199.92
652.531	11978.74
652.724	12019.7
652.916	11917.3
653.109	11980.79
653.301	11780.09
653.494	11816.95
653.686	11655.16
653.879	11692.02
654.071	11700.22
654.263	11372.54
654.456	11470.84
654.648	11501.56
654.84	11208.7
655.033	11292.67
655.225	11206.66
655.417	11134.98
655.61	11132.93
655.802	11255.81
655.994	11010.05
656.186	10797.06
656.379	10897.41
656.571	10815.49
656.763	10889.22
656.955	10678.28
657.148	10801.16
657.34	10616.84
657.532	10612.74
657.724	10334.22
657.916	10541.07
658.108	10453
658.3	10227.73
658.492	10512.39
658.684	10201.1
658.876	10092.56
659.068	10065.94
659.26	9924.63
659.452	10080.27
659.644	10047.51
659.836	10094.61
660.028	9908.24
660.22	9855
660.412	9771.03
660.604	9689.11
660.796	9396.25
660.988	9607.19
661.18	9578.52
661.372	9472.03
661.563	9678.87
661.755	9365.53
661.947	9496.6
662.139	9414.68
662.331	9353.24
662.522	9156.64
662.714	9130.02
662.906	9127.97
663.097	9287.71
663.289	9146.4
663.481	8945.7
663.673	8976.42
663.864	8980.51
664.056	8970.27
664.247	8876.07
664.439	8652.84
664.631	8763.43
664.822	8775.72
665.014	8935.46
665.205	8831.01
665.397	8534.06
665.588	8644.65
665.78	8454.19
665.971	8359.98
666.163	8271.92
666.354	8382.51
666.546	8384.55
666.737	8351.79
666.929	8411.18
667.12	8202.29
667.311	8411.18
667.503	7929.91
667.694	8079.41
667.885	8060.98
668.077	7923.76
668.268	7907.38
668.459	7780.4
668.651	7850.03
668.842	7823.41
669.033	7833.65
669.224	7831.6
669.416	7655.48
669.607	7649.33
669.798	7665.72
669.989	7485.5
670.18	7485.5
670.371	7544.89
670.563	7712.82
670.754	7243.84
670.945	7411.77
671.136	7438.39
671.327	7209.02
671.518	7235.64
671.709	7301.18
671.9	7401.53
672.091	7262.27
672.282	7026.75
672.473	7131.2
672.664	6993.98
672.855	7075.9
673.046	7163.97
673.237	7237.69
673.428	6942.78
673.619	7053.38
673.809	6887.49
674	6996.03
674.191	7045.18
674.382	6856.77
674.573	6981.7
674.764	6887.49
674.954	7024.7
675.145	6828.1
675.336	6737.99
675.527	6666.31
675.717	6666.31
675.908	6508.62
676.099	6690.88
676.289	6676.55
676.48	6561.86
676.671	6547.53
676.861	6465.61
677.052	6465.61
677.243	6365.26
677.433	6324.3
677.624	6527.05
677.814	6412.36
678.005	6504.52
678.195	6449.22
678.386	6305.87
678.576	6168.65
678.767	6176.84
678.957	6250.57
679.148	6166.6
679.338	6101.07
679.529	6123.6
679.719	6080.59
679.909	6264.91
680.1	6180.94
680.29	6125.65
680.481	6090.83
680.671	6101.07
680.861	6056.01
681.052	6121.55
681.242	6043.73
681.432	6031.44
681.622	5947.47
681.813	5900.37
682.003	5836.88
682.193	5830.74
682.383	5986.38
682.573	5900.37
682.764	5806.16
682.954	5943.38
683.144	5697.62
683.334	5738.58
683.524	5742.68
683.714	5740.63
683.904	5748.82
684.094	5572.69
684.284	5691.48
684.474	5679.19
684.664	5613.65
684.854	5732.44
685.044	5623.89
685.234	5570.65
685.424	5478.49
685.614	5601.37
685.804	5410.9
685.994	5539.93
686.184	5546.07
686.374	5568.6
686.564	5531.73
686.753	5281.88
686.943	5441.62
687.133	5345.37
687.323	5415
687.513	5458.01
687.702	5339.23
687.892	5103.71
688.082	5163.1
688.272	5277.79
688.461	5136.48
688.651	5173.34
688.841	5273.69
689.03	5204.06
689.22	5089.37
689.41	5144.67
689.599	4976.73
689.789	5077.09
689.979	5103.71
690.168	5173.34
690.358	5011.55
690.547	4868.19
690.737	4909.15
690.926	4948.06
691.116	4911.2
691.305	4812.9
691.495	4681.83
691.684	4857.95
691.874	4884.58
692.063	4819.04
692.252	4657.25
692.442	4657.25
692.631	4700.26
692.82	4739.17
693.01	4571.24
693.199	4583.52
693.388	4567.14
693.578	4673.64
693.767	4556.9
693.956	4585.57
694.146	4587.62
694.335	4474.98
694.524	4434.02
694.713	4589.67
694.902	4497.51
695.092	4503.65
695.281	4444.26
695.47	4491.37
695.659	4491.37
695.848	4417.64
696.037	4223.08
696.226	4470.89
696.415	4202.6
696.604	4335.72
696.793	4366.44
696.982	4243.56
697.171	4309.1
697.36	4188.27
697.549	4261.99
697.738	4151.4
697.927	4147.31
698.116	4321.38
698.305	4016.24
698.494	4345.96
698.683	4149.36
698.872	4268.14
699.061	4178.03
699.25	4161.64
699.438	4104.3
699.627	4053.1
699.816	4178.03
700.005	4139.12
700.193	4104.3
700.382	4173.93
700.571	4108.4
700.76	4130.92
700.948	4018.29
701.137	4218.99
701.326	4059.24
701.514	4053.1
701.703	4042.86
701.892	3956.85
702.08	4026.48
702.269	3952.75
702.457	4089.96
702.646	4087.92
702.834	3954.8
703.023	3913.84
703.212	3919.98
703.4	3971.18
703.589	4038.77
703.777	4057.2
703.965	3874.93
704.154	3991.66
704.342	3840.11
704.531	3905.65
704.719	3915.89
704.907	3944.56
705.096	3870.83
705.284	3893.36
705.472	3942.51
705.661	3838.06
705.849	3852.4
706.037	4001.9
706.226	4003.95
706.414	3829.87
706.602	3821.68
706.79	3874.93
706.979	3801.2
707.167	3899.5
707.355	3825.78
707.543	3983.47
707.731	3825.78
707.919	3811.44
708.107	3911.79
708.296	3747.95
708.484	3770.48
708.672	3815.54
708.86	3897.46
709.048	3727.47
709.236	3772.53
709.424	3825.78
709.612	3788.91
709.8	3651.7
709.988	3762.29
710.176	3897.46
710.364	3807.34
710.551	3737.71
710.739	3678.32
710.927	3688.56
711.115	3711.09
711.303	3696.75
711.491	3661.94
711.679	3582.07
711.866	3778.67
712.054	3639.41
712.242	3727.47
712.43	3674.23
712.617	3678.32
712.805	3690.61
712.993	3629.17
713.181	3496.05
713.368	3688.56
713.556	3698.8
713.744	3598.45
713.931	3706.99
714.119	3643.51
714.306	3592.31
714.494	3549.3
714.682	3612.79
714.869	3557.49
715.057	3659.89
715.244	3530.87
715.432	3670.13
715.619	3629.17
715.807	3516.53
715.994	3575.92
716.182	3580.02
716.369	3592.31
716.556	3580.02
716.744	3516.53
716.931	3610.74
717.119	3524.72
717.306	3586.16
717.493	3573.88
717.681	3541.11
717.868	3483.77
718.055	3573.88
718.242	3590.26
718.43	3553.4
718.617	3575.92
718.804	3504.25
718.991	3463.29
719.179	3541.11
719.366	3528.82
719.553	3606.64
719.74	3514.49
719.927	3496.05
720.114	3483.77
720.301	3360.89
720.488	3358.84
720.676	3500.15
720.863	3606.64
721.05	3399.8
721.237	3565.68
721.424	3442.81
721.611	3436.66
721.798	3352.7
721.985	3313.78
722.172	3367.03
722.358	3313.78
722.545	3430.52
722.732	3494.01
722.919	3489.91
723.106	3483.77
723.293	3428.47
723.48	3430.52
723.667	3410.04
723.853	3352.7
724.04	3364.98
724.227	3491.96
724.414	3397.75
724.6	3342.46
724.787	3379.32
724.974	3350.65
725.161	3360.89
725.347	3317.88
725.534	3395.7
725.72	3364.98
725.907	3330.17
726.094	3379.32
726.28	3231.87
726.467	3270.78
726.653	3311.74
726.84	3184.76
727.027	3305.59
727.213	3258.49
727.4	3272.82
727.586	3309.69
727.773	3217.53
727.959	3291.26
728.145	3344.5
728.332	3293.3
728.518	3287.16
728.705	3418.23
728.891	3264.63
729.077	3258.49
729.264	3393.65
729.45	3389.56
729.636	3311.74
729.823	3205.24
730.009	3305.59
730.195	3203.19
730.382	3287.16
730.568	3352.7
730.754	3283.06
730.94	3211.39
731.126	3231.87
731.313	3156.09
731.499	3219.58
731.685	3166.33
731.871	3127.42
732.057	3319.93
732.243	3283.06
732.429	3244.15
732.615	3278.97
732.801	3195
732.987	3223.67
733.173	3219.58
733.359	3151.99
733.545	3248.25
733.731	3231.87
733.917	3135.61
734.103	3278.97
734.289	3172.47
734.475	3149.95
734.661	3147.9
734.847	3201.15
735.033	3207.29
735.219	3217.53
735.404	3145.85
735.59	3070.08
735.776	3190.91
735.962	3190.91
736.148	3217.53
736.333	3076.22
736.519	3016.83
736.705	3156.09
736.89	2979.97
737.076	3057.79
737.262	2992.25
737.447	3086.46
737.633	3022.97
737.819	3057.79
738.004	3131.51
738.19	3172.47
738.375	3035.26
738.561	2998.4
738.747	2979.97
738.932	3082.36
739.118	2920.57
739.303	2912.38
739.489	3006.59
739.674	2953.34
739.859	2920.57
740.045	3041.4
740.23	3049.6
740.416	2914.43
740.601	2850.94
740.786	3012.73
740.972	2885.76
741.157	3031.16
741.342	2861.18
741.528	2846.85
741.713	2900.09
741.898	2846.85
742.084	2795.65
742.269	2852.99
742.454	2812.03
742.639	2902.14
742.824	2766.98
743.01	2859.14
743.195	2719.87
743.38	2748.54
743.565	2857.09
743.75	2791.55
743.935	2726.02
744.12	2785.41
744.305	2680.96
744.49	2773.12
744.675	2766.98
744.86	2676.87
745.045	2705.54
745.23	2705.54
745.415	2597
745.6	2660.48
745.785	2664.58
745.97	2603.14
746.155	2642.05
746.34	2603.14
746.525	2402.44
746.71	2541.7
746.895	2508.93
747.079	2605.19
747.264	2525.32
747.449	2531.46
747.634	2472.07
747.819	2396.29
748.003	2328.71
748.188	2533.51
748.373	2437.25
748.557	2285.7
748.742	2392.2
748.927	2355.33
749.111	2361.48
749.296	2365.57
749.481	2326.66
749.665	2320.52
749.85	2236.55
750.034	2332.81
750.219	2353.29
750.404	2183.31
750.588	2277.51
750.773	2285.7
750.957	2203.79
751.141	2230.41
751.326	2166.92
751.51	2162.83
751.695	2224.26
751.879	2060.43
752.064	2097.29
752.248	2138.25
752.432	2105.48
752.617	2162.83
752.801	2193.55
752.985	1935.5
753.17	2052.24
753.354	2060.43
753.538	2062.48
753.722	1994.89
753.907	1925.26
754.091	1859.73
754.275	1902.73
754.459	1867.92
754.643	1939.6
754.828	1945.74
755.012	1902.73
755.196	1919.12
755.38	1939.6
755.564	1857.68
755.748	1953.93
755.932	1794.19
756.116	1925.26
756.3	1747.09
756.484	1841.29
756.668	1802.38
756.852	1706.13
757.036	1726.61
757.22	1765.52
757.404	1679.51
757.588	1722.51
757.772	1783.95
757.956	1667.22
758.14	1722.51
758.323	1634.45
758.507	1697.94
758.691	1728.66
758.875	1673.36
759.059	1536.15
759.242	1573.01
759.426	1579.15
759.61	1652.88
759.794	1583.25
759.977	1640.59
760.161	1603.73
760.345	1542.29
760.528	1501.33
760.712	1550.48
760.895	1513.62
761.079	1511.57
761.263	1493.14
761.446	1446.04
761.63	1521.81
761.813	1511.57
761.997	1368.21
762.18	1575.06
762.364	1407.13
762.547	1456.28
762.731	1423.51
762.914	1431.7
763.098	1431.7
763.281	1276.06
763.464	1413.27
763.648	1394.84
763.831	1409.17
764.015	1482.9
764.198	1419.41
764.381	1405.08
764.564	1409.17
764.748	1403.03
764.931	1364.12
765.114	1323.16
765.297	1448.08
765.481	1294.49
765.664	1339.54
765.847	1329.3
766.03	1374.36
766.213	1218.71
766.397	1276.06
766.58	1296.53
766.763	1298.58
766.946	1276.06
767.129	1239.19
767.312	1222.81
767.495	1208.47
767.678	1226.9
767.861	1317.01
768.044	1300.63
768.227	1282.2
768.41	1218.71
768.593	1257.62
768.776	1278.1
768.959	1132.7
769.142	1251.48
769.324	1202.33
769.507	1190.04
769.69	1222.81
769.873	1155.23
770.056	1276.06
770.239	1116.31
770.421	1155.23
770.604	1116.31
770.787	1169.56
770.97	1149.08
771.152	1208.47
771.335	1280.15
771.518	1198.23
771.7	1122.46
771.883	1175.7
772.066	1155.23
772.248	991.39
772.431	1087.64
772.613	1077.4
772.796	1054.87
772.978	1153.18
773.161	1120.41
773.343	1218.71
773.526	1079.45
773.708	927.9
773.891	1018.01
774.073	1005.72
774.256	942.24
774.438	1085.59
774.621	981.15
774.803	1085.59
774.985	942.24
775.168	1056.92
775.35	936.09
775.532	997.53
775.715	919.71
775.897	966.81
776.079	901.28
776.261	938.14
776.444	886.94
776.626	919.71
776.808	934.04
776.99	999.58
777.173	989.34
777.355	925.85
777.537	923.8
777.719	876.7
777.901	872.61
778.083	903.32
778.265	850.08
778.447	950.43
778.629	870.56
778.811	874.65
778.993	876.7
779.175	899.23
779.357	854.17
779.539	899.23
779.721	802.97
779.903	827.55
780.085	854.17
780.267	872.61
780.449	751.78
780.631	774.3
780.812	837.79
780.994	831.65
781.176	661.66
781.358	817.31
781.54	755.87
781.721	747.68
781.903	757.92
782.085	739.49
782.267	729.25
782.448	745.63
782.63	714.91
782.812	743.58
782.993	671.9
783.175	643.23
783.357	778.4
783.538	678.05
783.72	702.62
783.901	667.81
784.083	698.53
784.264	725.15
784.446	669.86
784.627	676
784.809	655.52
784.99	655.52
785.172	620.71
785.353	632.99
785.535	596.13
785.716	710.82
785.897	489.64
786.079	608.42
786.26	614.56
786.441	700.58
786.623	663.71
786.804	643.23
786.985	610.47
787.167	596.13
787.348	532.64
787.529	536.74
787.71	549.03
787.891	577.7
788.073	534.69
788.254	585.89
788.435	553.12
788.616	571.55
788.797	571.55
788.978	473.25
789.159	555.17
789.34	571.55
789.522	497.83
789.703	577.7
789.884	471.2
790.065	542.88
790.246	577.7
790.427	473.25
790.607	407.72
790.788	520.35
790.969	506.02
791.15	475.3
791.331	446.63
791.512	467.11
791.693	475.3
791.874	503.97
792.054	532.64
792.235	493.73
792.416	485.54
792.597	475.3
792.778	458.92
792.958	487.59
793.139	432.29
793.32	434.34
793.5	405.67
793.681	485.54
793.862	387.24
794.042	501.92
794.223	387.24
794.404	413.86
794.584	442.53
794.765	407.72
794.945	485.54
795.126	456.87
795.306	485.54
795.487	385.19
795.667	446.63
795.848	452.77
796.028	329.89
796.209	454.82
796.389	438.44
796.57	440.48
796.75	413.86
796.93	379.04
797.111	362.66
797.291	387.24
797.471	399.52
797.652	413.86
797.832	434.34
798.012	397.48
798.192	415.91
798.373	321.7
798.553	284.84
798.733	403.62
798.913	348.33
799.093	290.98
799.274	411.81
799.454	454.82
799.634	428.2
799.814	301.22
799.994	383.14
800.174	297.13
800.354	383.14
800.534	260.26
800.714	368.81
800.894	254.12
801.074	297.13
801.254	387.24
801.434	381.09
801.614	321.7
801.794	346.28
801.974	774.3
802.154	329.89
802.334	417.96
802.514	329.89
802.693	362.66
802.873	395.43
803.053	297.13
803.233	278.69
803.413	327.85
803.592	264.36
803.772	356.52
803.952	286.89
804.131	288.93
804.311	348.33
804.491	342.18
804.67	317.61
804.85	315.56
805.03	323.75
805.209	350.37
805.389	295.08
805.568	290.98
805.748	268.45
805.928	272.55
806.107	295.08
806.287	252.07
806.466	288.93
806.646	290.98
806.825	270.5
807.004	245.93
807.184	215.21
807.363	327.85
807.543	237.74
807.722	245.93
807.901	317.61
808.081	313.51
808.26	241.83
808.439	219.3
808.619	231.59
808.798	209.06
808.977	274.6
809.156	229.54
809.336	237.74
809.515	254.12
809.694	213.16
809.873	204.97
810.052	180.39
810.231	340.13
810.411	219.3
810.59	123.05
810.769	219.3
810.948	319.65
811.127	235.69
811.306	239.78
811.485	176.3
811.664	260.26
811.843	233.64
812.022	319.65
812.201	190.63
812.38	250.02
812.559	196.78
812.737	233.64
812.916	299.17
813.095	233.64
813.274	204.97
813.453	288.93
813.632	237.74
813.811	139.43
813.989	217.26
814.168	207.02
814.347	270.5
814.526	245.93
814.704	202.92
814.883	161.96
815.062	241.83
815.24	260.26
815.419	204.97
815.598	202.92
815.776	145.58
815.955	164.01
816.133	180.39
816.312	200.87
816.49	215.21
816.669	157.86
816.847	196.78
817.026	217.26
817.204	198.82
817.383	198.82
817.561	219.3
817.74	170.15
817.918	161.96
818.097	157.86
818.275	237.74
818.453	196.78
818.632	194.73
818.81	178.34
818.988	102.57
819.167	178.34
819.345	170.15
819.523	192.68
819.701	149.67
819.879	194.73
820.058	184.49
820.236	143.53
820.414	194.73
820.592	227.5
820.77	86.19
820.948	166.06
821.127	178.34
821.305	131.24
821.483	217.26
821.661	204.97
821.839	110.76
822.017	118.95
822.195	32.94
822.373	139.43
822.551	207.02
822.729	235.69
822.907	135.34
823.085	178.34
823.262	123.05
823.44	112.81
823.618	137.38
823.796	65.71
823.974	209.06
824.152	65.71
824.329	123.05
824.507	188.58
824.685	176.3
824.863	176.3
825.04	145.58
825.218	176.3
825.396	104.62
825.574	125.1
825.751	188.58
825.929	194.73
826.107	135.34
826.284	217.26
826.462	145.58
826.639	100.52
826.817	161.96
826.994	229.54
827.172	159.91
827.349	168.1
827.527	86.19
827.704	88.23
827.882	166.06
828.059	121
828.237	129.19
828.414	170.15
828.591	174.25
828.769	137.38
828.946	116.9
829.124	178.34
829.301	135.34
829.478	153.77
829.655	135.34
829.833	86.19
830.01	63.66
830.187	114.86
830.364	88.23
830.542	139.43
830.719	131.24
830.896	147.62
831.073	131.24
831.25	98.47
831.427	170.15
831.604	90.28
831.782	45.23
831.959	178.34
832.136	104.62
832.313	176.3
832.49	94.38
832.667	123.05
832.844	45.23
833.021	149.67
833.198	106.67
833.374	102.57
833.551	110.76
833.728	90.28
833.905	114.86
834.082	139.43
834.259	135.34
834.436	137.38
834.612	96.43
834.789	112.81
834.966	63.66
835.143	96.43
835.319	94.38
835.496	88.23
835.673	114.86
835.85	96.43
836.026	114.86
836.203	125.1
836.38	71.85
836.556	82.09
836.733	127.14
836.909	219.3
837.086	77.99
837.262	114.86
837.439	114.86
837.616	84.14
837.792	112.81
837.968	127.14
838.145	55.47
838.321	129.19
838.498	123.05
838.674	131.24
838.851	178.34
839.027	98.47
839.203	57.51
839.38	135.34
839.556	59.56
839.732	100.52
839.909	110.76
840.085	102.57
840.261	41.13
840.437	73.9
840.614	157.86
840.79	209.06
840.966	82.09
841.142	159.91
841.318	88.23
841.494	137.38
841.671	86.19
841.847	57.51
842.023	104.62
842.199	30.89
842.375	102.57
842.551	73.9
842.727	57.51
842.903	131.24
843.079	-18.26
843.255	114.86
843.431	80.04
843.607	39.08
843.783	24.75
843.959	159.91
844.134	131.24
844.31	82.09
844.486	135.34
844.662	73.9
844.838	63.66
845.013	63.66
845.189	88.23
845.365	49.32
845.541	41.13
845.716	84.14
845.892	32.94
846.068	100.52
846.244	41.13
846.419	75.95
846.595	65.71
846.77	41.13
846.946	88.23
847.122	26.79
847.297	59.56
847.473	28.84
847.648	-10.07
847.824	92.33
847.999	2.22
848.175	86.19
848.35	116.9
848.526	114.86
848.701	61.61
848.876	90.28
849.052	69.8
849.227	49.32
849.403	96.43
849.578	104.62
849.753	114.86
849.929	94.38
850.104	112.81
850.279	84.14
850.454	18.6
850.63	94.38
850.805	106.67
850.98	100.52
851.155	45.23
851.33	84.14
851.505	-22.36
851.681	75.95
851.856	-14.17
852.031	16.55
852.206	26.79
852.381	-12.12
852.556	80.04
852.731	121
852.906	110.76
853.081	59.56
853.256	155.82
853.431	22.7
853.606	24.75
853.781	39.08
853.956	22.7
854.131	80.04
854.305	63.66
854.48	26.79
854.655	69.8
854.83	47.27
855.005	41.13
855.18	102.57
855.354	53.42
855.529	26.79
855.704	88.23
855.879	53.42
856.053	16.55
856.228	12.46
856.403	-12.12
856.577	51.37
856.752	59.56
856.926	69.8
857.101	32.94
857.276	49.32
857.45	77.99
857.625	100.52
857.799	47.27
857.974	41.13
858.148	10.41
858.323	82.09
858.497	39.08
858.672	16.55
858.846	63.66
859.02	43.18
859.195	0.17
859.369	32.94
859.543	61.61
859.718	55.47
859.892	108.71
860.066	32.94
860.241	-18.26
860.415	28.84
860.589	37.03
860.763	63.66
860.938	34.99
861.112	28.84
861.286	100.52
861.46	69.8
861.634	51.37
861.808	118.95
861.982	16.55
862.157	-40.79
862.331	-42.84
862.505	10.41
862.679	22.7
862.853	-26.45
863.027	75.95
863.201	116.9
863.375	-3.93
863.549	53.42
863.722	-14.17
863.896	67.75
864.07	2.22
864.244	88.23
864.418	-10.07
864.592	94.38
864.766	26.79
864.939	90.28
865.113	30.89
865.287	75.95
865.461	-40.79
865.634	77.99
865.808	73.9
865.982	55.47
866.156	65.71
866.329	51.37
866.503	2.22
866.676	47.27
866.85	34.99
867.024	106.67
867.197	-40.79
867.371	41.13
867.544	37.03
867.718	-3.93
867.891	61.61
868.065	59.56
868.238	112.81
868.412	32.94
868.585	-18.26
868.759	37.03
868.932	102.57
869.105	53.42
869.279	-3.93
869.452	43.18
869.625	30.89
869.799	51.37
869.972	-10.07
870.145	18.6
870.319	61.61
870.492	-10.07
870.665	55.47
870.838	-1.88
871.011	18.6
871.185	41.13
871.358	10.41
871.531	-3.93
871.704	-10.07
871.877	41.13
872.05	-40.79
872.223	37.03
872.396	69.8
872.569	90.28
872.742	61.61
872.915	61.61
873.088	22.7
873.261	39.08
873.434	55.47
873.607	10.41
873.78	26.79
873.953	84.14
874.126	-16.21
874.299	104.62
874.471	69.8
874.644	10.41
874.817	0.17
874.99	55.47
875.163	34.99
875.335	73.9
875.508	26.79
875.681	57.51
875.853	-5.97
876.026	-20.31
876.199	18.6
876.371	47.27
876.544	49.32
876.717	67.75
876.889	18.6
877.062	0.17
877.234	53.42
877.407	-8.02
877.579	-32.6
877.752	73.9
877.924	43.18
878.097	84.14
878.269	39.08
878.442	59.56
878.614	90.28
878.786	53.42
878.959	6.31
879.131	49.32
879.303	2.22
879.476	94.38
879.648	55.47
879.82	32.94
879.993	24.75
880.165	41.13
880.337	49.32
880.509	34.99
880.681	49.32
880.854	94.38
881.026	6.31
881.198	-53.08
881.37	-12.12
881.542	69.8
881.714	6.31
881.886	51.37
882.058	-28.5
882.23	-34.64
882.402	-34.64
882.574	43.18
882.746	39.08
882.918	65.71
883.09	24.75
883.262	47.27
883.434	116.9
883.606	-5.97
883.778	34.99
883.95	86.19
884.122	24.75
884.293	61.61
884.465	53.42
884.637	10.41
884.809	-10.07
884.98	73.9
885.152	-18.26
885.324	49.32
885.496	-36.69
885.667	26.79
885.839	34.99
886.011	39.08
886.182	110.76
886.354	67.75
886.525	32.94
886.697	28.84
886.869	-18.26
887.04	-24.4
887.212	37.03
887.383	39.08
887.555	51.37
887.726	-5.97
887.897	22.7
888.069	61.61
888.24	49.32
888.412	30.89
888.583	53.42
888.754	0.17
888.926	-22.36
889.097	16.55
889.268	-14.17
889.44	37.03
889.611	-3.93
889.782	-8.02
889.953	-12.12
890.125	32.94
890.296	39.08
890.467	41.13
890.638	-65.36
890.809	-16.21
890.98	71.85
891.151	61.61
891.323	10.41
891.494	16.55
891.665	37.03
891.836	112.81
892.007	34.99
892.178	86.19
892.349	37.03
892.52	-18.26
892.691	47.27
892.862	28.84
893.032	-73.56
893.203	61.61
893.374	51.37
893.545	30.89
893.716	28.84
893.887	47.27
894.057	30.89
894.228	41.13
894.399	-28.5
894.57	98.47
894.74	22.7
894.911	94.38
895.082	45.23
895.253	16.55
895.423	4.27
895.594	12.46
895.764	-26.45
895.935	-28.5
896.106	6.31
896.276	0.17
896.447	53.42
896.617	51.37
896.788	-3.93
896.958	24.75
897.129	-22.36
897.299	67.75
897.47	18.6
897.64	57.51
897.81	-34.64
897.981	-18.26
898.151	-67.41
898.322	0.17
898.492	53.42
898.662	43.18
898.832	24.75
899.003	0.17
899.173	28.84
899.343	86.19
899.513	39.08
