Data from USB4F104151__79__12-27-52-550.txt Node

Date: Fri Mar 14 12:27:52 EDT 2025
User: louis
Spectrometer: USB4F10415
Trigger mode: 4
Integration Time (sec): 2.000000E-2
Scans to average: 1
Electric dark correction enabled: true
Nonlinearity correction enabled: false
Boxcar width: 0
XAxis mode: Wavelengths
Number of Pixels in Spectrum: 3648
>>>>>Begin Spectral Data<<<<<
178.204	-112.64
178.424	-112.64
178.644	-112.64
178.864	-131.07
179.084	-100.35
179.304	0
179.524	-6.14
179.744	32.77
179.964	40.96
180.184	36.86
180.404	81.92
180.624	-12.29
180.844	-77.82
181.064	-26.62
181.283	-2.05
181.503	-6.14
181.723	-61.44
181.943	12.29
182.163	75.77
182.383	51.2
182.602	10.24
182.822	57.34
183.042	38.91
183.262	-34.82
183.482	-10.24
183.701	6.14
183.921	-65.54
184.141	-20.48
184.361	10.24
184.58	-32.77
184.8	-12.29
185.02	6.14
185.239	43.01
185.459	-45.06
185.679	-2.05
185.898	40.96
186.118	53.25
186.338	24.58
186.557	20.48
186.777	-55.3
186.997	-14.34
187.216	53.25
187.436	59.39
187.655	20.48
187.875	65.53
188.095	-38.91
188.314	-18.43
188.534	16.38
188.753	-10.24
188.973	28.67
189.192	77.82
189.412	45.06
189.631	-32.77
189.851	14.34
190.07	18.43
190.29	47.1
190.509	-16.38
190.729	20.48
190.948	88.06
191.168	67.58
191.387	14.34
191.607	-10.24
191.826	-8.19
192.045	-34.82
192.265	47.1
192.484	-24.58
192.704	71.68
192.923	-38.91
193.142	69.63
193.362	16.38
193.581	16.38
193.8	45.06
194.02	63.49
194.239	34.82
194.458	10.24
194.678	-18.43
194.897	-45.06
195.116	-51.2
195.335	-51.2
195.555	20.48
195.774	-30.72
195.993	-2.05
196.212	10.24
196.432	79.87
196.651	4.1
196.87	45.06
197.089	106.49
197.308	61.44
197.528	-18.43
197.747	-14.34
197.966	-59.39
198.185	63.49
198.404	-24.58
198.623	4.1
198.842	-10.24
199.062	49.15
199.281	61.44
199.5	57.34
199.719	-22.53
199.938	14.34
200.157	61.44
200.376	0
200.595	-6.14
200.814	36.86
201.033	-14.34
201.252	24.58
201.471	22.53
201.69	49.15
201.909	47.1
202.128	0
202.347	0
202.566	26.62
202.785	-26.62
203.004	14.34
203.223	18.43
203.442	18.43
203.661	83.97
203.879	-30.72
204.098	61.44
204.317	-20.48
204.536	63.49
204.755	10.24
204.974	34.82
205.193	14.34
205.411	-28.67
205.63	-16.38
205.849	96.25
206.068	43.01
206.287	-30.72
206.505	-34.82
206.724	47.1
206.943	12.29
207.162	53.25
207.381	12.29
207.599	8.19
207.818	49.15
208.037	40.96
208.255	-20.48
208.474	67.58
208.693	53.25
208.911	12.29
209.13	65.53
209.349	49.15
209.567	67.58
209.786	100.35
210.005	8.19
210.223	26.62
210.442	-45.06
210.661	12.29
210.879	-6.14
211.098	-28.67
211.316	-14.34
211.535	77.82
211.753	10.24
211.972	100.35
212.191	32.77
212.409	8.19
212.628	73.73
212.846	16.38
213.065	0
213.283	67.58
213.502	18.43
213.72	67.58
213.938	2.05
214.157	28.67
214.375	-6.14
214.594	69.63
214.812	49.15
215.031	-2.05
215.249	-24.58
215.467	57.34
215.686	69.63
215.904	-49.15
216.122	-43.01
216.341	43.01
216.559	24.58
216.778	38.91
216.996	14.34
217.214	-22.53
217.432	-38.91
217.651	69.63
217.869	47.1
218.087	69.63
218.306	8.19
218.524	57.34
218.742	-16.38
218.96	61.44
219.179	30.72
219.397	6.14
219.615	63.49
219.833	36.86
220.051	-38.91
220.27	34.82
220.488	36.86
220.706	-18.43
220.924	16.38
221.142	6.14
221.36	10.24
221.578	65.53
221.796	0
222.015	-28.67
222.233	-38.91
222.451	43.01
222.669	-26.62
222.887	-28.67
223.105	-47.1
223.323	30.72
223.541	-38.91
223.759	20.48
223.977	-75.77
224.195	47.1
224.413	51.2
224.631	2.05
224.849	30.72
225.067	77.82
225.285	10.24
225.503	26.62
225.721	-69.63
225.939	53.25
226.157	-10.24
226.375	94.21
226.592	2.05
226.81	12.29
227.028	-28.67
227.246	96.25
227.464	53.25
227.682	16.38
227.9	-12.29
228.117	18.43
228.335	16.38
228.553	-49.15
228.771	16.38
228.989	83.97
229.206	81.92
229.424	40.96
229.642	36.86
229.86	59.39
230.077	26.62
230.295	30.72
230.513	4.1
230.731	-30.72
230.948	24.58
231.166	45.06
231.384	-28.67
231.601	65.53
231.819	69.63
232.037	-32.77
232.254	-16.38
232.472	73.73
232.689	32.77
232.907	-65.54
233.125	34.82
233.342	14.34
233.56	-8.19
233.777	40.96
233.995	-18.43
234.213	28.67
234.43	4.1
234.648	-2.05
234.865	-73.73
235.083	26.62
235.3	-8.19
235.518	10.24
235.735	36.86
235.953	26.62
236.17	71.68
236.388	43.01
236.605	16.38
236.822	100.35
237.04	47.1
237.257	20.48
237.475	12.29
237.692	-36.86
237.909	-10.24
238.127	0
238.344	110.59
238.562	-8.19
238.779	26.62
238.996	61.44
239.214	34.82
239.431	-2.05
239.648	-75.77
239.865	71.68
240.083	49.15
240.3	108.54
240.517	49.15
240.735	18.43
240.952	-26.62
241.169	-30.72
241.386	47.1
241.603	-20.48
241.821	-38.91
242.038	61.44
242.255	18.43
242.472	40.96
242.689	-14.34
242.907	51.2
243.124	14.34
243.341	16.38
243.558	10.24
243.775	61.44
243.992	-40.96
244.209	6.14
244.426	36.86
244.643	6.14
244.86	6.14
245.078	-6.14
245.295	-79.87
245.512	118.78
245.729	-61.44
245.946	43.01
246.163	4.1
246.38	59.39
246.597	43.01
246.814	43.01
247.031	-28.67
247.248	114.69
247.464	10.24
247.681	65.53
247.898	-71.68
248.115	49.15
248.332	28.67
248.549	53.25
248.766	6.14
248.983	36.86
249.2	-14.34
249.417	14.34
249.633	36.86
249.85	-30.72
250.067	18.43
250.284	36.86
250.501	36.86
250.717	61.44
250.934	28.67
251.151	18.43
251.368	20.48
251.585	108.54
251.801	10.24
252.018	-34.82
252.235	24.58
252.451	4.1
252.668	75.77
252.885	40.96
253.102	12.29
253.318	-14.34
253.535	12.29
253.752	63.49
253.968	-34.82
254.185	-34.82
254.401	86.01
254.618	55.3
254.835	34.82
255.051	100.35
255.268	14.34
255.484	-18.43
255.701	43.01
255.917	32.77
256.134	57.34
256.351	32.77
256.567	24.58
256.784	75.77
257	30.72
257.217	34.82
257.433	65.53
257.65	-36.86
257.866	-32.77
258.082	73.73
258.299	-45.06
258.515	-8.19
258.732	-38.91
258.948	-2.05
259.165	24.58
259.381	-45.06
259.597	8.19
259.814	0
260.03	-16.38
260.246	22.53
260.463	69.63
260.679	32.77
260.895	10.24
261.112	38.91
261.328	53.25
261.544	-2.05
261.761	4.1
261.977	28.67
262.193	16.38
262.409	49.15
262.626	47.1
262.842	30.72
263.058	-24.58
263.274	-22.53
263.49	26.62
263.707	22.53
263.923	47.1
264.139	-28.67
264.355	18.43
264.571	108.54
264.787	18.43
265.004	90.11
265.22	-34.82
265.436	16.38
265.652	-32.77
265.868	92.16
266.084	-65.54
266.3	-12.29
266.516	-63.49
266.732	30.72
266.948	14.34
267.164	36.86
267.38	102.4
267.596	-53.25
267.812	20.48
268.028	57.34
268.244	49.15
268.46	8.19
268.676	112.64
268.892	40.96
269.108	16.38
269.324	-2.05
269.54	-18.43
269.756	4.1
269.972	22.53
270.188	8.19
270.403	-38.91
270.619	4.1
270.835	-32.77
271.051	77.82
271.267	-36.86
271.483	61.44
271.698	40.96
271.914	55.3
272.13	53.25
272.346	4.1
272.562	59.39
272.777	59.39
272.993	18.43
273.209	12.29
273.425	57.34
273.64	0
273.856	61.44
274.072	20.48
274.287	-12.29
274.503	-2.05
274.719	24.58
274.934	38.91
275.15	-24.58
275.366	61.44
275.581	-43.01
275.797	12.29
276.012	-55.3
276.228	36.86
276.444	38.91
276.659	32.77
276.875	22.53
277.09	53.25
277.306	26.62
277.521	16.38
277.737	36.86
277.952	-20.48
278.168	53.25
278.383	61.44
278.599	43.01
278.814	43.01
279.03	0
279.245	94.21
279.461	45.06
279.676	-6.14
279.892	47.1
280.107	-69.63
280.322	6.14
280.538	75.77
280.753	-12.29
280.969	12.29
281.184	73.73
281.399	94.21
281.615	10.24
281.83	77.82
282.045	-12.29
282.26	30.72
282.476	51.2
282.691	8.19
282.906	34.82
283.122	20.48
283.337	63.49
283.552	18.43
283.767	8.19
283.983	53.25
284.198	16.38
284.413	63.49
284.628	14.34
284.843	30.72
285.058	57.34
285.274	71.68
285.489	16.38
285.704	51.2
285.919	-18.43
286.134	12.29
286.349	51.2
286.564	30.72
286.779	-12.29
286.995	57.34
287.21	10.24
287.425	106.49
287.64	45.06
287.855	75.77
288.07	34.82
288.285	106.49
288.5	-32.77
288.715	69.63
288.93	40.96
289.145	-69.63
289.36	45.06
289.575	-53.25
289.79	-6.14
290.004	12.29
290.219	116.73
290.434	47.1
290.649	-30.72
290.864	34.82
291.079	8.19
291.294	18.43
291.509	-49.15
291.724	-12.29
291.938	0
292.153	-75.77
292.368	-36.86
292.583	-8.19
292.798	16.38
293.012	88.06
293.227	-26.62
293.442	24.58
293.657	16.38
293.871	18.43
294.086	2.05
294.301	73.73
294.516	18.43
294.73	79.87
294.945	28.67
295.16	-47.1
295.374	83.97
295.589	83.97
295.804	16.38
296.018	18.43
296.233	61.44
296.447	45.06
296.662	83.97
296.877	53.25
297.091	2.05
297.306	-4.1
297.52	38.91
297.735	22.53
297.949	75.77
298.164	67.58
298.378	59.39
298.593	-10.24
298.807	36.86
299.022	20.48
299.236	57.34
299.451	4.1
299.665	49.15
299.88	18.43
300.094	-2.05
300.309	-12.29
300.523	36.86
300.737	14.34
300.952	81.92
301.166	67.58
301.381	20.48
301.595	67.58
301.809	20.48
302.024	61.44
302.238	24.58
302.452	75.77
302.667	69.63
302.881	75.77
303.095	67.58
303.309	49.15
303.524	-8.19
303.738	90.11
303.952	-10.24
304.166	34.82
304.381	-34.82
304.595	-12.29
304.809	4.1
305.023	34.82
305.237	55.3
305.452	30.72
305.666	73.73
305.88	45.06
306.094	12.29
306.308	45.06
306.522	6.14
306.736	20.48
306.95	-12.29
307.164	34.82
307.379	-18.43
307.593	-18.43
307.807	14.34
308.021	30.72
308.235	4.1
308.449	30.72
308.663	14.34
308.877	-45.06
309.091	8.19
309.305	4.1
309.519	28.67
309.733	118.78
309.947	-32.77
310.161	6.14
310.374	65.53
310.588	110.59
310.802	8.19
311.016	-10.24
311.23	-30.72
311.444	24.58
311.658	18.43
311.872	0
312.085	-14.34
312.299	67.58
312.513	92.16
312.727	-12.29
312.941	36.86
313.154	63.49
313.368	38.91
313.582	26.62
313.796	38.91
314.009	77.82
314.223	34.82
314.437	61.44
314.651	61.44
314.864	-61.44
315.078	-20.48
315.292	4.1
315.505	53.25
315.719	-34.82
315.933	112.64
316.146	65.53
316.36	-36.86
316.573	83.97
316.787	-28.67
317.001	-6.14
317.214	53.25
317.428	55.3
317.641	-24.58
317.855	40.96
318.068	83.97
318.282	26.62
318.495	98.3
318.709	55.3
318.922	61.44
319.136	116.73
319.349	12.29
319.563	10.24
319.776	71.68
319.99	-49.15
320.203	92.16
320.417	-12.29
320.63	36.86
320.843	71.68
321.057	6.14
321.27	40.96
321.483	51.2
321.697	-2.05
321.91	49.15
322.124	49.15
322.337	26.62
322.55	-8.19
322.763	30.72
322.977	30.72
323.19	-26.62
323.403	-6.14
323.617	32.77
323.83	26.62
324.043	18.43
324.256	79.87
324.469	-10.24
324.683	24.58
324.896	24.58
325.109	77.82
325.322	6.14
325.535	75.77
325.748	73.73
325.962	-2.05
326.175	-16.38
326.388	45.06
326.601	57.34
326.814	18.43
327.027	10.24
327.24	-14.34
327.453	-20.48
327.666	65.53
327.879	18.43
328.092	67.58
328.305	-14.34
328.518	20.48
328.731	38.91
328.944	38.91
329.157	43.01
329.37	36.86
329.583	67.58
329.796	26.62
330.009	0
330.222	63.49
330.435	63.49
330.648	-36.86
330.861	63.49
331.073	26.62
331.286	53.25
331.499	34.82
331.712	12.29
331.925	114.69
332.138	26.62
332.35	65.53
332.563	-16.38
332.776	22.53
332.989	-45.06
333.202	73.73
333.414	-6.14
333.627	83.97
333.84	-12.29
334.053	22.53
334.265	-10.24
334.478	34.82
334.691	22.53
334.903	96.25
335.116	10.24
335.329	49.15
335.541	20.48
335.754	45.06
335.966	-43.01
336.179	47.1
336.392	12.29
336.604	10.24
336.817	36.86
337.029	110.59
337.242	-2.05
337.454	73.73
337.667	8.19
337.88	86.01
338.092	45.06
338.305	45.06
338.517	0
338.729	124.93
338.942	6.14
339.154	-59.39
339.367	86.01
339.579	63.49
339.792	24.58
340.004	28.67
340.217	32.77
340.429	4.1
340.641	59.39
340.854	12.29
341.066	55.3
341.278	-8.19
341.491	-8.19
341.703	32.77
341.915	67.58
342.128	73.73
342.34	30.72
342.552	22.53
342.764	65.53
342.977	45.06
343.189	38.91
343.401	26.62
343.613	-22.53
343.826	-14.34
344.038	-6.14
344.25	30.72
344.462	32.77
344.674	0
344.886	51.2
345.099	-16.38
345.311	73.73
345.523	10.24
345.735	-28.67
345.947	75.77
346.159	45.06
346.371	81.92
346.583	71.68
346.795	47.1
347.007	30.72
347.219	22.53
347.431	81.92
347.643	57.34
347.855	34.82
348.067	133.12
348.279	-4.1
348.491	-30.72
348.703	86.01
348.915	65.53
349.127	-6.14
349.339	14.34
349.551	0
349.763	94.21
349.975	47.1
350.187	79.87
350.399	-36.86
350.61	18.43
350.822	4.1
351.034	92.16
351.246	32.77
351.458	55.3
351.669	36.86
351.881	20.48
352.093	16.38
352.305	-16.38
352.517	0
352.728	94.21
352.94	36.86
353.152	77.82
353.363	43.01
353.575	32.77
353.787	34.82
353.999	98.3
354.21	104.45
354.422	63.49
354.633	-2.05
354.845	-30.72
355.057	49.15
355.268	53.25
355.48	10.24
355.692	47.1
355.903	8.19
356.115	77.82
356.326	77.82
356.538	57.34
356.749	96.25
356.961	47.1
357.172	-49.15
357.384	-8.19
357.595	75.77
357.807	83.97
358.018	30.72
358.23	18.43
358.441	69.63
358.653	2.05
358.864	-26.62
359.075	63.49
359.287	71.68
359.498	20.48
359.709	45.06
359.921	43.01
360.132	6.14
360.344	32.77
360.555	53.25
360.766	36.86
360.977	30.72
361.189	81.92
361.4	81.92
361.611	10.24
361.823	6.14
362.034	28.67
362.245	36.86
362.456	104.45
362.667	49.15
362.879	75.77
363.09	88.06
363.301	36.86
363.512	4.1
363.723	38.91
363.935	65.53
364.146	-10.24
364.357	28.67
364.568	32.77
364.779	-65.54
364.99	73.73
365.201	-43.01
365.412	45.06
365.623	10.24
365.834	51.2
366.045	-4.1
366.256	38.91
366.467	77.82
366.678	36.86
366.889	53.25
367.1	69.63
367.311	40.96
367.522	2.05
367.733	51.2
367.944	92.16
368.155	28.67
368.366	53.25
368.577	65.53
368.788	-14.34
368.999	-28.67
369.209	32.77
369.42	61.44
369.631	96.25
369.842	45.06
370.053	4.1
370.264	55.3
370.474	0
370.685	53.25
370.896	88.06
371.107	81.92
371.317	22.53
371.528	24.58
371.739	116.73
371.95	53.25
372.16	104.45
372.371	47.1
372.582	36.86
372.792	86.01
373.003	47.1
373.214	30.72
373.424	118.78
373.635	0
373.846	75.77
374.056	4.1
374.267	40.96
374.477	79.87
374.688	-28.67
374.898	24.58
375.109	57.34
375.319	71.68
375.53	63.49
375.74	8.19
375.951	-12.29
376.161	104.45
376.372	69.63
376.582	55.3
376.793	55.3
377.003	34.82
377.214	18.43
377.424	71.68
377.635	32.77
377.845	71.68
378.055	79.87
378.266	92.16
378.476	20.48
378.686	73.73
378.897	67.58
379.107	49.15
379.317	16.38
379.528	6.14
379.738	63.49
379.948	-2.05
380.158	131.07
380.369	67.58
380.579	98.3
380.789	0
380.999	77.82
381.21	8.19
381.42	92.16
381.63	51.2
381.84	75.77
382.05	63.49
382.261	63.49
382.471	100.35
382.681	34.82
382.891	59.39
383.101	-8.19
383.311	-22.53
383.521	141.31
383.731	43.01
383.941	73.73
384.151	-49.15
384.361	61.44
384.571	67.58
384.781	-2.05
384.991	92.16
385.201	102.4
385.411	43.01
385.621	86.01
385.831	-6.14
386.041	100.35
386.251	61.44
386.461	86.01
386.671	-2.05
386.881	-18.43
387.091	83.97
387.301	118.78
387.511	-4.1
387.72	88.06
387.93	88.06
388.14	4.1
388.35	26.62
388.56	67.58
388.769	92.16
388.979	81.92
389.189	59.39
389.399	65.53
389.609	30.72
389.818	147.45
390.028	90.11
390.238	40.96
390.447	-2.05
390.657	145.41
390.867	26.62
391.076	59.39
391.286	43.01
391.496	90.11
391.705	49.15
391.915	79.87
392.125	69.63
392.334	40.96
392.544	40.96
392.753	65.53
392.963	49.15
393.172	16.38
393.382	106.49
393.591	118.78
393.801	53.25
394.01	92.16
394.22	43.01
394.429	43.01
394.639	45.06
394.848	100.35
395.058	98.3
395.267	63.49
395.477	88.06
395.686	61.44
395.895	71.68
396.105	92.16
396.314	63.49
396.524	126.97
396.733	49.15
396.942	36.86
397.152	79.87
397.361	59.39
397.57	77.82
397.78	79.87
397.989	112.64
398.198	139.26
398.407	139.26
398.617	122.88
398.826	67.58
399.035	53.25
399.244	174.08
399.453	137.21
399.663	77.82
399.872	96.25
400.081	135.17
400.29	73.73
400.499	32.77
400.708	133.12
400.917	102.4
401.127	110.59
401.336	26.62
401.545	100.35
401.754	151.55
401.963	79.87
402.172	145.41
402.381	106.49
402.59	55.3
402.799	104.45
403.008	145.41
403.217	92.16
403.426	137.21
403.635	102.4
403.844	108.54
404.053	163.84
404.262	118.78
404.471	116.73
404.68	186.37
404.888	151.55
405.097	155.65
405.306	192.51
405.515	153.6
405.724	198.65
405.933	147.45
406.142	165.89
406.35	178.17
406.559	219.13
406.768	225.28
406.977	174.08
407.185	190.46
407.394	174.08
407.603	180.22
407.812	215.04
408.02	155.65
408.229	204.8
408.438	268.28
408.646	245.76
408.855	225.28
409.064	299
409.272	174.08
409.481	192.51
409.69	192.51
409.898	264.19
410.107	356.35
410.315	344.06
410.524	339.96
410.733	258.04
410.941	387.07
411.15	391.16
411.358	366.59
411.567	356.35
411.775	421.88
411.984	374.78
412.192	423.93
412.401	397.31
412.609	438.27
412.818	491.51
413.026	485.37
413.234	483.32
413.443	526.33
413.651	575.48
413.86	526.33
414.068	614.39
414.276	653.3
414.485	610.29
414.693	604.15
414.901	794.61
415.11	798.71
415.318	727.03
415.526	671.73
415.734	700.41
415.943	729.08
416.151	774.13
416.359	808.95
416.567	835.57
416.776	907.25
416.984	948.21
417.192	978.93
417.4	933.87
417.608	935.92
417.817	1118.19
418.025	1134.57
418.233	1198.06
418.441	1212.4
418.649	1259.5
418.857	1366
419.065	1298.41
419.273	1325.04
419.481	1329.13
419.689	1359.85
419.897	1507.3
420.105	1482.73
420.313	1626.09
420.521	1605.61
420.729	1638.38
420.937	1632.23
421.145	1769.44
421.353	1824.74
421.561	1927.14
421.769	2002.91
421.977	2078.69
422.185	2050.02
422.393	2133.98
422.601	2293.72
422.809	2324.44
423.017	2269.15
423.224	2510.81
423.432	2506.71
423.64	2416.6
423.848	2703.32
424.056	2635.74
424.263	2930.64
424.471	2858.96
424.679	2910.16
424.887	3069.91
425.094	3176.4
425.302	3153.87
425.51	3289.04
425.718	3340.24
425.925	3499.98
426.133	3686.34
426.341	3639.24
426.548	3860.42
426.756	3889.09
426.964	4093.89
427.171	4224.96
427.379	4331.45
427.586	4429.76
427.794	4683.7
428.001	4779.96
428.209	4851.64
428.417	5013.43
428.624	5263.28
428.832	5265.33
429.039	5121.97
429.247	5353.39
429.454	5750.7
429.662	6168.48
429.869	5892.01
430.076	6182.82
430.284	5992.36
430.491	6295.46
430.699	6590.36
430.906	6766.49
431.114	6723.48
431.321	6946.71
431.528	6983.57
431.736	7491.47
431.943	7880.58
432.15	7659.4
432.358	7784.33
432.565	8191.87
432.772	8189.83
432.979	8314.75
433.187	8660.86
433.394	8654.72
433.601	9363.31
433.808	9521.01
434.016	9377.65
434.223	9707.37
434.43	10217.32
434.637	10037.09
434.844	10588
435.052	10913.63
435.259	10860.38
435.466	11145.05
435.673	10762.08
435.88	11614.03
436.087	12013.38
436.294	12154.69
436.501	12109.64
436.708	12193.61
436.915	12605.25
437.122	13139.77
437.329	13088.57
437.537	13455.15
437.743	13864.75
437.95	13811.5
438.157	14479.14
438.364	15179.54
438.571	14913.31
438.778	14708.51
438.985	16185.1
439.192	15681.3
439.399	16264.97
439.606	15789.84
439.813	16895.74
440.02	17651.44
440.227	17389.3
440.433	17374.97
440.64	17819.38
440.847	18011.89
441.054	18202.35
441.261	19562.2
441.467	19431.13
441.674	19562.2
441.881	20418.25
442.088	20213.45
442.294	20156.11
442.501	20475.59
442.708	21257.92
442.914	21769.91
443.121	23140
443.328	22181.55
443.534	24094.35
443.741	23301.79
443.948	23041.7
444.154	24858.24
444.361	24487.56
444.568	24628.87
444.774	24934.02
444.981	24979.07
445.187	25570.94
445.394	26771.05
445.6	26549.87
445.807	29277.76
446.013	27559.52
446.22	28257.87
446.426	29322.82
446.633	29873.72
446.839	30271.03
447.046	29429.31
447.252	30926.38
447.459	31069.73
447.665	30897.7
447.871	32609.81
448.078	33703.42
448.284	32341.52
448.491	33148.42
448.697	34461.17
448.903	34825.71
449.11	35286.5
449.316	34887.15
449.522	34866.67
449.728	36021.72
449.935	36169.18
450.141	36210.14
450.347	37131.72
450.553	35948
450.76	36650.45
450.966	37567.94
451.172	37316.04
451.378	38462.9
451.584	37447.11
451.791	37924.29
451.997	38045.12
452.203	38864.3
452.409	39255.46
452.615	38471.09
452.821	37516.74
453.027	36615.63
453.233	39136.68
453.44	37586.37
453.646	38020.54
453.852	37914.05
454.058	38802.86
454.264	37373.38
454.47	38196.67
454.676	37041.61
454.882	38591.92
455.088	35272.17
455.294	35911.13
455.5	36167.13
455.705	36965.84
455.911	35245.54
456.117	34604.53
456.323	34051.58
456.529	32534.03
456.735	33791.48
456.941	33263.11
457.147	32304.66
457.352	31407.65
457.558	31100.45
457.764	31131.17
457.97	30604.84
458.176	29974.07
458.381	29593.15
458.587	28538.44
458.793	28206.67
458.999	27016.8
459.204	28980.81
459.41	27833.94
459.616	26232.43
459.821	26228.34
460.027	26232.43
460.233	25585.27
460.438	24280.72
460.644	24364.68
460.85	23299.74
461.055	23107.23
461.261	23117.47
461.466	21305.02
461.672	20844.23
461.878	22400.68
462.083	20874.95
462.289	20453.06
462.494	20401.86
462.7	19308.25
462.905	18624.23
463.111	19672.79
463.316	19597.01
463.522	19183.32
463.727	19375.83
463.932	19062.49
464.138	18984.67
464.343	19007.2
464.549	18255.59
464.754	19066.59
464.959	18947.81
465.165	18714.34
465.37	18147.05
465.575	17460.98
465.781	18345.7
465.986	18151.15
466.191	17725.17
466.397	17377.01
466.602	16385.8
466.807	17108.73
467.012	17170.17
467.218	16926.46
467.423	16772.86
467.628	16862.97
467.833	17671.92
468.038	16817.92
468.244	16463.62
468.449	17247.99
468.654	16688.9
468.859	16320.26
469.064	16318.21
469.269	15597.33
469.474	16017.16
469.679	16221.96
469.885	15599.38
470.09	16013.07
470.295	15830.8
470.5	15359.77
470.705	15294.23
470.91	15226.65
471.115	15060.76
471.32	15142.68
471.525	15187.74
471.73	14997.28
471.935	14974.75
472.139	14595.87
472.344	14464.8
472.549	14337.83
472.754	14540.58
472.959	13829.93
473.164	13608.75
473.369	13674.29
473.574	14186.28
473.778	13780.78
473.983	13696.81
474.188	13590.32
474.393	13145.91
474.598	13244.21
474.802	13080.38
475.007	13031.23
475.212	12973.88
475.417	12322.63
475.621	12640.06
475.826	12341.06
476.031	12146.5
476.235	12220.23
476.44	12281.67
476.645	12029.77
476.849	11947.85
477.054	11747.15
477.259	11622.22
477.463	11505.49
477.668	11476.82
477.872	11497.3
478.077	11134.81
478.282	11038.55
478.486	11069.27
478.691	10862.43
478.895	10770.27
479.1	10925.91
479.304	10942.3
479.509	10368.87
479.713	10663.77
479.918	10297.19
480.122	10426.21
480.326	10528.61
480.531	10526.56
480.735	10241.89
480.94	10178.4
481.144	10581.85
481.348	9928.55
481.553	10362.72
481.757	9975.66
481.961	10123.11
482.166	10260.32
482.37	9983.85
482.574	9985.9
482.778	9985.9
482.983	10430.3
483.187	10018.66
483.391	10168.16
483.595	9850.73
483.8	10000.23
484.004	10192.74
484.208	10184.55
484.412	9996.14
484.616	10168.16
484.821	10125.16
485.025	9754.48
485.229	10127.21
485.433	9783.15
485.637	10006.38
485.841	9975.66
486.045	9799.53
486.249	10231.65
486.453	9949.03
486.657	9828.2
486.861	10028.9
487.065	9772.91
487.269	10018.66
487.473	9967.46
487.677	10137.45
487.881	10051.43
488.085	10157.92
488.289	10106.73
488.493	9951.08
488.697	10024.81
488.901	10088.29
489.105	10129.25
489.309	9926.5
489.512	10098.53
489.716	10092.39
489.92	10237.8
490.124	10188.64
490.328	10221.41
490.531	10225.51
490.735	10256.23
490.939	10448.74
491.143	10223.46
491.346	10405.73
491.55	10372.96
491.754	10524.51
491.958	10542.94
492.161	10766.17
492.365	10385.25
492.569	10477.41
492.772	10428.26
492.976	10547.04
493.18	10741.6
493.383	10774.36
493.587	10899.29
493.79	11147.09
493.994	10741.6
494.197	11126.61
494.401	11247.44
494.605	11362.13
494.808	11378.51
495.012	11638.61
495.215	11599.69
495.419	11564.88
495.622	11429.71
495.825	11843.4
496.029	11583.31
496.232	11894.6
496.436	11896.65
496.639	12177.22
496.843	11976.52
497.046	12246.85
497.249	12586.82
497.453	12672.83
497.656	12699.45
497.859	12717.89
498.063	12869.44
498.266	12904.25
498.469	13023.03
498.673	13215.54
498.876	13276.98
499.079	13567.79
499.282	13453.11
499.485	13942.57
499.689	13809.45
499.892	14106.41
500.095	14079.79
500.298	14737.18
500.501	14364.45
500.705	14761.76
500.908	14915.36
501.111	14954.27
501.314	14984.99
501.517	15134.49
501.72	15267.61
501.923	15435.54
502.126	15699.73
502.329	15834.89
502.532	16137.99
502.735	16133.9
502.938	16375.56
503.141	16461.57
503.344	16574.21
503.547	16916.22
503.75	17352.44
503.953	17434.36
504.156	17485.56
504.359	17739.51
504.562	17424.12
504.765	18044.65
504.968	18337.51
505.17	18470.63
505.373	18157.29
505.576	18849.5
505.779	19074.78
505.982	19334.87
506.185	19668.69
506.387	19482.33
506.59	19662.55
506.793	20121.29
506.996	20029.13
507.198	20530.89
507.401	20580.04
507.604	20831.94
507.807	21124.8
508.009	21718.71
508.212	21454.52
508.415	21597.88
508.617	21886.64
508.82	21886.64
509.022	21954.22
509.225	22605.48
509.428	22853.28
509.63	22886.05
509.833	23119.52
510.035	23748.25
510.238	23355.04
510.44	23613.08
510.643	24225.42
510.845	24272.53
511.048	24059.54
511.25	24798.85
511.453	24419.98
511.655	25523.83
511.858	25362.04
512.06	25802.36
512.262	25986.68
512.465	25699.96
512.667	26535.53
512.87	26666.6
513.072	26418.8
513.274	27151.97
513.477	27541.08
513.679	27930.2
513.881	27797.08
514.084	28034.64
514.286	27979.35
514.488	28390.99
514.69	29269.57
514.893	29197.89
515.095	29152.84
515.297	29689.4
515.499	29410.88
515.701	30051.89
515.904	30135.86
516.106	30547.5
516.308	30598.7
516.51	31274.53
516.712	31274.53
516.914	31471.14
517.116	31839.77
517.318	31745.56
517.52	32077.33
517.722	32531.98
517.925	32820.75
518.127	33152.52
518.329	33515.01
518.531	33039.88
518.733	33781.24
518.935	34047.48
519.136	34231.8
519.338	34575.86
519.54	34825.71
519.742	34993.64
519.944	35376.61
520.146	35702.24
520.348	35843.55
520.55	36136.41
520.752	36275.67
520.954	37041.61
521.155	36498.9
521.357	36933.07
521.559	37436.87
521.761	38055.36
521.963	37815.74
522.164	37950.91
522.366	38153.66
522.568	38544.82
522.77	38497.72
522.971	39718.31
523.173	38757.81
523.375	39151.02
523.576	39267.75
523.778	39484.84
523.98	39781.79
524.181	40332.7
524.383	39906.72
524.584	40433.05
524.786	40508.82
524.988	40619.41
525.189	41436.55
525.391	41266.57
525.592	41227.66
525.794	41207.18
525.995	41645.44
526.197	41592.2
526.398	41784.71
526.6	41973.12
526.801	42403.19
527.003	42564.98
527.204	42468.73
527.406	42909.04
527.607	42952.05
527.808	42816.88
528.01	42347.9
528.211	42935.66
528.412	44100.96
528.614	43883.87
528.815	43609.45
529.016	44123.49
529.218	43580.77
529.419	43832.68
529.62	43828.58
529.822	43523.43
530.023	44086.62
530.224	44084.58
530.425	44053.86
530.626	44113.25
530.828	44062.05
531.029	44942.67
531.23	44322.14
531.431	44217.69
531.632	44727.64
531.833	45124.94
532.035	44541.27
532.236	44692.82
532.437	44997.97
532.638	44557.66
532.839	45204.81
533.04	45167.95
533.241	44082.53
533.442	45495.63
533.643	45507.91
533.844	44905.81
534.045	45434.19
534.246	44975.44
534.447	45778.25
534.648	45165.9
534.849	45028.69
535.05	44932.43
535.251	45370.7
535.451	44746.07
535.652	45301.07
535.853	45296.97
536.054	45421.9
536.255	45634.89
536.456	45032.78
536.657	46175.55
536.857	45090.13
537.058	45366.6
537.259	45280.59
537.46	45028.69
537.66	45358.41
537.861	45778.25
538.062	45397.32
538.263	45421.9
538.463	45217.1
538.664	44991.83
538.865	45337.93
539.065	45561.16
539.266	44844.37
539.466	45405.52
539.667	45083.98
539.868	46007.62
540.068	45546.82
540.269	45262.16
540.469	45604.17
540.67	45024.59
540.87	45077.84
541.071	45466.95
541.271	45425.99
541.472	45389.13
541.672	45151.57
541.873	45176.14
542.073	45012.31
542.274	45505.87
542.474	45569.35
542.675	44762.45
542.875	45415.75
543.075	44995.92
543.276	45102.42
543.476	45442.38
543.676	44889.43
543.877	45440.33
544.077	45378.89
544.277	44836.18
544.478	45088.08
544.678	45425.99
544.878	45086.03
545.078	45270.35
545.279	45028.69
545.479	45190.48
545.679	45210.96
545.879	44995.92
546.079	45407.56
546.28	45296.97
546.48	44492.12
546.68	45147.47
546.88	44952.91
547.08	45086.03
547.28	45167.95
547.48	44713.3
547.68	45118.8
547.88	44098.91
548.081	44801.36
548.281	45129.04
548.481	44940.63
548.681	45221.2
548.881	44768.6
549.081	44914
549.28	44938.58
549.48	45176.14
549.68	44660.05
549.88	45458.76
550.08	44897.62
550.28	45016.4
550.48	45024.59
550.68	45251.92
550.88	44830.04
551.08	45149.52
551.279	45182.29
551.479	44883.28
551.679	45053.26
551.879	44930.39
552.079	45065.55
552.278	44545.37
552.478	44987.73
552.678	44924.24
552.878	45225.29
553.077	44827.99
553.277	44242.27
553.477	45073.74
553.676	45043.02
553.876	44838.23
554.076	44631.38
554.275	44559.7
554.475	44387.67
554.674	45032.78
554.874	45018.45
555.074	44324.19
555.273	44819.8
555.473	44698.97
555.672	44602.71
555.872	44688.73
556.071	44639.57
556.271	44877.14
556.47	44234.08
556.67	44328.28
556.869	44238.17
557.068	44445.02
557.268	44037.47
557.467	44268.89
557.667	44303.71
557.866	44664.15
558.065	43990.37
558.265	43933.03
558.464	43951.46
558.663	44506.46
558.863	43992.42
559.062	44299.61
559.261	43414.89
559.461	44250.46
559.66	43488.62
559.859	43957.6
560.058	43871.59
560.258	43844.96
560.457	43603.3
560.656	43871.59
560.855	44029.28
561.054	44199.26
561.253	43636.07
561.453	43976.03
561.652	43736.42
561.851	44002.66
562.05	43539.82
562.249	43058.54
562.448	43756.9
562.647	43396.46
562.846	43251.05
563.045	43345.26
563.244	42954.1
563.443	43484.52
563.642	43011.44
563.841	43218.28
564.04	42923.38
564.239	43365.74
564.438	42870.13
564.637	42898.8
564.836	43148.65
565.035	42607.99
565.234	42814.83
565.432	42392.95
565.631	42421.62
565.83	42325.37
566.029	42198.4
566.228	42675.57
566.427	42126.72
566.625	42192.25
566.824	41739.65
567.023	42554.74
567.222	41678.21
567.42	42501.5
567.619	42151.29
567.818	41864.58
568.016	41708.93
568.215	42110.33
568.414	41860.48
568.612	41962.88
568.811	41608.58
569.01	41794.95
569.208	40998.29
569.407	41620.87
569.605	41059.73
569.804	41713.03
570.002	40752.53
570.201	41518.47
570.4	41082.25
570.598	41061.77
570.797	40697.23
570.995	40822.16
571.193	40517.01
571.392	40979.85
571.59	40179.1
571.789	40539.54
571.987	40789.39
572.186	40725.91
572.384	40340.89
572.582	40244.63
572.781	40514.97
572.979	39468.45
573.177	40330.65
573.376	39982.49
573.574	39744.93
573.772	40211.87
573.971	39640.48
574.169	39536.04
574.367	39220.65
574.565	39607.72
574.763	39290.28
574.962	39484.84
575.16	39015.85
575.358	39603.62
575.556	38483.38
575.754	39257.51
575.952	38802.86
576.151	39153.07
576.349	38516.15
576.547	38749.62
576.745	38792.62
576.943	38581.68
577.141	38487.48
577.339	38811.06
577.537	38313.4
577.735	38307.26
577.933	38307.26
578.131	38487.48
578.329	38155.71
578.527	37985.72
578.725	37735.87
578.923	38022.59
579.121	37789.12
579.319	37742.02
579.516	37991.87
579.714	37443.01
579.912	37649.86
580.11	37283.27
580.308	37461.44
580.506	37344.71
580.704	37414.34
580.901	37746.11
581.099	37486.02
581.297	37098.95
581.495	37119.43
581.692	37502.4
581.89	36535.76
582.088	37014.99
582.285	36877.77
582.483	36888.01
582.681	36521.43
582.878	36564.43
583.076	36290.01
583.274	36855.25
583.471	35972.57
583.669	36333.01
583.866	36056.54
584.064	36376.02
584.262	35712.48
584.459	35902.94
584.657	35483.11
584.854	36036.06
585.052	35063.27
585.249	35466.72
585.447	35587.55
585.644	35411.43
585.841	35655.14
586.039	35501.54
586.236	34612.72
586.434	34917.87
586.631	35093.99
586.828	35143.14
587.026	34610.67
587.223	34784.75
587.42	34371.06
587.618	34698.73
587.815	34123.26
588.012	34502.13
588.21	34141.69
588.407	34698.73
588.604	34342.39
588.801	33850.88
588.999	33897.98
589.196	34059.77
589.393	33861.12
589.59	33783.29
589.787	33519.1
589.984	33488.38
590.182	33326.6
590.379	33766.91
590.576	33398.27
590.773	32957.96
590.97	32687.63
591.167	32863.75
591.364	32882.19
591.561	33230.34
591.758	32695.82
591.955	32454.16
592.152	32884.23
592.349	32986.63
592.546	32347.67
592.743	32474.64
592.94	32226.84
593.137	32435.73
593.334	32321.04
593.531	31817.24
593.727	32384.53
593.924	31714.84
594.121	31761.95
594.318	31972.89
594.515	31424.03
594.712	31827.48
594.908	31559.2
595.105	31807
595.302	31301.15
595.499	31542.81
595.696	31309.35
595.892	30522.93
596.089	31028.77
596.286	31043.11
596.482	31143.46
596.679	30887.46
596.876	30549.55
597.072	30553.65
597.269	30813.74
597.466	30535.21
597.662	30524.97
597.859	30404.14
598.055	30338.61
598.252	29963.83
598.448	30068.28
598.645	29988.41
598.841	29591.1
599.038	30119.48
599.234	29972.02
599.431	29697.59
599.627	29615.68
599.824	29761.08
600.02	29333.06
600.217	29470.27
600.413	29619.77
600.609	29009.48
600.806	29011.53
601.002	29468.22
601.198	29052.48
601.395	28892.74
601.591	28896.84
601.787	28739.15
601.984	28444.24
602.18	29009.48
602.376	28460.62
602.572	28378.7
602.769	28304.98
602.965	28051.03
603.161	28509.77
603.357	28132.95
603.553	27879
603.75	28051.03
603.946	27936.34
604.142	27823.7
604.338	27616.86
604.534	27688.54
604.73	27442.78
604.926	27663.96
605.122	27706.97
605.318	27588.19
605.514	27049.57
605.71	27025
605.906	27229.79
606.102	27201.12
606.298	27092.58
606.494	27139.68
606.69	27244.13
606.886	27065.95
607.082	26701.42
607.278	27215.46
607.474	26527.34
607.67	26988.13
607.866	26338.93
608.062	26570.35
608.257	26769
608.453	26748.52
608.649	26607.21
608.845	26214
609.041	26510.96
609.236	26547.82
609.432	26574.44
609.628	26236.53
609.824	26269.3
610.019	26037.87
610.215	26156.66
610.411	26033.78
610.606	25871.99
610.802	25933.43
610.998	25970.29
611.193	25927.28
611.389	25853.56
611.584	25654.9
611.78	25591.42
611.976	25601.66
612.171	25630.33
612.367	25712.25
612.562	25544.31
612.758	25226.88
612.953	25523.83
613.149	25665.14
613.344	25466.49
613.539	25851.51
613.735	25462.4
613.93	25214.59
614.126	25347.71
614.321	25540.22
614.517	25071.23
614.712	24958.6
614.907	24757.89
615.103	25601.66
615.298	24954.5
615.493	25294.46
615.688	24811.14
615.884	25273.98
616.079	24899.2
616.274	24596.1
616.47	24829.57
616.665	24741.51
616.86	24663.69
617.055	24526.47
617.25	24610.44
617.445	24739.46
617.641	24362.64
617.836	24606.34
618.031	24311.44
618.226	24166.03
618.421	24258.19
618.616	24532.62
618.811	23799.44
619.006	24460.94
619.201	23678.61
619.396	23998.1
619.591	23316.12
619.786	24102.54
619.981	23170.72
620.176	23668.37
620.371	23326.36
620.566	23443.1
620.761	23070.37
620.956	23443.1
621.151	23191.2
621.346	23236.25
621.541	22841
621.735	23228.06
621.93	22474.41
622.125	22791.84
622.32	22292.14
622.515	22460.07
622.709	22046.38
622.904	21927.6
623.099	22068.91
623.294	22298.28
623.488	21862.07
623.683	22046.38
623.878	21345.98
624.072	21534.39
624.267	21581.49
624.462	21311.16
624.656	21270.2
624.851	21253.82
625.046	21118.65
625.24	20881.09
625.435	20692.68
625.629	20930.24
625.824	20704.96
626.018	20698.82
626.213	20276.94
626.407	20082.38
626.602	20270.79
626.796	20238.03
626.991	20049.61
627.185	19883.73
627.38	19807.95
627.574	19668.69
627.768	19625.68
627.963	19660.5
628.157	19433.18
628.352	19281.63
628.546	19332.82
628.74	19113.69
628.935	19033.82
629.129	19087.07
629.323	18876.13
629.517	18675.43
629.712	18595.56
629.906	18757.35
630.1	18624.23
630.294	18310.89
630.489	18030.32
630.683	18398.95
630.877	18136.81
631.071	18073.32
631.265	17970.93
631.459	17968.88
631.653	17925.87
631.848	17766.13
632.042	17549.04
632.236	17544.95
632.43	17344.25
632.624	17379.06
632.818	17393.4
633.012	16963.33
633.206	16985.85
633.4	17065.72
633.594	16797.44
633.788	16955.13
633.982	16897.79
634.176	16869.12
634.369	16516.87
634.563	16516.87
634.757	16318.21
634.951	16168.71
635.145	16262.92
635.339	16377.61
635.533	16023.31
635.726	16107.27
635.92	15863.57
636.114	15828.75
636.308	15847.18
636.501	15759.12
636.695	15568.66
636.889	15601.43
637.083	15531.79
637.276	15365.91
637.47	15247.13
637.664	15212.31
637.857	15404.82
638.051	15212.31
638.244	15111.96
638.438	14909.21
638.632	14968.6
638.825	14829.34
639.019	14718.75
639.212	14581.54
639.406	14634.78
639.599	14499.62
639.793	14618.4
639.986	14149.42
640.18	14475.04
640.373	14333.73
640.567	14112.55
640.76	14169.9
640.954	13961
641.147	14038.83
641.34	13934.38
641.534	13766.45
641.727	13655.86
641.92	13711.15
642.114	13629.23
642.307	13530.93
642.5	13510.45
642.694	13694.77
642.887	13152.06
643.08	13555.51
643.273	13131.58
643.467	13375.28
643.66	12928.83
643.853	12998.46
644.046	13029.18
644.239	12949.31
644.432	12885.82
644.626	12629.82
644.819	12611.39
645.012	12795.71
645.205	12646.21
645.398	12574.53
645.591	12523.33
645.784	12214.09
645.977	12449.6
646.17	12056.39
646.363	12123.97
646.556	12021.58
646.749	12080.97
646.942	12162.89
647.135	12023.62
647.328	11906.89
647.521	11710.29
647.714	11931.47
647.907	11726.67
648.099	11790.16
648.292	11718.48
648.485	11601.74
648.678	11489.1
648.871	11532.11
649.064	11353.94
649.256	11497.3
649.449	11222.87
649.642	11259.73
649.835	11214.68
650.027	11073.37
650.22	11071.32
650.413	11194.2
650.605	10995.54
650.798	11030.36
650.991	10915.67
651.183	10712.92
651.376	10774.36
651.568	10841.95
651.761	10604.38
651.954	10588
652.146	10577.76
652.339	10753.88
652.531	10399.59
652.724	10508.13
652.916	10209.12
653.109	10172.26
653.301	10450.78
653.494	10233.7
653.686	10217.32
653.879	10258.28
654.071	10024.81
654.263	9926.5
654.456	9998.18
654.648	9944.94
654.84	9840.49
655.033	10033
655.225	9684.84
655.417	9725.8
655.61	9785.19
655.802	9734
655.994	9602.93
656.186	9580.4
656.379	9375.6
656.571	9389.94
656.763	9234.29
656.955	9310.07
657.148	9475.95
657.34	9396.08
657.532	9213.81
657.724	9316.21
657.916	9252.72
658.108	9148.28
658.3	8980.34
658.492	8945.53
658.684	8830.84
658.876	8800.12
659.068	9039.73
659.26	8793.98
659.452	8761.21
659.644	8765.31
659.836	8535.93
660.028	8515.45
660.22	8433.54
660.412	8400.77
660.604	8261.51
660.796	8451.97
660.988	8306.56
661.18	8296.32
661.372	8347.52
661.563	8306.56
661.755	8130.44
661.947	8290.18
662.139	8079.24
662.331	8279.94
662.522	8101.76
662.714	8025.99
662.906	7925.64
663.097	7907.21
663.289	7997.32
663.481	8109.96
663.673	7942.02
663.864	7724.94
664.056	7704.46
664.247	7657.36
664.439	7477.13
664.631	7448.46
664.822	7554.96
665.014	7561.1
665.205	7552.91
665.397	7487.37
665.588	7585.68
665.78	7434.13
665.971	7415.69
666.163	7380.88
666.354	7315.34
666.546	7395.22
666.737	7262.1
666.929	7239.57
667.12	7258
667.311	7042.96
667.503	7139.22
667.694	7135.12
667.885	7071.64
668.077	7045.01
668.268	6932.37
668.459	6832.02
668.651	6989.72
668.842	6903.7
669.033	6887.32
669.224	6936.47
669.416	6786.97
669.607	6737.82
669.798	6799.26
669.989	6692.76
670.18	6825.88
670.371	6815.64
670.563	6641.56
670.754	6670.23
670.945	6610.84
671.136	6678.43
671.327	6442.91
671.518	6492.06
671.709	6512.54
671.9	6451.1
672.091	6354.85
672.282	6440.86
672.473	6408.09
672.664	6358.94
672.855	6299.55
673.046	6309.79
673.237	6399.9
673.428	6430.62
673.619	6352.8
673.809	6277.02
674	6018.98
674.191	6236.06
674.382	6223.78
674.573	6102.95
674.764	5955.49
674.954	6133.67
675.145	6115.23
675.336	5982.12
675.527	5986.21
675.717	5957.54
675.908	5842.85
676.099	5992.36
676.289	5836.71
676.48	5896.1
676.671	5918.63
676.861	5982.12
677.052	5920.68
677.243	5879.72
677.433	5752.74
677.624	5801.9
677.814	5693.35
678.005	5896.1
678.195	5777.32
678.386	5605.29
678.576	5537.71
678.767	5658.54
678.957	5904.29
679.148	5689.26
679.338	5689.26
679.529	5552.04
679.719	5541.8
679.909	5711.78
680.1	5513.13
680.29	5756.84
680.481	5502.89
680.671	5423.02
680.861	5547.95
681.052	5726.12
681.242	5447.6
681.432	5810.09
681.622	5527.47
681.813	5447.6
682.003	5562.28
682.193	5433.26
682.383	5402.54
682.573	5343.15
682.764	5541.8
682.954	5330.86
683.144	5406.64
683.334	5199.79
683.524	5361.58
683.714	5349.29
683.904	5150.64
684.094	5226.42
684.284	5279.66
684.474	5228.46
684.664	5207.98
684.854	5126.07
685.044	5150.64
685.234	5201.84
685.424	5078.96
685.614	5003.19
685.804	5031.86
685.994	4972.47
686.184	5035.96
686.374	5056.43
686.564	4992.95
686.753	5001.14
686.943	4894.65
687.133	4908.98
687.323	4827.06
687.513	5044.15
687.702	5035.96
687.892	4890.55
688.082	4802.49
688.272	4749.24
688.461	4710.33
688.651	4782.01
688.841	4669.37
689.03	4706.23
689.22	4581.31
689.41	4698.04
689.599	4655.03
689.789	4569.02
689.979	4507.58
690.168	4779.96
690.358	4579.26
690.547	4433.85
690.737	4581.31
690.926	4493.24
691.116	4347.84
691.305	4446.14
691.495	4483
691.684	4450.24
691.874	4421.56
692.063	4347.84
692.252	4337.6
692.442	4384.7
692.631	4214.72
692.82	4284.35
693.01	4345.79
693.199	4153.28
693.388	4009.92
693.578	4159.42
693.767	4280.25
693.956	4186.05
694.146	4218.82
694.335	4167.62
694.524	4087.75
694.713	4038.59
694.902	4138.94
695.092	4143.04
695.281	4046.79
695.47	4118.47
695.659	3999.68
695.848	4061.12
696.037	4024.26
696.226	3940.29
696.415	3934.15
696.604	3973.06
696.793	3971.01
696.982	3897.28
697.171	3913.67
697.36	4028.35
697.549	3813.32
697.738	3911.62
697.927	3905.48
698.116	3856.33
698.305	3792.84
698.494	3878.85
698.683	3788.74
698.872	3909.57
699.061	3934.15
699.25	3858.37
699.438	3758.02
699.627	3729.35
699.816	3729.35
700.005	3682.25
700.193	3624.9
700.382	3813.32
700.571	3786.69
700.76	3866.56
700.948	3721.16
701.137	3676.1
701.326	3780.55
701.514	3764.17
701.703	3661.77
701.892	3741.64
702.08	3731.4
702.269	3581.9
702.457	3555.27
702.646	3629
702.834	3692.49
703.023	3637.19
703.212	3585.99
703.4	3477.45
703.589	3604.43
703.777	3590.09
703.965	3526.6
704.154	3643.34
704.342	3532.75
704.531	3688.39
704.719	3606.47
704.907	3600.33
705.096	3532.75
705.284	3526.6
705.472	3565.51
705.661	3510.22
705.849	3657.67
706.037	3573.71
706.226	3551.18
706.414	3602.38
706.602	3473.35
706.79	3475.4
706.979	3565.51
707.167	3573.71
707.355	3512.27
707.543	3612.62
707.731	3561.42
707.919	3667.91
708.107	3389.39
708.296	3491.79
708.484	3381.2
708.672	3561.42
708.86	3534.79
709.048	3559.37
709.236	3389.39
709.424	3448.78
709.612	3499.98
709.8	3434.44
709.988	3422.16
710.176	3510.22
710.364	3452.88
710.551	3418.06
710.739	3481.55
710.927	3465.16
711.115	3506.12
711.303	3473.35
711.491	3491.79
711.679	3420.11
711.866	3418.06
712.054	3418.06
712.242	3473.35
712.43	3465.16
712.617	3366.86
712.805	3344.33
712.993	3461.07
713.181	3262.41
713.368	3512.27
713.556	3405.77
713.744	3313.61
713.931	3366.86
714.119	3346.38
714.306	3485.64
714.494	3405.77
714.682	3295.18
714.869	3456.97
715.057	3313.61
715.244	3321.81
715.432	3461.07
715.619	3416.01
715.807	3413.96
715.994	3362.76
716.182	3209.17
716.369	3366.86
716.556	3334.09
716.744	3416.01
716.931	3241.93
717.119	3440.59
717.306	3409.87
717.493	3379.15
717.681	3293.13
717.868	3264.46
718.055	3368.91
718.242	3325.9
718.43	3246.03
718.617	3274.7
718.804	3364.81
718.991	3274.7
719.179	3334.09
719.366	3313.61
719.553	3354.57
719.74	3334.09
719.927	3258.32
720.114	3262.41
720.301	3155.92
720.488	3254.22
720.676	3221.45
720.863	3299.28
721.05	3358.67
721.237	3264.46
721.424	3235.79
721.611	3145.68
721.798	3188.69
721.985	3170.26
722.172	3223.5
722.358	3237.84
722.545	3219.41
722.732	3270.61
722.919	3330
723.106	3127.25
723.293	3250.13
723.48	3168.21
723.667	3213.26
723.853	3108.82
724.04	3254.22
724.227	3215.31
724.414	3241.93
724.6	3063.76
724.787	3307.47
724.974	3248.08
725.161	3084.24
725.347	3153.87
725.534	3141.58
725.72	3203.02
725.907	3243.98
726.094	3262.41
726.28	3186.64
726.467	3256.27
726.653	3106.77
726.84	3284.94
727.027	3143.63
727.213	3125.2
727.4	3151.82
727.586	3135.44
727.773	3108.82
727.959	3184.59
728.145	3213.26
728.332	3143.63
728.518	3143.63
728.705	3276.75
728.891	3252.17
729.077	3141.58
729.264	3266.51
729.45	3182.54
729.636	3291.09
729.823	3141.58
730.009	3233.74
730.195	3155.92
730.382	3190.74
730.568	3088.34
730.754	3178.45
730.94	3266.51
731.126	3143.63
731.313	3160.02
731.499	3141.58
731.685	3364.81
731.871	3069.91
732.057	3098.58
732.243	3227.6
732.429	3110.86
732.615	3184.59
732.801	3045.33
732.987	3194.83
733.173	3080.14
733.359	3037.14
733.545	3092.43
733.731	3098.58
733.917	3151.82
734.103	3172.3
734.289	3160.02
734.475	3104.72
734.661	3092.43
734.847	3080.14
735.033	3067.86
735.219	3143.63
735.404	3055.57
735.59	3047.38
735.776	3024.85
735.962	3057.62
736.148	3078.1
736.333	2987.99
736.519	3012.56
736.705	3145.68
736.89	3022.8
737.076	3045.33
737.262	3043.28
737.447	2965.46
737.633	2998.23
737.819	2975.7
738.004	3041.23
738.19	3061.71
738.375	2973.65
738.561	2990.03
738.747	2932.69
738.932	3045.33
739.118	2910.16
739.303	3018.71
739.489	2981.84
739.674	2912.21
739.859	2928.6
740.045	2961.36
740.23	2828.24
740.416	2940.88
740.601	2947.03
740.786	2916.31
740.972	2854.87
741.157	2858.96
741.342	2809.81
741.528	2838.48
741.713	2844.63
741.898	2834.39
742.084	2723.8
742.269	2695.13
742.454	2811.86
742.639	2850.77
742.824	2766.81
743.01	2834.39
743.195	2818.01
743.38	2691.03
743.565	2676.7
743.75	2641.88
743.935	2631.64
744.12	2744.28
744.305	2592.73
744.49	2699.22
744.675	2619.35
744.86	2562.01
745.045	2648.02
745.23	2641.88
745.415	2686.93
745.6	2480.09
745.785	2506.71
745.97	2519
746.155	2588.63
746.34	2641.88
746.525	2529.24
746.71	2574.3
746.895	2592.73
747.079	2512.86
747.264	2389.98
747.449	2492.38
747.634	2377.69
747.819	2424.79
748.003	2328.54
748.188	2392.03
748.373	2467.8
748.557	2346.97
748.742	2355.16
748.927	2394.08
749.111	2396.12
749.296	2332.64
749.481	2324.44
749.665	2267.1
749.85	2191.33
750.034	2308.06
750.219	2314.2
750.404	2209.76
750.588	2279.39
750.773	2150.37
750.957	2209.76
751.141	2109.41
751.326	2113.5
751.51	2179.04
751.695	2187.23
751.879	2123.74
752.064	2136.03
752.248	2090.98
752.432	2058.21
752.617	2062.3
752.801	2025.44
752.985	2078.69
753.17	1968.1
753.354	1951.71
753.538	2115.55
753.722	2056.16
753.907	1937.38
754.091	1871.84
754.275	1943.52
754.459	1927.14
754.643	1871.84
754.828	1783.78
755.012	1908.71
755.196	1910.75
755.38	1853.41
755.564	1873.89
755.748	1929.19
755.932	1890.28
756.116	1806.31
756.3	1757.16
756.484	1773.54
756.668	1806.31
756.852	1624.04
757.036	1751.01
757.22	1646.57
757.404	1701.86
757.588	1789.92
757.772	1701.86
757.956	1720.29
758.14	1595.37
758.323	1646.57
758.507	1652.71
758.691	1640.42
758.875	1689.57
759.059	1544.17
759.242	1636.33
759.426	1619.94
759.61	1605.61
759.794	1513.45
759.977	1546.22
760.161	1521.64
760.345	1521.64
760.528	1525.74
760.712	1521.64
760.895	1558.5
761.079	1492.97
761.263	1505.26
761.446	1431.53
761.63	1437.67
761.813	1484.78
761.997	1521.64
762.18	1376.23
762.364	1540.07
762.547	1392.62
762.731	1441.77
762.914	1476.59
763.098	1372.14
763.281	1480.68
763.464	1370.09
763.648	1456.11
763.831	1458.15
764.015	1286.12
764.198	1267.69
764.381	1464.3
764.564	1343.47
764.748	1372.14
764.931	1304.56
765.114	1230.83
765.297	1370.09
765.481	1296.36
765.664	1271.79
765.847	1335.28
766.03	1306.6
766.213	1177.58
766.397	1249.26
766.58	1265.64
766.763	1314.8
766.946	1261.55
767.129	1267.69
767.312	1189.87
767.495	1292.27
767.678	1300.46
767.861	1245.16
768.044	1155.05
768.227	1224.69
768.41	1257.45
768.593	1265.64
768.776	1300.46
768.959	1220.59
769.142	1271.79
769.324	1179.63
769.507	1267.69
769.69	1208.3
769.873	1124.33
770.056	1216.49
770.239	1191.92
770.421	1138.67
770.604	1069.04
770.787	1226.73
770.97	1107.95
771.152	1114.09
771.335	1060.85
771.518	1093.62
771.7	1085.42
771.883	1128.43
772.066	1058.8
772.248	1058.8
772.431	1116.14
772.613	1099.76
772.796	1085.42
772.978	1042.42
773.161	1075.18
773.343	1013.74
773.526	1052.66
773.708	1023.98
773.891	1026.03
774.073	1040.37
774.256	983.03
774.438	958.45
774.621	1032.18
774.803	1013.74
774.985	888.82
775.168	1058.8
775.35	923.63
775.532	931.83
775.715	927.73
775.897	995.31
776.079	946.16
776.261	946.16
776.444	958.45
776.626	911.35
776.808	899.06
776.99	884.72
777.173	835.57
777.355	872.43
777.537	915.44
777.719	901.11
777.901	876.53
778.083	899.06
778.265	829.43
778.447	839.67
778.629	806.9
778.811	860.15
778.993	847.86
779.175	829.43
779.357	876.53
779.539	854
779.721	698.36
779.903	817.14
780.085	796.66
780.267	815.09
780.449	770.04
780.631	731.12
780.812	813.04
780.994	735.22
781.176	743.41
781.358	733.17
781.54	684.02
781.721	806.9
781.903	757.75
782.085	714.74
782.267	698.36
782.448	669.69
782.63	663.54
782.812	745.46
782.993	641.01
783.175	675.83
783.357	679.93
783.538	690.17
783.72	710.65
783.901	706.55
784.083	673.78
784.264	563.19
784.446	651.25
784.627	505.85
784.809	632.82
784.99	620.53
785.172	567.29
785.353	636.92
785.535	700.41
785.716	585.72
785.897	630.77
786.079	602.1
786.26	608.25
786.441	610.29
786.623	583.67
786.804	544.76
786.985	575.48
787.167	499.7
787.348	475.13
787.529	522.23
787.71	585.72
787.891	647.16
788.073	661.49
788.254	507.9
788.435	501.75
788.616	569.34
788.797	593.91
788.978	561.14
789.159	530.42
789.34	479.22
789.522	511.99
789.703	561.14
789.884	540.66
790.065	511.99
790.246	468.98
790.427	505.85
790.607	428.03
790.788	477.18
790.969	378.87
791.15	468.98
791.331	462.84
791.512	417.79
791.693	378.87
791.874	374.78
792.054	460.79
792.235	503.8
792.416	405.5
792.597	401.4
792.778	434.17
792.958	415.74
793.139	389.11
793.32	423.93
793.5	417.79
793.681	378.87
793.862	393.21
794.042	442.36
794.223	417.79
794.404	382.97
794.584	401.4
794.765	413.69
794.945	315.39
795.126	425.98
795.306	366.59
795.487	329.72
795.667	372.73
795.848	401.4
796.028	421.88
796.209	331.77
796.389	348.15
796.57	378.87
796.75	294.91
796.93	417.79
797.111	376.83
797.291	309.24
797.471	378.87
797.652	339.96
797.832	303.1
798.012	419.83
798.192	366.59
798.373	266.24
798.553	319.48
798.733	409.59
798.913	333.82
799.093	372.73
799.274	325.63
799.454	313.34
799.634	237.56
799.814	360.44
799.994	321.53
800.174	292.86
800.354	288.76
800.534	317.44
800.714	339.96
800.894	329.72
801.074	251.9
801.254	382.97
801.434	405.5
801.614	362.49
801.794	296.96
801.974	667.64
802.154	309.24
802.334	282.62
802.514	305.15
802.693	329.72
802.873	253.95
803.053	260.09
803.233	327.67
803.413	272.38
803.592	233.47
803.772	325.63
803.952	178.17
804.131	288.76
804.311	286.72
804.491	329.72
804.67	212.99
804.85	284.67
805.03	268.28
805.209	235.52
805.389	235.52
805.568	296.96
805.748	247.8
805.928	241.66
806.107	251.9
806.287	278.52
806.466	206.84
806.646	288.76
806.825	258.04
807.004	331.77
807.184	264.19
807.363	301.05
807.543	198.65
807.722	239.61
807.901	210.94
808.081	163.84
808.26	155.65
808.439	286.72
808.619	317.44
808.798	221.18
808.977	212.99
809.156	233.47
809.336	229.37
809.515	274.43
809.694	251.9
809.873	270.33
810.052	288.76
810.231	229.37
810.411	217.08
810.59	227.32
810.769	178.17
810.948	225.28
811.127	260.09
811.306	286.72
811.485	221.18
811.664	317.44
811.843	167.93
812.022	196.61
812.201	249.85
812.38	247.8
812.559	112.64
812.737	200.7
812.916	165.89
813.095	235.52
813.274	200.7
813.453	223.23
813.632	124.93
813.811	210.94
813.989	190.46
814.168	215.04
814.347	120.83
814.526	184.32
814.704	204.8
814.883	212.99
815.062	86.01
815.24	176.13
815.419	172.03
815.598	159.74
815.776	131.07
815.955	147.45
816.133	202.75
816.312	182.27
816.49	145.41
816.669	149.5
816.847	184.32
817.026	208.89
817.204	155.65
817.383	143.36
817.561	159.74
817.74	151.55
817.918	221.18
818.097	129.02
818.275	151.55
818.453	184.32
818.632	227.32
818.81	208.89
818.988	98.3
819.167	157.69
819.345	120.83
819.523	143.36
819.701	165.89
819.879	104.45
820.058	124.93
820.236	118.78
820.414	145.41
820.592	192.51
820.77	94.21
820.948	141.31
821.127	182.27
821.305	92.16
821.483	149.5
821.661	192.51
821.839	114.69
822.017	188.41
822.195	120.83
822.373	200.7
822.551	81.92
822.729	151.55
822.907	165.89
823.085	174.08
823.262	178.17
823.44	96.25
823.618	116.73
823.796	122.88
823.974	129.02
824.152	135.17
824.329	112.64
824.507	155.65
824.685	169.98
824.863	110.59
825.04	81.92
825.218	100.35
825.396	34.82
825.574	139.26
825.751	157.69
825.929	208.89
826.107	110.59
826.284	149.5
826.462	139.26
826.639	63.49
826.817	32.77
826.994	92.16
827.172	24.58
827.349	139.26
827.527	126.97
827.704	188.41
827.882	122.88
828.059	116.73
828.237	57.34
828.414	131.07
828.591	-4.1
828.769	90.11
828.946	149.5
829.124	120.83
829.301	180.22
829.478	90.11
829.655	129.02
829.833	69.63
830.01	57.34
830.187	141.31
830.364	36.86
830.542	92.16
830.719	135.17
830.896	92.16
831.073	14.34
831.25	141.31
831.427	94.21
831.604	161.79
831.782	45.06
831.959	151.55
832.136	96.25
832.313	83.97
832.49	161.79
832.667	122.88
832.844	77.82
833.021	77.82
833.198	30.72
833.374	126.97
833.551	16.38
833.728	61.44
833.905	83.97
834.082	59.39
834.259	65.53
834.436	43.01
834.612	2.05
834.789	124.93
834.966	77.82
835.143	126.97
835.319	32.77
835.496	75.77
835.673	143.36
835.85	86.01
836.026	122.88
836.203	49.15
836.38	90.11
836.556	73.73
836.733	59.39
836.909	86.01
837.086	18.43
837.262	94.21
837.439	79.87
837.616	69.63
837.792	75.77
837.968	102.4
838.145	24.58
838.321	67.58
838.498	102.4
838.674	110.59
838.851	106.49
839.027	86.01
839.203	118.78
839.38	157.69
839.556	73.73
839.732	106.49
839.909	131.07
840.085	98.3
840.261	18.43
840.437	59.39
840.614	4.1
840.79	112.64
840.966	75.77
841.142	40.96
841.318	77.82
841.494	108.54
841.671	90.11
841.847	16.38
842.023	59.39
842.199	45.06
842.375	98.3
842.551	18.43
842.727	43.01
842.903	94.21
843.079	73.73
843.255	30.72
843.431	43.01
843.607	24.58
843.783	59.39
843.959	28.67
844.134	57.34
844.31	14.34
844.486	79.87
844.662	10.24
844.838	45.06
845.013	45.06
845.189	-28.67
845.365	14.34
845.541	34.82
845.716	30.72
845.892	69.63
846.068	61.44
846.244	24.58
846.419	71.68
846.595	63.49
846.77	73.73
846.946	30.72
847.122	129.02
847.297	-28.67
847.473	79.87
847.648	4.1
847.824	47.1
847.999	51.2
848.175	86.01
848.35	108.54
848.526	79.87
848.701	45.06
848.876	69.63
849.052	49.15
849.227	98.3
849.403	14.34
849.578	86.01
849.753	122.88
849.929	16.38
850.104	47.1
850.279	90.11
850.454	20.48
850.63	-12.29
850.805	2.05
850.98	20.48
851.155	73.73
851.33	112.64
851.505	26.62
851.681	69.63
851.856	28.67
852.031	2.05
852.206	-22.53
852.381	22.53
852.556	-30.72
852.731	43.01
852.906	14.34
853.081	145.41
853.256	145.41
853.431	38.91
853.606	98.3
853.781	51.2
853.956	-20.48
854.131	55.3
854.305	34.82
854.48	-30.72
854.655	-16.38
854.83	24.58
855.005	-77.82
855.18	55.3
855.354	57.34
855.529	81.92
855.704	57.34
855.879	34.82
856.053	-34.82
856.228	18.43
856.403	55.3
856.577	88.06
856.752	71.68
856.926	14.34
857.101	75.77
857.276	71.68
857.45	12.29
857.625	-12.29
857.799	-12.29
857.974	143.36
858.148	30.72
858.323	26.62
858.497	43.01
858.672	8.19
858.846	16.38
859.02	45.06
859.195	4.1
859.369	-45.06
859.543	30.72
859.718	32.77
859.892	-18.43
860.066	55.3
860.241	34.82
860.415	16.38
860.589	-8.19
860.763	108.54
860.938	63.49
861.112	2.05
861.286	-59.39
861.46	47.1
861.634	-38.91
861.808	69.63
861.982	-12.29
862.157	34.82
862.331	-67.58
862.505	22.53
862.679	-2.05
862.853	26.62
863.027	53.25
863.201	20.48
863.375	16.38
863.549	51.2
863.722	18.43
863.896	30.72
864.07	65.53
864.244	34.82
864.418	30.72
864.592	20.48
864.766	-24.58
864.939	-18.43
865.113	45.06
865.287	75.77
865.461	-43.01
865.634	14.34
865.808	2.05
865.982	12.29
866.156	-59.39
866.329	45.06
866.503	32.77
866.676	18.43
866.85	26.62
867.024	36.86
867.197	-2.05
867.371	10.24
867.544	-12.29
867.718	30.72
867.891	38.91
868.065	14.34
868.238	-24.58
868.412	36.86
868.585	-16.38
868.759	88.06
868.932	6.14
869.105	16.38
869.279	75.77
869.452	0
869.625	-32.77
869.799	20.48
869.972	18.43
870.145	12.29
870.319	61.44
870.492	16.38
870.665	18.43
870.838	10.24
871.011	0
871.185	36.86
871.358	-26.62
871.531	38.91
871.704	-2.05
871.877	32.77
872.05	-18.43
872.223	-55.3
872.396	-20.48
872.569	2.05
872.742	16.38
872.915	16.38
873.088	-20.48
873.261	-26.62
873.434	-81.92
873.607	-36.86
873.78	-38.91
873.953	-12.29
874.126	-51.2
874.299	79.87
874.471	-26.62
874.644	-2.05
874.817	30.72
874.99	51.2
875.163	-40.96
875.335	73.73
875.508	24.58
875.681	100.35
875.853	-45.06
876.026	26.62
876.199	77.82
876.371	-2.05
876.544	2.05
876.717	96.25
876.889	-8.19
877.062	53.25
877.234	0
877.407	-26.62
877.579	12.29
877.752	-16.38
877.924	16.38
878.097	-2.05
878.269	45.06
878.442	-22.53
878.614	104.45
878.786	-22.53
878.959	20.48
879.131	-6.14
879.303	-6.14
879.476	30.72
879.648	-32.77
879.82	-45.06
879.993	12.29
880.165	79.87
880.337	6.14
880.509	38.91
880.681	-57.34
880.854	-2.05
881.026	30.72
881.198	51.2
881.37	-55.3
881.542	-6.14
881.714	26.62
881.886	32.77
882.058	18.43
882.23	40.96
882.402	-6.14
882.574	-14.34
882.746	47.1
882.918	-49.15
883.09	12.29
883.262	-67.58
883.434	104.45
883.606	26.62
883.778	12.29
883.95	43.01
884.122	4.1
884.293	-12.29
884.465	38.91
884.637	88.06
884.809	-10.24
884.98	45.06
885.152	-18.43
885.324	20.48
885.496	-51.2
885.667	49.15
885.839	40.96
886.011	24.58
886.182	61.44
886.354	10.24
886.525	-98.3
886.697	2.05
886.869	-47.1
887.04	38.91
887.212	-2.05
887.383	-16.38
887.555	-61.44
887.726	-22.53
887.897	-2.05
888.069	14.34
888.24	4.1
888.412	-10.24
888.583	-18.43
888.754	-8.19
888.926	36.86
889.097	-38.91
889.268	-4.1
889.44	34.82
889.611	0
889.782	-16.38
889.953	40.96
890.125	43.01
890.296	10.24
890.467	32.77
890.638	26.62
890.809	26.62
890.98	-55.3
891.151	53.25
891.323	24.58
891.494	67.58
891.665	45.06
891.836	18.43
892.007	-32.77
892.178	59.39
892.349	-4.1
892.52	-18.43
892.691	57.34
892.862	14.34
893.032	-14.34
893.203	77.82
893.374	22.53
893.545	75.77
893.716	-55.3
893.887	-79.87
894.057	-57.34
894.228	-22.53
894.399	-47.1
894.57	10.24
894.74	18.43
894.911	-67.58
895.082	-28.67
895.253	61.44
895.423	6.14
895.594	90.11
895.764	-16.38
895.935	-12.29
896.106	16.38
896.276	18.43
896.447	57.34
896.617	-79.87
896.788	-65.54
896.958	-10.24
897.129	12.29
897.299	-8.19
897.47	45.06
897.64	28.67
897.81	-14.34
897.981	-79.87
898.151	-14.34
898.322	14.34
898.492	14.34
898.662	-45.06
898.832	-12.29
899.003	-20.48
899.173	-16.38
899.343	-55.3
899.513	36.86
