Data from USB4F104151__18__12-27-05-817.txt Node

Date: Fri Mar 14 12:27:05 EDT 2025
User: louis
Spectrometer: USB4F10415
Trigger mode: 4
Integration Time (sec): 2.000000E-2
Scans to average: 1
Electric dark correction enabled: true
Nonlinearity correction enabled: false
Boxcar width: 0
XAxis mode: Wavelengths
Number of Pixels in Spectrum: 3648
>>>>>Begin Spectral Data<<<<<
178.204	-95.23
178.424	-95.23
178.644	-95.23
178.864	-82.94
179.084	-119.81
179.304	60.42
179.524	1.02
179.744	-13.31
179.964	-35.84
180.184	33.79
180.404	37.89
180.624	-35.84
180.844	1.02
181.064	-33.79
181.283	-27.65
181.503	-9.22
181.723	21.5
181.943	-56.32
182.163	9.22
182.383	-39.94
182.602	39.94
182.822	60.42
183.042	1.02
183.262	-44.03
183.482	44.03
183.701	29.7
183.921	15.36
184.141	-33.79
184.361	5.12
184.58	3.07
184.8	-29.7
185.02	19.46
185.239	21.5
185.459	23.55
185.679	50.18
185.898	-39.94
186.118	1.02
186.338	-1.02
186.557	70.65
186.777	-50.18
186.997	-25.6
187.216	27.65
187.436	-19.46
187.655	-29.7
187.875	113.66
188.095	-27.65
188.314	52.22
188.534	-7.17
188.753	-7.17
188.973	13.31
189.192	25.6
189.412	13.31
189.631	-35.84
189.851	27.65
190.07	9.22
190.29	-113.66
190.509	-27.65
190.729	-58.37
190.948	29.7
191.168	56.32
191.387	27.65
191.607	-97.28
191.826	76.8
192.045	-35.84
192.265	-1.02
192.484	-35.84
192.704	-9.22
192.923	11.26
193.142	25.6
193.362	-5.12
193.581	62.46
193.8	-1.02
194.02	5.12
194.239	-50.18
194.458	-3.07
194.678	11.26
194.897	37.89
195.116	-87.04
195.335	64.51
195.555	-27.65
195.774	-3.07
195.993	56.32
196.212	-58.37
196.432	7.17
196.651	15.36
196.87	3.07
197.089	97.28
197.308	-66.56
197.528	-1.02
197.747	23.55
197.966	-1.02
198.185	-31.74
198.404	29.7
198.623	56.32
198.842	27.65
199.062	66.56
199.281	76.8
199.5	1.02
199.719	-56.32
199.938	1.02
200.157	37.89
200.376	3.07
200.595	80.89
200.814	19.46
201.033	-21.5
201.252	5.12
201.471	103.42
201.69	9.22
201.909	113.66
202.128	1.02
202.347	19.46
202.566	-25.6
202.785	31.74
203.004	-1.02
203.223	27.65
203.442	44.03
203.661	-54.27
203.879	-5.12
204.098	15.36
204.317	-27.65
204.536	5.12
204.755	15.36
204.974	-11.26
205.193	80.89
205.411	39.94
205.63	27.65
205.849	-56.32
206.068	19.46
206.287	33.79
206.505	-7.17
206.724	-1.02
206.943	-68.61
207.162	-15.36
207.381	-48.13
207.599	-44.03
207.818	-23.55
208.037	33.79
208.255	-27.65
208.474	78.85
208.693	27.65
208.911	56.32
209.13	13.31
209.349	33.79
209.567	82.94
209.786	37.89
210.005	54.27
210.223	-60.42
210.442	-70.65
210.661	15.36
210.879	31.74
211.098	72.7
211.316	52.22
211.535	29.7
211.753	37.89
211.972	56.32
212.191	-39.94
212.409	-54.27
212.628	17.41
212.846	48.13
213.065	25.6
213.283	21.5
213.502	-21.5
213.72	-27.65
213.938	13.31
214.157	-15.36
214.375	-31.74
214.594	-17.41
214.812	-93.18
215.031	25.6
215.249	-5.12
215.467	78.85
215.686	-3.07
215.904	58.37
216.122	5.12
216.341	37.89
216.559	-1.02
216.778	13.31
216.996	58.37
217.214	37.89
217.432	-46.08
217.651	-1.02
217.869	-19.46
218.087	41.98
218.306	-19.46
218.524	9.22
218.742	-21.5
218.96	37.89
219.179	-35.84
219.397	-7.17
219.615	7.17
219.833	35.84
220.051	-33.79
220.27	31.74
220.488	17.41
220.706	17.41
220.924	-64.51
221.142	82.94
221.36	-48.13
221.578	11.26
221.796	-3.07
222.015	-19.46
222.233	-39.94
222.451	95.23
222.669	-46.08
222.887	25.6
223.105	-7.17
223.323	29.7
223.541	-60.42
223.759	-33.79
223.977	7.17
224.195	-21.5
224.413	39.94
224.631	-44.03
224.849	-1.02
225.067	-33.79
225.285	-50.18
225.503	-13.31
225.721	-62.46
225.939	84.99
226.157	21.5
226.375	76.8
226.592	87.04
226.81	-1.02
227.028	15.36
227.246	50.18
227.464	-62.46
227.682	-41.98
227.9	-13.31
228.117	54.27
228.335	7.17
228.553	-64.51
228.771	-3.07
228.989	5.12
229.206	48.13
229.424	-27.65
229.642	52.22
229.86	44.03
230.077	-1.02
230.295	-11.26
230.513	-21.5
230.731	37.89
230.948	-54.27
231.166	7.17
231.384	15.36
231.601	-37.89
231.819	84.99
232.037	-15.36
232.254	-46.08
232.472	3.07
232.689	7.17
232.907	15.36
233.125	50.18
233.342	-13.31
233.56	-21.5
233.777	-11.26
233.995	-41.98
234.213	41.98
234.43	35.84
234.648	9.22
234.865	-23.55
235.083	-35.84
235.3	-11.26
235.518	-50.18
235.735	-7.17
235.953	52.22
236.17	-66.56
236.388	25.6
236.605	-17.41
236.822	-37.89
237.04	37.89
237.257	-72.7
237.475	1.02
237.692	21.5
237.909	27.65
238.127	-23.55
238.344	44.03
238.562	13.31
238.779	33.79
238.996	-23.55
239.214	-9.22
239.431	-60.42
239.648	-31.74
239.865	-3.07
240.083	-60.42
240.3	13.31
240.517	44.03
240.735	-15.36
240.952	29.7
241.169	-21.5
241.386	97.28
241.603	13.31
241.821	-1.02
242.038	21.5
242.255	52.22
242.472	-17.41
242.689	-21.5
242.907	25.6
243.124	-5.12
243.341	44.03
243.558	-46.08
243.775	-19.46
243.992	-17.41
244.209	7.17
244.426	7.17
244.643	31.74
244.86	-9.22
245.078	7.17
245.295	60.42
245.512	1.02
245.729	-19.46
245.946	48.13
246.163	-25.6
246.38	50.18
246.597	54.27
246.814	21.5
247.031	44.03
247.248	-13.31
247.464	-9.22
247.681	9.22
247.898	-44.03
248.115	1.02
248.332	17.41
248.549	-17.41
248.766	29.7
248.983	35.84
249.2	21.5
249.417	33.79
249.633	23.55
249.85	21.5
250.067	9.22
250.284	-3.07
250.501	11.26
250.717	27.65
250.934	-9.22
251.151	-15.36
251.368	-37.89
251.585	-19.46
251.801	-9.22
252.018	23.55
252.235	-19.46
252.451	13.31
252.668	-21.5
252.885	-11.26
253.102	31.74
253.318	-1.02
253.535	35.84
253.752	9.22
253.968	-74.75
254.185	-23.55
254.401	-9.22
254.618	5.12
254.835	-44.03
255.051	29.7
255.268	29.7
255.484	62.46
255.701	-1.02
255.917	-23.55
256.134	-44.03
256.351	-1.02
256.567	7.17
256.784	25.6
257	1.02
257.217	9.22
257.433	-17.41
257.65	33.79
257.866	35.84
258.082	3.07
258.299	11.26
258.515	-1.02
258.732	-70.65
258.948	5.12
259.165	9.22
259.381	-41.98
259.597	-44.03
259.814	-35.84
260.03	58.37
260.246	33.79
260.463	-25.6
260.679	54.27
260.895	5.12
261.112	-11.26
261.328	25.6
261.544	29.7
261.761	84.99
261.977	23.55
262.193	9.22
262.409	5.12
262.626	50.18
262.842	44.03
263.058	31.74
263.274	87.04
263.49	58.37
263.707	23.55
263.923	23.55
264.139	-46.08
264.355	-3.07
264.571	35.84
264.787	11.26
265.004	56.32
265.22	64.51
265.436	17.41
265.652	41.98
265.868	91.13
266.084	13.31
266.3	-50.18
266.516	-19.46
266.732	19.46
266.948	7.17
267.164	50.18
267.38	-25.6
267.596	17.41
267.812	39.94
268.028	-29.7
268.244	-44.03
268.46	62.46
268.676	3.07
268.892	35.84
269.108	-7.17
269.324	-11.26
269.54	-7.17
269.756	-5.12
269.972	-58.37
270.188	35.84
270.403	-62.46
270.619	-11.26
270.835	-27.65
271.051	11.26
271.267	15.36
271.483	-27.65
271.698	-9.22
271.914	39.94
272.13	23.55
272.346	-13.31
272.562	15.36
272.777	-17.41
272.993	21.5
273.209	31.74
273.425	31.74
273.64	48.13
273.856	33.79
274.072	84.99
274.287	-76.8
274.503	7.17
274.719	-21.5
274.934	-7.17
275.15	97.28
275.366	-19.46
275.581	-74.75
275.797	1.02
276.012	29.7
276.228	7.17
276.444	13.31
276.659	-23.55
276.875	33.79
277.09	-37.89
277.306	-13.31
277.521	-48.13
277.737	54.27
277.952	56.32
278.168	-68.61
278.383	35.84
278.599	-7.17
278.814	-11.26
279.03	-9.22
279.245	107.52
279.461	33.79
279.676	29.7
279.892	33.79
280.107	54.27
280.322	-39.94
280.538	9.22
280.753	-52.22
280.969	62.46
281.184	25.6
281.399	117.76
281.615	-84.99
281.83	-17.41
282.045	50.18
282.26	-3.07
282.476	66.56
282.691	41.98
282.906	78.85
283.122	-15.36
283.337	-29.7
283.552	62.46
283.767	-1.02
283.983	130.05
284.198	-25.6
284.413	39.94
284.628	-52.22
284.843	95.23
285.058	-35.84
285.274	21.5
285.489	1.02
285.704	-7.17
285.919	-15.36
286.134	-56.32
286.349	-44.03
286.564	-11.26
286.779	37.89
286.995	48.13
287.21	13.31
287.425	23.55
287.64	44.03
287.855	-33.79
288.07	-25.6
288.285	33.79
288.5	72.7
288.715	31.74
288.93	19.46
289.145	35.84
289.36	-1.02
289.575	117.76
289.79	7.17
290.004	46.08
290.219	52.22
290.434	-23.55
290.649	-64.51
290.864	-93.18
291.079	66.56
291.294	3.07
291.509	-60.42
291.724	-33.79
291.938	-25.6
292.153	21.5
292.368	9.22
292.583	-72.7
292.798	80.89
293.012	-7.17
293.227	17.41
293.442	19.46
293.657	-25.6
293.871	50.18
294.086	5.12
294.301	23.55
294.516	70.65
294.73	39.94
294.945	-29.7
295.16	21.5
295.374	-1.02
295.589	9.22
295.804	29.7
296.018	-3.07
296.233	54.27
296.447	64.51
296.662	-23.55
296.877	62.46
297.091	-11.26
297.306	33.79
297.52	-23.55
297.735	-19.46
297.949	9.22
298.164	-5.12
298.378	7.17
298.593	-25.6
298.807	33.79
299.022	66.56
299.236	35.84
299.451	-19.46
299.665	-21.5
299.88	-44.03
300.094	41.98
300.309	54.27
300.523	-19.46
300.737	60.42
300.952	-27.65
301.166	5.12
301.381	-25.6
301.595	-48.13
301.809	68.61
302.024	5.12
302.238	35.84
302.452	-13.31
302.667	9.22
302.881	44.03
303.095	-7.17
303.309	29.7
303.524	-48.13
303.738	-48.13
303.952	-31.74
304.166	62.46
304.381	13.31
304.595	-25.6
304.809	29.7
305.023	66.56
305.237	-23.55
305.452	17.41
305.666	15.36
305.88	17.41
306.094	-21.5
306.308	50.18
306.522	23.55
306.736	-1.02
306.95	54.27
307.164	11.26
307.379	1.02
307.593	-7.17
307.807	19.46
308.021	48.13
308.235	-31.74
308.449	64.51
308.663	13.31
308.877	46.08
309.091	-9.22
309.305	41.98
309.519	-13.31
309.733	13.31
309.947	-50.18
310.161	78.85
310.374	66.56
310.588	29.7
310.802	3.07
311.016	13.31
311.23	-60.42
311.444	-3.07
311.658	-5.12
311.872	-11.26
312.085	105.47
312.299	-46.08
312.513	33.79
312.727	-48.13
312.941	27.65
313.154	-66.56
313.368	1.02
313.582	-1.02
313.796	11.26
314.009	-5.12
314.223	29.7
314.437	46.08
314.651	39.94
314.864	-25.6
315.078	-31.74
315.292	-35.84
315.505	19.46
315.719	9.22
315.933	9.22
316.146	-9.22
316.36	-15.36
316.573	72.7
316.787	5.12
317.001	-64.51
317.214	-64.51
317.428	5.12
317.641	39.94
317.855	-1.02
318.068	-64.51
318.282	-25.6
318.495	9.22
318.709	5.12
318.922	21.5
319.136	-3.07
319.349	-13.31
319.563	-41.98
319.776	25.6
319.99	-15.36
320.203	66.56
320.417	19.46
320.63	7.17
320.843	33.79
321.057	29.7
321.27	17.41
321.483	33.79
321.697	29.7
321.91	62.46
322.124	-7.17
322.337	-9.22
322.55	7.17
322.763	19.46
322.977	23.55
323.19	68.61
323.403	-27.65
323.617	-39.94
323.83	41.98
324.043	48.13
324.256	52.22
324.469	-3.07
324.683	23.55
324.896	-11.26
325.109	-5.12
325.322	-31.74
325.535	7.17
325.748	-31.74
325.962	70.65
326.175	60.42
326.388	103.42
326.601	-23.55
326.814	27.65
327.027	23.55
327.24	54.27
327.453	15.36
327.666	-15.36
327.879	-58.37
328.092	50.18
328.305	5.12
328.518	37.89
328.731	23.55
328.944	7.17
329.157	25.6
329.37	-15.36
329.583	-9.22
329.796	7.17
330.009	-9.22
330.222	29.7
330.435	54.27
330.648	37.89
330.861	44.03
331.073	64.51
331.286	76.8
331.499	39.94
331.712	-7.17
331.925	-7.17
332.138	74.75
332.35	46.08
332.563	-11.26
332.776	13.31
332.989	-62.46
333.202	27.65
333.414	35.84
333.627	-19.46
333.84	25.6
334.053	46.08
334.265	-19.46
334.478	7.17
334.691	25.6
334.903	-89.09
335.116	29.7
335.329	-46.08
335.541	9.22
335.754	101.37
335.966	62.46
336.179	27.65
336.392	-64.51
336.604	123.9
336.817	23.55
337.029	25.6
337.242	15.36
337.454	3.07
337.667	15.36
337.88	15.36
338.092	9.22
338.305	99.33
338.517	-44.03
338.729	41.98
338.942	35.84
339.154	7.17
339.367	27.65
339.579	87.04
339.792	-3.07
340.004	78.85
340.217	-64.51
340.429	27.65
340.641	58.37
340.854	52.22
341.066	-29.7
341.278	39.94
341.491	111.61
341.703	60.42
341.915	-5.12
342.128	5.12
342.34	-33.79
342.552	64.51
342.764	-19.46
342.977	54.27
343.189	39.94
343.401	60.42
343.613	-17.41
343.826	7.17
344.038	-21.5
344.25	15.36
344.462	-52.22
344.674	52.22
344.886	44.03
345.099	9.22
345.311	107.52
345.523	1.02
345.735	52.22
345.947	9.22
346.159	-1.02
346.371	84.99
346.583	15.36
346.795	25.6
347.007	68.61
347.219	56.32
347.431	29.7
347.643	37.89
347.855	41.98
348.067	60.42
348.279	-74.75
348.491	7.17
348.703	-11.26
348.915	5.12
349.127	-1.02
349.339	70.65
349.551	11.26
349.763	31.74
349.975	-21.5
350.187	44.03
350.399	44.03
350.61	29.7
350.822	-23.55
351.034	-44.03
351.246	52.22
351.458	52.22
351.669	87.04
351.881	35.84
352.093	93.18
352.305	78.85
352.517	54.27
352.728	82.94
352.94	33.79
353.152	-1.02
353.363	-25.6
353.575	31.74
353.787	29.7
353.999	23.55
354.21	54.27
354.422	21.5
354.633	7.17
354.845	41.98
355.057	95.23
355.268	-37.89
355.48	11.26
355.692	-7.17
355.903	56.32
356.115	31.74
356.326	-29.7
356.538	52.22
356.749	-15.36
356.961	15.36
357.172	44.03
357.384	5.12
357.595	78.85
357.807	60.42
358.018	29.7
358.23	60.42
358.441	54.27
358.653	39.94
358.864	23.55
359.075	15.36
359.287	33.79
359.498	23.55
359.709	23.55
359.921	3.07
360.132	80.89
360.344	7.17
360.555	-21.5
360.766	3.07
360.977	3.07
361.189	25.6
361.4	17.41
361.611	119.81
361.823	74.75
362.034	76.8
362.245	17.41
362.456	21.5
362.667	46.08
362.879	64.51
363.09	1.02
363.301	50.18
363.512	9.22
363.723	44.03
363.935	-7.17
364.146	62.46
364.357	35.84
364.568	107.52
364.779	-93.18
364.99	44.03
365.201	15.36
365.412	15.36
365.623	-93.18
365.834	46.08
366.045	74.75
366.256	27.65
366.467	101.37
366.678	-27.65
366.889	60.42
367.1	35.84
367.311	33.79
367.522	-25.6
367.733	37.89
367.944	37.89
368.155	-5.12
368.366	-48.13
368.577	62.46
368.788	101.37
368.999	-25.6
369.209	52.22
369.42	17.41
369.631	138.24
369.842	11.26
370.053	23.55
370.264	60.42
370.474	46.08
370.685	35.84
370.896	80.89
371.107	31.74
371.317	44.03
371.528	-17.41
371.739	31.74
371.95	37.89
372.16	117.76
372.371	-29.7
372.582	11.26
372.792	66.56
373.003	117.76
373.214	58.37
373.424	87.04
373.635	9.22
373.846	-7.17
374.056	29.7
374.267	-1.02
374.477	74.75
374.688	21.5
374.898	74.75
375.109	39.94
375.319	82.94
375.53	82.94
375.74	84.99
375.951	17.41
376.161	56.32
376.372	15.36
376.582	9.22
376.793	113.66
377.003	54.27
377.214	-52.22
377.424	-15.36
377.635	87.04
377.845	25.6
378.055	56.32
378.266	17.41
378.476	-15.36
378.686	5.12
378.897	117.76
379.107	29.7
379.317	138.24
379.528	44.03
379.738	64.51
379.948	33.79
380.158	37.89
380.369	-41.98
380.579	109.57
380.789	44.03
380.999	64.51
381.21	58.37
381.42	-15.36
381.63	-7.17
381.84	99.33
382.05	-13.31
382.261	-15.36
382.471	70.65
382.681	93.18
382.891	58.37
383.101	33.79
383.311	-48.13
383.521	44.03
383.731	35.84
383.941	13.31
384.151	1.02
384.361	56.32
384.571	35.84
384.781	35.84
384.991	11.26
385.201	109.57
385.411	91.13
385.621	87.04
385.831	35.84
386.041	48.13
386.251	13.31
386.461	121.85
386.671	91.13
386.881	19.46
387.091	13.31
387.301	158.72
387.511	29.7
387.72	50.18
387.93	91.13
388.14	25.6
388.35	23.55
388.56	13.31
388.769	125.95
388.979	31.74
389.189	46.08
389.399	-9.22
389.609	11.26
389.818	19.46
390.028	39.94
390.238	101.37
390.447	105.47
390.657	-7.17
390.867	58.37
391.076	39.94
391.286	31.74
391.496	-3.07
391.705	50.18
391.915	78.85
392.125	62.46
392.334	113.66
392.544	5.12
392.753	7.17
392.963	41.98
393.172	50.18
393.382	7.17
393.591	99.33
393.801	33.79
394.01	13.31
394.22	31.74
394.429	95.23
394.639	46.08
394.848	78.85
395.058	76.8
395.267	95.23
395.477	52.22
395.686	25.6
395.895	31.74
396.105	107.52
396.314	76.8
396.524	3.07
396.733	62.46
396.942	84.99
397.152	70.65
397.361	99.33
397.57	68.61
397.78	125.95
397.989	25.6
398.198	125.95
398.407	89.09
398.617	25.6
398.826	115.71
399.035	39.94
399.244	54.27
399.453	39.94
399.663	113.66
399.872	130.05
400.081	99.33
400.29	152.57
400.499	87.04
400.708	201.72
400.917	91.13
401.127	82.94
401.336	183.29
401.545	132.09
401.754	171.01
401.963	82.94
402.172	99.33
402.381	84.99
402.59	132.09
402.799	99.33
403.008	78.85
403.217	154.62
403.426	72.7
403.635	134.14
403.844	74.75
404.053	121.85
404.262	13.31
404.471	201.72
404.68	89.09
404.888	103.42
405.097	109.57
405.306	89.09
405.515	175.1
405.724	121.85
405.933	125.95
406.142	220.16
406.35	130.05
406.559	191.49
406.768	136.19
406.977	197.63
407.185	236.54
407.394	140.29
407.603	224.25
407.812	109.57
408.02	218.11
408.229	273.4
408.438	232.44
408.646	269.31
408.855	211.96
409.064	222.2
409.272	277.5
409.481	295.93
409.69	322.56
409.898	263.16
410.107	293.88
410.315	304.12
410.524	304.12
410.733	293.88
410.941	336.89
411.15	340.99
411.358	367.61
411.567	429.05
411.775	334.84
411.984	326.65
412.192	517.11
412.401	424.95
412.609	517.11
412.818	578.55
413.026	508.92
413.234	517.11
413.443	513.02
413.651	564.22
413.86	619.51
414.068	539.64
414.276	689.14
414.485	627.7
414.693	697.33
414.901	732.15
415.11	756.72
415.318	732.15
415.526	707.57
415.734	820.21
415.943	809.97
416.151	865.27
416.359	840.69
416.567	930.8
416.776	947.19
416.984	1045.49
417.192	963.57
417.4	1039.34
417.608	994.29
417.817	1123.31
418.025	1055.73
418.233	1254.38
418.441	1244.14
418.649	1315.82
418.857	1379.31
419.065	1362.92
419.273	1403.88
419.481	1453.03
419.689	1512.42
419.897	1537
420.105	1549.29
420.313	1659.88
420.521	1641.45
420.729	1684.45
420.937	1788.9
421.145	1899.49
421.353	1989.6
421.561	1979.36
421.769	2098.14
421.977	2175.97
422.185	2157.54
422.393	2345.95
422.601	2364.38
422.809	2356.19
423.017	2368.48
423.224	2397.15
423.432	2569.18
423.64	2661.34
423.848	2874.32
424.056	2876.37
424.263	2888.66
424.471	3036.11
424.679	3150.8
424.887	3345.36
425.094	3449.8
425.302	3380.17
425.51	3566.54
425.718	3752.9
425.925	3734.47
426.133	3744.71
426.341	3982.28
426.548	4080.58
426.756	4221.89
426.964	4103.11
427.171	4443.07
427.379	4580.28
427.586	4711.35
427.794	4676.54
428.001	5112.75
428.209	5266.35
428.417	5215.15
428.624	5671.85
428.832	5581.74
429.039	5481.39
429.247	5647.27
429.454	6087.59
429.662	6372.25
429.869	6118.31
430.076	6540.19
430.284	6278.05
430.491	6581.15
430.699	6964.12
430.906	6865.82
431.114	6953.88
431.321	7398.29
431.528	7406.48
431.736	8027.01
431.943	8387.46
432.15	7965.57
432.358	8119.17
432.565	8541.05
432.772	8741.75
432.979	9042.81
433.187	9118.58
433.394	9294.71
433.601	9909.1
433.808	9913.19
434.016	9755.5
434.223	10224.48
434.43	10924.89
434.637	10478.43
434.844	11285.33
435.052	11785.04
435.259	11518.8
435.466	11701.07
435.673	11621.2
435.88	12200.77
436.087	12798.78
436.294	12882.75
436.501	12675.9
436.708	12962.62
436.915	13402.93
437.122	13947.69
437.329	13978.41
437.537	14398.24
437.743	14662.43
437.95	14621.47
438.157	15155.99
438.364	15629.07
438.571	15555.35
438.778	15854.35
438.985	17259.26
439.192	16487.17
439.399	17318.65
439.606	16909.05
439.813	17992.43
440.02	18758.37
440.227	18229.99
440.433	18160.36
440.64	18979.55
440.847	19100.38
441.054	19235.55
441.261	20662.98
441.467	20189.9
441.674	20759.24
441.881	21465.78
442.088	21238.46
442.294	21263.04
442.501	21750.45
442.708	22237.87
442.914	23214.75
443.121	23909.01
443.328	23437.98
443.534	25162.37
443.741	24543.88
443.948	24210.06
444.154	25856.63
444.361	25533.05
444.568	26139.25
444.774	25963.12
444.981	26190.45
445.187	27032.16
445.394	28084.82
445.6	27918.93
445.807	30327.35
446.013	29426.24
446.22	29911.61
446.426	30939.69
446.633	30990.89
446.839	31988.25
447.046	30933.54
447.252	32754.19
447.459	32850.44
447.665	32565.78
447.871	34279.92
448.078	35310.05
448.284	33901.05
448.491	34642.42
448.697	36119
448.903	36628.95
449.11	36829.65
449.316	36364.76
449.522	37009.87
449.728	37970.36
449.935	38138.3
450.141	38101.43
450.347	39225.77
450.553	37841.34
450.76	38351.29
450.966	39569.83
451.172	39225.77
451.378	40008.09
451.584	39319.98
451.791	40425.88
451.997	40425.88
452.203	41152.91
452.409	41107.85
452.615	40542.61
452.821	39039.4
453.027	38736.3
453.233	41019.79
453.44	39209.39
453.646	39770.53
453.852	39719.33
454.058	40427.93
454.264	39512.49
454.47	39997.85
454.676	39254.44
454.882	40550.81
455.088	37138.89
455.294	37466.56
455.5	38150.59
455.705	38912.43
455.911	37026.25
456.117	36508.11
456.323	36028.89
456.529	34038.26
456.735	35598.82
456.941	34540.02
457.147	34062.84
457.352	33071.62
457.558	32614.93
457.764	32840.2
457.97	31900.19
458.176	31674.91
458.381	31613.47
458.587	29727.29
458.793	29598.27
458.999	28531.28
459.204	30014.01
459.41	29620.8
459.616	27841.11
459.821	27558.49
460.027	27257.44
460.233	27017.83
460.438	25844.34
460.644	25885.3
460.85	25070.21
461.055	24345.23
461.261	24464.01
461.466	22805.16
461.672	21871.28
461.878	23409.31
462.083	21789.36
462.289	21672.63
462.494	21148.35
462.7	20308.68
462.905	19815.12
463.111	20581.06
463.316	20708.04
463.522	20007.63
463.727	20327.11
463.932	19907.28
464.138	19905.23
464.343	19952.34
464.549	19460.82
464.754	20085.45
464.959	19831.51
465.165	19505.88
465.37	19077.85
465.575	18660.07
465.781	19303.13
465.986	19323.61
466.191	18690.79
466.397	18107.12
466.602	17216.25
466.807	18129.64
467.012	17957.61
467.218	17857.26
467.423	17701.62
467.628	17871.6
467.833	18461.41
468.038	17904.37
468.244	17367.8
468.449	18072.3
468.654	17404.66
468.859	17404.66
469.064	17115.9
469.269	16577.28
469.474	16456.45
469.679	17062.65
469.885	16233.22
470.09	16884.48
470.295	16638.72
470.5	16311.05
470.705	16294.66
470.91	16091.91
471.115	15852.3
471.32	16163.59
471.525	16061.19
471.73	15596.31
471.935	15581.97
472.139	14938.91
472.344	15475.48
472.549	15196.95
472.754	14924.57
472.959	14373.67
473.164	14191.4
473.369	14222.12
473.574	14648.1
473.778	14519.07
473.983	14560.03
474.188	14570.27
474.393	13806.38
474.598	13761.33
474.802	13607.73
475.007	13386.55
475.212	13626.16
475.417	13093.69
475.621	13136.7
475.826	13173.56
476.031	12866.36
476.235	12622.66
476.44	12876.6
476.645	12403.52
476.849	12735.29
477.054	12200.77
477.259	12090.18
477.463	12249.93
477.668	12030.79
477.872	12047.18
478.077	11891.53
478.282	11565.9
478.486	11666.25
478.691	11338.58
478.895	11563.86
479.1	11483.98
479.304	11074.39
479.509	10982.23
479.713	11227.99
479.918	11105.11
480.122	10865.5
480.326	11051.86
480.531	10885.98
480.735	11017.05
480.94	10881.88
481.144	11084.63
481.348	10412.9
481.553	10750.81
481.757	10519.39
481.961	10711.9
482.166	10650.46
482.37	10687.32
482.574	10394.47
482.778	10664.8
482.983	10543.97
483.187	10566.49
483.391	10750.81
483.595	10621.79
483.8	10441.57
484.004	10521.44
484.208	10685.28
484.412	10437.47
484.616	10591.07
484.821	10451.81
485.025	10634.08
485.229	10664.8
485.433	10339.17
485.637	10412.9
485.841	10378.08
486.045	10607.45
486.249	10455.9
486.453	10425.18
486.657	10476.38
486.861	10468.19
487.065	10183.52
487.269	10543.97
487.473	10431.33
487.677	10672.99
487.881	10675.04
488.085	10562.4
488.289	10654.56
488.493	10357.6
488.697	10611.55
488.901	10445.66
489.105	10693.47
489.309	10406.75
489.512	10761.05
489.716	10662.75
489.92	10664.8
490.124	10855.26
490.328	10978.14
490.531	10789.72
490.735	10926.94
490.939	10890.07
491.143	10697.56
491.346	10797.92
491.55	11146.07
491.754	11086.68
491.958	10992.47
492.161	11062.1
492.365	11139.93
492.569	11242.32
492.772	11047.77
492.976	11326.29
493.18	11271
493.383	11379.54
493.587	11721.55
493.79	11735.88
493.994	11694.93
494.197	11785.04
494.401	11850.57
494.605	11877.19
494.808	11901.77
495.012	11914.06
495.215	11795.28
495.419	12192.58
495.622	12073.8
495.825	12499.78
496.029	12206.92
496.232	12688.19
496.436	12419.91
496.639	12927.8
496.843	12796.73
497.046	12972.86
497.249	12950.33
497.453	13253.43
497.656	13548.34
497.859	13312.82
498.063	13417.27
498.266	13867.82
498.469	13794.09
498.673	13818.67
498.876	14033.71
499.079	14052.14
499.282	14043.95
499.485	14705.44
499.689	14566.18
499.892	14748.45
500.095	14943
500.298	15164.18
500.501	14979.87
500.705	15299.35
500.908	15553.3
501.111	15825.68
501.314	15932.17
501.517	16040.72
501.72	16159.5
501.923	16218.89
502.126	16716.54
502.329	16937.73
502.532	16884.48
502.735	16954.11
502.938	17259.26
503.141	17353.46
503.344	17851.12
503.547	17576.69
503.75	17791.73
503.953	18295.53
504.156	18572
504.359	18334.44
504.562	18631.4
504.765	19247.83
504.968	19157.72
505.17	19442.39
505.373	19430.1
505.576	20005.58
505.779	19972.82
505.982	19999.44
506.185	20396.74
506.387	20626.12
506.59	20916.93
506.793	21056.19
506.996	21105.34
507.198	21713.59
507.401	21764.79
507.604	22205.1
507.807	22373.03
508.009	22338.22
508.212	22723.24
508.415	22956.71
508.617	22993.57
508.82	23284.38
509.022	23063.2
509.225	23734.93
509.428	23657.11
509.63	24015.51
509.833	24244.88
510.035	24900.23
510.238	24480.39
510.44	25012.87
510.643	25289.34
510.845	25631.35
511.048	25475.71
511.25	25811.57
511.453	25782.9
511.655	26931.81
511.858	26940
512.06	27001.44
512.262	27030.12
512.465	26780.26
512.667	27304.54
512.87	27796.06
513.072	28074.58
513.274	28371.54
513.477	28691.02
513.679	28797.51
513.881	28830.28
514.084	29125.19
514.286	29821.5
514.488	29850.17
514.69	30601.77
514.893	30251.57
515.095	30652.97
515.297	30734.89
515.499	30947.88
515.701	31418.91
515.904	31609.37
516.106	31754.78
516.308	31928.86
516.51	32240.15
516.712	32674.32
516.914	32997.9
517.116	33280.52
517.318	33264.13
517.52	33833.47
517.722	33661.44
517.925	34361.84
518.127	34699.76
518.329	34443.76
518.531	34517.49
518.733	35148.26
518.935	35338.72
519.136	35643.87
519.338	36004.31
519.54	36172.25
519.742	36366.81
519.944	36651.47
520.146	37016.01
520.348	37300.68
520.55	37663.17
520.752	37697.98
520.954	38066.62
521.155	37956.03
521.357	38408.63
521.559	38705.59
521.761	39006.64
521.963	38871.47
522.164	39430.57
522.366	39592.36
522.568	39698.85
522.77	39917.98
522.971	40475.03
523.173	40331.67
523.375	40636.82
523.576	40814.99
523.778	40624.53
523.98	41234.83
524.181	41159.05
524.383	41746.82
524.584	42133.89
524.786	41918.85
524.988	42123.65
525.189	42666.36
525.391	42701.17
525.592	42701.17
525.794	42836.34
525.995	42867.06
526.197	43237.74
526.398	43039.09
526.6	43659.62
526.801	43512.17
527.003	43172.21
527.204	43596.13
527.406	44026.21
527.607	44327.26
527.808	44790.1
528.01	43884.9
528.211	44046.69
528.412	45023.57
528.614	44691.8
528.815	45154.64
529.016	45003.09
529.218	45105.49
529.419	45250.89
529.62	45175.12
529.822	45076.82
530.023	45193.55
530.224	45310.28
530.425	45099.34
530.626	44917.07
530.828	45228.37
531.029	46047.55
531.23	45476.17
531.431	45523.27
531.632	45838.66
531.833	45625.67
532.035	45504.84
532.236	45867.33
532.437	45928.77
532.638	45859.14
532.839	45908.29
533.04	46475.58
533.241	46117.18
533.442	46158.14
533.643	46002.5
533.844	46027.07
534.045	46147.9
534.246	45656.39
534.447	46430.52
534.648	45932.87
534.849	46141.76
535.05	45609.29
535.251	46149.95
535.451	46162.24
535.652	46444.86
535.853	46268.73
536.054	46250.3
536.255	46266.69
536.456	45838.66
536.657	46872.88
536.857	46291.26
537.058	46037.31
537.259	46281.02
537.46	46299.45
537.66	46195.01
537.861	46033.22
538.062	45945.15
538.263	46457.15
538.463	46158.14
538.664	45990.21
538.865	46545.21
539.065	46455.1
539.266	45850.95
539.466	46838.07
539.667	45742.41
539.868	46762.29
540.068	46145.86
540.269	46043.46
540.469	46266.69
540.67	46266.69
540.87	46160.19
541.071	46256.45
541.271	46428.48
541.472	45871.43
541.672	46154.05
541.873	46147.9
542.073	45699.4
542.274	46039.36
542.474	46010.69
542.675	45889.86
542.875	46465.34
543.075	46047.55
543.276	45341
543.476	46577.98
543.676	46125.38
543.877	46195.01
544.077	46010.69
544.277	45787.46
544.478	46154.05
544.678	46162.24
544.878	45969.73
545.078	46211.39
545.279	45932.87
545.479	45723.97
545.679	46055.75
545.879	45717.83
546.079	45764.93
546.28	45853
546.48	45082.96
546.68	46190.91
546.88	45551.94
547.08	45801.8
547.28	45588.81
547.48	45220.17
547.68	45805.89
547.88	45470.03
548.081	45818.18
548.281	45775.17
548.481	45492.55
548.681	46039.36
548.881	45818.18
549.081	45750.6
549.28	45218.13
549.48	46065.99
549.68	45220.17
549.88	46039.36
550.08	45814.08
550.28	46119.23
550.48	45619.53
550.68	46170.43
550.88	45365.58
551.08	45785.41
551.279	45830.47
551.479	45408.59
551.679	45529.42
551.879	45756.74
552.079	45582.66
552.278	45424.97
552.478	45654.34
552.678	45275.47
552.878	45564.23
553.077	45609.29
553.277	45234.51
553.477	45826.37
553.676	45015.38
553.876	45408.59
554.076	45183.31
554.275	45531.47
554.475	44904.79
554.674	45429.07
554.874	45373.77
555.074	45394.25
555.273	45451.59
555.473	45345.1
555.672	45281.61
555.872	44900.69
556.071	44945.75
556.271	45281.61
556.47	44798.29
556.67	44548.44
556.869	45039.95
557.068	45300.04
557.268	44927.31
557.467	44675.41
557.667	45064.53
557.866	44757.33
558.065	44859.73
558.265	44722.52
558.464	44585.3
558.663	44726.61
558.863	44171.61
559.062	44906.83
559.261	44151.13
559.461	44583.26
559.66	43968.87
559.859	44228.96
560.058	44005.73
560.258	44464.47
560.457	43481.45
560.656	44503.38
560.855	44052.83
561.054	43993.44
561.253	43909.47
561.453	44032.35
561.652	43854.18
561.851	43932
562.05	43794.79
562.249	43952.48
562.448	44075.36
562.647	44112.22
562.846	43567.46
563.045	43565.42
563.244	43360.62
563.443	43925.86
563.642	43286.89
563.841	43716.96
564.04	43153.77
564.239	43538.79
564.438	43067.76
564.637	43561.32
564.836	43342.19
565.035	42965.36
565.234	43065.71
565.432	42953.07
565.631	42717.56
565.83	42817.91
566.029	42733.94
566.228	42873.2
566.427	42684.79
566.625	42742.13
566.824	42439.03
567.023	42688.88
567.222	41982.34
567.42	42701.17
567.619	42285.43
567.818	42527.1
568.016	42185.08
568.215	42748.28
568.414	42281.34
568.612	42047.87
568.811	41578.89
569.01	41818.5
569.208	41333.13
569.407	41660.8
569.605	41544.07
569.804	42203.52
570.002	41286.03
570.201	41445.77
570.4	41386.38
570.598	41253.26
570.797	41470.34
570.995	41079.18
571.193	40780.18
571.392	40825.23
571.59	40540.57
571.789	40636.82
571.987	40776.08
572.186	40507.8
572.384	40413.59
572.582	40507.8
572.781	40587.67
572.979	40210.84
573.177	40532.37
573.376	40315.29
573.574	40214.94
573.772	40538.52
573.971	40206.75
574.169	39997.85
574.367	39743.91
574.565	39889.31
574.763	39543.2
574.962	39866.78
575.16	39532.96
575.358	39805.34
575.556	39170.47
575.754	39532.96
575.952	38805.94
576.151	39776.67
576.349	38857.14
576.547	38908.33
576.745	39102.89
576.943	38828.46
577.141	38322.62
577.339	39352.74
577.537	38695.35
577.735	38789.55
577.933	38228.41
578.131	38314.42
578.329	38402.49
578.527	38052.28
578.725	38009.28
578.923	38629.81
579.121	38214.07
579.319	38017.47
579.516	38322.62
579.714	38052.28
579.912	37790.14
580.11	37659.07
580.308	37839.29
580.506	37630.4
580.704	36874.7
580.901	37564.87
581.099	37138.89
581.297	37652.93
581.495	36966.86
581.692	37446.08
581.89	36721.1
582.088	37382.6
582.285	36921.8
582.483	36950.48
582.681	36516.31
582.878	36694.48
583.076	36336.09
583.274	36831.69
583.471	36270.55
583.669	36370.9
583.866	36278.74
584.064	36891.09
584.262	35981.79
584.459	35996.12
584.657	35680.74
584.854	36299.22
585.052	35441.12
585.249	35488.23
585.447	35437.03
585.644	35359.2
585.841	35785.18
586.039	35926.49
586.236	35316.2
586.434	35299.81
586.631	35289.57
586.828	34996.71
587.026	34796.01
587.223	35060.2
587.42	34859.5
587.618	34357.75
587.815	34472.43
588.012	34400.76
588.21	34429.43
588.407	34322.93
588.604	34034.17
588.801	34122.23
588.999	33966.59
589.196	33944.06
589.393	34044.41
589.59	33817.08
589.787	33868.28
589.984	33757.69
590.182	33354.24
590.379	33741.31
590.576	33587.71
590.773	33477.12
590.97	33122.82
591.167	33550.85
591.364	32659.98
591.561	32928.27
591.758	32815.63
591.955	32795.15
592.152	33212.93
592.349	32680.46
592.546	32494.1
592.743	32686.61
592.94	32080.41
593.137	32791.05
593.334	32500.24
593.531	32037.4
593.727	32360.98
593.924	31932.95
594.121	31576.61
594.318	32184.85
594.515	31461.92
594.712	32307.73
594.908	31783.45
595.105	31904.28
595.302	31365.67
595.499	31216.16
595.696	31320.61
595.892	31091.24
596.089	31355.43
596.286	31341.09
596.482	30804.52
596.679	31040.04
596.876	30859.82
597.072	30812.71
597.269	30503.47
597.466	30347.82
597.662	30558.77
597.859	30212.66
598.055	30591.53
598.252	30206.52
598.448	30169.65
598.645	30097.97
598.841	29442.62
599.038	30061.11
599.234	29807.16
599.431	29631.04
599.627	29815.35
599.824	29758.01
600.02	29555.26
600.217	29192.77
600.413	29424.19
600.609	29016.65
600.806	29278.79
601.002	29135.43
601.198	29028.93
601.395	28908.1
601.591	29022.79
601.787	28879.43
601.984	28670.54
602.18	28967.49
602.376	28598.86
602.572	28457.55
602.769	28207.7
602.965	28023.38
603.161	28283.47
603.357	28324.43
603.553	27912.79
603.75	28328.53
603.946	27796.06
604.142	28078.68
604.338	27681.37
604.534	27751
604.73	27589.21
604.926	27771.48
605.122	27497.05
605.318	27019.88
605.514	27097.7
605.71	26935.91
605.906	27247.2
606.102	26962.53
606.298	26907.24
606.494	26911.33
606.69	27202.14
606.886	27007.59
607.082	26636.91
607.278	26772.07
607.474	26157.68
607.67	26810.98
607.866	26008.18
608.062	26600.04
608.257	26258.03
608.453	26677.86
608.649	26436.2
608.845	26221.17
609.041	26145.39
609.236	26305.13
609.432	26243.7
609.628	26137.2
609.824	26083.95
610.019	26065.52
610.215	26016.37
610.411	25901.68
610.606	25672.31
610.802	25997.94
610.998	25676.41
611.193	25911.92
611.389	25404.03
611.584	25469.56
611.78	25569.91
611.976	25531
612.171	25584.25
612.367	25406.08
612.562	25531
612.758	25051.78
612.953	25053.83
613.149	25299.58
613.344	25303.68
613.539	25318.01
613.735	25086.59
613.93	25367.16
614.126	25059.97
614.321	25285.25
614.517	24869.51
614.712	24912.52
614.907	24709.77
615.103	24920.71
615.298	24769.16
615.493	25000.58
615.688	24355.47
615.884	25086.59
616.079	24509.07
616.274	24861.32
616.47	24484.49
616.665	24466.06
616.86	24337.04
617.055	24412.81
617.25	24400.52
617.445	24644.23
617.641	23814.8
617.836	24427.15
618.031	23868.05
618.226	24277.65
618.421	24101.52
618.616	24244.88
618.811	23902.87
619.006	24152.72
619.201	23311
619.396	23710.36
619.591	23423.64
619.786	23661.21
619.981	23304.86
620.176	23505.56
620.371	22930.08
620.566	23347.87
620.761	22813.35
620.956	23284.38
621.151	22577.83
621.346	23165.6
621.541	22327.98
621.735	22885.03
621.93	22231.72
622.125	22340.27
622.32	21938.87
622.515	22301.36
622.709	21885.62
622.904	21926.58
623.099	21883.57
623.294	21670.58
623.488	21584.57
623.683	21779.12
623.878	21209.79
624.072	21639.86
624.267	21293.76
624.462	21392.06
624.656	20753.09
624.851	20941.5
625.046	20482.76
625.24	20609.73
625.435	20421.32
625.629	20112.08
625.824	20363.98
626.018	20308.68
626.213	19995.34
626.407	20142.8
626.602	19751.63
626.796	19946.19
626.991	19909.33
627.185	19731.15
627.38	19567.32
627.574	19426.01
627.768	19176.16
627.963	19253.98
628.157	19016.41
628.352	19129.05
628.546	18631.4
628.74	18864.86
628.935	18637.54
629.129	18864.86
629.323	18363.11
629.517	18209.51
629.712	18760.42
629.906	18399.98
630.1	18062.06
630.294	18291.43
630.489	18084.59
630.683	17943.28
630.877	17713.91
631.071	17656.56
631.265	17904.37
631.459	17451.77
631.653	17308.41
631.848	17279.74
632.042	17187.58
632.236	17373.94
632.43	16966.4
632.624	17173.24
632.818	16894.72
633.012	16472.84
633.206	16552.71
633.4	16775.94
633.594	16573.19
633.788	16370.44
633.982	16552.71
634.176	16319.24
634.369	15964.94
634.563	16104.2
634.757	16075.53
634.951	16108.3
635.145	15954.7
635.339	15866.64
635.533	15647.51
635.726	15844.11
635.92	15479.57
636.114	15604.5
636.308	15657.75
636.501	15526.68
636.695	15227.67
636.889	15272.73
637.083	14906.14
637.276	15293.21
637.47	15074.07
637.664	14863.13
637.857	15020.83
638.051	14736.16
638.244	14699.3
638.438	14689.06
638.632	14746.4
638.825	14365.48
639.019	14443.3
639.212	14422.82
639.406	14445.35
639.599	14039.85
639.793	14080.81
639.986	13912.88
640.18	13988.65
640.373	13849.39
640.567	14009.13
640.76	13839.15
640.954	13552.43
641.147	13556.53
641.34	13550.39
641.534	13562.67
641.727	13488.95
641.92	13587.25
642.114	13146.94
642.307	13290.29
642.5	13235
642.694	12960.57
642.887	13046.58
643.08	13085.5
643.273	12784.44
643.467	12886.84
643.66	12639.04
643.853	12864.32
644.046	12688.19
644.239	12624.7
644.432	12460.87
644.626	12376.9
644.819	12247.88
645.012	12329.8
645.205	12286.79
645.398	12309.32
645.591	12231.49
645.784	11995.98
645.977	11973.45
646.17	12133.19
646.363	11727.69
646.556	11680.59
646.749	11803.47
646.942	11918.15
647.135	11686.73
647.328	11756.36
647.521	11584.34
647.714	11371.35
647.907	11414.35
648.099	11326.29
648.292	11361.11
648.485	11160.41
648.678	11170.65
648.871	11348.82
649.064	10965.85
649.256	11121.49
649.449	11150.17
649.642	11025.24
649.835	10812.25
650.027	10953.56
650.22	10644.32
650.413	10775.39
650.605	10636.13
650.798	10449.76
650.991	10574.69
651.183	10500.96
651.376	10359.65
651.568	10595.17
651.761	10369.89
651.954	10584.93
652.146	10376.03
652.339	10111.85
652.531	10273.64
652.724	10171.24
652.916	10113.89
653.109	9970.54
653.301	10111.85
653.494	9841.51
653.686	9726.83
653.879	9716.59
654.071	9661.29
654.263	9642.86
654.456	9657.2
654.648	9782.12
654.84	9519.98
655.033	9425.78
655.225	9505.65
655.417	9261.94
655.61	9487.22
655.802	9354.1
655.994	9202.55
656.186	9343.86
656.379	9208.69
656.571	9106.29
656.763	9012.09
656.955	9055.09
657.148	9302.9
657.34	9087.86
657.532	8917.88
657.724	8833.91
657.916	8932.22
658.108	8743.8
658.3	8657.79
658.492	8637.31
658.684	8604.54
658.876	8579.97
659.068	8489.85
659.26	8610.68
659.452	8584.06
659.644	8418.18
659.836	8340.35
660.028	8377.22
660.22	8231.81
660.412	8289.15
660.604	8188.8
660.796	8272.77
660.988	8164.23
661.18	8098.69
661.372	7975.81
661.563	8104.84
661.755	7785.35
661.947	8125.32
662.139	7682.95
662.331	7832.46
662.522	7857.03
662.714	7945.09
662.906	7627.66
663.097	7611.28
663.289	7781.26
663.481	7629.71
663.673	7553.93
663.864	7406.48
664.056	7472.01
664.247	7429.01
664.439	7246.74
664.631	7459.73
664.822	7299.98
665.014	7402.38
665.205	7304.08
665.397	7256.98
665.588	7216.02
665.78	7168.91
665.971	7089.04
666.163	7263.12
666.354	7095.19
666.546	7152.53
666.737	6878.1
666.929	7013.27
667.12	6898.58
667.311	6914.97
667.503	6878.1
667.694	6962.07
667.885	6673.31
668.077	6843.29
668.268	6570.91
668.459	6654.87
668.651	6620.06
668.842	6474.65
669.033	6716.31
669.224	6499.23
669.416	6505.37
669.607	6409.12
669.798	6427.55
669.989	6525.85
670.18	6392.73
670.371	6394.78
670.563	6396.83
670.754	6286.24
670.945	6402.97
671.136	6411.17
671.327	6265.76
671.518	6278.05
671.709	6204.32
671.9	6065.06
672.091	6173.6
672.282	6114.21
672.473	6146.98
672.664	6058.92
672.855	6101.92
673.046	6056.87
673.237	6126.5
673.428	5972.9
673.619	5946.28
673.809	6013.86
674	5985.19
674.191	5888.93
674.382	5815.21
674.573	6065.06
674.764	5778.34
674.954	5895.08
675.145	5847.97
675.336	5628.84
675.527	5675.95
675.717	5766.06
675.908	5643.18
676.099	5782.44
676.289	5624.75
676.48	5430.19
676.671	5573.55
676.861	5692.33
677.052	5422
677.243	5499.82
677.433	5571.5
677.624	5409.71
677.814	5567.4
678.005	5512.11
678.195	5475.24
678.386	5485.48
678.576	5307.31
678.767	5352.37
678.957	5348.27
679.148	5422
679.338	5338.03
679.529	5295.02
679.719	5254.06
679.909	5262.26
680.1	5297.07
680.29	5378.99
680.481	5284.78
680.671	5465
680.861	5006.26
681.052	5252.02
681.242	5223.34
681.432	5137.33
681.622	5018.55
681.813	5020.6
682.003	5071.79
682.193	5032.88
682.383	4948.92
682.573	5100.47
682.764	5073.84
682.954	4963.25
683.144	4950.96
683.334	4852.66
683.524	4973.49
683.714	4957.11
683.904	5004.21
684.094	4807.61
684.284	5000.12
684.474	4879.29
684.664	4830.13
684.854	4719.54
685.044	4721.59
685.234	4842.42
685.424	4690.87
685.614	4883.38
685.804	4727.74
685.994	4764.6
686.184	4746.17
686.374	4703.16
686.564	4654.01
686.753	4719.54
686.943	4701.11
687.133	4688.82
687.323	4608.95
687.513	4574.14
687.702	4434.88
687.892	4398.01
688.082	4459.45
688.272	4377.53
688.461	4344.77
688.651	4457.4
688.841	4264.89
689.03	4301.76
689.22	4324.29
689.41	4324.29
689.599	4314.05
689.789	4215.74
689.979	4264.89
690.168	4266.94
690.358	4314.05
690.547	4166.59
690.737	4328.38
690.926	4248.51
691.116	4064.19
691.305	4185.02
691.495	4129.73
691.684	4015.04
691.874	4111.3
692.063	4123.59
692.252	4092.87
692.442	3965.89
692.631	3863.49
692.82	4008.9
693.01	3937.22
693.199	3908.55
693.388	3867.59
693.578	3802.05
693.767	3834.82
693.956	3789.77
694.146	3726.28
694.335	3679.18
694.524	3742.66
694.713	3752.9
694.902	3804.1
695.092	3685.32
695.281	3718.09
695.47	3830.73
695.659	3593.16
695.848	3558.35
696.037	3740.61
696.226	3716.04
696.415	3591.11
696.604	3572.68
696.793	3615.69
696.982	3648.46
697.171	3648.46
697.36	3642.31
697.549	3472.33
697.738	3595.21
697.927	3445.71
698.116	3619.78
698.305	3406.8
698.494	3443.66
698.683	3470.28
698.872	3470.28
699.061	3449.8
699.25	3382.22
699.438	3376.08
699.627	3525.58
699.816	3386.32
700.005	3431.37
700.193	3443.66
700.382	3351.5
700.571	3380.17
700.76	3400.65
700.948	3378.12
701.137	3304.4
701.326	3240.91
701.514	3290.06
701.703	3308.49
701.892	3322.83
702.08	3378.12
702.269	3380.17
702.457	3179.47
702.646	3314.64
702.834	3269.58
703.023	3367.88
703.212	3349.45
703.4	3339.21
703.589	3312.59
703.777	3341.26
703.965	3214.29
704.154	3251.15
704.342	3195.86
704.531	3228.62
704.719	3206.1
704.907	3253.2
705.096	3140.56
705.284	3179.47
705.472	3167.18
705.661	3204.05
705.849	3169.23
706.037	3169.23
706.226	3167.18
706.414	3134.42
706.602	3070.93
706.79	3154.9
706.979	3179.47
707.167	3193.81
707.355	3023.83
707.543	3144.66
707.731	3021.78
707.919	3185.62
708.107	3091.41
708.296	3079.12
708.484	3054.55
708.672	3140.56
708.86	3169.23
709.048	3212.24
709.236	3124.18
709.424	3075.03
709.612	3183.57
709.8	3085.26
709.988	2958.29
710.176	3185.62
710.364	3115.98
710.551	3154.9
710.739	3060.69
710.927	3044.31
711.115	3101.65
711.303	3120.08
711.491	2943.96
711.679	3070.93
711.866	3068.88
712.054	3124.18
712.242	3060.69
712.43	3060.69
712.617	2872.28
712.805	3066.83
712.993	3072.98
713.181	2950.1
713.368	3048.4
713.556	3054.55
713.744	2882.52
713.931	3040.21
714.119	2849.75
714.306	3017.68
714.494	3066.83
714.682	2927.57
714.869	2984.91
715.057	3044.31
715.244	2827.22
715.432	3029.97
715.619	2859.99
715.807	2878.42
715.994	3027.92
716.182	3003.35
716.369	2968.53
716.556	3077.07
716.744	2970.58
716.931	2993.11
717.119	2952.15
717.306	2884.56
717.493	2898.9
717.681	2896.85
717.868	3023.83
718.055	2923.48
718.242	2950.1
718.43	2905.04
718.617	2913.24
718.804	2970.58
718.991	2896.85
719.179	2952.15
719.366	2896.85
719.553	2995.15
719.74	2946
719.927	2825.17
720.114	2948.05
720.301	2966.48
720.488	2921.43
720.676	2999.25
720.863	3011.54
721.05	3050.45
721.237	3009.49
721.424	2905.04
721.611	2935.76
721.798	2778.07
721.985	2745.3
722.172	2964.43
722.358	2882.52
722.545	2974.67
722.732	2771.93
722.919	2929.62
723.106	2851.8
723.293	2946
723.48	2843.6
723.667	2780.12
723.853	2905.04
724.04	2882.52
724.227	2851.8
724.414	2892.76
724.6	2892.76
724.787	2792.41
724.974	2808.79
725.161	2898.9
725.347	2968.53
725.534	2816.98
725.72	2880.47
725.907	2823.12
726.094	2913.24
726.28	2782.17
726.467	2804.69
726.653	2814.93
726.84	2792.41
727.027	2892.76
727.213	2823.12
727.4	2743.25
727.586	2851.8
727.773	2827.22
727.959	2915.28
728.145	2728.92
728.332	2894.8
728.518	2808.79
728.705	2741.21
728.891	2784.21
729.077	2849.75
729.264	2841.56
729.45	2841.56
729.636	2771.93
729.823	2790.36
730.009	2710.49
730.195	2784.21
730.382	2892.76
730.568	2790.36
730.754	2757.59
730.94	2712.53
731.126	2790.36
731.313	2702.29
731.499	2743.25
731.685	2745.3
731.871	2800.6
732.057	2765.78
732.243	2866.13
732.429	2773.97
732.615	2853.84
732.801	2788.31
732.987	2712.53
733.173	2720.73
733.359	2784.21
733.545	2831.32
733.731	2788.31
733.917	2915.28
734.103	2819.03
734.289	2638.81
734.475	2642.9
734.661	2773.97
734.847	2823.12
735.033	2812.89
735.219	2747.35
735.404	2745.3
735.59	2696.15
735.776	2554.84
735.962	2628.57
736.148	2798.55
736.333	2712.53
736.519	2685.91
736.705	2573.27
736.89	2653.14
737.076	2722.77
737.262	2552.79
737.447	2673.62
737.633	2595.8
737.819	2724.82
738.004	2710.49
738.19	2743.25
738.375	2577.37
738.561	2669.53
738.747	2624.47
738.932	2687.96
739.118	2690.01
739.303	2634.71
739.489	2651.1
739.674	2624.47
739.859	2675.67
740.045	2606.04
740.23	2552.79
740.416	2593.75
740.601	2690.01
740.786	2569.18
740.972	2448.35
741.157	2597.85
741.342	2538.46
741.528	2470.87
741.713	2458.59
741.898	2493.4
742.084	2417.63
742.269	2450.39
742.454	2651.1
742.639	2552.79
742.824	2511.83
743.01	2491.35
743.195	2507.74
743.38	2401.24
743.565	2384.86
743.75	2354.14
743.935	2472.92
744.12	2442.2
744.305	2282.46
744.49	2348
744.675	2341.85
744.86	2302.94
745.045	2360.28
745.23	2296.8
745.415	2255.84
745.6	2456.54
745.785	2302.94
745.97	2251.74
746.155	2419.68
746.34	2266.08
746.525	2173.92
746.71	2266.08
746.895	2249.69
747.079	2212.83
747.264	2155.49
747.449	2229.21
747.634	2067.42
747.819	2135.01
748.003	2087.9
748.188	2126.82
748.373	2081.76
748.557	2073.57
748.742	2079.71
748.927	2155.49
749.111	2069.47
749.296	2079.71
749.481	1983.46
749.665	2083.81
749.85	2069.47
750.034	2016.23
750.219	1928.16
750.404	1997.79
750.588	1973.22
750.773	1901.54
750.957	1967.07
751.141	1977.31
751.326	1979.36
751.51	1848.29
751.695	1870.82
751.879	1848.29
752.064	1909.73
752.248	1836
752.432	1846.24
752.617	1805.28
752.801	1833.96
752.985	1749.99
753.17	1782.76
753.354	1758.18
753.538	1799.14
753.722	1737.7
753.907	1774.56
754.091	1739.75
754.275	1696.74
754.459	1766.37
754.643	1713.13
754.828	1676.26
755.012	1594.34
755.196	1649.64
755.38	1627.11
755.564	1698.79
755.748	1700.84
755.932	1688.55
756.116	1516.52
756.3	1528.81
756.484	1659.88
756.668	1704.93
756.852	1500.14
757.036	1469.42
757.22	1620.97
757.404	1457.13
757.588	1569.77
757.772	1569.77
757.956	1522.66
758.14	1547.24
758.323	1428.46
758.507	1532.9
758.691	1565.67
758.875	1453.03
759.059	1414.12
759.242	1393.64
759.426	1313.77
759.61	1307.63
759.794	1371.12
759.977	1459.18
760.161	1389.55
760.345	1410.03
760.528	1465.32
760.712	1397.74
760.895	1313.77
761.079	1246.19
761.263	1262.57
761.446	1371.12
761.63	1289.2
761.813	1209.33
761.997	1281
762.18	1266.67
762.364	1295.34
762.547	1293.29
762.731	1283.05
762.914	1238
763.098	1276.91
763.281	1158.13
763.464	1321.96
763.648	1242.09
763.831	1301.48
764.015	1231.85
764.198	1246.19
764.381	1238
764.564	1211.37
764.748	1156.08
764.931	1229.81
765.114	1252.33
765.297	1203.18
765.481	1205.23
765.664	1121.26
765.847	1123.31
766.03	1192.94
766.213	1104.88
766.397	1156.08
766.58	1092.59
766.763	1096.69
766.946	1174.51
767.129	1121.26
767.312	1162.22
767.495	1192.94
767.678	1076.21
767.861	1078.26
768.044	1018.86
768.227	1147.89
768.41	992.24
768.593	943.09
768.776	982
768.959	1051.63
769.142	1094.64
769.324	998.38
769.507	1147.89
769.69	1053.68
769.873	1029.1
770.056	1106.93
770.239	1037.3
770.421	1061.87
770.604	1002.48
770.787	1063.92
770.97	1033.2
771.152	1063.92
771.335	961.52
771.518	992.24
771.7	1068.02
771.883	982
772.066	904.18
772.248	967.67
772.431	969.71
772.613	902.13
772.796	859.12
772.978	1008.62
773.161	975.86
773.343	990.19
773.526	977.91
773.708	904.18
773.891	961.52
774.073	957.43
774.256	961.52
774.438	904.18
774.621	908.27
774.803	953.33
774.985	861.17
775.168	871.41
775.35	885.75
775.532	791.54
775.715	883.7
775.897	877.55
776.079	875.51
776.261	873.46
776.444	834.55
776.626	826.36
776.808	828.4
776.99	793.59
777.173	914.42
777.355	902.13
777.537	771.06
777.719	689.14
777.901	795.64
778.083	730.1
778.265	660.47
778.447	783.35
778.629	754.68
778.811	754.68
778.993	766.96
779.175	738.29
779.357	697.33
779.539	746.48
779.721	730.1
779.903	769.01
780.085	754.68
780.267	685.05
780.449	709.62
780.631	648.18
780.812	705.53
780.994	658.42
781.176	644.09
781.358	648.18
781.54	615.41
781.721	613.37
781.903	705.53
782.085	623.61
782.267	596.98
782.448	562.17
782.63	621.56
782.812	670.71
782.993	611.32
783.175	527.35
783.357	607.22
783.538	619.51
783.72	611.32
783.901	678.9
784.083	631.8
784.264	543.74
784.446	533.5
784.627	506.87
784.809	472.06
784.99	564.22
785.172	586.74
785.353	580.6
785.535	510.97
785.716	508.92
785.897	470.01
786.079	537.59
786.26	562.17
786.441	488.44
786.623	490.49
786.804	582.65
786.985	496.63
787.167	510.97
787.348	535.54
787.529	482.3
787.71	596.98
787.891	461.82
788.073	490.49
788.254	611.32
788.435	521.21
788.616	549.88
788.797	408.57
788.978	459.77
789.159	472.06
789.34	457.72
789.522	420.86
789.703	498.68
789.884	392.19
790.065	459.77
790.246	427
790.427	322.56
790.607	416.76
790.788	414.71
790.969	418.81
791.15	476.15
791.331	375.8
791.512	463.86
791.693	336.89
791.874	451.58
792.054	357.37
792.235	408.57
792.416	406.52
792.597	338.94
792.778	404.47
792.958	443.39
793.139	355.32
793.32	365.56
793.5	390.14
793.681	388.09
793.862	371.71
794.042	310.27
794.223	271.36
794.404	359.42
794.584	392.19
794.765	402.43
794.945	363.51
795.126	349.18
795.306	338.94
795.487	381.95
795.667	285.69
795.848	326.65
796.028	386.04
796.209	287.74
796.389	394.23
796.57	320.51
796.75	248.83
796.93	324.6
797.111	343.03
797.291	273.4
797.471	383.99
797.652	369.66
797.832	349.18
798.012	328.7
798.192	287.74
798.373	252.92
798.553	312.32
798.733	314.36
798.913	293.88
799.093	295.93
799.274	218.11
799.454	330.75
799.634	287.74
799.814	300.03
799.994	287.74
800.174	308.22
800.354	297.98
800.534	285.69
800.714	347.13
800.894	281.6
801.074	181.25
801.254	281.6
801.434	300.03
801.614	271.36
801.794	232.44
801.974	691.19
802.154	283.64
802.334	324.6
802.514	187.39
802.693	289.79
802.873	250.88
803.053	242.68
803.233	254.97
803.413	207.87
803.592	257.02
803.772	189.44
803.952	181.25
804.131	226.3
804.311	224.25
804.491	214.01
804.67	183.29
804.85	179.2
805.03	179.2
805.209	240.64
805.389	205.82
805.568	240.64
805.748	156.67
805.928	113.66
806.107	265.21
806.287	246.78
806.466	211.96
806.646	199.68
806.825	259.07
807.004	224.25
807.184	252.92
807.363	195.58
807.543	209.92
807.722	160.77
807.901	242.68
808.081	197.63
808.26	175.1
808.439	205.82
808.619	193.53
808.798	191.49
808.977	134.14
809.156	240.64
809.336	207.87
809.515	207.87
809.694	187.39
809.873	173.05
810.052	99.33
810.231	179.2
810.411	109.57
810.59	203.77
810.769	185.34
810.948	171.01
811.127	185.34
811.306	207.87
811.485	185.34
811.664	214.01
811.843	203.77
812.022	203.77
812.201	248.83
812.38	218.11
812.559	144.38
812.737	197.63
812.916	152.57
813.095	177.15
813.274	185.34
813.453	152.57
813.632	130.05
813.811	195.58
813.989	105.47
814.168	164.86
814.347	136.19
814.526	107.52
814.704	175.1
814.883	179.2
815.062	144.38
815.24	195.58
815.419	109.57
815.598	175.1
815.776	162.81
815.955	93.18
816.133	154.62
816.312	152.57
816.49	193.53
816.669	125.95
816.847	91.13
817.026	138.24
817.204	56.32
817.383	173.05
817.561	123.9
817.74	144.38
817.918	115.71
818.097	179.2
818.275	123.9
818.453	111.61
818.632	201.72
818.81	134.14
818.988	136.19
819.167	152.57
819.345	130.05
819.523	199.68
819.701	66.56
819.879	195.58
820.058	105.47
820.236	168.96
820.414	37.89
820.592	60.42
820.77	134.14
820.948	164.86
821.127	93.18
821.305	105.47
821.483	93.18
821.661	175.1
821.839	89.09
822.017	56.32
822.195	52.22
822.373	87.04
822.551	95.23
822.729	93.18
822.907	117.76
823.085	171.01
823.262	74.75
823.44	23.55
823.618	84.99
823.796	91.13
823.974	91.13
824.152	89.09
824.329	107.52
824.507	138.24
824.685	48.13
824.863	132.09
825.04	89.09
825.218	89.09
825.396	125.95
825.574	121.85
825.751	66.56
825.929	97.28
826.107	44.03
826.284	74.75
826.462	11.26
826.639	78.85
826.817	52.22
826.994	70.65
827.172	111.61
827.349	138.24
827.527	64.51
827.704	130.05
827.882	97.28
828.059	91.13
828.237	64.51
828.414	99.33
828.591	9.22
828.769	70.65
828.946	56.32
829.124	80.89
829.301	93.18
829.478	164.86
829.655	9.22
829.833	154.62
830.01	-7.17
830.187	99.33
830.364	19.46
830.542	80.89
830.719	66.56
830.896	103.42
831.073	27.65
831.25	-5.12
831.427	68.61
831.604	117.76
831.782	46.08
831.959	105.47
832.136	173.05
832.313	44.03
832.49	91.13
832.667	87.04
832.844	50.18
833.021	103.42
833.198	44.03
833.374	56.32
833.551	-7.17
833.728	134.14
833.905	31.74
834.082	48.13
834.259	44.03
834.436	123.9
834.612	46.08
834.789	56.32
834.966	95.23
835.143	72.7
835.319	64.51
835.496	74.75
835.673	33.79
835.85	62.46
836.026	52.22
836.203	82.94
836.38	50.18
836.556	84.99
836.733	50.18
836.909	117.76
837.086	95.23
837.262	58.37
837.439	72.7
837.616	21.5
837.792	56.32
837.968	29.7
838.145	89.09
838.321	-9.22
838.498	89.09
838.674	105.47
838.851	9.22
839.027	33.79
839.203	130.05
839.38	62.46
839.556	80.89
839.732	-17.41
839.909	33.79
840.085	39.94
840.261	82.94
840.437	9.22
840.614	74.75
840.79	99.33
840.966	50.18
841.142	46.08
841.318	39.94
841.494	7.17
841.671	46.08
841.847	48.13
842.023	19.46
842.199	37.89
842.375	-11.26
842.551	70.65
842.727	31.74
842.903	17.41
843.079	72.7
843.255	62.46
843.431	11.26
843.607	21.5
843.783	-48.13
843.959	-29.7
844.134	50.18
844.31	76.8
844.486	15.36
844.662	-19.46
844.838	48.13
845.013	52.22
845.189	56.32
845.365	39.94
845.541	46.08
845.716	62.46
845.892	76.8
846.068	-41.98
846.244	-19.46
846.419	91.13
846.595	-44.03
846.77	62.46
846.946	-21.5
847.122	66.56
847.297	37.89
847.473	78.85
847.648	17.41
847.824	56.32
847.999	-54.27
848.175	101.37
848.35	82.94
848.526	29.7
848.701	31.74
848.876	27.65
849.052	46.08
849.227	-3.07
849.403	13.31
849.578	156.67
849.753	35.84
849.929	-13.31
850.104	27.65
850.279	13.31
850.454	93.18
850.63	13.31
850.805	-21.5
850.98	66.56
851.155	-41.98
851.33	23.55
851.505	19.46
851.681	58.37
851.856	-3.07
852.031	37.89
852.206	5.12
852.381	-58.37
852.556	25.6
852.731	39.94
852.906	44.03
853.081	27.65
853.256	-44.03
853.431	-1.02
853.606	5.12
853.781	-23.55
853.956	-74.75
854.131	72.7
854.305	68.61
854.48	-21.5
854.655	-39.94
854.83	7.17
855.005	29.7
855.18	27.65
855.354	3.07
855.529	41.98
855.704	66.56
855.879	56.32
856.053	19.46
856.228	-11.26
856.403	-50.18
856.577	-25.6
856.752	3.07
856.926	-44.03
857.101	-3.07
857.276	-15.36
857.45	74.75
857.625	89.09
857.799	-11.26
857.974	29.7
858.148	-13.31
858.323	-23.55
858.497	-23.55
858.672	44.03
858.846	72.7
859.02	3.07
859.195	7.17
859.369	13.31
859.543	-29.7
859.718	31.74
859.892	19.46
860.066	-54.27
860.241	-15.36
860.415	-21.5
860.589	-11.26
860.763	15.36
860.938	21.5
861.112	7.17
861.286	-15.36
861.46	7.17
861.634	-31.74
861.808	29.7
861.982	-58.37
862.157	-23.55
862.331	-5.12
862.505	-31.74
862.679	-1.02
862.853	64.51
863.027	29.7
863.201	50.18
863.375	-64.51
863.549	5.12
863.722	-17.41
863.896	62.46
864.07	-15.36
864.244	-21.5
864.418	-15.36
864.592	-15.36
864.766	-25.6
864.939	80.89
865.113	-113.66
865.287	11.26
865.461	15.36
865.634	1.02
865.808	-29.7
865.982	-9.22
866.156	41.98
866.329	17.41
866.503	-50.18
866.676	58.37
866.85	21.5
867.024	37.89
867.197	-3.07
867.371	31.74
867.544	-60.42
867.718	-68.61
867.891	17.41
868.065	-48.13
868.238	-21.5
868.412	33.79
868.585	-9.22
868.759	-3.07
868.932	54.27
869.105	-7.17
869.279	-60.42
869.452	-62.46
869.625	-39.94
869.799	-46.08
869.972	-9.22
870.145	-25.6
870.319	39.94
870.492	-19.46
870.665	-46.08
870.838	-35.84
871.011	-3.07
871.185	-41.98
871.358	-19.46
871.531	56.32
871.704	-33.79
871.877	-11.26
872.05	-29.7
872.223	-11.26
872.396	-58.37
872.569	46.08
872.742	-15.36
872.915	62.46
873.088	-37.89
873.261	25.6
873.434	27.65
873.607	78.85
873.78	9.22
873.953	1.02
874.126	23.55
874.299	27.65
874.471	9.22
874.644	19.46
874.817	-19.46
874.99	48.13
875.163	-50.18
875.335	7.17
875.508	1.02
875.681	21.5
875.853	-21.5
876.026	-11.26
876.199	5.12
876.371	-9.22
876.544	33.79
876.717	25.6
876.889	-3.07
877.062	3.07
877.234	-87.04
877.407	78.85
877.579	13.31
877.752	5.12
877.924	-62.46
878.097	-25.6
878.269	-15.36
878.442	64.51
878.614	11.26
878.786	56.32
878.959	-13.31
879.131	23.55
879.303	-31.74
879.476	-70.65
879.648	-39.94
879.82	-74.75
879.993	-9.22
880.165	9.22
880.337	64.51
880.509	-44.03
880.681	-21.5
880.854	5.12
881.026	-66.56
881.198	3.07
881.37	54.27
881.542	31.74
881.714	-87.04
881.886	-31.74
882.058	-13.31
882.23	-27.65
882.402	-33.79
882.574	48.13
882.746	13.31
882.918	21.5
883.09	-35.84
883.262	-25.6
883.434	11.26
883.606	17.41
883.778	41.98
883.95	56.32
884.122	25.6
884.293	-7.17
884.465	-37.89
884.637	64.51
884.809	-19.46
884.98	23.55
885.152	-35.84
885.324	68.61
885.496	-25.6
885.667	-144.38
885.839	-27.65
886.011	7.17
886.182	-52.22
886.354	23.55
886.525	-50.18
886.697	11.26
886.869	-23.55
887.04	29.7
887.212	-7.17
887.383	64.51
887.555	29.7
887.726	-44.03
887.897	-1.02
888.069	21.5
888.24	-9.22
888.412	13.31
888.583	-21.5
888.754	-23.55
888.926	-13.31
889.097	27.65
889.268	-31.74
889.44	39.94
889.611	-41.98
889.782	15.36
889.953	-54.27
890.125	39.94
890.296	-119.81
890.467	-29.7
890.638	-15.36
890.809	70.65
890.98	-93.18
891.151	-13.31
891.323	11.26
891.494	39.94
891.665	27.65
891.836	-17.41
892.007	-31.74
892.178	39.94
892.349	9.22
892.52	13.31
892.691	-5.12
892.862	-35.84
893.032	-54.27
893.203	-25.6
893.374	-25.6
893.545	-9.22
893.716	-46.08
893.887	-7.17
894.057	9.22
894.228	52.22
894.399	13.31
894.57	-27.65
894.74	-66.56
894.911	1.02
895.082	-60.42
895.253	-23.55
895.423	-11.26
895.594	-41.98
895.764	-44.03
895.935	1.02
896.106	-33.79
896.276	-21.5
896.447	-44.03
896.617	-27.65
896.788	-70.65
896.958	-52.22
897.129	15.36
897.299	1.02
897.47	23.55
897.64	52.22
897.81	-37.89
897.981	15.36
898.151	13.31
898.322	29.7
898.492	11.26
898.662	37.89
898.832	-74.75
899.003	54.27
899.173	-31.74
899.343	-41.98
899.513	-58.37
