Data from USB4F104151__52__12-27-34-012.txt Node

Date: Fri Mar 14 12:27:34 EDT 2025
User: louis
Spectrometer: USB4F10415
Trigger mode: 4
Integration Time (sec): 2.000000E-2
Scans to average: 1
Electric dark correction enabled: true
Nonlinearity correction enabled: false
Boxcar width: 0
XAxis mode: Wavelengths
Number of Pixels in Spectrum: 3648
>>>>>Begin Spectral Data<<<<<
178.204	-132.78
178.424	-132.78
178.644	-132.78
178.864	-73.39
179.084	-104.11
179.304	63.83
179.524	-44.71
179.744	26.96
179.964	-50.86
180.184	-36.52
180.404	-13.99
180.624	100.69
180.844	16.73
181.064	-42.67
181.283	-36.52
181.503	45.4
181.723	-28.33
181.943	-24.23
182.163	86.36
182.383	6.49
182.602	168.27
182.822	51.54
183.042	6.49
183.262	57.68
183.482	45.4
183.701	47.44
183.921	4.44
184.141	-11.95
184.361	61.78
184.58	26.96
184.8	18.77
185.02	16.73
185.239	31.06
185.459	57.68
185.679	117.08
185.898	-34.47
186.118	39.25
186.338	33.11
186.557	18.77
186.777	-48.81
186.997	67.92
187.216	47.44
187.436	80.21
187.655	31.06
187.875	92.5
188.095	47.44
188.314	82.26
188.534	-50.86
188.753	65.88
188.973	69.97
189.192	22.87
189.412	69.97
189.631	24.92
189.851	100.69
190.07	65.88
190.29	-28.33
190.509	-26.28
190.729	72.02
190.948	37.2
191.168	59.73
191.387	84.31
191.607	8.53
191.826	112.98
192.045	4.44
192.265	67.92
192.484	80.21
192.704	2.39
192.923	49.49
193.142	59.73
193.362	14.68
193.581	80.21
193.8	10.58
194.02	67.92
194.239	80.21
194.458	33.11
194.678	86.36
194.897	92.5
195.116	-16.04
195.335	33.11
195.555	65.88
195.774	20.82
195.993	29.01
196.212	92.5
196.432	4.44
196.651	76.12
196.87	22.87
197.089	67.92
197.308	14.68
197.528	31.06
197.747	-20.14
197.966	14.68
198.185	53.59
198.404	-26.28
198.623	18.77
198.842	8.53
199.062	14.68
199.281	123.22
199.5	37.2
199.719	8.53
199.938	137.56
200.157	49.49
200.376	22.87
200.595	57.68
200.814	53.59
201.033	-3.75
201.252	53.59
201.471	18.77
201.69	47.44
201.909	96.6
202.128	45.4
202.347	69.97
202.566	127.32
202.785	12.63
203.004	53.59
203.223	129.36
203.442	39.25
203.661	8.53
203.879	51.54
204.098	35.16
204.317	14.68
204.536	96.6
204.755	22.87
204.974	35.16
205.193	45.4
205.411	80.21
205.63	86.36
205.849	22.87
206.068	-11.95
206.287	24.92
206.505	29.01
206.724	67.92
206.943	57.68
207.162	41.3
207.381	51.54
207.599	-11.95
207.818	10.58
208.037	84.31
208.255	39.25
208.474	16.73
208.693	2.39
208.911	88.4
209.13	6.49
209.349	84.31
209.567	100.69
209.786	16.73
210.005	10.58
210.223	43.35
210.442	20.82
210.661	94.55
210.879	86.36
211.098	47.44
211.316	45.4
211.535	59.73
211.753	-22.19
211.972	59.73
212.191	78.16
212.409	29.01
212.628	39.25
212.846	22.87
213.065	53.59
213.283	-7.85
213.502	-42.67
213.72	90.45
213.938	49.49
214.157	16.73
214.375	-18.09
214.594	59.73
214.812	59.73
215.031	31.06
215.249	47.44
215.467	8.53
215.686	41.3
215.904	108.88
216.122	78.16
216.341	47.44
216.559	24.92
216.778	92.5
216.996	53.59
217.214	78.16
217.432	-18.09
217.651	94.55
217.869	8.53
218.087	63.83
218.306	88.4
218.524	47.44
218.742	31.06
218.96	51.54
219.179	-7.85
219.397	129.36
219.615	112.98
219.833	8.53
220.051	16.73
220.27	59.73
220.488	96.6
220.706	65.88
220.924	-18.09
221.142	6.49
221.36	72.02
221.578	65.88
221.796	37.2
222.015	84.31
222.233	82.26
222.451	82.26
222.669	45.4
222.887	67.92
223.105	14.68
223.323	49.49
223.541	-63.15
223.759	63.83
223.977	55.64
224.195	98.64
224.413	63.83
224.631	24.92
224.849	47.44
225.067	143.7
225.285	41.3
225.503	43.35
225.721	-7.85
225.939	31.06
226.157	94.55
226.375	96.6
226.592	14.68
226.81	106.84
227.028	57.68
227.246	88.4
227.464	29.01
227.682	0.34
227.9	31.06
228.117	41.3
228.335	29.01
228.553	0.34
228.771	41.3
228.989	74.07
229.206	61.78
229.424	39.25
229.642	51.54
229.86	76.12
230.077	137.56
230.295	26.96
230.513	31.06
230.731	47.44
230.948	8.53
231.166	45.4
231.384	119.12
231.601	-11.95
231.819	39.25
232.037	39.25
232.254	0.34
232.472	92.5
232.689	-13.99
232.907	24.92
233.125	47.44
233.342	63.83
233.56	59.73
233.777	-22.19
233.995	78.16
234.213	164.18
234.43	84.31
234.648	67.92
234.865	26.96
235.083	-9.9
235.3	22.87
235.518	35.16
235.735	16.73
235.953	67.92
236.17	86.36
236.388	59.73
236.605	41.3
236.822	69.97
237.04	16.73
237.257	84.31
237.475	16.73
237.692	69.97
237.909	80.21
238.127	-30.38
238.344	80.21
238.562	59.73
238.779	88.4
238.996	106.84
239.214	59.73
239.431	35.16
239.648	18.77
239.865	-3.75
240.083	59.73
240.3	22.87
240.517	69.97
240.735	24.92
240.952	59.73
241.169	80.21
241.386	6.49
241.603	112.98
241.821	10.58
242.038	80.21
242.255	86.36
242.472	16.73
242.689	55.64
242.907	-9.9
243.124	43.35
243.341	57.68
243.558	45.4
243.775	33.11
243.992	22.87
244.209	72.02
244.426	69.97
244.643	-42.67
244.86	43.35
245.078	69.97
245.295	102.74
245.512	12.63
245.729	6.49
245.946	129.36
246.163	33.11
246.38	33.11
246.597	24.92
246.814	90.45
247.031	63.83
247.248	2.39
247.464	-1.71
247.681	18.77
247.898	51.54
248.115	51.54
248.332	-34.47
248.549	127.32
248.766	63.83
248.983	31.06
249.2	119.12
249.417	55.64
249.633	74.07
249.85	31.06
250.067	24.92
250.284	22.87
250.501	74.07
250.717	22.87
250.934	35.16
251.151	57.68
251.368	88.4
251.585	24.92
251.801	72.02
252.018	-46.76
252.235	104.79
252.451	96.6
252.668	24.92
252.885	65.88
253.102	31.06
253.318	-34.47
253.535	49.49
253.752	39.25
253.968	74.07
254.185	76.12
254.401	90.45
254.618	57.68
254.835	39.25
255.051	84.31
255.268	29.01
255.484	76.12
255.701	26.96
255.917	31.06
256.134	96.6
256.351	143.7
256.567	96.6
256.784	35.16
257	65.88
257.217	115.03
257.433	6.49
257.65	55.64
257.866	49.49
258.082	74.07
258.299	22.87
258.515	63.83
258.732	20.82
258.948	35.16
259.165	59.73
259.381	41.3
259.597	112.98
259.814	74.07
260.03	67.92
260.246	-5.8
260.463	33.11
260.679	65.88
260.895	49.49
261.112	12.63
261.328	78.16
261.544	106.84
261.761	92.5
261.977	63.83
262.193	2.39
262.409	61.78
262.626	12.63
262.842	119.12
263.058	35.16
263.274	57.68
263.49	33.11
263.707	82.26
263.923	53.59
264.139	6.49
264.355	6.49
264.571	47.44
264.787	72.02
265.004	92.5
265.22	-28.33
265.436	8.53
265.652	12.63
265.868	39.25
266.084	18.77
266.3	-16.04
266.516	63.83
266.732	-28.33
266.948	74.07
267.164	39.25
267.38	65.88
267.596	-46.76
267.812	-22.19
268.028	43.35
268.244	-13.99
268.46	-9.9
268.676	86.36
268.892	0.34
269.108	78.16
269.324	-3.75
269.54	63.83
269.756	94.55
269.972	47.44
270.188	0.34
270.403	33.11
270.619	63.83
270.835	-20.14
271.051	115.03
271.267	31.06
271.483	47.44
271.698	155.99
271.914	65.88
272.13	53.59
272.346	78.16
272.562	4.44
272.777	20.82
272.993	24.92
273.209	49.49
273.425	29.01
273.64	-11.95
273.856	37.2
274.072	84.31
274.287	43.35
274.503	4.44
274.719	26.96
274.934	-11.95
275.15	-3.75
275.366	29.01
275.581	31.06
275.797	2.39
276.012	-16.04
276.228	-24.23
276.444	31.06
276.659	-18.09
276.875	26.96
277.09	33.11
277.306	29.01
277.521	8.53
277.737	43.35
277.952	74.07
278.168	12.63
278.383	16.73
278.599	84.31
278.814	76.12
279.03	53.59
279.245	57.68
279.461	12.63
279.676	65.88
279.892	18.77
280.107	104.79
280.322	31.06
280.538	2.39
280.753	35.16
280.969	67.92
281.184	2.39
281.399	69.97
281.615	12.63
281.83	82.26
282.045	33.11
282.26	35.16
282.476	41.3
282.691	94.55
282.906	14.68
283.122	59.73
283.337	47.44
283.552	4.44
283.767	82.26
283.983	69.97
284.198	39.25
284.413	35.16
284.628	-3.75
284.843	57.68
285.058	39.25
285.274	53.59
285.489	57.68
285.704	24.92
285.919	22.87
286.134	65.88
286.349	-7.85
286.564	49.49
286.779	41.3
286.995	84.31
287.21	-18.09
287.425	-22.19
287.64	90.45
287.855	72.02
288.07	35.16
288.285	26.96
288.5	104.79
288.715	16.73
288.93	26.96
289.145	14.68
289.36	2.39
289.575	-5.8
289.79	74.07
290.004	65.88
290.219	92.5
290.434	59.73
290.649	12.63
290.864	98.64
291.079	16.73
291.294	57.68
291.509	41.3
291.724	102.74
291.938	33.11
292.153	78.16
292.368	22.87
292.583	76.12
292.798	10.58
293.012	29.01
293.227	135.51
293.442	20.82
293.657	-16.04
293.871	82.26
294.086	20.82
294.301	110.93
294.516	82.26
294.73	151.89
294.945	18.77
295.16	0.34
295.374	78.16
295.589	96.6
295.804	88.4
296.018	31.06
296.233	39.25
296.447	33.11
296.662	-7.85
296.877	31.06
297.091	8.53
297.306	65.88
297.52	18.77
297.735	63.83
297.949	29.01
298.164	92.5
298.378	96.6
298.593	37.2
298.807	61.78
299.022	12.63
299.236	88.4
299.451	24.92
299.665	74.07
299.88	104.79
300.094	10.58
300.309	43.35
300.523	18.77
300.737	8.53
300.952	61.78
301.166	76.12
301.381	16.73
301.595	51.54
301.809	39.25
302.024	72.02
302.238	24.92
302.452	82.26
302.667	20.82
302.881	84.31
303.095	86.36
303.309	45.4
303.524	51.54
303.738	24.92
303.952	-11.95
304.166	26.96
304.381	65.88
304.595	41.3
304.809	29.01
305.023	80.21
305.237	-18.09
305.452	49.49
305.666	57.68
305.88	51.54
306.094	119.12
306.308	104.79
306.522	45.4
306.736	47.44
306.95	78.16
307.164	45.4
307.379	-18.09
307.593	119.12
307.807	82.26
308.021	29.01
308.235	53.59
308.449	88.4
308.663	33.11
308.877	10.58
309.091	55.64
309.305	74.07
309.519	16.73
309.733	76.12
309.947	43.35
310.161	55.64
310.374	123.22
310.588	63.83
310.802	37.2
311.016	61.78
311.23	90.45
311.444	2.39
311.658	31.06
311.872	4.44
312.085	22.87
312.299	86.36
312.513	31.06
312.727	96.6
312.941	18.77
313.154	43.35
313.368	53.59
313.582	72.02
313.796	59.73
314.009	-5.8
314.223	65.88
314.437	-24.23
314.651	35.16
314.864	14.68
315.078	141.65
315.292	35.16
315.505	80.21
315.719	39.25
315.933	45.4
316.146	37.2
316.36	67.92
316.573	37.2
316.787	2.39
317.001	137.56
317.214	0.34
317.428	94.55
317.641	-9.9
317.855	55.64
318.068	-3.75
318.282	41.3
318.495	78.16
318.709	47.44
318.922	67.92
319.136	119.12
319.349	49.49
319.563	63.83
319.776	98.64
319.99	-13.99
320.203	57.68
320.417	69.97
320.63	53.59
320.843	119.12
321.057	98.64
321.27	94.55
321.483	53.59
321.697	137.56
321.91	33.11
322.124	55.64
322.337	110.93
322.55	0.34
322.763	63.83
322.977	72.02
323.19	31.06
323.403	112.98
323.617	65.88
323.83	39.25
324.043	45.4
324.256	115.03
324.469	39.25
324.683	14.68
324.896	-28.33
325.109	67.92
325.322	-32.43
325.535	22.87
325.748	84.31
325.962	94.55
326.175	74.07
326.388	92.5
326.601	59.73
326.814	-24.23
327.027	-3.75
327.24	117.08
327.453	37.2
327.666	69.97
327.879	98.64
328.092	14.68
328.305	59.73
328.518	53.59
328.731	10.58
328.944	47.44
329.157	49.49
329.37	84.31
329.583	49.49
329.796	104.79
330.009	110.93
330.222	-18.09
330.435	100.69
330.648	76.12
330.861	61.78
331.073	121.17
331.286	63.83
331.499	53.59
331.712	37.2
331.925	49.49
332.138	22.87
332.35	131.41
332.563	45.4
332.776	110.93
332.989	16.73
333.202	33.11
333.414	35.16
333.627	43.35
333.84	72.02
334.053	35.16
334.265	61.78
334.478	65.88
334.691	133.46
334.903	45.4
335.116	45.4
335.329	47.44
335.541	86.36
335.754	57.68
335.966	-13.99
336.179	57.68
336.392	47.44
336.604	61.78
336.817	35.16
337.029	67.92
337.242	153.94
337.454	35.16
337.667	26.96
337.88	112.98
338.092	51.54
338.305	8.53
338.517	53.59
338.729	57.68
338.942	96.6
339.154	59.73
339.367	53.59
339.579	33.11
339.792	45.4
340.004	65.88
340.217	37.2
340.429	141.65
340.641	16.73
340.854	24.92
341.066	18.77
341.278	106.84
341.491	63.83
341.703	-42.67
341.915	39.25
342.128	129.36
342.34	33.11
342.552	39.25
342.764	51.54
342.977	131.41
343.189	104.79
343.401	78.16
343.613	31.06
343.826	43.35
344.038	-11.95
344.25	72.02
344.462	-7.85
344.674	106.84
344.886	51.54
345.099	96.6
345.311	92.5
345.523	59.73
345.735	2.39
345.947	92.5
346.159	127.32
346.371	74.07
346.583	51.54
346.795	106.84
347.007	33.11
347.219	-1.71
347.431	37.2
347.643	82.26
347.855	76.12
348.067	108.88
348.279	51.54
348.491	90.45
348.703	92.5
348.915	31.06
349.127	74.07
349.339	12.63
349.551	90.45
349.763	141.65
349.975	-7.85
350.187	41.3
350.399	55.64
350.61	78.16
350.822	51.54
351.034	65.88
351.246	55.64
351.458	90.45
351.669	55.64
351.881	108.88
352.093	0.34
352.305	51.54
352.517	133.46
352.728	100.69
352.94	78.16
353.152	141.65
353.363	57.68
353.575	39.25
353.787	63.83
353.999	67.92
354.21	112.98
354.422	31.06
354.633	65.88
354.845	49.49
355.057	49.49
355.268	67.92
355.48	57.68
355.692	74.07
355.903	119.12
356.115	51.54
356.326	47.44
356.538	184.66
356.749	106.84
356.961	78.16
357.172	82.26
357.384	41.3
357.595	123.22
357.807	16.73
358.018	63.83
358.23	74.07
358.441	80.21
358.653	57.68
358.864	53.59
359.075	35.16
359.287	55.64
359.498	78.16
359.709	115.03
359.921	16.73
360.132	129.36
360.344	117.08
360.555	41.3
360.766	55.64
360.977	33.11
361.189	31.06
361.4	84.31
361.611	69.97
361.823	84.31
362.034	137.56
362.245	-5.8
362.456	51.54
362.667	47.44
362.879	0.34
363.09	55.64
363.301	98.64
363.512	26.96
363.723	65.88
363.935	-9.9
364.146	141.65
364.357	-11.95
364.568	65.88
364.779	67.92
364.99	29.01
365.201	74.07
365.412	78.16
365.623	8.53
365.834	65.88
366.045	26.96
366.256	39.25
366.467	69.97
366.678	49.49
366.889	117.08
367.1	31.06
367.311	59.73
367.522	63.83
367.733	45.4
367.944	86.36
368.155	80.21
368.366	139.6
368.577	119.12
368.788	53.59
368.999	57.68
369.209	47.44
369.42	47.44
369.631	112.98
369.842	45.4
370.053	67.92
370.264	78.16
370.474	45.4
370.685	18.77
370.896	84.31
371.107	69.97
371.317	51.54
371.528	51.54
371.739	39.25
371.95	31.06
372.16	137.56
372.371	63.83
372.582	24.92
372.792	78.16
373.003	49.49
373.214	74.07
373.424	141.65
373.635	-32.43
373.846	74.07
374.056	49.49
374.267	37.2
374.477	51.54
374.688	51.54
374.898	76.12
375.109	24.92
375.319	31.06
375.53	74.07
375.74	76.12
375.951	104.79
376.161	74.07
376.372	51.54
376.582	-20.14
376.793	14.68
377.003	53.59
377.214	76.12
377.424	88.4
377.635	29.01
377.845	69.97
378.055	135.51
378.266	24.92
378.476	166.23
378.686	18.77
378.897	33.11
379.107	6.49
379.317	72.02
379.528	137.56
379.738	43.35
379.948	33.11
380.158	80.21
380.369	37.2
380.579	59.73
380.789	-5.8
380.999	90.45
381.21	78.16
381.42	153.94
381.63	108.88
381.84	117.08
382.05	39.25
382.261	153.94
382.471	88.4
382.681	53.59
382.891	63.83
383.101	43.35
383.311	82.26
383.521	74.07
383.731	133.46
383.941	80.21
384.151	139.6
384.361	39.25
384.571	172.37
384.781	90.45
384.991	182.61
385.201	80.21
385.411	51.54
385.621	69.97
385.831	57.68
386.041	35.16
386.251	41.3
386.461	155.99
386.671	78.16
386.881	49.49
387.091	55.64
387.301	92.5
387.511	92.5
387.72	84.31
387.93	82.26
388.14	102.74
388.35	20.82
388.56	18.77
388.769	82.26
388.979	102.74
389.189	80.21
389.399	78.16
389.609	55.64
389.818	16.73
390.028	67.92
390.238	57.68
390.447	14.68
390.657	100.69
390.867	39.25
391.076	8.53
391.286	45.4
391.496	51.54
391.705	125.27
391.915	82.26
392.125	31.06
392.334	74.07
392.544	90.45
392.753	100.69
392.963	67.92
393.172	123.22
393.382	22.87
393.591	139.6
393.801	47.44
394.01	98.64
394.22	41.3
394.429	47.44
394.639	-36.52
394.848	100.69
395.058	112.98
395.267	92.5
395.477	67.92
395.686	76.12
395.895	86.36
396.105	127.32
396.314	110.93
396.524	80.21
396.733	92.5
396.942	108.88
397.152	94.55
397.361	90.45
397.57	14.68
397.78	100.69
397.989	57.68
398.198	160.08
398.407	80.21
398.617	131.41
398.826	102.74
399.035	61.78
399.244	74.07
399.453	35.16
399.663	82.26
399.872	129.36
400.081	135.51
400.29	53.59
400.499	131.41
400.708	153.94
400.917	88.4
401.127	102.74
401.336	12.63
401.545	135.51
401.754	164.18
401.963	139.6
402.172	131.41
402.381	104.79
402.59	78.16
402.799	49.49
403.008	67.92
403.217	67.92
403.426	192.85
403.635	119.12
403.844	88.4
404.053	45.4
404.262	98.64
404.471	158.03
404.68	24.92
404.888	53.59
405.097	117.08
405.306	160.08
405.515	135.51
405.724	137.56
405.933	112.98
406.142	174.42
406.35	229.71
406.559	123.22
406.768	143.7
406.977	166.23
407.185	69.97
407.394	168.27
407.603	153.94
407.812	219.47
408.02	227.67
408.229	178.51
408.438	188.75
408.646	131.41
408.855	188.75
409.064	160.08
409.272	209.23
409.481	215.38
409.69	246.1
409.898	139.6
410.107	211.28
410.315	239.95
410.524	264.53
410.733	231.76
410.941	256.34
411.15	309.58
411.358	285.01
411.567	360.78
411.775	342.35
411.984	278.87
412.192	291.15
412.401	336.21
412.609	362.83
412.818	319.82
413.026	444.75
413.234	434.51
413.443	387.41
413.651	428.37
413.86	450.89
414.068	454.99
414.276	442.7
414.485	459.09
414.693	491.85
414.901	545.1
415.11	467.28
415.318	485.71
415.526	473.42
415.734	592.2
415.943	561.48
416.151	616.78
416.359	598.35
416.567	678.22
416.776	635.21
416.984	614.73
417.192	751.95
417.4	743.75
417.608	715.08
417.817	823.62
418.025	868.68
418.233	874.82
418.441	909.64
418.649	926.02
418.857	946.5
419.065	1028.42
419.273	987.46
419.481	907.59
419.689	973.13
419.897	1005.89
420.105	1106.24
420.313	1112.39
420.521	1149.25
420.729	1130.82
420.937	1292.61
421.145	1288.51
421.353	1349.95
421.561	1427.78
421.769	1378.62
421.977	1536.32
422.185	1542.46
422.393	1528.13
422.601	1651
422.809	1605.95
423.017	1581.37
423.224	1579.33
423.432	1790.27
423.64	1749.31
423.848	2019.64
424.056	1943.86
424.263	2111.8
424.471	1974.58
424.679	2079.03
424.887	2115.89
425.094	2312.5
425.302	2230.58
425.51	2369.84
425.718	2339.12
425.925	2498.86
426.133	2429.23
426.341	2695.47
426.548	2867.5
426.756	2787.63
426.964	2887.98
427.171	3129.64
427.379	3047.72
427.586	3017
427.794	3244.32
428.001	3426.59
428.209	3526.94
428.417	3367.2
428.624	3678.49
428.832	3782.94
429.039	3735.84
429.247	3750.17
429.454	4067.61
429.662	4327.7
429.869	3903.77
430.076	4421.91
430.284	4167.96
430.491	4426
430.699	4679.95
430.906	4823.31
431.114	4757.77
431.321	4827.4
431.528	5052.68
431.736	5445.89
431.943	5603.58
432.15	5253.38
432.358	5429.51
432.565	5732.61
432.772	5804.28
432.979	5994.75
433.187	6009.08
433.394	6134.01
433.601	6617.33
433.808	6695.15
434.016	6441.2
434.223	6791.41
434.43	7241.96
434.637	7078.12
434.844	7586.02
435.052	7837.92
435.259	7663.84
435.466	7733.47
435.673	7696.61
435.88	8089.82
436.087	8470.74
436.294	8585.43
436.501	8247.51
436.708	8601.81
436.915	8745.17
437.122	9363.65
437.329	9435.33
437.537	9427.14
437.743	9773.25
437.95	9654.47
438.157	10053.82
438.364	10330.3
438.571	10447.03
438.778	10455.22
438.985	11471.01
439.192	11057.32
439.399	11585.7
439.606	11395.24
439.813	11714.72
440.02	12347.54
440.227	12212.38
440.433	12144.8
440.64	12599.45
440.847	12402.84
441.054	12910.74
441.261	13592.71
441.467	13549.7
441.674	13910.15
441.881	14225.53
442.088	14057.6
442.294	14024.83
442.501	14461.05
442.708	14794.87
442.914	15274.09
443.121	15939.68
443.328	15429.74
443.534	16742.49
443.741	16169.05
443.948	15945.83
444.154	17137.74
444.361	17102.93
444.568	17266.77
444.774	17094.74
444.981	17387.6
445.187	18020.42
445.394	18724.92
445.6	18522.17
445.807	20400.16
446.013	19355.69
446.22	19599.4
446.426	20584.48
446.633	20736.02
446.839	21411.85
447.046	20633.63
447.252	21600.27
447.459	21374.99
447.665	21686.28
447.871	22839.29
448.078	23816.17
448.284	22280.19
448.491	23013.37
448.697	23932.9
448.903	24180.71
449.11	24246.24
449.316	24254.44
449.522	24672.22
449.728	24997.85
449.935	25472.98
450.141	25325.52
450.347	26398.66
450.553	24897.5
450.76	25448.4
450.966	26527.68
451.172	25997.26
451.378	26572.74
451.584	25972.68
451.791	26662.85
451.997	26728.38
452.203	27162.55
452.409	27574.19
452.615	27223.99
452.821	26066.89
453.027	25665.49
453.233	27170.74
453.44	26234.82
453.646	26740.67
453.852	26552.26
454.058	27008.95
454.264	26204.1
454.47	26763.2
454.676	26173.38
454.882	27213.75
455.088	24735.71
455.294	24897.5
455.5	25470.93
455.705	25874.38
455.911	24846.3
456.117	24027.11
456.323	23904.23
456.529	22546.43
456.735	23488.49
456.941	23115.76
457.147	22634.49
457.352	21745.67
457.558	21882.89
457.764	21651.47
457.97	21336.08
458.176	20668.44
458.381	21012.5
458.587	20133.92
458.793	19787.82
458.999	18815.03
459.204	20203.55
459.41	19943.46
459.616	18389.05
459.821	18253.89
460.027	18411.58
460.233	17780.81
460.438	17129.55
460.644	17215.57
460.85	16570.46
461.055	16287.84
461.261	16158.81
461.466	14962.8
461.672	14385.27
461.878	15698.02
462.083	14514.3
462.289	14172.29
462.494	13834.37
462.7	13594.76
462.905	13205.64
463.111	13666.44
463.316	13590.66
463.522	13213.84
463.727	13684.87
463.932	13179.02
464.138	13240.46
464.343	13058.19
464.549	12748.95
464.754	13262.99
464.959	13084.81
465.165	13004.94
465.37	12701.84
465.575	12325.02
465.781	12685.46
465.986	12673.17
466.191	12394.65
466.397	12001.44
466.602	11387.05
466.807	12103.84
467.012	12073.12
467.218	11815.07
467.423	11894.94
467.628	11702.43
467.833	12210.33
468.038	11712.67
468.244	11505.83
468.449	11890.85
468.654	11651.24
468.859	11311.27
469.064	11393.19
469.269	10971.31
469.474	11071.66
469.679	11542.69
469.885	11249.83
470.09	11253.93
470.295	10938.54
470.5	10764.47
470.705	10911.92
470.91	10604.72
471.115	10600.63
471.32	10782.9
471.525	10555.57
471.73	10367.16
471.935	10369.21
472.139	9906.37
472.344	10098.88
472.549	9863.36
472.754	10006.72
472.959	9701.57
473.164	9488.58
473.369	9410.76
473.574	9965.76
473.778	9877.69
473.983	9742.53
474.188	9502.92
474.393	9152.71
474.598	9169.1
474.802	9062.6
475.007	9097.42
475.212	9140.43
475.417	8659.15
475.621	8769.74
475.826	8779.98
476.031	8628.43
476.235	8370.39
476.44	8446.16
476.645	8255.7
476.849	8333.53
477.054	8214.74
477.259	8141.02
477.463	8065.24
477.668	7948.51
477.872	7989.47
478.077	8071.39
478.282	7678.18
478.486	7467.24
478.691	7649.5
478.895	7510.24
479.1	7502.05
479.304	7600.35
479.509	7309.54
479.713	7561.44
479.918	7284.97
480.122	7157.99
480.326	7336.17
480.531	7145.7
480.735	7291.11
480.94	7086.31
481.144	7280.87
481.348	7028.97
481.553	7143.66
481.757	7043.31
481.961	7119.08
482.166	7160.04
482.37	7080.17
482.574	6938.86
482.778	7039.21
482.983	7110.89
483.187	7047.4
483.391	6992.11
483.595	6965.48
483.8	6803.69
484.004	7094.51
484.208	7160.04
484.412	6877.42
484.616	7008.49
484.821	6975.72
485.025	6795.5
485.229	6969.58
485.433	6949.1
485.637	6932.72
485.841	7010.54
486.045	7033.07
486.249	7217.38
486.453	7164.14
486.657	7041.26
486.861	7016.68
487.065	6842.6
487.269	6988.01
487.473	6867.18
487.677	7104.74
487.881	7137.51
488.085	7110.89
488.289	7084.27
488.493	7157.99
488.697	7213.29
488.901	7237.86
489.105	7090.41
489.309	7209.19
489.512	7110.89
489.716	7104.74
489.92	7043.31
490.124	7024.87
490.328	7139.56
490.531	7157.99
490.735	7225.58
490.939	7055.59
491.143	7178.47
491.346	7280.87
491.55	7393.51
491.754	7323.88
491.958	7373.03
492.161	7352.55
492.365	7260.39
492.569	7323.88
492.772	7336.17
492.976	7508.19
493.18	7555.3
493.383	7504.1
493.587	7571.68
493.79	7657.7
493.994	7598.31
494.197	7973.08
494.401	7911.64
494.605	7848.16
494.808	7948.51
495.012	7895.26
495.215	7964.89
495.419	7968.99
495.622	8069.34
495.825	8075.48
496.029	8313.05
496.232	8216.79
496.436	8216.79
496.639	8704.21
496.843	8456.4
497.046	8597.71
497.249	8827.09
497.453	8607.95
497.656	8939.72
497.859	8798.42
498.063	8988.88
498.266	9099.47
498.469	9205.96
498.673	8995.02
498.876	9238.73
499.079	9330.89
499.282	9556.16
499.485	9758.91
499.689	9595.07
499.892	9984.19
500.095	9781.44
500.298	10137.79
500.501	9976
500.705	10016.96
500.908	10514.61
501.111	10512.56
501.314	10797.23
501.517	10670.26
501.72	10819.76
501.923	10782.9
502.126	11112.62
502.329	11223.21
502.532	11333.8
502.735	11200.68
502.938	11464.87
503.141	11698.34
503.344	11868.32
503.547	11667.62
503.75	12245.15
503.953	12347.54
504.156	12128.41
504.359	12519.57
504.562	12112.03
504.765	12800.15
504.968	12701.84
505.17	12839.06
505.373	13031.57
505.576	13303.95
505.779	13482.12
505.982	13445.26
506.185	13779.08
506.387	13594.76
506.59	13666.44
506.793	14317.69
506.996	13996.16
507.198	14473.34
507.401	14309.5
507.604	14467.19
507.807	14954.61
508.009	14827.64
508.212	15132.78
508.415	15407.21
508.617	15405.16
508.82	15509.61
509.022	15607.91
509.225	16056.42
509.428	15677.54
509.63	15904.87
509.833	16189.53
510.035	16506.97
510.238	16519.26
510.44	16529.5
510.643	16640.09
510.845	17023.06
511.048	16941.14
511.25	17291.34
511.453	17350.73
511.655	18143.3
511.858	17799.24
512.06	17889.35
512.262	17989.7
512.465	18100.29
512.667	18460.73
512.87	18751.54
513.072	18638.9
513.274	19105.84
513.477	19198
513.679	19398.7
513.881	19544.11
514.084	19812.39
514.286	19601.45
514.488	19726.38
514.69	20391.97
514.893	20285.47
515.095	20635.67
515.297	20721.69
515.499	20992.02
515.701	21035.03
515.904	21102.61
516.106	21559.31
516.308	21549.07
516.51	21811.21
516.712	21882.89
516.914	22128.64
517.116	22681.6
517.318	22712.31
517.52	22841.34
517.722	22796.28
517.925	23238.64
518.127	23425.01
518.329	23736.3
518.531	23633.9
518.733	23947.24
518.935	23820.27
519.136	23912.42
519.338	24553.44
519.54	24580.06
519.742	24883.16
519.944	24844.25
520.146	25163.73
520.348	25446.35
520.55	25374.67
520.752	25288.66
520.954	25995.21
521.155	25962.44
521.357	26333.12
521.559	26896.31
521.761	26931.13
521.963	26527.68
522.164	27187.13
522.366	27105.21
522.568	27295.67
522.77	27549.62
522.971	27641.78
523.173	27758.51
523.375	28000.17
523.576	27838.38
523.778	27908.01
523.98	28563.36
524.181	28610.46
524.383	28407.72
524.584	29136.79
524.786	29061.02
524.988	29001.63
525.189	28942.24
525.391	29228.95
525.592	29607.83
525.794	29675.41
525.995	29646.74
526.197	29616.02
526.398	29955.98
526.6	29892.49
526.801	30312.33
527.003	30341
527.204	30482.31
527.406	30875.52
527.607	30732.16
527.808	30846.85
528.01	30375.81
528.211	30977.92
528.412	31809.39
528.614	31033.21
528.815	31143.8
529.016	31459.19
529.218	31147.9
529.419	31360.89
529.62	31293.3
529.822	31430.52
530.023	31657.84
530.224	31745.9
530.425	31647.6
530.626	31295.35
530.828	31231.86
531.029	32350.06
531.23	31641.46
531.431	31586.16
531.632	31909.74
531.833	32044.91
532.035	32044.91
532.236	32159.59
532.437	32167.79
532.638	32141.16
532.839	31854.45
533.04	32466.79
533.241	31987.57
533.442	32784.23
533.643	32223.08
533.844	32270.18
534.045	32911.2
534.246	32411.49
534.447	32720.74
534.648	32444.26
534.849	32687.97
535.05	32434.02
535.251	32587.62
535.451	32198.51
535.652	32745.31
535.853	32917.34
536.054	32497.51
536.255	32436.07
536.456	32141.16
536.657	32993.12
536.857	32403.3
537.058	32642.92
537.259	32798.56
537.46	32366.44
537.66	32618.34
537.861	32470.89
538.062	32438.12
538.263	32913.25
538.463	32450.41
538.664	32425.83
538.865	32444.26
539.065	32780.13
539.266	32472.93
539.466	33001.31
539.667	32335.72
539.868	32909.15
540.068	32749.41
540.269	32485.22
540.469	32747.36
540.67	32337.77
540.87	32446.31
541.071	32614.24
541.271	32825.18
541.472	32667.49
541.672	32882.53
541.873	32280.42
542.073	32718.69
542.274	33103.71
542.474	32448.36
542.675	32448.36
542.875	32577.38
543.075	32866.14
543.276	32481.13
543.476	32776.03
543.676	32507.75
543.877	32890.72
544.077	32554.85
544.277	32589.67
544.478	32474.98
544.678	32624.48
544.878	32730.98
545.078	32984.93
545.279	32653.16
545.479	32554.85
545.679	32671.59
545.879	32528.23
546.079	32489.32
546.28	32364.39
546.48	32524.13
546.68	32565.09
546.88	32933.73
547.08	32681.83
547.28	32362.34
547.48	32229.23
547.68	32671.59
547.88	32651.11
548.081	32620.39
548.281	32810.85
548.481	32712.55
548.681	33148.76
548.881	32755.55
549.081	32765.79
549.28	32616.29
549.48	32745.31
549.68	32718.69
549.88	33238.87
550.08	32583.52
550.28	32702.31
550.48	32552.8
550.68	32843.62
550.88	32362.34
551.08	32358.25
551.279	32683.87
551.479	31960.94
551.679	32382.82
551.879	32464.74
552.079	32808.8
552.278	32376.68
552.478	32870.24
552.678	32534.37
552.878	32561
553.077	32472.93
553.277	32348.01
553.477	32681.83
553.676	32239.47
553.876	32552.8
554.076	32321.38
554.275	32405.35
554.475	32190.31
554.674	32427.88
554.874	32182.12
555.074	32593.76
555.273	32384.87
555.473	32575.33
555.672	32137.07
555.872	32378.73
556.071	32395.11
556.271	32362.34
556.47	31907.69
556.67	32415.59
556.869	31960.94
557.068	32235.37
557.268	32022.38
557.467	32210.79
557.667	32006
557.866	31874.93
558.065	31928.17
558.265	32128.88
558.464	32092.01
558.663	32251.75
558.863	31623.03
559.062	32302.95
559.261	31424.37
559.461	32106.35
559.66	31233.91
559.859	31741.81
560.058	31133.56
560.258	31733.62
560.457	31119.23
560.656	31416.18
560.855	31195
561.054	31350.65
561.253	31174.52
561.453	31682.42
561.652	31418.23
561.851	31620.98
562.05	31344.5
562.249	30977.92
562.448	31336.31
562.647	31270.78
562.846	31104.89
563.045	31455.09
563.244	30918.53
563.443	31291.26
563.642	30959.48
563.841	31131.51
564.04	30908.29
564.239	31383.41
564.438	30640
564.637	31113.08
564.836	30738.3
565.035	30439.3
565.234	30443.4
565.432	30789.5
565.631	30369.67
565.83	30926.72
566.029	30666.63
566.228	30236.55
566.427	30232.46
566.625	30166.92
566.824	30025.61
567.023	30533.51
567.222	29872.01
567.42	30117.77
567.619	29966.22
567.818	30011.28
568.016	29812.62
568.215	30044.04
568.414	29859.73
568.612	29792.14
568.811	29597.59
569.01	29921.16
569.208	29435.8
569.407	29327.25
569.605	29106.07
569.804	29609.87
570.002	29364.12
570.201	29333.4
570.4	29042.59
570.598	29593.49
570.797	28993.43
570.995	29063.07
571.193	29050.78
571.392	29106.07
571.59	28764.06
571.789	28848.03
571.987	29069.21
572.186	28639.14
572.384	28716.96
572.582	28729.25
572.781	28727.2
572.979	28473.25
573.177	28411.81
573.376	28495.78
573.574	28293.03
573.772	28362.66
573.971	28219.3
574.169	28069.8
574.367	27862.96
574.565	28192.68
574.763	28434.34
574.962	27881.39
575.16	27465.65
575.358	27936.68
575.556	27484.08
575.754	27836.33
575.952	27760.56
576.151	27713.45
576.349	27285.43
576.547	27535.28
576.745	27606.96
576.943	27398.07
577.141	27217.85
577.339	27197.37
577.537	27254.71
577.735	27187.13
577.933	27060.15
578.131	27322.29
578.329	26861.5
578.527	26857.4
578.725	26757.05
578.923	26980.28
579.121	26585.02
579.319	26779.58
579.516	26683.33
579.714	26535.87
579.912	26458.05
580.11	26552.26
580.308	26671.04
580.506	26503.1
580.704	26216.39
580.901	26482.63
581.099	26642.37
581.297	26134.47
581.495	25927.63
581.692	25995.21
581.89	25952.2
582.088	26310.6
582.285	25423.83
582.483	26042.31
582.681	25759.69
582.878	25681.87
583.076	25577.42
583.274	25661.39
583.471	25143.25
583.669	25270.23
583.866	25380.82
584.064	25219.03
584.262	24958.94
584.459	25526.22
584.657	25178.07
584.854	25561.04
585.052	24874.97
585.249	24846.3
585.447	24770.52
585.644	24532.96
585.841	24971.22
586.039	25171.93
586.236	24580.06
586.434	24463.33
586.631	24516.58
586.828	24410.08
587.026	24461.28
587.223	24580.06
587.42	24332.26
587.618	24494.05
587.815	24043.49
588.012	24053.73
588.21	23775.21
588.407	24332.26
588.604	23957.48
588.801	24166.37
588.999	23724.01
589.196	23750.63
589.393	23869.42
589.59	23584.75
589.787	23594.99
589.984	23574.51
590.182	23377.9
590.379	23273.46
590.576	23224.31
590.773	23263.22
590.97	23347.19
591.167	23238.64
591.364	23007.22
591.561	23345.14
591.758	23001.08
591.955	23001.08
592.152	23130.1
592.349	22661.12
592.546	23023.61
592.743	22900.73
592.94	22620.16
593.137	22829.05
593.334	22716.41
593.531	22315.01
593.727	22437.89
593.924	22482.94
594.121	22290.43
594.318	22366.21
594.515	22067.2
594.712	22249.47
594.908	22366.21
595.105	22282.24
595.302	21686.28
595.499	21757.96
595.696	21829.64
595.892	21735.43
596.089	21940.23
596.286	21745.67
596.482	21698.57
596.679	21385.23
596.876	21893.13
597.072	21475.34
597.269	21100.56
597.466	21321.74
597.662	21258.26
597.859	21368.85
598.055	21217.3
598.252	21086.23
598.448	21059.6
598.645	21151.76
598.841	20850.71
599.038	20992.02
599.234	20965.4
599.431	20895.77
599.627	20459.55
599.824	20529.18
600.02	20832.28
600.217	20860.95
600.413	20598.81
600.609	20557.85
600.806	20336.67
601.002	20258.85
601.198	20320.29
601.395	20181.03
601.591	20187.17
601.787	20242.46
601.984	20070.44
602.18	20432.93
602.376	20043.81
602.572	19896.36
602.769	19941.41
602.965	19644.46
603.161	19615.79
603.357	19644.46
603.553	19671.08
603.75	19564.59
603.946	19613.74
604.142	19394.61
604.338	19324.97
604.534	19707.94
604.73	19261.49
604.926	19316.78
605.122	19341.36
605.318	19120.18
605.514	19085.36
605.71	19109.94
605.906	18995.25
606.102	18972.72
606.298	19048.5
606.494	18980.92
606.69	18855.99
606.886	18874.42
607.082	18524.22
607.278	18810.93
607.474	18763.83
607.67	18726.97
607.866	18278.46
608.062	18853.94
608.257	18731.06
608.453	18538.55
608.649	18653.24
608.845	18470.97
609.041	18696.25
609.236	18491.45
609.432	18536.51
609.628	18356.29
609.824	18202.69
610.019	18247.74
610.215	18180.16
610.411	18204.74
610.606	18114.62
610.802	18300.99
610.998	18036.8
611.193	18346.05
611.389	17918.02
611.584	18034.75
611.78	17700.94
611.976	17895.49
612.171	17895.49
612.367	17877.06
612.562	17852.48
612.758	17723.46
612.953	17690.7
613.149	17786.95
613.344	17633.35
613.539	18069.57
613.735	17866.82
613.93	17911.88
614.126	17492.04
614.321	17723.46
614.517	17690.7
614.712	17395.79
614.907	17449.04
615.103	17594.44
615.298	17561.67
615.493	17596.49
615.688	17430.6
615.884	17725.51
616.079	17156.18
616.274	17772.61
616.47	17170.51
616.665	17563.72
616.86	17176.66
617.055	16996.43
617.25	16990.29
617.445	17344.59
617.641	17002.58
617.836	16967.76
618.031	16842.84
618.226	16898.13
618.421	16949.33
618.616	17211.47
618.811	16662.62
619.006	16988.24
619.201	16592.98
619.396	16545.88
619.591	16390.24
619.786	16689.24
619.981	16449.63
620.176	16427.1
620.371	16453.72
620.566	16343.13
620.761	16511.07
620.956	16541.78
621.151	15689.83
621.346	16334.94
621.541	15802.47
621.735	16089.18
621.93	15859.81
622.125	15921.25
622.32	15507.56
622.515	15597.67
622.709	15757.41
622.904	15511.66
623.099	15601.77
623.294	15454.31
623.488	15306.86
623.683	15192.17
623.878	14895.22
624.072	15196.27
624.267	15169.65
624.462	14936.18
624.656	14762.1
624.851	14903.41
625.046	14796.92
625.24	14764.15
625.435	14616.69
625.629	14450.81
625.824	14514.3
626.018	14350.46
626.213	14168.19
626.407	14151.81
626.602	14149.76
626.796	14364.79
626.991	13856.9
627.185	13979.78
627.38	13779.08
627.574	13656.2
627.768	13738.12
627.963	13422.73
628.157	13428.87
628.352	13574.28
628.546	13131.92
628.74	13273.23
628.935	13119.63
629.129	13090.96
629.323	13056.14
629.517	13244.56
629.712	13039.76
629.906	12800.15
630.1	12611.73
630.294	12734.61
630.489	12849.3
630.683	12687.51
630.877	12583.06
631.071	12533.91
631.265	12615.83
631.459	12433.56
631.653	12341.4
631.848	12435.61
632.042	12146.84
632.236	12089.5
632.43	12179.61
632.624	12087.45
632.818	11976.86
633.012	11950.24
633.206	12099.74
633.4	11899.04
633.594	11792.55
633.788	11661.48
633.982	11604.13
634.176	11516.07
634.369	11608.23
634.563	11393.19
634.757	11442.34
634.951	11311.27
635.145	11487.4
635.339	11317.42
635.533	11266.22
635.726	11399.34
635.92	11145.39
636.114	11184.3
636.308	10979.5
636.501	10928.3
636.695	11053.23
636.889	10975.41
637.083	10743.99
637.276	10797.23
637.47	10700.98
637.664	10520.76
637.857	10623.16
638.051	10619.06
638.244	10617.01
638.438	10465.46
638.632	10264.76
638.825	10348.73
639.019	10361.02
639.212	10244.28
639.406	10139.83
639.599	10119.35
639.793	10125.5
639.986	10137.79
640.18	9957.57
640.373	9984.19
640.567	9881.79
640.76	9916.61
640.954	9810.11
641.147	9609.41
641.34	9500.87
641.534	9670.85
641.727	9511.11
641.92	9679.04
642.114	9509.06
642.307	9545.92
642.5	9328.84
642.694	9078.99
642.887	9226.44
643.08	9318.6
643.273	9236.68
643.467	9320.65
643.66	8988.88
643.853	9089.23
644.046	8902.86
644.239	9031.88
644.432	9007.31
644.626	8755.41
644.819	8800.46
645.012	8784.08
645.205	8966.35
645.398	8786.13
645.591	8597.71
645.784	8677.58
645.977	8661.2
646.17	8511.7
646.363	8495.32
646.556	8505.56
646.749	8386.77
646.942	8405.21
647.135	8358.1
647.328	8292.57
647.521	8229.08
647.714	8263.9
647.907	8335.57
648.099	7997.66
648.292	8134.87
648.485	8079.58
648.678	7864.54
648.871	8024.28
649.064	7852.25
649.256	7942.36
649.449	7860.45
649.642	7796.96
649.835	7780.57
650.027	7764.19
650.22	7643.36
650.413	7588.07
650.605	7420.13
650.798	7622.88
650.991	7459.04
651.183	7514.34
651.376	7317.73
651.568	7405.8
651.761	7545.06
651.954	7543.01
652.146	7276.77
652.339	7272.68
652.531	7289.06
652.724	7174.38
652.916	7129.32
653.109	7209.19
653.301	7065.83
653.494	6990.06
653.686	7096.55
653.879	7182.57
654.071	6983.91
654.263	6963.44
654.456	7049.45
654.648	7018.73
654.84	6994.15
655.033	6715.63
655.225	7000.3
655.417	6717.68
655.61	6674.67
655.802	6703.34
655.994	6783.21
656.186	6551.79
656.379	6545.65
656.571	6738.16
656.763	6430.96
656.955	6519.03
657.148	6500.59
657.34	6631.66
657.532	6310.13
657.724	6473.97
657.916	6557.94
658.108	6457.59
658.3	6383.86
658.492	6244.6
658.684	6299.89
658.876	6310.13
659.068	6166.78
659.26	6119.67
659.452	6160.63
659.644	6144.25
659.836	6021.37
660.028	5923.07
660.22	5959.93
660.412	6047.99
660.604	6021.37
660.796	6064.38
660.988	5763.33
661.18	5832.96
661.372	5748.99
661.563	5925.11
661.755	5775.61
661.947	5859.58
662.139	5738.75
662.331	5753.09
662.522	5648.64
662.714	5898.49
662.906	5740.8
663.097	5703.93
663.289	5495.04
663.481	5548.29
663.673	5409.03
663.864	5533.95
664.056	5353.73
664.247	5501.19
664.439	5292.29
664.631	5325.06
664.822	5437.7
665.014	5277.96
665.205	5411.07
665.397	5173.51
665.588	5294.34
665.78	5210.37
665.971	5386.5
666.163	5144.84
666.354	5140.74
666.546	5323.01
666.737	5077.26
666.929	5093.64
667.12	5052.68
667.311	5087.5
667.503	4884.75
667.694	5048.58
667.885	5040.39
668.077	4974.86
668.268	4825.36
668.459	4935.95
668.651	4985.1
668.842	4897.03
669.033	4995.34
669.224	4749.58
669.416	4894.99
669.607	4983.05
669.798	4901.13
669.989	4708.62
670.18	4827.4
670.371	4667.66
670.563	4710.67
670.754	4643.09
670.945	4634.89
671.136	4667.66
671.327	4626.7
671.518	4456.72
671.709	4653.33
671.9	4661.52
672.091	4630.8
672.282	4634.89
672.473	4587.79
672.664	4561.17
672.855	4555.02
673.046	4638.99
673.237	4561.17
673.428	4581.65
673.619	4538.64
673.809	4358.42
674	4428.05
674.191	4423.95
674.382	4335.89
674.573	4323.6
674.764	4434.19
674.954	4557.07
675.145	4321.56
675.336	4296.98
675.527	4262.16
675.717	4241.68
675.908	4251.92
676.099	4346.13
676.289	4335.89
676.48	4235.54
676.671	4106.52
676.861	4387.09
677.052	4239.64
677.243	4264.21
677.433	4253.97
677.624	4309.27
677.814	4319.51
678.005	4127
678.195	4174.1
678.386	4241.68
678.576	4176.15
678.767	4194.58
678.957	4151.57
679.148	4133.14
679.338	4184.34
679.529	3981.59
679.719	4170.01
679.909	4088.09
680.1	4219.16
680.29	4192.53
680.481	4028.7
680.671	4139.29
680.861	4100.37
681.052	4073.75
681.242	4028.7
681.432	4032.79
681.622	4161.81
681.813	3944.73
682.003	4090.13
682.193	4014.36
682.383	4065.56
682.573	4043.03
682.764	3932.44
682.954	4264.21
683.144	4049.18
683.334	4018.46
683.524	3895.58
683.714	3948.83
683.904	3883.29
684.094	3899.67
684.284	3883.29
684.474	4143.38
684.664	3977.5
684.854	3942.68
685.044	3836.19
685.234	3985.69
685.424	3877.15
685.614	3881.24
685.804	4026.65
685.994	3862.81
686.184	3830.04
686.374	3723.55
686.564	3797.28
686.753	3733.79
686.943	3768.6
687.133	3807.52
687.323	3629.34
687.513	3678.49
687.702	3768.6
687.892	3668.25
688.082	3635.49
688.272	3768.6
688.461	3723.55
688.651	3651.87
688.841	3623.2
689.03	3719.45
689.22	3528.99
689.41	3686.69
689.599	3608.86
689.789	3477.79
689.979	3494.18
690.168	3494.18
690.358	3504.42
690.547	3508.51
690.737	3512.61
690.926	3506.46
691.116	3346.72
691.305	3457.31
691.495	3438.88
691.684	3281.19
691.874	3387.68
692.063	3279.14
692.252	3273
692.442	3318.05
692.631	3352.87
692.82	3209.51
693.01	3199.27
693.199	3225.89
693.388	3176.74
693.578	3186.98
693.767	3109.16
693.956	3178.79
694.146	3066.15
694.335	3160.36
694.524	3207.46
694.713	3172.64
694.902	3084.58
695.092	3088.68
695.281	3137.83
695.47	3107.11
695.659	3074.34
695.848	3051.81
696.037	3084.58
696.226	3131.69
696.415	3023.14
696.604	2976.04
696.793	3053.86
696.982	2994.47
697.171	3025.19
697.36	3021.1
697.549	3012.9
697.738	2873.64
697.927	3014.95
698.116	3035.43
698.305	2896.17
698.494	2980.14
698.683	2859.31
698.872	2947.37
699.061	2908.46
699.25	3070.25
699.438	2892.07
699.627	2900.27
699.816	2969.9
700.005	2853.16
700.193	2992.42
700.382	2988.33
700.571	2926.89
700.76	3021.1
700.948	2951.46
701.137	2943.27
701.326	2871.59
701.514	2865.45
701.703	2898.22
701.892	2779.43
702.08	2947.37
702.269	2887.98
702.457	2902.31
702.646	2877.74
702.834	2922.79
703.023	2849.07
703.212	2867.5
703.4	2959.66
703.589	2900.27
703.777	2892.07
703.965	2810.15
704.154	2908.46
704.342	2763.05
704.531	2756.91
704.719	2771.24
704.907	2877.74
705.096	2851.11
705.284	2822.44
705.472	2849.07
705.661	2941.22
705.849	2844.97
706.037	2746.67
706.226	2984.23
706.414	2842.92
706.602	2734.38
706.79	2926.89
706.979	2822.44
707.167	2916.65
707.355	2851.11
707.543	2820.39
707.731	2853.16
707.919	2781.48
708.107	2898.22
708.296	2734.38
708.484	2763.05
708.672	2816.3
708.86	2822.44
709.048	2787.63
709.236	2816.3
709.424	2869.55
709.612	2836.78
709.8	2736.43
709.988	2724.14
710.176	2830.63
710.364	2816.3
710.551	2824.49
710.739	2732.33
710.927	2892.07
711.115	2791.72
711.303	2830.63
711.491	2732.33
711.679	2871.59
711.866	2851.11
712.054	2818.35
712.242	2785.58
712.43	2933.03
712.617	2795.82
712.805	2806.06
712.993	2785.58
713.181	2763.05
713.368	2824.49
713.556	2795.82
713.744	2867.5
713.931	2670.89
714.119	2855.21
714.306	2924.84
714.494	2926.89
714.682	2748.72
714.869	2777.39
715.057	2961.7
715.244	2799.91
715.432	2783.53
715.619	2756.91
715.807	2793.77
715.994	2793.77
716.182	2660.65
716.369	2791.72
716.556	2875.69
716.744	2732.33
716.931	2832.68
717.119	2769.2
717.306	2834.73
717.493	2806.06
717.681	2726.19
717.868	2761
718.055	2808.11
718.242	2707.76
718.43	2816.3
718.617	2892.07
718.804	2842.92
718.991	2861.35
719.179	2869.55
719.366	2779.43
719.553	2961.7
719.74	2844.97
719.927	2926.89
720.114	2867.5
720.301	2738.48
720.488	2703.66
720.676	2791.72
720.863	2758.96
721.05	2756.91
721.237	2822.44
721.424	2758.96
721.611	2875.69
721.798	2842.92
721.985	2730.28
722.172	2742.57
722.358	2689.32
722.545	2812.2
722.732	2816.3
722.919	2824.49
723.106	2754.86
723.293	2783.53
723.48	2771.24
723.667	2771.24
723.853	2853.16
724.04	2756.91
724.227	2849.07
724.414	2945.32
724.6	2660.65
724.787	2865.45
724.974	2930.98
725.161	2808.11
725.347	2672.94
725.534	2767.15
725.72	2859.31
725.907	2804.01
726.094	2861.35
726.28	2709.8
726.467	2787.63
726.653	2779.43
726.84	2736.43
727.027	2828.59
727.213	2820.39
727.4	2732.33
727.586	2804.01
727.773	2847.02
727.959	2838.83
728.145	2834.73
728.332	2869.55
728.518	2836.78
728.705	2863.4
728.891	2769.2
729.077	2818.35
729.264	2799.91
729.45	2668.84
729.636	2885.93
729.823	2756.91
730.009	2838.83
730.195	2765.1
730.382	2814.25
730.568	2812.2
730.754	2828.59
730.94	2756.91
731.126	2849.07
731.313	2756.91
731.499	2695.47
731.685	2742.57
731.871	2740.52
732.057	2875.69
732.243	2847.02
732.429	2752.81
732.615	2711.85
732.801	2785.58
732.987	2752.81
733.173	2787.63
733.359	2740.52
733.545	2853.16
733.731	2689.32
733.917	2761
734.103	2765.1
734.289	2787.63
734.475	2627.89
734.661	2847.02
734.847	2722.09
735.033	2787.63
735.219	2742.57
735.404	2820.39
735.59	2777.39
735.776	2842.92
735.962	2885.93
736.148	2935.08
736.333	2885.93
736.519	2771.24
736.705	2838.83
736.89	2656.56
737.076	2713.9
737.262	2689.32
737.447	2730.28
737.633	2847.02
737.819	2736.43
738.004	2763.05
738.19	2548.01
738.375	2711.85
738.561	2652.46
738.747	2689.32
738.932	2715.95
739.118	2761
739.303	2658.6
739.489	2679.08
739.674	2724.14
739.859	2640.17
740.045	2699.56
740.23	2539.82
740.416	2705.71
740.601	2703.66
740.786	2619.69
740.972	2629.93
741.157	2638.13
741.342	2588.97
741.528	2668.84
741.713	2650.41
741.898	2513.2
742.084	2492.72
742.269	2724.14
742.454	2607.41
742.639	2713.9
742.824	2576.69
743.01	2570.54
743.195	2580.78
743.38	2564.4
743.565	2492.72
743.75	2492.72
743.935	2423.09
744.12	2631.98
744.305	2478.38
744.49	2423.09
744.675	2453.81
744.86	2535.73
745.045	2398.51
745.23	2330.93
745.415	2427.18
745.6	2345.27
745.785	2361.65
745.97	2437.42
746.155	2345.27
746.34	2425.14
746.525	2191.67
746.71	2310.45
746.895	2234.68
747.079	2339.12
747.264	2220.34
747.449	2392.37
747.634	2246.96
747.819	2214.2
748.003	2187.57
748.188	2255.15
748.373	2253.11
748.557	2263.35
748.742	2265.39
748.927	2257.2
749.111	2087.22
749.296	2191.67
749.481	2076.98
749.665	2113.85
749.85	2062.65
750.034	2109.75
750.219	2130.23
750.404	2130.23
750.588	2038.07
750.773	2036.02
750.957	2150.71
751.141	1939.77
751.326	2036.02
751.51	2005.3
751.695	2021.69
751.879	2017.59
752.064	1990.97
752.248	1927.48
752.432	1913.14
752.617	1874.23
752.801	2042.17
752.985	1849.66
753.17	1872.18
753.354	1837.37
753.538	1898.81
753.722	1769.79
753.907	1780.03
754.091	1835.32
754.275	1790.27
754.459	1792.31
754.643	1730.87
754.828	1755.45
755.012	1747.26
755.196	1675.58
755.38	1722.68
755.564	1648.96
755.748	1763.64
755.932	1751.35
756.116	1880.38
756.3	1626.43
756.484	1632.57
756.668	1665.34
756.852	1593.66
757.036	1554.75
757.22	1700.16
757.404	1618.24
757.588	1534.27
757.772	1571.13
757.956	1495.36
758.14	1601.85
758.323	1476.93
758.507	1485.12
758.691	1435.97
758.875	1495.36
759.059	1470.78
759.242	1466.69
759.426	1542.46
759.61	1433.92
759.794	1466.69
759.977	1542.46
760.161	1540.41
760.345	1489.21
760.528	1395.01
760.712	1409.34
760.895	1409.34
761.079	1526.08
761.263	1407.3
761.446	1354.05
761.63	1368.38
761.813	1331.52
761.997	1265.99
762.18	1292.61
762.364	1263.94
762.547	1296.71
762.731	1292.61
762.914	1274.18
763.098	1329.47
763.281	1249.6
763.464	1278.27
763.648	1319.23
763.831	1272.13
764.015	1188.16
764.198	1208.64
764.381	1265.99
764.564	1186.12
764.748	1327.43
764.931	1126.72
765.114	1153.35
765.297	1292.61
765.481	1204.55
765.664	1270.08
765.847	1186.12
766.03	1210.69
766.213	1147.2
766.397	1124.68
766.58	1255.75
766.763	1249.6
766.946	1128.77
767.129	1132.87
767.312	1294.66
767.495	1141.06
767.678	1130.82
767.861	1042.76
768.044	1190.21
768.227	1136.96
768.41	1028.42
768.593	1169.73
768.776	1192.26
768.959	1028.42
769.142	1079.62
769.324	1151.3
769.507	1167.68
769.69	1065.29
769.873	1100.1
770.056	1159.49
770.239	1001.8
770.421	1026.37
770.604	1009.99
770.787	1102.15
770.97	1059.14
771.152	1042.76
771.335	1102.15
771.518	1022.28
771.7	1024.33
771.883	1036.61
772.066	1096
772.248	1028.42
772.431	1018.18
772.613	993.61
772.796	964.93
772.978	1098.05
773.161	985.41
773.343	1040.71
773.526	975.17
773.708	1067.33
773.891	907.59
774.073	903.5
774.256	958.79
774.438	1046.85
774.621	893.26
774.803	913.74
774.985	893.26
775.168	999.75
775.35	864.58
775.532	919.88
775.715	846.15
775.897	850.25
776.079	858.44
776.261	854.34
776.444	909.64
776.626	844.1
776.808	850.25
776.99	856.39
777.173	854.34
777.355	788.81
777.537	895.3
777.719	831.82
777.901	825.67
778.083	805.19
778.265	741.71
778.447	891.21
778.629	756.04
778.811	848.2
778.993	737.61
779.175	747.85
779.357	784.71
779.539	698.7
779.721	768.33
779.903	702.79
780.085	704.84
780.267	825.67
780.449	745.8
780.631	723.27
780.812	727.37
780.994	778.57
781.176	672.08
781.358	659.79
781.54	661.84
781.721	692.55
781.903	561.48
782.085	598.35
782.267	643.4
782.448	688.46
782.63	680.27
782.812	629.07
782.993	635.21
783.175	624.97
783.357	618.83
783.538	620.88
783.72	639.31
783.901	620.88
784.083	561.48
784.264	614.73
784.446	608.59
784.627	629.07
784.809	559.44
784.99	633.16
785.172	534.86
785.353	618.83
785.535	543.05
785.716	493.9
785.897	563.53
786.079	588.11
786.26	616.78
786.441	479.57
786.623	450.89
786.804	571.72
786.985	444.75
787.167	588.11
787.348	493.9
787.529	516.43
787.71	516.43
787.891	528.72
788.073	479.57
788.254	475.47
788.435	559.44
788.616	487.76
788.797	436.56
788.978	461.13
789.159	508.24
789.34	498
789.522	409.94
789.703	389.46
789.884	469.33
790.065	452.94
790.246	536.91
790.427	465.23
790.607	485.71
790.788	409.94
790.969	448.85
791.15	450.89
791.331	438.61
791.512	432.46
791.693	338.26
791.874	475.47
792.054	489.81
792.235	446.8
792.416	411.98
792.597	399.7
792.778	418.13
792.958	444.75
793.139	323.92
793.32	461.13
793.5	389.46
793.681	430.41
793.862	401.74
794.042	379.22
794.223	389.46
794.404	360.78
794.584	332.11
794.765	371.02
794.945	432.46
795.126	442.7
795.306	305.49
795.487	328.02
795.667	330.06
795.848	481.61
796.028	373.07
796.209	330.06
796.389	344.4
796.57	338.26
796.75	360.78
796.93	354.64
797.111	373.07
797.291	354.64
797.471	393.55
797.652	338.26
797.832	319.82
798.012	303.44
798.192	342.35
798.373	258.39
798.553	291.15
798.733	305.49
798.913	289.1
799.093	350.54
799.274	244.05
799.454	282.96
799.634	323.92
799.814	330.06
799.994	305.49
800.174	274.77
800.354	391.5
800.534	237.91
800.714	385.36
800.894	280.91
801.074	260.43
801.254	280.91
801.434	297.3
801.614	282.96
801.794	256.34
801.974	729.42
802.154	344.4
802.334	215.38
802.514	254.29
802.693	260.43
802.873	317.78
803.053	285.01
803.233	205.14
803.413	338.26
803.592	244.05
803.772	270.67
803.952	250.19
804.131	162.13
804.311	303.44
804.491	393.55
804.67	217.43
804.85	196.95
805.03	336.21
805.209	270.67
805.389	211.28
805.568	235.86
805.748	176.47
805.928	319.82
806.107	246.1
806.287	287.06
806.466	276.82
806.646	301.39
806.825	260.43
807.004	201.04
807.184	217.43
807.363	229.71
807.543	311.63
807.722	215.38
807.901	215.38
808.081	250.19
808.26	239.95
808.439	301.39
808.619	313.68
808.798	203.09
808.977	282.96
809.156	186.71
809.336	227.67
809.515	242
809.694	217.43
809.873	196.95
810.052	190.8
810.231	201.04
810.411	176.47
810.59	258.39
810.769	194.9
810.948	244.05
811.127	160.08
811.306	203.09
811.485	248.15
811.664	207.19
811.843	235.86
812.022	198.99
812.201	244.05
812.38	223.57
812.559	178.51
812.737	174.42
812.916	96.6
813.095	149.84
813.274	141.65
813.453	180.56
813.632	180.56
813.811	141.65
813.989	180.56
814.168	194.9
814.347	256.34
814.526	221.52
814.704	260.43
814.883	280.91
815.062	168.27
815.24	174.42
815.419	186.71
815.598	155.99
815.776	133.46
815.955	139.6
816.133	166.23
816.312	172.37
816.49	260.43
816.669	174.42
816.847	172.37
817.026	110.93
817.204	192.85
817.383	203.09
817.561	213.33
817.74	268.63
817.918	131.41
818.097	131.41
818.275	139.6
818.453	196.95
818.632	213.33
818.81	184.66
818.988	172.37
819.167	209.23
819.345	129.36
819.523	182.61
819.701	188.75
819.879	170.32
820.058	182.61
820.236	158.03
820.414	137.56
820.592	205.14
820.77	196.95
820.948	229.71
821.127	170.32
821.305	166.23
821.483	149.84
821.661	194.9
821.839	201.04
822.017	135.51
822.195	184.66
822.373	180.56
822.551	184.66
822.729	194.9
822.907	143.7
823.085	90.45
823.262	104.79
823.44	174.42
823.618	139.6
823.796	121.17
823.974	153.94
824.152	180.56
824.329	135.51
824.507	153.94
824.685	168.27
824.863	153.94
825.04	110.93
825.218	180.56
825.396	106.84
825.574	141.65
825.751	149.84
825.929	166.23
826.107	100.69
826.284	94.55
826.462	139.6
826.639	100.69
826.817	170.32
826.994	135.51
827.172	61.78
827.349	180.56
827.527	149.84
827.704	59.73
827.882	180.56
828.059	209.23
828.237	168.27
828.414	207.19
828.591	143.7
828.769	123.22
828.946	117.08
829.124	102.74
829.301	143.7
829.478	100.69
829.655	194.9
829.833	131.41
830.01	151.89
830.187	92.5
830.364	115.03
830.542	69.97
830.719	166.23
830.896	127.32
831.073	147.8
831.25	137.56
831.427	82.26
831.604	153.94
831.782	119.12
831.959	112.98
832.136	65.88
832.313	149.84
832.49	102.74
832.667	115.03
832.844	49.49
833.021	117.08
833.198	123.22
833.374	106.84
833.551	61.78
833.728	104.79
833.905	106.84
834.082	125.27
834.259	160.08
834.436	188.75
834.612	104.79
834.789	176.47
834.966	102.74
835.143	115.03
835.319	205.14
835.496	92.5
835.673	92.5
835.85	121.17
836.026	117.08
836.203	182.61
836.38	108.88
836.556	37.2
836.733	115.03
836.909	160.08
837.086	43.35
837.262	45.4
837.439	117.08
837.616	94.55
837.792	125.27
837.968	108.88
838.145	35.16
838.321	112.98
838.498	57.68
838.674	98.64
838.851	12.63
839.027	41.3
839.203	129.36
839.38	119.12
839.556	55.64
839.732	76.12
839.909	141.65
840.085	160.08
840.261	57.68
840.437	65.88
840.614	84.31
840.79	112.98
840.966	98.64
841.142	98.64
841.318	92.5
841.494	121.17
841.671	100.69
841.847	158.03
842.023	61.78
842.199	110.93
842.375	92.5
842.551	55.64
842.727	4.44
842.903	80.21
843.079	129.36
843.255	106.84
843.431	88.4
843.607	141.65
843.783	72.02
843.959	69.97
844.134	76.12
844.31	133.46
844.486	76.12
844.662	74.07
844.838	96.6
845.013	82.26
845.189	12.63
845.365	43.35
845.541	55.64
845.716	121.17
845.892	121.17
846.068	115.03
846.244	67.92
846.419	84.31
846.595	76.12
846.77	35.16
846.946	102.74
847.122	57.68
847.297	41.3
847.473	145.75
847.648	63.83
847.824	119.12
847.999	39.25
848.175	59.73
848.35	-9.9
848.526	72.02
848.701	55.64
848.876	78.16
849.052	84.31
849.227	65.88
849.403	47.44
849.578	102.74
849.753	100.69
849.929	22.87
850.104	92.5
850.279	86.36
850.454	47.44
850.63	96.6
850.805	100.69
850.98	61.78
851.155	59.73
851.33	74.07
851.505	43.35
851.681	33.11
851.856	-38.57
852.031	10.58
852.206	26.96
852.381	31.06
852.556	-9.9
852.731	133.46
852.906	4.44
853.081	51.54
853.256	33.11
853.431	80.21
853.606	59.73
853.781	61.78
853.956	29.01
854.131	106.84
854.305	158.03
854.48	117.08
854.655	2.39
854.83	8.53
855.005	78.16
855.18	112.98
855.354	67.92
855.529	47.44
855.704	131.41
855.879	0.34
856.053	2.39
856.228	127.32
856.403	72.02
856.577	55.64
856.752	33.11
856.926	104.79
857.101	2.39
857.276	18.77
857.45	65.88
857.625	16.73
857.799	72.02
857.974	84.31
858.148	18.77
858.323	33.11
858.497	135.51
858.672	69.97
858.846	-1.71
859.02	41.3
859.195	57.68
859.369	-13.99
859.543	12.63
859.718	55.64
859.892	14.68
860.066	-34.47
860.241	2.39
860.415	82.26
860.589	69.97
860.763	57.68
860.938	98.64
861.112	31.06
861.286	20.82
861.46	35.16
861.634	26.96
861.808	82.26
861.982	53.59
862.157	47.44
862.331	0.34
862.505	98.64
862.679	26.96
862.853	80.21
863.027	80.21
863.201	67.92
863.375	-34.47
863.549	65.88
863.722	41.3
863.896	59.73
864.07	35.16
864.244	82.26
864.418	47.44
864.592	33.11
864.766	92.5
864.939	57.68
865.113	-50.86
865.287	72.02
865.461	-16.04
865.634	24.92
865.808	84.31
865.982	-9.9
866.156	39.25
866.329	51.54
866.503	-22.19
866.676	76.12
866.85	12.63
867.024	41.3
867.197	31.06
867.371	2.39
867.544	-13.99
867.718	39.25
867.891	12.63
868.065	162.13
868.238	127.32
868.412	112.98
868.585	10.58
868.759	59.73
868.932	-38.57
869.105	45.4
869.279	47.44
869.452	-13.99
869.625	-54.95
869.799	74.07
869.972	43.35
870.145	90.45
870.319	4.44
870.492	39.25
870.665	63.83
870.838	31.06
871.011	-5.8
871.185	18.77
871.358	2.39
871.531	74.07
871.704	31.06
871.877	98.64
872.05	94.55
872.223	26.96
872.396	4.44
872.569	39.25
872.742	112.98
872.915	65.88
873.088	72.02
873.261	16.73
873.434	-18.09
873.607	51.54
873.78	24.92
873.953	53.59
874.126	51.54
874.299	57.68
874.471	84.31
874.644	-40.62
874.817	45.4
874.99	92.5
875.163	-36.52
875.335	98.64
875.508	26.96
875.681	69.97
875.853	43.35
876.026	10.58
876.199	88.4
876.371	41.3
876.544	49.49
876.717	108.88
876.889	45.4
877.062	-3.75
877.234	-9.9
877.407	78.16
877.579	-9.9
877.752	22.87
877.924	69.97
878.097	53.59
878.269	45.4
878.442	84.31
878.614	6.49
878.786	4.44
878.959	-28.33
879.131	22.87
879.303	-42.67
879.476	39.25
879.648	-5.8
879.82	53.59
879.993	51.54
880.165	88.4
880.337	-9.9
880.509	29.01
880.681	-22.19
880.854	14.68
881.026	82.26
881.198	53.59
881.37	29.01
881.542	47.44
881.714	76.12
881.886	-32.43
882.058	45.4
882.23	43.35
882.402	92.5
882.574	47.44
882.746	-20.14
882.918	59.73
883.09	35.16
883.262	74.07
883.434	6.49
883.606	51.54
883.778	6.49
883.95	55.64
884.122	-5.8
884.293	45.4
884.465	51.54
884.637	117.08
884.809	16.73
884.98	94.55
885.152	65.88
885.324	90.45
885.496	0.34
885.667	6.49
885.839	45.4
886.011	80.21
886.182	-22.19
886.354	-40.62
886.525	18.77
886.697	49.49
886.869	29.01
887.04	45.4
887.212	59.73
887.383	86.36
887.555	37.2
887.726	-3.75
887.897	39.25
888.069	53.59
888.24	8.53
888.412	82.26
888.583	92.5
888.754	41.3
888.926	-11.95
889.097	-26.28
889.268	-28.33
889.44	125.27
889.611	0.34
889.782	-3.75
889.953	-18.09
890.125	153.94
890.296	-52.91
890.467	16.73
890.638	41.3
890.809	31.06
890.98	92.5
891.151	61.78
891.323	33.11
891.494	41.3
891.665	-22.19
891.836	16.73
892.007	6.49
892.178	-5.8
892.349	43.35
892.52	47.44
892.691	-11.95
892.862	-1.71
893.032	-5.8
893.203	8.53
893.374	4.44
893.545	22.87
893.716	29.01
893.887	47.44
894.057	43.35
894.228	57.68
894.399	-18.09
894.57	80.21
894.74	29.01
894.911	84.31
895.082	37.2
895.253	24.92
895.423	26.96
895.594	0.34
895.764	12.63
895.935	45.4
896.106	55.64
896.276	8.53
896.447	47.44
896.617	0.34
896.788	24.92
896.958	2.39
897.129	20.82
897.299	4.44
897.47	-30.38
897.64	112.98
897.81	39.25
897.981	-5.8
898.151	35.16
898.322	31.06
898.492	12.63
898.662	-18.09
898.832	49.49
899.003	63.83
899.173	33.11
899.343	29.01
899.513	4.44
