Data from USB4F104151__66__12-27-42-231.txt Node

Date: Fri Mar 14 12:27:42 EDT 2025
User: louis
Spectrometer: USB4F10415
Trigger mode: 4
Integration Time (sec): 2.000000E-2
Scans to average: 1
Electric dark correction enabled: true
Nonlinearity correction enabled: false
Boxcar width: 0
XAxis mode: Wavelengths
Number of Pixels in Spectrum: 3648
>>>>>Begin Spectral Data<<<<<
178.204	-117.93
178.424	-117.93
178.644	-117.93
178.864	-162.98
179.084	-109.74
179.304	21.33
179.524	-7.34
179.744	-7.34
179.964	2.9
180.184	-25.77
180.404	2.9
180.624	-3.24
180.844	-17.58
181.064	-54.44
181.283	47.96
181.503	45.91
181.723	-5.29
181.943	-3.24
182.163	84.82
182.383	-5.29
182.602	-31.91
182.822	39.76
183.042	-25.77
183.262	-3.24
183.482	35.67
183.701	11.09
183.921	19.29
184.141	31.57
184.361	21.33
184.58	33.62
184.8	-38.06
185.02	9.05
185.239	45.91
185.459	23.38
185.679	41.81
185.898	35.67
186.118	31.57
186.338	-23.72
186.557	37.72
186.777	-48.3
186.997	-11.43
187.216	27.48
187.436	-7.34
187.655	-3.24
187.875	76.63
188.095	-68.78
188.314	27.48
188.534	2.9
188.753	-3.24
188.973	74.58
189.192	60.24
189.412	-5.29
189.631	39.76
189.851	66.39
190.07	70.48
190.29	-81.07
190.509	41.81
190.729	-11.43
190.948	52.05
191.168	82.77
191.387	39.76
191.607	-124.07
191.826	0.85
192.045	68.44
192.265	33.62
192.484	31.57
192.704	-17.58
192.923	7
193.142	158.55
193.362	43.86
193.581	72.53
193.8	0.85
194.02	-5.29
194.239	-58.54
194.458	29.52
194.678	-19.63
194.897	-40.11
195.116	19.29
195.335	11.09
195.555	13.14
195.774	-46.25
195.993	21.33
196.212	27.48
196.432	-5.29
196.651	13.14
196.87	-33.96
197.089	78.68
197.308	23.38
197.528	66.39
197.747	7
197.966	-38.06
198.185	80.72
198.404	15.19
198.623	9.05
198.842	2.9
199.062	-9.39
199.281	4.95
199.5	0.85
199.719	43.86
199.938	27.48
200.157	31.57
200.376	-17.58
200.595	39.76
200.814	21.33
201.033	-5.29
201.252	-27.82
201.471	-17.58
201.69	-3.24
201.909	88.92
202.128	-9.39
202.347	35.67
202.566	15.19
202.785	31.57
203.004	15.19
203.223	78.68
203.442	41.81
203.661	58.2
203.879	-27.82
204.098	60.24
204.317	-70.83
204.536	99.16
204.755	0.85
204.974	76.63
205.193	78.68
205.411	88.92
205.63	13.14
205.849	56.15
206.068	9.05
206.287	19.29
206.505	29.52
206.724	17.24
206.943	13.14
207.162	58.2
207.381	-3.24
207.599	45.91
207.818	68.44
208.037	29.52
208.255	-58.54
208.474	21.33
208.693	11.09
208.911	39.76
209.13	13.14
209.349	15.19
209.567	11.09
209.786	25.43
210.005	-66.73
210.223	39.76
210.442	-46.25
210.661	66.39
210.879	-1.19
211.098	-54.44
211.316	-11.43
211.535	41.81
211.753	-15.53
211.972	11.09
212.191	-38.06
212.409	31.57
212.628	9.05
212.846	33.62
213.065	43.86
213.283	37.72
213.502	-29.87
213.72	45.91
213.938	35.67
214.157	52.05
214.375	35.67
214.594	45.91
214.812	0.85
215.031	-11.43
215.249	66.39
215.467	45.91
215.686	7
215.904	41.81
216.122	-17.58
216.341	-3.24
216.559	-33.96
216.778	33.62
216.996	47.96
217.214	-29.87
217.432	2.9
217.651	15.19
217.869	25.43
218.087	35.67
218.306	76.63
218.524	23.38
218.742	-1.19
218.96	45.91
219.179	70.48
219.397	37.72
219.615	37.72
219.833	64.34
220.051	-36.01
220.27	68.44
220.488	150.36
220.706	7
220.924	37.72
221.142	76.63
221.36	-17.58
221.578	31.57
221.796	37.72
222.015	-1.19
222.233	4.95
222.451	52.05
222.669	-52.39
222.887	29.52
223.105	-52.39
223.323	-21.67
223.541	-27.82
223.759	58.2
223.977	-46.25
224.195	31.57
224.413	19.29
224.631	25.43
224.849	-17.58
225.067	15.19
225.285	-33.96
225.503	35.67
225.721	0.85
225.939	-9.39
226.157	-27.82
226.375	90.96
226.592	-9.39
226.81	19.29
227.028	33.62
227.246	45.91
227.464	31.57
227.682	39.76
227.9	60.24
228.117	25.43
228.335	58.2
228.553	2.9
228.771	-11.43
228.989	45.91
229.206	103.25
229.424	45.91
229.642	-23.72
229.86	-31.91
230.077	0.85
230.295	-38.06
230.513	66.39
230.731	31.57
230.948	21.33
231.166	-19.63
231.384	-15.53
231.601	76.63
231.819	86.87
232.037	78.68
232.254	33.62
232.472	35.67
232.689	-3.24
232.907	66.39
233.125	31.57
233.342	-27.82
233.56	54.1
233.777	-11.43
233.995	7
234.213	43.86
234.43	-42.15
234.648	-3.24
234.865	17.24
235.083	33.62
235.3	-23.72
235.518	72.53
235.735	76.63
235.953	56.15
236.17	-13.48
236.388	-31.91
236.605	7
236.822	9.05
237.04	80.72
237.257	52.05
237.475	-3.24
237.692	27.48
237.909	64.34
238.127	54.1
238.344	25.43
238.562	47.96
238.779	2.9
238.996	66.39
239.214	52.05
239.431	13.14
239.648	7
239.865	7
240.083	45.91
240.3	-9.39
240.517	37.72
240.735	2.9
240.952	-11.43
241.169	13.14
241.386	21.33
241.603	-9.39
241.821	27.48
242.038	68.44
242.255	11.09
242.472	-23.72
242.689	4.95
242.907	70.48
243.124	23.38
243.341	45.91
243.558	-25.77
243.775	47.96
243.992	-11.43
244.209	7
244.426	127.83
244.643	27.48
244.86	-36.01
245.078	29.52
245.295	-42.15
245.512	50
245.729	35.67
245.946	-11.43
246.163	-21.67
246.38	29.52
246.597	4.95
246.814	-1.19
247.031	41.81
247.248	35.67
247.464	11.09
247.681	-17.58
247.898	15.19
248.115	13.14
248.332	-7.34
248.549	84.82
248.766	64.34
248.983	11.09
249.2	109.4
249.417	80.72
249.633	70.48
249.85	13.14
250.067	41.81
250.284	15.19
250.501	0.85
250.717	-11.43
250.934	7
251.151	-11.43
251.368	-38.06
251.585	29.52
251.801	-15.53
252.018	-46.25
252.235	72.53
252.451	13.14
252.668	21.33
252.885	52.05
253.102	58.2
253.318	39.76
253.535	-7.34
253.752	-7.34
253.968	58.2
254.185	-27.82
254.401	-1.19
254.618	17.24
254.835	62.29
255.051	105.3
255.268	19.29
255.484	35.67
255.701	-15.53
255.917	37.72
256.134	-48.3
256.351	-44.2
256.567	-21.67
256.784	93.01
257	-5.29
257.217	47.96
257.433	47.96
257.65	80.72
257.866	52.05
258.082	17.24
258.299	-27.82
258.515	19.29
258.732	-9.39
258.948	-40.11
259.165	-27.82
259.381	-5.29
259.597	13.14
259.814	-25.77
260.03	103.25
260.246	33.62
260.463	45.91
260.679	13.14
260.895	-27.82
261.112	86.87
261.328	-1.19
261.544	-33.96
261.761	72.53
261.977	11.09
262.193	-7.34
262.409	15.19
262.626	7
262.842	37.72
263.058	-9.39
263.274	-17.58
263.49	29.52
263.707	7
263.923	17.24
264.139	-27.82
264.355	-31.91
264.571	58.2
264.787	4.95
265.004	-46.25
265.22	4.95
265.436	11.09
265.652	2.9
265.868	113.49
266.084	-27.82
266.3	11.09
266.516	13.14
266.732	43.86
266.948	7
267.164	50
267.38	21.33
267.596	31.57
267.812	107.35
268.028	4.95
268.244	-44.2
268.46	-3.24
268.676	37.72
268.892	-5.29
269.108	93.01
269.324	-17.58
269.54	27.48
269.756	80.72
269.972	19.29
270.188	2.9
270.403	-5.29
270.619	41.81
270.835	29.52
271.051	21.33
271.267	-50.35
271.483	2.9
271.698	25.43
271.914	-9.39
272.13	23.38
272.346	35.67
272.562	37.72
272.777	-17.58
272.993	7
273.209	43.86
273.425	2.9
273.64	4.95
273.856	-38.06
274.072	-1.19
274.287	17.24
274.503	27.48
274.719	43.86
274.934	82.77
275.15	-38.06
275.366	78.68
275.581	-17.58
275.797	-9.39
276.012	-17.58
276.228	50
276.444	-15.53
276.659	33.62
276.875	4.95
277.09	-27.82
277.306	35.67
277.521	-31.91
277.737	-17.58
277.952	17.24
278.168	54.1
278.383	93.01
278.599	37.72
278.814	21.33
279.03	76.63
279.245	25.43
279.461	41.81
279.676	52.05
279.892	-5.29
280.107	-9.39
280.322	27.48
280.538	62.29
280.753	-19.63
280.969	25.43
281.184	-48.3
281.399	-1.19
281.615	19.29
281.83	31.57
282.045	119.64
282.26	68.44
282.476	-1.19
282.691	-1.19
282.906	2.9
283.122	-25.77
283.337	45.91
283.552	39.76
283.767	-13.48
283.983	35.67
284.198	0.85
284.413	-11.43
284.628	-66.73
284.843	13.14
285.058	54.1
285.274	-23.72
285.489	37.72
285.704	72.53
285.919	-19.63
286.134	66.39
286.349	-21.67
286.564	-1.19
286.779	45.91
286.995	33.62
287.21	7
287.425	41.81
287.64	35.67
287.855	-23.72
288.07	4.95
288.285	78.68
288.5	-31.91
288.715	23.38
288.93	39.76
289.145	-23.72
289.36	13.14
289.575	47.96
289.79	37.72
290.004	0.85
290.219	19.29
290.434	-36.01
290.649	37.72
290.864	-1.19
291.079	13.14
291.294	35.67
291.509	60.24
291.724	52.05
291.938	95.06
292.153	4.95
292.368	-19.63
292.583	-33.96
292.798	11.09
293.012	2.9
293.227	58.2
293.442	25.43
293.657	54.1
293.871	84.82
294.086	2.9
294.301	68.44
294.516	7
294.73	0.85
294.945	-1.19
295.16	-1.19
295.374	-3.24
295.589	90.96
295.804	4.95
296.018	-23.72
296.233	13.14
296.447	54.1
296.662	17.24
296.877	21.33
297.091	9.05
297.306	-9.39
297.52	-23.72
297.735	-5.29
297.949	13.14
298.164	47.96
298.378	9.05
298.593	54.1
298.807	-23.72
299.022	31.57
299.236	15.19
299.451	50
299.665	74.58
299.88	41.81
300.094	27.48
300.309	21.33
300.523	19.29
300.737	35.67
300.952	25.43
301.166	58.2
301.381	-52.39
301.595	88.92
301.809	-31.91
302.024	-42.15
302.238	-42.15
302.452	68.44
302.667	35.67
302.881	56.15
303.095	66.39
303.309	39.76
303.524	-36.01
303.738	11.09
303.952	84.82
304.166	17.24
304.381	-40.11
304.595	80.72
304.809	17.24
305.023	-1.19
305.237	37.72
305.452	-9.39
305.666	66.39
305.88	60.24
306.094	41.81
306.308	7
306.522	9.05
306.736	2.9
306.95	29.52
307.164	-70.83
307.379	68.44
307.593	68.44
307.807	82.77
308.021	25.43
308.235	27.48
308.449	-5.29
308.663	-33.96
308.877	54.1
309.091	-11.43
309.305	33.62
309.519	68.44
309.733	50
309.947	68.44
310.161	37.72
310.374	25.43
310.588	23.38
310.802	-54.44
311.016	19.29
311.23	35.67
311.444	23.38
311.658	66.39
311.872	64.34
312.085	15.19
312.299	-17.58
312.513	47.96
312.727	4.95
312.941	37.72
313.154	50
313.368	117.59
313.582	31.57
313.796	41.81
314.009	50
314.223	37.72
314.437	52.05
314.651	-7.34
314.864	-15.53
315.078	88.92
315.292	82.77
315.505	-15.53
315.719	39.76
315.933	-13.48
316.146	113.49
316.36	13.14
316.573	4.95
316.787	64.34
317.001	-40.11
317.214	19.29
317.428	-27.82
317.641	33.62
317.855	105.3
318.068	68.44
318.282	74.58
318.495	121.68
318.709	25.43
318.922	78.68
319.136	68.44
319.349	41.81
319.563	-3.24
319.776	-36.01
319.99	23.38
320.203	54.1
320.417	60.24
320.63	9.05
320.843	70.48
321.057	-29.87
321.27	4.95
321.483	43.86
321.697	97.11
321.91	-13.48
322.124	41.81
322.337	29.52
322.55	2.9
322.763	19.29
322.977	23.38
323.19	9.05
323.403	37.72
323.617	-17.58
323.83	64.34
324.043	31.57
324.256	-17.58
324.469	105.3
324.683	4.95
324.896	-60.59
325.109	0.85
325.322	-9.39
325.535	31.57
325.748	31.57
325.962	19.29
326.175	-40.11
326.388	111.44
326.601	129.88
326.814	-40.11
327.027	54.1
327.24	66.39
327.453	-50.35
327.666	21.33
327.879	19.29
328.092	35.67
328.305	74.58
328.518	-27.82
328.731	68.44
328.944	29.52
329.157	68.44
329.37	-21.67
329.583	17.24
329.796	-13.48
330.009	47.96
330.222	-31.91
330.435	54.1
330.648	9.05
330.861	37.72
331.073	-54.44
331.286	17.24
331.499	23.38
331.712	13.14
331.925	25.43
332.138	7
332.35	45.91
332.563	52.05
332.776	72.53
332.989	50
333.202	52.05
333.414	-1.19
333.627	66.39
333.84	-1.19
334.053	29.52
334.265	-62.63
334.478	25.43
334.691	31.57
334.903	-25.77
335.116	-5.29
335.329	41.81
335.541	13.14
335.754	31.57
335.966	37.72
336.179	-5.29
336.392	11.09
336.604	-1.19
336.817	-13.48
337.029	52.05
337.242	54.1
337.454	54.1
337.667	4.95
337.88	45.91
338.092	4.95
338.305	17.24
338.517	29.52
338.729	41.81
338.942	52.05
339.154	78.68
339.367	54.1
339.579	27.48
339.792	15.19
340.004	29.52
340.217	54.1
340.429	70.48
340.641	54.1
340.854	25.43
341.066	17.24
341.278	76.63
341.491	56.15
341.703	-13.48
341.915	43.86
342.128	2.9
342.34	60.24
342.552	2.9
342.764	-7.34
342.977	-1.19
343.189	76.63
343.401	-13.48
343.613	56.15
343.826	9.05
344.038	13.14
344.25	0.85
344.462	-11.43
344.674	56.15
344.886	7
345.099	68.44
345.311	39.76
345.523	80.72
345.735	0.85
345.947	11.09
346.159	70.48
346.371	37.72
346.583	0.85
346.795	62.29
347.007	64.34
347.219	33.62
347.431	17.24
347.643	113.49
347.855	23.38
348.067	7
348.279	-19.63
348.491	43.86
348.703	-9.39
348.915	17.24
349.127	-83.11
349.339	19.29
349.551	78.68
349.763	82.77
349.975	-11.43
350.187	115.54
350.399	-1.19
350.61	-36.01
350.822	43.86
351.034	111.44
351.246	0.85
351.458	17.24
351.669	43.86
351.881	-3.24
352.093	31.57
352.305	23.38
352.517	62.29
352.728	66.39
352.94	31.57
353.152	31.57
353.363	23.38
353.575	54.1
353.787	25.43
353.999	29.52
354.21	-3.24
354.422	39.76
354.633	15.19
354.845	45.91
355.057	54.1
355.268	13.14
355.48	25.43
355.692	-1.19
355.903	37.72
356.115	78.68
356.326	43.86
356.538	29.52
356.749	58.2
356.961	74.58
357.172	11.09
357.384	58.2
357.595	117.59
357.807	52.05
358.018	45.91
358.23	72.53
358.441	-50.35
358.653	82.77
358.864	90.96
359.075	35.67
359.287	-29.87
359.498	50
359.709	56.15
359.921	35.67
360.132	17.24
360.344	68.44
360.555	-62.63
360.766	41.81
360.977	39.76
361.189	29.52
361.4	0.85
361.611	74.58
361.823	19.29
362.034	41.81
362.245	0.85
362.456	41.81
362.667	21.33
362.879	64.34
363.09	11.09
363.301	58.2
363.512	-11.43
363.723	-19.63
363.935	-29.87
364.146	45.91
364.357	70.48
364.568	74.58
364.779	-79.02
364.99	27.48
365.201	23.38
365.412	-23.72
365.623	39.76
365.834	25.43
366.045	43.86
366.256	58.2
366.467	68.44
366.678	99.16
366.889	52.05
367.1	43.86
367.311	62.29
367.522	33.62
367.733	74.58
367.944	13.14
368.155	47.96
368.366	50
368.577	70.48
368.788	21.33
368.999	-5.29
369.209	39.76
369.42	148.31
369.631	50
369.842	97.11
370.053	80.72
370.264	90.96
370.474	47.96
370.685	56.15
370.896	39.76
371.107	93.01
371.317	15.19
371.528	21.33
371.739	35.67
371.95	72.53
372.16	54.1
372.371	27.48
372.582	64.34
372.792	56.15
373.003	31.57
373.214	37.72
373.424	58.2
373.635	82.77
373.846	-3.24
374.056	17.24
374.267	58.2
374.477	29.52
374.688	64.34
374.898	-25.77
375.109	43.86
375.319	43.86
375.53	68.44
375.74	70.48
375.951	58.2
376.161	9.05
376.372	62.29
376.582	-7.34
376.793	-17.58
377.003	9.05
377.214	54.1
377.424	47.96
377.635	-38.06
377.845	9.05
378.055	90.96
378.266	-7.34
378.476	-9.39
378.686	82.77
378.897	-11.43
379.107	101.2
379.317	9.05
379.528	76.63
379.738	58.2
379.948	45.91
380.158	62.29
380.369	13.14
380.579	68.44
380.789	13.14
380.999	37.72
381.21	35.67
381.42	72.53
381.63	29.52
381.84	66.39
382.05	9.05
382.261	31.57
382.471	68.44
382.681	74.58
382.891	45.91
383.101	70.48
383.311	60.24
383.521	-7.34
383.731	99.16
383.941	43.86
384.151	43.86
384.361	23.38
384.571	17.24
384.781	99.16
384.991	66.39
385.201	70.48
385.411	41.81
385.621	23.38
385.831	-60.59
386.041	9.05
386.251	56.15
386.461	23.38
386.671	54.1
386.881	47.96
387.091	-7.34
387.301	45.91
387.511	54.1
387.72	-15.53
387.93	25.43
388.14	17.24
388.35	-9.39
388.56	66.39
388.769	58.2
388.979	56.15
389.189	11.09
389.399	99.16
389.609	80.72
389.818	72.53
390.028	-54.44
390.238	9.05
390.447	47.96
390.657	39.76
390.867	52.05
391.076	82.77
391.286	45.91
391.496	4.95
391.705	50
391.915	117.59
392.125	82.77
392.334	41.81
392.544	0.85
392.753	39.76
392.963	0.85
393.172	47.96
393.382	21.33
393.591	66.39
393.801	78.68
394.01	70.48
394.22	72.53
394.429	25.43
394.639	52.05
394.848	52.05
395.058	-3.24
395.267	78.68
395.477	90.96
395.686	103.25
395.895	41.81
396.105	183.12
396.314	21.33
396.524	35.67
396.733	68.44
396.942	52.05
397.152	93.01
397.361	56.15
397.57	70.48
397.78	80.72
397.989	78.68
398.198	144.21
398.407	119.64
398.617	99.16
398.826	33.62
399.035	129.88
399.244	76.63
399.453	109.4
399.663	41.81
399.872	88.92
400.081	66.39
400.29	25.43
400.499	76.63
400.708	117.59
400.917	76.63
401.127	111.44
401.336	113.49
401.545	72.53
401.754	133.97
401.963	95.06
402.172	76.63
402.381	37.72
402.59	11.09
402.799	109.4
403.008	131.92
403.217	115.54
403.426	133.97
403.635	160.59
403.844	115.54
404.053	95.06
404.262	160.59
404.471	119.64
404.68	138.07
404.888	127.83
405.097	17.24
405.306	140.12
405.515	150.36
405.724	90.96
405.933	95.06
406.142	107.35
406.35	164.69
406.559	146.26
406.768	136.02
406.977	246.61
407.185	88.92
407.394	136.02
407.603	123.73
407.812	138.07
408.02	189.27
408.229	197.46
408.438	97.11
408.646	156.5
408.855	170.83
409.064	187.22
409.272	209.75
409.481	222.03
409.69	195.41
409.898	185.17
410.107	164.69
410.315	205.65
410.524	195.41
410.733	236.37
410.941	258.9
411.15	277.33
411.358	275.28
411.567	275.28
411.775	351.06
411.984	340.82
412.192	260.95
412.401	238.42
412.609	291.66
412.818	383.82
413.026	392.02
413.234	334.67
413.443	463.69
413.651	457.55
413.86	398.16
414.068	514.89
414.276	482.13
414.485	449.36
414.693	500.56
414.901	516.94
415.11	508.75
415.318	549.71
415.526	486.22
415.734	578.38
415.943	492.37
416.151	584.52
416.359	660.3
416.567	678.73
416.776	703.31
416.984	766.79
417.192	762.7
417.4	824.14
417.608	779.08
417.817	824.14
418.025	807.75
418.233	861
418.441	885.58
418.649	901.96
418.857	891.72
419.065	1039.17
419.273	965.45
419.481	1055.56
419.689	983.88
419.897	1100.61
420.105	1129.28
420.313	1153.86
420.521	1270.59
420.729	1350.46
420.937	1262.4
421.145	1350.46
421.353	1381.18
421.561	1383.23
421.769	1534.78
421.977	1588.03
422.185	1495.87
422.393	1579.84
422.601	1661.76
422.809	1626.94
423.017	1680.19
423.224	1733.43
423.432	1940.28
423.64	1864.5
423.848	2032.44
424.056	1981.24
424.263	2122.55
424.471	2065.21
424.679	2157.36
424.887	2265.91
425.094	2390.83
425.302	2427.7
425.51	2456.37
425.718	2560.81
425.925	2560.81
426.133	2597.68
426.341	2843.43
426.548	2843.43
426.756	2925.35
426.964	2767.66
427.171	3126.05
427.379	3244.84
427.586	3214.12
427.794	3398.43
428.001	3523.36
428.209	3674.91
428.417	3730.2
428.624	3922.71
428.832	3916.57
429.039	3842.84
429.247	3922.71
429.454	4121.37
429.662	4559.63
429.869	4121.37
430.076	4473.62
430.284	4408.08
430.491	4664.08
430.699	4922.12
430.906	4868.88
431.114	4926.22
431.321	5202.69
431.528	5276.42
431.736	5497.6
431.943	5708.54
432.15	5735.17
432.358	5751.55
432.565	5862.14
432.772	5892.86
432.979	6281.97
433.187	6324.98
433.394	6468.34
433.601	6933.23
433.808	7045.87
434.016	6898.41
434.223	7305.96
434.43	7609.06
434.637	7500.51
434.844	7932.64
435.052	8286.93
435.259	7969.5
435.466	8116.95
435.673	8010.46
435.88	8555.22
436.087	9040.59
436.294	8973
436.501	8717.01
436.708	9081.55
436.915	9214.66
437.122	9650.88
437.329	9714.37
437.537	10066.62
437.743	10402.49
437.95	10121.91
438.157	10787.5
438.364	10910.38
438.571	11229.87
438.778	11035.31
438.985	12014.24
439.192	11731.62
439.399	11870.88
439.606	11877.02
439.813	12249.75
440.02	13179.53
440.227	12931.73
440.433	12798.61
440.64	13283.98
440.847	13349.51
441.054	13279.88
441.261	14486.14
441.467	14258.81
441.674	14578.29
441.881	15039.09
442.088	15063.66
442.294	14901.87
442.501	15338.09
442.708	15583.85
442.914	16407.13
443.121	16826.96
443.328	16417.37
443.534	17693.26
443.741	17023.57
443.948	16996.95
444.154	18035.27
444.361	18158.14
444.568	18248.25
444.774	18145.86
444.981	18324.03
445.187	19106.35
445.394	19921.45
445.6	19577.39
445.807	21297.68
446.013	20458.01
446.22	20974.1
446.426	21668.36
446.633	21791.24
446.839	22325.76
447.046	21697.03
447.252	22733.31
447.459	22946.3
447.665	22727.16
447.871	23929.32
448.078	25117.14
448.284	23831.02
448.491	24476.13
448.697	25436.63
448.903	25686.48
449.11	25915.85
449.316	25608.65
449.522	26040.78
449.728	26753.47
449.935	26849.72
450.141	26806.72
450.347	27746.73
450.553	26950.07
450.76	26816.96
450.966	27931.05
451.172	27599.28
451.378	28633.5
451.584	27974.06
451.791	28426.66
451.997	28373.41
452.203	28848.54
452.409	28842.4
452.615	28764.57
452.821	27474.35
453.027	27521.46
453.233	28912.03
453.44	27789.74
453.646	27951.53
453.852	28195.24
454.058	28623.26
454.264	27638.19
454.47	28574.11
454.676	27840.94
454.882	28930.46
455.088	26188.23
455.294	26573.25
455.5	26919.35
455.705	27150.78
455.911	26237.38
456.117	25725.39
456.323	25530.83
456.529	24205.8
456.735	25014.74
456.941	24523.23
457.147	23861.74
457.352	23177.72
457.558	22968.82
457.764	23099.89
457.97	22741.5
458.176	22125.06
458.381	22356.48
458.587	21144.08
458.793	21113.36
458.999	20269.6
459.204	21537.29
459.41	20937.24
459.616	19429.93
459.821	19489.32
460.027	19403.31
460.233	18803.25
460.438	17932.87
460.644	18154.05
460.85	17318.48
461.055	17275.47
461.261	17193.55
461.466	16171.61
461.672	15546.98
461.878	16478.81
462.083	15438.44
462.289	15143.53
462.494	15008.37
462.7	14402.17
462.905	13916.8
463.111	14393.98
463.316	14647.93
463.522	14041.73
463.727	14432.89
463.932	14287.48
464.138	14031.49
464.343	14113.41
464.549	13505.16
464.754	14029.44
464.959	14013.06
465.165	13935.23
465.37	13415.05
465.575	12964.5
465.781	13544.07
465.986	13677.19
466.191	13343.37
466.397	12941.97
466.602	12094.11
466.807	12563.09
467.012	12681.88
467.218	12690.07
467.423	12534.42
467.628	12513.94
467.833	13179.53
468.038	12556.95
468.244	12214.94
468.449	12874.38
468.654	12421.78
468.859	12354.2
469.064	12202.65
469.269	11813.54
469.474	11852.45
469.679	12051.1
469.885	11547.3
470.09	11770.53
470.295	11909.79
470.5	11350.7
470.705	11668.13
470.91	11324.07
471.115	11213.48
471.32	11526.82
471.525	11477.67
471.73	11117.23
471.935	11276.97
472.139	10799.79
472.344	10926.77
472.549	10599.09
472.754	10752.69
472.959	10439.35
473.164	10097.34
473.369	10091.2
473.574	10523.32
473.778	10232.51
473.983	10240.7
474.188	10209.98
474.393	9980.61
474.598	9824.96
474.802	9710.27
475.007	9632.45
475.212	9738.94
475.417	9237.19
475.621	9130.7
475.826	9480.9
476.031	9108.17
476.235	8995.53
476.44	9247.43
476.645	9048.78
476.849	9030.35
477.054	8817.36
477.259	8727.25
477.463	8768.21
477.668	8403.67
477.872	8559.31
478.077	8630.99
478.282	8162.01
478.486	8295.13
478.691	8180.44
478.895	8209.11
479.1	8143.58
479.304	8086.23
479.509	7908.06
479.713	7926.49
479.918	7776.99
480.122	7684.83
480.326	7922.4
480.531	7865.05
480.735	7658.21
480.94	7695.07
481.144	7998.17
481.348	7582.43
481.553	7652.06
481.757	7477.99
481.961	7844.57
482.166	7541.47
482.37	7785.18
482.574	7500.51
482.778	7394.02
482.983	7506.66
483.187	7680.74
483.391	7764.7
483.595	7326.44
483.8	7439.08
484.004	7410.4
484.208	7619.3
484.412	7441.12
484.616	7824.09
484.821	7582.43
485.025	7287.53
485.229	7713.5
485.433	7584.48
485.637	7660.26
485.841	7299.81
486.045	7320.29
486.249	7699.17
486.453	7484.13
486.657	7502.56
486.861	7477.99
487.065	7330.53
487.269	7576.29
487.473	7357.16
487.677	7500.51
487.881	7469.8
488.085	7613.15
488.289	7574.24
488.493	7447.27
488.697	7607.01
488.901	7404.26
489.105	7549.67
489.309	7506.66
489.512	7627.49
489.716	7779.04
489.92	7568.1
490.124	7510.75
490.328	7770.85
490.531	7541.47
490.735	7803.61
490.939	7594.72
491.143	7770.85
491.346	7891.68
491.55	7875.29
491.754	7824.09
491.958	7887.58
492.161	7869.15
492.365	7914.2
492.569	7979.74
492.772	7963.36
492.976	7987.93
493.18	8131.29
493.383	8190.68
493.587	8245.98
493.79	8211.16
493.994	8260.31
494.197	8317.65
494.401	8200.92
494.605	8381.14
494.808	8540.88
495.012	8426.2
495.215	8551.12
495.419	8702.67
495.622	8571.6
495.825	8907.47
496.029	8907.47
496.232	8934.09
496.436	8852.17
496.639	9190.09
496.843	9083.59
497.046	9431.75
497.249	9407.17
497.453	9374.41
497.656	9562.82
497.859	9370.31
498.063	9626.31
498.266	9921.21
498.469	9704.13
498.673	9902.78
498.876	10066.62
499.079	10226.36
499.282	10195.64
499.485	10347.19
499.689	10523.32
499.892	10556.08
500.095	10726.07
500.298	10857.14
500.501	10824.37
500.705	11268.78
500.908	11289.26
501.111	11446.95
501.314	11408.04
501.517	11655.84
501.72	11569.83
501.923	11700.9
502.126	12171.93
502.329	12081.82
502.532	12143.26
502.735	12104.35
502.938	12503.7
503.141	12389.02
503.344	12784.27
503.547	12722.84
503.75	12919.44
503.953	13122.19
504.156	13150.86
504.359	13390.47
504.562	13603.46
504.765	13656.71
504.968	13863.55
505.17	13998.72
505.373	14072.45
505.576	14594.68
505.779	14578.29
505.982	14379.64
506.185	14877.3
506.387	14752.37
506.59	14983.79
506.793	15471.21
506.996	15215.21
507.198	15813.22
507.401	15622.76
507.604	15745.64
507.807	16026.21
508.009	16204.38
508.212	16202.33
508.415	16560.73
508.617	16521.82
508.82	16892.5
509.022	16781.91
509.225	17254.99
509.428	17191.5
509.63	17549.9
509.833	17361.48
510.035	17996.35
510.238	17723.97
510.44	18160.19
510.643	18514.49
510.845	18614.84
511.048	18278.97
511.25	18715.19
511.453	18844.21
511.655	19450.41
511.858	19016.24
512.06	19526.19
512.262	19577.39
512.465	19843.62
512.667	19898.92
512.87	20439.58
513.072	20167.2
513.274	20748.82
513.477	21094.93
513.679	21004.82
513.881	21332.5
514.084	21563.92
514.286	21457.42
514.488	21674.51
514.69	22249.99
514.893	21848.58
515.095	22348.29
515.297	22635
515.499	22641.15
515.701	23124.47
515.904	23181.81
516.106	23751.15
516.308	23509.49
516.51	23673.32
516.712	23628.27
516.914	24308.19
517.116	24390.11
517.318	24508.9
517.52	24826.33
517.722	24807.9
517.925	25057.75
518.127	25199.06
518.329	25410
518.531	25498.06
518.733	25971.15
518.935	26108.36
519.136	26165.7
519.338	26704.32
519.54	26833.34
519.742	27005.37
519.944	27206.07
520.146	27357.62
520.348	27636.14
520.55	27756.97
520.752	27904.43
520.954	28592.55
521.155	28002.73
521.357	28637.6
521.559	28912.03
521.761	29104.54
521.963	28987.8
522.164	29297.05
522.366	29768.08
522.568	29987.21
522.77	30011.79
522.971	30273.93
523.173	30114.19
523.375	30591.36
523.576	30693.76
523.778	30638.47
523.98	31177.08
524.181	31168.89
524.383	31074.68
524.584	31390.07
524.786	31410.55
524.988	31922.54
525.189	32242.03
525.391	32110.96
525.592	32096.62
525.794	32581.99
525.995	32760.16
526.197	32610.66
526.398	32815.46
526.6	32608.61
526.801	32649.57
527.003	32819.55
527.204	33032.54
527.406	33442.14
527.607	33581.4
527.808	33859.92
528.01	32817.5
528.211	33657.17
528.412	34320.71
528.614	33726.8
528.815	33995.09
529.016	34308.43
529.218	34015.57
529.419	34167.12
529.62	34318.67
529.822	34171.21
530.023	34568.52
530.224	34324.81
530.425	34867.52
530.626	34163.02
530.828	34793.79
531.029	34953.54
531.23	34636.1
531.431	34462.02
531.632	35043.65
531.833	35019.07
532.035	34724.16
532.236	35168.57
532.437	35137.85
532.638	34980.16
532.839	35248.44
533.04	35352.89
533.241	34818.37
533.442	35686.71
533.643	35305.79
533.844	35395.9
534.045	35203.39
534.246	35238.2
534.447	35860.79
534.648	35733.81
534.849	35576.12
535.05	35193.15
535.251	35725.62
535.451	35619.13
535.652	35457.34
535.853	35209.53
536.054	35449.14
536.255	36051.25
536.456	35467.58
536.657	36094.25
536.857	35492.15
537.058	35424.57
537.259	36043.06
537.46	35768.63
537.66	35594.55
537.861	35623.22
538.062	35252.54
538.263	36065.58
538.463	35690.8
538.664	35752.24
538.865	35608.89
539.065	35916.08
539.266	35371.32
539.466	36088.11
539.667	35236.16
539.868	36000.05
540.068	35668.28
540.269	35541.3
540.469	36102.45
540.67	35391.8
540.87	35871.03
541.071	35711.28
541.271	35787.06
541.472	35678.52
541.672	35696.95
541.873	35430.71
542.073	35225.92
542.274	36116.78
542.474	35531.06
542.675	35379.51
542.875	35961.14
543.075	35690.8
543.276	35336.51
543.476	35924.27
543.676	35881.27
543.877	35610.93
544.077	35633.46
544.277	35828.02
544.478	35742
544.678	35895.6
544.878	35717.43
545.078	35674.42
545.279	35537.21
545.479	35365.18
545.679	36004.14
545.879	35522.87
546.079	35807.54
546.28	35514.68
546.48	35326.27
546.68	36059.44
546.88	35840.31
547.08	35780.92
547.28	35572.02
547.48	35606.84
547.68	35735.86
547.88	35762.48
548.081	35578.17
548.281	35723.57
548.481	35414.33
548.681	35932.47
548.881	35565.88
549.081	35682.61
549.28	35899.7
549.48	35688.76
549.68	35742
549.88	36190.51
550.08	35320.12
550.28	35522.87
550.48	35455.29
550.68	36088.11
550.88	35670.33
551.08	35752.24
551.279	35758.39
551.479	35311.93
551.679	35807.54
551.879	35559.73
552.079	36032.82
552.278	35670.33
552.478	35778.87
552.678	35637.56
552.878	36147.5
553.077	35498.3
553.277	35461.43
553.477	35832.11
553.676	35428.66
553.876	35850.55
554.076	35557.69
554.275	35447.1
554.475	35240.25
554.674	35541.3
554.874	35486.01
555.074	35592.5
555.273	35172.67
555.473	35483.96
555.672	35170.62
555.872	35326.27
556.071	35504.44
556.271	35842.35
556.47	35273.02
556.67	35156.28
556.869	35322.17
557.068	35449.14
557.268	34980.16
557.467	35168.57
557.667	35555.64
557.866	35025.21
558.065	35418.42
558.265	35393.85
558.464	34576.71
558.663	35289.4
558.863	34662.72
559.062	35688.76
559.261	34752.84
559.461	35313.98
559.66	34496.84
559.859	35100.99
560.058	34572.61
560.258	35152.19
560.457	34560.33
560.656	34855.23
560.855	34834.75
561.054	34791.75
561.253	34603.33
561.453	34363.72
561.652	34494.79
561.851	34888
562.05	34421.06
562.249	34333
562.448	34603.33
562.647	34238.79
562.846	34421.06
563.045	34396.49
563.244	33847.63
563.443	34478.41
563.642	33962.32
563.841	33825.11
564.04	33868.11
564.239	34236.75
564.438	33808.72
564.637	33749.33
564.836	34001.23
565.035	33524.05
565.234	33825.11
565.432	33528.15
565.631	33073.5
565.83	33565.01
566.029	33577.3
566.228	33452.37
566.427	33321.3
566.625	33032.54
566.824	32932.19
567.023	33081.69
567.222	32764.26
567.42	33274.2
567.619	33184.09
567.818	33014.11
568.016	33145.18
568.215	33116.51
568.414	32821.6
568.612	33249.63
568.811	32674.15
569.01	32971.1
569.208	32457.06
569.407	32670.05
569.605	32526.69
569.804	32936.29
570.002	32233.83
570.201	32581.99
570.4	31990.13
570.598	32235.88
570.797	31887.73
570.995	32377.19
571.193	31842.67
571.392	32113
571.59	31943.02
571.789	32348.52
571.987	31932.78
572.186	31676.79
572.384	31701.36
572.582	31951.21
572.781	31654.26
572.979	31402.36
573.177	31302.01
573.376	31392.12
573.574	31117.69
573.772	31236.47
573.971	31406.45
574.169	31181.18
574.367	30984.57
574.565	31259
574.763	30960
574.962	30648.71
575.16	30712.19
575.358	30818.69
575.556	30902.65
575.754	30830.97
575.952	30450.05
576.151	30914.94
576.349	30380.42
576.547	30022.03
576.745	30249.35
576.943	30716.29
577.141	30658.95
577.339	30349.7
577.537	30112.14
577.735	29899.15
577.933	29829.52
578.131	29913.48
578.329	29825.42
578.527	29895.05
578.725	29456.79
578.923	29852.05
579.121	29798.8
579.319	29680.02
579.516	29514.13
579.714	29161.88
579.912	29704.59
580.11	29698.45
580.308	29192.6
580.506	29223.32
580.704	29190.55
580.901	29391.25
581.099	29421.97
581.297	28967.32
581.495	29049.24
581.692	28918.17
581.89	28762.53
582.088	28885.4
582.285	28346.79
582.483	28807.58
582.681	28500.39
582.878	28527.01
583.076	28428.71
583.274	28762.53
583.471	28012.97
583.669	28244.39
583.866	28219.81
584.064	28490.15
584.262	27871.66
584.459	28051.88
584.657	27861.42
584.854	28338.6
585.052	27673.01
585.249	28375.46
585.447	27668.91
585.644	27304.37
585.841	27877.8
586.039	27812.27
586.236	27298.23
586.434	27199.93
586.631	27591.09
586.828	27302.32
587.026	27492.79
587.223	27277.75
587.42	27023.8
587.618	27156.92
587.815	26874.3
588.012	26993.08
588.21	26622.4
588.407	26890.68
588.604	26579.39
588.801	26524.1
588.999	26483.14
589.196	26640.83
589.393	26665.41
589.59	26288.58
589.787	26401.22
589.984	26221
590.182	25987.53
590.379	26313.16
590.576	26139.08
590.773	26196.42
590.97	25500.11
591.167	25883.08
591.364	25786.83
591.561	25868.75
591.758	25426.39
591.955	25878.99
592.152	25711.05
592.349	25362.9
592.546	25229.78
592.743	25354.71
592.94	25123.29
593.137	25233.88
593.334	25569.74
593.531	24848.86
593.727	25301.46
593.924	25006.55
594.121	24822.23
594.318	24949.21
594.515	24746.46
594.712	24955.35
594.908	24558.05
595.105	24920.54
595.302	24523.23
595.499	24414.69
595.696	24455.65
595.892	24322.53
596.089	24508.9
596.286	24400.35
596.482	24097.25
596.679	23927.27
596.876	24216.04
597.072	24050.15
597.269	24130.02
597.466	23687.66
597.662	23917.03
597.859	23613.93
598.055	23826.92
598.252	23542.25
598.448	23728.62
598.645	23290.35
598.841	23419.38
599.038	23294.45
599.234	23409.14
599.431	23210.48
599.627	23261.68
599.824	23372.27
600.02	23046.65
600.217	23110.13
600.413	23134.71
600.609	22809.08
600.806	22665.72
601.002	22817.27
601.198	22559.23
601.395	22372.86
601.591	22493.69
601.787	22501.89
601.984	22577.66
602.18	22680.06
602.376	22262.27
602.572	22073.86
602.769	22366.72
602.965	21791.24
603.161	22077.96
603.357	21916.17
603.553	22125.06
603.75	21813.77
603.946	21828.1
604.142	21871.11
604.338	21563.92
604.534	22006.28
604.73	21580.3
604.926	21486.09
605.122	21676.55
605.318	21379.6
605.514	21367.31
605.71	21338.64
605.906	21479.95
606.102	21170.71
606.298	21301.78
606.494	21094.93
606.69	21150.23
606.886	21152.27
607.082	21039.64
607.278	21092.88
607.474	20843.03
607.67	21373.46
607.866	20814.36
608.062	21035.54
608.257	20859.42
608.453	20836.89
608.649	20980.25
608.845	20777.5
609.041	20806.17
609.236	20744.73
609.432	20619.8
609.628	20627.99
609.824	20419.1
610.019	20498.97
610.215	20533.79
610.411	20466.21
610.606	20513.31
610.802	20269.6
610.998	20349.47
611.193	20062.76
611.389	20132.39
611.584	20159.01
611.78	19825.19
611.976	20179.49
612.171	19980.84
612.367	20189.73
612.562	20193.83
612.758	19966.5
612.953	19864.1
613.149	20062.76
613.344	19810.86
613.539	20152.87
613.735	19882.53
613.93	20085.28
614.126	19851.81
614.321	19993.12
614.517	20052.52
614.712	19671.59
614.907	19677.74
615.103	19905.06
615.298	19495.47
615.493	19802.66
615.688	19657.26
615.884	19915.3
616.079	19630.63
616.274	19610.15
616.47	19468.84
616.665	19411.5
616.86	19458.6
617.055	19444.27
617.25	19431.98
617.445	19536.43
617.641	19030.58
617.836	19446.32
618.031	18963
618.226	19051.06
618.421	19075.63
618.616	19374.64
618.811	18586.17
619.006	19135.03
619.201	18520.63
619.396	18924.08
619.591	18577.98
619.786	18977.33
619.981	18332.22
620.176	18565.69
620.371	18487.87
620.566	18405.95
620.761	18219.58
620.956	18545.21
621.151	17963.59
621.346	18235.97
621.541	18158.14
621.735	17969.73
621.93	17719.88
622.125	17908.29
622.32	17744.45
622.515	17586.76
622.709	17553.99
622.904	17384.01
623.099	17369.68
623.294	17482.31
623.488	17191.5
623.683	17441.36
623.878	17074.77
624.072	17072.72
624.267	17107.54
624.462	16839.25
624.656	16777.81
624.851	16685.65
625.046	16654.94
625.24	16450.14
625.435	16437.85
625.629	16108.13
625.824	15888.99
626.018	16110.18
626.213	15751.78
626.407	15997.54
626.602	15852.13
626.796	15807.08
626.991	15823.46
627.185	15794.79
627.38	15630.95
627.574	15610.47
627.768	15512.17
627.963	15247.98
628.157	15440.49
628.352	15284.84
628.546	14977.65
628.74	15121.01
628.935	15102.57
629.129	15207.02
629.323	14871.15
629.517	14672.5
629.712	14606.97
629.906	14832.24
630.1	14594.68
630.294	14400.12
630.489	14346.87
630.683	14455.42
630.877	14400.12
631.071	14201.47
631.265	14043.78
631.459	13830.79
631.653	13851.27
631.848	13673.09
632.042	13640.33
632.236	13982.34
632.43	13701.76
632.624	13646.47
632.818	13482.63
633.012	13357.71
633.206	13582.98
633.4	13591.17
633.594	13118.09
633.788	13415.05
633.982	13107.85
634.176	13009.55
634.369	13042.32
634.563	13306.51
634.757	13046.41
634.951	12874.38
635.145	12831.38
635.339	12817.04
635.533	12683.92
635.726	12513.94
635.92	12520.09
636.114	12761.75
636.308	12642.96
636.501	12317.34
636.695	12266.14
636.889	12210.84
637.083	12014.24
637.276	12055.2
637.47	12100.25
637.664	11958.94
637.857	12034.72
638.051	12049.05
638.244	11756.19
638.438	11731.62
638.632	11631.27
638.825	11580.07
639.019	11655.84
639.212	11569.83
639.406	11305.64
639.599	11479.72
639.793	11496.1
639.986	11508.39
640.18	11242.15
640.373	11358.89
640.567	11186.86
640.76	10945.2
640.954	10937.01
641.147	10861.23
641.34	10900.14
641.534	10822.32
641.727	10789.55
641.92	10779.31
642.114	10887.86
642.307	10803.89
642.5	10617.52
642.694	10273.46
642.887	10429.11
643.08	10476.21
643.273	10650.29
643.467	10425.01
643.66	10203.83
643.853	10083
644.046	10109.63
644.239	10271.42
644.432	10216.12
644.626	9896.64
644.819	10232.51
645.012	10078.91
645.205	9888.45
645.398	9943.74
645.591	9870.01
645.784	9722.56
645.977	9671.36
646.17	9710.27
646.363	9519.81
646.556	9362.12
646.749	9564.87
646.942	9740.99
647.135	9304.78
647.328	9536.2
647.521	9435.85
647.714	9194.19
647.907	9052.88
648.099	9489.09
648.292	9267.91
648.485	9163.47
648.678	9001.68
648.871	8970.96
649.064	9061.07
649.256	9071.31
649.449	9145.03
649.642	8958.67
649.835	8794.83
650.027	8805.07
650.22	8919.76
650.413	8813.26
650.605	8784.59
650.798	8630.99
650.991	8401.62
651.183	8479.44
651.376	8536.79
651.568	8418
651.761	8391.38
651.954	8205.02
652.146	8395.48
652.339	8331.99
652.531	8282.84
652.724	8116.95
652.916	8014.56
653.109	8125.15
653.301	8082.14
653.494	8098.52
653.686	7764.7
653.879	8067.8
654.071	8014.56
654.263	7893.72
654.456	7873.25
654.648	7922.4
654.84	7776.99
655.033	7592.67
655.225	7709.41
655.417	7705.31
655.61	7588.58
655.802	7676.64
655.994	7609.06
656.186	7623.39
656.379	7492.32
656.571	7463.65
656.763	7301.86
656.955	7424.74
657.148	7428.84
657.34	7295.72
657.532	7019.24
657.724	7201.51
657.916	7191.27
658.108	7185.13
658.3	7170.79
658.492	7240.42
658.684	7033.58
658.876	6810.35
659.068	7015.15
659.26	6998.76
659.452	7230.18
659.644	6912.75
659.836	6798.06
660.028	6998.76
660.22	6744.81
660.412	6826.73
660.604	6689.52
660.796	6718.19
660.988	6632.18
661.18	6742.77
661.372	6396.66
661.563	6685.42
661.755	6540.02
661.947	6628.08
662.139	6470.39
662.331	6363.89
662.522	6449.91
662.714	6267.64
662.906	6290.17
663.097	6363.89
663.289	6245.11
663.481	6388.47
663.673	6390.52
663.864	6359.8
664.056	6060.79
664.247	6085.37
664.439	5956.35
664.631	6177.53
664.822	6220.53
665.014	6036.22
665.205	6034.17
665.397	5827.32
665.588	6060.79
665.78	5915.39
665.971	6028.03
666.163	5845.76
666.354	5794.56
666.546	5751.55
666.737	5837.56
666.929	5798.65
667.12	5698.3
667.311	5821.18
667.503	5714.69
667.694	5739.26
667.885	5534.46
668.077	5739.26
668.268	5600
668.459	5604.1
668.651	5516.03
668.842	5620.48
669.033	5489.41
669.224	5305.09
669.416	5458.69
669.607	5380.87
669.798	5260.04
669.989	5481.22
670.18	5403.39
670.371	5329.67
670.563	5323.52
670.754	5317.38
670.945	5372.68
671.136	5237.51
671.327	5288.71
671.518	5260.04
671.709	5292.8
671.9	5227.27
672.091	5171.97
672.282	5190.41
672.473	5212.93
672.664	5198.6
672.855	5178.12
673.046	5266.18
673.237	5208.84
673.428	5153.54
673.619	5202.69
673.809	5055.24
674	5083.91
674.191	4944.65
674.382	5008.14
674.573	5028.62
674.764	5008.14
674.954	4961.03
675.145	4891.4
675.336	4928.27
675.527	4770.57
675.717	4946.7
675.908	4989.71
676.099	4877.07
676.289	4922.12
676.48	4805.39
676.671	4700.94
676.861	4832.01
677.052	4789
677.243	4743.95
677.433	4721.42
677.624	4817.68
677.814	4690.7
678.005	4705.04
678.195	4705.04
678.386	4733.71
678.576	4739.85
678.767	4717.33
678.957	4653.84
679.148	4588.3
679.338	4690.7
679.529	4692.75
679.719	4588.3
679.909	4631.31
680.1	4668.17
680.29	4561.68
680.481	4414.23
680.671	4578.06
680.861	4584.21
681.052	4530.96
681.242	4530.96
681.432	4410.13
681.622	4479.76
681.813	4557.58
682.003	4432.66
682.193	4492.05
682.383	4492.05
682.573	4485.9
682.764	4467.47
682.954	4526.86
683.144	4475.67
683.334	4385.55
683.524	4524.82
683.714	4408.08
683.904	4391.7
684.094	4256.53
684.284	4428.56
684.474	4416.27
684.664	4303.64
684.854	4295.44
685.044	4295.44
685.234	4332.31
685.424	4375.31
685.614	4209.43
685.804	4246.29
685.994	4317.97
686.184	4397.84
686.374	4229.91
686.564	4152.09
686.753	4113.17
686.943	4234
687.133	4180.76
687.323	4174.61
687.513	4281.11
687.702	4223.76
687.892	4147.99
688.082	4221.72
688.272	3906.33
688.461	4104.98
688.651	4172.57
688.841	3853.08
689.03	3988.25
689.22	3996.44
689.41	4029.21
689.599	3844.89
689.789	4119.32
689.979	3861.27
690.168	3910.43
690.358	3789.6
690.547	3867.42
690.737	3740.44
690.926	3887.9
691.116	3881.75
691.305	3746.59
691.495	3793.69
691.684	3724.06
691.874	3748.64
692.063	3728.16
692.252	3685.15
692.442	3758.88
692.631	3629.85
692.82	3662.62
693.01	3666.72
693.199	3588.89
693.388	3527.46
693.578	3558.18
693.767	3676.96
693.956	3466.02
694.146	3625.76
694.335	3429.15
694.524	3566.37
694.713	3504.93
694.902	3414.82
695.092	3494.69
695.281	3414.82
695.47	3435.3
695.659	3398.43
695.848	3402.53
696.037	3373.86
696.226	3205.92
696.415	3380
696.604	3388.19
696.793	3386.15
696.982	3373.86
697.171	3353.38
697.36	3310.37
697.549	3242.79
697.738	3300.13
697.927	3199.78
698.116	3414.82
698.305	3259.17
698.494	3210.02
698.683	3177.25
698.872	3369.76
699.061	3152.68
699.25	3144.49
699.438	3326.75
699.627	3326.75
699.816	3142.44
700.005	3144.49
700.193	3146.53
700.382	3203.88
700.571	3173.16
700.76	3248.93
700.948	3187.49
701.137	3177.25
701.326	3189.54
701.514	3111.72
701.703	3265.32
701.892	3060.52
702.08	3195.68
702.269	3126.05
702.457	3212.07
702.646	3167.01
702.834	3099.43
703.023	3052.33
703.212	3269.41
703.4	3111.72
703.589	3076.9
703.777	3199.78
703.965	3072.81
704.154	3146.53
704.342	3017.51
704.531	3197.73
704.719	3021.61
704.907	2943.78
705.096	3013.42
705.284	3201.83
705.472	3128.1
705.661	2976.55
705.849	3091.24
706.037	3121.96
706.226	3128.1
706.414	3121.96
706.602	3066.66
706.79	3109.67
706.979	2984.74
707.167	3070.76
707.355	3152.68
707.543	3097.38
707.731	2949.93
707.919	2956.07
708.107	2999.08
708.296	3130.15
708.484	3015.46
708.672	2927.4
708.86	3134.25
709.048	3230.5
709.236	3101.48
709.424	2958.12
709.612	3066.66
709.8	3040.04
709.988	3052.33
710.176	2978.6
710.364	3097.38
710.551	3001.13
710.739	3134.25
710.927	2990.89
711.115	3009.32
711.303	3001.13
711.491	3033.9
711.679	3076.9
711.866	3072.81
712.054	3162.92
712.242	3029.8
712.43	3150.63
712.617	3011.37
712.805	3056.42
712.993	3021.61
713.181	2886.44
713.368	3046.18
713.556	3076.9
713.744	3048.23
713.931	3054.37
714.119	2958.12
714.306	3107.62
714.494	3093.29
714.682	3048.23
714.869	3148.58
715.057	2980.65
715.244	2964.26
715.432	2990.89
715.619	3029.8
715.807	3109.67
715.994	3009.32
716.182	3078.95
716.369	3064.61
716.556	2958.12
716.744	3140.39
716.931	3009.32
717.119	3023.66
717.306	3044.13
717.493	3081
717.681	3035.94
717.868	3042.09
718.055	3003.18
718.242	2994.98
718.43	3033.9
718.617	2943.78
718.804	2958.12
718.991	2994.98
719.179	3158.82
719.366	2968.36
719.553	3062.57
719.74	3076.9
719.927	3058.47
720.114	3083.05
720.301	2982.7
720.488	2954.02
720.676	3035.94
720.863	3021.61
721.05	2951.98
721.237	2921.26
721.424	2997.03
721.611	3040.04
721.798	3029.8
721.985	2900.78
722.172	2943.78
722.358	2886.44
722.545	2974.5
722.732	2968.36
722.919	2921.26
723.106	2790.19
723.293	3066.66
723.48	2915.11
723.667	3050.28
723.853	3003.18
724.04	3097.38
724.227	2958.12
724.414	2902.83
724.6	2972.46
724.787	2972.46
724.974	2943.78
725.161	3093.29
725.347	2997.03
725.534	3109.67
725.72	2908.97
725.907	3068.71
726.094	3029.8
726.28	3001.13
726.467	3025.7
726.653	3001.13
726.84	3058.47
727.027	3029.8
727.213	2933.54
727.4	3009.32
727.586	2913.06
727.773	2937.64
727.959	2951.98
728.145	3023.66
728.332	2935.59
728.518	3048.23
728.705	3009.32
728.891	3029.8
729.077	3083.05
729.264	2935.59
729.45	2984.74
729.636	3128.1
729.823	2951.98
730.009	3003.18
730.195	3052.33
730.382	2988.84
730.568	2997.03
730.754	2917.16
730.94	2929.45
731.126	2902.83
731.313	3031.85
731.499	2964.26
731.685	3103.53
731.871	2972.46
732.057	2857.77
732.243	2849.58
732.429	2960.17
732.615	2896.68
732.801	2847.53
732.987	3076.9
733.173	2974.5
733.359	3007.27
733.545	2870.06
733.731	2925.35
733.917	2917.16
734.103	2890.54
734.289	3029.8
734.475	2968.36
734.661	2997.03
734.847	2962.22
735.033	2863.91
735.219	3023.66
735.404	2960.17
735.59	2908.97
735.776	2855.72
735.962	2951.98
736.148	2884.39
736.333	2847.53
736.519	2880.3
736.705	2722.6
736.89	2919.21
737.076	2900.78
737.262	2906.92
737.447	2949.93
737.633	2894.63
737.819	2851.63
738.004	2841.39
738.19	2878.25
738.375	2779.95
738.561	2947.88
738.747	2870.06
738.932	2847.53
739.118	2894.63
739.303	2884.39
739.489	2865.96
739.674	2718.51
739.859	2736.94
740.045	2751.28
740.23	2775.85
740.416	2751.28
740.601	2841.39
740.786	2718.51
740.972	2732.84
741.157	2761.52
741.342	2698.03
741.528	2691.88
741.713	2718.51
741.898	2759.47
742.084	2751.28
742.269	2700.08
742.454	2722.6
742.639	2671.4
742.824	2734.89
743.01	2648.88
743.195	2689.84
743.38	2597.68
743.565	2630.45
743.75	2655.02
743.935	2681.64
744.12	2788.14
744.305	2571.05
744.49	2624.3
744.675	2562.86
744.86	2472.75
745.045	2706.22
745.23	2677.55
745.415	2405.17
745.6	2552.62
745.785	2548.53
745.97	2554.67
746.155	2579.25
746.34	2538.29
746.525	2437.94
746.71	2482.99
746.895	2388.78
747.079	2497.33
747.264	2425.65
747.449	2304.82
747.634	2433.84
747.819	2405.17
748.003	2405.17
748.188	2364.21
748.373	2409.26
748.557	2308.91
748.742	2276.15
748.927	2288.43
749.111	2210.61
749.296	2306.87
749.481	2382.64
749.665	2243.38
749.85	2294.58
750.034	2159.41
750.219	2140.98
750.404	2167.6
750.588	2114.36
750.773	2081.59
750.957	2165.56
751.141	2102.07
751.326	2167.6
751.51	2128.69
751.695	2050.87
751.879	2038.58
752.064	2059.06
752.248	2079.54
752.432	1964.86
752.617	1993.53
752.801	1971
752.985	2034.49
753.17	1917.75
753.354	1925.94
753.538	1934.14
753.722	1895.22
753.907	1930.04
754.091	1848.12
754.275	1866.55
754.459	1876.79
754.643	1823.55
754.828	1796.92
755.012	1784.63
755.196	1844.03
755.38	1755.96
755.564	1786.68
755.748	1823.55
755.932	1870.65
756.116	1768.25
756.3	1786.68
756.484	1710.91
756.668	1581.89
756.852	1553.21
757.036	1694.52
757.22	1659.71
757.404	1702.72
757.588	1653.56
757.772	1616.7
757.956	1669.95
758.14	1598.27
758.323	1631.04
758.507	1622.84
758.691	1596.22
758.875	1592.13
759.059	1620.8
759.242	1559.36
759.426	1565.5
759.61	1510.21
759.794	1514.3
759.977	1471.29
760.161	1559.36
760.345	1487.68
760.528	1491.77
760.712	1375.04
760.895	1446.72
761.079	1385.28
761.263	1430.34
761.446	1416
761.63	1499.97
761.813	1545.02
761.997	1465.15
762.18	1385.28
762.364	1364.8
762.547	1428.29
762.731	1344.32
762.914	1372.99
763.098	1303.36
763.281	1344.32
763.464	1377.09
763.648	1344.32
763.831	1336.13
764.015	1301.31
764.198	1286.98
764.381	1317.7
764.564	1329.99
764.748	1332.03
764.931	1375.04
765.114	1284.93
765.297	1334.08
765.481	1293.12
765.664	1323.84
765.847	1227.59
766.03	1346.37
766.213	1235.78
766.397	1268.55
766.58	1217.35
766.763	1297.22
766.946	1211.2
767.129	1211.2
767.312	1200.96
767.495	1133.38
767.678	1207.11
767.861	1200.96
768.044	1192.77
768.227	1141.57
768.41	1241.92
768.593	1176.39
768.776	1188.68
768.959	1041.22
769.142	1147.72
769.324	1067.85
769.507	1182.53
769.69	1162.05
769.873	1215.3
770.056	1166.15
770.239	1162.05
770.421	1186.63
770.604	1117
770.787	1055.56
770.97	1108.8
771.152	1073.99
771.335	979.78
771.518	1053.51
771.7	1028.93
771.883	1112.9
772.066	1020.74
772.248	1055.56
772.431	1037.13
772.613	1004.36
772.796	1041.22
772.978	1080.13
773.161	992.07
773.343	944.97
773.526	944.97
773.708	1069.89
773.891	1004.36
774.073	920.39
774.256	873.29
774.438	1041.22
774.621	1006.41
774.803	963.4
774.985	885.58
775.168	1006.41
775.35	965.45
775.532	883.53
775.715	930.63
775.897	879.43
776.079	1012.55
776.261	865.1
776.444	969.54
776.626	908.1
776.808	867.14
776.99	899.91
777.173	895.82
777.355	861
777.537	805.71
777.719	869.19
777.901	861
778.083	840.52
778.265	928.58
778.447	760.65
778.629	717.64
778.811	777.03
778.993	752.46
779.175	793.42
779.357	797.51
779.539	772.94
779.721	703.31
779.903	736.07
780.085	774.99
780.267	688.97
780.449	807.75
780.631	693.07
780.812	748.36
780.994	824.14
781.176	752.46
781.358	701.26
781.54	756.55
781.721	740.17
781.903	734.03
782.085	650.06
782.267	742.22
782.448	660.3
782.63	674.64
782.812	662.35
782.993	746.31
783.175	723.79
783.357	586.57
783.538	656.2
783.72	568.14
783.901	662.35
784.083	602.96
784.264	631.63
784.446	611.15
784.627	580.43
784.809	588.62
784.99	547.66
785.172	506.7
785.353	541.52
785.535	596.81
785.716	590.67
785.897	627.53
786.079	506.7
786.26	559.95
786.441	641.87
786.623	496.46
786.804	553.8
786.985	617.29
787.167	488.27
787.348	531.28
787.529	469.84
787.71	478.03
787.891	521.04
788.073	572.24
788.254	570.19
788.435	545.61
788.616	459.6
788.797	445.26
788.978	467.79
789.159	453.45
789.34	459.6
789.522	488.27
789.703	494.41
789.884	475.98
790.065	424.78
790.246	482.13
790.427	516.94
790.607	455.5
790.788	467.79
790.969	455.5
791.15	455.5
791.331	494.41
791.512	441.17
791.693	441.17
791.874	441.17
792.054	377.68
792.235	418.64
792.416	349.01
792.597	445.26
792.778	475.98
792.958	373.58
793.139	461.65
793.32	412.5
793.5	379.73
793.681	363.34
793.862	379.73
794.042	398.16
794.223	344.91
794.404	398.16
794.584	281.43
794.765	410.45
794.945	363.34
795.126	394.06
795.306	418.64
795.487	396.11
795.667	363.34
795.848	369.49
796.028	353.1
796.209	338.77
796.389	375.63
796.57	344.91
796.75	297.81
796.93	367.44
797.111	322.38
797.291	324.43
797.471	406.35
797.652	367.44
797.832	303.95
798.012	406.35
798.192	281.43
798.373	295.76
798.553	271.19
798.733	330.58
798.913	330.58
799.093	275.28
799.274	324.43
799.454	346.96
799.634	324.43
799.814	334.67
799.994	275.28
800.174	375.63
800.354	340.82
800.534	303.95
800.714	297.81
800.894	379.73
801.074	316.24
801.254	265.04
801.434	254.8
801.614	318.29
801.794	265.04
801.974	695.11
802.154	285.52
802.334	232.27
802.514	283.47
802.693	308.05
802.873	248.66
803.053	254.8
803.233	265.04
803.413	273.23
803.592	246.61
803.772	283.47
803.952	260.95
804.131	189.27
804.311	244.56
804.491	283.47
804.67	244.56
804.85	258.9
805.03	242.51
805.209	330.58
805.389	189.27
805.568	258.9
805.748	273.23
805.928	289.62
806.107	303.95
806.287	244.56
806.466	193.36
806.646	258.9
806.825	301.9
807.004	314.19
807.184	271.19
807.363	230.23
807.543	154.45
807.722	232.27
807.901	222.03
808.081	285.52
808.26	181.07
808.439	228.18
808.619	238.42
808.798	189.27
808.977	248.66
809.156	254.8
809.336	211.79
809.515	267.09
809.694	234.32
809.873	170.83
810.052	217.94
810.231	242.51
810.411	244.56
810.59	170.83
810.769	201.55
810.948	240.47
811.127	133.97
811.306	187.22
811.485	189.27
811.664	242.51
811.843	211.79
812.022	197.46
812.201	213.84
812.38	179.03
812.559	127.83
812.737	154.45
812.916	209.75
813.095	103.25
813.274	162.64
813.453	289.62
813.632	187.22
813.811	193.36
813.989	166.74
814.168	191.31
814.347	211.79
814.526	174.93
814.704	232.27
814.883	193.36
815.062	150.36
815.24	215.89
815.419	133.97
815.598	242.51
815.776	168.79
815.955	193.36
816.133	99.16
816.312	133.97
816.49	187.22
816.669	129.88
816.847	154.45
817.026	199.51
817.204	160.59
817.383	226.13
817.561	142.16
817.74	90.96
817.918	183.12
818.097	152.4
818.275	185.17
818.453	74.58
818.632	111.44
818.81	168.79
818.988	254.8
819.167	199.51
819.345	193.36
819.523	162.64
819.701	138.07
819.879	127.83
820.058	105.3
820.236	191.31
820.414	160.59
820.592	140.12
820.77	166.74
820.948	78.68
821.127	95.06
821.305	138.07
821.483	82.77
821.661	43.86
821.839	123.73
822.017	97.11
822.195	23.38
822.373	52.05
822.551	131.92
822.729	181.07
822.907	133.97
823.085	174.93
823.262	101.2
823.44	168.79
823.618	117.59
823.796	136.02
823.974	166.74
824.152	86.87
824.329	136.02
824.507	164.69
824.685	131.92
824.863	97.11
825.04	119.64
825.218	90.96
825.396	45.91
825.574	176.98
825.751	66.39
825.929	136.02
826.107	172.88
826.284	152.4
826.462	109.4
826.639	107.35
826.817	138.07
826.994	103.25
827.172	113.49
827.349	160.59
827.527	105.3
827.704	136.02
827.882	78.68
828.059	150.36
828.237	64.34
828.414	144.21
828.591	109.4
828.769	117.59
828.946	76.63
829.124	95.06
829.301	74.58
829.478	62.29
829.655	115.54
829.833	140.12
830.01	39.76
830.187	58.2
830.364	160.59
830.542	136.02
830.719	105.3
830.896	70.48
831.073	58.2
831.25	84.82
831.427	45.91
831.604	111.44
831.782	82.77
831.959	125.78
832.136	125.78
832.313	58.2
832.49	93.01
832.667	146.26
832.844	58.2
833.021	86.87
833.198	72.53
833.374	103.25
833.551	86.87
833.728	101.2
833.905	95.06
834.082	64.34
834.259	119.64
834.436	21.33
834.612	56.15
834.789	101.2
834.966	84.82
835.143	129.88
835.319	109.4
835.496	127.83
835.673	90.96
835.85	56.15
836.026	76.63
836.203	115.54
836.38	54.1
836.556	45.91
836.733	45.91
836.909	183.12
837.086	64.34
837.262	103.25
837.439	90.96
837.616	64.34
837.792	95.06
837.968	93.01
838.145	138.07
838.321	74.58
838.498	99.16
838.674	105.3
838.851	154.45
839.027	82.77
839.203	164.69
839.38	64.34
839.556	88.92
839.732	86.87
839.909	52.05
840.085	80.72
840.261	99.16
840.437	97.11
840.614	93.01
840.79	17.24
840.966	97.11
841.142	121.68
841.318	15.19
841.494	82.77
841.671	41.81
841.847	88.92
842.023	115.54
842.199	29.52
842.375	82.77
842.551	19.29
842.727	72.53
842.903	72.53
843.079	56.15
843.255	64.34
843.431	103.25
843.607	68.44
843.783	2.9
843.959	39.76
844.134	15.19
844.31	119.64
844.486	23.38
844.662	50
844.838	43.86
845.013	90.96
845.189	113.49
845.365	45.91
845.541	27.48
845.716	-5.29
845.892	62.29
846.068	111.44
846.244	-7.34
846.419	129.88
846.595	2.9
846.77	2.9
846.946	62.29
847.122	97.11
847.297	-11.43
847.473	21.33
847.648	60.24
847.824	97.11
847.999	21.33
848.175	23.38
848.35	50
848.526	97.11
848.701	25.43
848.876	72.53
849.052	-36.01
849.227	52.05
849.403	117.59
849.578	56.15
849.753	37.72
849.929	27.48
850.104	86.87
850.279	43.86
850.454	50
850.63	121.68
850.805	54.1
850.98	29.52
851.155	47.96
851.33	56.15
851.505	-58.54
851.681	72.53
851.856	41.81
852.031	17.24
852.206	47.96
852.381	7
852.556	21.33
852.731	19.29
852.906	54.1
853.081	29.52
853.256	50
853.431	17.24
853.606	21.33
853.781	43.86
853.956	-25.77
854.131	95.06
854.305	-27.82
854.48	-1.19
854.655	54.1
854.83	-21.67
855.005	23.38
855.18	52.05
855.354	66.39
855.529	21.33
855.704	64.34
855.879	50
856.053	97.11
856.228	33.62
856.403	95.06
856.577	66.39
856.752	47.96
856.926	47.96
857.101	80.72
857.276	-23.72
857.45	72.53
857.625	88.92
857.799	-66.73
857.974	31.57
858.148	39.76
858.323	21.33
858.497	2.9
858.672	9.05
858.846	113.49
859.02	125.78
859.195	60.24
859.369	29.52
859.543	4.95
859.718	29.52
859.892	17.24
860.066	19.29
860.241	25.43
860.415	35.67
860.589	-5.29
860.763	23.38
860.938	29.52
861.112	-3.24
861.286	27.48
861.46	60.24
861.634	-31.91
861.808	39.76
861.982	-48.3
862.157	37.72
862.331	43.86
862.505	-25.77
862.679	37.72
862.853	25.43
863.027	19.29
863.201	115.54
863.375	11.09
863.549	62.29
863.722	25.43
863.896	31.57
864.07	-40.11
864.244	-5.29
864.418	2.9
864.592	70.48
864.766	-17.58
864.939	41.81
865.113	70.48
865.287	19.29
865.461	23.38
865.634	72.53
865.808	64.34
865.982	35.67
866.156	-5.29
866.329	23.38
866.503	82.77
866.676	109.4
866.85	21.33
867.024	-62.63
867.197	90.96
867.371	17.24
867.544	47.96
867.718	23.38
867.891	66.39
868.065	19.29
868.238	-21.67
868.412	58.2
868.585	-60.59
868.759	27.48
868.932	7
869.105	-15.53
869.279	0.85
869.452	-21.67
869.625	19.29
869.799	-19.63
869.972	7
870.145	19.29
870.319	70.48
870.492	33.62
870.665	-85.16
870.838	15.19
871.011	-31.91
871.185	11.09
871.358	-23.72
871.531	7
871.704	-25.77
871.877	19.29
872.05	29.52
872.223	19.29
872.396	47.96
872.569	-1.19
872.742	9.05
872.915	-40.11
873.088	31.57
873.261	41.81
873.434	72.53
873.607	-25.77
873.78	33.62
873.953	-11.43
874.126	-1.19
874.299	-27.82
874.471	35.67
874.644	-25.77
874.817	-7.34
874.99	2.9
875.163	-58.54
875.335	-15.53
875.508	-95.4
875.681	19.29
875.853	-5.29
876.026	4.95
876.199	56.15
876.371	-42.15
876.544	-46.25
876.717	29.52
876.889	-21.67
877.062	-29.87
877.234	-52.39
877.407	-46.25
877.579	33.62
877.752	2.9
877.924	45.91
878.097	33.62
878.269	39.76
878.442	58.2
878.614	41.81
878.786	35.67
878.959	-36.01
879.131	19.29
879.303	-103.59
879.476	-23.72
879.648	-29.87
879.82	21.33
879.993	-3.24
880.165	-21.67
880.337	-31.91
880.509	86.87
880.681	-1.19
880.854	31.57
881.026	-21.67
881.198	76.63
881.37	-38.06
881.542	9.05
881.714	-15.53
881.886	-27.82
882.058	-15.53
882.23	19.29
882.402	7
882.574	-1.19
882.746	19.29
882.918	2.9
883.09	13.14
883.262	17.24
883.434	47.96
883.606	21.33
883.778	-3.24
883.95	84.82
884.122	-31.91
884.293	9.05
884.465	25.43
884.637	-21.67
884.809	41.81
884.98	-5.29
885.152	-27.82
885.324	-36.01
885.496	4.95
885.667	15.19
885.839	41.81
886.011	43.86
886.182	29.52
886.354	70.48
886.525	52.05
886.697	80.72
886.869	43.86
887.04	17.24
887.212	47.96
887.383	47.96
887.555	-40.11
887.726	0.85
887.897	-13.48
888.069	15.19
888.24	-5.29
888.412	-23.72
888.583	-3.24
888.754	-23.72
888.926	0.85
889.097	4.95
889.268	-3.24
889.44	-27.82
889.611	-52.39
889.782	21.33
889.953	19.29
890.125	56.15
890.296	4.95
890.467	25.43
890.638	-52.39
890.809	95.06
890.98	-64.68
891.151	-68.78
891.323	-33.96
891.494	15.19
891.665	-33.96
891.836	2.9
892.007	68.44
892.178	-5.29
892.349	4.95
892.52	33.62
892.691	-15.53
892.862	52.05
893.032	-9.39
893.203	47.96
893.374	-9.39
893.545	39.76
893.716	17.24
893.887	31.57
894.057	19.29
894.228	29.52
894.399	-40.11
894.57	58.2
894.74	-23.72
894.911	-29.87
895.082	-25.77
895.253	-19.63
895.423	-7.34
895.594	-48.3
895.764	7
895.935	-13.48
896.106	15.19
896.276	64.34
896.447	23.38
896.617	9.05
896.788	-38.06
896.958	-62.63
897.129	-66.73
897.299	39.76
897.47	-31.91
897.64	15.19
897.81	-11.43
897.981	-13.48
898.151	19.29
898.322	2.9
898.492	-9.39
898.662	9.05
898.832	-7.34
899.003	21.33
899.173	60.24
899.343	56.15
899.513	-9.39
