Data from USB4F104151__61__12-27-38-712.txt Node

Date: Fri Mar 14 12:27:38 EDT 2025
User: louis
Spectrometer: USB4F10415
Trigger mode: 4
Integration Time (sec): 2.000000E-2
Scans to average: 1
Electric dark correction enabled: true
Nonlinearity correction enabled: false
Boxcar width: 0
XAxis mode: Wavelengths
Number of Pixels in Spectrum: 3648
>>>>>Begin Spectral Data<<<<<
178.204	-39.08
178.424	-39.08
178.644	-39.08
178.864	-104.62
179.084	-73.9
179.304	12.12
179.524	77.65
179.744	18.26
179.964	-73.9
180.184	-4.27
180.404	18.26
180.624	-32.94
180.844	-16.55
181.064	-34.99
181.283	48.98
181.503	1.88
181.723	-14.51
181.943	-2.22
182.163	83.8
182.383	34.64
182.602	-8.36
182.822	63.32
183.042	46.93
183.262	89.94
183.482	69.46
183.701	67.41
183.921	-20.65
184.141	36.69
184.361	61.27
184.58	44.88
184.8	-30.89
185.02	-0.17
185.239	98.13
185.459	26.45
185.679	46.93
185.898	24.4
186.118	-16.55
186.338	5.97
186.557	30.55
186.777	16.21
186.997	46.93
187.216	94.04
187.436	48.98
187.655	38.74
187.875	59.22
188.095	-8.36
188.314	53.08
188.534	38.74
188.753	42.84
188.973	-10.41
189.192	96.08
189.412	30.55
189.631	40.79
189.851	1.88
190.07	3.93
190.29	40.79
190.509	28.5
190.729	3.93
190.948	20.31
191.168	24.4
191.387	34.64
191.607	34.64
191.826	44.88
192.045	-34.99
192.265	-32.94
192.484	81.75
192.704	38.74
192.923	18.26
193.142	46.93
193.362	46.93
193.581	36.69
193.8	69.46
194.02	114.52
194.239	38.74
194.458	18.26
194.678	114.52
194.897	-32.94
195.116	-2.22
195.335	26.45
195.555	48.98
195.774	38.74
195.993	14.17
196.212	-47.27
196.432	3.93
196.651	89.94
196.87	79.7
197.089	71.51
197.308	20.31
197.528	42.84
197.747	-16.55
197.966	-22.7
198.185	22.36
198.404	-8.36
198.623	44.88
198.842	-41.13
199.062	28.5
199.281	44.88
199.5	20.31
199.719	169.81
199.938	-47.27
200.157	-10.41
200.376	12.12
200.595	73.56
200.814	59.22
201.033	71.51
201.252	40.79
201.471	28.5
201.69	63.32
201.909	42.84
202.128	26.45
202.347	75.6
202.566	-16.55
202.785	61.27
203.004	28.5
203.223	91.99
203.442	94.04
203.661	-4.27
203.879	57.17
204.098	-4.27
204.317	55.12
204.536	34.64
204.755	12.12
204.974	81.75
205.193	55.12
205.411	130.9
205.63	3.93
205.849	30.55
206.068	12.12
206.287	32.6
206.505	67.41
206.724	-24.75
206.943	24.4
207.162	53.08
207.381	55.12
207.599	1.88
207.818	-20.65
208.037	-28.84
208.255	98.13
208.474	71.51
208.693	-2.22
208.911	-18.6
209.13	32.6
209.349	24.4
209.567	14.17
209.786	55.12
210.005	48.98
210.223	-30.89
210.442	8.02
210.661	3.93
210.879	16.21
211.098	83.8
211.316	38.74
211.535	14.17
211.753	14.17
211.972	14.17
212.191	34.64
212.409	-14.51
212.628	18.26
212.846	67.41
213.065	8.02
213.283	18.26
213.502	18.26
213.72	57.17
213.938	38.74
214.157	59.22
214.375	77.65
214.594	-39.08
214.812	48.98
215.031	14.17
215.249	22.36
215.467	42.84
215.686	-4.27
215.904	16.21
216.122	-39.08
216.341	-20.65
216.559	48.98
216.778	51.03
216.996	-18.6
217.214	10.07
217.432	3.93
217.651	-0.17
217.869	-26.79
218.087	53.08
218.306	18.26
218.524	57.17
218.742	3.93
218.96	44.88
219.179	36.69
219.397	67.41
219.615	69.46
219.833	14.17
220.051	20.31
220.27	32.6
220.488	-14.51
220.706	51.03
220.924	63.32
221.142	-37.03
221.36	30.55
221.578	16.21
221.796	-37.03
222.015	77.65
222.233	46.93
222.451	20.31
222.669	53.08
222.887	28.5
223.105	1.88
223.323	18.26
223.541	5.97
223.759	94.04
223.977	1.88
224.195	-34.99
224.413	14.17
224.631	79.7
224.849	20.31
225.067	14.17
225.285	5.97
225.503	40.79
225.721	-4.27
225.939	20.31
226.157	87.89
226.375	116.56
226.592	-77.99
226.81	16.21
227.028	100.18
227.246	44.88
227.464	8.02
227.682	24.4
227.9	30.55
228.117	34.64
228.335	135
228.553	16.21
228.771	24.4
228.989	57.17
229.206	-28.84
229.424	63.32
229.642	30.55
229.86	-2.22
230.077	57.17
230.295	44.88
230.513	5.97
230.731	-28.84
230.948	94.04
231.166	75.6
231.384	16.21
231.601	48.98
231.819	85.84
232.037	36.69
232.254	-45.23
232.472	57.17
232.689	67.41
232.907	53.08
233.125	-47.27
233.342	53.08
233.56	18.26
233.777	40.79
233.995	26.45
234.213	3.93
234.43	-30.89
234.648	38.74
234.865	57.17
235.083	55.12
235.3	34.64
235.518	42.84
235.735	34.64
235.953	20.31
236.17	-6.31
236.388	10.07
236.605	-26.79
236.822	53.08
237.04	16.21
237.257	51.03
237.475	30.55
237.692	48.98
237.909	36.69
238.127	26.45
238.344	65.36
238.562	16.21
238.779	5.97
238.996	42.84
239.214	91.99
239.431	71.51
239.648	-10.41
239.865	-34.99
240.083	67.41
240.3	-2.22
240.517	12.12
240.735	-0.17
240.952	53.08
241.169	77.65
241.386	73.56
241.603	59.22
241.821	-10.41
242.038	55.12
242.255	1.88
242.472	20.31
242.689	44.88
242.907	71.51
243.124	-20.65
243.341	-73.9
243.558	12.12
243.775	5.97
243.992	65.36
244.209	44.88
244.426	46.93
244.643	24.4
244.86	-18.6
245.078	22.36
245.295	46.93
245.512	57.17
245.729	30.55
245.946	61.27
246.163	44.88
246.38	34.64
246.597	36.69
246.814	16.21
247.031	67.41
247.248	116.56
247.464	14.17
247.681	16.21
247.898	3.93
248.115	-2.22
248.332	20.31
248.549	55.12
248.766	32.6
248.983	96.08
249.2	10.07
249.417	59.22
249.633	16.21
249.85	51.03
250.067	26.45
250.284	48.98
250.501	53.08
250.717	135
250.934	59.22
251.151	8.02
251.368	57.17
251.585	28.5
251.801	65.36
252.018	-41.13
252.235	42.84
252.451	-4.27
252.668	46.93
252.885	61.27
253.102	1.88
253.318	34.64
253.535	36.69
253.752	79.7
253.968	-6.31
254.185	42.84
254.401	14.17
254.618	-43.18
254.835	102.23
255.051	51.03
255.268	40.79
255.484	75.6
255.701	-100.52
255.917	61.27
256.134	57.17
256.351	22.36
256.567	42.84
256.784	61.27
257	-51.37
257.217	10.07
257.433	65.36
257.65	16.21
257.866	5.97
258.082	55.12
258.299	44.88
258.515	-4.27
258.732	57.17
258.948	-26.79
259.165	14.17
259.381	-49.32
259.597	32.6
259.814	14.17
260.03	20.31
260.246	-45.23
260.463	63.32
260.679	65.36
260.895	30.55
261.112	65.36
261.328	63.32
261.544	77.65
261.761	5.97
261.977	32.6
262.193	-53.42
262.409	32.6
262.626	-34.99
262.842	32.6
263.058	-0.17
263.274	94.04
263.49	83.8
263.707	-22.7
263.923	-2.22
264.139	-4.27
264.355	8.02
264.571	61.27
264.787	-2.22
265.004	67.41
265.22	-8.36
265.436	-47.27
265.652	67.41
265.868	38.74
266.084	30.55
266.3	48.98
266.516	63.32
266.732	3.93
266.948	36.69
267.164	-10.41
267.38	61.27
267.596	18.26
267.812	96.08
268.028	51.03
268.244	-18.6
268.46	55.12
268.676	-53.42
268.892	42.84
269.108	59.22
269.324	3.93
269.54	-39.08
269.756	42.84
269.972	-16.55
270.188	-0.17
270.403	3.93
270.619	-6.31
270.835	22.36
271.051	24.4
271.267	94.04
271.483	85.84
271.698	-39.08
271.914	89.94
272.13	1.88
272.346	32.6
272.562	26.45
272.777	34.64
272.993	10.07
273.209	48.98
273.425	26.45
273.64	18.26
273.856	40.79
274.072	-14.51
274.287	-4.27
274.503	14.17
274.719	110.42
274.934	18.26
275.15	-86.19
275.366	42.84
275.581	69.46
275.797	53.08
276.012	157.52
276.228	14.17
276.444	59.22
276.659	30.55
276.875	46.93
277.09	89.94
277.306	110.42
277.521	81.75
277.737	118.61
277.952	55.12
278.168	87.89
278.383	-14.51
278.599	63.32
278.814	53.08
279.03	26.45
279.245	10.07
279.461	8.02
279.676	75.6
279.892	-37.03
280.107	73.56
280.322	-12.46
280.538	59.22
280.753	51.03
280.969	44.88
281.184	22.36
281.399	71.51
281.615	-4.27
281.83	110.42
282.045	-2.22
282.26	46.93
282.476	12.12
282.691	51.03
282.906	10.07
283.122	-28.84
283.337	48.98
283.552	28.5
283.767	-6.31
283.983	85.84
284.198	34.64
284.413	98.13
284.628	46.93
284.843	32.6
285.058	-16.55
285.274	3.93
285.489	14.17
285.704	53.08
285.919	5.97
286.134	44.88
286.349	81.75
286.564	5.97
286.779	63.32
286.995	106.32
287.21	-14.51
287.425	42.84
287.64	8.02
287.855	67.41
288.07	8.02
288.285	48.98
288.5	77.65
288.715	38.74
288.93	12.12
289.145	1.88
289.36	16.21
289.575	10.07
289.79	53.08
290.004	5.97
290.219	46.93
290.434	-20.65
290.649	48.98
290.864	3.93
291.079	-2.22
291.294	24.4
291.509	120.66
291.724	3.93
291.938	81.75
292.153	38.74
292.368	16.21
292.583	-14.51
292.798	10.07
293.012	53.08
293.227	8.02
293.442	-28.84
293.657	-6.31
293.871	57.17
294.086	30.55
294.301	65.36
294.516	69.46
294.73	53.08
294.945	-4.27
295.16	51.03
295.374	59.22
295.589	8.02
295.804	-0.17
296.018	57.17
296.233	98.13
296.447	46.93
296.662	-12.46
296.877	20.31
297.091	57.17
297.306	26.45
297.52	-6.31
297.735	85.84
297.949	57.17
298.164	46.93
298.378	61.27
298.593	24.4
298.807	75.6
299.022	61.27
299.236	28.5
299.451	28.5
299.665	-12.46
299.88	75.6
300.094	16.21
300.309	42.84
300.523	8.02
300.737	94.04
300.952	85.84
301.166	24.4
301.381	-12.46
301.595	102.23
301.809	53.08
302.024	79.7
302.238	-28.84
302.452	1.88
302.667	75.6
302.881	24.4
303.095	61.27
303.309	42.84
303.524	-20.65
303.738	57.17
303.952	40.79
304.166	1.88
304.381	-2.22
304.595	-37.03
304.809	8.02
305.023	32.6
305.237	30.55
305.452	42.84
305.666	81.75
305.88	51.03
306.094	-30.89
306.308	-30.89
306.522	36.69
306.736	26.45
306.95	12.12
307.164	20.31
307.379	-24.75
307.593	114.52
307.807	-24.75
308.021	44.88
308.235	28.5
308.449	-55.47
308.663	28.5
308.877	61.27
309.091	42.84
309.305	149.33
309.519	51.03
309.733	73.56
309.947	87.89
310.161	34.64
310.374	61.27
310.588	34.64
310.802	24.4
311.016	73.56
311.23	61.27
311.444	42.84
311.658	-41.13
311.872	85.84
312.085	53.08
312.299	53.08
312.513	106.32
312.727	24.4
312.941	32.6
313.154	30.55
313.368	53.08
313.582	77.65
313.796	5.97
314.009	3.93
314.223	63.32
314.437	53.08
314.651	67.41
314.864	32.6
315.078	48.98
315.292	-0.17
315.505	-0.17
315.719	89.94
315.933	16.21
316.146	46.93
316.36	-63.66
316.573	55.12
316.787	-12.46
317.001	57.17
317.214	-22.7
317.428	-28.84
317.641	3.93
317.855	79.7
318.068	12.12
318.282	106.32
318.495	3.93
318.709	91.99
318.922	57.17
319.136	32.6
319.349	65.36
319.563	8.02
319.776	69.46
319.99	-8.36
320.203	48.98
320.417	36.69
320.63	91.99
320.843	55.12
321.057	26.45
321.27	-12.46
321.483	-6.31
321.697	34.64
321.91	63.32
322.124	151.38
322.337	91.99
322.55	16.21
322.763	79.7
322.977	85.84
323.19	-26.79
323.403	12.12
323.617	71.51
323.83	122.71
324.043	-47.27
324.256	36.69
324.469	83.8
324.683	36.69
324.896	63.32
325.109	10.07
325.322	-39.08
325.535	46.93
325.748	42.84
325.962	57.17
326.175	69.46
326.388	-26.79
326.601	87.89
326.814	85.84
327.027	91.99
327.24	85.84
327.453	5.97
327.666	-10.41
327.879	10.07
328.092	63.32
328.305	34.64
328.518	24.4
328.731	32.6
328.944	73.56
329.157	36.69
329.37	81.75
329.583	98.13
329.796	34.64
330.009	-8.36
330.222	96.08
330.435	53.08
330.648	-37.03
330.861	-4.27
331.073	61.27
331.286	-61.61
331.499	8.02
331.712	30.55
331.925	120.66
332.138	40.79
332.35	81.75
332.563	63.32
332.776	75.6
332.989	-6.31
333.202	108.37
333.414	-0.17
333.627	10.07
333.84	5.97
334.053	-0.17
334.265	34.64
334.478	44.88
334.691	94.04
334.903	34.64
335.116	14.17
335.329	24.4
335.541	-71.85
335.754	108.37
335.966	-14.51
336.179	51.03
336.392	40.79
336.604	3.93
336.817	79.7
337.029	59.22
337.242	28.5
337.454	46.93
337.667	1.88
337.88	126.8
338.092	22.36
338.305	96.08
338.517	20.31
338.729	79.7
338.942	81.75
339.154	44.88
339.367	38.74
339.579	108.37
339.792	16.21
340.004	71.51
340.217	-0.17
340.429	63.32
340.641	51.03
340.854	-18.6
341.066	42.84
341.278	75.6
341.491	20.31
341.703	63.32
341.915	34.64
342.128	8.02
342.34	-2.22
342.552	32.6
342.764	-0.17
342.977	36.69
343.189	38.74
343.401	42.84
343.613	-20.65
343.826	87.89
344.038	-24.75
344.25	24.4
344.462	-20.65
344.674	122.71
344.886	53.08
345.099	57.17
345.311	22.36
345.523	-57.51
345.735	12.12
345.947	38.74
346.159	38.74
346.371	26.45
346.583	8.02
346.795	108.37
347.007	48.98
347.219	-6.31
347.431	-4.27
347.643	36.69
347.855	79.7
348.067	42.84
348.279	38.74
348.491	67.41
348.703	108.37
348.915	38.74
349.127	40.79
349.339	96.08
349.551	8.02
349.763	71.51
349.975	32.6
350.187	38.74
350.399	85.84
350.61	-12.46
350.822	85.84
351.034	77.65
351.246	89.94
351.458	106.32
351.669	96.08
351.881	57.17
352.093	69.46
352.305	51.03
352.517	16.21
352.728	69.46
352.94	87.89
353.152	83.8
353.363	32.6
353.575	87.89
353.787	63.32
353.999	71.51
354.21	42.84
354.422	28.5
354.633	65.36
354.845	22.36
355.057	89.94
355.268	46.93
355.48	79.7
355.692	61.27
355.903	57.17
356.115	40.79
356.326	79.7
356.538	98.13
356.749	77.65
356.961	53.08
357.172	53.08
357.384	26.45
357.595	71.51
357.807	112.47
358.018	-30.89
358.23	71.51
358.441	91.99
358.653	94.04
358.864	36.69
359.075	69.46
359.287	32.6
359.498	-6.31
359.709	44.88
359.921	28.5
360.132	141.14
360.344	81.75
360.555	-49.32
360.766	20.31
360.977	-22.7
361.189	63.32
361.4	89.94
361.611	79.7
361.823	91.99
362.034	36.69
362.245	5.97
362.456	83.8
362.667	8.02
362.879	16.21
363.09	61.27
363.301	36.69
363.512	63.32
363.723	67.41
363.935	108.37
364.146	104.28
364.357	-18.6
364.568	42.84
364.779	28.5
364.99	3.93
365.201	104.28
365.412	77.65
365.623	-24.75
365.834	53.08
366.045	53.08
366.256	75.6
366.467	85.84
366.678	110.42
366.889	-22.7
367.1	-10.41
367.311	94.04
367.522	16.21
367.733	77.65
367.944	94.04
368.155	14.17
368.366	63.32
368.577	77.65
368.788	65.36
368.999	81.75
369.209	96.08
369.42	46.93
369.631	34.64
369.842	34.64
370.053	1.88
370.264	61.27
370.474	-37.03
370.685	102.23
370.896	16.21
371.107	12.12
371.317	24.4
371.528	28.5
371.739	108.37
371.95	69.46
372.16	5.97
372.371	36.69
372.582	42.84
372.792	18.26
373.003	67.41
373.214	71.51
373.424	96.08
373.635	18.26
373.846	102.23
374.056	65.36
374.267	-18.6
374.477	81.75
374.688	114.52
374.898	126.8
375.109	28.5
375.319	67.41
375.53	102.23
375.74	-37.03
375.951	69.46
376.161	28.5
376.372	67.41
376.582	59.22
376.793	14.17
377.003	57.17
377.214	3.93
377.424	26.45
377.635	20.31
377.845	26.45
378.055	87.89
378.266	-26.79
378.476	5.97
378.686	120.66
378.897	94.04
379.107	128.85
379.317	48.98
379.528	-6.31
379.738	26.45
379.948	30.55
380.158	63.32
380.369	38.74
380.579	-41.13
380.789	-8.36
380.999	40.79
381.21	94.04
381.42	65.36
381.63	-16.55
381.84	-4.27
382.05	61.27
382.261	83.8
382.471	124.76
382.681	53.08
382.891	61.27
383.101	81.75
383.311	38.74
383.521	-10.41
383.731	130.9
383.941	116.56
384.151	24.4
384.361	91.99
384.571	61.27
384.781	24.4
384.991	36.69
385.201	46.93
385.411	96.08
385.621	94.04
385.831	53.08
386.041	46.93
386.251	-6.31
386.461	16.21
386.671	96.08
386.881	98.13
387.091	69.46
387.301	32.6
387.511	81.75
387.72	69.46
387.93	83.8
388.14	36.69
388.35	87.89
388.56	24.4
388.769	91.99
388.979	53.08
389.189	5.97
389.399	-10.41
389.609	48.98
389.818	96.08
390.028	-30.89
390.238	32.6
390.447	87.89
390.657	110.42
390.867	36.69
391.076	79.7
391.286	55.12
391.496	65.36
391.705	145.24
391.915	98.13
392.125	106.32
392.334	-6.31
392.544	118.61
392.753	167.76
392.963	38.74
393.172	71.51
393.382	46.93
393.591	44.88
393.801	104.28
394.01	69.46
394.22	112.47
394.429	120.66
394.639	73.56
394.848	89.94
395.058	91.99
395.267	104.28
395.477	75.6
395.686	22.36
395.895	118.61
396.105	180.05
396.314	42.84
396.524	79.7
396.733	112.47
396.942	141.14
397.152	81.75
397.361	120.66
397.57	85.84
397.78	126.8
397.989	77.65
398.198	83.8
398.407	132.95
398.617	163.67
398.826	61.27
399.035	89.94
399.244	139.09
399.453	63.32
399.663	67.41
399.872	120.66
400.081	-6.31
400.29	155.47
400.499	65.36
400.708	116.56
400.917	94.04
401.127	55.12
401.336	42.84
401.545	180.05
401.754	91.99
401.963	173.91
402.172	91.99
402.381	85.84
402.59	57.17
402.799	106.32
403.008	128.85
403.217	167.76
403.426	178
403.635	96.08
403.844	102.23
404.053	94.04
404.262	87.89
404.471	130.9
404.68	180.05
404.888	102.23
405.097	135
405.306	161.62
405.515	163.67
405.724	188.24
405.933	114.52
406.142	118.61
406.35	139.09
406.559	204.63
406.768	259.92
406.977	163.67
407.185	188.24
407.394	153.43
407.603	206.67
407.812	175.95
408.02	288.59
408.229	147.28
408.438	251.73
408.646	184.15
408.855	180.05
409.064	216.91
409.272	245.59
409.481	235.35
409.69	198.48
409.898	309.07
410.107	304.98
410.315	282.45
410.524	286.54
410.733	257.87
410.941	350.03
411.15	337.74
411.358	368.46
411.567	403.28
411.775	362.32
411.984	298.83
412.192	429.9
412.401	360.27
412.609	421.71
412.818	411.47
413.026	466.77
413.234	462.67
413.443	532.3
413.651	448.33
413.86	546.64
414.068	554.83
414.276	550.73
414.485	593.74
414.693	540.49
414.901	567.12
415.11	640.84
415.318	612.17
415.526	585.55
415.734	659.28
415.943	696.14
416.151	769.87
416.359	739.15
416.567	837.45
416.776	798.54
416.984	849.74
417.192	923.46
417.4	810.82
417.608	900.94
417.817	1027.91
418.025	980.81
418.233	1068.87
418.441	933.7
418.649	1134.4
418.857	1226.56
419.065	1204.03
419.273	1097.54
419.481	1179.46
419.689	1349.44
419.897	1341.25
420.105	1339.2
420.313	1421.12
420.521	1460.03
420.729	1474.37
420.937	1560.38
421.145	1638.2
421.353	1546.05
421.561	1666.88
421.769	1761.08
421.977	1900.34
422.185	1818.43
422.393	1912.63
422.601	1992.5
422.809	2103.09
423.017	1949.5
423.224	2090.81
423.432	2101.05
423.64	2139.96
423.848	2455.34
424.056	2375.47
424.263	2533.17
424.471	2543.41
424.679	2598.7
424.887	2758.44
425.094	2891.56
425.302	2895.66
425.51	2961.19
425.718	2989.86
425.925	3047.21
426.133	3215.14
426.341	3413.79
426.548	3565.34
426.756	3553.06
426.964	3694.36
427.171	3641.12
427.379	3907.35
427.586	3987.22
427.794	4079.38
428.001	4144.92
428.209	4325.14
428.417	4230.93
428.624	4507.41
428.832	4742.92
429.039	4534.03
429.247	4644.62
429.454	5140.23
429.662	5437.19
429.869	5097.22
430.076	5463.81
430.284	5283.59
430.491	5498.63
430.699	5789.44
430.906	5785.34
431.114	5900.03
431.321	6131.45
431.528	6254.33
431.736	6618.86
431.943	7077.61
432.15	6694.64
432.358	6819.57
432.565	7251.69
432.772	7147.24
432.979	7569.12
433.187	7694.05
433.394	7735.01
433.601	8095.45
433.808	8400.6
434.016	8120.03
434.223	8521.43
434.43	9039.56
434.637	8740.56
434.844	9352.9
435.052	9758.4
435.259	9672.39
435.466	9699.01
435.673	9699.01
435.88	10391.22
436.087	10862.26
436.294	10806.96
436.501	10446.52
436.708	10817.2
436.915	11110.06
437.122	11693.73
437.329	11404.97
437.537	12056.22
437.743	12189.34
437.95	11945.63
438.157	12588.69
438.364	13145.74
438.571	13149.84
438.778	12979.86
438.985	14130.81
439.192	13831.81
439.399	14161.53
439.606	14069.37
439.813	14870.13
440.02	15584.87
440.227	15550.06
440.433	15003.25
440.64	15629.93
440.847	15615.59
441.054	15906.4
441.261	17063.5
441.467	16631.38
441.674	16887.38
441.881	17892.93
442.088	17604.17
442.294	17577.55
442.501	17915.46
442.708	18509.37
442.914	19127.86
443.121	19656.23
443.328	19232.3
443.534	20991.51
443.741	20272.67
443.948	19824.17
444.154	21327.38
444.361	21456.4
444.568	21276.18
444.774	21278.22
444.981	21483.02
445.187	22210.05
445.394	23397.87
445.6	22892.02
445.807	24944.09
446.013	23944.68
446.22	24456.67
446.426	25609.68
446.633	25759.18
446.839	26527.17
447.046	25560.53
447.252	26975.67
447.459	26979.77
447.665	26920.38
447.871	28310.95
448.078	29427.09
448.284	27602.35
448.491	28691.87
448.697	29678.99
448.903	30262.66
449.11	30543.24
449.316	30414.21
449.522	30287.24
449.728	31704.43
449.935	31313.27
450.141	31706.48
450.347	31939.95
450.553	31100.28
450.76	31614.32
450.966	33013.09
451.172	32329.06
451.378	33105.24
451.584	32736.61
451.791	33330.52
451.997	33095
452.203	33703.25
452.409	33842.51
452.615	33344.86
452.821	32572.77
453.027	32271.72
453.233	33588.56
453.44	32167.27
453.646	32832.86
453.852	33326.42
454.058	33572.18
454.264	32626.02
454.47	33217.88
454.676	32464.23
454.882	33475.93
455.088	30406.02
455.294	31012.22
455.5	31485.3
455.705	31982.96
455.911	30627.2
456.117	30123.4
456.323	29334.93
456.529	28073.38
456.735	29089.18
456.941	28632.48
457.147	28118.44
457.352	27162.04
457.558	26901.95
457.764	26918.33
457.97	26738.11
458.176	25935.31
458.381	26004.94
458.587	24688.09
458.793	24765.92
458.999	23313.91
459.204	25048.54
459.41	24493.54
459.616	22787.58
459.821	22566.4
460.027	22844.92
460.233	22013.45
460.438	21075.48
460.644	21347.86
460.85	20325.92
461.055	19832.36
461.261	20145.7
461.466	18429.5
461.672	17991.23
461.878	19342.89
462.083	17837.64
462.289	17745.48
462.494	17483.34
462.7	16477.79
462.905	16254.56
463.111	16877.14
463.316	16883.28
463.522	16508.51
463.727	16539.22
463.932	16576.09
464.138	16354.91
464.343	16311.9
464.549	16012.9
464.754	16492.12
464.959	16178.78
465.165	16082.53
465.37	15289.96
465.575	15074.93
465.781	15980.13
465.986	15744.61
466.191	15085.17
466.397	14730.87
466.602	14114.43
466.807	14716.53
467.012	14890.61
467.218	14511.74
467.423	14607.99
467.628	14464.63
467.833	15279.72
468.038	14476.92
468.244	14257.79
468.449	14575.22
468.654	14190.2
468.859	14372.47
469.064	14134.91
469.269	13424.26
469.474	13602.44
469.679	14012.03
469.885	13571.72
470.09	13596.29
470.295	13733.51
470.5	13233.8
470.705	13481.61
470.91	12994.19
471.115	13131.4
471.32	13168.27
471.525	13037.2
471.73	12850.83
471.935	12617.36
472.139	12205.72
472.344	12402.33
472.549	12373.66
472.754	12213.91
472.959	12025.5
473.164	11761.31
473.369	11837.09
473.574	11888.29
473.778	12105.37
473.983	11708.07
474.188	11818.66
474.393	11210.41
474.598	11329.19
474.802	11234.99
475.007	11042.48
475.212	11144.88
475.417	10761.91
475.621	10753.71
475.826	10843.82
476.031	10391.22
476.235	10280.63
476.44	10333.88
476.645	10174.14
476.849	10135.23
477.054	10243.77
477.259	9971.39
477.463	10073.79
477.668	9709.25
477.872	9600.71
478.077	9717.44
478.282	9424.58
478.486	9426.63
478.691	9438.92
478.895	9510.6
479.1	9209.54
479.304	9500.36
479.509	9111.24
479.713	9293.51
479.918	9025.23
480.122	8838.86
480.326	8933.07
480.531	9008.84
480.735	9029.32
480.94	8523.48
481.144	9029.32
481.348	8474.32
481.553	8668.88
481.757	8615.63
481.961	8783.57
482.166	8804.05
482.37	8795.86
482.574	8685.26
482.778	8539.86
482.983	8771.28
483.187	8543.95
483.391	8709.84
483.595	8683.22
483.8	8472.28
484.004	8511.19
484.208	8670.93
484.412	8500.95
484.616	8507.09
484.821	8580.82
485.025	8304.34
485.229	8664.79
485.433	8523.48
485.637	8699.6
485.841	8525.52
486.045	8419.03
486.249	8586.96
486.453	8668.88
486.657	8595.15
486.861	8644.31
487.065	8490.71
487.269	8472.28
487.473	8296.15
487.677	8818.38
487.881	8709.84
488.085	8515.28
488.289	8457.94
488.493	8613.59
488.697	8572.63
488.901	8519.38
489.105	8711.89
489.309	8703.7
489.512	8740.56
489.716	8683.22
489.92	8607.44
490.124	8582.87
490.328	8949.45
490.531	8642.26
490.735	8785.62
490.939	8877.77
491.143	8724.18
491.346	8814.29
491.55	8912.59
491.754	8953.55
491.958	8957.64
492.161	8910.54
492.365	9129.67
492.569	9144.01
492.772	8828.62
492.976	9086.67
493.18	9285.32
493.383	9158.35
493.587	9473.73
493.79	9197.26
493.994	9021.13
494.197	9569.99
494.401	9572.04
494.605	9318.09
494.808	9715.39
495.012	9561.8
495.215	9748.16
495.419	9952.96
495.622	9780.93
495.825	9780.93
496.029	9971.39
496.232	10112.7
496.436	10211
496.639	10561.2
496.843	10305.21
497.046	10475.19
497.249	10575.54
497.453	10634.93
497.656	10720.95
497.859	10649.27
498.063	10774.19
498.266	11234.99
498.469	11128.49
498.673	11310.76
498.876	11177.64
499.079	11386.54
499.282	11480.74
499.485	11603.62
499.689	11857.57
499.892	11923.1
500.095	11738.79
500.298	12353.18
500.501	12312.22
500.705	12435.1
500.908	12760.72
501.111	12865.17
501.314	12543.64
501.517	13026.96
501.72	13100.69
501.923	13164.17
502.126	13231.76
502.329	13618.82
502.532	13342.35
502.735	13835.91
502.938	13948.54
503.141	13952.64
503.344	14274.17
503.547	14407.29
503.75	14411.39
503.953	14708.34
504.156	14847.6
504.359	14839.41
504.562	15003.25
504.765	15468.14
504.968	15365.74
505.17	15677.03
505.373	15728.23
505.576	15865.44
505.779	16311.9
505.982	16338.52
506.185	16655.96
506.387	16877.14
506.59	16635.48
506.793	16995.92
506.996	17014.35
507.198	17339.98
507.401	17546.83
507.604	17512.01
507.807	17765.96
508.009	17999.43
508.212	18161.22
508.415	18376.25
508.617	18425.4
508.82	18499.13
509.022	18523.71
509.225	19177.01
509.428	19125.81
509.63	19559.98
509.833	19504.68
510.035	19838.5
510.238	19945
510.44	20248.1
510.643	20276.77
510.845	20471.32
511.048	20303.39
511.25	21081.62
511.453	21179.92
511.655	21657.1
511.858	21571.08
512.06	21612.04
512.262	21933.57
512.465	21782.02
512.667	22281.73
512.87	22480.38
513.072	22361.6
513.274	22941.18
513.477	23344.63
513.679	23170.55
513.881	23655.92
514.084	23807.47
514.286	23944.68
514.488	24016.36
514.69	24669.66
514.893	24266.21
515.095	24612.32
515.297	25181.65
515.499	25050.58
515.701	25370.07
515.904	25769.42
516.106	26000.84
516.308	26199.49
516.51	26185.16
516.712	26637.76
516.914	26572.22
517.116	27170.23
517.318	27147.7
517.52	27444.66
517.722	27612.59
517.925	27790.77
518.127	27932.08
518.329	28138.92
518.531	28104.1
518.733	28794.27
518.935	28847.52
519.136	28700.06
519.338	29322.65
519.54	29238.68
519.742	29382.04
519.944	29758.86
520.146	30266.76
520.348	30492.04
520.55	30137.74
520.752	30739.84
520.954	31268.22
521.155	31104.38
521.357	31311.22
521.559	31778.16
521.761	32224.62
521.963	31792.5
522.164	32243.05
522.366	32234.86
522.568	32804.19
522.77	32800.1
522.971	33310.04
523.173	32998.75
523.375	33465.69
523.576	33191.26
523.778	33451.35
523.98	34069.84
524.181	34116.94
524.383	33826.13
524.584	34293.07
524.786	34544.97
524.988	34295.11
525.189	35032.38
525.391	35003.71
525.592	35210.56
525.794	35343.67
525.995	35423.54
526.197	35532.09
526.398	35290.43
526.6	35886.39
526.801	35820.85
527.003	35921.2
527.204	35841.33
527.406	36181.29
527.607	36205.87
527.808	36449.58
528.01	36103.47
528.211	36592.93
528.412	37279
528.614	36814.12
528.815	37080.35
529.016	37023.01
529.218	37408.03
529.419	36732.2
529.62	37528.86
529.822	37365.02
530.023	37373.21
530.224	37883.16
530.425	37909.78
530.626	37213.47
530.828	37479.71
531.029	38610.18
531.23	37791
531.431	37719.32
531.632	37504.28
531.833	37911.83
532.035	37756.18
532.236	37838.1
532.437	38014.23
532.638	37967.12
532.839	38141.2
533.04	38520.07
533.241	38051.09
533.442	38653.19
533.643	38171.92
533.844	38341.9
534.045	38143.25
534.246	38294.8
534.447	37965.07
534.648	38141.2
534.849	38284.56
535.05	38243.6
535.251	38630.66
535.451	38413.58
535.652	38425.87
535.853	38133.01
536.054	38577.42
536.255	38196.49
536.456	38092.05
536.657	38866.18
536.857	38481.16
537.058	38622.47
537.259	38948.1
537.46	38493.45
537.66	38389
537.861	38814.98
538.062	38604.04
538.263	38941.96
538.463	38085.9
538.664	38167.82
538.865	38960.39
539.065	39120.13
539.266	38116.62
539.466	38700.29
539.667	38272.27
539.868	38919.43
540.068	38561.03
540.269	38460.68
540.469	38688.01
540.67	38126.86
540.87	38561.03
541.071	38114.58
541.271	38460.68
541.472	38053.14
541.672	37917.97
541.873	38272.27
542.073	37623.06
542.274	38810.89
542.474	38249.74
542.675	37747.99
542.875	38561.03
543.075	38442.25
543.276	38155.54
543.476	38429.96
543.676	38155.54
543.877	38401.29
544.077	38446.35
544.277	38149.39
544.478	38155.54
544.678	38356.24
544.878	38429.96
545.078	38487.31
545.279	38061.33
545.479	38038.8
545.679	38391.05
545.879	38466.83
546.079	38171.92
546.28	38231.31
546.48	38010.13
546.68	38180.11
546.88	38307.08
547.08	38462.73
547.28	38155.54
547.48	37764.37
547.68	38227.21
547.88	37907.73
548.081	38307.08
548.281	38061.33
548.481	38133.01
548.681	38503.69
548.881	37958.93
549.081	38546.7
549.28	38282.51
549.48	38049.04
549.68	38055.18
549.88	38698.25
550.08	38282.51
550.28	37965.07
550.48	38040.85
550.68	38020.37
550.88	38003.99
551.08	38335.76
551.279	38282.51
551.479	38038.8
551.679	37946.64
551.879	37854.48
552.079	37958.93
552.278	37563.67
552.478	37805.33
552.678	37989.65
552.878	38225.17
553.077	37561.62
553.277	37696.79
553.477	37979.41
553.676	37960.98
553.876	37496.09
554.076	37573.91
554.275	37934.35
554.475	37438.75
554.674	38046.99
554.874	37799.19
555.074	37598.49
555.273	37762.33
555.473	38151.44
555.672	37555.48
555.872	37723.41
556.071	37680.41
556.271	37788.95
556.47	37514.52
556.67	37668.12
556.869	37170.46
557.068	38135.06
557.268	37623.06
557.467	37422.36
557.667	37348.64
557.866	37264.67
558.065	37246.24
558.265	37137.69
558.464	37192.99
558.663	37580.06
558.863	36588.84
559.062	37901.59
559.261	36934.95
559.461	37551.38
559.66	36511.02
559.859	36810.02
560.058	36953.38
560.258	36969.76
560.457	36832.55
560.656	37049.63
560.855	36613.41
561.054	36908.32
561.253	36439.34
561.453	37043.49
561.652	36672.81
561.851	36640.04
562.05	36476.2
562.249	35851.57
562.448	36574.5
562.647	36783.4
562.846	36584.74
563.045	36244.78
563.244	35734.84
563.443	36535.59
563.642	35747.12
563.841	36169.01
564.04	35892.53
564.239	36459.82
564.438	35525.94
564.637	36093.23
564.836	35906.87
565.035	35337.53
565.234	35949.87
565.432	35444.02
565.631	35265.85
565.83	35491.13
566.029	35401.02
566.228	35487.03
566.427	35704.12
566.625	35192.12
566.824	34964.8
567.023	35147.07
567.222	34438.47
567.42	35550.52
567.619	35153.21
567.818	34895.17
568.016	34725.19
568.215	35245.37
568.414	34274.63
568.612	35104.06
568.811	34432.33
569.01	34846.02
569.208	34198.86
569.407	34833.73
569.605	33946.96
569.804	34479.43
570.002	34080.08
570.201	34024.78
570.4	33832.27
570.598	33887.57
570.797	33910.1
570.995	33668.44
571.193	33699.16
571.392	33969.49
571.59	33686.87
571.789	33359.19
571.987	33398.1
572.186	33553.75
572.384	33029.47
572.582	33424.73
572.781	33275.23
572.979	33217.88
573.177	33088.86
573.376	32935.26
573.574	32986.46
573.772	32810.34
573.971	32339.3
574.169	32499.05
574.367	32351.59
574.565	32804.19
574.763	32945.5
574.962	32677.22
575.16	32159.08
575.358	32263.53
575.556	32095.6
575.754	32310.63
575.952	31917.42
576.151	32570.72
576.349	31741.3
576.547	31763.82
576.745	32304.49
576.943	31722.87
577.141	31982.96
577.339	31917.42
577.537	31542.64
577.735	31882.61
577.933	31208.83
578.131	31636.85
578.329	31106.43
578.527	31260.02
578.725	31204.73
578.923	31522.16
579.121	30967.16
579.319	30813.57
579.516	31432.05
579.714	31014.27
579.912	30612.87
580.11	30774.66
580.308	31047.04
580.506	30930.3
580.704	30406.02
580.901	30743.94
581.099	30838.14
581.297	30100.87
581.495	30420.36
581.692	30647.68
581.89	29951.37
582.088	30655.87
582.285	30088.59
582.483	30264.71
582.681	30055.82
582.878	29715.86
583.076	29791.63
583.274	29930.89
583.471	29543.83
583.669	30150.03
583.866	29584.79
584.064	29611.41
584.262	29339.03
584.459	29631.89
584.657	29066.65
584.854	29582.74
585.052	29138.33
585.249	29076.89
585.447	29414.8
585.644	28841.37
585.841	29007.26
586.039	29017.5
586.236	28378.53
586.434	28720.54
586.631	28544.42
586.828	28841.37
587.026	28607.9
587.223	28394.92
587.42	28493.22
587.618	28415.4
587.815	27839.92
588.012	27942.31
588.21	27794.86
588.407	27850.16
588.604	27772.33
588.801	27497.91
588.999	27887.02
589.196	27553.2
589.393	27676.08
589.59	27653.55
589.787	27520.43
589.984	27342.26
590.182	26836.41
590.379	27321.78
590.576	27188.66
590.773	27084.22
590.97	26799.55
591.167	27133.37
591.364	26555.84
591.561	26985.91
591.758	26447.3
591.955	26441.15
592.152	26578.37
592.349	26834.36
592.546	26279.36
592.743	26576.32
592.94	26396.1
593.137	26197.45
593.334	26342.85
593.531	25634.25
593.727	25957.83
593.924	26179.01
594.121	25730.51
594.318	26021.32
594.515	25470.42
594.712	26062.28
594.908	25417.17
595.105	25593.29
595.302	25236.95
595.499	25468.37
595.696	25507.28
595.892	25120.21
596.089	25122.26
596.286	25341.39
596.482	24960.47
596.679	24761.82
596.876	25243.09
597.072	24929.75
597.269	24784.35
597.466	24659.42
597.662	24382.95
597.859	24593.89
598.055	24575.45
598.252	24434.14
598.448	24137.19
598.645	24317.41
598.841	24038.89
599.038	24077.8
599.234	24065.51
599.431	23887.34
599.627	23959.02
599.824	24036.84
600.02	23481.84
600.217	23821.8
600.413	23924.2
600.609	23500.27
600.806	23492.08
601.002	23582.19
601.198	23344.63
601.395	23645.68
601.591	23270.9
601.787	23381.49
601.984	22978.04
602.18	23483.89
602.376	23449.07
602.572	22824.44
602.769	23123.44
602.965	22754.81
603.161	22584.83
603.357	22726.14
603.553	22437.37
603.75	22408.7
603.946	22554.11
604.142	22822.39
604.338	22224.39
604.534	22222.34
604.73	22117.89
604.926	22107.65
605.122	22699.51
605.318	21900.81
605.514	21964.29
605.71	22162.95
605.906	21919.24
606.102	21812.74
606.298	21964.29
606.494	21904.9
606.69	21894.66
606.886	21714.44
607.082	21399.05
607.278	21868.04
607.474	21444.11
607.67	21757.45
607.866	21366.29
608.062	21671.43
608.257	21157.39
608.453	21401.1
608.649	21538.32
608.845	21038.61
609.041	21009.94
609.236	21290.51
609.432	21069.33
609.628	21370.38
609.824	20885.01
610.019	20981.27
610.215	21079.57
610.411	21007.89
610.606	20741.66
610.802	20913.69
610.998	20862.49
611.193	20938.26
611.389	20616.73
611.584	20723.23
611.78	20198.95
611.976	20946.45
612.171	20669.98
612.367	20540.96
612.562	20543
612.758	20420.13
612.953	20418.08
613.149	20450.85
613.344	20387.36
613.539	20497.95
613.735	20145.7
613.93	20663.83
614.126	19979.81
614.321	20450.85
614.517	20182.56
614.712	20114.98
614.907	20088.35
615.103	20194.85
615.298	20145.7
615.493	20278.82
615.688	20065.83
615.884	20305.44
616.079	19942.95
616.274	20018.72
616.47	19820.07
616.665	19705.38
616.86	19801.64
617.055	19748.39
617.25	19711.53
617.445	19676.71
617.641	19451.44
617.836	19541.55
618.031	19177.01
618.226	19539.5
618.421	19510.83
618.616	19482.16
618.811	18830.9
619.006	19414.57
619.201	19054.13
619.396	19340.85
619.591	18662.97
619.786	18869.81
619.981	18683.45
620.176	19029.55
620.371	18605.63
620.566	18669.11
620.761	18677.3
620.956	18818.61
621.151	18144.83
621.346	18472.51
621.541	17985.09
621.735	18462.27
621.93	18021.95
622.125	18323.01
622.32	17696.33
622.515	18038.34
622.709	17864.26
622.904	17733.19
623.099	17559.11
623.294	17921.6
623.488	17380.94
623.683	17489.48
623.878	17184.34
624.072	17335.88
624.267	17366.6
624.462	17137.23
624.656	16977.49
624.851	16918.1
625.046	16733.78
625.24	16961.11
625.435	16574.04
625.629	16617.05
625.824	16508.51
626.018	16434.78
626.213	16184.93
626.407	16483.93
626.602	16115.3
626.796	16088.67
626.991	15994.47
627.185	15820.39
627.38	15664.74
627.574	15662.69
627.768	15670.89
627.963	15392.36
628.157	15343.21
628.352	15322.73
628.546	15283.82
628.74	15160.94
628.935	15105.65
629.129	15087.22
629.323	14767.73
629.517	14933.62
629.712	14706.29
629.906	14943.86
630.1	14716.53
630.294	14542.46
630.489	14509.69
630.683	14612.09
630.877	14114.43
631.071	14354.04
631.265	14141.05
631.459	14210.68
631.653	14124.67
631.848	13889.15
632.042	13893.25
632.236	13913.73
632.43	13794.95
632.624	13923.97
632.818	13674.12
633.012	13389.45
633.206	13454.98
633.4	13399.69
633.594	13420.17
633.788	13358.73
633.982	13342.35
634.176	13016.72
634.369	13094.54
634.563	13258.38
634.757	12910.22
634.951	12945.04
635.145	13112.97
635.339	12730
635.533	12725.91
635.726	12535.45
635.92	12668.56
636.114	12641.94
636.308	12408.47
636.501	12492.44
636.695	12281.5
636.889	12310.17
637.083	12336.79
637.276	12277.4
637.47	11978.4
637.664	12068.51
637.857	12183.2
638.051	11855.52
638.244	12093.08
638.438	11857.57
638.632	11785.89
638.825	11548.33
639.019	11542.18
639.212	11601.57
639.406	11388.58
639.599	11521.7
639.793	11407.02
639.986	11384.49
640.18	11191.98
640.373	11257.51
640.567	11120.3
640.76	11374.25
640.954	10948.27
641.147	11101.87
641.34	11040.43
641.534	11103.92
641.727	11009.71
641.92	10704.56
642.114	10727.09
642.307	10737.33
642.5	10702.51
642.694	10663.6
642.887	10528.44
643.08	10618.55
643.273	10528.44
643.467	10329.78
643.66	10383.03
643.853	10325.69
644.046	10264.25
644.239	10206.91
644.432	10266.3
644.626	9991.87
644.819	10024.64
645.012	10098.36
645.205	10178.23
645.398	9803.46
645.591	10032.83
645.784	9787.07
645.977	9686.72
646.17	9696.96
646.363	9701.06
646.556	9541.32
646.749	9381.57
646.942	9473.73
647.135	9311.94
647.328	9381.57
647.521	9383.62
647.714	9172.68
647.907	9158.35
648.099	9170.63
648.292	9242.31
648.485	9082.57
648.678	8937.16
648.871	8945.36
649.064	9088.71
649.256	8947.4
649.449	8875.73
649.642	8906.45
649.835	8718.03
650.027	8812.24
650.22	8656.59
650.413	8875.73
650.605	8627.92
650.798	8365.78
650.991	8416.98
651.183	8513.24
651.376	8447.7
651.568	8443.6
651.761	8490.71
651.954	8419.03
652.146	8380.12
652.339	8249.05
652.531	8247
652.724	8228.57
652.916	8179.42
653.109	8056.54
653.301	7991
653.494	8165.08
653.686	7993.05
653.879	7743.2
654.071	7595.75
654.263	7710.43
654.456	7687.9
654.648	7868.13
654.84	7665.38
655.033	7765.73
655.225	7644.9
655.417	7577.31
655.61	7593.7
655.802	7483.11
655.994	7575.27
656.186	7591.65
656.379	7356.13
656.571	7339.75
656.763	7223.02
656.955	7347.94
657.148	7278.31
657.34	7202.54
657.532	7159.53
657.724	7210.73
657.916	7235.3
658.108	7149.29
658.3	7038.7
658.492	7059.18
658.684	7020.27
658.876	7028.46
659.068	7014.12
659.26	6846.19
659.452	7001.83
659.644	6801.13
659.836	6725.36
660.028	6999.79
660.22	6625.01
660.412	6694.64
660.604	6694.64
660.796	6690.54
660.988	6549.23
661.18	6590.19
661.372	6389.49
661.563	6557.43
661.755	6438.64
661.947	6565.62
662.139	6450.93
662.331	6381.3
662.522	6450.93
662.714	6252.28
662.906	6350.58
663.097	6174.46
663.289	6115.06
663.481	6194.93
663.673	6074.1
663.864	5986.04
664.056	6047.48
664.247	6156.02
664.439	6055.67
664.631	6217.46
664.822	5916.41
665.014	5934.84
665.205	5852.92
665.397	5777.15
665.588	5842.68
665.78	5730.05
665.971	5848.83
666.163	5826.3
666.354	5674.75
666.546	5807.87
666.737	5594.88
666.929	5617.41
667.12	5693.18
667.311	5545.73
667.503	5713.66
667.694	5529.34
667.885	5551.87
668.077	5449.47
668.268	5443.33
668.459	5527.3
668.651	5533.44
668.842	5342.98
669.033	5404.42
669.224	5363.46
669.416	5580.54
669.607	5267.2
669.798	5269.25
669.989	5361.41
670.18	5377.8
670.371	5267.2
670.563	5129.99
670.754	5148.42
670.945	5259.01
671.136	5097.22
671.327	5119.75
671.518	5177.09
671.709	5003.02
671.9	5050.12
672.091	5043.98
672.282	4935.43
672.473	5058.31
672.664	4884.23
672.855	4986.63
673.046	5101.32
673.237	4933.39
673.428	5060.36
673.619	5003.02
673.809	4884.23
674	4974.35
674.191	4921.1
674.382	4912.91
674.573	4953.87
674.764	4810.51
674.954	5058.31
675.145	4771.6
675.336	4931.34
675.527	4839.18
675.717	4738.83
675.908	4790.03
676.099	4593.42
676.289	4636.43
676.48	4720.4
676.671	4630.29
676.861	4767.5
677.052	4706.06
677.243	4628.24
677.433	4556.56
677.624	4687.63
677.814	4654.86
678.005	4491.02
678.195	4605.71
678.386	4654.86
678.576	4548.37
678.767	4519.7
678.957	4720.4
679.148	4527.89
679.338	4355.86
679.529	4570.9
679.719	4452.11
679.909	4636.43
680.1	4507.41
680.29	4585.23
680.481	4519.7
680.671	4419.35
680.861	4499.22
681.052	4427.54
681.242	4402.96
681.432	4425.49
681.622	4505.36
681.813	4392.72
682.003	4407.06
682.193	4282.13
682.383	4525.84
682.573	4331.28
682.764	4345.62
682.954	4224.79
683.144	4486.93
683.334	4388.63
683.524	4294.42
683.714	4194.07
683.904	4308.76
684.094	4110.1
684.284	4249.36
684.474	4216.6
684.664	4116.25
684.854	4290.32
685.044	4187.93
685.234	4146.97
685.424	4187.93
685.614	4122.39
685.804	4202.26
685.994	4058.9
686.184	4067.1
686.374	4089.62
686.564	4063
686.753	4099.86
686.943	4163.35
687.133	4026.14
687.323	3925.79
687.513	4110.1
687.702	4103.96
687.892	3854.11
688.082	3985.18
688.272	3946.27
688.461	4036.38
688.651	3804.96
688.841	3749.66
689.03	3901.21
689.22	4032.28
689.41	3829.53
689.599	3813.15
689.789	3776.28
689.979	3821.34
690.168	3766.04
690.358	3643.17
690.547	3675.93
690.737	3735.32
690.926	3727.13
691.116	3614.49
691.305	3829.53
691.495	3585.82
691.684	3643.17
691.874	3417.89
692.063	3645.21
692.252	3655.45
692.442	3501.86
692.631	3755.8
692.82	3456.8
693.01	3434.27
693.199	3524.38
693.388	3479.33
693.578	3499.81
693.767	3508
693.956	3432.22
694.146	3409.7
694.335	3319.59
694.524	3309.35
694.713	3467.04
694.902	3358.5
695.092	3290.92
695.281	3254.05
695.47	3286.82
695.659	3133.22
695.848	3301.15
696.037	3231.52
696.226	3245.86
696.415	3268.39
696.604	3360.55
696.793	3194.66
696.982	3284.77
697.171	3391.27
697.36	3204.9
697.549	3131.17
697.738	3333.92
697.927	3014.44
698.116	3157.8
698.305	3170.08
698.494	3223.33
698.683	3241.76
698.872	3051.3
699.061	3157.8
699.25	3247.91
699.438	3225.38
699.627	3149.61
699.816	3137.32
700.005	3100.45
700.193	3227.43
700.382	3049.25
700.571	3073.83
700.76	3084.07
700.948	3141.41
701.137	3073.83
701.326	3165.99
701.514	3082.02
701.703	3008.3
701.892	2993.96
702.08	3098.41
702.269	3098.41
702.457	3082.02
702.646	3141.41
702.834	3069.73
703.023	2887.47
703.212	3010.34
703.4	2821.93
703.589	3030.82
703.777	3049.25
703.965	2846.51
704.154	2973.48
704.342	3088.17
704.531	3114.79
704.719	2944.81
704.907	3041.06
705.096	2912.04
705.284	3131.17
705.472	2912.04
705.661	2879.27
705.849	3110.69
706.037	2938.66
706.226	3004.2
706.414	2989.86
706.602	2973.48
706.79	2977.58
706.979	2946.86
707.167	2942.76
707.355	2977.58
707.543	2971.43
707.731	3069.73
707.919	2957.1
708.107	2895.66
708.296	2987.82
708.484	2996.01
708.672	3077.93
708.86	2903.85
709.048	3008.3
709.236	3006.25
709.424	3024.68
709.612	3100.45
709.8	2887.47
709.988	3018.54
710.176	2944.81
710.364	3092.26
710.551	2942.76
710.739	2940.71
710.927	2920.23
711.115	2920.23
711.303	2991.91
711.491	3006.25
711.679	2864.94
711.866	2922.28
712.054	2977.58
712.242	3000.1
712.43	2977.58
712.617	2873.13
712.805	2920.23
712.993	2848.55
713.181	2920.23
713.368	2883.37
713.556	2828.07
713.744	2871.08
713.931	2998.06
714.119	2998.06
714.306	2909.99
714.494	2959.14
714.682	2944.81
714.869	2936.62
715.057	2953
715.244	2907.94
715.432	2893.61
715.619	2922.28
715.807	2797.35
715.994	2836.27
716.182	2909.99
716.369	3030.82
716.556	2955.05
716.744	2979.62
716.931	2877.23
717.119	2871.08
717.306	2875.18
717.493	2961.19
717.681	2778.92
717.868	2840.36
718.055	2854.7
718.242	2881.32
718.43	2950.95
718.617	2842.41
718.804	2823.98
718.991	2866.99
719.179	3079.97
719.366	2871.08
719.553	2996.01
719.74	2834.22
719.927	2817.83
720.114	2936.62
720.301	2830.12
720.488	2826.03
720.676	2979.62
720.863	2881.32
721.05	2922.28
721.237	2918.18
721.424	2832.17
721.611	2832.17
721.798	2862.89
721.985	2909.99
722.172	2852.65
722.358	2903.85
722.545	2942.76
722.732	2826.03
722.919	2983.72
723.106	2844.46
723.293	2821.93
723.48	3006.25
723.667	2981.67
723.853	2776.87
724.04	2891.56
724.227	2819.88
724.414	2846.51
724.6	2844.46
724.787	2832.17
724.974	2766.64
725.161	2965.29
725.347	2799.4
725.534	2842.41
725.72	2903.85
725.907	2897.71
726.094	2955.05
726.28	2897.71
726.467	2938.66
726.653	2713.39
726.84	2961.19
727.027	2879.27
727.213	2793.26
727.4	2926.38
727.586	2887.47
727.773	2932.52
727.959	3010.34
728.145	2850.6
728.332	2817.83
728.518	2862.89
728.705	2959.14
728.891	2946.86
729.077	2848.55
729.264	2879.27
729.45	2858.79
729.636	3004.2
729.823	2957.1
730.009	2977.58
730.195	2953
730.382	2928.42
730.568	2848.55
730.754	2801.45
730.94	2838.31
731.126	2905.9
731.313	2983.72
731.499	2877.23
731.685	2860.84
731.871	2967.34
732.057	2889.51
732.243	2727.72
732.429	2815.79
732.615	2879.27
732.801	2836.27
732.987	2953
733.173	2914.09
733.359	2893.61
733.545	2801.45
733.731	2815.79
733.917	2844.46
734.103	2909.99
734.289	2848.55
734.475	2871.08
734.661	2887.47
734.847	2746.16
735.033	2791.21
735.219	2752.3
735.404	2830.12
735.59	2811.69
735.776	2848.55
735.962	2912.04
736.148	2842.41
736.333	2750.25
736.519	2774.83
736.705	2785.07
736.89	2836.27
737.076	2809.64
737.262	2809.64
737.447	2846.51
737.633	2879.27
737.819	2752.3
738.004	2676.52
738.19	2828.07
738.375	2770.73
738.561	2813.74
738.747	2746.16
738.932	2748.2
739.118	2828.07
739.303	2758.44
739.489	2766.64
739.674	2826.03
739.859	2815.79
740.045	2754.35
740.23	2735.92
740.416	2635.57
740.601	2711.34
740.786	2703.15
740.972	2676.52
741.157	2656.04
741.342	2694.96
741.528	2686.76
741.713	2631.47
741.898	2602.8
742.084	2533.17
742.269	2555.69
742.454	2594.61
742.639	2645.8
742.824	2641.71
743.01	2584.37
743.195	2570.03
743.38	2494.26
743.565	2555.69
743.75	2537.26
743.935	2608.94
744.12	2535.21
744.305	2406.19
744.49	2574.13
744.675	2516.78
744.86	2422.58
745.045	2529.07
745.23	2393.9
745.415	2473.78
745.6	2404.14
745.785	2475.82
745.97	2455.34
746.155	2352.95
746.34	2336.56
746.525	2383.66
746.71	2504.5
746.895	2330.42
747.079	2342.71
747.264	2400.05
747.449	2232.12
747.634	2318.13
747.819	2346.8
748.003	2279.22
748.188	2242.36
748.373	2264.88
748.557	2232.12
748.742	2264.88
748.927	2217.78
749.111	2211.64
749.296	2268.98
749.481	2158.39
749.665	2129.72
749.85	2187.06
750.034	2203.44
750.219	2096.95
750.404	2037.56
750.588	2041.65
750.773	2017.08
750.957	2074.42
751.141	2062.13
751.326	2027.32
751.51	1947.45
751.695	1910.58
751.879	1965.88
752.064	2043.7
752.248	1920.82
752.432	1924.92
752.617	1974.07
752.801	2023.22
752.985	1953.59
753.17	1990.45
753.354	1851.19
753.538	1851.19
753.722	1767.23
753.907	1761.08
754.091	1763.13
754.275	1824.57
754.459	1814.33
754.643	1832.76
754.828	1742.65
755.012	1783.61
755.196	1736.51
755.38	1742.65
755.564	1822.52
755.748	1756.99
755.932	1795.9
756.116	1736.51
756.3	1636.16
756.484	1648.44
756.668	1584.96
756.852	1627.96
757.036	1664.83
757.22	1609.53
757.404	1595.2
757.588	1623.87
757.772	1548.09
757.956	1576.77
758.14	1617.72
758.323	1572.67
758.507	1625.92
758.691	1572.67
758.875	1644.35
759.059	1582.91
759.242	1443.65
759.426	1535.81
759.61	1472.32
759.794	1435.46
759.977	1408.83
760.161	1492.8
760.345	1492.8
760.528	1460.03
760.712	1531.71
760.895	1500.99
761.079	1496.89
761.263	1404.74
761.446	1365.82
761.63	1374.02
761.813	1478.46
761.997	1300.29
762.18	1365.82
762.364	1337.15
762.547	1341.25
762.731	1296.19
762.914	1357.63
763.098	1314.63
763.281	1296.19
763.464	1298.24
763.648	1249.09
763.831	1320.77
764.015	1339.2
764.198	1288
764.381	1259.33
764.564	1251.14
764.748	1269.57
764.931	1423.17
765.114	1167.17
765.297	1269.57
765.481	1206.08
765.664	1226.56
765.847	1185.6
766.03	1298.24
766.213	1150.79
766.397	1269.57
766.58	1138.5
766.763	1193.8
766.946	1120.07
767.129	1247.04
767.312	1240.9
767.495	1201.99
767.678	1230.66
767.861	1230.66
768.044	1142.6
768.227	1085.25
768.41	1079.11
768.593	1118.02
768.776	1165.12
768.959	1091.4
769.142	1140.55
769.324	1167.17
769.507	1062.73
769.69	1046.34
769.873	1091.4
770.056	1175.36
770.239	1075.01
770.421	1142.6
770.604	1070.92
770.787	1091.4
770.97	1044.29
771.152	1019.72
771.335	997.19
771.518	960.33
771.7	1101.64
771.883	1054.53
772.066	941.89
772.248	1101.64
772.431	1046.34
772.613	1011.53
772.796	976.71
772.978	1011.53
773.161	894.79
773.343	915.27
773.526	894.79
773.708	960.33
773.891	960.33
774.073	890.7
774.256	859.98
774.438	937.8
774.621	919.37
774.803	894.79
774.985	919.37
775.168	892.74
775.35	812.87
775.532	839.5
775.715	827.21
775.897	935.75
776.079	845.64
776.261	905.03
776.444	794.44
776.626	841.54
776.808	862.02
776.99	798.54
777.173	814.92
777.355	808.78
777.537	823.11
777.719	827.21
777.901	853.83
778.083	687.95
778.265	722.76
778.447	716.62
778.629	735.05
778.811	773.96
778.993	784.2
779.175	759.63
779.357	696.14
779.539	802.63
779.721	773.96
779.903	776.01
780.085	767.82
780.267	730.95
780.449	739.15
780.631	741.19
780.812	737.1
780.994	685.9
781.176	700.23
781.358	657.23
781.54	669.52
781.721	706.38
781.903	601.93
782.085	716.62
782.267	642.89
782.448	620.36
782.63	687.95
782.812	511.82
782.993	661.32
783.175	673.61
783.357	638.8
783.538	677.71
783.72	653.13
783.901	560.97
784.083	634.7
784.264	546.64
784.446	505.68
784.627	554.83
784.809	567.12
784.99	544.59
785.172	571.21
785.353	530.25
785.535	589.64
785.716	587.6
785.897	581.45
786.079	565.07
786.26	520.01
786.441	485.2
786.623	464.72
786.804	503.63
786.985	505.68
787.167	603.98
787.348	452.43
787.529	464.72
787.71	520.01
787.891	573.26
788.073	481.1
788.254	556.88
788.435	477.01
788.616	536.4
788.797	413.52
788.978	485.2
789.159	497.49
789.34	532.3
789.522	378.7
789.703	499.53
789.884	456.53
790.065	407.38
790.246	468.81
790.427	388.94
790.607	489.29
790.788	436.05
790.969	517.97
791.15	386.9
791.331	386.9
791.512	454.48
791.693	460.62
791.874	397.14
792.054	526.16
792.235	419.66
792.416	335.7
792.597	397.14
792.778	423.76
792.958	413.52
793.139	384.85
793.32	409.42
793.5	339.79
793.681	438.09
793.862	360.27
794.042	425.81
794.223	298.83
794.404	354.13
794.584	358.22
794.765	370.51
794.945	429.9
795.126	350.03
795.306	358.22
795.487	302.93
795.667	372.56
795.848	325.46
796.028	356.18
796.209	370.51
796.389	370.51
796.57	337.74
796.75	347.98
796.93	323.41
797.111	331.6
797.291	380.75
797.471	352.08
797.652	362.32
797.832	307.02
798.012	329.55
798.192	350.03
798.373	313.17
798.553	341.84
798.733	307.02
798.913	337.74
799.093	345.94
799.274	227.15
799.454	368.46
799.634	356.18
799.814	319.31
799.994	345.94
800.174	395.09
800.354	339.79
800.534	341.84
800.714	337.74
800.894	329.55
801.074	241.49
801.254	298.83
801.434	311.12
801.614	261.97
801.794	196.43
801.974	702.28
802.154	292.69
802.334	298.83
802.514	337.74
802.693	319.31
802.873	276.31
803.053	323.41
803.233	319.31
803.413	251.73
803.592	196.43
803.772	206.67
803.952	241.49
804.131	202.58
804.311	227.15
804.491	307.02
804.67	266.07
804.85	268.11
805.03	282.45
805.209	300.88
805.389	290.64
805.568	266.07
805.748	261.97
805.928	268.11
806.107	210.77
806.287	225.11
806.466	249.68
806.646	249.68
806.825	171.86
807.004	247.63
807.184	237.39
807.363	210.77
807.543	198.48
807.722	307.02
807.901	286.54
808.081	253.78
808.26	165.71
808.439	212.82
808.619	331.6
808.798	184.15
808.977	227.15
809.156	190.29
809.336	249.68
809.515	290.64
809.694	218.96
809.873	233.3
810.052	190.29
810.231	280.4
810.411	247.63
810.59	216.91
810.769	167.76
810.948	270.16
811.127	229.2
811.306	159.57
811.485	200.53
811.664	257.87
811.843	210.77
812.022	159.57
812.201	155.47
812.38	214.87
812.559	206.67
812.737	237.39
812.916	192.34
813.095	233.3
813.274	147.28
813.453	188.24
813.632	192.34
813.811	249.68
813.989	118.61
814.168	163.67
814.347	145.24
814.526	175.95
814.704	212.82
814.883	227.15
815.062	108.37
815.24	137.04
815.419	157.52
815.598	235.35
815.776	124.76
815.955	159.57
816.133	108.37
816.312	159.57
816.49	147.28
816.669	216.91
816.847	188.24
817.026	171.86
817.204	114.52
817.383	130.9
817.561	175.95
817.74	147.28
817.918	192.34
818.097	169.81
818.275	155.47
818.453	114.52
818.632	223.06
818.81	157.52
818.988	85.84
819.167	112.47
819.345	124.76
819.523	141.14
819.701	118.61
819.879	225.11
820.058	173.91
820.236	192.34
820.414	147.28
820.592	180.05
820.77	128.85
820.948	75.6
821.127	124.76
821.305	98.13
821.483	59.22
821.661	141.14
821.839	85.84
822.017	112.47
822.195	96.08
822.373	151.38
822.551	130.9
822.729	169.81
822.907	182.1
823.085	126.8
823.262	159.57
823.44	91.99
823.618	151.38
823.796	81.75
823.974	110.42
824.152	151.38
824.329	135
824.507	91.99
824.685	180.05
824.863	132.95
825.04	73.56
825.218	106.32
825.396	116.56
825.574	116.56
825.751	147.28
825.929	202.58
826.107	94.04
826.284	69.46
826.462	137.04
826.639	159.57
826.817	81.75
826.994	94.04
827.172	116.56
827.349	151.38
827.527	186.19
827.704	139.09
827.882	135
828.059	171.86
828.237	81.75
828.414	135
828.591	114.52
828.769	190.29
828.946	85.84
829.124	108.37
829.301	147.28
829.478	118.61
829.655	159.57
829.833	161.62
830.01	67.41
830.187	126.8
830.364	104.28
830.542	85.84
830.719	132.95
830.896	120.66
831.073	110.42
831.25	53.08
831.427	163.67
831.604	120.66
831.782	98.13
831.959	118.61
832.136	89.94
832.313	130.9
832.49	75.6
832.667	98.13
832.844	81.75
833.021	171.86
833.198	96.08
833.374	141.14
833.551	108.37
833.728	102.23
833.905	53.08
834.082	14.17
834.259	135
834.436	171.86
834.612	48.98
834.789	83.8
834.966	96.08
835.143	128.85
835.319	32.6
835.496	98.13
835.673	89.94
835.85	67.41
836.026	75.6
836.203	149.33
836.38	24.4
836.556	63.32
836.733	85.84
836.909	91.99
837.086	89.94
837.262	57.17
837.439	98.13
837.616	89.94
837.792	91.99
837.968	57.17
838.145	75.6
838.321	100.18
838.498	102.23
838.674	81.75
838.851	116.56
839.027	36.69
839.203	91.99
839.38	118.61
839.556	81.75
839.732	36.69
839.909	96.08
840.085	59.22
840.261	53.08
840.437	102.23
840.614	53.08
840.79	48.98
840.966	128.85
841.142	128.85
841.318	85.84
841.494	42.84
841.671	96.08
841.847	77.65
842.023	73.56
842.199	110.42
842.375	69.46
842.551	38.74
842.727	26.45
842.903	126.8
843.079	55.12
843.255	61.27
843.431	108.37
843.607	153.43
843.783	-12.46
843.959	128.85
844.134	63.32
844.31	67.41
844.486	130.9
844.662	20.31
844.838	110.42
845.013	91.99
845.189	67.41
845.365	110.42
845.541	30.55
845.716	104.28
845.892	51.03
846.068	12.12
846.244	83.8
846.419	28.5
846.595	73.56
846.77	59.22
846.946	53.08
847.122	87.89
847.297	32.6
847.473	34.64
847.648	-39.08
847.824	22.36
847.999	61.27
848.175	102.23
848.35	-2.22
848.526	67.41
848.701	28.5
848.876	81.75
849.052	67.41
849.227	79.7
849.403	67.41
849.578	57.17
849.753	57.17
849.929	8.02
850.104	75.6
850.279	83.8
850.454	-4.27
850.63	53.08
850.805	83.8
850.98	67.41
851.155	-34.99
851.33	112.47
851.505	124.76
851.681	57.17
851.856	18.26
852.031	55.12
852.206	83.8
852.381	124.76
852.556	73.56
852.731	-16.55
852.906	24.4
853.081	96.08
853.256	32.6
853.431	26.45
853.606	1.88
853.781	-6.31
853.956	8.02
854.131	57.17
854.305	3.93
854.48	81.75
854.655	130.9
854.83	75.6
855.005	44.88
855.18	-2.22
855.354	61.27
855.529	108.37
855.704	110.42
855.879	79.7
856.053	-12.46
856.228	-28.84
856.403	-20.65
856.577	55.12
856.752	67.41
856.926	57.17
857.101	36.69
857.276	24.4
857.45	44.88
857.625	-24.75
857.799	40.79
857.974	40.79
858.148	30.55
858.323	57.17
858.497	-16.55
858.672	55.12
858.846	81.75
859.02	77.65
859.195	-20.65
859.369	36.69
859.543	98.13
859.718	61.27
859.892	73.56
860.066	26.45
860.241	53.08
860.415	5.97
860.589	112.47
860.763	77.65
860.938	28.5
861.112	65.36
861.286	-39.08
861.46	16.21
861.634	71.51
861.808	57.17
861.982	24.4
862.157	42.84
862.331	10.07
862.505	18.26
862.679	100.18
862.853	118.61
863.027	8.02
863.201	83.8
863.375	3.93
863.549	57.17
863.722	51.03
863.896	22.36
864.07	-0.17
864.244	69.46
864.418	1.88
864.592	59.22
864.766	32.6
864.939	26.45
865.113	-30.89
865.287	83.8
865.461	28.5
865.634	67.41
865.808	10.07
865.982	3.93
866.156	34.64
866.329	-32.94
866.503	-26.79
866.676	28.5
866.85	46.93
867.024	32.6
867.197	42.84
867.371	53.08
867.544	59.22
867.718	48.98
867.891	5.97
868.065	24.4
868.238	42.84
868.412	53.08
868.585	32.6
868.759	22.36
868.932	-16.55
869.105	20.31
869.279	-6.31
869.452	-39.08
869.625	51.03
869.799	1.88
869.972	26.45
870.145	18.26
870.319	36.69
870.492	42.84
870.665	18.26
870.838	-12.46
871.011	-24.75
871.185	-12.46
871.358	83.8
871.531	-28.84
871.704	-39.08
871.877	3.93
872.05	12.12
872.223	14.17
872.396	5.97
872.569	30.55
872.742	44.88
872.915	83.8
873.088	32.6
873.261	-22.7
873.434	24.4
873.607	-26.79
873.78	8.02
873.953	3.93
874.126	55.12
874.299	55.12
874.471	-0.17
874.644	1.88
874.817	16.21
874.99	122.71
875.163	65.36
875.335	24.4
875.508	69.46
875.681	24.4
875.853	48.98
876.026	26.45
876.199	-0.17
876.371	44.88
876.544	30.55
876.717	-37.03
876.889	3.93
877.062	-30.89
877.234	-0.17
877.407	89.94
877.579	-22.7
877.752	48.98
877.924	28.5
878.097	42.84
878.269	42.84
878.442	1.88
878.614	-65.71
878.786	53.08
878.959	53.08
879.131	-32.94
879.303	-26.79
879.476	71.51
879.648	69.46
879.82	-34.99
879.993	16.21
880.165	-80.04
880.337	18.26
880.509	65.36
880.681	-0.17
880.854	30.55
881.026	32.6
881.198	83.8
881.37	63.32
881.542	18.26
881.714	-32.94
881.886	32.6
882.058	-49.32
882.23	12.12
882.402	-39.08
882.574	-12.46
882.746	22.36
882.918	87.89
883.09	48.98
883.262	46.93
883.434	46.93
883.606	24.4
883.778	5.97
883.95	34.64
884.122	18.26
884.293	-22.7
884.465	-32.94
884.637	24.4
884.809	-18.6
884.98	44.88
885.152	5.97
885.324	118.61
885.496	46.93
885.667	1.88
885.839	18.26
886.011	18.26
886.182	-2.22
886.354	24.4
886.525	55.12
886.697	26.45
886.869	-16.55
887.04	-20.65
887.212	51.03
887.383	46.93
887.555	57.17
887.726	42.84
887.897	-30.89
888.069	108.37
888.24	1.88
888.412	-28.84
888.583	57.17
888.754	36.69
888.926	-12.46
889.097	40.79
889.268	-26.79
889.44	63.32
889.611	-53.42
889.782	63.32
889.953	-39.08
890.125	44.88
890.296	-59.56
890.467	-16.55
890.638	89.94
890.809	22.36
890.98	-41.13
891.151	-16.55
891.323	65.36
891.494	18.26
891.665	5.97
891.836	-20.65
892.007	-10.41
892.178	85.84
892.349	28.5
892.52	-16.55
892.691	-16.55
892.862	87.89
893.032	65.36
893.203	-18.6
893.374	14.17
893.545	18.26
893.716	14.17
893.887	57.17
894.057	-10.41
894.228	-61.61
894.399	8.02
894.57	83.8
894.74	38.74
894.911	-6.31
895.082	-2.22
895.253	-26.79
895.423	-24.75
895.594	46.93
895.764	1.88
895.935	12.12
896.106	14.17
896.276	61.27
896.447	12.12
896.617	-22.7
896.788	-41.13
896.958	-34.99
897.129	38.74
897.299	69.46
897.47	-16.55
897.64	28.5
897.81	26.45
897.981	63.32
898.151	42.84
898.322	42.84
898.492	79.7
898.662	-2.22
898.832	61.27
899.003	75.6
899.173	-6.31
899.343	-51.37
899.513	38.74
