Data from USB4F104151__82__12-27-55-990.txt Node

Date: Fri Mar 14 12:27:55 EDT 2025
User: louis
Spectrometer: USB4F10415
Trigger mode: 4
Integration Time (sec): 2.000000E-2
Scans to average: 1
Electric dark correction enabled: true
Nonlinearity correction enabled: false
Boxcar width: 0
XAxis mode: Wavelengths
Number of Pixels in Spectrum: 3648
>>>>>Begin Spectral Data<<<<<
178.204	-102.74
178.424	-102.74
178.644	-102.74
178.864	-65.88
179.084	-35.16
179.304	18.09
179.524	22.19
179.744	-63.83
179.964	-6.49
180.184	28.33
180.404	-16.73
180.624	-47.44
180.844	102.06
181.064	-106.84
181.283	11.95
181.503	61.1
181.723	-2.39
181.943	32.43
182.163	7.85
182.383	-18.77
182.602	130.73
182.822	48.81
183.042	-2.39
183.262	-4.44
183.482	-22.87
183.701	57
183.921	-63.83
184.141	36.52
184.361	-43.35
184.58	36.52
184.8	16.04
185.02	24.23
185.239	-14.68
185.459	18.09
185.679	114.34
185.898	93.87
186.118	11.95
186.338	40.62
186.557	-0.34
186.777	48.81
186.997	34.47
187.216	34.47
187.436	38.57
187.655	36.52
187.875	34.47
188.095	18.09
188.314	116.39
188.534	67.24
188.753	-41.3
188.973	110.25
189.192	54.95
189.412	30.38
189.631	24.23
189.851	42.67
190.07	28.33
190.29	11.95
190.509	7.85
190.729	-22.87
190.948	83.63
191.168	106.15
191.387	54.95
191.607	24.23
191.826	-8.53
192.045	-31.06
192.265	42.67
192.484	44.71
192.704	38.57
192.923	-14.68
193.142	63.15
193.362	16.04
193.581	81.58
193.8	87.72
194.02	65.19
194.239	44.71
194.458	93.87
194.678	13.99
194.897	104.11
195.116	9.9
195.335	67.24
195.555	-6.49
195.774	71.34
195.993	5.8
196.212	61.1
196.432	-4.44
196.651	32.43
196.87	24.23
197.089	93.87
197.308	-8.53
197.528	7.85
197.747	-35.16
197.966	22.19
198.185	57
198.404	-0.34
198.623	67.24
198.842	22.19
199.062	95.91
199.281	24.23
199.5	24.23
199.719	34.47
199.938	54.95
200.157	61.1
200.376	18.09
200.595	34.47
200.814	57
201.033	46.76
201.252	61.1
201.471	16.04
201.69	81.58
201.909	-10.58
202.128	38.57
202.347	28.33
202.566	-37.2
202.785	11.95
203.004	-59.73
203.223	75.43
203.442	65.19
203.661	-53.59
203.879	42.67
204.098	20.14
204.317	3.75
204.536	-26.96
204.755	-55.64
204.974	13.99
205.193	9.9
205.411	59.05
205.63	11.95
205.849	28.33
206.068	-53.59
206.287	-0.34
206.505	22.19
206.724	18.09
206.943	13.99
207.162	42.67
207.381	63.15
207.599	50.86
207.818	26.28
208.037	11.95
208.255	57
208.474	32.43
208.693	18.09
208.911	-59.73
209.13	69.29
209.349	65.19
209.567	-8.53
209.786	38.57
210.005	26.28
210.223	75.43
210.442	30.38
210.661	-8.53
210.879	34.47
211.098	40.62
211.316	71.34
211.535	30.38
211.753	-39.25
211.972	7.85
212.191	5.8
212.409	61.1
212.628	-4.44
212.846	-18.77
213.065	59.05
213.283	97.96
213.502	50.86
213.72	11.95
213.938	-0.34
214.157	-37.2
214.375	5.8
214.594	36.52
214.812	81.58
215.031	38.57
215.249	-8.53
215.467	30.38
215.686	-4.44
215.904	26.28
216.122	50.86
216.341	46.76
216.559	16.04
216.778	89.77
216.996	54.95
217.214	-18.77
217.432	38.57
217.651	36.52
217.869	-29.01
218.087	-37.2
218.306	-45.4
218.524	65.19
218.742	-31.06
218.96	-12.63
219.179	13.99
219.397	18.09
219.615	50.86
219.833	65.19
220.051	30.38
220.27	28.33
220.488	-6.49
220.706	48.81
220.924	-6.49
221.142	18.09
221.36	-53.59
221.578	24.23
221.796	-29.01
222.015	28.33
222.233	77.48
222.451	87.72
222.669	-33.11
222.887	81.58
223.105	97.96
223.323	69.29
223.541	-6.49
223.759	114.34
223.977	28.33
224.195	73.39
224.413	-4.44
224.631	32.43
224.849	40.62
225.067	50.86
225.285	-10.58
225.503	89.77
225.721	57
225.939	42.67
226.157	38.57
226.375	57
226.592	81.58
226.81	11.95
227.028	87.72
227.246	65.19
227.464	3.75
227.682	3.75
227.9	34.47
228.117	87.72
228.335	5.8
228.553	50.86
228.771	-2.39
228.989	20.14
229.206	52.91
229.424	1.71
229.642	34.47
229.86	18.09
230.077	18.09
230.295	44.71
230.513	85.67
230.731	34.47
230.948	73.39
231.166	36.52
231.384	-14.68
231.601	-10.58
231.819	52.91
232.037	7.85
232.254	28.33
232.472	-8.53
232.689	-12.63
232.907	9.9
233.125	13.99
233.342	73.39
233.56	40.62
233.777	71.34
233.995	-35.16
234.213	75.43
234.43	54.95
234.648	13.99
234.865	52.91
235.083	52.91
235.3	28.33
235.518	71.34
235.735	108.2
235.953	36.52
236.17	24.23
236.388	61.1
236.605	26.28
236.822	87.72
237.04	32.43
237.257	34.47
237.475	18.09
237.692	75.43
237.909	20.14
238.127	89.77
238.344	11.95
238.562	52.91
238.779	-35.16
238.996	13.99
239.214	26.28
239.431	22.19
239.648	-0.34
239.865	54.95
240.083	42.67
240.3	5.8
240.517	-18.77
240.735	97.96
240.952	24.23
241.169	54.95
241.386	59.05
241.603	-4.44
241.821	5.8
242.038	52.91
242.255	48.81
242.472	9.9
242.689	54.95
242.907	95.91
243.124	44.71
243.341	67.24
243.558	13.99
243.775	-16.73
243.992	-4.44
244.209	34.47
244.426	77.48
244.643	5.8
244.86	18.09
245.078	36.52
245.295	-22.87
245.512	48.81
245.729	89.77
245.946	36.52
246.163	54.95
246.38	26.28
246.597	28.33
246.814	1.71
247.031	1.71
247.248	-26.96
247.464	-35.16
247.681	52.91
247.898	67.24
248.115	48.81
248.332	24.23
248.549	122.54
248.766	40.62
248.983	71.34
249.2	-29.01
249.417	-4.44
249.633	71.34
249.85	114.34
250.067	75.43
250.284	11.95
250.501	52.91
250.717	40.62
250.934	-14.68
251.151	3.75
251.368	77.48
251.585	-20.82
251.801	69.29
252.018	73.39
252.235	-14.68
252.451	46.76
252.668	-10.58
252.885	36.52
253.102	-31.06
253.318	52.91
253.535	149.16
253.752	32.43
253.968	42.67
254.185	5.8
254.401	-12.63
254.618	44.71
254.835	-2.39
255.051	57
255.268	-2.39
255.484	40.62
255.701	89.77
255.917	50.86
256.134	34.47
256.351	87.72
256.567	40.62
256.784	24.23
257	30.38
257.217	30.38
257.433	32.43
257.65	28.33
257.866	69.29
258.082	83.63
258.299	61.1
258.515	52.91
258.732	7.85
258.948	24.23
259.165	65.19
259.381	-24.92
259.597	-29.01
259.814	40.62
260.03	-0.34
260.246	112.3
260.463	42.67
260.679	46.76
260.895	50.86
261.112	63.15
261.328	9.9
261.544	34.47
261.761	48.81
261.977	54.95
262.193	7.85
262.409	42.67
262.626	108.2
262.842	-10.58
263.058	59.05
263.274	50.86
263.49	59.05
263.707	81.58
263.923	9.9
264.139	-6.49
264.355	30.38
264.571	73.39
264.787	5.8
265.004	100.01
265.22	93.87
265.436	30.38
265.652	-16.73
265.868	77.48
266.084	57
266.3	5.8
266.516	-10.58
266.732	34.47
266.948	-18.77
267.164	3.75
267.38	5.8
267.596	77.48
267.812	112.3
268.028	42.67
268.244	26.28
268.46	-22.87
268.676	-29.01
268.892	11.95
269.108	26.28
269.324	-2.39
269.54	-76.12
269.756	89.77
269.972	-16.73
270.188	30.38
270.403	-35.16
270.619	79.53
270.835	-41.3
271.051	-0.34
271.267	87.72
271.483	95.91
271.698	40.62
271.914	34.47
272.13	13.99
272.346	28.33
272.562	67.24
272.777	5.8
272.993	11.95
273.209	44.71
273.425	-12.63
273.64	5.8
273.856	59.05
274.072	38.57
274.287	32.43
274.503	-22.87
274.719	-31.06
274.934	65.19
275.15	-6.49
275.366	-24.92
275.581	13.99
275.797	-22.87
276.012	-22.87
276.228	50.86
276.444	-53.59
276.659	124.58
276.875	5.8
277.09	54.95
277.306	65.19
277.521	81.58
277.737	-2.39
277.952	46.76
278.168	42.67
278.383	-8.53
278.599	30.38
278.814	32.43
279.03	95.91
279.245	75.43
279.461	7.85
279.676	85.67
279.892	9.9
280.107	9.9
280.322	42.67
280.538	40.62
280.753	-33.11
280.969	22.19
281.184	54.95
281.399	11.95
281.615	48.81
281.83	93.87
282.045	34.47
282.26	-47.44
282.476	-8.53
282.691	61.1
282.906	-45.4
283.122	26.28
283.337	26.28
283.552	22.19
283.767	20.14
283.983	95.91
284.198	71.34
284.413	22.19
284.628	-26.96
284.843	7.85
285.058	11.95
285.274	57
285.489	-16.73
285.704	50.86
285.919	50.86
286.134	7.85
286.349	-14.68
286.564	-47.44
286.779	77.48
286.995	48.81
287.21	-10.58
287.425	75.43
287.64	-8.53
287.855	61.1
288.07	71.34
288.285	46.76
288.5	-0.34
288.715	50.86
288.93	9.9
289.145	36.52
289.36	38.57
289.575	9.9
289.79	40.62
290.004	32.43
290.219	48.81
290.434	3.75
290.649	81.58
290.864	26.28
291.079	5.8
291.294	61.1
291.509	54.95
291.724	7.85
291.938	24.23
292.153	22.19
292.368	65.19
292.583	22.19
292.798	61.1
293.012	173.74
293.227	73.39
293.442	5.8
293.657	116.39
293.871	46.76
294.086	7.85
294.301	192.17
294.516	32.43
294.73	16.04
294.945	-39.25
295.16	110.25
295.374	85.67
295.589	-14.68
295.804	40.62
296.018	50.86
296.233	69.29
296.447	-8.53
296.662	69.29
296.877	30.38
297.091	52.91
297.306	71.34
297.52	-18.77
297.735	40.62
297.949	34.47
298.164	83.63
298.378	5.8
298.593	73.39
298.807	28.33
299.022	87.72
299.236	65.19
299.451	34.47
299.665	32.43
299.88	32.43
300.094	93.87
300.309	13.99
300.523	54.95
300.737	77.48
300.952	59.05
301.166	54.95
301.381	3.75
301.595	7.85
301.809	13.99
302.024	7.85
302.238	79.53
302.452	71.34
302.667	-22.87
302.881	50.86
303.095	42.67
303.309	83.63
303.524	-22.87
303.738	44.71
303.952	-14.68
304.166	46.76
304.381	26.28
304.595	61.1
304.809	3.75
305.023	42.67
305.237	42.67
305.452	93.87
305.666	87.72
305.88	104.11
306.094	13.99
306.308	95.91
306.522	40.62
306.736	57
306.95	-33.11
307.164	-6.49
307.379	13.99
307.593	77.48
307.807	102.06
308.021	61.1
308.235	38.57
308.449	-10.58
308.663	100.01
308.877	91.82
309.091	34.47
309.305	95.91
309.519	30.38
309.733	52.91
309.947	22.19
310.161	24.23
310.374	-2.39
310.588	59.05
310.802	32.43
311.016	-18.77
311.23	40.62
311.444	18.09
311.658	85.67
311.872	91.82
312.085	50.86
312.299	91.82
312.513	26.28
312.727	69.29
312.941	-16.73
313.154	75.43
313.368	116.39
313.582	65.19
313.796	24.23
314.009	91.82
314.223	11.95
314.437	42.67
314.651	71.34
314.864	116.39
315.078	38.57
315.292	63.15
315.505	110.25
315.719	-31.06
315.933	40.62
316.146	22.19
316.36	30.38
316.573	22.19
316.787	13.99
317.001	16.04
317.214	89.77
317.428	-6.49
317.641	42.67
317.855	67.24
318.068	-2.39
318.282	32.43
318.495	65.19
318.709	32.43
318.922	26.28
319.136	136.87
319.349	67.24
319.563	26.28
319.776	71.34
319.99	28.33
320.203	134.82
320.417	75.43
320.63	-24.92
320.843	110.25
321.057	79.53
321.27	54.95
321.483	3.75
321.697	46.76
321.91	-0.34
322.124	69.29
322.337	95.91
322.55	54.95
322.763	50.86
322.977	106.15
323.19	59.05
323.403	28.33
323.617	89.77
323.83	42.67
324.043	-16.73
324.256	106.15
324.469	50.86
324.683	100.01
324.896	83.63
325.109	91.82
325.322	13.99
325.535	-2.39
325.748	38.57
325.962	73.39
326.175	34.47
326.388	34.47
326.601	85.67
326.814	13.99
327.027	28.33
327.24	-2.39
327.453	22.19
327.666	104.11
327.879	81.58
328.092	13.99
328.305	16.04
328.518	-14.68
328.731	63.15
328.944	-18.77
329.157	59.05
329.37	44.71
329.583	32.43
329.796	46.76
330.009	5.8
330.222	61.1
330.435	54.95
330.648	57
330.861	93.87
331.073	65.19
331.286	18.09
331.499	77.48
331.712	-35.16
331.925	57
332.138	54.95
332.35	91.82
332.563	-47.44
332.776	34.47
332.989	5.8
333.202	110.25
333.414	69.29
333.627	9.9
333.84	11.95
334.053	110.25
334.265	26.28
334.478	20.14
334.691	57
334.903	20.14
335.116	63.15
335.329	75.43
335.541	106.15
335.754	61.1
335.966	22.19
336.179	48.81
336.392	34.47
336.604	16.04
336.817	20.14
337.029	75.43
337.242	30.38
337.454	106.15
337.667	57
337.88	81.58
338.092	34.47
338.305	52.91
338.517	30.38
338.729	38.57
338.942	42.67
339.154	67.24
339.367	13.99
339.579	57
339.792	1.71
340.004	5.8
340.217	52.91
340.429	63.15
340.641	50.86
340.854	73.39
341.066	38.57
341.278	81.58
341.491	91.82
341.703	16.04
341.915	20.14
342.128	24.23
342.34	79.53
342.552	-6.49
342.764	24.23
342.977	147.11
343.189	57
343.401	75.43
343.613	75.43
343.826	48.81
344.038	34.47
344.25	61.1
344.462	32.43
344.674	30.38
344.886	-20.82
345.099	-4.44
345.311	46.76
345.523	124.58
345.735	-24.92
345.947	52.91
346.159	-8.53
346.371	65.19
346.583	89.77
346.795	91.82
347.007	18.09
347.219	93.87
347.431	63.15
347.643	50.86
347.855	-12.63
348.067	116.39
348.279	57
348.491	67.24
348.703	97.96
348.915	18.09
349.127	-4.44
349.339	30.38
349.551	50.86
349.763	16.04
349.975	-6.49
350.187	20.14
350.399	89.77
350.61	63.15
350.822	130.73
351.034	30.38
351.246	75.43
351.458	48.81
351.669	59.05
351.881	18.09
352.093	79.53
352.305	57
352.517	91.82
352.728	83.63
352.94	52.91
353.152	110.25
353.363	54.95
353.575	77.48
353.787	97.96
353.999	24.23
354.21	126.63
354.422	59.05
354.633	-4.44
354.845	91.82
355.057	104.11
355.268	52.91
355.48	61.1
355.692	-6.49
355.903	145.06
356.115	48.81
356.326	20.14
356.538	46.76
356.749	48.81
356.961	50.86
357.172	-0.34
357.384	46.76
357.595	114.34
357.807	7.85
358.018	-16.73
358.23	-8.53
358.441	18.09
358.653	83.63
358.864	-10.58
359.075	38.57
359.287	120.49
359.498	83.63
359.709	100.01
359.921	89.77
360.132	77.48
360.344	73.39
360.555	93.87
360.766	48.81
360.977	7.85
361.189	42.67
361.4	52.91
361.611	46.76
361.823	97.96
362.034	26.28
362.245	-18.77
362.456	67.24
362.667	65.19
362.879	26.28
363.09	3.75
363.301	79.53
363.512	81.58
363.723	38.57
363.935	95.91
364.146	116.39
364.357	42.67
364.568	81.58
364.779	-8.53
364.99	65.19
365.201	63.15
365.412	18.09
365.623	61.1
365.834	50.86
366.045	-22.87
366.256	81.58
366.467	63.15
366.678	32.43
366.889	81.58
367.1	28.33
367.311	79.53
367.522	36.52
367.733	5.8
367.944	-37.2
368.155	28.33
368.366	95.91
368.577	5.8
368.788	95.91
368.999	59.05
369.209	67.24
369.42	59.05
369.631	91.82
369.842	-47.44
370.053	-0.34
370.264	79.53
370.474	77.48
370.685	79.53
370.896	36.52
371.107	48.81
371.317	44.71
371.528	26.28
371.739	95.91
371.95	108.2
372.16	104.11
372.371	26.28
372.582	79.53
372.792	7.85
373.003	28.33
373.214	114.34
373.424	48.81
373.635	44.71
373.846	71.34
374.056	57
374.267	91.82
374.477	130.73
374.688	100.01
374.898	46.76
375.109	91.82
375.319	79.53
375.53	40.62
375.74	73.39
375.951	140.97
376.161	114.34
376.372	100.01
376.582	-2.39
376.793	65.19
377.003	61.1
377.214	75.43
377.424	30.38
377.635	44.71
377.845	22.19
378.055	13.99
378.266	93.87
378.476	46.76
378.686	24.23
378.897	3.75
379.107	91.82
379.317	61.1
379.528	13.99
379.738	120.49
379.948	-20.82
380.158	57
380.369	1.71
380.579	151.21
380.789	46.76
380.999	57
381.21	83.63
381.42	54.95
381.63	85.67
381.84	40.62
382.05	57
382.261	128.68
382.471	73.39
382.681	48.81
382.891	116.39
383.101	63.15
383.311	13.99
383.521	69.29
383.731	73.39
383.941	89.77
384.151	59.05
384.361	77.48
384.571	32.43
384.781	42.67
384.991	38.57
385.201	46.76
385.411	104.11
385.621	54.95
385.831	79.53
386.041	126.63
386.251	61.1
386.461	75.43
386.671	16.04
386.881	87.72
387.091	83.63
387.301	87.72
387.511	42.67
387.72	106.15
387.93	57
388.14	91.82
388.35	30.38
388.56	87.72
388.769	97.96
388.979	30.38
389.189	-0.34
389.399	1.71
389.609	120.49
389.818	-6.49
390.028	97.96
390.238	20.14
390.447	7.85
390.657	34.47
390.867	110.25
391.076	28.33
391.286	118.44
391.496	128.68
391.705	5.8
391.915	89.77
392.125	134.82
392.334	26.28
392.544	36.52
392.753	91.82
392.963	69.29
393.172	126.63
393.382	11.95
393.591	79.53
393.801	87.72
394.01	30.38
394.22	122.54
394.429	87.72
394.639	87.72
394.848	93.87
395.058	102.06
395.267	120.49
395.477	143.02
395.686	132.78
395.895	140.97
396.105	114.34
396.314	79.53
396.524	46.76
396.733	100.01
396.942	134.82
397.152	61.1
397.361	73.39
397.57	73.39
397.78	122.54
397.989	104.11
398.198	95.91
398.407	106.15
398.617	87.72
398.826	110.25
399.035	110.25
399.244	120.49
399.453	73.39
399.663	138.92
399.872	171.69
400.081	57
400.29	97.96
400.499	169.64
400.708	97.96
400.917	20.14
401.127	181.93
401.336	118.44
401.545	179.88
401.754	46.76
401.963	118.44
402.172	159.4
402.381	138.92
402.59	130.73
402.799	91.82
403.008	151.21
403.217	163.5
403.426	95.91
403.635	145.06
403.844	124.58
404.053	171.69
404.262	106.15
404.471	167.59
404.68	132.78
404.888	118.44
405.097	163.5
405.306	100.01
405.515	177.83
405.724	143.02
405.933	243.37
406.142	159.4
406.35	218.79
406.559	173.74
406.768	138.92
406.977	253.61
407.185	239.27
407.394	208.55
407.603	208.55
407.812	212.65
408.02	298.66
408.229	345.77
408.438	212.65
408.646	179.88
408.855	231.08
409.064	245.41
409.272	214.7
409.481	247.46
409.69	331.43
409.898	235.18
410.107	212.65
410.315	335.53
410.524	302.76
410.733	372.39
410.941	341.67
411.15	413.35
411.358	372.39
411.567	442.02
411.775	315.05
411.984	444.07
412.192	419.49
412.401	495.27
412.609	503.46
412.818	509.6
413.026	556.71
413.234	444.07
413.443	546.47
413.651	519.84
413.86	546.47
414.068	546.47
414.276	587.43
414.485	636.58
414.693	593.57
414.901	751.26
415.11	652.96
415.318	730.78
415.526	790.17
415.734	824.99
415.943	771.74
416.151	833.18
416.359	818.85
416.567	859.81
416.776	911
416.984	984.73
417.192	1054.36
417.4	1003.16
417.608	1072.79
417.817	1044.12
418.025	1177.24
418.233	1144.47
418.441	1220.25
418.649	1144.47
418.857	1351.32
419.065	1269.4
419.273	1373.85
419.481	1449.62
419.689	1466
419.897	1502.87
420.105	1525.4
420.313	1650.32
420.521	1543.83
420.729	1586.83
420.937	1740.43
421.145	1793.68
421.353	1955.47
421.561	1982.09
421.769	1932.94
421.977	2111.11
422.185	1971.85
422.393	2182.79
422.601	2309.77
422.809	2227.85
423.017	2274.95
423.224	2504.32
423.432	2487.94
423.64	2553.48
423.848	2803.33
424.056	2707.07
424.263	2885.25
424.471	2827.9
424.679	2895.49
424.887	3077.76
425.094	3165.82
425.302	3241.59
425.51	3231.35
425.718	3489.4
425.925	3497.59
426.133	3747.44
426.341	3753.59
426.548	3935.85
426.756	4036.21
426.964	3966.57
427.171	4234.86
427.379	4398.7
427.586	4351.59
427.794	4664.93
428.001	4746.85
428.209	4888.16
428.417	4851.3
428.624	5361.24
428.832	5275.23
429.039	5195.36
429.247	5342.81
429.454	5785.17
429.662	6030.93
429.869	5725.78
430.076	6176.33
430.284	5899.86
430.491	6241.87
430.699	6600.26
430.906	6569.54
431.114	6755.91
431.321	6958.66
431.528	7093.82
431.736	7433.79
431.943	8074.8
432.15	7695.93
432.358	7794.23
432.565	8037.94
432.772	8058.42
432.979	8410.67
433.187	8756.77
433.394	8724.01
433.601	9248.29
433.808	9336.35
434.016	9383.45
434.223	9731.61
434.43	10337.8
434.637	10329.61
434.844	10692.1
435.052	11056.64
435.259	10980.87
435.466	10886.66
435.673	10898.95
435.88	11552.25
436.087	12250.61
436.294	11929.08
436.501	11912.69
436.708	12232.18
436.915	12637.67
437.122	13037.03
437.329	13037.03
437.537	13370.85
437.743	13784.54
437.95	13659.61
438.157	14415.31
438.364	14824.9
438.571	14777.8
438.778	14708.17
438.985	16317.87
439.192	15576.51
439.399	16068.02
439.606	15748.54
439.813	16674.22
440.02	17866.14
440.227	17325.47
440.433	17153.44
440.64	17741.21
440.847	17681.82
441.054	18382.23
441.261	19056.01
441.467	18941.32
441.674	19668.35
441.881	20170.1
442.088	20067.7
442.294	20149.62
442.501	20469.11
442.708	20878.7
442.914	21898.59
443.121	22863.18
443.328	22250.84
443.534	23627.07
443.741	23072.07
443.948	22795.6
444.154	24411.45
444.361	24218.94
444.568	24284.47
444.774	24431.93
444.981	24667.44
445.187	25648.42
445.394	26889.49
445.6	26074.4
445.807	28548.34
446.013	27489.54
446.22	28073.21
446.426	29109.49
446.633	29347.05
446.839	30420.19
447.046	28767.48
447.252	30903.51
447.459	30819.54
447.665	30946.51
447.871	32021.7
448.078	33270.96
448.284	32218.3
448.491	32916.66
448.697	34036.9
448.903	34579.61
449.11	34626.71
449.316	34124.96
449.522	34919.57
449.728	35552.4
449.935	35918.98
450.141	36086.92
450.347	36875.38
450.553	35884.17
450.76	35796.1
450.966	37495.92
451.172	36953.21
451.378	37977.19
451.584	36985.97
451.791	37887.08
451.997	38095.97
452.203	38509.66
452.409	38452.32
452.615	38505.57
452.821	37074.04
453.027	36611.2
453.233	38730.84
453.44	37356.66
453.646	37555.31
453.852	37467.25
454.058	38241.38
454.264	37082.23
454.47	38190.18
454.676	37180.53
454.882	38272.1
455.088	34870.42
455.294	35587.21
455.5	36082.82
455.705	35978.37
455.911	35134.61
456.117	34243.74
456.323	33623.21
456.529	32054.47
456.735	33547.43
456.941	32908.47
457.147	32292.03
457.352	31231.18
457.558	30928.08
457.764	30821.59
457.97	30516.44
458.176	29474.02
458.381	29396.2
458.587	28394.75
458.793	28345.59
458.999	26711.32
459.204	28652.79
459.41	28058.88
459.616	26191.13
459.821	26012.96
460.027	25988.38
460.233	25554.21
460.438	24069.44
460.644	24325.43
460.85	23373.13
461.055	23045.45
461.261	23158.09
461.466	21321.06
461.672	20706.67
461.878	22060.38
462.083	20954.47
462.289	20290.93
462.494	20024.7
462.7	18959.75
462.905	18808.2
463.111	19166.6
463.316	19232.13
463.522	18875.79
463.727	18892.17
463.932	18769.29
464.138	18748.81
464.343	18924.94
464.549	18259.35
464.754	18984.33
464.959	18666.89
465.165	18619.79
465.37	17517.98
465.575	17266.08
465.781	17913.24
465.986	18193.81
466.191	17718.68
466.397	17065.38
466.602	16299.44
466.807	17139.11
467.012	16973.22
467.218	16666.03
467.423	16778.67
467.628	16930.22
467.833	17599.9
468.038	16907.69
468.244	16561.58
468.449	16934.31
468.654	16278.96
468.859	16444.85
469.064	15934.9
469.269	15807.93
469.474	15744.44
469.679	16195
469.885	15545.79
470.09	15857.08
470.295	15703.48
470.5	15525.31
470.705	15373.76
470.91	14992.84
471.115	14757.32
471.32	15097.28
471.525	15062.47
471.73	14736.84
471.935	14530
472.139	14147.03
472.344	14421.45
472.549	14083.54
472.754	14147.03
472.959	13811.16
473.164	13469.15
473.369	13229.54
473.574	13952.47
473.778	13786.58
473.983	13467.1
474.188	13385.18
474.393	12637.67
474.598	12848.61
474.802	12774.89
475.007	12695.02
475.212	12762.6
475.417	12371.44
475.621	12455.4
475.826	12336.62
476.031	12226.03
476.235	12090.87
476.44	12246.51
476.645	11746.81
476.849	11771.38
477.054	11589.11
477.259	11509.24
477.463	11480.57
477.668	11404.8
477.872	11361.79
478.077	11238.91
478.282	10851.85
478.486	10878.47
478.691	10618.38
478.895	10749.45
479.1	10733.06
479.304	10661.38
479.509	10325.52
479.713	10571.27
479.918	10458.64
480.122	10163.73
480.326	10290.7
480.531	10264.08
480.735	10274.32
480.94	10094.1
481.144	10438.16
481.348	9805.33
481.553	10057.23
481.757	9842.2
481.961	9922.07
482.166	10083.86
482.37	10016.27
482.574	9805.33
482.778	9948.69
482.983	10167.82
483.187	9825.81
483.391	9848.34
483.595	9868.82
483.8	9879.06
484.004	9752.09
484.208	9649.69
484.412	9891.35
484.616	9817.62
484.821	9942.55
485.025	9809.43
485.229	9739.8
485.433	9850.39
485.637	9772.57
485.841	9733.65
486.045	9889.3
486.249	9823.76
486.453	9758.23
486.657	9928.21
486.861	9762.33
487.065	9655.83
487.269	10087.95
487.473	9815.57
487.677	9924.12
487.881	9860.63
488.085	9823.76
488.289	9952.79
488.493	9831.96
488.697	9977.36
488.901	10059.28
489.105	9864.72
489.309	10200.59
489.512	9971.22
489.716	10046.99
489.92	10180.11
490.124	9930.26
490.328	10290.7
490.531	9743.89
490.735	10018.32
490.939	10366.48
491.143	10014.23
491.346	10270.22
491.55	10419.72
491.754	10358.28
491.958	10247.69
492.161	10317.33
492.365	10485.26
492.569	10214.93
492.772	10311.18
492.976	10548.75
493.18	10460.68
493.383	10563.08
493.587	10780.17
493.79	11017.73
493.994	10710.54
494.197	10933.76
494.401	10984.96
494.605	11253.25
494.808	11173.38
495.012	11159.04
495.215	11169.28
495.419	11259.39
495.622	11410.94
495.825	11492.86
496.029	11312.64
496.232	11824.63
496.436	11714.04
496.639	11931.12
496.843	11884.02
497.046	12328.43
497.249	12355.05
497.453	12299.76
497.656	12625.39
497.859	12527.08
498.063	12492.27
498.266	12766.7
498.469	12645.87
498.673	12799.46
498.876	13151.71
499.079	13272.54
499.282	13376.99
499.485	13757.91
499.689	13749.72
499.892	13819.35
500.095	13893.08
500.298	14233.04
500.501	14085.59
500.705	14425.55
500.908	14521.81
501.111	14728.65
501.314	14720.46
501.517	14994.89
501.72	14972.36
501.923	15009.22
502.126	15381.95
502.329	15877.56
502.532	15762.87
502.735	16045.49
502.938	16387.5
503.141	16117.17
503.344	16684.46
503.547	16539.05
503.75	16770.47
503.953	17139.11
504.156	17206.69
504.359	17259.94
504.562	17249.7
504.765	17845.66
504.968	17925.53
505.17	18154.9
505.373	18023.83
505.576	18437.52
505.779	18900.36
505.982	18617.74
506.185	19096.97
506.387	19375.49
506.59	19318.15
506.793	19744.13
506.996	19797.37
507.198	20346.23
507.401	19967.35
507.604	20356.47
507.807	20847.98
508.009	20796.78
508.212	21144.94
508.415	21255.53
508.617	21501.28
508.82	21744.99
509.022	21546.34
509.225	21912.92
509.428	22441.3
509.63	22193.5
509.833	22787.41
510.035	22955.34
510.238	22920.52
510.44	23526.72
510.643	23801.15
510.845	23639.36
511.048	23688.51
511.25	24263.99
511.453	24378.68
511.655	24952.11
511.858	24876.34
512.06	24943.92
512.262	25224.49
512.465	25400.62
512.667	25627.94
512.87	25922.85
513.072	26150.17
513.274	26520.85
513.477	26856.72
513.679	27020.56
513.881	26955.02
514.084	27016.46
514.286	27432.2
514.488	27405.58
514.69	28441.85
514.893	28443.9
515.095	28259.58
515.297	29031.66
515.499	28912.88
515.701	29203.69
515.904	29396.2
516.106	29668.58
516.308	30022.88
516.51	30252.25
516.712	30325.98
516.914	30797.01
517.116	31083.73
517.318	31429.84
517.52	31556.81
517.722	31722.69
517.925	32191.68
518.127	32343.23
518.329	32931
518.531	32455.87
518.733	33051.83
518.935	33311.92
519.136	33207.47
519.338	33832.1
519.54	33805.48
519.742	34315.42
519.944	34131.11
520.146	35081.36
520.348	34909.33
520.55	35138.71
520.752	35277.97
520.954	35931.27
521.155	35572.88
521.357	36308.1
521.559	36504.7
521.761	36848.76
521.963	36811.9
522.164	37391.47
522.366	37117.04
522.568	37471.34
522.77	37692.52
522.971	37958.76
523.173	37958.76
523.375	38268
523.576	38665.31
523.778	38425.7
523.98	39201.88
524.181	39087.19
524.383	39343.19
524.584	39261.27
524.786	39834.7
524.988	39861.32
525.189	40016.97
525.391	40438.85
525.592	40492.1
525.794	40504.38
525.995	40700.99
526.197	40770.62
526.398	40649.79
526.6	41249.85
526.801	41536.56
527.003	41673.77
527.204	41714.73
527.406	41806.89
527.607	41931.82
527.808	42034.22
528.01	41389.11
528.211	42140.71
528.412	42548.26
528.614	42421.28
528.815	42452
529.016	42935.32
529.218	42333.22
529.419	43166.74
529.62	43140.12
529.822	42869.79
530.023	42843.16
530.224	43170.84
530.425	42990.62
530.626	42888.22
530.828	42789.92
531.029	43887.63
531.23	43138.07
531.431	43054.11
531.632	43668.5
531.833	43394.07
532.035	43535.38
532.236	43848.72
532.437	43752.46
532.638	43201.56
532.839	44121.1
533.04	43910.16
533.241	43537.43
533.442	43940.88
533.643	43842.57
533.844	43602.96
534.045	44252.17
534.246	43121.69
534.447	43961.36
534.648	44014.6
534.849	44407.81
535.05	43834.38
535.251	44223.5
535.451	43764.75
535.652	43850.77
535.853	43969.55
536.054	44631.04
536.255	43947.02
536.456	43590.67
536.657	44246.02
536.857	43850.77
537.058	43809.81
537.259	44170.25
537.46	44100.62
537.66	44293.13
537.861	44370.95
538.062	43711.5
538.263	44213.26
538.463	43496.47
538.664	43971.6
538.865	43916.3
539.065	44354.57
539.266	43848.72
539.466	44243.98
539.667	43539.47
539.868	44690.43
540.068	43932.68
540.269	43615.25
540.469	44180.49
540.67	43971.6
540.87	43818
541.071	43764.75
541.271	44225.54
541.472	44047.37
541.672	43711.5
541.873	43750.42
542.073	43441.17
542.274	44317.7
542.474	43938.83
542.675	43566.1
542.875	44391.43
543.075	43842.57
543.276	43820.05
543.476	44200.97
543.676	43336.73
543.877	44071.95
544.077	44170.25
544.277	43553.81
544.478	43938.83
544.678	44186.63
544.878	43885.58
545.078	44108.81
545.279	43498.51
545.479	43404.31
545.679	43895.82
545.879	43711.5
546.079	43707.41
546.28	44063.75
546.48	43375.64
546.68	44141.58
546.88	44078.09
547.08	43668.5
547.28	43744.27
547.48	43422.74
547.68	43709.46
547.88	43699.22
548.081	43551.76
548.281	43742.22
548.481	43328.53
548.681	43609.11
548.881	43482.13
549.081	43553.81
549.28	43379.73
549.48	43516.95
549.68	43529.23
549.88	44096.52
550.08	43707.41
550.28	43840.53
550.48	43631.63
550.68	44033.03
550.88	43813.9
551.08	43375.64
551.279	43461.65
551.479	43314.2
551.679	43549.71
551.879	43549.71
552.079	43428.88
552.278	43449.36
552.478	43676.69
552.678	43303.96
552.878	43811.85
553.077	43637.78
553.277	43607.06
553.477	44215.3
553.676	43578.39
553.876	43365.4
554.076	43351.06
554.275	43533.33
554.475	42902.56
554.674	43432.98
554.874	43645.97
555.074	43187.22
555.273	43584.53
555.473	43410.45
555.672	43056.15
555.872	43475.99
556.071	43113.5
556.271	42877.98
556.47	42708
556.67	42853.4
556.869	42994.71
557.068	42994.71
557.268	42847.26
557.467	42949.66
557.667	42511.39
557.866	42925.08
558.065	42554.4
558.265	42572.83
558.464	42419.24
558.663	42708
558.863	42220.58
559.062	43027.48
559.261	42273.83
559.461	42562.59
559.66	41933.87
559.859	42392.61
560.058	42017.83
560.258	42726.43
560.457	41927.72
560.656	42753.05
560.855	42222.63
561.054	42259.49
561.253	41823.28
561.453	42253.35
561.652	42325.03
561.851	41958.44
562.05	42193.96
562.249	41696.3
562.448	41909.29
562.647	41868.33
562.846	42034.22
563.045	42036.27
563.244	41542.7
563.443	41911.34
563.642	41153.59
563.841	41546.8
564.04	41260.09
564.239	41651.25
564.438	41260.09
564.637	41475.12
564.836	41653.3
565.035	40817.72
565.234	41366.58
565.432	41122.87
565.631	40430.66
565.83	41014.33
566.029	40547.39
566.228	40727.61
566.427	40916.03
566.625	40662.08
566.824	40166.47
567.023	40760.38
567.222	39758.92
567.42	40676.41
567.619	40475.71
567.818	40217.67
568.016	39953.48
568.215	40434.75
568.414	39994.44
568.612	40205.38
568.811	40098.89
569.01	39849.03
569.208	39517.26
569.407	39918.67
569.605	39312.47
569.804	39947.34
570.002	39478.35
570.201	39582.8
570.4	39537.74
570.598	39048.28
570.797	38941.78
570.995	39205.97
571.193	38964.31
571.392	39287.89
571.59	38906.97
571.789	38628.45
571.987	38870.11
572.186	39152.73
572.384	38749.28
572.582	38872.15
572.781	38734.94
572.979	38057.06
573.177	38118.5
573.376	38429.79
573.574	38003.81
573.772	38587.49
573.971	38022.25
574.169	37858.41
574.367	38120.55
574.565	38005.86
574.763	37571.69
574.962	37282.93
575.16	37416.05
575.358	37805.16
575.556	37047.41
575.754	38018.15
575.952	37110.9
576.151	37684.33
576.349	37018.74
576.547	36945.01
576.745	37295.22
576.943	37028.98
577.141	36656.25
577.339	36869.24
577.537	36594.81
577.735	36691.07
577.933	36445.31
578.131	36734.07
578.329	36336.77
578.527	36447.36
578.725	36340.86
578.923	36428.93
579.121	35994.76
579.319	35863.69
579.516	36002.95
579.714	35843.21
579.912	35941.51
580.11	35800.2
580.308	35996.81
580.506	35890.31
580.704	35386.51
580.901	35351.7
581.099	35867.78
581.297	35478.67
581.495	35126.42
581.692	35163.28
581.89	34550.94
582.088	35245.2
582.285	34997.4
582.483	35040.4
582.681	35327.12
582.878	34833.56
583.076	34522.27
583.274	34841.75
583.471	34208.93
583.669	34610.33
583.866	34278.56
584.064	34696.35
584.262	33887.4
584.459	34391.2
584.657	33787.05
584.854	34124.96
585.052	33504.43
585.249	34030.76
585.447	33977.51
585.644	33555.63
585.841	33469.61
586.039	33895.59
586.236	33215.66
586.434	33316.01
586.631	33391.79
586.828	33549.48
587.026	33203.38
587.223	33041.59
587.42	32648.38
587.618	32976.05
587.815	32085.19
588.012	32412.86
588.21	32490.68
588.407	32894.13
588.604	32390.33
588.801	32175.3
588.999	32234.69
589.196	32244.93
589.393	32208.06
589.59	31982.79
589.787	32097.47
589.984	32261.31
590.182	31677.64
590.379	31943.88
590.576	31722.69
590.773	31694.02
590.97	31235.28
591.167	31358.16
591.364	30936.27
591.561	31182.03
591.758	30790.87
591.955	30862.55
592.152	31251.66
592.349	30698.71
592.546	30948.56
592.743	31169.74
592.94	30504.15
593.137	30581.98
593.334	30821.59
593.531	30313.69
593.727	30293.21
593.924	30178.53
594.121	30186.72
594.318	30674.13
594.515	30031.07
594.712	30055.65
594.908	29955.3
595.105	29918.43
595.302	29625.57
595.499	29826.28
595.696	29492.46
595.892	29228.27
596.089	29490.41
596.286	29392.11
596.482	29347.05
596.679	29433.07
596.876	29351.15
597.072	29019.38
597.269	28898.55
597.466	28628.21
597.662	28570.87
597.859	28519.67
598.055	28654.84
598.252	28781.81
598.448	28425.46
598.645	28433.66
598.841	28163.32
599.038	28286.2
599.234	28202.24
599.431	27919.62
599.627	27786.5
599.824	28032.25
600.02	27788.55
600.217	27847.94
600.413	27596.04
600.609	27516.17
600.806	27528.45
601.002	27641.09
601.198	27481.35
601.395	27294.99
601.591	27204.88
601.787	27321.61
601.984	26875.15
602.18	27241.74
602.376	26883.34
602.572	26948.88
602.769	26742.03
602.965	26430.74
603.161	26633.49
603.357	26518.81
603.553	26549.53
603.75	26381.59
603.946	26170.65
604.142	26520.85
604.338	26160.41
604.534	26197.27
604.73	25984.29
604.926	25998.62
605.122	25967.9
605.318	25826.59
605.514	25662.76
605.71	25816.35
605.906	25687.33
606.102	25414.95
606.298	25570.6
606.494	25509.16
606.69	25392.42
606.886	25388.33
607.082	25306.41
607.278	25300.26
607.474	24952.11
607.67	25122.09
607.866	25130.28
608.062	25376.04
608.257	24646.96
608.453	25222.44
608.649	25107.76
608.845	24677.68
609.041	24790.32
609.236	24659.25
609.432	24390.97
609.628	24862
609.824	24464.69
610.019	24614.2
610.215	24565.04
610.411	24745.27
610.606	24333.62
610.802	24282.42
610.998	24448.31
611.193	24573.24
611.389	24173.88
611.584	24124.73
611.78	23862.59
611.976	23950.65
612.171	24143.16
612.367	23964.99
612.562	23934.27
612.758	23911.74
612.953	23823.68
613.149	23795.01
613.344	23608.64
613.539	24081.72
613.735	24034.62
613.93	23704.9
614.126	23762.24
614.321	24034.62
614.517	23653.7
614.712	23528.77
614.907	23528.77
615.103	23676.23
615.298	23407.94
615.493	23418.18
615.688	23477.57
615.884	23745.86
616.079	23326.02
616.274	23432.52
616.47	23184.71
616.665	23364.93
616.86	23098.7
617.055	22922.57
617.25	22902.09
617.445	23366.98
617.641	22824.27
617.836	22975.82
618.031	22498.64
618.226	22879.57
618.421	22863.18
618.616	22701.39
618.811	22396.24
619.006	22723.92
619.201	22187.35
619.396	22474.07
619.591	21935.45
619.786	22420.82
619.981	22152.54
620.176	22285.65
620.371	21800.29
620.566	21955.93
620.761	21794.14
620.956	21992.8
621.151	21618.02
621.346	21462.37
621.541	21149.03
621.735	21423.46
621.93	21226.85
622.125	21110.12
622.32	20866.41
622.515	20927.85
622.709	20811.12
622.904	20624.75
623.099	20757.87
623.294	20749.68
623.488	19969.4
623.683	20663.66
623.878	20163.96
624.072	20155.77
624.267	20340.08
624.462	19836.28
624.656	19907.96
624.851	19895.68
625.046	19590.53
625.24	19559.81
625.435	19244.42
625.629	19699.07
625.824	19361.16
626.018	19242.37
626.213	18965.9
626.407	18959.75
626.602	18556.3
626.796	18955.66
626.991	18791.82
627.185	18714
627.38	18627.98
627.574	18341.27
627.768	18021.78
627.963	18365.84
628.157	17808.79
628.352	17845.66
628.546	17681.82
628.74	17784.22
628.935	17696.16
629.129	17804.7
629.323	17190.31
629.517	17634.72
629.712	17407.39
629.906	17288.61
630.1	16989.61
630.294	16803.24
630.489	17067.43
630.683	16946.6
630.877	16661.93
631.071	16606.64
631.265	16592.3
631.459	16723.37
631.653	16440.75
631.848	16428.46
632.042	16342.45
632.236	16268.72
632.43	16010.68
632.624	16238
632.818	15986.1
633.012	15678.91
633.206	15717.82
633.4	15887.8
633.594	15611.32
633.788	15615.42
633.982	15599.04
634.176	15281.6
634.369	15248.83
634.563	15257.03
634.757	15388.1
634.951	15297.99
635.145	15068.61
635.339	15199.68
635.533	14872.01
635.726	14919.11
635.92	14699.98
636.114	14829
636.308	14693.83
636.501	14530
636.695	14495.18
636.889	14448.08
637.083	14427.6
637.276	14159.31
637.47	14091.73
637.664	14140.88
637.857	14212.56
638.051	14022.1
638.244	14081.49
638.438	13856.22
638.632	13923.8
638.825	13766.1
639.019	13680.09
639.212	13370.85
639.406	13776.34
639.599	13424.09
639.793	13424.09
639.986	13207.01
640.18	13243.87
640.373	13133.28
640.567	13002.21
640.76	13075.94
640.954	12871.14
641.147	12721.64
641.34	12850.66
641.534	12893.67
641.727	12946.92
641.92	12783.08
642.114	12639.72
642.307	12649.96
642.5	12510.7
642.694	12297.71
642.887	12496.36
643.08	12383.73
643.273	12264.94
643.467	12357.1
643.66	12324.33
643.853	11912.69
644.046	11793.91
644.239	11843.06
644.432	11834.87
644.626	11697.66
644.819	11658.74
645.012	11800.05
645.205	11656.7
645.398	11628.03
645.591	11666.94
645.784	11343.36
645.977	11240.96
646.17	11542.01
646.363	11130.37
646.556	11077.12
646.749	11103.75
646.942	10970.63
647.135	10866.18
647.328	11038.21
647.521	11122.18
647.714	10788.36
647.907	10995.2
648.099	10747.4
648.292	10888.71
648.485	10855.94
648.678	10763.78
648.871	10571.27
649.064	10757.64
649.256	10522.12
649.449	10446.35
649.642	10487.31
649.835	10198.54
650.027	10298.89
650.22	10366.48
650.413	10245.65
650.605	10268.17
650.798	9805.33
650.991	9960.98
651.183	10061.33
651.376	9909.78
651.568	10016.27
651.761	9758.23
651.954	9905.68
652.146	9813.52
652.339	9731.61
652.531	9647.64
652.724	9598.49
652.916	9481.75
653.109	9594.39
653.301	9477.66
653.494	9248.29
653.686	9317.92
653.879	9506.33
654.071	9201.18
654.263	9326.11
654.456	9158.17
654.648	9238.05
654.84	9053.73
655.033	9014.82
655.225	8969.76
655.417	8920.61
655.61	8951.33
655.802	8889.89
655.994	8826.4
656.186	8820.26
656.379	8822.31
656.571	8810.02
656.763	8556.07
656.955	8494.63
657.148	8625.7
657.34	8656.42
657.532	8549.93
657.724	8429.1
657.916	8283.69
658.108	8425
658.3	8111.66
658.492	8310.32
658.684	8201.77
658.876	8353.32
659.068	8144.43
659.26	8115.76
659.452	7929.39
659.644	8091.18
659.836	7892.53
660.028	7874.1
660.22	7833.14
660.412	7777.84
660.604	7783.99
660.796	7812.66
660.988	7824.95
661.18	7589.43
661.372	7536.18
661.563	7603.77
661.755	7628.34
661.947	7497.27
662.139	7583.29
662.331	7284.28
662.522	7460.41
662.714	7384.63
662.906	7173.69
663.097	7272
663.289	7241.28
663.481	7398.97
663.673	7272
663.864	7163.45
664.056	7040.58
664.247	7204.41
664.439	6913.6
664.631	7042.62
664.822	7024.19
665.014	7018.05
665.205	7083.58
665.397	7011.9
665.588	6837.83
665.78	6835.78
665.971	6800.96
666.163	6768.2
666.354	6678.08
666.546	6739.52
666.737	6596.17
666.929	6813.25
667.12	6510.15
667.311	6493.77
667.503	6563.4
667.694	6604.36
667.885	6626.89
668.077	6549.06
668.268	6481.48
668.459	6393.42
668.651	6415.94
668.842	6354.51
669.033	6260.3
669.224	6176.33
669.416	6362.7
669.607	6282.83
669.798	6258.25
669.989	6207.05
670.18	6254.16
670.371	5961.3
670.563	6063.69
670.754	6106.7
670.945	6073.93
671.136	6139.47
671.327	5932.62
671.518	6096.46
671.709	6047.31
671.9	6082.13
672.091	6037.07
672.282	5795.41
672.473	5865.04
672.664	5807.7
672.855	5996.11
673.046	5738.07
673.237	5801.55
673.428	5670.48
673.619	5817.94
673.809	5848.66
674	5840.47
674.191	5766.74
674.382	5770.83
674.573	5621.33
674.764	5611.09
674.954	5502.55
675.145	5500.5
675.336	5590.61
675.527	5561.94
675.717	5645.91
675.908	5621.33
676.099	5477.98
676.289	5621.33
676.48	5402.2
676.671	5328.47
676.861	5463.64
677.052	5277.27
677.243	5353.05
677.433	5437.02
677.624	5351
677.814	5418.58
678.005	5172.83
678.195	5256.79
678.386	5383.77
678.576	5398.1
678.767	5232.22
678.957	5369.43
679.148	5178.97
679.338	5254.75
679.529	5199.45
679.719	4978.27
679.909	5205.6
680.1	5162.59
680.29	5019.23
680.481	5037.66
680.671	5031.52
680.861	4959.84
681.052	5058.14
681.242	5027.42
681.432	5101.15
681.622	5099.1
681.813	5054.05
682.003	4957.79
682.193	4982.37
682.383	4947.55
682.573	4808.29
682.764	4939.36
682.954	4830.82
683.144	4920.93
683.334	4912.74
683.524	4720.23
683.714	4787.81
683.904	4927.07
684.094	4793.95
684.284	4875.87
684.474	4830.82
684.664	4787.81
684.854	4865.63
685.044	4712.03
685.234	4650.6
685.424	4804.19
685.614	4675.17
685.804	4613.73
685.994	4714.08
686.184	4566.63
686.374	4468.33
686.564	4509.29
686.753	4752.99
686.943	4574.82
687.133	4492.9
687.323	4556.39
687.513	4499.05
687.702	4597.35
687.892	4525.67
688.082	4515.43
688.272	4492.9
688.461	4449.89
688.651	4310.63
688.841	4388.46
689.03	4290.15
689.22	4308.58
689.41	4339.3
689.599	4222.57
689.789	4255.34
689.979	4390.5
690.168	4322.92
690.358	4251.24
690.547	4130.41
690.737	4210.28
690.926	4128.36
691.116	4243.05
691.305	4267.63
691.495	4103.79
691.684	4046.44
691.874	4011.63
692.063	4050.54
692.252	3954.29
692.442	4015.73
692.631	3997.29
692.82	4097.64
693.01	3952.24
693.199	3937.9
693.388	3868.27
693.578	3843.7
693.767	3874.42
693.956	3792.5
694.146	3886.7
694.335	3692.15
694.524	3755.63
694.713	3880.56
694.902	3755.63
695.092	3890.8
695.281	3702.39
695.47	3638.9
695.659	3534.45
695.848	3620.47
696.037	3608.18
696.226	3618.42
696.415	3655.28
696.604	3710.58
696.793	3688.05
696.982	3481.21
697.171	3696.24
697.36	3622.52
697.549	3593.84
697.738	3516.02
697.927	3583.6
698.116	3640.95
698.305	3501.69
698.494	3470.97
698.683	3573.36
698.872	3524.21
699.061	3630.71
699.25	3450.49
699.438	3585.65
699.627	3481.21
699.816	3473.01
700.005	3577.46
700.193	3448.44
700.382	3548.79
700.571	3491.45
700.76	3503.73
700.948	3587.7
701.137	3317.37
701.326	3387
701.514	3327.61
701.703	3448.44
701.892	3403.38
702.08	3454.58
702.269	3391.09
702.457	3350.14
702.646	3337.85
702.834	3348.09
703.023	3436.15
703.212	3378.81
703.4	3362.42
703.589	3358.33
703.777	3260.02
703.965	3417.72
704.154	3313.27
704.342	3372.66
704.531	3526.26
704.719	3343.99
704.907	3387
705.096	3282.55
705.284	3284.6
705.472	3214.97
705.661	3317.37
705.849	3346.04
706.037	3325.56
706.226	3260.02
706.414	3327.61
706.602	3243.64
706.79	3268.22
706.979	3268.22
707.167	3341.94
707.355	3284.6
707.543	3294.84
707.731	3329.66
707.919	3290.74
708.107	3239.55
708.296	3311.22
708.484	3210.87
708.672	3208.83
708.86	3237.5
709.048	3208.83
709.236	3333.75
709.424	3284.6
709.612	3296.89
709.8	3305.08
709.988	3161.72
710.176	3266.17
710.364	3196.54
710.551	3233.4
710.739	3178.11
710.927	3196.54
711.115	3305.08
711.303	3300.98
711.491	3270.26
711.679	3255.93
711.866	3188.35
712.054	3131
712.242	3145.34
712.43	3280.5
712.617	3227.26
712.805	3180.15
712.993	3296.89
713.181	3202.68
713.368	3096.19
713.556	3247.74
713.744	3206.78
713.931	3229.31
714.119	3159.67
714.306	3184.25
714.494	3174.01
714.682	3184.25
714.869	3137.15
715.057	3126.91
715.244	3139.19
715.432	3053.18
715.619	3155.58
715.807	3131
715.994	3214.97
716.182	3212.92
716.369	3110.52
716.556	3221.11
716.744	3194.49
716.931	3153.53
717.119	3196.54
717.306	3223.16
717.493	3102.33
717.681	3092.09
717.868	3159.67
718.055	3180.15
718.242	3085.95
718.43	3075.71
718.617	3192.44
718.804	3194.49
718.991	3192.44
719.179	3143.29
719.366	3042.94
719.553	3233.4
719.74	3053.18
719.927	3188.35
720.114	3163.77
720.301	2975.36
720.488	3051.13
720.676	3151.48
720.863	3038.84
721.05	3294.84
721.237	3225.21
721.424	3116.67
721.611	3124.86
721.798	3061.37
721.985	3036.8
722.172	3135.1
722.358	3114.62
722.545	3167.87
722.732	3260.02
722.919	3065.47
723.106	2938.49
723.293	3014.27
723.48	3083.9
723.667	2918.01
723.853	3059.32
724.04	3151.48
724.227	2991.74
724.414	3038.84
724.6	2973.31
724.787	3071.61
724.974	3020.41
725.161	3092.09
725.347	3057.28
725.534	3079.8
725.72	3069.56
725.907	3001.98
726.094	3004.03
726.28	2956.93
726.467	3057.28
726.653	2891.39
726.84	2981.5
727.027	3206.78
727.213	2942.59
727.4	3102.33
727.586	2934.4
727.773	3042.94
727.959	3075.71
728.145	2946.69
728.332	3112.57
728.518	3036.8
728.705	2965.12
728.891	3071.61
729.077	3018.36
729.264	2967.17
729.45	2934.4
729.636	3028.6
729.823	2975.36
730.009	2905.73
730.195	2930.3
730.382	2936.45
730.568	2932.35
730.754	2936.45
730.94	2899.58
731.126	3063.42
731.313	3051.13
731.499	2979.45
731.685	3036.8
731.871	2891.39
732.057	3030.65
732.243	3057.28
732.429	2948.73
732.615	2958.97
732.801	3083.9
732.987	2897.53
733.173	3096.19
733.359	2899.58
733.545	2903.68
733.731	2969.21
733.917	2983.55
734.103	2965.12
734.289	2870.91
734.475	2938.49
734.661	2965.12
734.847	3079.8
735.033	3059.32
735.219	3090.04
735.404	3004.03
735.59	2911.87
735.776	2958.97
735.962	2975.36
736.148	2760.32
736.333	2840.19
736.519	2918.01
736.705	2897.53
736.89	2846.34
737.076	2911.87
737.262	2760.32
737.447	2930.3
737.633	2848.38
737.819	2913.92
738.004	2834.05
738.19	2788.99
738.375	2827.9
738.561	2911.87
738.747	2832
738.932	2823.81
739.118	2967.17
739.303	2848.38
739.489	2879.1
739.674	2862.72
739.859	2748.03
740.045	2758.27
740.23	2768.51
740.416	2756.22
740.601	2711.17
740.786	2784.9
740.972	2756.22
741.157	2688.64
741.342	2745.98
741.528	2764.42
741.713	2776.7
741.898	2608.77
742.084	2725.51
742.269	2678.4
742.454	2725.51
742.639	2737.79
742.824	2649.73
743.01	2561.67
743.195	2731.65
743.38	2549.38
743.565	2541.19
743.75	2655.87
743.935	2522.76
744.12	2518.66
744.305	2555.52
744.49	2459.27
744.675	2502.28
744.86	2537.09
745.045	2487.94
745.23	2657.92
745.415	2539.14
745.6	2625.15
745.785	2592.39
745.97	2463.37
746.155	2352.77
746.34	2434.69
746.525	2365.06
746.71	2492.04
746.895	2334.34
747.079	2350.73
747.264	2348.68
747.449	2360.97
747.634	2313.86
747.819	2338.44
748.003	2334.34
748.188	2201.23
748.373	2186.89
748.557	2254.47
748.742	2221.7
748.927	2139.79
749.111	2219.66
749.296	2240.14
749.481	2317.96
749.665	2170.51
749.85	2113.16
750.034	2287.24
750.219	2209.42
750.404	2190.99
750.588	2023.05
750.773	2002.57
750.957	2088.59
751.141	2150.03
751.326	2143.88
751.51	2115.21
751.695	2088.59
751.879	1939.09
752.064	2055.82
752.248	2072.2
752.432	1918.61
752.617	1934.99
752.801	1951.37
752.985	1994.38
753.17	1900.17
753.354	1916.56
753.538	1932.94
753.722	1881.74
753.907	1902.22
754.091	1834.64
754.275	1853.07
754.459	1900.17
754.643	1857.17
754.828	1865.36
755.012	1828.49
755.196	1695.38
755.38	1805.97
755.564	1635.99
755.748	1808.02
755.932	1699.47
756.116	1818.25
756.3	1689.23
756.484	1719.95
756.668	1664.66
756.852	1703.57
757.036	1713.81
757.22	1603.22
757.404	1717.9
757.588	1621.65
757.772	1549.97
757.956	1588.88
758.14	1562.26
758.323	1666.71
758.507	1588.88
758.691	1580.69
758.875	1535.64
759.059	1629.84
759.242	1517.2
759.426	1498.77
759.61	1570.45
759.794	1543.83
759.977	1539.73
760.161	1504.92
760.345	1474.2
760.528	1509.01
760.712	1515.16
760.895	1478.29
761.079	1443.48
761.263	1388.18
761.446	1306.26
761.63	1316.5
761.813	1345.17
761.997	1359.51
762.18	1414.81
762.364	1416.85
762.547	1379.99
762.731	1472.15
762.914	1367.7
763.098	1267.35
763.281	1433.24
763.464	1394.33
763.648	1386.13
763.831	1304.21
764.015	1300.12
764.198	1291.93
764.381	1306.26
764.564	1261.21
764.748	1293.97
764.931	1244.82
765.114	1248.92
765.297	1240.73
765.481	1390.23
765.664	1242.78
765.847	1308.31
766.03	1285.78
766.213	1187.48
766.397	1250.97
766.58	1222.3
766.763	1210.01
766.946	1228.44
767.129	1269.4
767.312	1226.39
767.495	1224.34
767.678	1111.71
767.861	1214.1
768.044	1177.24
768.227	1263.26
768.41	1109.66
768.593	1160.86
768.776	1210.01
768.959	1214.1
769.142	1171.1
769.324	1199.77
769.507	1107.61
769.69	1246.87
769.873	1164.95
770.056	1126.04
770.239	1162.9
770.421	1128.09
770.604	1142.43
770.787	1154.71
770.97	1142.43
771.152	1150.62
771.335	1074.84
771.518	1076.89
771.7	1052.31
771.883	1138.33
772.066	1044.12
772.248	1056.41
772.431	1109.66
772.613	1068.7
772.796	929.44
772.978	1009.31
773.161	1080.99
773.343	951.96
773.526	1072.79
773.708	988.83
773.891	919.2
774.073	1025.69
774.256	1015.45
774.438	974.49
774.621	990.88
774.803	921.24
774.985	1003.16
775.168	962.2
775.35	992.92
775.532	900.76
775.715	904.86
775.897	911
776.079	847.52
776.261	929.44
776.444	886.43
776.626	923.29
776.808	913.05
776.99	857.76
777.173	956.06
777.355	857.76
777.537	853.66
777.719	853.66
777.901	812.7
778.083	865.95
778.265	861.85
778.447	851.61
778.629	804.51
778.811	878.24
778.993	812.7
779.175	841.37
779.357	693.92
779.539	734.88
779.721	751.26
779.903	738.98
780.085	712.35
780.267	702.11
780.449	761.5
780.631	743.07
780.812	796.32
780.994	695.97
781.176	730.78
781.358	677.54
781.54	710.3
781.721	702.11
781.903	689.82
782.085	669.34
782.267	753.31
782.448	632.48
782.63	702.11
782.812	698.02
782.993	642.72
783.175	679.58
783.357	677.54
783.538	599.71
783.72	599.71
783.901	657.06
784.083	599.71
784.264	573.09
784.446	552.61
784.627	548.51
784.809	571.04
784.99	585.38
785.172	616.1
785.353	546.47
785.535	571.04
785.716	568.99
785.897	521.89
786.079	515.75
786.26	554.66
786.441	550.56
786.623	507.55
786.804	548.51
786.985	558.75
787.167	540.32
787.348	470.69
787.529	558.75
787.71	554.66
787.891	528.03
788.073	591.52
788.254	540.32
788.435	554.66
788.616	437.92
788.797	485.03
788.978	540.32
789.159	509.6
789.34	546.47
789.522	491.17
789.703	485.03
789.884	405.16
790.065	413.35
790.246	386.72
790.427	427.68
790.607	466.6
790.788	521.89
790.969	499.36
791.15	444.07
791.331	421.54
791.512	390.82
791.693	480.93
791.874	409.25
792.054	495.27
792.235	536.23
792.416	378.53
792.597	376.48
792.778	378.53
792.958	411.3
793.139	374.44
793.32	433.83
793.5	327.33
793.681	456.36
793.862	417.44
794.042	501.41
794.223	444.07
794.404	358.05
794.584	337.57
794.765	419.49
794.945	456.36
795.126	384.68
795.306	364.2
795.487	388.77
795.667	368.29
795.848	452.26
796.028	384.68
796.209	435.88
796.389	364.2
796.57	337.57
796.75	396.96
796.93	368.29
797.111	351.91
797.291	347.81
797.471	358.05
797.652	308.9
797.832	419.49
798.012	366.25
798.192	390.82
798.373	380.58
798.553	218.79
798.733	392.87
798.913	235.18
799.093	341.67
799.274	272.04
799.454	362.15
799.634	343.72
799.814	317.09
799.994	362.15
800.174	274.09
800.354	362.15
800.534	288.42
800.714	327.33
800.894	298.66
801.074	290.47
801.254	317.09
801.434	302.76
801.614	321.19
801.794	267.94
801.974	745.12
802.154	259.75
802.334	276.13
802.514	286.37
802.693	267.94
802.873	343.72
803.053	349.86
803.233	278.18
803.413	292.52
803.592	255.65
803.772	265.89
803.952	335.53
804.131	310.95
804.311	237.22
804.491	253.61
804.67	294.57
804.85	333.48
805.03	339.62
805.209	399.01
805.389	220.84
805.568	280.23
805.748	259.75
805.928	245.41
806.107	327.33
806.287	358.05
806.466	292.52
806.646	200.36
806.825	216.74
807.004	310.95
807.184	226.98
807.363	261.8
807.543	272.04
807.722	198.31
807.901	274.09
808.081	251.56
808.26	208.55
808.439	249.51
808.619	253.61
808.798	276.13
808.977	276.13
809.156	202.41
809.336	216.74
809.515	245.41
809.694	290.47
809.873	202.41
810.052	226.98
810.231	282.28
810.411	347.81
810.59	276.13
810.769	327.33
810.948	286.37
811.127	241.32
811.306	208.55
811.485	239.27
811.664	233.13
811.843	222.89
812.022	198.31
812.201	224.94
812.38	177.83
812.559	251.56
812.737	177.83
812.916	169.64
813.095	188.07
813.274	149.16
813.453	229.03
813.632	214.7
813.811	286.37
813.989	136.87
814.168	177.83
814.347	155.3
814.526	222.89
814.704	153.26
814.883	239.27
815.062	165.54
815.24	196.26
815.419	169.64
815.598	196.26
815.776	138.92
815.955	247.46
816.133	112.3
816.312	226.98
816.49	233.13
816.669	155.3
816.847	120.49
817.026	247.46
817.204	157.35
817.383	206.5
817.561	218.79
817.74	192.17
817.918	122.54
818.097	73.39
818.275	124.58
818.453	257.7
818.632	179.88
818.81	130.73
818.988	153.26
819.167	179.88
819.345	179.88
819.523	110.25
819.701	200.36
819.879	122.54
820.058	130.73
820.236	200.36
820.414	165.54
820.592	167.59
820.77	116.39
820.948	153.26
821.127	171.69
821.305	216.74
821.483	114.34
821.661	124.58
821.839	145.06
822.017	138.92
822.195	128.68
822.373	149.16
822.551	161.45
822.729	145.06
822.907	167.59
823.085	163.5
823.262	167.59
823.44	126.63
823.618	153.26
823.796	132.78
823.974	140.97
824.152	145.06
824.329	95.91
824.507	157.35
824.685	147.11
824.863	110.25
825.04	169.64
825.218	116.39
825.396	69.29
825.574	44.71
825.751	163.5
825.929	120.49
826.107	130.73
826.284	100.01
826.462	120.49
826.639	122.54
826.817	126.63
826.994	85.67
827.172	63.15
827.349	93.87
827.527	132.78
827.704	52.91
827.882	153.26
828.059	116.39
828.237	46.76
828.414	130.73
828.591	-2.39
828.769	97.96
828.946	179.88
829.124	124.58
829.301	183.98
829.478	140.97
829.655	91.82
829.833	116.39
830.01	22.19
830.187	108.2
830.364	112.3
830.542	75.43
830.719	85.67
830.896	97.96
831.073	132.78
831.25	126.63
831.427	36.52
831.604	106.15
831.782	108.2
831.959	159.4
832.136	48.81
832.313	44.71
832.49	106.15
832.667	63.15
832.844	93.87
833.021	89.77
833.198	112.3
833.374	151.21
833.551	77.48
833.728	79.53
833.905	46.76
834.082	63.15
834.259	38.57
834.436	175.78
834.612	114.34
834.789	91.82
834.966	106.15
835.143	67.24
835.319	161.45
835.496	91.82
835.673	18.09
835.85	112.3
836.026	57
836.203	85.67
836.38	75.43
836.556	77.48
836.733	16.04
836.909	85.67
837.086	18.09
837.262	104.11
837.439	79.53
837.616	128.68
837.792	81.58
837.968	13.99
838.145	-39.25
838.321	97.96
838.498	50.86
838.674	83.63
838.851	130.73
839.027	59.05
839.203	106.15
839.38	32.43
839.556	81.58
839.732	40.62
839.909	79.53
840.085	-8.53
840.261	36.52
840.437	28.33
840.614	40.62
840.79	143.02
840.966	69.29
841.142	102.06
841.318	124.58
841.494	147.11
841.671	79.53
841.847	57
842.023	89.77
842.199	75.43
842.375	40.62
842.551	89.77
842.727	42.67
842.903	120.49
843.079	50.86
843.255	120.49
843.431	106.15
843.607	130.73
843.783	11.95
843.959	188.07
844.134	73.39
844.31	138.92
844.486	67.24
844.662	32.43
844.838	77.48
845.013	50.86
845.189	26.28
845.365	83.63
845.541	106.15
845.716	18.09
845.892	71.34
846.068	85.67
846.244	52.91
846.419	34.47
846.595	30.38
846.77	-8.53
846.946	112.3
847.122	89.77
847.297	50.86
847.473	91.82
847.648	57
847.824	-10.58
847.999	3.75
848.175	91.82
848.35	42.67
848.526	44.71
848.701	130.73
848.876	50.86
849.052	42.67
849.227	104.11
849.403	106.15
849.578	83.63
849.753	81.58
849.929	42.67
850.104	-18.77
850.279	75.43
850.454	-8.53
850.63	24.23
850.805	69.29
850.98	69.29
851.155	-33.11
851.33	69.29
851.505	20.14
851.681	93.87
851.856	44.71
852.031	65.19
852.206	22.19
852.381	100.01
852.556	40.62
852.731	83.63
852.906	50.86
853.081	32.43
853.256	79.53
853.431	13.99
853.606	46.76
853.781	18.09
853.956	-18.77
854.131	42.67
854.305	13.99
854.48	-2.39
854.655	42.67
854.83	79.53
855.005	83.63
855.18	69.29
855.354	-8.53
855.529	-35.16
855.704	-18.77
855.879	95.91
856.053	57
856.228	26.28
856.403	50.86
856.577	83.63
856.752	83.63
856.926	24.23
857.101	24.23
857.276	30.38
857.45	57
857.625	114.34
857.799	81.58
857.974	5.8
858.148	-22.87
858.323	59.05
858.497	13.99
858.672	50.86
858.846	89.77
859.02	65.19
859.195	-20.82
859.369	-10.58
859.543	1.71
859.718	44.71
859.892	-26.96
860.066	44.71
860.241	28.33
860.415	54.95
860.589	-0.34
860.763	79.53
860.938	1.71
861.112	3.75
861.286	-4.44
861.46	-0.34
861.634	-22.87
861.808	124.58
861.982	24.23
862.157	61.1
862.331	28.33
862.505	67.24
862.679	9.9
862.853	-10.58
863.027	-8.53
863.201	52.91
863.375	71.34
863.549	24.23
863.722	26.28
863.896	42.67
864.07	81.58
864.244	112.3
864.418	52.91
864.592	-14.68
864.766	9.9
864.939	100.01
865.113	28.33
865.287	30.38
865.461	57
865.634	34.47
865.808	83.63
865.982	85.67
866.156	50.86
866.329	-8.53
866.503	50.86
866.676	-33.11
866.85	24.23
867.024	44.71
867.197	34.47
867.371	65.19
867.544	57
867.718	13.99
867.891	9.9
868.065	44.71
868.238	30.38
868.412	52.91
868.585	63.15
868.759	54.95
868.932	71.34
869.105	-37.2
869.279	-49.49
869.452	73.39
869.625	-49.49
869.799	7.85
869.972	112.3
870.145	63.15
870.319	48.81
870.492	24.23
870.665	42.67
870.838	7.85
871.011	16.04
871.185	-6.49
871.358	-49.49
871.531	108.2
871.704	46.76
871.877	22.19
872.05	30.38
872.223	-63.83
872.396	61.1
872.569	73.39
872.742	7.85
872.915	9.9
873.088	-0.34
873.261	-16.73
873.434	-10.58
873.607	-8.53
873.78	97.96
873.953	-16.73
874.126	40.62
874.299	7.85
874.471	65.19
874.644	42.67
874.817	5.8
874.99	85.67
875.163	40.62
875.335	57
875.508	-22.87
875.681	20.14
875.853	44.71
876.026	77.48
876.199	22.19
876.371	22.19
876.544	7.85
876.717	48.81
876.889	-6.49
877.062	42.67
877.234	34.47
877.407	71.34
877.579	7.85
877.752	5.8
877.924	30.38
878.097	-14.68
878.269	34.47
878.442	44.71
878.614	30.38
878.786	26.28
878.959	52.91
879.131	30.38
879.303	-20.82
879.476	42.67
879.648	-4.44
879.82	48.81
879.993	-84.31
880.165	63.15
880.337	-2.39
880.509	-43.35
880.681	54.95
880.854	-37.2
881.026	40.62
881.198	69.29
881.37	38.57
881.542	7.85
881.714	-43.35
881.886	34.47
882.058	5.8
882.23	16.04
882.402	36.52
882.574	16.04
882.746	-6.49
882.918	-49.49
883.09	63.15
883.262	11.95
883.434	13.99
883.606	1.71
883.778	18.09
883.95	-6.49
884.122	-2.39
884.293	30.38
884.465	-31.06
884.637	69.29
884.809	34.47
884.98	61.1
885.152	1.71
885.324	44.71
885.496	-33.11
885.667	13.99
885.839	-31.06
886.011	46.76
886.182	46.76
886.354	28.33
886.525	36.52
886.697	73.39
886.869	73.39
887.04	-31.06
887.212	59.05
887.383	83.63
887.555	-12.63
887.726	-33.11
887.897	-12.63
888.069	-41.3
888.24	-2.39
888.412	16.04
888.583	20.14
888.754	34.47
888.926	-33.11
889.097	-2.39
889.268	40.62
889.44	1.71
889.611	-39.25
889.782	44.71
889.953	-16.73
890.125	1.71
890.296	5.8
890.467	48.81
890.638	16.04
890.809	26.28
890.98	-4.44
891.151	102.06
891.323	-33.11
891.494	28.33
891.665	38.57
891.836	24.23
892.007	44.71
892.178	-18.77
892.349	-76.12
892.52	7.85
892.691	-24.92
892.862	102.06
893.032	-0.34
893.203	57
893.374	-29.01
893.545	46.76
893.716	9.9
893.887	22.19
894.057	-4.44
894.228	24.23
894.399	-47.44
894.57	102.06
894.74	30.38
894.911	26.28
895.082	-47.44
895.253	5.8
895.423	44.71
895.594	77.48
895.764	97.96
895.935	-2.39
896.106	-49.49
896.276	-29.01
896.447	-22.87
896.617	-20.82
896.788	26.28
896.958	46.76
897.129	20.14
897.299	-100.69
897.47	-22.87
897.64	63.15
897.81	48.81
897.981	-10.58
898.151	67.24
898.322	40.62
898.492	11.95
898.662	34.47
898.832	13.99
899.003	16.04
899.173	16.04
899.343	-18.77
899.513	38.57
