Data from USB4F104151__19__12-27-06-096.txt Node

Date: Fri Mar 14 12:27:06 EDT 2025
User: louis
Spectrometer: USB4F10415
Trigger mode: 4
Integration Time (sec): 2.000000E-2
Scans to average: 1
Electric dark correction enabled: true
Nonlinearity correction enabled: false
Boxcar width: 0
XAxis mode: Wavelengths
Number of Pixels in Spectrum: 3648
>>>>>Begin Spectral Data<<<<<
178.204	-148.82
178.424	-148.82
178.644	-148.82
178.864	-103.76
179.084	-122.2
179.304	-13.65
179.524	-5.46
179.744	-30.04
179.964	39.59
180.184	-30.04
180.404	27.31
180.624	-34.13
180.844	-25.94
181.064	17.07
181.283	35.5
181.503	-32.08
181.723	51.88
181.943	-93.52
182.163	6.83
182.383	-66.9
182.602	-5.46
182.822	-17.75
183.042	23.21
183.262	-44.37
183.482	-91.48
183.701	43.69
183.921	-85.33
184.141	19.11
184.361	70.31
184.58	49.83
184.8	72.36
185.02	8.87
185.239	-11.61
185.459	-62.8
185.679	15.02
185.898	33.45
186.118	29.35
186.338	17.07
186.557	39.59
186.777	17.07
186.997	-1.37
187.216	-7.51
187.436	43.69
187.655	43.69
187.875	23.21
188.095	-77.14
188.314	-5.46
188.534	-21.85
188.753	31.4
188.973	17.07
189.192	0.68
189.412	-17.75
189.631	-9.56
189.851	2.73
190.07	70.31
190.29	-3.41
190.509	21.16
190.729	10.92
190.948	10.92
191.168	31.4
191.387	10.92
191.607	-21.85
191.826	45.74
192.045	-30.04
192.265	29.35
192.484	-17.75
192.704	-27.99
192.923	-11.61
193.142	-1.37
193.362	15.02
193.581	51.88
193.8	82.6
194.02	78.51
194.239	-62.8
194.458	23.21
194.678	29.35
194.897	39.59
195.116	-1.37
195.335	-5.46
195.555	80.55
195.774	23.21
195.993	47.79
196.212	-13.65
196.432	-73.04
196.651	-13.65
196.87	19.11
197.089	-3.41
197.308	31.4
197.528	-9.56
197.747	-15.7
197.966	-5.46
198.185	31.4
198.404	17.07
198.623	51.88
198.842	8.87
199.062	12.97
199.281	105.13
199.5	-15.7
199.719	4.78
199.938	62.12
200.157	-5.46
200.376	12.97
200.595	4.78
200.814	29.35
201.033	12.97
201.252	29.35
201.471	12.97
201.69	62.12
201.909	6.83
202.128	-36.18
202.347	41.64
202.566	-15.7
202.785	-13.65
203.004	55.98
203.223	55.98
203.442	6.83
203.661	-25.94
203.879	19.11
204.098	-58.71
204.317	15.02
204.536	60.07
204.755	17.07
204.974	25.26
205.193	12.97
205.411	76.46
205.63	82.6
205.849	-32.08
206.068	-50.52
206.287	15.02
206.505	33.45
206.724	29.35
206.943	-30.04
207.162	-30.04
207.381	-7.51
207.599	47.79
207.818	-21.85
208.037	53.93
208.255	-13.65
208.474	51.88
208.693	41.64
208.911	109.22
209.13	-46.42
209.349	107.18
209.567	-54.61
209.786	49.83
210.005	2.73
210.223	-36.18
210.442	-44.37
210.661	43.69
210.879	66.22
211.098	74.41
211.316	72.36
211.535	25.26
211.753	23.21
211.972	17.07
212.191	-36.18
212.409	-34.13
212.628	55.98
212.846	-21.85
213.065	-79.19
213.283	-1.37
213.502	-25.94
213.72	27.31
213.938	-27.99
214.157	-13.65
214.375	84.65
214.594	-11.61
214.812	66.22
215.031	80.55
215.249	-11.61
215.467	-15.7
215.686	-73.04
215.904	-15.7
216.122	23.21
216.341	-1.37
216.559	-9.56
216.778	80.55
216.996	-97.62
217.214	25.26
217.432	94.89
217.651	2.73
217.869	-50.52
218.087	19.11
218.306	90.79
218.524	-13.65
218.742	-1.37
218.96	6.83
219.179	53.93
219.397	-36.18
219.615	55.98
219.833	90.79
220.051	-7.51
220.27	-15.7
220.488	0.68
220.706	4.78
220.924	43.69
221.142	-9.56
221.36	8.87
221.578	31.4
221.796	-27.99
222.015	-5.46
222.233	31.4
222.451	29.35
222.669	4.78
222.887	68.27
223.105	53.93
223.323	33.45
223.541	88.75
223.759	-13.65
223.977	-23.89
224.195	80.55
224.413	25.26
224.631	8.87
224.849	66.22
225.067	60.07
225.285	-30.04
225.503	-7.51
225.721	35.5
225.939	-19.8
226.157	0.68
226.375	70.31
226.592	-1.37
226.81	8.87
227.028	68.27
227.246	39.59
227.464	19.11
227.682	62.12
227.9	78.51
228.117	68.27
228.335	-5.46
228.553	72.36
228.771	-38.23
228.989	10.92
229.206	-17.75
229.424	27.31
229.642	33.45
229.86	2.73
230.077	29.35
230.295	80.55
230.513	94.89
230.731	113.32
230.948	53.93
231.166	49.83
231.384	-99.67
231.601	17.07
231.819	10.92
232.037	17.07
232.254	-71
232.472	-32.08
232.689	23.21
232.907	66.22
233.125	4.78
233.342	-21.85
233.56	6.83
233.777	-95.57
233.995	10.92
234.213	29.35
234.43	-66.9
234.648	-23.89
234.865	-17.75
235.083	-15.7
235.3	35.5
235.518	68.27
235.735	58.03
235.953	53.93
236.17	-1.37
236.388	4.78
236.605	0.68
236.822	51.88
237.04	25.26
237.257	4.78
237.475	55.98
237.692	84.65
237.909	-1.37
238.127	8.87
238.344	-38.23
238.562	-17.75
238.779	-19.8
238.996	35.5
239.214	-9.56
239.431	53.93
239.648	-13.65
239.865	-46.42
240.083	111.27
240.3	27.31
240.517	-42.32
240.735	70.31
240.952	-38.23
241.169	68.27
241.386	2.73
241.603	8.87
241.821	23.21
242.038	31.4
242.255	-11.61
242.472	-5.46
242.689	43.69
242.907	23.21
243.124	51.88
243.341	-68.95
243.558	0.68
243.775	-27.99
243.992	-23.89
244.209	0.68
244.426	23.21
244.643	0.68
244.86	-46.42
245.078	-21.85
245.295	-44.37
245.512	21.16
245.729	55.98
245.946	0.68
246.163	-34.13
246.38	-9.56
246.597	0.68
246.814	6.83
247.031	78.51
247.248	45.74
247.464	0.68
247.681	-21.85
247.898	27.31
248.115	43.69
248.332	-19.8
248.549	70.31
248.766	29.35
248.983	6.83
249.2	-36.18
249.417	-25.94
249.633	-5.46
249.85	-27.99
250.067	60.07
250.284	-15.7
250.501	37.55
250.717	27.31
250.934	0.68
251.151	-30.04
251.368	-3.41
251.585	4.78
251.801	-38.23
252.018	55.98
252.235	37.55
252.451	15.02
252.668	84.65
252.885	6.83
253.102	72.36
253.318	-5.46
253.535	-5.46
253.752	-11.61
253.968	-64.85
254.185	-1.37
254.401	92.84
254.618	80.55
254.835	58.03
255.051	64.17
255.268	-27.99
255.484	-9.56
255.701	29.35
255.917	12.97
256.134	-25.94
256.351	21.16
256.567	-23.89
256.784	0.68
257	17.07
257.217	10.92
257.433	70.31
257.65	62.12
257.866	12.97
258.082	-32.08
258.299	-48.47
258.515	10.92
258.732	-5.46
258.948	62.12
259.165	68.27
259.381	35.5
259.597	66.22
259.814	-34.13
260.03	15.02
260.246	23.21
260.463	29.35
260.679	0.68
260.895	35.5
261.112	4.78
261.328	58.03
261.544	-32.08
261.761	17.07
261.977	-46.42
262.193	-34.13
262.409	10.92
262.626	76.46
262.842	37.55
263.058	55.98
263.274	6.83
263.49	-17.75
263.707	35.5
263.923	27.31
264.139	35.5
264.355	78.51
264.571	53.93
264.787	-32.08
265.004	-48.47
265.22	10.92
265.436	39.59
265.652	-7.51
265.868	27.31
266.084	-64.85
266.3	66.22
266.516	25.26
266.732	-5.46
266.948	31.4
267.164	15.02
267.38	70.31
267.596	15.02
267.812	17.07
268.028	0.68
268.244	2.73
268.46	-3.41
268.676	4.78
268.892	23.21
269.108	2.73
269.324	-11.61
269.54	-62.8
269.756	33.45
269.972	-23.89
270.188	4.78
270.403	-54.61
270.619	23.21
270.835	43.69
271.051	6.83
271.267	-23.89
271.483	0.68
271.698	90.79
271.914	-56.66
272.13	-3.41
272.346	31.4
272.562	58.03
272.777	74.41
272.993	-32.08
273.209	-11.61
273.425	12.97
273.64	-27.99
273.856	53.93
274.072	86.7
274.287	21.16
274.503	64.17
274.719	84.65
274.934	-7.51
275.15	10.92
275.366	-32.08
275.581	-5.46
275.797	64.17
276.012	2.73
276.228	43.69
276.444	-1.37
276.659	19.11
276.875	-15.7
277.09	47.79
277.306	45.74
277.521	72.36
277.737	78.51
277.952	35.5
278.168	58.03
278.383	15.02
278.599	-9.56
278.814	53.93
279.03	62.12
279.245	31.4
279.461	53.93
279.676	6.83
279.892	60.07
280.107	70.31
280.322	-1.37
280.538	-32.08
280.753	-89.43
280.969	-1.37
281.184	37.55
281.399	70.31
281.615	15.02
281.83	-52.56
282.045	23.21
282.26	6.83
282.476	-27.99
282.691	47.79
282.906	8.87
283.122	17.07
283.337	8.87
283.552	60.07
283.767	-40.28
283.983	66.22
284.198	-23.89
284.413	15.02
284.628	23.21
284.843	2.73
285.058	76.46
285.274	39.59
285.489	25.26
285.704	-17.75
285.919	-21.85
286.134	-13.65
286.349	-19.8
286.564	49.83
286.779	45.74
286.995	29.35
287.21	-13.65
287.425	55.98
287.64	72.36
287.855	66.22
288.07	-23.89
288.285	6.83
288.5	-1.37
288.715	23.21
288.93	-34.13
289.145	-48.47
289.36	-56.66
289.575	60.07
289.79	31.4
290.004	15.02
290.219	43.69
290.434	96.94
290.649	6.83
290.864	-56.66
291.079	53.93
291.294	62.12
291.509	37.55
291.724	-9.56
291.938	41.64
292.153	113.32
292.368	43.69
292.583	12.97
292.798	68.27
293.012	68.27
293.227	19.11
293.442	49.83
293.657	98.99
293.871	33.45
294.086	62.12
294.301	33.45
294.516	10.92
294.73	21.16
294.945	-11.61
295.16	31.4
295.374	-5.46
295.589	53.93
295.804	6.83
296.018	15.02
296.233	43.69
296.447	62.12
296.662	-27.99
296.877	10.92
297.091	-27.99
297.306	33.45
297.52	10.92
297.735	58.03
297.949	-71
298.164	60.07
298.378	-17.75
298.593	-56.66
298.807	-25.94
299.022	82.6
299.236	-36.18
299.451	-3.41
299.665	-19.8
299.88	92.84
300.094	19.11
300.309	15.02
300.523	12.97
300.737	8.87
300.952	39.59
301.166	51.88
301.381	60.07
301.595	6.83
301.809	-27.99
302.024	31.4
302.238	64.17
302.452	8.87
302.667	10.92
302.881	-38.23
303.095	19.11
303.309	49.83
303.524	41.64
303.738	31.4
303.952	-13.65
304.166	45.74
304.381	-44.37
304.595	19.11
304.809	66.22
305.023	37.55
305.237	-11.61
305.452	0.68
305.666	23.21
305.88	29.35
306.094	15.02
306.308	47.79
306.522	-9.56
306.736	49.83
306.95	15.02
307.164	15.02
307.379	78.51
307.593	29.35
307.807	45.74
308.021	51.88
308.235	-17.75
308.449	-9.56
308.663	6.83
308.877	64.17
309.091	10.92
309.305	0.68
309.519	19.11
309.733	60.07
309.947	-62.8
310.161	0.68
310.374	-46.42
310.588	86.7
310.802	-42.32
311.016	96.94
311.23	49.83
311.444	12.97
311.658	6.83
311.872	45.74
312.085	103.08
312.299	-64.85
312.513	19.11
312.727	21.16
312.941	51.88
313.154	-9.56
313.368	-54.61
313.582	51.88
313.796	74.41
314.009	6.83
314.223	35.5
314.437	-15.7
314.651	19.11
314.864	10.92
315.078	-11.61
315.292	70.31
315.505	-36.18
315.719	-5.46
315.933	-9.56
316.146	-7.51
316.36	15.02
316.573	-3.41
316.787	10.92
317.001	-15.7
317.214	-64.85
317.428	115.37
317.641	80.55
317.855	82.6
318.068	-11.61
318.282	0.68
318.495	170.66
318.709	-32.08
318.922	80.55
319.136	66.22
319.349	113.32
319.563	17.07
319.776	12.97
319.99	-21.85
320.203	35.5
320.417	15.02
320.63	39.59
320.843	4.78
321.057	64.17
321.27	90.79
321.483	45.74
321.697	64.17
321.91	-40.28
322.124	49.83
322.337	45.74
322.55	47.79
322.763	68.27
322.977	6.83
323.19	10.92
323.403	33.45
323.617	90.79
323.83	31.4
324.043	43.69
324.256	15.02
324.469	53.93
324.683	53.93
324.896	43.69
325.109	10.92
325.322	-50.52
325.535	17.07
325.748	29.35
325.962	-25.94
326.175	23.21
326.388	76.46
326.601	-30.04
326.814	4.78
327.027	10.92
327.24	76.46
327.453	47.79
327.666	43.69
327.879	55.98
328.092	64.17
328.305	119.46
328.518	21.16
328.731	-3.41
328.944	29.35
329.157	66.22
329.37	-15.7
329.583	92.84
329.796	23.21
330.009	19.11
330.222	27.31
330.435	25.26
330.648	6.83
330.861	31.4
331.073	19.11
331.286	35.5
331.499	33.45
331.712	19.11
331.925	10.92
332.138	15.02
332.35	133.8
332.563	-17.75
332.776	82.6
332.989	-15.7
333.202	-7.51
333.414	31.4
333.627	-5.46
333.84	6.83
334.053	2.73
334.265	25.26
334.478	68.27
334.691	74.41
334.903	-60.76
335.116	49.83
335.329	43.69
335.541	25.26
335.754	64.17
335.966	-36.18
336.179	27.31
336.392	55.98
336.604	19.11
336.817	17.07
337.029	101.03
337.242	25.26
337.454	68.27
337.667	10.92
337.88	39.59
338.092	29.35
338.305	27.31
338.517	66.22
338.729	12.97
338.942	111.27
339.154	25.26
339.367	37.55
339.579	84.65
339.792	53.93
340.004	-3.41
340.217	45.74
340.429	66.22
340.641	17.07
340.854	-50.52
341.066	43.69
341.278	29.35
341.491	8.87
341.703	49.83
341.915	17.07
342.128	-13.65
342.34	-34.13
342.552	33.45
342.764	23.21
342.977	-27.99
343.189	49.83
343.401	-21.85
343.613	35.5
343.826	-52.56
344.038	6.83
344.25	15.02
344.462	4.78
344.674	45.74
344.886	29.35
345.099	41.64
345.311	27.31
345.523	107.18
345.735	41.64
345.947	-36.18
346.159	15.02
346.371	53.93
346.583	76.46
346.795	55.98
347.007	103.08
347.219	72.36
347.431	29.35
347.643	37.55
347.855	35.5
348.067	119.46
348.279	27.31
348.491	68.27
348.703	-9.56
348.915	-17.75
349.127	45.74
349.339	72.36
349.551	64.17
349.763	17.07
349.975	47.79
350.187	51.88
350.399	4.78
350.61	51.88
350.822	-21.85
351.034	25.26
351.246	27.31
351.458	-1.37
351.669	35.5
351.881	66.22
352.093	25.26
352.305	64.17
352.517	6.83
352.728	47.79
352.94	55.98
353.152	58.03
353.363	8.87
353.575	101.03
353.787	90.79
353.999	2.73
354.21	8.87
354.422	60.07
354.633	8.87
354.845	35.5
355.057	2.73
355.268	-7.51
355.48	41.64
355.692	-1.37
355.903	-5.46
356.115	0.68
356.326	6.83
356.538	76.46
356.749	82.6
356.961	66.22
357.172	37.55
357.384	10.92
357.595	12.97
357.807	-7.51
358.018	2.73
358.23	47.79
358.441	72.36
358.653	88.75
358.864	31.4
359.075	-13.65
359.287	31.4
359.498	94.89
359.709	76.46
359.921	35.5
360.132	-3.41
360.344	47.79
360.555	-13.65
360.766	70.31
360.977	43.69
361.189	41.64
361.4	-7.51
361.611	35.5
361.823	31.4
362.034	72.36
362.245	-5.46
362.456	-5.46
362.667	43.69
362.879	43.69
363.09	43.69
363.301	12.97
363.512	10.92
363.723	49.83
363.935	2.73
364.146	86.7
364.357	131.75
364.568	82.6
364.779	62.12
364.99	53.93
365.201	33.45
365.412	68.27
365.623	37.55
365.834	76.46
366.045	-11.61
366.256	55.98
366.467	39.59
366.678	-3.41
366.889	19.11
367.1	-48.47
367.311	31.4
367.522	70.31
367.733	49.83
367.944	39.59
368.155	64.17
368.366	31.4
368.577	10.92
368.788	-5.46
368.999	6.83
369.209	70.31
369.42	35.5
369.631	80.55
369.842	15.02
370.053	62.12
370.264	-3.41
370.474	39.59
370.685	4.78
370.896	0.68
371.107	82.6
371.317	0.68
371.528	84.65
371.739	70.31
371.95	82.6
372.16	62.12
372.371	-11.61
372.582	-62.8
372.792	101.03
373.003	47.79
373.214	37.55
373.424	8.87
373.635	58.03
373.846	115.37
374.056	62.12
374.267	17.07
374.477	-3.41
374.688	19.11
374.898	96.94
375.109	6.83
375.319	17.07
375.53	111.27
375.74	78.51
375.951	37.55
376.161	68.27
376.372	72.36
376.582	49.83
376.793	35.5
377.003	-1.37
377.214	27.31
377.424	94.89
377.635	21.16
377.845	10.92
378.055	31.4
378.266	19.11
378.476	0.68
378.686	-7.51
378.897	70.31
379.107	58.03
379.317	72.36
379.528	27.31
379.738	-17.75
379.948	-27.99
380.158	88.75
380.369	88.75
380.579	55.98
380.789	43.69
380.999	0.68
381.21	2.73
381.42	103.08
381.63	19.11
381.84	113.32
382.05	49.83
382.261	49.83
382.471	35.5
382.681	101.03
382.891	17.07
383.101	41.64
383.311	41.64
383.521	66.22
383.731	111.27
383.941	70.31
384.151	76.46
384.361	74.41
384.571	103.08
384.781	45.74
384.991	78.51
385.201	60.07
385.411	-7.51
385.621	21.16
385.831	-11.61
386.041	70.31
386.251	58.03
386.461	47.79
386.671	-7.51
386.881	41.64
387.091	58.03
387.301	15.02
387.511	64.17
387.72	55.98
387.93	17.07
388.14	25.26
388.35	78.51
388.56	129.7
388.769	47.79
388.979	43.69
389.189	39.59
389.399	41.64
389.609	43.69
389.818	86.7
390.028	70.31
390.238	10.92
390.447	105.13
390.657	10.92
390.867	88.75
391.076	19.11
391.286	10.92
391.496	15.02
391.705	41.64
391.915	60.07
392.125	82.6
392.334	64.17
392.544	66.22
392.753	35.5
392.963	0.68
393.172	43.69
393.382	80.55
393.591	131.75
393.801	133.8
394.01	101.03
394.22	12.97
394.429	53.93
394.639	58.03
394.848	137.9
395.058	125.61
395.267	80.55
395.477	94.89
395.686	123.56
395.895	150.18
396.105	82.6
396.314	144.04
396.524	152.23
396.733	64.17
396.942	84.65
397.152	152.23
397.361	152.23
397.57	133.8
397.78	47.79
397.989	84.65
398.198	72.36
398.407	123.56
398.617	10.92
398.826	129.7
399.035	135.85
399.244	47.79
399.453	160.42
399.663	90.79
399.872	62.12
400.081	43.69
400.29	98.99
400.499	10.92
400.708	125.61
400.917	139.94
401.127	78.51
401.336	51.88
401.545	178.86
401.754	84.65
401.963	119.46
402.172	123.56
402.381	96.94
402.59	123.56
402.799	148.14
403.008	141.99
403.217	193.19
403.426	152.23
403.635	98.99
403.844	121.51
404.053	197.29
404.262	182.95
404.471	160.42
404.68	115.37
404.888	174.76
405.097	162.47
405.306	139.94
405.515	182.95
405.724	98.99
405.933	172.71
406.142	115.37
406.35	201.38
406.559	209.58
406.768	156.33
406.977	236.2
407.185	223.91
407.394	203.43
407.603	148.14
407.812	187.05
408.02	252.58
408.229	219.82
408.438	160.42
408.646	205.48
408.855	238.25
409.064	287.4
409.272	260.77
409.481	258.73
409.69	252.58
409.898	256.68
410.107	352.93
410.315	316.07
410.524	322.21
410.733	334.5
410.941	381.6
411.15	357.03
411.358	346.79
411.567	367.27
411.775	389.8
411.984	434.85
412.192	408.23
412.401	397.99
412.609	477.86
412.818	465.57
413.026	455.33
413.234	490.15
413.443	522.91
413.651	549.54
413.86	641.7
414.068	615.07
414.276	623.27
414.485	610.98
414.693	678.56
414.901	750.24
415.11	703.14
415.318	766.62
415.526	746.14
415.734	809.63
415.943	803.49
416.151	854.69
416.359	828.06
416.567	869.02
416.776	918.17
416.984	1055.39
417.192	965.28
417.4	1024.67
417.608	936.6
417.817	1151.64
418.025	1206.94
418.233	1178.26
418.441	1196.7
418.649	1200.79
418.857	1346.2
419.065	1428.12
419.273	1321.62
419.481	1454.74
419.689	1432.21
419.897	1602.19
420.105	1542.8
420.313	1686.16
420.521	1684.11
420.729	1798.8
420.937	1768.08
421.145	1733.26
421.353	2028.17
421.561	1919.63
421.769	2042.51
421.977	2196.11
422.185	2136.71
422.393	2261.64
422.601	2388.61
422.809	2368.13
423.017	2425.48
423.224	2531.97
423.432	2636.42
423.64	2648.71
423.848	2843.26
424.056	2898.56
424.263	3021.44
424.471	3041.92
424.679	3093.12
424.887	3170.94
425.094	3363.45
425.302	3396.21
425.51	3586.68
425.718	3687.03
425.925	3660.4
426.133	3709.55
426.341	4063.85
426.548	4014.7
426.756	4190.83
426.964	4184.68
427.171	4473.45
427.379	4688.48
427.586	4610.66
427.794	4862.56
428.001	5132.89
428.209	5202.52
428.417	5184.09
428.624	5515.86
428.832	5642.84
429.039	5599.83
429.247	5552.73
429.454	6060.62
429.662	6408.78
429.869	5868.11
430.076	6537.8
430.284	6416.97
430.491	6660.68
430.699	7039.55
430.906	7123.52
431.114	7041.6
431.321	7258.68
431.528	7578.17
431.736	7938.61
431.943	8333.87
432.15	8124.97
432.358	8198.7
432.565	8716.84
432.772	8491.56
432.979	9114.14
433.187	9173.53
433.394	9099.81
433.601	9890.32
433.808	9738.77
434.016	9734.68
434.223	10254.86
434.43	10893.83
434.637	10906.12
434.844	11430.4
435.052	11479.55
435.259	11567.61
435.466	11702.78
435.673	11592.19
435.88	12325.36
436.087	12978.66
436.294	12794.34
436.501	12724.71
436.708	12687.85
436.915	13502.94
437.122	13863.38
437.329	13855.19
437.537	14295.5
437.743	14600.65
437.95	14565.84
438.157	15303.11
438.364	15716.79
438.571	15788.47
438.778	15960.5
438.985	17389.99
439.192	16441.78
439.399	17127.85
439.606	16839.08
439.813	17852.83
440.02	18874.76
440.227	18497.94
440.433	18268.56
440.64	19175.81
440.847	18768.27
441.054	19265.92
441.261	20515.19
441.467	20341.11
441.674	20769.13
441.881	21303.65
442.088	21541.22
442.294	20955.5
442.501	21694.82
442.708	22190.42
442.914	22882.64
443.121	24072.51
443.328	23456.07
443.534	24979.76
443.741	24437.05
443.948	23990.59
444.154	26052.89
444.361	26114.33
444.568	26061.08
444.774	25868.58
444.981	26312.99
445.187	27083.02
445.394	28240.12
445.6	28033.28
445.807	30443.74
446.013	29071.6
446.22	29462.76
446.426	30832.85
446.633	31189.2
446.839	32280.77
447.046	30906.58
447.252	32897.2
447.459	32735.42
447.665	32729.27
447.871	34187.43
448.078	35698.83
448.284	33968.29
448.491	34734.23
448.697	35889.29
448.903	36540.54
449.11	36814.97
449.316	36448.38
449.522	36696.19
449.728	37937.26
449.935	38348.9
450.141	38486.11
450.347	39211.09
450.553	37638.25
450.76	38492.26
450.966	39430.22
451.172	39176.28
451.378	40204.36
451.584	39340.11
451.791	39925.83
451.997	40235.08
452.203	40837.18
452.409	41113.66
452.615	40400.96
452.821	39217.24
453.027	38899.8
453.233	40747.07
453.44	39563.34
453.646	39475.28
453.852	39594.06
454.058	40980.54
454.264	39391.31
454.47	40009.8
454.676	39055.45
454.882	40374.34
455.088	37165.17
455.294	37685.36
455.5	38484.06
455.705	38867.03
455.911	37392.5
456.117	36329.6
456.323	36094.08
456.529	34056.35
456.735	35739.79
456.941	34764.95
457.147	33962.15
457.352	33296.56
457.558	32676.02
457.764	32499.9
457.97	31881.41
458.176	31377.61
458.381	31600.84
458.587	29962.47
458.793	30142.69
458.999	28322.04
459.204	30574.81
459.41	29436.14
459.616	27619.59
459.821	27625.73
460.027	27644.16
460.233	26992.91
460.438	25651.49
460.644	25780.51
460.85	24893.74
461.055	24121.66
461.261	24273.21
461.466	22475.09
461.672	22067.55
461.878	23462.21
462.083	21737.82
462.289	21274.98
462.494	21567.84
462.7	20185.46
462.905	19904.89
463.111	20355.44
463.316	20513.14
463.522	19730.81
463.727	20253.05
463.932	19964.28
464.138	19845.5
464.343	20109.69
464.549	19181.96
464.754	19792.25
464.959	20009.34
465.165	19753.34
465.37	18880.91
465.575	18479.5
465.781	19114.38
465.986	19327.36
466.191	18401.68
466.397	18262.42
466.602	17265.06
466.807	18362.77
467.012	18200.98
467.218	17981.85
467.423	17664.41
467.628	17654.17
467.833	18842
468.038	17789.34
468.244	17181.09
468.449	18090.39
468.654	17314.21
468.859	17277.35
469.064	17152.42
469.269	16480.69
469.474	16548.27
469.679	16918.95
469.885	16802.22
470.09	16886.18
470.295	16722.35
470.5	16105.91
470.705	16318.9
470.91	16060.85
471.115	15845.82
471.32	15989.17
471.525	16200.12
471.73	15663.55
471.935	15745.47
472.139	15235.52
472.344	15059.4
472.549	15114.69
472.754	14877.13
472.959	14672.33
473.164	14184.91
473.369	14141.91
473.574	14789.06
473.778	14461.39
473.983	14397.9
474.188	14295.5
474.393	13736.41
474.598	13808.09
474.802	13898.2
475.007	13300.19
475.212	13580.76
475.417	13175.27
475.621	13115.87
475.826	12949.99
476.031	12835.3
476.235	12640.75
476.44	12888.55
476.645	12562.92
476.849	12550.64
477.054	12487.15
477.259	12417.52
477.463	12143.09
477.668	11829.75
477.872	12005.88
478.077	11825.65
478.282	11758.07
478.486	11594.23
478.691	11403.77
478.895	11430.4
479.1	11368.96
479.304	11358.72
479.509	10985.99
479.713	11196.93
479.918	11035.14
480.122	11033.09
480.326	10988.03
480.531	10947.08
480.735	10795.53
480.94	10854.92
481.144	10983.94
481.348	10746.37
481.553	10762.76
481.757	10480.14
481.961	10779.14
482.166	10811.91
482.37	10725.89
482.574	10428.94
482.778	10375.69
482.983	10732.04
483.187	10344.97
483.391	10750.47
483.595	10469.9
483.8	10510.86
484.004	10717.7
484.208	10826.25
484.412	10349.07
484.616	10476.04
484.821	10824.2
485.025	10254.86
485.229	10557.96
485.433	10523.15
485.637	10463.75
485.841	10580.49
486.045	10390.03
486.249	10603.02
486.453	10316.3
486.657	10586.63
486.861	10607.11
487.065	10222.09
487.269	10455.56
487.473	10238.48
487.677	10490.38
487.881	10443.28
488.085	10435.08
488.289	10658.31
488.493	10543.63
488.697	10594.82
488.901	10705.42
489.105	10590.73
489.309	10852.87
489.512	10740.23
489.716	10623.5
489.92	10695.18
490.124	10562.06
490.328	10797.57
490.531	10836.49
490.735	10961.41
490.939	10951.17
491.143	10891.78
491.346	10967.56
491.55	11106.82
491.754	11123.2
491.958	11270.65
492.161	10904.07
492.365	11360.77
492.569	11196.93
492.772	11252.22
492.976	11227.65
493.18	11270.65
493.383	11581.95
493.587	11764.22
493.79	11522.55
493.994	11428.35
494.197	11577.85
494.401	11739.64
494.605	11729.4
494.808	11872.76
495.012	11846.13
495.215	12069.36
495.419	11993.59
495.622	12110.32
495.825	12245.49
496.029	12392.94
496.232	12687.85
496.436	12495.34
496.639	12800.49
496.843	12704.23
497.046	12902.89
497.249	12945.89
497.453	13095.39
497.656	13435.36
497.859	13154.79
498.063	13388.25
498.266	13818.33
498.469	13722.07
498.673	13724.12
498.876	14227.92
499.079	14103
499.282	14281.17
499.485	14541.26
499.689	14694.86
499.892	14844.36
500.095	14842.31
500.298	15292.87
500.501	15309.25
500.705	15399.36
500.908	15632.83
501.111	15802.81
501.314	15944.12
501.517	16034.23
501.72	16298.42
501.923	16325.04
502.126	16730.54
502.329	16810.41
502.532	17211.81
502.735	16996.78
502.938	17322.4
503.141	17230.24
503.344	17844.63
503.547	17754.52
503.75	17944.98
503.953	18508.18
504.156	18389.39
504.359	18567.57
504.562	18622.86
504.765	18919.82
504.968	19192.2
505.17	19480.96
505.373	19513.73
505.576	19765.63
505.779	20062.58
505.982	20027.77
506.185	20732.27
506.387	20621.68
506.59	20842.86
506.793	21231.97
506.996	20887.92
507.198	21821.79
507.401	21477.73
507.604	22055.26
507.807	22497.62
508.009	22192.47
508.212	22499.67
508.415	22800.72
508.617	23083.34
508.82	23079.24
509.022	22993.23
509.225	23859.52
509.428	24103.23
509.63	24119.61
509.833	24017.21
510.035	24473.91
510.238	24932.65
510.44	25162.03
510.643	24914.22
510.845	25569.57
511.048	25479.46
511.25	25878.82
511.453	25999.65
511.655	26890.51
511.858	26562.84
512.06	26841.36
512.262	27040.01
512.465	27212.04
512.667	27795.71
512.87	27711.75
513.072	27724.04
513.274	28369.15
513.477	28514.55
513.679	28502.26
513.881	28973.3
514.084	29561.06
514.286	29417.71
514.488	29565.16
514.69	30300.38
514.893	30392.54
515.095	30236.89
515.297	31006.93
515.499	31135.95
515.701	31289.55
515.904	31807.69
516.106	31678.66
516.308	32030.91
516.51	32319.68
516.712	32100.54
516.914	33110.19
517.116	33441.96
517.318	33224.88
517.52	33646.76
517.722	33566.89
517.925	34025.64
518.127	34367.65
518.329	34496.67
518.531	34900.12
518.733	35084.44
518.935	35805.32
519.136	35362.96
519.338	35872.9
519.54	35954.82
519.742	36372.61
519.944	36673.66
520.146	37410.93
520.348	37199.99
520.55	37367.92
520.752	37580.91
520.954	38105.19
521.155	37795.95
521.357	38549.6
521.559	38738.01
521.761	38967.38
521.963	38951
522.164	39215.19
522.366	39340.11
522.568	40032.33
522.77	40032.33
522.971	40544.32
523.173	39983.18
523.375	40564.8
523.576	40628.29
523.778	40360
523.98	41592.88
524.181	41168.95
524.383	41443.38
524.584	41955.37
524.786	42180.65
524.988	41785.39
525.189	42385.44
525.391	42569.76
525.592	42412.07
525.794	42721.31
525.995	42788.89
526.197	42962.97
526.398	43055.13
526.6	43391
526.801	43796.49
527.003	43571.22
527.204	43874.32
527.406	44085.26
527.607	44259.34
527.808	44843.01
528.01	43651.09
528.211	44351.49
528.412	44707.84
528.614	45053.95
528.815	44283.91
529.016	45131.77
529.218	44576.77
529.419	45090.81
529.62	44994.56
529.822	45131.77
530.023	45189.11
530.224	45443.06
530.425	44959.74
530.626	45160.44
530.828	44845.05
531.029	46118.89
531.23	45400.05
531.431	45705.2
531.632	45602.8
531.833	45871.09
532.035	45746.16
532.236	45864.94
532.437	46102.51
532.638	45443.06
532.839	46219.24
533.04	46024.68
533.241	45510.64
533.442	46649.31
533.643	46075.88
533.844	46073.84
534.045	46260.2
534.246	45754.35
534.447	46399.46
534.648	45907.95
534.849	46305.26
535.05	46028.78
535.251	46063.6
535.451	45762.54
535.652	46622.69
535.853	46430.18
536.054	46102.51
536.255	46553.06
536.456	45746.16
536.657	46807.01
536.857	46237.67
537.058	45598.71
537.259	46045.16
537.46	46407.65
537.66	45848.56
537.861	46546.92
538.062	46112.75
538.263	46462.95
538.463	46229.48
538.664	46186.47
538.865	46333.93
539.065	46303.21
539.266	45989.87
539.466	46471.14
539.667	45565.94
539.868	46911.45
540.068	46022.64
540.269	46065.64
540.469	46122.99
540.67	46323.69
540.87	46133.23
541.071	46157.8
541.271	46618.6
541.472	45946.86
541.672	45819.89
541.873	46028.78
542.073	45815.79
542.274	46258.15
542.474	46098.41
542.675	45811.7
542.875	46165.99
543.075	45717.49
543.276	45551.6
543.476	46141.42
543.676	45647.86
543.877	46159.85
544.077	46014.44
544.277	45785.07
544.478	45742.06
544.678	45850.61
544.878	46045.16
545.078	45910
545.279	45762.54
545.479	45582.32
545.679	46370.79
545.879	45676.53
546.079	46002.16
546.28	45963.25
546.48	45572.08
546.68	46079.98
546.88	45672.43
547.08	46153.71
547.28	45570.04
547.48	45314.04
547.68	45404.15
547.88	45172.73
548.081	45758.45
548.281	45658.1
548.481	45762.54
548.681	45914.09
548.881	45905.9
549.081	45516.79
549.28	45803.5
549.48	45668.34
549.68	45770.74
549.88	46309.35
550.08	45078.52
550.28	45680.63
550.48	45742.06
550.68	46196.71
550.88	45725.68
551.08	45649.91
551.279	45672.43
551.479	45375.48
551.679	45649.91
551.879	45508.6
552.079	45465.59
552.278	45557.75
552.478	45694.96
552.678	44943.36
552.878	45635.57
553.077	44963.84
553.277	45084.67
553.477	46137.32
553.676	45197.3
553.876	45590.51
554.076	45369.33
554.275	44978.17
554.475	45258.74
554.674	44990.46
554.874	45395.96
555.074	45516.79
555.273	45305.85
555.473	45187.07
555.672	44908.54
555.872	45168.63
556.071	45182.97
556.271	45346.81
556.47	45129.72
556.67	44912.64
556.869	44953.6
557.068	45148.15
557.268	44750.85
557.467	44969.98
557.667	44869.63
557.866	44546.05
558.065	44810.24
558.265	44470.28
558.464	44451.84
558.663	44996.6
558.863	43964.43
559.062	44843.01
559.261	44539.91
559.461	44644.35
559.66	44314.63
559.859	44226.57
560.058	44304.39
560.258	44453.89
560.457	43894.8
560.656	44324.87
560.855	43946
561.054	44361.73
561.253	44118.03
561.453	44075.02
561.652	44441.6
561.851	44163.08
562.05	43702.29
562.249	43702.29
562.448	44394.5
562.647	43821.07
562.846	44238.86
563.045	43446.29
563.244	43431.96
563.443	43845.65
563.642	42965.02
563.841	43769.87
564.04	43257.88
564.239	43692.05
564.438	42919.96
564.637	43218.97
564.836	43067.42
565.035	42821.66
565.234	43403.28
565.432	42942.49
565.631	42481.7
565.83	43247.64
566.029	42686.5
566.228	42590.24
566.427	42670.11
566.625	42577.95
566.824	42158.12
567.023	42387.49
567.222	41941.03
567.42	43098.14
567.619	42186.79
567.818	42563.62
568.016	42070.06
568.215	42819.61
568.414	42319.91
568.612	42332.2
568.811	41922.6
569.01	41609.26
569.208	41527.35
569.407	42203.17
569.605	41556.02
569.804	42184.74
570.002	41244.73
570.201	41691.18
570.4	41549.87
570.598	41297.97
570.797	41039.93
570.995	41171
571.193	40804.41
571.392	41197.62
571.59	40482.88
571.789	41084.98
571.987	40228.93
572.186	40667.2
572.384	40558.66
572.582	40601.66
572.781	40745.02
572.979	40292.42
573.177	40523.84
573.376	40589.38
573.574	40208.45
573.772	40087.62
573.971	39964.74
574.169	39669.84
574.367	39940.17
574.565	40083.53
574.763	39675.98
574.962	39704.65
575.16	39293.01
575.358	39598.16
575.556	38875.23
575.754	39690.32
575.952	39491.66
576.151	39202.9
576.349	38932.57
576.547	39000.15
576.745	39034.97
576.943	39159.89
577.141	38901.85
577.339	38817.88
577.537	38649.95
577.735	38469.73
577.933	38033.51
578.131	38459.49
578.329	38686.81
578.527	38269.03
578.725	38477.92
578.923	38393.95
579.121	38226.02
579.319	38266.98
579.516	38148.2
579.714	37822.57
579.912	37554.29
580.11	37578.86
580.308	37638.25
580.506	37955.69
580.704	36933.75
580.901	37570.67
581.099	37609.58
581.297	37052.53
581.495	37263.47
581.692	37429.36
581.89	36765.82
582.088	37333.1
582.285	36550.78
582.483	36974.71
582.681	36894.84
582.878	36526.21
583.076	36376.7
583.274	36638.84
583.471	36323.46
583.669	36442.24
583.866	36014.21
584.064	36331.65
584.262	35997.83
584.459	36540.54
584.657	35965.06
584.854	35965.06
585.052	35756.17
585.249	36210.82
585.447	35410.06
585.644	35215.51
585.841	35670.15
586.039	35543.18
586.236	35268.75
586.434	34906.26
586.631	35223.7
586.828	34908.31
587.026	35293.33
587.223	34973.85
587.42	34578.59
587.618	35033.24
587.815	34300.06
588.012	34361.5
588.21	34224.29
588.407	34355.36
588.604	34224.29
588.801	34085.03
588.999	34013.35
589.196	34168.99
589.393	34132.13
589.59	33962.15
589.787	33984.68
589.984	33818.79
590.182	33188.02
590.379	33880.23
590.576	33663.15
590.773	33468.59
590.97	33429.68
591.167	33519.79
591.364	33153.2
591.561	32841.91
591.758	32442.56
591.955	32694.46
592.152	32817.33
592.349	32657.59
592.546	32682.17
592.743	32379.07
592.94	32202.94
593.137	32530.62
593.334	32250.05
593.531	32319.68
593.727	32125.12
593.924	32207.04
594.121	31563.98
594.318	31996.1
594.515	31420.62
594.712	31799.49
594.908	31502.54
595.105	31660.23
595.302	31228.11
595.499	31328.46
595.696	31275.21
595.892	31094.99
596.089	31279.31
596.286	30974.16
596.482	30808.28
596.679	30855.38
596.876	31129.81
597.072	30595.29
597.269	30965.97
597.466	30595.29
597.662	30642.39
597.859	30316.76
598.055	30359.77
598.252	30177.5
598.448	30148.83
598.645	30114.02
598.841	29665.51
599.038	30001.38
599.234	30103.78
599.431	29245.68
599.627	29427.95
599.824	29636.84
600.02	29475.05
600.217	29647.08
600.413	29425.9
600.609	29159.66
600.806	28993.78
601.002	29249.77
601.198	28784.88
601.395	28926.19
601.591	28657.91
601.787	28586.23
601.984	28412.15
602.18	28721.4
602.376	28274.94
602.572	28311.8
602.769	28295.42
602.965	28147.97
603.161	28412.15
603.357	28285.18
603.553	28190.97
603.75	28174.59
603.946	27922.69
604.142	27681.03
604.338	27207.95
604.534	27793.67
604.73	27681.03
604.926	27699.46
605.122	27646.21
605.318	27259.15
605.514	27218.19
605.71	27171.08
605.906	27050.25
606.102	27013.39
606.298	27121.93
606.494	27060.49
606.69	26822.93
606.886	26958.1
607.082	26751.25
607.278	26939.66
607.474	26632.47
607.67	27113.74
607.866	26444.06
608.062	26736.91
608.257	26335.51
608.453	26575.13
608.649	26540.31
608.845	26616.08
609.041	26292.51
609.236	26411.29
609.432	25964.83
609.628	26499.35
609.824	26122.52
610.019	25919.78
610.215	26016.03
610.411	26286.36
610.606	25430.31
610.802	25768.23
610.998	25780.51
611.193	25450.79
611.389	25516.33
611.584	25524.52
611.78	25315.62
611.976	25712.93
612.171	25119.02
612.367	25325.86
612.562	25127.21
612.758	25452.84
612.953	25291.05
613.149	25557.28
613.344	24910.13
613.539	25413.93
613.735	25256.23
613.93	25526.57
614.126	24867.12
614.321	25272.62
614.517	25164.07
614.712	25049.39
614.907	24514.87
615.103	25227.56
615.298	24602.93
615.493	24996.14
615.688	24553.78
615.884	24961.33
616.079	24854.83
616.274	24975.66
616.47	24865.07
616.665	24449.33
616.86	24924.46
617.055	24406.33
617.25	24217.91
617.445	24713.52
617.641	24082.75
617.836	24267.06
618.031	24074.56
618.226	23953.73
618.421	23963.97
618.616	24635.7
618.811	23705.92
619.006	24066.36
619.201	23621.95
619.396	23521.6
619.591	23292.23
619.786	23626.05
619.981	23202.12
620.176	23734.59
620.371	23058.76
620.566	23529.8
620.761	22804.81
620.956	23335.24
621.151	22753.62
621.346	23089.48
621.541	22376.79
621.735	22806.86
621.93	22339.93
622.125	22583.63
622.32	21965.15
622.515	22346.07
622.709	21936.48
622.904	21872.99
623.099	21784.93
623.294	21551.46
623.488	21469.54
623.683	21719.39
623.878	21367.14
624.072	21281.13
624.267	21526.88
624.462	21082.47
624.656	20863.34
624.851	20896.11
625.046	20746.61
625.24	20734.32
625.435	20506.99
625.629	20517.23
625.824	20298.1
626.018	20521.33
626.213	20205.94
626.407	20132.22
626.602	19788.16
626.796	19990.91
626.991	19734.91
627.185	19591.55
627.38	19585.41
627.574	19528.06
627.768	19351.94
627.963	19345.8
628.157	19100.04
628.352	18983.31
628.546	18903.43
628.74	19071.37
628.935	18729.36
629.129	18645.39
629.323	18319.76
629.517	18305.43
629.712	18373.01
629.906	18221.46
630.1	18069.91
630.294	17959.32
630.489	17893.79
630.683	18129.3
630.877	17789.34
631.071	17492.38
631.265	17498.53
631.459	17365.41
631.653	17281.44
631.848	17244.58
632.042	17246.63
632.236	17060.26
632.43	16847.27
632.624	17113.51
632.818	16818.6
633.012	16761.26
633.206	16759.21
633.4	16925.1
633.594	16413.1
633.788	16685.48
633.982	16419.25
634.176	16583.09
634.369	16366
634.563	16130.48
634.757	16150.96
634.951	16310.71
635.145	15931.83
635.339	15956.41
635.533	15448.51
635.726	15696.32
635.92	15270.34
636.114	15622.59
636.308	15413.7
636.501	15305.15
636.695	15342.02
636.889	15180.23
637.083	15065.54
637.276	15069.64
637.47	14873.03
637.664	14969.29
637.857	14860.74
638.051	14930.37
638.244	14889.42
638.438	14692.81
638.632	14600.65
638.825	14336.46
639.019	14440.91
639.212	14369.23
639.406	14242.26
639.599	14215.63
639.793	14268.88
639.986	14121.43
640.18	14002.64
640.373	13861.34
640.567	13670.87
640.76	14033.36
640.954	13519.32
641.147	13582.81
641.34	13531.61
641.534	13476.32
641.727	13416.93
641.92	13384.16
642.114	13369.82
642.307	13216.22
642.5	13251.04
642.694	13033.96
642.887	12784.1
643.08	13160.93
643.273	12866.02
643.467	12945.89
643.66	12763.62
643.853	12593.64
644.046	12663.27
644.239	12599.79
644.432	12433.9
644.626	12403.18
644.819	12505.58
645.012	12503.53
645.205	12542.44
645.398	12325.36
645.591	12208.62
645.784	12218.86
645.977	11903.48
646.17	12028.4
646.363	11848.18
646.556	11790.84
646.749	12007.92
646.942	11778.55
647.135	11735.54
647.328	11780.6
647.521	11547.13
647.714	11487.74
647.907	11602.43
648.099	11479.55
648.292	11538.94
648.485	11411.96
648.678	11438.59
648.871	11241.98
649.064	11049.47
649.256	11198.98
649.449	11006.47
649.642	11123.2
649.835	10844.68
650.027	10889.73
650.22	10953.22
650.413	10703.37
650.605	10684.94
650.798	10484.23
650.991	10689.03
651.183	10557.96
651.376	10383.88
651.568	10437.13
651.761	10619.4
651.954	10187.28
652.146	10527.24
652.339	9974.29
652.531	10072.59
652.724	10230.29
652.916	9935.38
653.109	10109.46
653.301	9976.34
653.494	9994.77
653.686	9736.73
653.879	9724.44
654.071	9634.33
654.263	9673.24
654.456	9689.62
654.648	9886.23
654.84	9490.97
655.033	9509.4
655.225	9525.79
655.417	9302.56
655.61	9488.92
655.802	9376.28
655.994	9261.6
656.186	9081.38
656.379	9286.17
656.571	9060.9
656.763	8829.48
656.955	9099.81
657.148	8858.15
657.34	8833.57
657.532	9046.56
657.724	8854.05
657.916	8761.89
658.108	8765.99
658.3	8608.3
658.492	8917.54
658.684	8567.34
658.876	8509.99
659.068	8532.52
659.26	8501.8
659.452	8593.96
659.644	8335.92
659.836	8325.68
660.028	8491.56
660.22	8139.31
660.412	8352.3
660.604	8225.33
660.796	8104.49
660.988	8043.06
661.18	8049.2
661.372	7938.61
661.563	8030.77
661.755	7911.99
661.947	7889.46
662.139	7744.05
662.331	7860.79
662.522	7762.48
662.714	7813.68
662.906	7608.89
663.097	7637.56
663.289	7676.47
663.481	7365.18
663.673	7580.22
663.864	7498.3
664.056	7350.84
664.247	7291.45
664.439	7572.02
664.631	7524.92
664.822	7402.04
665.014	7293.5
665.205	7176.77
665.397	7262.78
665.588	7027.26
665.78	7092.8
665.971	7215.68
666.163	7094.85
666.354	7057.98
666.546	7201.34
666.737	6961.73
666.929	6883.91
667.12	7201.34
667.311	7119.42
667.503	6814.27
667.694	6842.95
667.885	6914.63
668.077	6931.01
668.268	6779.46
668.459	6724.16
668.651	6718.02
668.842	6505.03
669.033	6552.13
669.224	6474.31
669.416	6599.24
669.607	6541.89
669.798	6421.06
669.989	6439.5
670.18	6427.21
670.371	6298.19
670.563	6343.24
670.754	6347.34
670.945	6355.53
671.136	6326.86
671.327	6261.32
671.518	6062.67
671.709	6077.01
671.9	6335.05
672.091	6273.61
672.282	6097.49
672.473	6013.52
672.664	6154.83
672.855	5933.65
673.046	6079.05
673.237	6206.03
673.428	5952.08
673.619	5941.84
673.809	5952.08
674	5888.59
674.191	5843.54
674.382	5667.41
674.573	5814.87
674.764	5831.25
674.954	6036.05
675.145	5993.04
675.336	5913.17
675.527	5775.95
675.717	5794.39
675.908	5726.8
676.099	5718.61
676.289	5581.4
676.48	5642.84
676.671	5558.87
676.861	5644.88
677.052	5501.53
677.243	5454.42
677.433	5638.74
677.624	5429.85
677.814	5515.86
678.005	5417.56
678.195	5403.22
678.386	5505.62
678.576	5479
678.767	5464.66
678.957	5374.55
679.148	5382.74
679.338	5288.54
679.529	5218.91
679.719	5319.26
679.909	5186.14
680.1	5253.72
680.29	5368.41
680.481	5188.19
680.671	5165.66
680.861	5225.05
681.052	5096.03
681.242	5212.76
681.432	5241.43
681.622	5028.45
681.813	5284.44
682.003	5100.12
682.193	5120.6
682.383	5018.21
682.573	5075.55
682.764	5085.79
682.954	5003.87
683.144	5044.83
683.334	4921.95
683.524	5116.51
683.714	5079.65
683.904	5016.16
684.094	4942.43
684.284	4823.65
684.474	4917.86
684.664	4762.21
684.854	4868.7
685.044	4870.75
685.234	4778.59
685.424	4831.84
685.614	4823.65
685.804	4770.4
685.994	4725.35
686.184	4688.48
686.374	4690.53
686.564	4715.11
686.753	4547.17
686.943	4618.85
687.133	4563.56
687.323	4690.53
687.513	4491.88
687.702	4469.35
687.892	4487.78
688.082	4440.68
688.272	4504.17
688.461	4418.15
688.651	4512.36
688.841	4336.23
689.03	4543.08
689.22	4287.08
689.41	4268.65
689.599	4282.99
689.789	4223.59
689.979	4319.85
690.168	4268.65
690.358	4242.03
690.547	4207.21
690.737	4153.96
690.926	4131.44
691.116	4084.33
691.305	4033.13
691.495	4156.01
691.684	4094.57
691.874	4035.18
692.063	3938.93
692.252	3865.2
692.442	4049.52
692.631	3900.02
692.82	3990.13
693.01	3889.78
693.199	3793.52
693.388	3861.1
693.578	3859.06
693.767	3926.64
693.956	3764.85
694.146	3762.8
694.335	3711.6
694.524	3840.62
694.713	3721.84
694.902	3721.84
695.092	3762.8
695.281	3758.71
695.47	3768.95
695.659	3689.07
695.848	3619.44
696.037	3639.92
696.226	3734.13
696.415	3578.48
696.604	3725.94
696.793	3742.32
696.982	3703.41
697.171	3719.79
697.36	3537.52
697.549	3519.09
697.738	3502.71
697.927	3455.61
698.116	3629.68
698.305	3433.08
698.494	3523.19
698.683	3447.41
698.872	3543.67
699.061	3340.92
699.25	3412.6
699.438	3529.33
699.627	3383.93
699.816	3435.13
700.005	3394.17
700.193	3406.45
700.382	3328.63
700.571	3420.79
700.76	3226.23
700.948	3482.23
701.137	3359.35
701.326	3285.62
701.514	3455.61
701.703	3261.05
701.892	3359.35
702.08	3330.68
702.269	3402.36
702.457	3390.07
702.646	3306.1
702.834	3369.59
703.023	3394.17
703.212	3269.24
703.4	3381.88
703.589	3332.73
703.777	3340.92
703.965	3342.97
704.154	3185.27
704.342	3238.52
704.531	3261.05
704.719	3207.8
704.907	3289.72
705.096	3127.93
705.284	3179.13
705.472	3148.41
705.661	3230.33
705.849	3297.91
706.037	3246.71
706.226	3211.9
706.414	3211.9
706.602	3168.89
706.79	3283.58
706.979	3113.6
707.167	3132.03
707.355	3039.87
707.543	3156.6
707.731	3107.45
707.919	3072.64
708.107	3058.3
708.296	3166.84
708.484	3031.68
708.672	3238.52
708.86	3109.5
709.048	3091.07
709.236	3215.99
709.424	3154.55
709.612	3074.68
709.8	3220.09
709.988	3109.5
710.176	3138.17
710.364	3023.48
710.551	3158.65
710.739	3023.48
710.927	3097.21
711.115	3056.25
711.303	3074.68
711.491	3091.07
711.679	3129.98
711.866	3027.58
712.054	3097.21
712.242	3009.15
712.43	3021.44
712.617	3023.48
712.805	2943.61
712.993	3043.96
713.181	3070.59
713.368	3107.45
713.556	3003
713.744	3013.24
713.931	2988.67
714.119	3000.96
714.306	3041.92
714.494	3084.92
714.682	2947.71
714.869	3046.01
715.057	3099.26
715.244	3050.11
715.432	3101.31
715.619	3105.4
715.807	3039.87
715.994	2990.72
716.182	2953.85
716.369	3091.07
716.556	3095.16
716.744	3015.29
716.931	2896.51
717.119	2964.09
717.306	2976.38
717.493	3086.97
717.681	2921.09
717.868	3015.29
718.055	2966.14
718.242	2890.37
718.43	2923.13
718.617	2980.48
718.804	2980.48
718.991	2966.14
719.179	2916.99
719.366	2980.48
719.553	2876.03
719.74	2837.12
719.927	3029.63
720.114	2869.89
720.301	2884.22
720.488	2810.5
720.676	2873.98
720.863	2931.33
721.05	2900.61
721.237	2941.57
721.424	2900.61
721.611	2955.9
721.798	2869.89
721.985	2910.85
722.172	2861.69
722.358	2794.11
722.545	2814.59
722.732	2939.52
722.919	2980.48
723.106	2804.35
723.293	2953.85
723.48	2873.98
723.667	2980.48
723.853	2867.84
724.04	3000.96
724.227	2847.36
724.414	2927.23
724.6	2769.54
724.787	2894.46
724.974	2898.56
725.161	2855.55
725.347	2730.62
725.534	2790.02
725.72	2824.83
725.907	2808.45
726.094	2767.49
726.28	3056.25
726.467	2771.58
726.653	2833.02
726.84	2863.74
727.027	2849.41
727.213	2861.69
727.4	2849.41
727.586	2808.45
727.773	2814.59
727.959	2853.5
728.145	2880.13
728.332	2863.74
728.518	2812.54
728.705	2923.13
728.891	2845.31
729.077	2785.92
729.264	2767.49
729.45	2757.25
729.636	2931.33
729.823	2820.74
730.009	2818.69
730.195	2732.67
730.382	2896.51
730.568	2826.88
730.754	2775.68
730.94	2863.74
731.126	2923.13
731.313	2921.09
731.499	2837.12
731.685	2785.92
731.871	2632.32
732.057	2759.3
732.243	2871.93
732.429	2785.92
732.615	2814.59
732.801	2816.64
732.987	2648.71
733.173	2763.39
733.359	2724.48
733.545	2824.83
733.731	2757.25
733.917	2669.19
734.103	2769.54
734.289	2878.08
734.475	2841.22
734.661	2749.06
734.847	2753.15
735.033	2738.82
735.219	2751.1
735.404	2636.42
735.59	2724.48
735.776	2734.72
735.962	2792.06
736.148	2726.53
736.333	2845.31
736.519	2769.54
736.705	2726.53
736.89	2595.46
737.076	2771.58
737.262	2615.94
737.447	2708.1
737.633	2568.84
737.819	2753.15
738.004	2589.32
738.19	2673.28
738.375	2642.56
738.561	2695.81
738.747	2712.19
738.932	2646.66
739.118	2744.96
739.303	2642.56
739.489	2685.57
739.674	2706.05
739.859	2626.18
740.045	2613.89
740.23	2583.17
740.416	2581.12
740.601	2669.19
740.786	2640.51
740.972	2669.19
741.157	2589.32
741.342	2534.02
741.528	2423.43
741.713	2648.71
741.898	2562.69
742.084	2480.77
742.269	2523.78
742.454	2556.55
742.639	2597.51
742.824	2470.53
743.01	2544.26
743.195	2466.44
743.38	2538.12
743.565	2415.24
743.75	2572.93
743.935	2519.68
744.12	2493.06
744.305	2427.53
744.49	2443.91
744.675	2400.9
744.86	2337.41
745.045	2302.6
745.23	2353.8
745.415	2374.28
745.6	2341.51
745.785	2333.32
745.97	2347.65
746.155	2372.23
746.34	2325.13
746.525	2321.03
746.71	2351.75
746.895	2189.96
747.079	2222.73
747.264	2394.76
747.449	2142.86
747.634	2140.81
747.819	2163.34
748.003	2169.48
748.188	2116.23
748.373	2249.35
748.557	2122.38
748.742	2077.32
748.927	2155.15
749.111	2112.14
749.296	2118.28
749.481	2001.55
749.665	2030.22
749.85	1929.87
750.034	2089.61
750.219	2149
750.404	2054.8
750.588	1987.21
750.773	1825.42
750.957	2058.89
751.141	1788.56
751.326	1976.97
751.51	1913.49
751.695	1901.2
751.879	1862.29
752.064	1956.49
752.248	1923.73
752.432	1921.68
752.617	1802.9
752.801	1905.29
752.985	1802.9
753.17	1850
753.354	1796.75
753.538	1794.7
753.722	1753.74
753.907	1696.4
754.091	1684.11
754.275	1800.85
754.459	1741.46
754.643	1735.31
754.828	1688.21
755.012	1778.32
755.196	1766.03
755.38	1598.1
755.564	1667.73
755.748	1661.59
755.932	1700.5
756.116	1632.91
756.3	1561.23
756.484	1524.37
756.668	1604.24
756.852	1462.93
757.036	1620.63
757.22	1645.2
757.404	1524.37
757.588	1507.99
757.772	1565.33
757.956	1557.14
758.14	1454.74
758.323	1512.08
758.507	1575.57
758.691	1499.8
758.875	1430.16
759.059	1505.94
759.242	1514.13
759.426	1434.26
759.61	1295
759.794	1471.12
759.977	1432.21
760.161	1428.12
760.345	1323.67
760.528	1542.8
760.712	1292.95
760.895	1243.8
761.079	1256.09
761.263	1254.04
761.446	1278.62
761.63	1305.24
761.813	1301.14
761.997	1366.68
762.18	1213.08
762.364	1342.1
762.547	1272.47
762.731	1229.46
762.914	1350.29
763.098	1301.14
763.281	1225.37
763.464	1215.13
763.648	1159.83
763.831	1198.74
764.015	1344.15
764.198	1223.32
764.381	1249.94
764.564	1217.18
764.748	1262.23
764.931	1270.42
765.114	1272.47
765.297	1194.65
765.481	1157.78
765.664	1116.83
765.847	1200.79
766.03	1262.23
766.213	1116.83
766.397	1192.6
766.58	1053.34
766.763	1133.21
766.946	1176.22
767.129	1096.35
767.312	1092.25
767.495	1045.15
767.678	1157.78
767.861	1116.83
768.044	1145.5
768.227	1094.3
768.41	1069.72
768.593	1143.45
768.776	1075.87
768.959	1082.01
769.142	1129.11
769.324	1077.91
769.507	1043.1
769.69	1049.24
769.873	1120.92
770.056	1086.11
770.239	1026.71
770.421	1055.39
770.604	1008.28
770.787	1004.19
770.97	1084.06
771.152	1057.43
771.335	969.37
771.518	938.65
771.7	1114.78
771.883	1131.16
772.066	926.36
772.248	1032.86
772.431	1061.53
772.613	1020.57
772.796	942.75
772.978	948.89
773.161	944.8
773.343	909.98
773.526	961.18
773.708	895.64
773.891	869.02
774.073	901.79
774.256	864.93
774.438	948.89
774.621	842.4
774.803	887.45
774.985	832.16
775.168	858.78
775.35	795.29
775.532	944.8
775.715	912.03
775.897	768.67
776.079	862.88
776.261	1000.09
776.444	844.45
776.626	875.17
776.808	813.73
776.99	879.26
777.173	778.91
777.355	885.41
777.537	766.62
777.719	819.87
777.901	762.53
778.083	785.05
778.265	768.67
778.447	809.63
778.629	719.52
778.811	817.82
778.993	797.34
779.175	674.46
779.357	699.04
779.539	705.18
779.721	721.57
779.903	686.75
780.085	780.96
780.267	631.46
780.449	621.22
780.631	774.81
780.812	686.75
780.994	678.56
781.176	721.57
781.358	653.98
781.54	660.13
781.721	641.7
781.903	664.22
782.085	651.94
782.267	703.14
782.448	680.61
782.63	660.13
782.812	643.74
782.993	729.76
783.175	643.74
783.357	613.03
783.538	559.78
783.72	606.88
783.901	635.55
784.083	576.16
784.264	508.58
784.446	555.68
784.627	608.93
784.809	539.3
784.99	490.15
785.172	578.21
785.353	604.83
785.535	506.53
785.716	486.05
785.897	565.92
786.079	502.43
786.26	598.69
786.441	567.97
786.623	537.25
786.804	578.21
786.985	400.04
787.167	524.96
787.348	539.3
787.529	524.96
787.71	586.4
787.891	551.59
788.073	488.1
788.254	479.91
788.435	488.1
788.616	443.04
788.797	393.89
788.978	457.38
789.159	416.42
789.34	516.77
789.522	342.69
789.703	467.62
789.884	408.23
790.065	471.72
790.246	492.2
790.427	422.56
790.607	494.24
790.788	488.1
790.969	471.72
791.15	385.7
791.331	490.15
791.512	393.89
791.693	289.45
791.874	424.61
792.054	459.43
792.235	465.57
792.416	387.75
792.597	408.23
792.778	414.37
792.958	383.65
793.139	408.23
793.32	459.43
793.5	344.74
793.681	430.76
793.862	387.75
794.042	344.74
794.223	305.83
794.404	320.17
794.584	311.97
794.765	367.27
794.945	348.84
795.126	391.84
795.306	412.32
795.487	359.08
795.667	344.74
795.848	334.5
796.028	395.94
796.209	361.13
796.389	354.98
796.57	363.17
796.75	324.26
796.93	305.83
797.111	375.46
797.291	381.6
797.471	291.49
797.652	242.34
797.832	361.13
798.012	338.6
798.192	283.3
798.373	225.96
798.553	275.11
798.733	318.12
798.913	334.5
799.093	271.01
799.274	322.21
799.454	320.17
799.634	283.3
799.814	275.11
799.994	359.08
800.174	330.41
800.354	268.97
800.534	314.02
800.714	260.77
800.894	334.5
801.074	309.93
801.254	244.39
801.434	254.63
801.614	230.06
801.794	287.4
801.974	592.55
802.154	318.12
802.334	289.45
802.514	168.62
802.693	346.79
802.873	217.77
803.053	297.64
803.233	262.82
803.413	299.69
803.592	289.45
803.772	203.43
803.952	285.35
804.131	205.48
804.311	242.34
804.491	314.02
804.67	195.24
804.85	225.96
805.03	289.45
805.209	240.29
805.389	178.86
805.568	289.45
805.748	236.2
805.928	246.44
806.107	189.1
806.287	303.78
806.466	225.96
806.646	271.01
806.825	221.86
807.004	293.54
807.184	254.63
807.363	254.63
807.543	225.96
807.722	234.15
807.901	180.9
808.081	244.39
808.26	127.66
808.439	174.76
808.619	195.24
808.798	156.33
808.977	121.51
809.156	207.53
809.336	168.62
809.515	150.18
809.694	240.29
809.873	148.14
810.052	244.39
810.231	201.38
810.411	314.02
810.59	209.58
810.769	217.77
810.948	156.33
811.127	160.42
811.306	133.8
811.485	207.53
811.664	262.82
811.843	211.62
812.022	141.99
812.201	141.99
812.38	221.86
812.559	131.75
812.737	189.1
812.916	209.58
813.095	156.33
813.274	137.9
813.453	166.57
813.632	213.67
813.811	137.9
813.989	152.23
814.168	88.75
814.347	74.41
814.526	88.75
814.704	154.28
814.883	256.68
815.062	109.22
815.24	152.23
815.419	98.99
815.598	115.37
815.776	170.66
815.955	180.9
816.133	150.18
816.312	215.72
816.49	105.13
816.669	164.52
816.847	127.66
817.026	178.86
817.204	96.94
817.383	146.09
817.561	125.61
817.74	125.61
817.918	107.18
818.097	197.29
818.275	164.52
818.453	125.61
818.632	185
818.81	105.13
818.988	121.51
819.167	160.42
819.345	154.28
819.523	176.81
819.701	115.37
819.879	80.55
820.058	117.42
820.236	105.13
820.414	139.94
820.592	86.7
820.77	109.22
820.948	127.66
821.127	141.99
821.305	127.66
821.483	58.03
821.661	230.06
821.839	174.76
822.017	141.99
822.195	94.89
822.373	193.19
822.551	129.7
822.729	127.66
822.907	191.14
823.085	158.38
823.262	51.88
823.44	119.46
823.618	70.31
823.796	107.18
823.974	141.99
824.152	178.86
824.329	133.8
824.507	176.81
824.685	96.94
824.863	82.6
825.04	82.6
825.218	92.84
825.396	148.14
825.574	96.94
825.751	23.21
825.929	135.85
826.107	90.79
826.284	111.27
826.462	94.89
826.639	125.61
826.817	90.79
826.994	125.61
827.172	115.37
827.349	115.37
827.527	88.75
827.704	43.69
827.882	96.94
828.059	43.69
828.237	141.99
828.414	96.94
828.591	8.87
828.769	105.13
828.946	82.6
829.124	127.66
829.301	152.23
829.478	47.79
829.655	80.55
829.833	37.55
830.01	64.17
830.187	131.75
830.364	62.12
830.542	74.41
830.719	121.51
830.896	49.83
831.073	101.03
831.25	146.09
831.427	101.03
831.604	72.36
831.782	51.88
831.959	98.99
832.136	43.69
832.313	51.88
832.49	60.07
832.667	109.22
832.844	25.26
833.021	62.12
833.198	45.74
833.374	74.41
833.551	82.6
833.728	105.13
833.905	117.42
834.082	88.75
834.259	90.79
834.436	127.66
834.612	-5.46
834.789	53.93
834.966	66.22
835.143	70.31
835.319	41.64
835.496	76.46
835.673	4.78
835.85	115.37
836.026	58.03
836.203	107.18
836.38	96.94
836.556	119.46
836.733	66.22
836.909	62.12
837.086	31.4
837.262	72.36
837.439	64.17
837.616	-17.75
837.792	164.52
837.968	64.17
838.145	49.83
838.321	62.12
838.498	86.7
838.674	-25.94
838.851	72.36
839.027	96.94
839.203	10.92
839.38	80.55
839.556	80.55
839.732	152.23
839.909	47.79
840.085	60.07
840.261	-7.51
840.437	17.07
840.614	31.4
840.79	119.46
840.966	90.79
841.142	86.7
841.318	10.92
841.494	17.07
841.671	82.6
841.847	98.99
842.023	86.7
842.199	23.21
842.375	90.79
842.551	35.5
842.727	49.83
842.903	88.75
843.079	12.97
843.255	47.79
843.431	15.02
843.607	58.03
843.783	-13.65
843.959	84.65
844.134	-3.41
844.31	156.33
844.486	60.07
844.662	117.42
844.838	35.5
845.013	51.88
845.189	113.32
845.365	-3.41
845.541	12.97
845.716	51.88
845.892	17.07
846.068	66.22
846.244	-3.41
846.419	84.65
846.595	6.83
846.77	105.13
846.946	94.89
847.122	33.45
847.297	55.98
847.473	64.17
847.648	-15.7
847.824	-36.18
847.999	41.64
848.175	60.07
848.35	72.36
848.526	60.07
848.701	-13.65
848.876	27.31
849.052	41.64
849.227	47.79
849.403	-46.42
849.578	31.4
849.753	29.35
849.929	25.26
850.104	-50.52
850.279	4.78
850.454	47.79
850.63	156.33
850.805	-46.42
850.98	4.78
851.155	37.55
851.33	53.93
851.505	-48.47
851.681	66.22
851.856	12.97
852.031	94.89
852.206	47.79
852.381	-25.94
852.556	-1.37
852.731	15.02
852.906	74.41
853.081	37.55
853.256	12.97
853.431	-3.41
853.606	25.26
853.781	51.88
853.956	31.4
854.131	8.87
854.305	-36.18
854.48	45.74
854.655	-3.41
854.83	-13.65
855.005	4.78
855.18	-3.41
855.354	23.21
855.529	25.26
855.704	15.02
855.879	19.11
856.053	23.21
856.228	-7.51
856.403	49.83
856.577	29.35
856.752	60.07
856.926	55.98
857.101	55.98
857.276	-30.04
857.45	2.73
857.625	45.74
857.799	37.55
857.974	15.02
858.148	-7.51
858.323	37.55
858.497	98.99
858.672	21.16
858.846	-13.65
859.02	29.35
859.195	-32.08
859.369	29.35
859.543	47.79
859.718	55.98
859.892	-9.56
860.066	23.21
860.241	-11.61
860.415	-3.41
860.589	62.12
860.763	-30.04
860.938	-93.52
861.112	-21.85
861.286	-3.41
861.46	27.31
861.634	10.92
861.808	6.83
861.982	33.45
862.157	4.78
862.331	27.31
862.505	-27.99
862.679	19.11
862.853	39.59
863.027	82.6
863.201	64.17
863.375	21.16
863.549	37.55
863.722	37.55
863.896	66.22
864.07	0.68
864.244	17.07
864.418	-9.56
864.592	-25.94
864.766	23.21
864.939	-36.18
865.113	25.26
865.287	10.92
865.461	-42.32
865.634	17.07
865.808	-9.56
865.982	31.4
866.156	12.97
866.329	-48.47
866.503	-32.08
866.676	12.97
866.85	53.93
867.024	43.69
867.197	-42.32
867.371	58.03
867.544	29.35
867.718	-27.99
867.891	55.98
868.065	-1.37
868.238	47.79
868.412	33.45
868.585	-9.56
868.759	-56.66
868.932	21.16
869.105	-3.41
869.279	-17.75
869.452	-54.61
869.625	-19.8
869.799	76.46
869.972	-54.61
870.145	4.78
870.319	10.92
870.492	-25.94
870.665	-23.89
870.838	15.02
871.011	-68.95
871.185	45.74
871.358	-7.51
871.531	-23.89
871.704	-5.46
871.877	-13.65
872.05	-27.99
872.223	23.21
872.396	37.55
872.569	15.02
872.742	-19.8
872.915	4.78
873.088	33.45
873.261	-73.04
873.434	74.41
873.607	17.07
873.78	49.83
873.953	6.83
874.126	109.22
874.299	12.97
874.471	-21.85
874.644	55.98
874.817	19.11
874.99	8.87
875.163	-36.18
875.335	29.35
875.508	8.87
875.681	4.78
875.853	-42.32
876.026	37.55
876.199	-5.46
876.371	-21.85
876.544	6.83
876.717	-23.89
876.889	41.64
877.062	53.93
877.234	6.83
877.407	-75.09
877.579	51.88
877.752	45.74
877.924	-25.94
878.097	12.97
878.269	-5.46
878.442	8.87
878.614	-19.8
878.786	23.21
878.959	72.36
879.131	-21.85
879.303	-3.41
879.476	68.27
879.648	-40.28
879.82	29.35
879.993	-30.04
880.165	39.59
880.337	-71
880.509	43.69
880.681	12.97
880.854	-36.18
881.026	27.31
881.198	21.16
881.37	-48.47
881.542	-5.46
881.714	64.17
881.886	-23.89
882.058	-9.56
882.23	29.35
882.402	19.11
882.574	-13.65
882.746	23.21
882.918	-32.08
883.09	-54.61
883.262	10.92
883.434	-32.08
883.606	-30.04
883.778	4.78
883.95	29.35
884.122	64.17
884.293	-1.37
884.465	58.03
884.637	25.26
884.809	-30.04
884.98	6.83
885.152	62.12
885.324	-5.46
885.496	27.31
885.667	-3.41
885.839	-7.51
886.011	43.69
886.182	-27.99
886.354	15.02
886.525	10.92
886.697	88.75
886.869	-54.61
887.04	-19.8
887.212	31.4
887.383	58.03
887.555	-93.52
887.726	-13.65
887.897	-1.37
888.069	45.74
888.24	66.22
888.412	-13.65
888.583	49.83
888.754	-15.7
888.926	-32.08
889.097	-19.8
889.268	-21.85
889.44	-30.04
889.611	-19.8
889.782	55.98
889.953	58.03
890.125	2.73
890.296	-38.23
890.467	23.21
890.638	-97.62
890.809	-46.42
890.98	-42.32
891.151	-1.37
891.323	-32.08
891.494	-101.72
891.665	-34.13
891.836	-85.33
892.007	-62.8
892.178	-1.37
892.349	-54.61
892.52	-3.41
892.691	8.87
892.862	37.55
893.032	-5.46
893.203	-81.24
893.374	-46.42
893.545	27.31
893.716	2.73
893.887	17.07
894.057	10.92
894.228	17.07
894.399	33.45
894.57	43.69
894.74	6.83
894.911	-17.75
895.082	-79.19
895.253	-32.08
895.423	47.79
895.594	35.5
895.764	66.22
895.935	-9.56
896.106	-17.75
896.276	8.87
896.447	-30.04
896.617	-34.13
896.788	-13.65
896.958	27.31
897.129	-48.47
897.299	4.78
897.47	-27.99
897.64	49.83
897.81	55.98
897.981	23.21
898.151	-32.08
898.322	25.26
898.492	37.55
898.662	10.92
898.832	-27.99
899.003	-66.9
899.173	31.4
899.343	33.45
899.513	10.92
