Data from USB4F104151__22__12-27-09-795.txt Node

Date: Fri Mar 14 12:27:09 EDT 2025
User: louis
Spectrometer: USB4F10415
Trigger mode: 4
Integration Time (sec): 2.000000E-2
Scans to average: 1
Electric dark correction enabled: true
Nonlinearity correction enabled: false
Boxcar width: 0
XAxis mode: Wavelengths
Number of Pixels in Spectrum: 3648
>>>>>Begin Spectral Data<<<<<
178.204	-61.27
178.424	-61.27
178.644	-61.27
178.864	-48.98
179.084	-112.47
179.304	-24.4
179.524	-30.55
179.744	28.84
179.964	-8.02
180.184	-51.03
180.404	49.32
180.624	61.61
180.844	4.27
181.064	10.41
181.283	2.22
181.503	-34.64
181.723	-8.02
181.943	-100.18
182.163	-24.4
182.383	45.23
182.602	-32.6
182.822	-3.93
183.042	16.55
183.262	-18.26
183.482	-24.4
183.701	-12.12
183.921	32.94
184.141	-59.22
184.361	41.13
184.58	20.65
184.8	-3.93
185.02	28.84
185.239	73.9
185.459	43.18
185.679	45.23
185.898	4.27
186.118	4.27
186.338	-5.97
186.557	102.57
186.777	-24.4
186.997	-55.12
187.216	12.46
187.436	84.14
187.655	57.51
187.875	114.86
188.095	43.18
188.314	-30.55
188.534	112.81
188.753	26.79
188.973	32.94
189.192	20.65
189.412	41.13
189.631	43.18
189.851	26.79
190.07	37.03
190.29	-32.6
190.509	39.08
190.729	-26.45
190.948	4.27
191.168	12.46
191.387	-12.12
191.607	2.22
191.826	57.51
192.045	-8.02
192.265	-22.36
192.484	47.27
192.704	2.22
192.923	-20.31
193.142	53.42
193.362	2.22
193.581	88.23
193.8	-59.22
194.02	37.03
194.239	55.47
194.458	20.65
194.678	41.13
194.897	37.03
195.116	10.41
195.335	32.94
195.555	37.03
195.774	41.13
195.993	2.22
196.212	-42.84
196.432	-67.41
196.651	-104.28
196.87	-10.07
197.089	49.32
197.308	63.66
197.528	45.23
197.747	-26.45
197.966	47.27
198.185	73.9
198.404	8.36
198.623	10.41
198.842	14.51
199.062	30.89
199.281	-14.17
199.5	37.03
199.719	47.27
199.938	30.89
200.157	86.19
200.376	67.75
200.595	22.7
200.814	94.38
201.033	14.51
201.252	-71.51
201.471	69.8
201.69	63.66
201.909	43.18
202.128	30.89
202.347	24.75
202.566	49.32
202.785	28.84
203.004	39.08
203.223	-22.36
203.442	47.27
203.661	-51.03
203.879	51.37
204.098	43.18
204.317	-94.04
204.536	135.34
204.755	34.99
204.974	104.62
205.193	28.84
205.411	55.47
205.63	-30.55
205.849	67.75
206.068	2.22
206.287	-16.21
206.505	24.75
206.724	26.79
206.943	41.13
207.162	108.71
207.381	-1.88
207.599	-8.02
207.818	24.75
208.037	61.61
208.255	20.65
208.474	16.55
208.693	-42.84
208.911	8.36
209.13	51.37
209.349	59.56
209.567	49.32
209.786	63.66
210.005	41.13
210.223	20.65
210.442	-14.17
210.661	37.03
210.879	-46.93
211.098	98.47
211.316	-16.21
211.535	41.13
211.753	39.08
211.972	-42.84
212.191	57.51
212.409	53.42
212.628	77.99
212.846	-61.27
213.065	92.33
213.283	59.56
213.502	51.37
213.72	39.08
213.938	57.51
214.157	-16.21
214.375	-5.97
214.594	-20.31
214.812	34.99
215.031	8.36
215.249	8.36
215.467	47.27
215.686	65.71
215.904	28.84
216.122	47.27
216.341	63.66
216.559	-3.93
216.778	-8.02
216.996	94.38
217.214	18.6
217.432	-8.02
217.651	-12.12
217.869	-61.27
218.087	-1.88
218.306	-5.97
218.524	102.57
218.742	49.32
218.96	45.23
219.179	6.31
219.397	41.13
219.615	53.42
219.833	8.36
220.051	24.75
220.27	55.47
220.488	43.18
220.706	69.8
220.924	26.79
221.142	-18.26
221.36	-73.56
221.578	75.95
221.796	-40.79
222.015	-24.4
222.233	32.94
222.451	59.56
222.669	82.09
222.887	26.79
223.105	-10.07
223.323	20.65
223.541	-40.79
223.759	26.79
223.977	4.27
224.195	34.99
224.413	45.23
224.631	61.61
224.849	-22.36
225.067	24.75
225.285	-18.26
225.503	18.6
225.721	14.51
225.939	41.13
226.157	-5.97
226.375	43.18
226.592	-14.17
226.81	28.84
227.028	47.27
227.246	77.99
227.464	-12.12
227.682	-3.93
227.9	71.85
228.117	12.46
228.335	-28.5
228.553	30.89
228.771	67.75
228.989	16.55
229.206	-91.99
229.424	-30.55
229.642	37.03
229.86	69.8
230.077	4.27
230.295	45.23
230.513	63.66
230.731	92.33
230.948	100.52
231.166	-10.07
231.384	61.61
231.601	43.18
231.819	67.75
232.037	20.65
232.254	28.84
232.472	96.43
232.689	-8.02
232.907	-24.4
233.125	2.22
233.342	69.8
233.56	67.75
233.777	22.7
233.995	-20.31
234.213	34.99
234.43	41.13
234.648	30.89
234.865	45.23
235.083	104.62
235.3	28.84
235.518	-42.84
235.735	30.89
235.953	71.85
236.17	-18.26
236.388	-30.55
236.605	-36.69
236.822	-10.07
237.04	51.37
237.257	22.7
237.475	-71.51
237.692	22.7
237.909	-10.07
238.127	63.66
238.344	22.7
238.562	18.6
238.779	-87.89
238.996	67.75
239.214	69.8
239.431	57.51
239.648	-12.12
239.865	69.8
240.083	55.47
240.3	80.04
240.517	77.99
240.735	-44.88
240.952	100.52
241.169	61.61
241.386	-10.07
241.603	-26.45
241.821	30.89
242.038	0.17
242.255	18.6
242.472	51.37
242.689	41.13
242.907	39.08
243.124	18.6
243.341	43.18
243.558	-5.97
243.775	-46.93
243.992	-14.17
244.209	67.75
244.426	82.09
244.643	28.84
244.86	47.27
245.078	-12.12
245.295	-65.36
245.512	39.08
245.729	8.36
245.946	-3.93
246.163	26.79
246.38	45.23
246.597	12.46
246.814	86.19
247.031	22.7
247.248	-14.17
247.464	59.56
247.681	45.23
247.898	18.6
248.115	24.75
248.332	18.6
248.549	8.36
248.766	-3.93
248.983	37.03
249.2	47.27
249.417	73.9
249.633	45.23
249.85	47.27
250.067	59.56
250.284	2.22
250.501	88.23
250.717	57.51
250.934	-8.02
251.151	24.75
251.368	18.6
251.585	61.61
251.801	104.62
252.018	-12.12
252.235	104.62
252.451	8.36
252.668	67.75
252.885	16.55
253.102	-20.31
253.318	22.7
253.535	-8.02
253.752	20.65
253.968	24.75
254.185	-10.07
254.401	4.27
254.618	28.84
254.835	10.41
255.051	94.38
255.268	30.89
255.484	18.6
255.701	30.89
255.917	28.84
256.134	-79.7
256.351	-14.17
256.567	22.7
256.784	92.33
257	26.79
257.217	116.9
257.433	0.17
257.65	8.36
257.866	61.61
258.082	43.18
258.299	18.6
258.515	16.55
258.732	-42.84
258.948	92.33
259.165	16.55
259.381	12.46
259.597	45.23
259.814	2.22
260.03	4.27
260.246	67.75
260.463	41.13
260.679	80.04
260.895	12.46
261.112	4.27
261.328	-1.88
261.544	30.89
261.761	92.33
261.977	24.75
262.193	-3.93
262.409	-36.69
262.626	41.13
262.842	20.65
263.058	20.65
263.274	-3.93
263.49	4.27
263.707	51.37
263.923	6.31
264.139	8.36
264.355	28.84
264.571	47.27
264.787	43.18
265.004	-1.88
265.22	14.51
265.436	51.37
265.652	37.03
265.868	-10.07
266.084	16.55
266.3	61.61
266.516	-18.26
266.732	12.46
266.948	16.55
267.164	59.56
267.38	30.89
267.596	-8.02
267.812	102.57
268.028	69.8
268.244	-71.51
268.46	86.19
268.676	37.03
268.892	57.51
269.108	12.46
269.324	-1.88
269.54	-26.45
269.756	-5.97
269.972	-1.88
270.188	-16.21
270.403	20.65
270.619	55.47
270.835	16.55
271.051	34.99
271.267	2.22
271.483	59.56
271.698	73.9
271.914	47.27
272.13	-40.79
272.346	14.51
272.562	39.08
272.777	-24.4
272.993	-22.36
273.209	45.23
273.425	10.41
273.64	-8.02
273.856	-16.21
274.072	18.6
274.287	-18.26
274.503	20.65
274.719	-12.12
274.934	43.18
275.15	-1.88
275.366	4.27
275.581	0.17
275.797	6.31
276.012	53.42
276.228	-14.17
276.444	-24.4
276.659	88.23
276.875	37.03
277.09	2.22
277.306	2.22
277.521	4.27
277.737	96.43
277.952	30.89
278.168	22.7
278.383	8.36
278.599	-48.98
278.814	47.27
279.03	-10.07
279.245	12.46
279.461	49.32
279.676	57.51
279.892	-14.17
280.107	37.03
280.322	-5.97
280.538	6.31
280.753	51.37
280.969	-28.5
281.184	26.79
281.399	41.13
281.615	84.14
281.83	12.46
282.045	-59.22
282.26	39.08
282.476	73.9
282.691	71.85
282.906	-55.12
283.122	77.99
283.337	6.31
283.552	49.32
283.767	53.42
283.983	86.19
284.198	-59.22
284.413	41.13
284.628	-42.84
284.843	71.85
285.058	92.33
285.274	-5.97
285.489	26.79
285.704	90.28
285.919	16.55
286.134	28.84
286.349	34.99
286.564	-63.32
286.779	51.37
286.995	-3.93
287.21	4.27
287.425	77.99
287.64	43.18
287.855	80.04
288.07	-48.98
288.285	47.27
288.5	100.52
288.715	77.99
288.93	4.27
289.145	34.99
289.36	45.23
289.575	14.51
289.79	82.09
290.004	26.79
290.219	116.9
290.434	20.65
290.649	-40.79
290.864	28.84
291.079	10.41
291.294	-5.97
291.509	-28.5
291.724	59.56
291.938	104.62
292.153	94.38
292.368	8.36
292.583	32.94
292.798	-14.17
293.012	39.08
293.227	-3.93
293.442	26.79
293.657	90.28
293.871	69.8
294.086	24.75
294.301	63.66
294.516	92.33
294.73	137.38
294.945	-26.45
295.16	-75.6
295.374	34.99
295.589	55.47
295.804	-36.69
296.018	6.31
296.233	32.94
296.447	98.47
296.662	12.46
296.877	12.46
297.091	-20.31
297.306	49.32
297.52	65.71
297.735	94.38
297.949	2.22
298.164	-1.88
298.378	-79.7
298.593	4.27
298.807	-28.5
299.022	24.75
299.236	20.65
299.451	22.7
299.665	28.84
299.88	45.23
300.094	71.85
300.309	30.89
300.523	0.17
300.737	6.31
300.952	59.56
301.166	80.04
301.381	-1.88
301.595	8.36
301.809	4.27
302.024	-20.31
302.238	41.13
302.452	20.65
302.667	77.99
302.881	22.7
303.095	-14.17
303.309	49.32
303.524	8.36
303.738	106.67
303.952	34.99
304.166	30.89
304.381	-12.12
304.595	18.6
304.809	28.84
305.023	86.19
305.237	-22.36
305.452	63.66
305.666	73.9
305.88	49.32
306.094	57.51
306.308	73.9
306.522	-8.02
306.736	14.51
306.95	63.66
307.164	-16.21
307.379	14.51
307.593	32.94
307.807	47.27
308.021	84.14
308.235	14.51
308.449	-51.03
308.663	-18.26
308.877	125.1
309.091	53.42
309.305	18.6
309.519	-36.69
309.733	-10.07
309.947	-38.74
310.161	59.56
310.374	49.32
310.588	8.36
310.802	-14.17
311.016	-1.88
311.23	28.84
311.444	-69.46
311.658	18.6
311.872	43.18
312.085	-36.69
312.299	77.99
312.513	53.42
312.727	53.42
312.941	-28.5
313.154	59.56
313.368	-34.64
313.582	-8.02
313.796	-8.02
314.009	114.86
314.223	45.23
314.437	-67.41
314.651	10.41
314.864	2.22
315.078	4.27
315.292	20.65
315.505	14.51
315.719	-26.45
315.933	10.41
316.146	14.51
316.36	61.61
316.573	-3.93
316.787	8.36
317.001	49.32
317.214	6.31
317.428	22.7
317.641	51.37
317.855	86.19
318.068	53.42
318.282	53.42
318.495	108.71
318.709	18.6
318.922	-18.26
319.136	57.51
319.349	-5.97
319.563	65.71
319.776	14.51
319.99	110.76
320.203	26.79
320.417	-32.6
320.63	30.89
320.843	80.04
321.057	12.46
321.27	43.18
321.483	39.08
321.697	75.95
321.91	10.41
322.124	8.36
322.337	-3.93
322.55	53.42
322.763	22.7
322.977	41.13
323.19	41.13
323.403	4.27
323.617	34.99
323.83	32.94
324.043	24.75
324.256	16.55
324.469	-53.08
324.683	26.79
324.896	75.95
325.109	39.08
325.322	71.85
325.535	131.24
325.748	2.22
325.962	73.9
326.175	-5.97
326.388	39.08
326.601	-20.31
326.814	18.6
327.027	26.79
327.24	39.08
327.453	-28.5
327.666	14.51
327.879	110.76
328.092	-10.07
328.305	28.84
328.518	43.18
328.731	-8.02
328.944	28.84
329.157	43.18
329.37	45.23
329.583	41.13
329.796	14.51
330.009	6.31
330.222	22.7
330.435	-3.93
330.648	32.94
330.861	45.23
331.073	8.36
331.286	49.32
331.499	57.51
331.712	34.99
331.925	43.18
332.138	47.27
332.35	43.18
332.563	80.04
332.776	12.46
332.989	67.75
333.202	-57.17
333.414	-12.12
333.627	34.99
333.84	-8.02
334.053	69.8
334.265	86.19
334.478	24.75
334.691	45.23
334.903	0.17
335.116	45.23
335.329	-32.6
335.541	14.51
335.754	75.95
335.966	-3.93
336.179	-57.17
336.392	73.9
336.604	43.18
336.817	84.14
337.029	45.23
337.242	10.41
337.454	55.47
337.667	53.42
337.88	39.08
338.092	59.56
338.305	43.18
338.517	14.51
338.729	32.94
338.942	4.27
339.154	57.51
339.367	57.51
339.579	61.61
339.792	2.22
340.004	14.51
340.217	47.27
340.429	57.51
340.641	49.32
340.854	59.56
341.066	0.17
341.278	90.28
341.491	12.46
341.703	-5.97
341.915	55.47
342.128	14.51
342.34	55.47
342.552	-12.12
342.764	61.61
342.977	30.89
343.189	8.36
343.401	-32.6
343.613	-32.6
343.826	14.51
344.038	57.51
344.25	96.43
344.462	8.36
344.674	82.09
344.886	16.55
345.099	88.23
345.311	12.46
345.523	67.75
345.735	37.03
345.947	-22.36
346.159	53.42
346.371	16.55
346.583	14.51
346.795	30.89
347.007	2.22
347.219	41.13
347.431	43.18
347.643	59.56
347.855	16.55
348.067	49.32
348.279	4.27
348.491	28.84
348.703	32.94
348.915	53.42
349.127	43.18
349.339	-46.93
349.551	0.17
349.763	37.03
349.975	-24.4
350.187	30.89
350.399	12.46
350.61	41.13
350.822	-24.4
351.034	30.89
351.246	49.32
351.458	57.51
351.669	24.75
351.881	-18.26
352.093	43.18
352.305	94.38
352.517	-24.4
352.728	55.47
352.94	2.22
353.152	32.94
353.363	2.22
353.575	-14.17
353.787	28.84
353.999	49.32
354.21	92.33
354.422	34.99
354.633	28.84
354.845	73.9
355.057	16.55
355.268	-5.97
355.48	69.8
355.692	37.03
355.903	73.9
356.115	4.27
356.326	61.61
356.538	-3.93
356.749	90.28
356.961	86.19
357.172	63.66
357.384	73.9
357.595	16.55
357.807	65.71
358.018	24.75
358.23	49.32
358.441	43.18
358.653	37.03
358.864	6.31
359.075	-3.93
359.287	8.36
359.498	-20.31
359.709	-28.5
359.921	8.36
360.132	28.84
360.344	63.66
360.555	26.79
360.766	123.05
360.977	-10.07
361.189	30.89
361.4	-51.03
361.611	57.51
361.823	-3.93
362.034	71.85
362.245	84.14
362.456	28.84
362.667	47.27
362.879	6.31
363.09	26.79
363.301	45.23
363.512	20.65
363.723	61.61
363.935	59.56
364.146	41.13
364.357	26.79
364.568	49.32
364.779	55.47
364.99	37.03
365.201	57.51
365.412	20.65
365.623	-24.4
365.834	59.56
366.045	24.75
366.256	12.46
366.467	53.42
366.678	61.61
366.889	22.7
367.1	-10.07
367.311	88.23
367.522	-28.5
367.733	2.22
367.944	26.79
368.155	37.03
368.366	24.75
368.577	12.46
368.788	53.42
368.999	-1.88
369.209	53.42
369.42	8.36
369.631	18.6
369.842	16.55
370.053	-55.12
370.264	100.52
370.474	59.56
370.685	41.13
370.896	4.27
371.107	69.8
371.317	114.86
371.528	55.47
371.739	49.32
371.95	26.79
372.16	34.99
372.371	22.7
372.582	75.95
372.792	6.31
373.003	6.31
373.214	55.47
373.424	39.08
373.635	61.61
373.846	28.84
374.056	88.23
374.267	45.23
374.477	-53.08
374.688	73.9
374.898	69.8
375.109	-3.93
375.319	73.9
375.53	22.7
375.74	-5.97
375.951	86.19
376.161	12.46
376.372	100.52
376.582	-28.5
376.793	6.31
377.003	8.36
377.214	8.36
377.424	2.22
377.635	39.08
377.845	45.23
378.055	63.66
378.266	47.27
378.476	53.42
378.686	32.94
378.897	92.33
379.107	0.17
379.317	-42.84
379.528	-8.02
379.738	63.66
379.948	57.51
380.158	110.76
380.369	16.55
380.579	108.71
380.789	-8.02
380.999	4.27
381.21	30.89
381.42	141.48
381.63	16.55
381.84	55.47
382.05	0.17
382.261	20.65
382.471	-22.36
382.681	-26.45
382.891	-10.07
383.101	32.94
383.311	47.27
383.521	49.32
383.731	71.85
383.941	80.04
384.151	28.84
384.361	55.47
384.571	39.08
384.781	43.18
384.991	61.61
385.201	86.19
385.411	59.56
385.621	80.04
385.831	43.18
386.041	86.19
386.251	59.56
386.461	22.7
386.671	14.51
386.881	41.13
387.091	30.89
387.301	-1.88
387.511	22.7
387.72	84.14
387.93	20.65
388.14	45.23
388.35	30.89
388.56	86.19
388.769	92.33
388.979	77.99
389.189	39.08
389.399	-30.55
389.609	22.7
389.818	2.22
390.028	20.65
390.238	61.61
390.447	30.89
390.657	98.47
390.867	39.08
391.076	-12.12
391.286	28.84
391.496	37.03
391.705	39.08
391.915	47.27
392.125	20.65
392.334	43.18
392.544	39.08
392.753	26.79
392.963	61.61
393.172	28.84
393.382	41.13
393.591	98.47
393.801	55.47
394.01	43.18
394.22	43.18
394.429	71.85
394.639	45.23
394.848	118.95
395.058	127.14
395.267	65.71
395.477	55.47
395.686	12.46
395.895	100.52
396.105	86.19
396.314	71.85
396.524	118.95
396.733	49.32
396.942	123.05
397.152	51.37
397.361	45.23
397.57	71.85
397.78	98.47
397.989	12.46
398.198	59.56
398.407	84.14
398.617	135.34
398.826	47.27
399.035	102.57
399.244	53.42
399.453	110.76
399.663	59.56
399.872	57.51
400.081	-24.4
400.29	143.53
400.499	104.62
400.708	104.62
400.917	28.84
401.127	92.33
401.336	34.99
401.545	116.9
401.754	61.61
401.963	108.71
402.172	41.13
402.381	53.42
402.59	86.19
402.799	14.51
403.008	102.57
403.217	168.1
403.426	112.81
403.635	59.56
403.844	116.9
404.053	65.71
404.262	141.48
404.471	131.24
404.68	75.95
404.888	149.67
405.097	57.51
405.306	125.1
405.515	135.34
405.724	168.1
405.933	92.33
406.142	118.95
406.35	137.38
406.559	164.01
406.768	116.9
406.977	184.49
407.185	125.1
407.394	198.82
407.603	133.29
407.812	102.57
408.02	178.34
408.229	69.8
408.438	194.73
408.646	172.2
408.855	155.82
409.064	182.44
409.272	143.53
409.481	196.78
409.69	280.74
409.898	219.3
410.107	204.97
410.315	211.11
410.524	221.35
410.733	196.78
410.941	235.69
411.15	276.65
411.358	233.64
411.567	299.17
411.775	309.41
411.984	338.09
412.192	333.99
412.401	309.41
412.609	368.81
412.818	383.14
413.026	348.33
413.234	288.93
413.443	356.52
413.651	338.09
413.86	469.16
414.068	454.82
414.276	432.29
414.485	391.33
414.693	463.01
414.901	508.07
415.11	536.74
415.318	583.84
415.526	493.73
415.734	577.7
415.943	612.51
416.151	575.65
416.359	551.07
416.567	612.51
416.776	612.51
416.984	653.47
417.192	747.68
417.4	721.06
417.608	661.66
417.817	739.49
418.025	743.58
418.233	888.99
418.441	790.69
418.649	860.32
418.857	952.48
419.065	997.53
419.273	1046.68
419.481	995.48
419.689	1075.35
419.897	1104.03
420.105	1032.35
420.313	1159.32
420.521	1190.04
420.729	1224.86
420.937	1183.9
421.145	1304.73
421.353	1390.74
421.561	1351.83
421.769	1501.33
421.977	1448.08
422.185	1491.09
422.393	1554.58
422.601	1618.07
422.809	1683.6
423.017	1691.79
423.224	1646.74
423.432	1798.29
423.64	1761.42
423.848	1984.65
424.056	1912.97
424.263	2087.05
424.471	2056.33
424.679	2074.76
424.887	2257.03
425.094	2412.68
425.302	2314.38
425.51	2455.69
425.718	2564.23
425.925	2496.64
426.133	2646.15
426.341	2859.14
426.548	2859.14
426.756	2961.53
426.964	2906.24
427.171	3121.28
427.379	3147.9
427.586	3240.06
427.794	3319.93
428.001	3403.89
428.209	3506.29
428.417	3557.49
428.624	3858.54
428.832	3909.74
429.039	3866.74
429.247	3606.64
429.454	4051.05
429.662	4366.44
429.869	4006
430.076	4440.17
430.284	4427.88
430.491	4528.23
430.699	4767.84
430.906	4692.07
431.114	4847.71
431.321	4968.54
431.528	4984.93
431.736	5415
431.943	5632.08
432.15	5410.9
432.358	5568.6
432.565	5892.18
432.772	5871.7
432.979	6076.49
433.187	6160.46
433.394	6316.11
433.601	6656.07
433.808	6627.4
434.016	6721.6
434.223	7104.57
434.43	7348.28
434.637	7325.75
434.844	7751.73
435.052	7880.75
435.259	7780.4
435.466	7974.96
435.673	7735.35
435.88	8366.12
436.087	8847.4
436.294	8933.41
436.501	8558.63
436.708	8579.11
436.915	9091.1
437.122	9517.08
437.329	9578.52
437.537	9728.02
437.743	9975.83
437.95	9768.98
438.157	10373.13
438.364	10885.12
438.571	10801.16
438.778	10973.19
438.985	11786.23
439.192	11382.78
439.399	11595.77
439.606	11511.8
439.813	12066.8
440.02	12816.36
440.227	12640.23
440.433	12623.85
440.64	12875.75
440.847	12900.33
441.054	13225.95
441.261	13989.85
441.467	13785.05
441.674	14211.03
441.881	14626.76
442.088	14745.55
442.294	14323.66
442.501	15069.12
442.708	15093.7
442.914	15794.11
443.121	16404.4
443.328	15964.09
443.534	17153.96
443.741	16627.63
443.948	16373.68
444.154	17725.34
444.361	17661.85
444.568	17616.8
444.774	17528.74
444.981	17952.66
445.187	18489.23
445.394	19179.4
445.6	19007.37
445.807	20557.68
446.013	19758.97
446.22	20217.72
446.426	20959.08
446.633	20940.65
446.839	22009.69
447.046	20991.85
447.252	22214.49
447.459	22376.28
447.665	22515.54
447.871	23320.39
448.078	24444.73
448.284	23424.84
448.491	23772.99
448.697	24758.06
448.903	25265.96
449.11	25259.82
449.316	24948.53
449.522	25317.16
449.728	25933.6
449.935	26234.65
450.141	25923.36
450.347	26840.85
450.553	25919.26
450.76	26220.31
450.966	27193.1
451.172	26640.15
451.378	27612.93
451.584	26722.07
451.791	27657.99
451.997	27754.24
452.203	28049.15
452.409	28382.97
452.615	27959.04
452.821	27000.59
453.027	26771.22
453.233	27940.61
453.44	26939.15
453.646	27569.93
453.852	27528.97
454.058	28081.92
454.264	27016.97
454.47	27393.8
454.676	26937.1
454.882	28012.29
455.088	25456.42
455.294	25954.08
455.5	26261.27
455.705	26840.85
455.911	25427.75
456.117	25214.76
456.323	24751.92
456.529	23336.77
456.735	24350.52
456.941	23662.4
457.147	23650.11
457.352	22732.62
457.558	22234.97
457.764	22654.8
457.97	22122.33
458.176	21450.6
458.381	21393.25
458.587	20426.61
458.793	20778.86
458.999	19445.63
459.204	20903.79
459.41	20221.81
459.616	19027.85
459.821	19089.29
460.027	18657.17
460.233	18354.07
460.438	17641.37
460.644	17868.7
460.85	16908.2
461.055	16930.73
461.261	16840.62
461.466	15480.77
461.672	15019.97
461.878	16332.72
462.083	15189.95
462.289	14784.46
462.494	14446.54
462.7	14010.32
462.905	13623.26
463.111	14032.85
463.316	14174.16
463.522	13813.72
463.727	13803.48
463.932	13760.47
464.138	13676.51
464.343	13651.93
464.549	13301.73
464.754	13653.98
464.959	13563.87
465.165	13531.1
465.37	12918.76
465.575	12617.71
465.781	12890.09
465.986	13256.67
466.191	12695.53
466.397	12531.69
466.602	11937.78
466.807	12308.46
467.012	12470.25
467.218	12367.85
467.423	12036.08
467.628	12187.63
467.833	12627.95
468.038	12357.61
468.244	11681.78
468.449	12357.61
468.654	12052.47
468.859	11816.95
469.064	11868.15
469.269	11669.5
469.474	11491.32
469.679	11659.26
469.885	11286.53
470.09	11497.47
470.295	11636.73
470.5	11390.97
470.705	11067.39
470.91	10883.08
471.115	10919.94
471.32	10915.84
471.525	11134.98
471.73	10760.2
471.935	10704.9
472.139	10149.9
472.344	10481.67
472.549	10407.95
472.754	10424.33
472.959	10125.33
473.164	9967.63
473.369	9826.32
473.574	10076.18
473.778	9824.28
473.983	9936.92
474.188	9766.93
474.393	9484.31
474.598	9431.07
474.802	9332.76
475.007	9424.92
475.212	9134.11
475.417	8816.68
475.621	8941.6
475.826	9127.97
476.031	8818.72
476.235	8843.3
476.44	8671.27
476.645	8646.69
476.849	8663.08
477.054	8511.53
477.259	8425.51
477.463	8443.95
477.668	8120.37
477.872	8423.47
478.077	8218.67
478.282	7952.43
478.486	7958.58
478.691	7735.35
478.895	7833.65
479.1	7909.43
479.304	7886.9
479.509	7557.18
479.713	7688.25
479.918	7518.26
480.122	7589.94
480.326	7501.88
480.531	7604.28
480.735	7565.37
480.94	7374.91
481.144	7606.33
481.348	7204.92
481.553	7399.48
481.757	7247.93
481.961	7471.16
482.166	7422.01
482.37	7305.28
482.574	7295.04
482.778	7254.08
482.983	7225.4
483.187	7170.11
483.391	7286.84
483.595	7288.89
483.8	7270.46
484.004	7270.46
484.208	7235.64
484.412	7274.56
484.616	7360.57
484.821	7317.56
485.025	7206.97
485.229	7295.04
485.433	7223.36
485.637	7288.89
485.841	7350.33
486.045	7264.32
486.249	7188.54
486.453	7290.94
486.657	7223.36
486.861	7452.73
487.065	7235.64
487.269	7299.13
487.473	7116.86
487.677	7329.85
487.881	7352.38
488.085	7166.01
488.289	7495.74
488.493	7284.8
488.697	7354.43
488.901	7383.1
489.105	7106.62
489.309	7284.8
489.512	7301.18
489.716	7403.58
489.92	7469.11
490.124	7266.36
490.328	7548.98
490.531	7469.11
490.735	7520.31
490.939	7577.66
491.143	7569.46
491.346	7450.68
491.55	7483.45
491.754	7610.42
491.958	7706.68
492.161	7585.85
492.365	7630.9
492.569	7747.64
492.772	7671.86
492.976	7792.69
493.18	7870.51
493.383	7850.03
493.587	7714.87
493.79	8030.26
493.994	7772.21
494.197	8011.82
494.401	8079.41
494.605	8095.79
494.808	8167.47
495.012	8161.33
495.215	8312.88
495.419	8445.99
495.622	8386.6
495.825	8675.37
496.029	8486.95
496.232	8681.51
496.436	8665.13
496.639	8788
496.843	8749.09
497.046	8906.79
497.249	9144.35
497.453	9089.06
497.656	9330.72
497.859	9236.51
498.063	9304.09
498.266	9592.86
498.469	9412.64
498.673	9607.19
498.876	9756.69
499.079	9895.96
499.282	9746.45
499.485	9904.15
499.689	10080.27
499.892	10137.62
500.095	10190.86
500.298	10471.43
500.501	10313.74
500.705	10696.71
500.908	10721.29
501.111	10811.4
501.314	10940.42
501.517	11067.39
501.72	11218.94
501.923	11327.49
502.126	11608.06
502.329	11958.26
502.532	11878.39
502.735	11880.44
502.938	12054.51
503.141	12062.71
503.344	12185.58
503.547	12097.52
503.75	12640.23
503.953	12582.89
504.156	12847.08
504.359	12972
504.562	12994.53
504.765	13203.43
504.968	13021.16
505.17	13344.74
505.373	13606.88
505.576	13770.71
505.779	13744.09
505.982	14014.42
506.185	14163.92
506.387	14460.88
506.59	14307.28
506.793	14544.84
506.996	14733.26
507.198	15048.65
507.401	15038.41
507.604	14981.06
507.807	15302.59
508.009	15323.07
508.212	15437.76
508.415	15634.36
508.617	15933.37
508.82	16234.42
509.022	16121.78
509.225	16568.24
509.428	16682.92
509.63	16504.75
509.833	17190.82
510.035	17057.7
510.238	17037.22
510.44	17145.77
510.643	17543.07
510.845	17770.4
511.048	17393.57
511.25	17811.35
511.453	18075.54
511.655	18421.65
511.858	18292.63
512.06	18368.4
512.262	18747.28
512.465	18608.01
512.667	19146.63
512.87	19371.91
513.072	19513.22
513.274	19771.26
513.477	19861.37
513.679	19752.83
513.881	20445.04
514.084	20637.55
514.286	20377.46
514.488	20688.75
514.69	21370.72
514.893	21163.88
515.095	21251.94
515.297	21454.69
515.499	21622.62
515.701	21778.27
515.904	22044.51
516.106	22581.07
516.308	22409.04
516.51	22566.74
516.712	22622.03
516.914	23195.46
517.116	23396.17
517.318	23351.11
517.52	23547.72
517.722	23607.11
517.925	23916.35
518.127	24293.18
518.329	24432.44
518.531	24287.03
518.733	24749.87
518.935	25059.12
519.136	25061.16
519.338	25380.65
519.54	25374.5
519.742	25612.07
519.944	25730.85
520.146	26386.2
520.348	26474.26
520.55	26435.35
520.752	26431.26
520.954	27004.69
521.155	26842.9
521.357	26945.3
521.559	27465.48
521.761	27784.96
521.963	27922.18
522.164	27768.58
522.366	28020.48
522.568	28352.25
522.77	28268.28
522.971	28565.24
523.173	28495.61
523.375	29185.77
523.576	29030.13
523.778	29003.5
523.98	29337.32
524.181	29374.19
524.383	29521.64
524.584	30062.3
524.786	29914.85
524.988	29802.21
525.189	30197.47
525.391	30547.67
525.592	30389.98
525.794	30281.44
525.995	30836.44
526.197	30674.65
526.398	30836.44
526.6	30983.89
526.801	31078.1
527.003	31469.26
527.204	31239.89
527.406	31739.59
527.607	31667.91
527.808	31905.48
528.01	31499.98
528.211	32063.17
528.412	32126.66
528.614	31928
528.815	32206.53
529.016	32462.52
529.218	32263.87
529.419	32616.12
529.62	32179.9
529.822	32472.76
530.023	32558.78
530.224	32425.66
530.425	32554.68
530.626	32280.25
530.828	32235.2
531.029	32990.9
531.23	32569.02
531.431	32917.17
531.632	33001.14
531.833	33099.44
532.035	32997.04
532.236	32730.81
532.437	33326.77
532.638	33025.71
532.839	32911.03
533.04	33597.1
533.241	32806.58
533.442	33687.21
533.643	33341.1
533.844	33218.22
534.045	33304.24
534.246	33017.52
534.447	33496.75
534.648	33463.98
534.849	33582.76
535.05	33349.29
535.251	33449.64
535.451	33156.78
535.652	33842.85
535.853	33455.79
536.054	33593
536.255	33334.96
536.456	32865.97
536.657	33590.95
536.857	33420.97
537.058	33115.83
537.259	33390.25
537.46	33863.33
537.66	33320.62
537.861	33758.89
538.062	33425.07
538.263	33433.26
538.463	33236.66
538.664	33492.65
538.865	33693.35
539.065	33414.83
539.266	33463.98
539.466	33865.38
539.667	33134.26
539.868	33810.09
540.068	33672.87
540.269	33652.39
540.469	33658.54
540.67	33283.76
540.87	33599.15
541.071	33218.22
541.271	33928.87
541.472	33605.29
541.672	33404.59
541.873	33521.32
542.073	32843.45
542.274	33791.66
542.474	33660.59
542.675	33097.39
542.875	33343.15
543.075	33355.44
543.276	33185.46
543.476	33717.93
543.676	33351.34
543.877	34072.23
544.077	33396.4
544.277	33060.53
544.478	33224.37
544.678	33463.98
544.878	33566.38
545.078	33408.68
545.279	33400.49
545.479	33281.71
545.679	33326.77
545.879	33150.64
546.079	33509.04
546.28	32974.52
546.48	33191.6
546.68	33402.54
546.88	33246.9
547.08	33437.36
547.28	33341.1
547.48	33248.94
547.68	33525.42
547.88	32935.6
548.081	33357.49
548.281	32911.03
548.481	33285.81
548.681	33238.7
548.881	33265.33
549.081	33644.2
549.28	33220.27
549.48	33334.96
549.68	33853.09
549.88	33805.99
550.08	33169.07
550.28	33599.15
550.48	33255.09
550.68	33246.9
550.88	32976.56
551.08	33549.99
551.279	33304.24
551.479	33171.12
551.679	33160.88
551.879	33275.57
552.079	33451.69
552.278	33144.5
552.478	33377.97
552.678	33312.43
552.878	33228.46
553.077	33060.53
553.277	33011.38
553.477	33627.82
553.676	33056.43
553.876	33349.29
554.076	32812.73
554.275	32976.56
554.475	32804.53
554.674	33136.31
554.874	33162.93
555.074	32659.13
555.273	32904.88
555.473	33078.96
555.672	32988.85
555.872	32675.51
556.071	32886.45
556.271	33498.8
556.47	32589.5
556.67	32634.55
556.869	32677.56
557.068	32755.38
557.268	32624.31
557.467	32857.78
557.667	32841.4
557.866	32642.74
558.065	32435.9
558.265	32421.56
558.464	32554.68
558.663	32702.14
558.863	32110.27
559.062	32767.67
559.261	32222.91
559.461	32607.93
559.66	32171.71
559.859	32360.12
560.058	32081.6
560.258	32294.59
560.457	32286.4
560.656	32460.48
560.855	32157.38
561.054	32194.24
561.253	31850.18
561.453	32280.25
561.652	32091.84
561.851	31895.24
562.05	32048.83
562.249	31588.04
562.448	32095.94
562.647	31551.18
562.846	32075.46
563.045	31796.93
563.244	31368.91
563.443	31743.69
563.642	31340.24
563.841	31545.03
564.04	31559.37
564.239	31739.59
564.438	31217.36
564.637	31346.38
564.836	31276.75
565.035	31069.9
565.234	31233.74
565.432	31362.76
565.631	31180.49
565.83	30965.46
566.029	30877.4
566.228	31125.2
566.427	30836.44
566.625	30772.95
566.824	30340.83
567.023	30912.21
567.222	30191.33
567.42	30439.13
567.619	30482.14
567.818	30299.87
568.016	30453.47
568.215	30492.38
568.414	30586.58
568.612	30781.14
568.811	29908.71
569.01	30295.77
569.208	30007.01
569.407	30383.84
569.605	29771.49
569.804	29953.76
570.002	29804.26
570.201	30283.48
570.4	29409
570.598	29742.82
570.797	29613.8
570.995	29609.7
571.193	29431.53
571.392	29900.51
571.59	29384.43
571.789	29273.84
571.987	29243.12
572.186	29316.84
572.384	29075.18
572.582	29505.26
572.781	29161.2
572.979	28950.26
573.177	28950.26
573.376	29257.45
573.574	29032.18
573.772	29253.36
573.971	28892.91
574.169	28614.39
574.367	28542.71
574.565	28792.56
574.763	28595.96
574.962	28626.68
575.16	27971.33
575.358	28626.68
575.556	28020.48
575.754	28815.09
575.952	27664.13
576.151	28473.08
576.349	27750.15
576.547	28169.98
576.745	27905.79
576.943	27956.99
577.141	27985.66
577.339	28135.17
577.537	27852.55
577.735	27557.64
577.933	27850.5
578.131	27520.77
578.329	27557.64
578.527	27324.17
578.725	27709.19
578.923	27451.14
579.121	27481.86
579.319	27260.68
579.516	27342.6
579.714	26875.66
579.912	26988.3
580.11	26928.91
580.308	27338.51
580.506	27168.52
580.704	26504.98
580.901	26504.98
581.099	26910.48
581.297	26547.99
581.495	26664.72
581.692	26449.69
581.89	26160.92
582.088	26382.1
582.285	26490.65
582.483	26531.61
582.681	26097.44
582.878	26197.79
583.076	26038.05
583.274	25970.46
583.471	25863.97
583.669	26140.44
583.866	25761.57
584.064	26070.81
584.262	25474.85
584.459	26076.96
584.657	25542.44
584.854	25720.61
585.052	25202.47
585.249	25462.57
585.447	25466.66
585.644	25220.91
585.841	25407.27
586.039	25595.68
586.236	25198.38
586.434	25327.4
586.631	24729.39
586.828	24842.03
587.026	24973.1
587.223	24631.09
587.42	25001.77
587.618	25106.22
587.815	24385.33
588.012	24745.78
588.21	24520.5
588.407	24715.06
588.604	24495.92
588.801	24246.07
588.999	24121.15
589.196	24256.31
589.393	24432.44
589.59	24293.18
589.787	23908.16
589.984	23772.99
590.182	23861.05
590.379	24080.19
590.576	23781.18
590.773	23865.15
590.97	23709.5
591.167	23748.42
591.364	23402.31
591.561	23514.95
591.758	23398.21
591.955	23461.7
592.152	23461.7
592.349	23334.73
592.546	23103.31
592.743	23299.91
592.94	23023.44
593.137	23338.82
593.334	23232.33
593.531	22906.7
593.727	22994.76
593.924	22789.97
594.121	22804.3
594.318	22861.65
594.515	22495.06
594.712	22814.54
594.908	22116.19
595.105	22865.74
595.302	22196.06
595.499	22286.17
595.696	21952.35
595.892	22024.03
596.089	22277.97
596.286	22359.89
596.482	22093.66
596.679	21915.48
596.876	22134.62
597.072	21761.89
597.269	21940.06
597.466	21497.7
597.662	21473.12
597.859	21698.4
598.055	21835.61
598.252	21548.9
598.448	21505.89
598.645	21245.8
598.841	21094.25
599.038	21284.71
599.234	21393.25
599.431	21233.51
599.627	20828.01
599.824	21491.55
600.02	20887.4
600.217	20854.64
600.413	20803.44
600.609	20709.23
600.806	20748.14
601.002	20506.48
601.198	20715.37
601.395	20637.55
601.591	20662.13
601.787	20658.03
601.984	20498.29
602.18	20504.43
602.376	20260.73
602.572	20174.71
602.769	20328.31
602.965	19879.8
603.161	20221.81
603.357	19937.15
603.553	19863.42
603.75	20113.27
603.946	20209.53
604.142	19965.82
604.338	19775.36
604.534	19943.29
604.73	19701.63
604.926	19679.1
605.122	19617.66
605.318	19402.63
605.514	19480.45
605.71	19341.19
605.906	19556.22
606.102	19396.48
606.298	19371.91
606.494	19310.47
606.69	19404.67
606.886	19433.35
607.082	19089.29
607.278	19197.83
607.474	18876.3
607.67	19146.63
607.866	18706.32
608.062	19201.93
608.257	18655.12
608.453	18691.98
608.649	18708.37
608.845	18849.68
609.041	18745.23
609.236	18952.07
609.432	18755.47
609.628	18614.16
609.824	18397.07
610.019	18792.33
610.215	18798.48
610.411	18507.66
610.606	18186.13
610.802	18608.01
610.998	18247.57
611.193	18380.69
611.389	18233.24
611.584	18190.23
611.78	18071.45
611.976	18100.12
612.171	18272.15
612.367	18165.65
612.562	18079.64
612.758	17967
612.953	17698.72
613.149	17958.81
613.344	18044.82
613.539	18057.11
613.735	17938.33
613.93	18087.83
614.126	17842.07
614.321	18165.65
614.517	17942.42
614.712	17680.28
614.907	17641.37
615.103	17684.38
615.298	17571.74
615.493	17706.91
615.688	17354.66
615.884	17749.92
616.079	17633.18
616.274	17606.56
616.47	17627.04
616.665	17545.12
616.86	17418.14
617.055	17342.37
617.25	17125.29
617.445	17479.58
617.641	17207.2
617.836	17211.3
618.031	17072.04
618.226	17364.9
618.421	16983.98
618.616	17123.24
618.811	16961.45
619.006	17102.76
619.201	16732.08
619.396	16861.1
619.591	16373.68
619.786	16748.46
619.981	16508.85
620.176	16930.73
620.371	16474.03
620.566	16791.47
620.761	16506.8
620.956	16269.23
621.151	16043.96
621.346	16314.29
621.541	15912.89
621.735	16279.47
621.93	15929.27
622.125	16017.33
622.32	15749.05
622.515	15966.14
622.709	15562.69
622.904	15706.04
623.099	15448
623.294	15484.86
623.488	15329.22
623.683	15536.06
623.878	15169.48
624.072	15181.76
624.267	14968.77
624.462	15015.88
624.656	14956.49
624.851	14956.49
625.046	15042.5
625.24	14827.46
625.435	14665.67
625.629	14673.87
625.824	14518.22
626.018	14131.16
626.213	13916.12
626.407	14243.79
626.602	14118.87
626.796	14102.48
626.991	14151.63
627.185	13952.98
627.38	13948.89
627.574	13506.52
627.768	13608.92
627.963	13787.1
628.157	13524.96
628.352	13869.02
628.546	13434.85
628.74	13582.3
628.935	13416.41
629.129	13357.02
629.323	13098.98
629.517	12988.39
629.712	13139.94
629.906	13182.95
630.1	12687.34
630.294	12877.8
630.489	12996.58
630.683	12752.87
630.877	12658.67
631.071	12642.28
631.265	12658.67
631.459	12593.13
631.653	12316.65
631.848	12384.24
632.042	12341.23
632.236	12314.61
632.43	12130.29
632.624	12191.73
632.818	12183.54
633.012	11882.49
633.206	11982.84
633.4	12056.56
633.594	11841.53
633.788	11706.36
633.982	11954.16
634.176	11528.19
634.369	11634.68
634.563	11577.34
634.757	11474.94
634.951	11583.48
635.145	11309.05
635.339	11556.86
635.533	11165.7
635.726	11362.3
635.92	11198.46
636.114	11331.58
636.308	11204.61
636.501	11245.57
636.695	11030.53
636.889	10971.14
637.083	10690.57
637.276	10680.33
637.47	10606.6
637.664	10539.02
637.857	10582.03
638.051	10692.62
638.244	10489.87
638.438	10559.5
638.632	10473.48
638.825	10321.93
639.019	10401.8
639.212	10145.81
639.406	10041.36
639.599	10252.3
639.793	10074.13
639.986	9867.28
640.18	9941.01
640.373	9900.05
640.567	10016.79
640.76	9943.06
640.954	9844.76
641.147	9883.67
641.34	9650.2
641.534	9666.58
641.727	9572.38
641.92	9416.73
642.114	9472.03
642.307	9533.47
642.5	9279.52
642.694	9275.42
642.887	9349.15
643.08	9345.05
643.273	9222.17
643.467	9271.33
643.66	9250.85
643.853	9119.78
644.046	8943.65
644.239	9148.45
644.432	8822.82
644.626	8988.71
644.819	8820.77
645.012	8798.24
645.205	8847.4
645.398	8818.72
645.591	8712.23
645.784	8697.89
645.977	8554.54
646.17	8548.39
646.363	8513.58
646.556	8407.08
646.749	8497.19
646.942	8613.93
647.135	8509.48
647.328	8423.47
647.521	8222.77
647.714	8366.12
647.907	8101.94
648.099	8136.75
648.292	8163.37
648.485	8280.11
648.678	7864.37
648.871	7876.66
649.064	7835.7
649.256	7968.82
649.449	7837.75
649.642	7856.18
649.835	7829.56
650.027	7704.63
650.22	7821.36
650.413	7813.17
650.605	7788.6
650.798	7639.09
650.991	7499.83
651.183	7508.02
651.376	7426.11
651.568	7551.03
651.761	7516.22
651.954	7415.87
652.146	7219.26
652.339	7344.19
652.531	7231.55
652.724	7192.64
652.916	7274.56
653.109	7131.2
653.301	7172.16
653.494	7284.8
653.686	7071.81
653.879	7080
654.071	6950.98
654.263	6926.4
654.456	6895.68
654.648	6985.79
654.84	6993.98
655.033	6832.19
655.225	6711.36
655.417	6707.27
655.61	6715.46
655.802	6819.91
655.994	6629.45
656.186	6701.12
656.379	6479.94
656.571	6643.78
656.763	6465.61
656.955	6385.74
657.148	6328.39
657.34	6592.58
657.532	6269
657.724	6395.98
657.916	6537.29
658.108	6367.31
658.3	6111.31
658.492	6256.72
658.684	6060.11
658.876	6094.93
659.068	6160.46
659.26	6139.98
659.452	6047.82
659.644	6121.55
659.836	5834.83
660.028	6080.59
660.22	5996.62
660.412	5931.09
660.604	5845.07
660.796	5824.59
660.988	5820.5
661.18	5740.63
661.372	5816.4
661.563	5865.55
661.755	5683.28
661.947	5718.1
662.139	5711.96
662.331	5646.42
662.522	5525.59
662.714	5632.08
662.906	5527.64
663.097	5429.34
663.289	5595.22
663.481	5474.39
663.673	5240.92
663.864	5572.69
664.056	5363.8
664.247	5468.25
664.439	5300.31
664.631	5277.79
664.822	5230.68
665.014	5374.04
665.205	5331.03
665.397	5191.77
665.588	5224.54
665.78	5183.58
665.971	5122.14
666.163	5113.95
666.354	5075.04
666.546	5042.27
666.737	5134.43
666.929	5118.04
667.12	4984.93
667.311	5029.98
667.503	5044.32
667.694	4896.86
667.885	4771.94
668.077	4831.33
668.268	4798.56
668.459	4923.49
668.651	4741.22
668.842	4855.9
669.033	4786.27
669.224	4722.79
669.416	4839.52
669.607	4606.05
669.798	4677.73
669.989	4739.17
670.18	4681.83
670.371	4649.06
670.563	4767.84
670.754	4651.11
670.945	4587.62
671.136	4542.57
671.327	4550.76
671.518	4628.58
671.709	4599.91
671.9	4450.41
672.091	4550.76
672.282	4610.15
672.473	4434.02
672.664	4423.78
672.855	4454.5
673.046	4341.86
673.237	4380.78
673.428	4380.78
673.619	4243.56
673.809	4274.28
674	4288.62
674.191	4335.72
674.382	4112.49
674.573	4218.99
674.764	4239.47
674.954	4337.77
675.145	4210.79
675.336	4151.4
675.527	4192.36
675.717	4198.51
675.908	4212.84
676.099	4114.54
676.289	4059.24
676.48	4100.2
676.671	4120.68
676.861	4241.51
677.052	4038.77
677.243	4055.15
677.433	4061.29
677.624	3995.76
677.814	4032.62
678.005	4024.43
678.195	4112.49
678.386	3895.41
678.576	3913.84
678.767	3823.73
678.957	4010.09
679.148	3905.65
679.338	3917.93
679.529	3905.65
679.719	3922.03
679.909	3778.67
680.1	3831.92
680.29	3979.37
680.481	3856.5
680.671	3883.12
680.861	3876.98
681.052	3772.53
681.242	3799.15
681.432	3895.41
681.622	3829.87
681.813	3879.02
682.003	3774.58
682.193	3684.47
682.383	3694.71
682.573	3862.64
682.764	3903.6
682.954	3686.51
683.144	3756.15
683.334	3807.34
683.524	3657.84
683.714	3741.81
683.904	3805.3
684.094	3797.1
684.284	3729.52
684.474	3666.03
684.664	3655.79
684.854	3543.16
685.044	3623.03
685.234	3532.92
685.424	3807.34
685.614	3559.54
685.804	3473.53
685.994	3563.64
686.184	3508.34
686.374	3422.33
686.564	3602.55
686.753	3494.01
686.943	3395.7
687.133	3494.01
687.323	3516.53
687.513	3485.81
687.702	3512.44
687.892	3379.32
688.082	3338.36
688.272	3342.46
688.461	3242.11
688.651	3469.43
688.841	3364.98
689.03	3268.73
689.22	3281.02
689.41	3235.96
689.599	3338.36
689.789	3213.43
689.979	3328.12
690.168	3293.3
690.358	3176.57
690.547	3174.52
690.737	3229.82
690.926	3192.95
691.116	3094.65
691.305	3184.76
691.495	3154.04
691.684	3190.91
691.874	3098.75
692.063	3088.51
692.252	3074.17
692.442	3082.36
692.631	3016.83
692.82	3055.74
693.01	2963.58
693.199	3108.99
693.388	3059.84
693.578	2992.25
693.767	2951.29
693.956	2891.9
694.146	2885.76
694.335	2850.94
694.524	3010.68
694.713	2932.86
694.902	2822.27
695.092	2889.85
695.281	2760.83
695.47	2726.02
695.659	2750.59
695.848	2832.51
696.037	2846.85
696.226	2840.7
696.415	2781.31
696.604	2717.83
696.793	2658.43
696.982	2658.43
697.171	2738.3
697.36	2748.54
697.549	2730.11
697.738	2693.25
697.927	2699.39
698.116	2734.21
698.305	2629.76
698.494	2640
698.683	2668.67
698.872	2707.59
699.061	2668.67
699.25	2764.93
699.438	2635.91
699.627	2742.4
699.816	2674.82
700.005	2590.85
700.193	2656.39
700.382	2564.23
700.571	2738.3
700.76	2576.52
700.948	2691.2
701.137	2623.62
701.326	2635.91
701.514	2525.32
701.703	2678.91
701.892	2478.21
702.08	2592.9
702.269	2605.19
702.457	2549.89
702.646	2693.25
702.834	2582.66
703.023	2533.51
703.212	2594.95
703.4	2447.49
703.589	2459.78
703.777	2592.9
703.965	2486.4
704.154	2678.91
704.342	2480.26
704.531	2582.66
704.719	2525.32
704.907	2482.31
705.096	2381.96
705.284	2377.86
705.472	2578.56
705.661	2543.75
705.849	2644.1
706.037	2637.95
706.226	2523.27
706.414	2476.16
706.602	2492.55
706.79	2629.76
706.979	2506.88
707.167	2570.37
707.355	2429.06
707.543	2517.12
707.731	2525.32
707.919	2515.08
708.107	2517.12
708.296	2527.36
708.484	2375.81
708.672	2504.84
708.86	2541.7
709.048	2433.16
709.236	2556.04
709.424	2484.36
709.612	2488.45
709.8	2408.58
709.988	2515.08
710.176	2521.22
710.364	2568.32
710.551	2502.79
710.739	2412.68
710.927	2484.36
711.115	2453.64
711.303	2543.75
711.491	2551.94
711.679	2521.22
711.866	2666.63
712.054	2486.4
712.242	2525.32
712.43	2435.21
712.617	2508.93
712.805	2435.21
712.993	2484.36
713.181	2535.56
713.368	2453.64
713.556	2463.88
713.744	2527.36
713.931	2500.74
714.119	2424.97
714.306	2447.49
714.494	2394.25
714.682	2459.78
714.869	2449.54
715.057	2541.7
715.244	2527.36
715.432	2455.69
715.619	2476.16
715.807	2351.24
715.994	2504.84
716.182	2437.25
716.369	2510.98
716.556	2510.98
716.744	2486.4
716.931	2476.16
717.119	2633.86
717.306	2560.13
717.493	2586.76
717.681	2345.09
717.868	2535.56
718.055	2424.97
718.242	2463.88
718.43	2498.69
718.617	2441.35
718.804	2586.76
718.991	2418.82
719.179	2472.07
719.366	2433.16
719.553	2498.69
719.74	2484.36
719.927	2539.65
720.114	2463.88
720.301	2443.4
720.488	2486.4
720.676	2494.6
720.863	2633.86
721.05	2490.5
721.237	2545.8
721.424	2379.91
721.611	2533.51
721.798	2539.65
721.985	2504.84
722.172	2318.47
722.358	2420.87
722.545	2371.72
722.732	2441.35
722.919	2562.18
723.106	2379.91
723.293	2492.55
723.48	2556.04
723.667	2336.9
723.853	2525.32
724.04	2453.64
724.227	2480.26
724.414	2467.97
724.6	2439.3
724.787	2504.84
724.974	2422.92
725.161	2402.44
725.347	2373.77
725.534	2547.84
725.72	2519.17
725.907	2482.31
726.094	2494.6
726.28	2539.65
726.467	2375.81
726.653	2416.77
726.84	2513.03
727.027	2486.4
727.213	2361.48
727.4	2381.96
727.586	2494.6
727.773	2435.21
727.959	2398.34
728.145	2506.88
728.332	2435.21
728.518	2541.7
728.705	2463.88
728.891	2400.39
729.077	2453.64
729.264	2500.74
729.45	2470.02
729.636	2539.65
729.823	2486.4
730.009	2478.21
730.195	2447.49
730.382	2476.16
730.568	2463.88
730.754	2461.83
730.94	2361.48
731.126	2527.36
731.313	2439.3
731.499	2461.83
731.685	2527.36
731.871	2451.59
732.057	2363.53
732.243	2398.34
732.429	2439.3
732.615	2580.61
732.801	2412.68
732.987	2459.78
733.173	2424.97
733.359	2359.43
733.545	2472.07
733.731	2381.96
733.917	2441.35
734.103	2547.84
734.289	2439.3
734.475	2392.2
734.661	2445.45
734.847	2449.54
735.033	2353.29
735.219	2463.88
735.404	2371.72
735.59	2367.62
735.776	2422.92
735.962	2416.77
736.148	2416.77
736.333	2328.71
736.519	2361.48
736.705	2433.16
736.89	2373.77
737.076	2410.63
737.262	2330.76
737.447	2478.21
737.633	2314.38
737.819	2427.01
738.004	2334.86
738.19	2359.43
738.375	2408.58
738.561	2359.43
738.747	2314.38
738.932	2336.9
739.118	2365.57
739.303	2308.23
739.489	2271.37
739.674	2254.98
739.859	2312.33
740.045	2304.14
740.23	2236.55
740.416	2152.59
740.601	2377.86
740.786	2273.42
740.972	2275.46
741.157	2248.84
741.342	2338.95
741.528	2361.48
741.713	2171.02
741.898	2226.31
742.084	2193.55
742.269	2293.9
742.454	2162.83
742.639	2216.07
742.824	2199.69
743.01	2209.93
743.195	2207.88
743.38	2123.91
743.565	2162.83
743.75	2209.93
743.935	2134.15
744.12	2085
744.305	2218.12
744.49	2142.35
744.675	2181.26
744.86	2103.43
745.045	2095.24
745.23	2111.63
745.415	2150.54
745.6	2070.67
745.785	2123.91
745.97	2142.35
746.155	2111.63
746.34	2117.77
746.525	1943.69
746.71	2060.43
746.895	2042
747.079	1994.89
747.264	2009.23
747.449	1964.17
747.634	1894.54
747.819	1960.08
748.003	1974.41
748.188	1984.65
748.373	1945.74
748.557	1958.03
748.742	1890.45
748.927	1849.49
749.111	1902.73
749.296	1921.17
749.481	1843.34
749.665	1810.58
749.85	1771.66
750.034	1824.91
750.219	1808.53
750.404	1845.39
750.588	1771.66
750.773	1824.91
750.957	1659.03
751.141	1767.57
751.326	1732.75
751.51	1822.86
751.695	1679.51
751.879	1628.31
752.064	1716.37
752.248	1599.63
752.432	1718.42
752.617	1656.98
752.801	1745.04
752.985	1640.59
753.17	1634.45
753.354	1587.35
753.538	1544.34
753.722	1704.08
753.907	1599.63
754.091	1480.85
754.275	1605.78
754.459	1556.63
754.643	1521.81
754.828	1519.76
755.012	1493.14
755.196	1472.66
755.38	1415.32
755.564	1499.28
755.748	1468.56
755.932	1527.96
756.116	1560.72
756.3	1495.19
756.484	1364.12
756.668	1435.8
756.852	1441.94
757.036	1353.88
757.22	1370.26
757.404	1362.07
757.588	1331.35
757.772	1376.41
757.956	1390.74
758.14	1423.51
758.323	1327.25
758.507	1319.06
758.691	1372.31
758.875	1249.43
759.059	1288.34
759.242	1280.15
759.426	1249.43
759.61	1261.72
759.794	1202.33
759.977	1290.39
760.161	1398.93
760.345	1263.77
760.528	1259.67
760.712	1237.14
760.895	1261.72
761.079	1169.56
761.263	1257.62
761.446	1208.47
761.63	1271.96
761.813	1210.52
761.997	1233.05
762.18	1202.33
762.364	1079.45
762.547	1118.36
762.731	1093.79
762.914	1198.23
763.098	1044.63
763.281	1061.02
763.464	1181.85
763.648	1081.5
763.831	1054.87
764.015	1079.45
764.198	1108.12
764.381	1065.11
764.564	1083.55
764.748	1104.03
764.931	1185.94
765.114	962.72
765.297	1114.27
765.481	1083.55
765.664	1038.49
765.847	1097.88
766.03	1077.4
766.213	1061.02
766.397	1011.87
766.58	987.29
766.763	1054.87
766.946	1058.97
767.129	995.48
767.312	954.52
767.495	989.34
767.678	1013.92
767.861	985.24
768.044	1036.44
768.227	1007.77
768.41	989.34
768.593	1020.06
768.776	925.85
768.959	1009.82
769.142	919.71
769.324	903.32
769.507	1075.35
769.69	972.96
769.873	923.8
770.056	950.43
770.239	966.81
770.421	997.53
770.604	944.28
770.787	972.96
770.97	882.85
771.152	940.19
771.335	932
771.518	897.18
771.7	923.8
771.883	925.85
772.066	911.52
772.248	843.93
772.431	872.61
772.613	929.95
772.796	868.51
772.978	755.87
773.161	888.99
773.343	800.93
773.526	907.42
773.708	839.84
773.891	782.49
774.073	745.63
774.256	790.69
774.438	831.65
774.621	815.26
774.803	852.13
774.985	794.78
775.168	802.97
775.35	811.17
775.532	817.31
775.715	688.29
775.897	786.59
776.079	753.82
776.261	743.58
776.444	815.26
776.626	694.43
776.808	714.91
776.99	716.96
777.173	719.01
777.355	706.72
777.537	620.71
777.719	676
777.901	628.9
778.083	757.92
778.265	700.58
778.447	678.05
778.629	635.04
778.811	704.67
778.993	643.23
779.175	626.85
779.357	657.57
779.539	657.57
779.721	655.52
779.903	626.85
780.085	663.71
780.267	671.9
780.449	598.18
780.631	639.14
780.812	706.72
780.994	676
781.176	620.71
781.358	540.83
781.54	571.55
781.721	592.03
781.903	602.27
782.085	575.65
782.267	606.37
782.448	553.12
782.63	477.35
782.812	546.98
782.993	532.64
783.175	551.07
783.357	518.31
783.538	592.03
783.72	520.35
783.901	503.97
784.083	555.17
784.264	503.97
784.446	549.03
784.627	485.54
784.809	506.02
784.99	555.17
785.172	536.74
785.353	506.02
785.535	469.16
785.716	555.17
785.897	397.48
786.079	532.64
786.26	471.2
786.441	397.48
786.623	417.96
786.804	497.83
786.985	450.72
787.167	458.92
787.348	450.72
787.529	477.35
787.71	391.33
787.891	452.77
788.073	458.92
788.254	411.81
788.435	374.95
788.616	405.67
788.797	436.39
788.978	487.59
789.159	385.19
789.34	430.24
789.522	333.99
789.703	401.57
789.884	450.72
790.065	317.61
790.246	405.67
790.427	387.24
790.607	409.76
790.788	348.33
790.969	438.44
791.15	438.44
791.331	323.75
791.512	348.33
791.693	383.14
791.874	385.19
792.054	415.91
792.235	340.13
792.416	333.99
792.597	385.19
792.778	379.04
792.958	413.86
793.139	348.33
793.32	391.33
793.5	362.66
793.681	352.42
793.862	362.66
794.042	309.41
794.223	331.94
794.404	317.61
794.584	288.93
794.765	323.75
794.945	305.32
795.126	362.66
795.306	340.13
795.487	364.71
795.667	295.08
795.848	258.21
796.028	295.08
796.209	276.65
796.389	241.83
796.57	272.55
796.75	299.17
796.93	247.97
797.111	282.79
797.291	262.31
797.471	317.61
797.652	293.03
797.832	305.32
798.012	217.26
798.192	346.28
798.373	237.74
798.553	288.93
798.733	364.71
798.913	284.84
799.093	290.98
799.274	329.89
799.454	231.59
799.634	207.02
799.814	344.23
799.994	266.41
800.174	229.54
800.354	268.45
800.534	141.48
800.714	260.26
800.894	239.78
801.074	178.34
801.254	215.21
801.434	243.88
801.614	266.41
801.794	272.55
801.974	645.28
802.154	282.79
802.334	301.22
802.514	190.63
802.693	227.5
802.873	258.21
803.053	262.31
803.233	166.06
803.413	186.54
803.592	207.02
803.772	202.92
803.952	270.5
804.131	223.4
804.311	280.74
804.491	250.02
804.67	211.11
804.85	151.72
805.03	309.41
805.209	268.45
805.389	213.16
805.568	204.97
805.748	166.06
805.928	200.87
806.107	139.43
806.287	209.06
806.466	235.69
806.646	116.9
806.825	194.73
807.004	178.34
807.184	211.11
807.363	321.7
807.543	227.5
807.722	202.92
807.901	207.02
808.081	221.35
808.26	198.82
808.439	247.97
808.619	174.25
808.798	194.73
808.977	145.58
809.156	260.26
809.336	157.86
809.515	204.97
809.694	217.26
809.873	184.49
810.052	241.83
810.231	229.54
810.411	190.63
810.59	264.36
810.769	155.82
810.948	209.06
811.127	217.26
811.306	184.49
811.485	170.15
811.664	188.58
811.843	104.62
812.022	202.92
812.201	125.1
812.38	174.25
812.559	225.45
812.737	141.48
812.916	180.39
813.095	161.96
813.274	151.72
813.453	127.14
813.632	198.82
813.811	149.67
813.989	16.55
814.168	186.54
814.347	92.33
814.526	145.58
814.704	184.49
814.883	174.25
815.062	239.78
815.24	184.49
815.419	127.14
815.598	202.92
815.776	88.23
815.955	125.1
816.133	157.86
816.312	125.1
816.49	149.67
816.669	104.62
816.847	180.39
817.026	104.62
817.204	159.91
817.383	155.82
817.561	155.82
817.74	116.9
817.918	198.82
818.097	186.54
818.275	186.54
818.453	223.4
818.632	198.82
818.81	110.76
818.988	75.95
819.167	102.57
819.345	110.76
819.523	176.3
819.701	164.01
819.879	176.3
820.058	88.23
820.236	135.34
820.414	192.68
820.592	131.24
820.77	155.82
820.948	116.9
821.127	92.33
821.305	157.86
821.483	194.73
821.661	192.68
821.839	157.86
822.017	121
822.195	55.47
822.373	123.05
822.551	127.14
822.729	133.29
822.907	147.62
823.085	127.14
823.262	-10.07
823.44	92.33
823.618	-20.31
823.796	178.34
823.974	90.28
824.152	121
824.329	57.51
824.507	110.76
824.685	143.53
824.863	110.76
825.04	55.47
825.218	116.9
825.396	151.72
825.574	145.58
825.751	73.9
825.929	188.58
826.107	149.67
826.284	59.56
826.462	112.81
826.639	84.14
826.817	106.67
826.994	82.09
827.172	57.51
827.349	98.47
827.527	141.48
827.704	121
827.882	127.14
828.059	116.9
828.237	67.75
828.414	151.72
828.591	139.43
828.769	106.67
828.946	121
829.124	131.24
829.301	114.86
829.478	84.14
829.655	82.09
829.833	121
830.01	43.18
830.187	96.43
830.364	104.62
830.542	129.19
830.719	96.43
830.896	108.71
831.073	94.38
831.25	80.04
831.427	92.33
831.604	125.1
831.782	43.18
831.959	143.53
832.136	127.14
832.313	133.29
832.49	8.36
832.667	73.9
832.844	84.14
833.021	125.1
833.198	139.43
833.374	123.05
833.551	104.62
833.728	125.1
833.905	84.14
834.082	100.52
834.259	106.67
834.436	127.14
834.612	24.75
834.789	155.82
834.966	82.09
835.143	55.47
835.319	10.41
835.496	71.85
835.673	39.08
835.85	82.09
836.026	86.19
836.203	84.14
836.38	45.23
836.556	30.89
836.733	14.51
836.909	86.19
837.086	39.08
837.262	-26.45
837.439	92.33
837.616	73.9
837.792	43.18
837.968	69.8
838.145	16.55
838.321	26.79
838.498	139.43
838.674	90.28
838.851	53.42
839.027	57.51
839.203	49.32
839.38	2.22
839.556	-40.79
839.732	55.47
839.909	65.71
840.085	98.47
840.261	86.19
840.437	53.42
840.614	16.55
840.79	88.23
840.966	98.47
841.142	26.79
841.318	32.94
841.494	86.19
841.671	47.27
841.847	47.27
842.023	-3.93
842.199	53.42
842.375	96.43
842.551	65.71
842.727	59.56
842.903	63.66
843.079	57.51
843.255	96.43
843.431	59.56
843.607	71.85
843.783	-1.88
843.959	-16.21
844.134	37.03
844.31	49.32
844.486	-5.97
844.662	49.32
844.838	28.84
845.013	92.33
845.189	96.43
845.365	-12.12
845.541	47.27
845.716	30.89
845.892	77.99
846.068	51.37
846.244	61.61
846.419	24.75
846.595	57.51
846.77	-42.84
846.946	77.99
847.122	90.28
847.297	-20.31
847.473	82.09
847.648	49.32
847.824	55.47
847.999	14.51
848.175	28.84
848.35	73.9
848.526	51.37
848.701	51.37
848.876	84.14
849.052	92.33
849.227	98.47
849.403	57.51
849.578	61.61
849.753	-16.21
849.929	8.36
850.104	-16.21
850.279	90.28
850.454	106.67
850.63	43.18
850.805	82.09
850.98	37.03
851.155	30.89
851.33	24.75
851.505	-24.4
851.681	-5.97
851.856	32.94
852.031	28.84
852.206	-20.31
852.381	82.09
852.556	37.03
852.731	10.41
852.906	51.37
853.081	-3.93
853.256	69.8
853.431	-20.31
853.606	59.56
853.781	16.55
853.956	10.41
854.131	20.65
854.305	22.7
854.48	12.46
854.655	32.94
854.83	-12.12
855.005	4.27
855.18	41.13
855.354	0.17
855.529	24.75
855.704	53.42
855.879	-20.31
856.053	-5.97
856.228	80.04
856.403	-73.56
856.577	63.66
856.752	4.27
856.926	43.18
857.101	18.6
857.276	55.47
857.45	18.6
857.625	43.18
857.799	18.6
857.974	39.08
858.148	37.03
858.323	90.28
858.497	12.46
858.672	28.84
858.846	30.89
859.02	24.75
859.195	-20.31
859.369	121
859.543	53.42
859.718	8.36
859.892	-20.31
860.066	-18.26
860.241	10.41
860.415	86.19
860.589	57.51
860.763	8.36
860.938	28.84
861.112	90.28
861.286	32.94
861.46	18.6
861.634	47.27
861.808	41.13
861.982	16.55
862.157	-3.93
862.331	20.65
862.505	28.84
862.679	63.66
862.853	28.84
863.027	41.13
863.201	77.99
863.375	55.47
863.549	86.19
863.722	32.94
863.896	82.09
864.07	57.51
864.244	-10.07
864.418	57.51
864.592	24.75
864.766	43.18
864.939	53.42
865.113	-18.26
865.287	88.23
865.461	34.99
865.634	-32.6
865.808	39.08
865.982	30.89
866.156	-26.45
866.329	32.94
866.503	49.32
866.676	39.08
866.85	37.03
867.024	-44.88
867.197	30.89
867.371	39.08
867.544	43.18
867.718	28.84
867.891	96.43
868.065	8.36
868.238	-1.88
868.412	53.42
868.585	59.56
868.759	30.89
868.932	0.17
869.105	26.79
869.279	51.37
869.452	-12.12
869.625	-34.64
869.799	53.42
869.972	4.27
870.145	8.36
870.319	22.7
870.492	-32.6
870.665	14.51
870.838	53.42
871.011	16.55
871.185	-5.97
871.358	-83.8
871.531	12.46
871.704	-79.7
871.877	-1.88
872.05	-5.97
872.223	-30.55
872.396	2.22
872.569	26.79
872.742	2.22
872.915	32.94
873.088	0.17
873.261	6.31
873.434	45.23
873.607	-34.64
873.78	61.61
873.953	4.27
874.126	61.61
874.299	-28.5
874.471	-3.93
874.644	18.6
874.817	2.22
874.99	67.75
875.163	32.94
875.335	22.7
875.508	45.23
875.681	14.51
875.853	-30.55
876.026	59.56
876.199	90.28
876.371	26.79
876.544	-14.17
876.717	20.65
876.889	-1.88
877.062	37.03
877.234	-3.93
877.407	-40.79
877.579	-34.64
877.752	34.99
877.924	14.51
878.097	10.41
878.269	-32.6
878.442	63.66
878.614	14.51
878.786	16.55
878.959	28.84
879.131	8.36
879.303	55.47
879.476	41.13
879.648	-12.12
879.82	2.22
879.993	-85.84
880.165	-34.64
880.337	-16.21
880.509	-5.97
880.681	-69.46
880.854	22.7
881.026	-22.36
881.198	67.75
881.37	10.41
881.542	-3.93
881.714	12.46
881.886	14.51
882.058	-48.98
882.23	-10.07
882.402	-5.97
882.574	57.51
882.746	30.89
882.918	65.71
883.09	24.75
883.262	55.47
883.434	-1.88
883.606	32.94
883.778	43.18
883.95	84.14
884.122	-10.07
884.293	-1.88
884.465	-8.02
884.637	39.08
884.809	116.9
884.98	-40.79
885.152	-30.55
885.324	106.67
885.496	-57.17
885.667	-26.45
885.839	-32.6
886.011	8.36
886.182	8.36
886.354	4.27
886.525	4.27
886.697	28.84
886.869	6.31
887.04	-18.26
887.212	53.42
887.383	-8.02
887.555	45.23
887.726	-20.31
887.897	-57.17
888.069	-48.98
888.24	-18.26
888.412	88.23
888.583	24.75
888.754	34.99
888.926	-10.07
889.097	43.18
889.268	16.55
889.44	-59.22
889.611	-26.45
889.782	-8.02
889.953	6.31
890.125	12.46
890.296	-40.79
890.467	10.41
890.638	-8.02
890.809	94.38
890.98	43.18
891.151	39.08
891.323	41.13
891.494	41.13
891.665	-20.31
891.836	6.31
892.007	30.89
892.178	123.05
892.349	53.42
892.52	34.99
892.691	20.65
892.862	-3.93
893.032	16.55
893.203	22.7
893.374	30.89
893.545	24.75
893.716	-51.03
893.887	-5.97
894.057	-53.08
894.228	-16.21
894.399	16.55
894.57	30.89
894.74	-36.69
894.911	10.41
895.082	20.65
895.253	57.51
895.423	-16.21
895.594	-24.4
895.764	-87.89
895.935	-26.45
896.106	-40.79
896.276	-3.93
896.447	-16.21
896.617	24.75
896.788	0.17
896.958	8.36
897.129	92.33
897.299	8.36
897.47	26.79
897.64	26.79
897.81	-26.45
897.981	20.65
898.151	75.95
898.322	28.84
898.492	73.9
898.662	-77.65
898.832	-40.79
899.003	10.41
899.173	20.65
899.343	-40.79
899.513	-5.97
