Data from USB4F104151__33__12-27-17-814.txt Node

Date: Fri Mar 14 12:27:17 EDT 2025
User: louis
Spectrometer: USB4F10415
Trigger mode: 4
Integration Time (sec): 2.000000E-2
Scans to average: 1
Electric dark correction enabled: true
Nonlinearity correction enabled: false
Boxcar width: 0
XAxis mode: Wavelengths
Number of Pixels in Spectrum: 3648
>>>>>Begin Spectral Data<<<<<
178.204	-97.11
178.424	-97.11
178.644	-97.11
178.864	-88.92
179.084	-56.15
179.304	3.24
179.524	17.58
179.744	-29.52
179.964	-7
180.184	-2.9
180.404	3.24
180.624	31.91
180.844	7.34
181.064	-17.24
181.283	-2.9
181.503	1.19
181.723	-4.95
181.943	25.77
182.163	60.59
182.383	-7
182.602	154.79
182.822	81.07
183.042	68.78
183.262	15.53
183.482	46.25
183.701	31.91
183.921	101.55
184.141	36.01
184.361	11.43
184.58	66.73
184.8	44.2
185.02	50.35
185.239	68.78
185.459	-45.91
185.679	38.06
185.898	-31.57
186.118	83.11
186.338	-11.09
186.557	52.39
186.777	-41.81
186.997	-19.29
187.216	68.78
187.436	74.92
187.655	17.58
187.875	44.2
188.095	-39.76
188.314	70.83
188.534	13.48
188.753	36.01
188.973	1.19
189.192	68.78
189.412	103.59
189.631	97.45
189.851	27.82
190.07	91.31
190.29	38.06
190.509	70.83
190.729	-31.57
190.948	79.02
191.168	167.08
191.387	-19.29
191.607	25.77
191.826	52.39
192.045	48.3
192.265	11.43
192.484	64.68
192.704	46.25
192.923	15.53
193.142	89.26
193.362	36.01
193.581	66.73
193.8	52.39
194.02	38.06
194.239	40.11
194.458	48.3
194.678	72.87
194.897	66.73
195.116	7.34
195.335	23.72
195.555	74.92
195.774	54.44
195.993	38.06
196.212	66.73
196.432	72.87
196.651	9.39
196.87	81.07
197.089	48.3
197.308	5.29
197.528	-2.9
197.747	11.43
197.966	-0.85
198.185	56.49
198.404	38.06
198.623	58.54
198.842	5.29
199.062	117.93
199.281	111.78
199.5	44.2
199.719	79.02
199.938	64.68
200.157	85.16
200.376	64.68
200.595	83.11
200.814	56.49
201.033	50.35
201.252	3.24
201.471	93.35
201.69	105.64
201.909	33.96
202.128	13.48
202.347	66.73
202.566	-15.19
202.785	7.34
203.004	-7
203.223	23.72
203.442	50.35
203.661	19.63
203.879	44.2
204.098	87.21
204.317	50.35
204.536	58.54
204.755	58.54
204.974	-17.24
205.193	50.35
205.411	11.43
205.63	15.53
205.849	52.39
206.068	60.59
206.287	58.54
206.505	50.35
206.724	91.31
206.943	99.5
207.162	-31.57
207.381	21.67
207.599	36.01
207.818	66.73
208.037	-11.09
208.255	-9.05
208.474	79.02
208.693	23.72
208.911	3.24
209.13	23.72
209.349	83.11
209.567	50.35
209.786	76.97
210.005	62.63
210.223	44.2
210.442	54.44
210.661	21.67
210.879	27.82
211.098	93.35
211.316	60.59
211.535	79.02
211.753	79.02
211.972	15.53
212.191	46.25
212.409	62.63
212.628	19.63
212.846	58.54
213.065	81.07
213.283	79.02
213.502	-13.14
213.72	126.12
213.938	89.26
214.157	60.59
214.375	13.48
214.594	83.11
214.812	-2.9
215.031	50.35
215.249	36.01
215.467	19.63
215.686	40.11
215.904	60.59
216.122	101.55
216.341	99.5
216.559	76.97
216.778	74.92
216.996	21.67
217.214	40.11
217.432	29.87
217.651	27.82
217.869	54.44
218.087	42.15
218.306	81.07
218.524	52.39
218.742	-23.38
218.96	46.25
219.179	79.02
219.397	81.07
219.615	60.59
219.833	70.83
220.051	31.91
220.27	101.55
220.488	17.58
220.706	95.4
220.924	15.53
221.142	87.21
221.36	52.39
221.578	15.53
221.796	5.29
222.015	7.34
222.233	5.29
222.451	48.3
222.669	9.39
222.887	81.07
223.105	44.2
223.323	79.02
223.541	101.55
223.759	122.02
223.977	68.78
224.195	-0.85
224.413	58.54
224.631	97.45
224.849	72.87
225.067	74.92
225.285	58.54
225.503	-31.57
225.721	124.07
225.939	68.78
226.157	68.78
226.375	165.03
226.592	19.63
226.81	31.91
227.028	58.54
227.246	115.88
227.464	-13.14
227.682	-2.9
227.9	74.92
228.117	40.11
228.335	-7
228.553	33.96
228.771	48.3
228.989	44.2
229.206	83.11
229.424	9.39
229.642	101.55
229.86	64.68
230.077	74.92
230.295	81.07
230.513	38.06
230.731	152.74
230.948	60.59
231.166	66.73
231.384	36.01
231.601	3.24
231.819	11.43
232.037	56.49
232.254	52.39
232.472	58.54
232.689	-13.14
232.907	105.64
233.125	44.2
233.342	-33.62
233.56	-11.09
233.777	19.63
233.995	79.02
234.213	54.44
234.43	60.59
234.648	60.59
234.865	-47.96
235.083	1.19
235.3	68.78
235.518	60.59
235.735	70.83
235.953	85.16
236.17	15.53
236.388	89.26
236.605	36.01
236.822	11.43
237.04	17.58
237.257	3.24
237.475	-17.24
237.692	93.35
237.909	76.97
238.127	11.43
238.344	72.87
238.562	85.16
238.779	62.63
238.996	27.82
239.214	33.96
239.431	81.07
239.648	-56.15
239.865	119.98
240.083	52.39
240.3	19.63
240.517	25.77
240.735	83.11
240.952	85.16
241.169	60.59
241.386	68.78
241.603	5.29
241.821	25.77
242.038	54.44
242.255	72.87
242.472	31.91
242.689	95.4
242.907	70.83
243.124	40.11
243.341	33.96
243.558	3.24
243.775	50.35
243.992	-66.39
244.209	27.82
244.426	-0.85
244.643	79.02
244.86	-25.43
245.078	142.5
245.295	76.97
245.512	95.4
245.729	46.25
245.946	19.63
246.163	29.87
246.38	25.77
246.597	40.11
246.814	42.15
247.031	29.87
247.248	36.01
247.464	15.53
247.681	40.11
247.898	70.83
248.115	3.24
248.332	38.06
248.549	-11.09
248.766	76.97
248.983	107.69
249.2	44.2
249.417	81.07
249.633	54.44
249.85	21.67
250.067	25.77
250.284	87.21
250.501	103.59
250.717	13.48
250.934	25.77
251.151	25.77
251.368	54.44
251.585	72.87
251.801	64.68
252.018	-37.72
252.235	89.26
252.451	36.01
252.668	23.72
252.885	36.01
253.102	95.4
253.318	23.72
253.535	74.92
253.752	29.87
253.968	70.83
254.185	117.93
254.401	27.82
254.618	48.3
254.835	-13.14
255.051	56.49
255.268	19.63
255.484	79.02
255.701	-31.57
255.917	-25.43
256.134	25.77
256.351	36.01
256.567	21.67
256.784	109.74
257	-31.57
257.217	64.68
257.433	44.2
257.65	62.63
257.866	38.06
258.082	23.72
258.299	62.63
258.515	60.59
258.732	-78.68
258.948	23.72
259.165	60.59
259.381	52.39
259.597	76.97
259.814	122.02
260.03	52.39
260.246	48.3
260.463	70.83
260.679	52.39
260.895	-27.48
261.112	89.26
261.328	23.72
261.544	48.3
261.761	54.44
261.977	66.73
262.193	21.67
262.409	25.77
262.626	58.54
262.842	111.78
263.058	60.59
263.274	25.77
263.49	46.25
263.707	42.15
263.923	31.91
264.139	54.44
264.355	50.35
264.571	89.26
264.787	-9.05
265.004	-7
265.22	140.46
265.436	66.73
265.652	-0.85
265.868	42.15
266.084	68.78
266.3	54.44
266.516	1.19
266.732	52.39
266.948	95.4
267.164	36.01
267.38	7.34
267.596	103.59
267.812	134.31
268.028	50.35
268.244	25.77
268.46	19.63
268.676	68.78
268.892	95.4
269.108	58.54
269.324	52.39
269.54	31.91
269.756	-19.29
269.972	25.77
270.188	70.83
270.403	-2.9
270.619	64.68
270.835	38.06
271.051	21.67
271.267	5.29
271.483	19.63
271.698	-15.19
271.914	68.78
272.13	31.91
272.346	58.54
272.562	62.63
272.777	74.92
272.993	101.55
273.209	13.48
273.425	17.58
273.64	7.34
273.856	83.11
274.072	66.73
274.287	56.49
274.503	83.11
274.719	62.63
274.934	33.96
275.15	40.11
275.366	56.49
275.581	9.39
275.797	27.82
276.012	29.87
276.228	54.44
276.444	64.68
276.659	38.06
276.875	64.68
277.09	-9.05
277.306	-21.33
277.521	31.91
277.737	3.24
277.952	50.35
278.168	48.3
278.383	74.92
278.599	48.3
278.814	52.39
279.03	54.44
279.245	29.87
279.461	-19.29
279.676	25.77
279.892	99.5
280.107	54.44
280.322	64.68
280.538	23.72
280.753	70.83
280.969	50.35
281.184	119.98
281.399	107.69
281.615	25.77
281.83	87.21
282.045	15.53
282.26	115.88
282.476	48.3
282.691	42.15
282.906	31.91
283.122	33.96
283.337	-41.81
283.552	91.31
283.767	76.97
283.983	83.11
284.198	29.87
284.413	85.16
284.628	68.78
284.843	79.02
285.058	68.78
285.274	21.67
285.489	7.34
285.704	93.35
285.919	40.11
286.134	13.48
286.349	111.78
286.564	27.82
286.779	42.15
286.995	58.54
287.21	72.87
287.425	68.78
287.64	-7
287.855	76.97
288.07	5.29
288.285	23.72
288.5	70.83
288.715	52.39
288.93	19.63
289.145	27.82
289.36	40.11
289.575	52.39
289.79	15.53
290.004	36.01
290.219	36.01
290.434	93.35
290.649	72.87
290.864	17.58
291.079	17.58
291.294	85.16
291.509	72.87
291.724	17.58
291.938	58.54
292.153	103.59
292.368	54.44
292.583	13.48
292.798	46.25
293.012	70.83
293.227	56.49
293.442	60.59
293.657	85.16
293.871	72.87
294.086	56.49
294.301	50.35
294.516	93.35
294.73	54.44
294.945	31.91
295.16	29.87
295.374	87.21
295.589	76.97
295.804	23.72
296.018	5.29
296.233	48.3
296.447	50.35
296.662	23.72
296.877	101.55
297.091	11.43
297.306	36.01
297.52	27.82
297.735	13.48
297.949	85.16
298.164	83.11
298.378	36.01
298.593	23.72
298.807	60.59
299.022	-21.33
299.236	95.4
299.451	48.3
299.665	-15.19
299.88	-43.86
300.094	62.63
300.309	79.02
300.523	62.63
300.737	64.68
300.952	68.78
301.166	19.63
301.381	38.06
301.595	56.49
301.809	62.63
302.024	87.21
302.238	7.34
302.452	93.35
302.667	91.31
302.881	101.55
303.095	56.49
303.309	-23.38
303.524	85.16
303.738	79.02
303.952	9.39
304.166	83.11
304.381	-7
304.595	21.67
304.809	25.77
305.023	38.06
305.237	50.35
305.452	76.97
305.666	36.01
305.88	74.92
306.094	60.59
306.308	85.16
306.522	29.87
306.736	122.02
306.95	38.06
307.164	130.22
307.379	25.77
307.593	138.41
307.807	64.68
308.021	42.15
308.235	42.15
308.449	74.92
308.663	42.15
308.877	48.3
309.091	68.78
309.305	76.97
309.519	79.02
309.733	58.54
309.947	42.15
310.161	9.39
310.374	128.17
310.588	144.55
310.802	25.77
311.016	56.49
311.23	122.02
311.444	33.96
311.658	70.83
311.872	132.26
312.085	105.64
312.299	21.67
312.513	124.07
312.727	-9.05
312.941	62.63
313.154	72.87
313.368	66.73
313.582	33.96
313.796	46.25
314.009	85.16
314.223	44.2
314.437	21.67
314.651	68.78
314.864	-0.85
315.078	101.55
315.292	60.59
315.505	-21.33
315.719	48.3
315.933	40.11
316.146	115.88
316.36	-9.05
316.573	44.2
316.787	68.78
317.001	19.63
317.214	-2.9
317.428	103.59
317.641	40.11
317.855	70.83
318.068	17.58
318.282	58.54
318.495	62.63
318.709	38.06
318.922	85.16
319.136	72.87
319.349	76.97
319.563	50.35
319.776	62.63
319.99	117.93
320.203	33.96
320.417	60.59
320.63	134.31
320.843	89.26
321.057	52.39
321.27	7.34
321.483	107.69
321.697	113.83
321.91	64.68
322.124	29.87
322.337	134.31
322.55	62.63
322.763	99.5
322.977	68.78
323.19	50.35
323.403	27.82
323.617	-11.09
323.83	52.39
324.043	93.35
324.256	60.59
324.469	3.24
324.683	38.06
324.896	36.01
325.109	46.25
325.322	72.87
325.535	66.73
325.748	-0.85
325.962	25.77
326.175	107.69
326.388	60.59
326.601	111.78
326.814	103.59
327.027	42.15
327.24	142.5
327.453	17.58
327.666	56.49
327.879	66.73
328.092	-0.85
328.305	66.73
328.518	-0.85
328.731	-25.43
328.944	101.55
329.157	68.78
329.37	21.67
329.583	85.16
329.796	136.36
330.009	44.2
330.222	138.41
330.435	25.77
330.648	70.83
330.861	48.3
331.073	87.21
331.286	-13.14
331.499	89.26
331.712	46.25
331.925	1.19
332.138	56.49
332.35	93.35
332.563	40.11
332.776	91.31
332.989	56.49
333.202	72.87
333.414	-15.19
333.627	23.72
333.84	38.06
334.053	76.97
334.265	21.67
334.478	5.29
334.691	87.21
334.903	48.3
335.116	42.15
335.329	60.59
335.541	117.93
335.754	146.6
335.966	76.97
336.179	93.35
336.392	91.31
336.604	60.59
336.817	148.65
337.029	87.21
337.242	13.48
337.454	107.69
337.667	87.21
337.88	56.49
338.092	70.83
338.305	79.02
338.517	13.48
338.729	21.67
338.942	11.43
339.154	85.16
339.367	50.35
339.579	3.24
339.792	7.34
340.004	52.39
340.217	113.83
340.429	85.16
340.641	17.58
340.854	15.53
341.066	33.96
341.278	83.11
341.491	128.17
341.703	72.87
341.915	31.91
342.128	105.64
342.34	83.11
342.552	66.73
342.764	95.4
342.977	7.34
343.189	21.67
343.401	40.11
343.613	54.44
343.826	13.48
344.038	-23.38
344.25	25.77
344.462	-35.67
344.674	52.39
344.886	72.87
345.099	83.11
345.311	17.58
345.523	89.26
345.735	21.67
345.947	87.21
346.159	81.07
346.371	33.96
346.583	-19.29
346.795	95.4
347.007	105.64
347.219	-29.52
347.431	87.21
347.643	119.98
347.855	21.67
348.067	44.2
348.279	62.63
348.491	89.26
348.703	79.02
348.915	44.2
349.127	-0.85
349.339	31.91
349.551	56.49
349.763	54.44
349.975	56.49
350.187	54.44
350.399	38.06
350.61	-37.72
350.822	-21.33
351.034	7.34
351.246	103.59
351.458	134.31
351.669	70.83
351.881	101.55
352.093	109.74
352.305	36.01
352.517	93.35
352.728	119.98
352.94	38.06
353.152	25.77
353.363	-19.29
353.575	38.06
353.787	-4.95
353.999	60.59
354.21	85.16
354.422	111.78
354.633	52.39
354.845	105.64
355.057	76.97
355.268	95.4
355.48	105.64
355.692	66.73
355.903	81.07
356.115	72.87
356.326	50.35
356.538	144.55
356.749	95.4
356.961	46.25
357.172	44.2
357.384	115.88
357.595	44.2
357.807	115.88
358.018	81.07
358.23	58.54
358.441	36.01
358.653	64.68
358.864	64.68
359.075	36.01
359.287	70.83
359.498	74.92
359.709	89.26
359.921	122.02
360.132	-37.72
360.344	52.39
360.555	60.59
360.766	7.34
360.977	83.11
361.189	109.74
361.4	15.53
361.611	105.64
361.823	62.63
362.034	81.07
362.245	58.54
362.456	93.35
362.667	76.97
362.879	13.48
363.09	76.97
363.301	101.55
363.512	76.97
363.723	3.24
363.935	29.87
364.146	56.49
364.357	72.87
364.568	17.58
364.779	5.29
364.99	74.92
365.201	31.91
365.412	99.5
365.623	1.19
365.834	21.67
366.045	52.39
366.256	-56.15
366.467	72.87
366.678	103.59
366.889	89.26
367.1	66.73
367.311	-23.38
367.522	76.97
367.733	44.2
367.944	70.83
368.155	15.53
368.366	62.63
368.577	72.87
368.788	68.78
368.999	79.02
369.209	44.2
369.42	81.07
369.631	48.3
369.842	21.67
370.053	38.06
370.264	74.92
370.474	38.06
370.685	105.64
370.896	33.96
371.107	89.26
371.317	74.92
371.528	74.92
371.739	152.74
371.95	83.11
372.16	54.44
372.371	58.54
372.582	66.73
372.792	105.64
373.003	-43.86
373.214	29.87
373.424	64.68
373.635	-7
373.846	66.73
374.056	81.07
374.267	136.36
374.477	99.5
374.688	91.31
374.898	62.63
375.109	-37.72
375.319	54.44
375.53	38.06
375.74	62.63
375.951	81.07
376.161	42.15
376.372	52.39
376.582	-35.67
376.793	62.63
377.003	66.73
377.214	68.78
377.424	91.31
377.635	38.06
377.845	56.49
378.055	36.01
378.266	46.25
378.476	54.44
378.686	42.15
378.897	27.82
379.107	15.53
379.317	183.46
379.528	-43.86
379.738	103.59
379.948	72.87
380.158	38.06
380.369	91.31
380.579	146.6
380.789	25.77
380.999	91.31
381.21	97.45
381.42	103.59
381.63	13.48
381.84	134.31
382.05	122.02
382.261	167.08
382.471	11.43
382.681	95.4
382.891	42.15
383.101	38.06
383.311	113.83
383.521	17.58
383.731	117.93
383.941	68.78
384.151	95.4
384.361	40.11
384.571	83.11
384.781	70.83
384.991	154.79
385.201	111.78
385.411	103.59
385.621	99.5
385.831	105.64
386.041	29.87
386.251	58.54
386.461	54.44
386.671	91.31
386.881	89.26
387.091	109.74
387.301	66.73
387.511	-4.95
387.72	52.39
387.93	111.78
388.14	97.45
388.35	81.07
388.56	70.83
388.769	126.12
388.979	54.44
389.189	97.45
389.399	52.39
389.609	72.87
389.818	152.74
390.028	103.59
390.238	144.55
390.447	76.97
390.657	52.39
390.867	25.77
391.076	29.87
391.286	70.83
391.496	33.96
391.705	95.4
391.915	19.63
392.125	154.79
392.334	138.41
392.544	95.4
392.753	58.54
392.963	83.11
393.172	66.73
393.382	27.82
393.591	119.98
393.801	144.55
394.01	97.45
394.22	117.93
394.429	107.69
394.639	99.5
394.848	99.5
395.058	95.4
395.267	113.83
395.477	111.78
395.686	54.44
395.895	101.55
396.105	148.65
396.314	58.54
396.524	144.55
396.733	109.74
396.942	201.9
397.152	103.59
397.361	72.87
397.57	79.02
397.78	136.36
397.989	99.5
398.198	111.78
398.407	83.11
398.617	126.12
398.826	62.63
399.035	117.93
399.244	156.84
399.453	119.98
399.663	66.73
399.872	87.21
400.081	62.63
400.29	134.31
400.499	25.77
400.708	218.28
400.917	177.32
401.127	167.08
401.336	132.26
401.545	40.11
401.754	165.03
401.963	126.12
402.172	138.41
402.381	130.22
402.59	128.17
402.799	103.59
403.008	91.31
403.217	158.89
403.426	99.5
403.635	115.88
403.844	144.55
404.053	109.74
404.262	70.83
404.471	167.08
404.68	99.5
404.888	36.01
405.097	148.65
405.306	158.89
405.515	179.37
405.724	191.66
405.933	189.61
406.142	142.5
406.35	185.51
406.559	169.13
406.768	183.46
406.977	197.8
407.185	134.31
407.394	150.7
407.603	113.83
407.812	197.8
408.02	310.44
408.229	199.85
408.438	185.51
408.646	138.41
408.855	197.8
409.064	148.65
409.272	228.52
409.481	228.52
409.69	300.2
409.898	255.14
410.107	236.71
410.315	283.81
410.524	328.87
410.733	279.72
410.941	314.53
411.15	265.38
411.358	312.49
411.567	367.78
411.775	341.16
411.984	314.53
412.192	390.31
412.401	322.73
412.609	396.45
412.818	400.55
413.026	412.84
413.234	425.12
413.443	466.08
413.651	404.64
413.86	451.75
414.068	513.19
414.276	509.09
414.485	562.34
414.693	548
414.901	617.63
415.11	613.54
415.318	572.58
415.526	588.96
415.734	689.31
415.943	588.96
416.151	617.63
416.359	730.27
416.567	625.83
416.776	703.65
416.984	742.56
417.192	818.33
417.4	771.23
417.608	814.24
417.817	908.44
418.025	978.08
418.233	961.69
418.441	875.68
418.649	988.32
418.857	1037.47
419.065	1084.57
419.273	1096.86
419.481	1135.77
419.689	1129.63
419.897	1135.77
420.105	1148.06
420.313	1229.98
420.521	1311.89
420.729	1301.65
420.937	1262.74
421.145	1365.14
421.353	1424.53
421.561	1639.57
421.769	1545.36
421.977	1717.39
422.185	1584.27
422.393	1703.06
422.601	1770.64
422.809	1780.88
423.017	1918.09
423.224	1866.89
423.432	1918.09
423.64	1903.76
423.848	2272.39
424.056	2075.79
424.263	2294.92
424.471	2378.89
424.679	2258.06
424.887	2411.65
425.094	2452.61
425.302	2559.11
425.51	2673.79
425.718	2720.9
425.925	2843.78
426.133	2722.95
426.341	2886.78
426.548	3095.68
426.756	3126.39
426.964	3130.49
427.171	3181.69
427.379	3359.86
427.586	3429.49
427.794	3693.68
428.001	3855.47
428.209	3884.14
428.417	3894.38
428.624	4265.07
428.832	4064.36
429.039	4047.98
429.247	4201.58
429.454	4504.68
429.662	4828.26
429.869	4484.2
430.076	4820.07
430.284	4484.2
430.491	4922.46
430.699	5200.99
430.906	5149.79
431.114	5164.12
431.321	5350.49
431.528	5598.29
431.736	5805.14
431.943	6134.86
432.15	6009.93
432.358	5952.59
432.565	6335.56
432.772	6384.71
432.979	6644.81
433.187	6829.12
433.394	6818.88
433.601	7228.48
433.808	7300.16
434.016	7285.82
434.223	7492.66
434.43	8045.62
434.637	7883.83
434.844	8315.95
435.052	8481.83
435.259	8272.94
435.466	8518.7
435.673	8481.83
435.88	9133.09
436.087	9391.13
436.294	9309.21
436.501	9184.29
436.708	9421.85
436.915	9679.89
437.122	10060.82
437.329	10017.81
437.537	10710.02
437.743	10531.85
437.95	10621.96
438.157	11203.58
438.364	11654.14
438.571	11514.87
438.778	11633.66
438.985	12477.42
439.192	12237.81
439.399	12641.26
439.606	12176.37
439.813	12831.72
440.02	13589.47
440.227	13599.71
440.433	13274.08
440.64	13900.76
440.847	13833.18
441.054	14068.69
441.261	15064
441.467	14799.82
441.674	15330.24
441.881	15637.44
442.088	15592.38
442.294	15479.74
442.501	16120.76
442.708	16100.28
442.914	16878.51
443.121	17591.2
443.328	17324.96
443.534	18185.11
443.741	18031.51
443.948	17501.09
444.154	19075.98
444.361	18879.37
444.568	18666.38
444.774	19014.54
444.981	19297.16
445.187	19917.69
445.394	20689.77
445.6	20472.69
445.807	22365.01
446.013	21377.89
446.22	21531.49
446.426	22737.74
446.633	23073.61
446.839	23438.15
447.046	22735.7
447.252	23776.06
447.459	23784.26
447.665	23780.16
447.871	24869.68
448.078	26141.47
448.284	24587.06
448.491	25461.54
448.697	26030.88
448.903	26895.12
449.11	27106.06
449.316	26555.16
449.522	26770.19
449.728	27749.12
449.935	27933.44
450.141	27859.71
450.347	28668.66
450.553	27579.14
450.76	27937.54
450.966	28986.1
451.172	28717.81
451.378	29424.36
451.584	29231.85
451.791	29436.65
451.997	29358.83
452.203	30018.27
452.409	29948.64
452.615	29688.55
452.821	28852.98
453.027	28543.74
453.233	29840.1
453.44	28840.69
453.646	29192.94
453.852	29416.17
454.058	29764.32
454.264	28867.31
454.47	29565.67
454.676	28670.71
454.882	29717.22
455.088	27134.73
455.294	27368.2
455.5	27734.79
455.705	28345.08
455.911	27222.8
456.117	26780.43
456.323	26194.71
456.529	24972.08
456.735	25971.49
456.941	25252.65
457.147	24537.91
457.352	24079.16
457.558	23810.88
457.764	24126.27
457.97	23464.77
458.176	22969.16
458.381	22983.5
458.587	21590.88
458.793	21850.97
458.999	20777.84
459.204	22309.72
459.41	21588.83
459.616	20124.54
459.821	20239.22
460.027	20132.73
460.233	19796.86
460.438	18750.35
460.644	18998.15
460.85	17910.68
461.055	17834.91
461.261	17843.1
461.466	16190.39
461.672	16018.36
461.878	16870.31
462.083	15889.34
462.289	15514.56
462.494	15739.83
462.7	14924.74
462.905	14420.94
463.111	14947.27
463.316	14959.56
463.522	14615.5
463.727	14656.46
463.932	14691.27
464.138	14681.03
464.343	14463.95
464.549	14011.35
464.754	14969.8
464.959	14406.61
465.165	14543.82
465.37	13923.29
465.575	13435.87
465.781	14056.4
465.986	13816.79
466.191	13536.22
466.397	13392.86
466.602	12491.76
466.807	13140.96
467.012	13054.95
467.218	12862.44
467.423	12860.39
467.628	13003.75
467.833	13362.14
468.038	13304.8
468.244	12434.41
468.449	13259.74
468.654	12671.98
468.859	12686.31
469.064	12362.73
469.269	12178.42
469.474	12092.4
469.679	12436.46
469.885	12180.46
470.09	12270.58
470.295	11987.96
470.5	11914.23
470.705	11912.18
470.91	11619.32
471.115	11418.62
471.32	11502.59
471.525	11662.33
471.73	11463.68
471.935	11351.04
472.139	10923.01
472.344	11037.7
472.549	10834.95
472.754	10839.05
472.959	10859.52
473.164	10480.65
473.369	10329.1
473.574	10712.07
473.778	10699.78
473.983	10476.55
474.188	10546.19
474.393	10122.26
474.598	10038.29
474.802	10021.91
475.007	9982.99
475.212	9761.81
475.417	9389.08
475.621	9671.7
475.826	9589.78
476.031	9434.14
476.235	9329.69
476.44	9468.95
476.645	9221.15
476.849	9030.69
477.054	9032.74
477.259	8979.49
477.463	8969.25
477.668	8668.2
477.872	8770.6
478.077	8633.38
478.282	8596.52
478.486	8442.92
478.691	8346.67
478.895	8344.62
479.1	8272.94
479.304	8150.06
479.509	7881.78
479.713	8086.58
479.918	8154.16
480.122	8014.9
480.326	8092.72
480.531	7889.97
480.735	7832.63
480.94	7851.06
481.144	8080.43
481.348	7746.61
481.553	7838.77
481.757	7713.84
481.961	7742.52
482.166	7922.74
482.37	7767.09
482.574	7853.11
482.778	7625.78
482.983	7959.6
483.187	7703.61
483.391	7904.31
483.595	7611.45
483.8	7392.31
484.004	7597.11
484.208	7666.74
484.412	7607.35
484.616	7689.27
484.821	7750.71
485.025	7603.25
485.229	7564.34
485.433	7525.43
485.637	7615.54
485.841	7734.32
486.045	7705.65
486.249	7636.02
486.453	7681.08
486.657	7597.11
486.861	7955.51
487.065	7636.02
487.269	7699.51
487.473	7556.15
487.677	7552.06
487.881	7851.06
488.085	7625.78
488.289	7609.4
488.493	7781.43
488.697	7633.97
488.901	7650.36
489.105	7740.47
489.309	7767.09
489.512	7658.55
489.716	7822.39
489.92	7885.87
490.124	7812.15
490.328	7910.45
490.531	7808.05
490.735	7887.92
490.939	7879.73
491.143	7840.82
491.346	7674.93
491.55	7982.13
491.754	8090.67
491.958	8049.71
492.161	8195.12
492.365	8272.94
492.569	8094.77
492.772	8016.94
492.976	8082.48
493.18	8262.7
493.383	8277.04
493.587	8277.04
493.79	8408.11
493.994	8107.05
494.197	8455.21
494.401	8416.3
494.605	8487.98
494.808	8619.05
495.012	8424.49
495.215	8711.21
495.419	8862.76
495.622	8862.76
495.825	9042.98
496.029	8932.39
496.232	9090.08
496.436	9253.92
496.639	9460.76
496.843	9288.73
497.046	9331.74
497.249	9554.97
497.453	9724.95
497.656	9763.86
497.859	9638.94
498.063	9735.19
498.266	10161.17
498.469	9890.84
498.673	10118.16
498.876	10249.23
499.079	10122.26
499.282	10423.31
499.485	10619.91
499.689	10505.23
499.892	10697.74
500.095	10902.53
500.298	11066.37
500.501	10810.37
500.705	11058.18
500.908	11443.2
501.111	11359.23
501.314	11643.9
501.517	11697.14
501.72	11666.42
501.923	11770.87
502.126	12049.39
502.329	12383.21
502.532	12356.59
502.735	12317.68
502.938	12512.24
503.141	12499.95
503.344	12735.46
503.547	12927.97
503.75	13073.38
503.953	13528.03
504.156	13388.77
504.359	13327.33
504.562	13437.92
504.765	13534.17
504.968	14216.15
505.17	13911
505.373	14177.23
505.576	14732.23
505.779	14488.53
505.982	14441.42
506.185	14875.59
506.387	14855.11
506.59	14996.42
506.793	15342.53
506.996	15635.39
507.198	15752.12
507.401	15489.98
507.604	15852.47
507.807	16296.88
508.009	16155.57
508.212	16450.48
508.415	16782.25
508.617	16860.07
508.82	16855.98
509.022	16710.57
509.225	17075.11
509.428	17427.36
509.63	17433.5
509.833	17484.7
510.035	17875.87
510.238	17828.76
510.44	17908.63
510.643	18336.66
510.845	18361.23
511.048	18447.25
511.25	18899.85
511.453	18709.39
511.655	19579.78
511.858	19338.12
512.06	19323.78
512.262	19590.02
512.465	19553.15
512.667	19766.14
512.87	20157.3
513.072	20116.34
513.274	20775.79
513.477	20919.15
513.679	20904.81
513.881	21171.05
514.084	21599.07
514.286	21255.01
514.488	21599.07
514.69	22068.06
514.893	22205.27
515.095	22205.27
515.297	22352.73
515.499	22326.1
515.701	22553.43
515.904	23126.86
516.106	22899.53
516.308	23409.48
516.51	23614.27
516.712	23505.73
516.914	23898.94
517.116	24218.43
517.318	24271.67
517.52	24437.56
517.722	24367.93
517.925	24877.87
518.127	25027.37
518.329	25254.7
518.531	25336.62
518.733	25596.71
518.935	25783.07
519.136	25856.8
519.338	26311.45
519.54	26344.22
519.742	26813.2
519.944	26663.7
520.146	27104.01
520.348	27329.29
520.55	27429.64
520.752	27235.08
520.954	27708.16
521.155	27482.89
521.357	27884.29
521.559	28150.53
521.761	28592.89
521.963	28541.69
522.164	28904.18
522.366	28754.68
522.568	29219.56
522.77	29297.39
522.971	29760.23
523.173	29377.26
523.375	29956.83
523.576	29823.72
523.778	29772.52
523.98	30233.31
524.181	30307.04
524.383	30165.73
524.584	30847.7
524.786	30786.26
524.988	30726.87
525.189	30890.71
525.391	31181.52
525.592	31124.18
525.794	31228.62
525.995	31476.43
526.197	31523.53
526.398	32058.05
526.6	31648.46
526.801	31668.94
527.003	32385.72
527.204	31886.02
527.406	32408.25
527.607	32506.55
527.808	32660.15
528.01	32271.04
528.211	32330.43
528.412	32830.13
528.614	32918.2
528.815	32967.35
529.016	33151.66
529.218	32803.51
529.419	33266.35
529.62	33262.26
529.822	33034.93
530.023	33284.78
530.224	33405.61
530.425	33319.6
530.626	33182.38
530.828	32846.52
531.029	33794.73
531.23	33120.95
531.431	33614.51
531.632	33782.44
531.833	33686.18
532.035	33815.21
532.236	33735.34
532.437	34106.02
532.638	33733.29
532.839	34110.11
533.04	33907.37
533.241	33933.99
533.442	34505.37
533.643	33725.1
533.844	33977
534.045	33979.04
534.246	33309.36
534.447	34103.97
534.648	33598.12
534.849	33989.28
535.05	34097.83
535.251	33737.38
535.451	34060.96
535.652	34134.69
535.853	34267.81
536.054	33997.48
536.255	34136.74
536.456	33704.62
536.657	34413.21
536.857	33731.24
537.058	34026.15
537.259	34310.82
537.46	34228.9
537.66	33598.12
537.861	34263.71
538.062	33634.99
538.263	34269.86
538.463	34091.68
538.664	34009.76
538.865	33764.01
539.065	34353.82
539.266	33673.9
539.466	34538.14
539.667	33829.54
539.868	34013.86
540.068	34101.92
540.269	34042.53
540.469	34278.05
540.67	34155.17
540.87	33991.33
541.071	33786.54
541.271	34249.38
541.472	34036.39
541.672	34085.54
541.873	34179.75
542.073	33661.61
542.274	34032.29
542.474	33880.74
542.675	33698.47
542.875	34306.72
543.075	33761.96
543.276	33454.76
543.476	34366.11
543.676	33714.86
543.877	34216.61
544.077	33647.27
544.277	33905.32
544.478	33913.51
544.678	34106.02
544.878	33718.95
545.078	33876.65
545.279	33618.6
545.479	33481.39
545.679	33845.93
545.879	33796.77
546.079	33907.37
546.28	33751.72
546.48	33440.43
546.68	34142.88
546.88	33643.18
547.08	33764.01
547.28	33753.77
547.48	33460.91
547.68	33579.69
547.88	33725.1
548.081	34106.02
548.281	33761.96
548.481	33688.23
548.681	34091.68
548.881	33456.81
549.081	33516.2
549.28	33163.95
549.48	34198.18
549.68	33694.38
549.88	34058.91
550.08	33649.32
550.28	33594.03
550.48	33460.91
550.68	33804.97
550.88	33632.94
551.08	33405.61
551.279	33350.32
551.479	33551.02
551.679	33596.07
551.879	33491.63
552.079	33577.64
552.278	33270.45
552.478	33567.4
552.678	33794.73
552.878	33669.8
553.077	33546.92
553.277	33370.8
553.477	33866.41
553.676	33409.71
553.876	33325.74
554.076	33196.72
554.275	33419.95
554.475	32776.89
554.674	33385.13
554.874	33495.72
555.074	33239.73
555.273	33471.15
555.473	33682.09
555.672	33362.61
555.872	32926.39
556.071	33493.68
556.271	33569.45
556.47	32832.18
556.67	32979.64
556.869	32938.68
557.068	33385.13
557.268	32885.43
557.467	33088.18
557.667	33077.94
557.866	33227.44
558.065	33100.47
558.265	32840.37
558.464	32690.87
558.663	33155.76
558.863	32649.91
559.062	33139.38
559.261	32357.05
559.461	32869.05
559.66	32230.08
559.859	32926.39
560.058	32645.82
560.258	32768.69
560.457	32393.92
560.656	32973.49
560.855	32715.45
561.054	32600.76
561.253	32340.67
561.453	32428.73
561.652	32426.68
561.851	32414.4
562.05	32180.93
562.249	31982.27
562.448	32215.74
562.647	32148.16
562.846	32268.99
563.045	31869.64
563.244	31746.76
563.443	32225.98
563.642	31496.91
563.841	31652.55
564.04	31883.97
564.239	32152.26
564.438	31470.28
564.637	31879.88
564.836	31720.13
565.035	31501
565.234	31861.44
565.432	31339.21
565.631	31193.81
565.83	31746.76
566.029	31474.38
566.228	31306.44
566.427	31099.6
566.625	30816.98
566.824	31091.41
567.023	31339.21
567.222	30853.84
567.42	31079.12
567.619	30946
567.818	30862.04
568.016	31085.26
568.215	30642.9
568.414	30970.58
568.612	31312.59
568.811	30763.73
569.01	30747.35
569.208	30511.83
569.407	31093.46
569.605	30274.27
569.804	30722.77
570.002	30212.83
570.201	30554.84
570.4	30110.43
570.598	30425.82
570.797	29958.88
570.995	30300.89
571.193	29721.32
571.392	30479.07
571.59	29934.31
571.789	29790.95
571.987	29625.06
572.186	29713.13
572.384	29469.42
572.582	29639.4
572.781	29625.06
572.979	29344.49
573.177	29975.27
573.376	29457.13
573.574	29252.33
573.772	29305.58
573.971	29661.93
574.169	28971.76
574.367	29072.11
574.565	29229.8
574.763	29063.92
574.962	28938.99
575.16	28652.28
575.358	29025.01
575.556	28656.37
575.754	28814.07
575.952	28846.83
576.151	28822.26
576.349	28230.4
576.547	28515.06
576.745	28863.22
576.943	28654.33
577.141	28601.08
577.339	28451.58
577.537	28265.21
577.735	28062.46
577.933	27847.43
578.131	28162.81
578.329	28009.22
578.527	27835.14
578.725	27886.34
578.923	28023.55
579.121	27523.85
579.319	27742.98
579.516	27693.83
579.714	27765.51
579.912	27476.74
580.11	27616.01
580.308	27616.01
580.506	27489.03
580.704	27110.16
580.901	27566.85
581.099	27652.87
581.297	27175.69
581.495	26948.37
581.692	27212.56
581.89	26780.43
582.088	27493.13
582.285	26721.04
582.483	26866.45
582.681	26966.8
582.878	26888.98
583.076	26487.57
583.274	26755.86
583.471	26520.34
583.669	26340.12
583.866	26344.22
584.064	26307.35
584.262	26239.77
584.459	26288.92
584.657	26204.95
584.854	26409.75
585.052	25817.89
585.249	26327.83
585.447	25946.91
585.644	25635.62
585.841	25801.5
586.039	25948.96
586.236	25244.46
586.434	25615.14
586.631	25461.54
586.828	25645.86
587.026	25559.84
587.223	25711.39
587.42	25459.49
587.618	25432.87
587.815	24904.49
588.012	25023.28
588.21	25156.39
588.407	25461.54
588.604	25058.09
588.801	24662.83
588.999	24736.56
589.196	24726.32
589.393	24785.71
589.59	24937.26
589.787	24720.18
589.984	24542
590.182	24349.5
590.379	24322.87
590.576	24032.06
590.773	24310.58
590.97	24249.14
591.167	24261.43
591.364	23950.14
591.561	24269.62
591.758	23778.11
591.955	24146.75
592.152	24075.07
592.349	23792.45
592.546	23601.99
592.743	23862.08
592.94	23345.99
593.137	23438.15
593.334	23675.71
593.531	23309.13
593.727	23540.55
593.924	23049.03
594.121	23169.87
594.318	23106.38
594.515	23042.89
594.712	23014.22
594.908	23272.26
595.105	23092.04
595.302	22850.38
595.499	22688.59
595.696	22534.99
595.892	22813.52
596.089	22491.99
596.286	22578
596.482	22721.36
596.679	22582.1
596.876	22330.2
597.072	22311.77
597.269	22754.13
597.466	21904.22
597.662	22047.58
597.859	22416.21
598.055	21914.46
598.252	22076.25
598.448	22160.22
598.645	21762.91
598.841	21615.46
599.038	21531.49
599.234	21816.16
599.431	21232.49
599.627	21285.73
599.824	21580.64
600.02	21498.72
600.217	21465.96
600.413	21222.25
600.609	21255.01
600.806	21138.28
601.002	21154.66
601.198	20929.39
601.395	21078.89
601.591	20820.84
601.787	20917.1
601.984	20794.22
602.18	20790.13
602.376	20667.25
602.572	20568.94
602.769	20630.38
602.965	20282.23
603.161	20558.7
603.357	20245.37
603.553	20321.14
603.75	20525.94
603.946	20159.35
604.142	20376.44
604.338	19811.2
604.534	19886.97
604.73	20007.8
604.926	19829.63
605.122	19872.64
605.318	19786.62
605.514	19792.76
605.71	19751.81
605.906	19676.03
606.102	19661.69
606.298	19657.6
606.494	19635.07
606.69	19475.33
606.886	19340.16
607.082	19344.26
607.278	19381.12
607.474	19069.83
607.67	19213.19
607.866	19032.97
608.062	19227.53
608.257	19182.47
608.453	18881.42
608.649	19170.18
608.845	19121.03
609.041	18975.63
609.236	19155.85
609.432	18918.28
609.628	19016.58
609.824	18762.64
610.019	18762.64
610.215	18797.45
610.411	18797.45
610.606	18680.72
610.802	18477.97
610.998	18606.99
611.193	18566.03
611.389	18633.61
611.584	18486.16
611.78	18516.88
611.976	18516.88
612.171	18467.73
612.367	18406.29
612.562	18449.3
612.758	18389.91
612.953	18258.84
613.149	18389.91
613.344	18332.56
613.539	18361.23
613.735	18338.71
613.93	18590.61
614.126	18002.84
614.321	18334.61
614.517	17884.06
614.712	18019.22
614.907	17769.37
615.103	18043.8
615.298	17994.65
615.493	18088.85
615.688	17752.99
615.884	18219.92
616.079	17802.14
616.274	17927.07
616.47	17822.62
616.665	17814.43
616.86	17580.96
617.055	17460.13
617.25	17755.04
617.445	17689.5
617.641	17361.83
617.836	17738.65
618.031	17347.49
618.226	17492.9
618.421	17578.91
618.616	17578.91
618.811	17228.71
619.006	17535.9
619.201	17224.61
619.396	17398.69
619.591	16808.87
619.786	17081.25
619.981	16577.45
620.176	16925.61
620.371	16712.62
620.566	16835.5
620.761	16704.43
620.956	16792.49
621.151	16386.99
621.346	16737.2
621.541	16477.1
621.735	16497.58
621.93	16042.93
622.125	16137.14
622.32	15997.88
622.515	16071.61
622.709	15735.74
622.904	15887.29
623.099	15555.52
623.294	15584.19
623.488	15606.72
623.683	15698.88
623.878	15465.41
624.072	15451.07
624.267	15395.78
624.462	15215.55
624.656	15381.44
624.851	15176.64
625.046	15086.53
625.24	15281.09
625.435	14947.27
625.629	14871.5
625.824	14662.6
626.018	14736.33
626.213	14379.98
626.407	14625.74
626.602	14175.19
626.796	14445.52
626.991	14379.98
627.185	14345.17
627.38	14021.59
627.574	13781.98
627.768	14021.59
627.963	13906.9
628.157	13835.22
628.352	13851.61
628.546	13816.79
628.74	13505.5
628.935	13630.43
629.129	13544.41
629.323	13216.74
629.517	13253.6
629.712	13341.66
629.906	13482.97
630.1	13087.71
630.294	13057
630.489	13020.13
630.683	12809.19
630.877	13028.32
631.071	12571.63
631.265	12633.07
631.459	12764.14
631.653	12731.37
631.848	12610.54
632.042	12545
632.236	12485.61
632.43	12332.01
632.624	12499.95
632.818	12358.64
633.012	12231.66
633.206	12002.29
633.4	12205.04
633.594	11963.38
633.788	12022.77
633.982	11965.43
634.176	11910.13
634.369	11781.11
634.563	11873.27
634.757	11662.33
634.951	11664.38
635.145	11559.93
635.339	11488.25
635.533	11422.72
635.726	11523.07
635.92	11133.95
636.114	11369.47
636.308	11095.04
636.501	11144.19
636.695	11158.53
636.889	10896.39
637.083	11004.93
637.276	11023.36
637.47	10765.32
637.664	10837
637.857	10738.69
638.051	10667.02
638.244	10671.11
638.438	10648.58
638.632	10595.34
638.825	10355.72
639.019	10275.85
639.212	10365.96
639.406	10423.31
639.599	10388.49
639.793	10232.85
639.986	10036.24
640.18	10241.04
640.373	10107.92
640.567	10050.58
640.76	9954.32
640.954	10216.46
641.147	9798.68
641.34	9571.35
641.534	9948.18
641.727	9727
641.92	9677.85
642.114	9714.71
642.307	9505.82
642.5	9524.25
642.694	9348.12
642.887	9364.51
643.08	9559.06
643.273	9366.56
643.467	9346.08
643.66	9276.45
643.853	9049.12
644.046	9053.22
644.239	9036.83
644.432	8959.01
644.626	9131.04
644.819	9145.38
645.012	8987.68
645.205	9073.7
645.398	8864.8
645.591	8987.68
645.784	8877.09
645.977	8688.68
646.17	8715.3
646.363	8668.2
646.556	8506.41
646.749	8676.39
646.942	8535.08
647.135	8346.67
647.328	8510.5
647.521	8533.03
647.714	8352.81
647.907	8219.69
648.099	8117.29
648.292	8057.9
648.485	8092.72
648.678	8154.16
648.871	7943.22
649.064	8066.1
649.256	8066.1
649.449	7975.98
649.642	7881.78
649.835	8049.71
650.027	7889.97
650.22	7724.08
650.413	7818.29
650.605	7963.7
650.798	7683.13
650.991	7609.4
651.183	7580.73
651.376	7521.34
651.568	7615.54
651.761	7361.59
651.954	7334.97
652.146	7267.39
652.339	7388.22
652.531	7353.4
652.724	7242.81
652.916	7119.93
653.109	7216.19
653.301	7298.11
653.494	7224.38
653.686	7035.97
653.879	7064.64
654.071	6986.82
654.263	7042.11
654.456	6999.1
654.648	6900.8
654.84	6958.14
655.033	6868.03
655.225	6777.92
655.417	7005.25
655.61	6796.35
655.802	6753.35
655.994	6757.44
656.186	6759.49
656.379	6796.35
656.571	6583.37
656.763	6499.4
656.955	6679.62
657.148	6431.82
657.34	6571.08
657.532	6462.54
657.724	6327.37
657.916	6491.21
658.108	6376.52
658.3	6274.12
658.492	6343.75
658.684	6218.83
658.876	6151.24
659.068	6282.31
659.26	6161.48
659.452	6118.48
659.644	6190.16
659.836	6063.18
660.028	6059.09
660.22	5925.97
660.412	6050.89
660.604	6108.24
660.796	5860.43
660.988	5837.91
661.18	5813.33
661.372	5911.63
661.563	5700.69
661.755	5844.05
661.947	5684.31
662.139	5755.99
662.331	5684.31
662.522	5629.01
662.714	5665.88
662.906	5794.9
663.097	5530.71
663.289	5659.73
663.481	5450.84
663.673	5504.09
663.864	5418.07
664.056	5508.18
664.247	5391.45
664.439	5262.43
664.631	5297.24
664.822	5309.53
665.014	5405.78
665.205	5336.15
665.397	5237.85
665.588	5254.23
665.78	5160.03
665.971	5153.88
666.163	5221.47
666.354	5203.04
666.546	4951.14
666.737	5045.34
666.929	5055.58
667.12	5063.77
667.311	4938.85
667.503	4957.28
667.694	4942.94
667.885	4836.45
668.077	4854.88
668.268	4883.55
668.459	4822.11
668.651	4899.94
668.842	4625.51
669.033	4873.31
669.224	4809.83
669.416	4813.92
669.607	4725.86
669.798	4715.62
669.989	4789.35
670.18	4572.26
670.371	4678.76
670.563	4527.21
670.754	4596.84
670.945	4672.61
671.136	4508.77
671.327	4621.41
671.518	4607.08
671.709	4512.87
671.9	4549.73
672.091	4711.52
672.282	4555.88
672.473	4353.13
672.664	4357.22
672.855	4359.27
673.046	4340.84
673.237	4396.14
673.428	4330.6
673.619	4301.93
673.809	4369.51
674	4353.13
674.191	4314.22
674.382	4185.19
674.573	4426.86
674.764	4215.91
674.954	4230.25
675.145	4224.11
675.336	4240.49
675.527	4242.54
675.717	4152.43
675.908	4306.02
676.099	4226.15
676.289	4236.39
676.48	4076.65
676.671	4097.13
676.861	4076.65
677.052	4037.74
677.243	3929.2
677.433	4134
677.624	4056.17
677.814	4076.65
678.005	4156.52
678.195	4066.41
678.386	4095.08
678.576	3939.44
678.767	3986.54
678.957	4117.61
679.148	3990.64
679.338	3935.34
679.529	3964.01
679.719	3886.19
679.909	3959.92
680.1	3869.81
680.29	3882.1
680.481	3855.47
680.671	3978.35
680.861	3785.84
681.052	3906.67
681.242	3884.14
681.432	4033.65
681.622	3757.17
681.813	3896.43
682.003	3757.17
682.193	3849.33
682.383	3705.97
682.573	3796.08
682.764	3746.93
682.954	3724.4
683.144	3808.37
683.334	3785.84
683.524	3697.78
683.714	3587.19
683.904	3644.53
684.094	3509.37
684.284	3519.6
684.474	3644.53
684.664	3650.67
684.854	3599.48
685.044	3630.2
685.234	3554.42
685.424	3562.61
685.614	3652.72
685.804	3449.97
685.994	3675.25
686.184	3396.73
686.374	3587.19
686.564	3525.75
686.753	3433.59
686.943	3523.7
687.133	3388.53
687.323	3439.73
687.513	3486.84
687.702	3368.06
687.892	3462.26
688.082	3423.35
688.272	3458.17
688.461	3249.27
688.651	3277.94
688.841	3292.28
689.03	3402.87
689.22	3267.7
689.41	3400.82
689.599	3179.64
689.789	3265.66
689.979	3230.84
690.168	3353.72
690.358	3247.23
690.547	3198.07
690.737	3134.59
690.926	3165.31
691.116	3056.76
691.305	3173.5
691.495	3175.55
691.684	3091.58
691.874	3050.62
692.063	3054.72
692.252	3126.39
692.442	3093.63
692.631	2983.04
692.82	2993.28
693.01	3003.52
693.199	2884.73
693.388	2921.6
693.578	2966.65
693.767	3003.52
693.956	2940.03
694.146	2878.59
694.335	2890.88
694.524	2792.58
694.713	2933.89
694.902	2888.83
695.092	2966.65
695.281	2786.43
695.47	2884.73
695.659	2847.87
695.848	2718.85
696.037	2819.2
696.226	2790.53
696.415	2882.69
696.604	2706.56
696.793	2843.78
696.982	2677.89
697.171	2679.94
697.36	2786.43
697.549	2704.51
697.738	2770.05
697.927	2606.21
698.116	2606.21
698.305	2686.08
698.494	2778.24
698.683	2583.68
698.872	2671.75
699.061	2548.87
699.25	2579.59
699.438	2522.24
699.627	2587.78
699.816	2659.46
700.005	2659.46
700.193	2669.7
700.382	2577.54
700.571	2583.68
700.76	2548.87
700.948	2550.92
701.137	2651.27
701.326	2536.58
701.514	2505.86
701.703	2456.71
701.892	2542.72
702.08	2593.92
702.269	2458.76
702.457	2577.54
702.646	2413.7
702.834	2452.61
703.023	2505.86
703.212	2651.27
703.4	2552.96
703.589	2552.96
703.777	2557.06
703.965	2409.61
704.154	2518.15
704.342	2528.39
704.531	2423.94
704.719	2489.48
704.907	2434.18
705.096	2452.61
705.284	2395.27
705.472	2407.56
705.661	2434.18
705.849	2458.76
706.037	2493.57
706.226	2567.3
706.414	2405.51
706.602	2460.81
706.79	2389.13
706.979	2428.04
707.167	2469
707.355	2452.61
707.543	2436.23
707.731	2522.24
707.919	2423.94
708.107	2489.48
708.296	2352.26
708.484	2380.93
708.672	2561.16
708.86	2352.26
709.048	2296.97
709.236	2260.1
709.424	2311.3
709.612	2311.3
709.8	2458.76
709.988	2288.78
710.176	2440.33
710.364	2413.7
710.551	2368.65
710.739	2339.97
710.927	2358.41
711.115	2409.61
711.303	2356.36
711.491	2370.69
711.679	2282.63
711.866	2417.8
712.054	2499.72
712.242	2397.32
712.43	2376.84
712.617	2276.49
712.805	2405.51
712.993	2413.7
713.181	2487.43
713.368	2366.6
713.556	2272.39
713.744	2194.57
713.931	2526.34
714.119	2448.52
714.306	2401.41
714.494	2401.41
714.682	2374.79
714.869	2393.22
715.057	2292.87
715.244	2282.63
715.432	2337.93
715.619	2446.47
715.807	2368.65
715.994	2282.63
716.182	2348.17
716.369	2456.71
716.556	2342.02
716.744	2331.78
716.931	2282.63
717.119	2317.45
717.306	2380.93
717.493	2360.45
717.681	2370.69
717.868	2223.24
718.055	2313.35
718.242	2397.32
718.43	2305.16
718.617	2337.93
718.804	2342.02
718.991	2342.02
719.179	2413.7
719.366	2258.06
719.553	2417.8
719.74	2374.79
719.927	2327.69
720.114	2282.63
720.301	2335.88
720.488	2313.35
720.676	2251.91
720.863	2325.64
721.05	2403.46
721.237	2317.45
721.424	2299.02
721.611	2397.32
721.798	2327.69
721.985	2217.1
722.172	2380.93
722.358	2327.69
722.545	2329.74
722.732	2176.14
722.919	2303.11
723.106	2311.3
723.293	2321.54
723.48	2311.3
723.667	2395.27
723.853	2227.34
724.04	2325.64
724.227	2260.1
724.414	2350.21
724.6	2339.97
724.787	2217.1
724.974	2374.79
725.161	2444.42
725.347	2256.01
725.534	2391.17
725.72	2311.3
725.907	2362.5
726.094	2356.36
726.28	2215.05
726.467	2274.44
726.653	2243.72
726.84	2430.09
727.027	2419.85
727.213	2253.96
727.4	2366.6
727.586	2225.29
727.773	2458.76
727.959	2315.4
728.145	2354.31
728.332	2299.02
728.518	2247.82
728.705	2385.03
728.891	2288.78
729.077	2231.43
729.264	2401.41
729.45	2272.39
729.636	2415.75
729.823	2413.7
730.009	2415.75
730.195	2262.15
730.382	2264.2
730.568	2290.82
730.754	2284.68
730.94	2339.97
731.126	2276.49
731.313	2299.02
731.499	2301.06
731.685	2266.25
731.871	2284.68
732.057	2299.02
732.243	2235.53
732.429	2403.46
732.615	2339.97
732.801	2327.69
732.987	2260.1
733.173	2344.07
733.359	2323.59
733.545	2356.36
733.731	2327.69
733.917	2348.17
734.103	2268.3
734.289	2264.2
734.475	2309.26
734.661	2366.6
734.847	2325.64
735.033	2305.16
735.219	2260.1
735.404	2299.02
735.59	2356.36
735.776	2325.64
735.962	2198.67
736.148	2374.79
736.333	2241.67
736.519	2206.86
736.705	2307.21
736.89	2325.64
737.076	2282.63
737.262	2202.76
737.447	2296.97
737.633	2348.17
737.819	2243.72
738.004	2278.54
738.19	2307.21
738.375	2296.97
738.561	2315.4
738.747	2188.43
738.932	2241.67
739.118	2301.06
739.303	2260.1
739.489	2174.09
739.674	2206.86
739.859	2311.3
740.045	2223.24
740.23	2215.05
740.416	2221.19
740.601	2231.43
740.786	2221.19
740.972	2182.28
741.157	2161.8
741.342	2247.82
741.528	2139.27
741.713	2131.08
741.898	2182.28
742.084	2200.71
742.269	2296.97
742.454	2012.3
742.639	2100.36
742.824	2094.22
743.01	2122.89
743.195	2057.36
743.38	2071.69
743.565	2018.44
743.75	2081.93
743.935	2086.03
744.12	2071.69
744.305	2055.31
744.49	2016.4
744.675	2014.35
744.86	1981.58
745.045	2059.4
745.23	1989.77
745.415	2008.2
745.6	1897.61
745.785	1893.52
745.97	2092.17
746.155	1971.34
746.34	1932.43
746.525	2018.44
746.71	1967.24
746.895	1952.91
747.079	1907.85
747.264	1834.13
747.449	1903.76
747.634	1916.05
747.819	1793.17
748.003	1791.12
748.188	1834.13
748.373	1846.41
748.557	1772.69
748.742	1774.74
748.927	1741.97
749.111	1746.06
749.296	1821.84
749.481	1842.32
749.665	1694.86
749.85	1709.2
750.034	1750.16
750.219	1750.16
750.404	1678.48
750.588	1686.67
750.773	1715.34
750.957	1690.77
751.141	1707.15
751.326	1741.97
751.51	1688.72
751.695	1629.33
751.879	1531.03
752.064	1684.62
752.248	1574.03
752.432	1623.19
752.617	1635.47
752.801	1600.66
752.985	1576.08
753.17	1582.23
753.354	1606.8
753.538	1457.3
753.722	1459.35
753.907	1551.51
754.091	1408.15
754.275	1555.6
754.459	1455.25
754.643	1440.92
754.828	1465.49
755.012	1387.67
755.196	1408.15
755.38	1500.31
755.564	1336.47
755.748	1383.57
755.932	1455.25
756.116	1371.29
756.3	1455.25
756.484	1326.23
756.668	1350.81
756.852	1387.67
757.036	1275.03
757.22	1283.22
757.404	1336.47
757.588	1336.47
757.772	1324.18
757.956	1350.81
758.14	1342.61
758.323	1184.92
758.507	1254.55
758.691	1133.72
758.875	1238.17
759.059	1262.74
759.242	1232.02
759.426	1172.63
759.61	1176.73
759.794	1172.63
759.977	1246.36
760.161	1281.18
760.345	1164.44
760.528	1143.96
760.712	1117.34
760.895	1238.17
761.079	1152.15
761.263	1141.91
761.446	1127.58
761.63	1215.64
761.813	1143.96
761.997	1041.56
762.18	1103
762.364	1152.15
762.547	1133.72
762.731	1150.11
762.914	1123.48
763.098	1070.23
763.281	1016.99
763.464	1070.23
763.648	1053.85
763.831	1064.09
764.015	1119.39
764.198	1096.86
764.381	1049.75
764.564	1131.67
764.748	1070.23
764.931	1064.09
765.114	988.32
765.297	1152.15
765.481	957.6
765.664	1014.94
765.847	1033.37
766.03	1115.29
766.213	1004.7
766.397	1025.18
766.58	918.68
766.763	998.56
766.946	937.12
767.129	1039.51
767.312	945.31
767.495	898.2
767.678	933.02
767.861	1082.52
768.044	918.68
768.227	906.4
768.41	918.68
768.593	1000.6
768.776	914.59
768.959	902.3
769.142	973.98
769.324	912.54
769.507	894.11
769.69	933.02
769.873	906.4
770.056	980.12
770.239	986.27
770.421	939.16
770.604	947.36
770.787	828.57
770.97	756.9
771.152	900.25
771.335	857.25
771.518	820.38
771.7	875.68
771.883	875.68
772.066	849.05
772.248	838.81
772.431	935.07
772.613	877.73
772.796	822.43
772.978	902.3
773.161	849.05
773.343	808.09
773.526	851.1
773.708	863.39
773.891	851.1
774.073	840.86
774.256	838.81
774.438	840.86
774.621	703.65
774.803	754.85
774.985	810.14
775.168	844.96
775.35	746.66
775.532	799.9
775.715	732.32
775.897	701.6
776.079	779.42
776.261	740.51
776.444	668.83
776.626	732.32
776.808	640.16
776.99	691.36
777.173	760.99
777.355	713.89
777.537	717.98
777.719	660.64
777.901	677.02
778.083	687.26
778.265	654.5
778.447	613.54
778.629	666.78
778.811	619.68
778.993	724.13
779.175	650.4
779.357	599.2
779.539	621.73
779.721	662.69
779.903	656.54
780.085	648.35
780.267	580.77
780.449	564.39
780.631	693.41
780.812	611.49
780.994	584.87
781.176	531.62
781.358	642.21
781.54	627.87
781.721	558.24
781.903	500.9
782.085	545.95
782.267	636.06
782.448	537.76
782.63	605.35
782.812	519.33
782.993	492.71
783.175	478.37
783.357	480.42
783.538	498.85
783.72	527.52
783.901	562.34
784.083	541.86
784.264	535.71
784.446	459.94
784.627	494.76
784.809	552.1
784.99	521.38
785.172	562.34
785.353	468.13
785.535	488.61
785.716	511.14
785.897	470.18
786.079	517.28
786.26	535.71
786.441	484.52
786.623	427.17
786.804	439.46
786.985	494.76
787.167	482.47
787.348	445.6
787.529	455.84
787.71	476.32
787.891	406.69
788.073	443.56
788.254	386.21
788.435	384.16
788.616	449.7
788.797	351.4
788.978	486.56
789.159	433.32
789.34	408.74
789.522	380.07
789.703	425.12
789.884	359.59
790.065	369.83
790.246	494.76
790.427	443.56
790.607	468.13
790.788	410.79
790.969	357.54
791.15	328.87
791.331	296.1
791.512	398.5
791.693	361.64
791.874	431.27
792.054	468.13
792.235	345.25
792.416	298.15
792.597	347.3
792.778	445.6
792.958	375.97
793.139	380.07
793.32	384.16
793.5	404.64
793.681	339.11
793.862	418.98
794.042	365.73
794.223	322.73
794.404	396.45
794.584	328.87
794.765	298.15
794.945	273.57
795.126	435.36
795.306	410.79
795.487	343.21
795.667	318.63
795.848	359.59
796.028	322.73
796.209	328.87
796.389	269.48
796.57	283.81
796.75	275.62
796.93	298.15
797.111	343.21
797.291	289.96
797.471	296.1
797.652	357.54
797.832	289.96
798.012	156.84
798.192	279.72
798.373	283.81
798.553	238.76
798.733	300.2
798.913	275.62
799.093	328.87
799.274	263.33
799.454	283.81
799.634	283.81
799.814	310.44
799.994	242.85
800.174	269.48
800.354	314.53
800.534	292.01
800.714	289.96
800.894	283.81
801.074	214.18
801.254	236.71
801.434	253.09
801.614	259.24
801.794	232.62
801.974	670.88
802.154	285.86
802.334	257.19
802.514	189.61
802.693	249
802.873	251.05
803.053	281.77
803.233	251.05
803.413	208.04
803.592	187.56
803.772	205.99
803.952	271.53
804.131	203.94
804.311	300.2
804.491	316.58
804.67	273.57
804.85	175.27
805.03	228.52
805.209	195.75
805.389	279.72
805.568	212.14
805.748	201.9
805.928	234.66
806.107	226.47
806.287	263.33
806.466	261.29
806.646	238.76
806.825	232.62
807.004	226.47
807.184	189.61
807.363	222.38
807.543	169.13
807.722	169.13
807.901	277.67
808.081	195.75
808.26	136.36
808.439	251.05
808.619	271.53
808.798	199.85
808.977	156.84
809.156	238.76
809.336	220.33
809.515	236.71
809.694	197.8
809.873	128.17
810.052	158.89
810.231	236.71
810.411	226.47
810.59	271.53
810.769	124.07
810.948	165.03
811.127	160.94
811.306	234.66
811.485	169.13
811.664	232.62
811.843	208.04
812.022	201.9
812.201	177.32
812.38	160.94
812.559	146.6
812.737	205.99
812.916	193.7
813.095	191.66
813.274	199.85
813.453	199.85
813.632	187.56
813.811	230.57
813.989	162.98
814.168	232.62
814.347	158.89
814.526	130.22
814.704	199.85
814.883	138.41
815.062	177.32
815.24	167.08
815.419	167.08
815.598	169.13
815.776	197.8
815.955	224.42
816.133	122.02
816.312	148.65
816.49	199.85
816.669	150.7
816.847	156.84
817.026	199.85
817.204	128.17
817.383	101.55
817.561	132.26
817.74	195.75
817.918	146.6
818.097	101.55
818.275	244.9
818.453	189.61
818.632	124.07
818.81	128.17
818.988	132.26
819.167	179.37
819.345	111.78
819.523	74.92
819.701	81.07
819.879	203.94
820.058	128.17
820.236	171.18
820.414	136.36
820.592	146.6
820.77	99.5
820.948	132.26
821.127	132.26
821.305	107.69
821.483	70.83
821.661	144.55
821.839	85.16
822.017	109.74
822.195	56.49
822.373	195.75
822.551	128.17
822.729	171.18
822.907	148.65
823.085	107.69
823.262	99.5
823.44	85.16
823.618	156.84
823.796	119.98
823.974	156.84
824.152	193.7
824.329	126.12
824.507	142.5
824.685	113.83
824.863	52.39
825.04	64.68
825.218	132.26
825.396	101.55
825.574	197.8
825.751	156.84
825.929	132.26
826.107	101.55
826.284	142.5
826.462	183.46
826.639	160.94
826.817	150.7
826.994	136.36
827.172	119.98
827.349	205.99
827.527	58.54
827.704	91.31
827.882	122.02
828.059	66.73
828.237	126.12
828.414	126.12
828.591	85.16
828.769	95.4
828.946	60.59
829.124	101.55
829.301	109.74
829.478	140.46
829.655	119.98
829.833	97.45
830.01	52.39
830.187	79.02
830.364	87.21
830.542	193.7
830.719	85.16
830.896	83.11
831.073	115.88
831.25	205.99
831.427	85.16
831.604	154.79
831.782	38.06
831.959	160.94
832.136	81.07
832.313	70.83
832.49	52.39
832.667	103.59
832.844	74.92
833.021	167.08
833.198	85.16
833.374	126.12
833.551	142.5
833.728	93.35
833.905	101.55
834.082	173.22
834.259	60.59
834.436	119.98
834.612	95.4
834.789	81.07
834.966	91.31
835.143	93.35
835.319	162.98
835.496	85.16
835.673	126.12
835.85	195.75
836.026	76.97
836.203	107.69
836.38	91.31
836.556	113.83
836.733	64.68
836.909	152.74
837.086	101.55
837.262	60.59
837.439	119.98
837.616	107.69
837.792	66.73
837.968	72.87
838.145	68.78
838.321	64.68
838.498	124.07
838.674	87.21
838.851	128.17
839.027	54.44
839.203	113.83
839.38	38.06
839.556	-19.29
839.732	79.02
839.909	105.64
840.085	54.44
840.261	74.92
840.437	154.79
840.614	150.7
840.79	107.69
840.966	74.92
841.142	29.87
841.318	9.39
841.494	89.26
841.671	113.83
841.847	115.88
842.023	38.06
842.199	95.4
842.375	154.79
842.551	95.4
842.727	46.25
842.903	103.59
843.079	74.92
843.255	146.6
843.431	91.31
843.607	136.36
843.783	21.67
843.959	105.64
844.134	50.35
844.31	128.17
844.486	38.06
844.662	23.72
844.838	81.07
845.013	138.41
845.189	74.92
845.365	126.12
845.541	15.53
845.716	79.02
845.892	99.5
846.068	109.74
846.244	62.63
846.419	70.83
846.595	148.65
846.77	117.93
846.946	87.21
847.122	46.25
847.297	31.91
847.473	97.45
847.648	113.83
847.824	70.83
847.999	38.06
848.175	124.07
848.35	74.92
848.526	54.44
848.701	122.02
848.876	97.45
849.052	19.63
849.227	70.83
849.403	29.87
849.578	66.73
849.753	54.44
849.929	56.49
850.104	29.87
850.279	54.44
850.454	113.83
850.63	38.06
850.805	81.07
850.98	83.11
851.155	56.49
851.33	89.26
851.505	81.07
851.681	70.83
851.856	89.26
852.031	48.3
852.206	70.83
852.381	42.15
852.556	99.5
852.731	54.44
852.906	76.97
853.081	66.73
853.256	60.59
853.431	23.72
853.606	119.98
853.781	70.83
853.956	68.78
854.131	81.07
854.305	-4.95
854.48	64.68
854.655	81.07
854.83	-52.05
855.005	33.96
855.18	60.59
855.354	38.06
855.529	111.78
855.704	48.3
855.879	97.45
856.053	-21.33
856.228	62.63
856.403	33.96
856.577	93.35
856.752	58.54
856.926	134.31
857.101	-11.09
857.276	36.01
857.45	17.58
857.625	70.83
857.799	23.72
857.974	89.26
858.148	23.72
858.323	11.43
858.497	76.97
858.672	-2.9
858.846	48.3
859.02	95.4
859.195	54.44
859.369	58.54
859.543	68.78
859.718	72.87
859.892	33.96
860.066	46.25
860.241	46.25
860.415	113.83
860.589	33.96
860.763	119.98
860.938	105.64
861.112	3.24
861.286	70.83
861.46	-33.62
861.634	44.2
861.808	44.2
861.982	95.4
862.157	5.29
862.331	33.96
862.505	54.44
862.679	58.54
862.853	83.11
863.027	-9.05
863.201	62.63
863.375	5.29
863.549	27.82
863.722	17.58
863.896	107.69
864.07	40.11
864.244	33.96
864.418	36.01
864.592	111.78
864.766	42.15
864.939	29.87
865.113	36.01
865.287	15.53
865.461	50.35
865.634	70.83
865.808	42.15
865.982	31.91
866.156	5.29
866.329	81.07
866.503	-50
866.676	74.92
866.85	74.92
867.024	70.83
867.197	74.92
867.371	-9.05
867.544	56.49
867.718	9.39
867.891	52.39
868.065	40.11
868.238	-9.05
868.412	76.97
868.585	48.3
868.759	17.58
868.932	33.96
869.105	62.63
869.279	36.01
869.452	60.59
869.625	13.48
869.799	52.39
869.972	36.01
870.145	58.54
870.319	17.58
870.492	21.67
870.665	-21.33
870.838	64.68
871.011	-7
871.185	31.91
871.358	40.11
871.531	91.31
871.704	-29.52
871.877	46.25
872.05	-2.9
872.223	68.78
872.396	68.78
872.569	91.31
872.742	-54.1
872.915	21.67
873.088	19.63
873.261	-21.33
873.434	42.15
873.607	62.63
873.78	27.82
873.953	19.63
874.126	11.43
874.299	11.43
874.471	-9.05
874.644	85.16
874.817	3.24
874.99	103.59
875.163	66.73
875.335	79.02
875.508	-52.05
875.681	54.44
875.853	15.53
876.026	54.44
876.199	-0.85
876.371	81.07
876.544	31.91
876.717	-0.85
876.889	25.77
877.062	66.73
877.234	21.67
877.407	5.29
877.579	5.29
877.752	46.25
877.924	83.11
878.097	97.45
878.269	89.26
878.442	-21.33
878.614	25.77
878.786	70.83
878.959	36.01
879.131	13.48
879.303	33.96
879.476	44.2
879.648	-25.43
879.82	64.68
879.993	15.53
880.165	81.07
880.337	3.24
880.509	58.54
880.681	7.34
880.854	44.2
881.026	3.24
881.198	87.21
881.37	17.58
881.542	70.83
881.714	119.98
881.886	58.54
882.058	105.64
882.23	60.59
882.402	-9.05
882.574	-11.09
882.746	89.26
882.918	66.73
883.09	64.68
883.262	19.63
883.434	5.29
883.606	42.15
883.778	136.36
883.95	154.79
884.122	50.35
884.293	40.11
884.465	23.72
884.637	40.11
884.809	44.2
884.98	-7
885.152	19.63
885.324	5.29
885.496	79.02
885.667	21.67
885.839	85.16
886.011	68.78
886.182	48.3
886.354	27.82
886.525	42.15
886.697	-4.95
886.869	109.74
887.04	9.39
887.212	46.25
887.383	97.45
887.555	70.83
887.726	52.39
887.897	99.5
888.069	-11.09
888.24	113.83
888.412	1.19
888.583	21.67
888.754	-0.85
888.926	11.43
889.097	-4.95
889.268	-9.05
889.44	50.35
889.611	29.87
889.782	-0.85
889.953	3.24
890.125	74.92
890.296	62.63
890.467	42.15
890.638	-2.9
890.809	83.11
890.98	-13.14
891.151	19.63
891.323	48.3
891.494	62.63
891.665	5.29
891.836	46.25
892.007	-2.9
892.178	54.44
892.349	117.93
892.52	11.43
892.691	68.78
892.862	-11.09
893.032	11.43
893.203	36.01
893.374	83.11
893.545	38.06
893.716	62.63
893.887	52.39
894.057	23.72
894.228	33.96
894.399	76.97
894.57	105.64
894.74	42.15
894.911	-43.86
895.082	3.24
895.253	21.67
895.423	66.73
895.594	54.44
895.764	50.35
895.935	-23.38
896.106	27.82
896.276	-54.1
896.447	-2.9
896.617	38.06
896.788	-41.81
896.958	42.15
897.129	74.92
897.299	-2.9
897.47	-19.29
897.64	46.25
897.81	19.63
897.981	46.25
898.151	-60.24
898.322	62.63
898.492	89.26
898.662	7.34
898.832	-27.48
899.003	50.35
899.173	-43.86
899.343	25.77
899.513	11.43
