Data from USB4F104151__6__12-26-57-397.txt Node

Date: Fri Mar 14 12:26:57 EDT 2025
User: louis
Spectrometer: USB4F10415
Trigger mode: 4
Integration Time (sec): 2.000000E-2
Scans to average: 1
Electric dark correction enabled: true
Nonlinearity correction enabled: false
Boxcar width: 0
XAxis mode: Wavelengths
Number of Pixels in Spectrum: 3648
>>>>>Begin Spectral Data<<<<<
178.204	-124.58
178.424	-124.58
178.644	-124.58
178.864	-100.01
179.084	-91.82
179.304	39.25
179.524	35.16
179.744	-42.67
179.964	37.2
180.184	-7.85
180.404	4.44
180.624	29.01
180.844	-5.8
181.064	-65.19
181.283	-57
181.503	12.63
181.723	20.82
181.943	-3.75
182.163	35.16
182.383	-7.85
182.602	96.6
182.822	-16.04
183.042	37.2
183.262	6.49
183.482	-42.67
183.701	37.2
183.921	80.21
184.141	14.68
184.361	117.08
184.58	-1.71
184.8	67.92
185.02	-28.33
185.239	35.16
185.459	20.82
185.679	-11.95
185.898	0.34
186.118	121.17
186.338	-9.9
186.557	82.26
186.777	4.44
186.997	24.92
187.216	18.77
187.436	61.78
187.655	14.68
187.875	69.97
188.095	51.54
188.314	20.82
188.534	47.44
188.753	47.44
188.973	49.49
189.192	-1.71
189.412	96.6
189.631	12.63
189.851	43.35
190.07	98.64
190.29	-26.28
190.509	74.07
190.729	-24.23
190.948	49.49
191.168	72.02
191.387	76.12
191.607	63.83
191.826	84.31
192.045	8.53
192.265	29.01
192.484	69.97
192.704	29.01
192.923	39.25
193.142	106.84
193.362	-1.71
193.581	115.03
193.8	-1.71
194.02	4.44
194.239	-13.99
194.458	55.64
194.678	8.53
194.897	90.45
195.116	14.68
195.335	53.59
195.555	37.2
195.774	-30.38
195.993	104.79
196.212	35.16
196.432	63.83
196.651	-7.85
196.87	57.68
197.089	137.56
197.308	76.12
197.528	98.64
197.747	-18.09
197.966	8.53
198.185	102.74
198.404	0.34
198.623	110.93
198.842	102.74
199.062	55.64
199.281	57.68
199.5	63.83
199.719	6.49
199.938	31.06
200.157	24.92
200.376	-36.52
200.595	61.78
200.814	22.87
201.033	-13.99
201.252	39.25
201.471	16.73
201.69	-18.09
201.909	41.3
202.128	39.25
202.347	49.49
202.566	47.44
202.785	-7.85
203.004	12.63
203.223	43.35
203.442	141.65
203.661	4.44
203.879	-1.71
204.098	35.16
204.317	39.25
204.536	47.44
204.755	80.21
204.974	98.64
205.193	55.64
205.411	72.02
205.63	-9.9
205.849	49.49
206.068	16.73
206.287	0.34
206.505	55.64
206.724	22.87
206.943	-13.99
207.162	24.92
207.381	2.39
207.599	14.68
207.818	49.49
208.037	43.35
208.255	26.96
208.474	53.59
208.693	55.64
208.911	-7.85
209.13	-1.71
209.349	45.4
209.567	49.49
209.786	18.77
210.005	2.39
210.223	61.78
210.442	39.25
210.661	20.82
210.879	4.44
211.098	41.3
211.316	47.44
211.535	14.68
211.753	61.78
211.972	61.78
212.191	67.92
212.409	49.49
212.628	6.49
212.846	18.77
213.065	59.73
213.283	61.78
213.502	-26.28
213.72	-13.99
213.938	26.96
214.157	80.21
214.375	80.21
214.594	-26.28
214.812	94.55
215.031	2.39
215.249	63.83
215.467	57.68
215.686	39.25
215.904	78.16
216.122	-3.75
216.341	74.07
216.559	41.3
216.778	92.5
216.996	-11.95
217.214	43.35
217.432	-16.04
217.651	63.83
217.869	69.97
218.087	65.88
218.306	55.64
218.524	35.16
218.742	20.82
218.96	-52.91
219.179	18.77
219.397	12.63
219.615	86.36
219.833	67.92
220.051	69.97
220.27	78.16
220.488	22.87
220.706	16.73
220.924	57.68
221.142	22.87
221.36	74.07
221.578	37.2
221.796	55.64
222.015	96.6
222.233	20.82
222.451	67.92
222.669	31.06
222.887	67.92
223.105	-9.9
223.323	41.3
223.541	53.59
223.759	10.58
223.977	78.16
224.195	78.16
224.413	57.68
224.631	14.68
224.849	18.77
225.067	39.25
225.285	47.44
225.503	-28.33
225.721	31.06
225.939	-1.71
226.157	-5.8
226.375	117.08
226.592	31.06
226.81	41.3
227.028	31.06
227.246	174.42
227.464	14.68
227.682	41.3
227.9	39.25
228.117	51.54
228.335	-11.95
228.553	-20.14
228.771	72.02
228.989	26.96
229.206	82.26
229.424	22.87
229.642	-16.04
229.86	76.12
230.077	84.31
230.295	110.93
230.513	24.92
230.731	63.83
230.948	47.44
231.166	65.88
231.384	6.49
231.601	29.01
231.819	67.92
232.037	41.3
232.254	35.16
232.472	26.96
232.689	55.64
232.907	115.03
233.125	110.93
233.342	37.2
233.56	14.68
233.777	31.06
233.995	24.92
234.213	35.16
234.43	55.64
234.648	-5.8
234.865	-36.52
235.083	72.02
235.3	55.64
235.518	55.64
235.735	37.2
235.953	18.77
236.17	16.73
236.388	112.98
236.605	112.98
236.822	31.06
237.04	43.35
237.257	49.49
237.475	-11.95
237.692	88.4
237.909	51.54
238.127	26.96
238.344	74.07
238.562	24.92
238.779	55.64
238.996	117.08
239.214	55.64
239.431	80.21
239.648	-9.9
239.865	-9.9
240.083	-24.23
240.3	26.96
240.517	123.22
240.735	31.06
240.952	45.4
241.169	49.49
241.386	-13.99
241.603	59.73
241.821	12.63
242.038	41.3
242.255	67.92
242.472	18.77
242.689	98.64
242.907	20.82
243.124	31.06
243.341	-34.47
243.558	26.96
243.775	-50.86
243.992	-7.85
244.209	-11.95
244.426	0.34
244.643	41.3
244.86	4.44
245.078	-13.99
245.295	37.2
245.512	61.78
245.729	-7.85
245.946	98.64
246.163	12.63
246.38	57.68
246.597	-11.95
246.814	22.87
247.031	-16.04
247.248	8.53
247.464	-18.09
247.681	96.6
247.898	18.77
248.115	26.96
248.332	76.12
248.549	26.96
248.766	39.25
248.983	145.75
249.2	45.4
249.417	53.59
249.633	18.77
249.85	104.79
250.067	-24.23
250.284	86.36
250.501	102.74
250.717	67.92
250.934	4.44
251.151	49.49
251.368	-28.33
251.585	57.68
251.801	59.73
252.018	63.83
252.235	10.58
252.451	67.92
252.668	0.34
252.885	65.88
253.102	-44.71
253.318	72.02
253.535	59.73
253.752	26.96
253.968	72.02
254.185	-3.75
254.401	-20.14
254.618	41.3
254.835	43.35
255.051	8.53
255.268	22.87
255.484	6.49
255.701	41.3
255.917	37.2
256.134	8.53
256.351	90.45
256.567	55.64
256.784	8.53
257	69.97
257.217	45.4
257.433	22.87
257.65	-3.75
257.866	18.77
258.082	51.54
258.299	0.34
258.515	-79.53
258.732	-24.23
258.948	92.5
259.165	80.21
259.381	88.4
259.597	45.4
259.814	80.21
260.03	57.68
260.246	2.39
260.463	6.49
260.679	8.53
260.895	26.96
261.112	90.45
261.328	57.68
261.544	61.78
261.761	84.31
261.977	10.58
262.193	69.97
262.409	-46.76
262.626	4.44
262.842	4.44
263.058	0.34
263.274	69.97
263.49	8.53
263.707	4.44
263.923	86.36
264.139	0.34
264.355	57.68
264.571	-42.67
264.787	55.64
265.004	57.68
265.22	69.97
265.436	-32.43
265.652	69.97
265.868	119.12
266.084	63.83
266.3	26.96
266.516	8.53
266.732	8.53
266.948	18.77
267.164	8.53
267.38	55.64
267.596	47.44
267.812	125.27
268.028	41.3
268.244	8.53
268.46	39.25
268.676	20.82
268.892	-26.28
269.108	39.25
269.324	31.06
269.54	35.16
269.756	39.25
269.972	-20.14
270.188	53.59
270.403	18.77
270.619	24.92
270.835	41.3
271.051	65.88
271.267	24.92
271.483	0.34
271.698	123.22
271.914	61.78
272.13	69.97
272.346	24.92
272.562	51.54
272.777	-18.09
272.993	35.16
273.209	33.11
273.425	96.6
273.64	29.01
273.856	61.78
274.072	100.69
274.287	51.54
274.503	41.3
274.719	51.54
274.934	0.34
275.15	53.59
275.366	31.06
275.581	-30.38
275.797	112.98
276.012	24.92
276.228	57.68
276.444	-30.38
276.659	22.87
276.875	14.68
277.09	14.68
277.306	20.82
277.521	55.64
277.737	86.36
277.952	88.4
278.168	22.87
278.383	49.49
278.599	45.4
278.814	26.96
279.03	67.92
279.245	41.3
279.461	24.92
279.676	6.49
279.892	-20.14
280.107	22.87
280.322	-30.38
280.538	90.45
280.753	47.44
280.969	65.88
281.184	26.96
281.399	0.34
281.615	41.3
281.83	49.49
282.045	-18.09
282.26	-28.33
282.476	43.35
282.691	-1.71
282.906	29.01
283.122	72.02
283.337	24.92
283.552	57.68
283.767	59.73
283.983	29.01
284.198	8.53
284.413	129.36
284.628	-42.67
284.843	6.49
285.058	10.58
285.274	69.97
285.489	-24.23
285.704	31.06
285.919	35.16
286.134	33.11
286.349	37.2
286.564	-22.19
286.779	78.16
286.995	86.36
287.21	10.58
287.425	108.88
287.64	24.92
287.855	-1.71
288.07	43.35
288.285	59.73
288.5	-3.75
288.715	6.49
288.93	0.34
289.145	41.3
289.36	24.92
289.575	12.63
289.79	51.54
290.004	82.26
290.219	78.16
290.434	-18.09
290.649	29.01
290.864	18.77
291.079	12.63
291.294	22.87
291.509	96.6
291.724	112.98
291.938	-16.04
292.153	18.77
292.368	102.74
292.583	92.5
292.798	49.49
293.012	90.45
293.227	72.02
293.442	14.68
293.657	35.16
293.871	76.12
294.086	18.77
294.301	-3.75
294.516	41.3
294.73	39.25
294.945	-7.85
295.16	39.25
295.374	69.97
295.589	106.84
295.804	51.54
296.018	65.88
296.233	57.68
296.447	59.73
296.662	39.25
296.877	53.59
297.091	2.39
297.306	74.07
297.52	41.3
297.735	24.92
297.949	26.96
298.164	61.78
298.378	35.16
298.593	51.54
298.807	37.2
299.022	24.92
299.236	12.63
299.451	31.06
299.665	24.92
299.88	31.06
300.094	-9.9
300.309	69.97
300.523	37.2
300.737	69.97
300.952	26.96
301.166	59.73
301.381	37.2
301.595	43.35
301.809	51.54
302.024	33.11
302.238	-1.71
302.452	39.25
302.667	31.06
302.881	24.92
303.095	2.39
303.309	100.69
303.524	84.31
303.738	59.73
303.952	63.83
304.166	35.16
304.381	-34.47
304.595	115.03
304.809	-11.95
305.023	47.44
305.237	20.82
305.452	12.63
305.666	135.51
305.88	61.78
306.094	26.96
306.308	84.31
306.522	-3.75
306.736	96.6
306.95	22.87
307.164	53.59
307.379	29.01
307.593	47.44
307.807	14.68
308.021	0.34
308.235	16.73
308.449	43.35
308.663	59.73
308.877	121.17
309.091	53.59
309.305	57.68
309.519	-16.04
309.733	90.45
309.947	-20.14
310.161	43.35
310.374	96.6
310.588	31.06
310.802	22.87
311.016	61.78
311.23	96.6
311.444	88.4
311.658	-11.95
311.872	47.44
312.085	65.88
312.299	117.08
312.513	94.55
312.727	67.92
312.941	2.39
313.154	59.73
313.368	18.77
313.582	-3.75
313.796	-36.52
314.009	55.64
314.223	94.55
314.437	39.25
314.651	104.79
314.864	37.2
315.078	-24.23
315.292	-40.62
315.505	-1.71
315.719	57.68
315.933	-18.09
316.146	-42.67
316.36	35.16
316.573	72.02
316.787	65.88
317.001	65.88
317.214	53.59
317.428	12.63
317.641	67.92
317.855	8.53
318.068	-38.57
318.282	8.53
318.495	8.53
318.709	67.92
318.922	53.59
319.136	41.3
319.349	4.44
319.563	49.49
319.776	35.16
319.99	-1.71
320.203	-7.85
320.417	65.88
320.63	80.21
320.843	49.49
321.057	61.78
321.27	-20.14
321.483	100.69
321.697	112.98
321.91	-24.23
322.124	37.2
322.337	45.4
322.55	26.96
322.763	88.4
322.977	61.78
323.19	45.4
323.403	69.97
323.617	16.73
323.83	121.17
324.043	72.02
324.256	67.92
324.469	10.58
324.683	112.98
324.896	35.16
325.109	10.58
325.322	-34.47
325.535	112.98
325.748	76.12
325.962	41.3
326.175	0.34
326.388	67.92
326.601	20.82
326.814	12.63
327.027	10.58
327.24	49.49
327.453	10.58
327.666	100.69
327.879	-1.71
328.092	59.73
328.305	10.58
328.518	55.64
328.731	12.63
328.944	78.16
329.157	55.64
329.37	78.16
329.583	92.5
329.796	22.87
330.009	47.44
330.222	26.96
330.435	-16.04
330.648	-3.75
330.861	35.16
331.073	51.54
331.286	-20.14
331.499	37.2
331.712	41.3
331.925	-1.71
332.138	55.64
332.35	26.96
332.563	53.59
332.776	55.64
332.989	39.25
333.202	96.6
333.414	43.35
333.627	51.54
333.84	106.84
334.053	35.16
334.265	74.07
334.478	10.58
334.691	110.93
334.903	51.54
335.116	18.77
335.329	43.35
335.541	96.6
335.754	92.5
335.966	10.58
336.179	35.16
336.392	41.3
336.604	90.45
336.817	-1.71
337.029	41.3
337.242	69.97
337.454	2.39
337.667	-36.52
337.88	-5.8
338.092	14.68
338.305	2.39
338.517	20.82
338.729	104.79
338.942	20.82
339.154	4.44
339.367	47.44
339.579	35.16
339.792	-3.75
340.004	33.11
340.217	-38.57
340.429	-1.71
340.641	10.58
340.854	39.25
341.066	74.07
341.278	80.21
341.491	22.87
341.703	80.21
341.915	45.4
342.128	55.64
342.34	4.44
342.552	26.96
342.764	59.73
342.977	20.82
343.189	43.35
343.401	29.01
343.613	18.77
343.826	18.77
344.038	43.35
344.25	22.87
344.462	29.01
344.674	55.64
344.886	-7.85
345.099	4.44
345.311	63.83
345.523	10.58
345.735	-48.81
345.947	65.88
346.159	90.45
346.371	45.4
346.583	51.54
346.795	108.88
347.007	16.73
347.219	35.16
347.431	55.64
347.643	63.83
347.855	24.92
348.067	166.23
348.279	20.82
348.491	69.97
348.703	39.25
348.915	53.59
349.127	41.3
349.339	41.3
349.551	-44.71
349.763	104.79
349.975	45.4
350.187	102.74
350.399	63.83
350.61	57.68
350.822	96.6
351.034	-38.57
351.246	61.78
351.458	47.44
351.669	88.4
351.881	63.83
352.093	104.79
352.305	74.07
352.517	69.97
352.728	69.97
352.94	67.92
353.152	45.4
353.363	72.02
353.575	12.63
353.787	61.78
353.999	100.69
354.21	72.02
354.422	16.73
354.633	88.4
354.845	31.06
355.057	39.25
355.268	29.01
355.48	39.25
355.692	0.34
355.903	47.44
356.115	41.3
356.326	2.39
356.538	45.4
356.749	43.35
356.961	96.6
357.172	51.54
357.384	43.35
357.595	61.78
357.807	33.11
358.018	-9.9
358.23	10.58
358.441	29.01
358.653	16.73
358.864	84.31
359.075	80.21
359.287	14.68
359.498	110.93
359.709	16.73
359.921	63.83
360.132	55.64
360.344	37.2
360.555	55.64
360.766	80.21
360.977	57.68
361.189	35.16
361.4	86.36
361.611	53.59
361.823	63.83
362.034	51.54
362.245	117.08
362.456	94.55
362.667	35.16
362.879	6.49
363.09	53.59
363.301	63.83
363.512	14.68
363.723	135.51
363.935	80.21
364.146	72.02
364.357	2.39
364.568	65.88
364.779	-5.8
364.99	6.49
365.201	18.77
365.412	88.4
365.623	41.3
365.834	-9.9
366.045	18.77
366.256	51.54
366.467	14.68
366.678	47.44
366.889	67.92
367.1	74.07
367.311	61.78
367.522	74.07
367.733	39.25
367.944	104.79
368.155	80.21
368.366	37.2
368.577	49.49
368.788	141.65
368.999	59.73
369.209	69.97
369.42	72.02
369.631	67.92
369.842	33.11
370.053	145.75
370.264	94.55
370.474	-13.99
370.685	67.92
370.896	35.16
371.107	92.5
371.317	98.64
371.528	43.35
371.739	37.2
371.95	86.36
372.16	35.16
372.371	12.63
372.582	31.06
372.792	51.54
373.003	112.98
373.214	53.59
373.424	22.87
373.635	-57
373.846	55.64
374.056	-13.99
374.267	74.07
374.477	14.68
374.688	127.32
374.898	37.2
375.109	88.4
375.319	76.12
375.53	82.26
375.74	49.49
375.951	59.73
376.161	63.83
376.372	96.6
376.582	78.16
376.793	57.68
377.003	10.58
377.214	45.4
377.424	12.63
377.635	61.78
377.845	-42.67
378.055	51.54
378.266	41.3
378.476	29.01
378.686	78.16
378.897	94.55
379.107	67.92
379.317	110.93
379.528	82.26
379.738	65.88
379.948	59.73
380.158	47.44
380.369	78.16
380.579	94.55
380.789	49.49
380.999	76.12
381.21	112.98
381.42	-18.09
381.63	-5.8
381.84	78.16
382.05	8.53
382.261	29.01
382.471	12.63
382.681	20.82
382.891	47.44
383.101	121.17
383.311	26.96
383.521	2.39
383.731	84.31
383.941	26.96
384.151	74.07
384.361	102.74
384.571	45.4
384.781	12.63
384.991	69.97
385.201	143.7
385.411	143.7
385.621	51.54
385.831	49.49
386.041	80.21
386.251	18.77
386.461	47.44
386.671	63.83
386.881	49.49
387.091	53.59
387.301	86.36
387.511	102.74
387.72	127.32
387.93	12.63
388.14	26.96
388.35	-18.09
388.56	78.16
388.769	69.97
388.979	39.25
389.189	4.44
389.399	63.83
389.609	67.92
389.818	78.16
390.028	67.92
390.238	55.64
390.447	-11.95
390.657	20.82
390.867	61.78
391.076	100.69
391.286	8.53
391.496	149.84
391.705	72.02
391.915	90.45
392.125	53.59
392.334	76.12
392.544	137.56
392.753	43.35
392.963	4.44
393.172	106.84
393.382	49.49
393.591	47.44
393.801	90.45
394.01	82.26
394.22	49.49
394.429	78.16
394.639	55.64
394.848	80.21
395.058	35.16
395.267	123.22
395.477	26.96
395.686	65.88
395.895	102.74
396.105	104.79
396.314	104.79
396.524	65.88
396.733	82.26
396.942	102.74
397.152	133.46
397.361	137.56
397.57	123.22
397.78	149.84
397.989	67.92
398.198	123.22
398.407	104.79
398.617	61.78
398.826	16.73
399.035	143.7
399.244	63.83
399.453	61.78
399.663	65.88
399.872	67.92
400.081	96.6
400.29	178.51
400.499	129.36
400.708	112.98
400.917	37.2
401.127	88.4
401.336	123.22
401.545	186.71
401.754	96.6
401.963	117.08
402.172	80.21
402.381	117.08
402.59	125.27
402.799	115.03
403.008	67.92
403.217	86.36
403.426	106.84
403.635	137.56
403.844	110.93
404.053	41.3
404.262	123.22
404.471	172.37
404.68	143.7
404.888	110.93
405.097	115.03
405.306	88.4
405.515	123.22
405.724	147.8
405.933	135.51
406.142	192.85
406.35	98.64
406.559	190.8
406.768	192.85
406.977	160.08
407.185	145.75
407.394	196.95
407.603	155.99
407.812	223.57
408.02	166.23
408.229	170.32
408.438	84.31
408.646	256.34
408.855	155.99
409.064	264.53
409.272	178.51
409.481	219.47
409.69	217.43
409.898	237.91
410.107	215.38
410.315	260.43
410.524	225.62
410.733	262.48
410.941	313.68
411.15	280.91
411.358	258.39
411.567	354.64
411.775	303.44
411.984	344.4
412.192	272.72
412.401	399.7
412.609	366.93
412.818	340.3
413.026	366.93
413.234	383.31
413.443	444.75
413.651	424.27
413.86	485.71
414.068	543.05
414.276	530.77
414.485	469.33
414.693	504.14
414.901	430.41
415.11	557.39
415.318	555.34
415.526	516.43
415.734	506.19
415.943	569.68
416.151	557.39
416.359	575.82
416.567	665.93
416.776	735.56
416.984	702.79
417.192	760.14
417.4	706.89
417.608	723.27
417.817	854.34
418.025	743.75
418.233	811.34
418.441	788.81
418.649	868.68
418.857	956.74
419.065	1001.8
419.273	975.17
419.481	1046.85
419.689	1057.09
419.897	1057.09
420.105	1110.34
420.313	1169.73
420.521	1241.41
420.729	1233.22
420.937	1298.75
421.145	1323.33
421.353	1341.76
421.561	1497.41
421.769	1384.77
421.977	1511.74
422.185	1585.47
422.393	1718.59
422.601	1663.29
422.809	1761.59
423.017	1620.28
423.224	1730.87
423.432	1816.89
423.64	1855.8
423.848	1952.06
424.056	1990.97
424.263	2185.52
424.471	2163
424.679	2150.71
424.887	2240.82
425.094	2335.03
425.302	2349.36
425.51	2382.13
425.718	2588.97
425.925	2543.92
426.133	2677.04
426.341	2709.8
426.548	2859.31
426.756	2861.35
426.964	2933.03
427.171	3062.05
427.379	3365.15
427.586	3309.86
427.794	3465.5
428.001	3410.21
428.209	3682.59
428.417	3619.1
428.624	3766.56
428.832	3891.48
429.039	3946.78
429.247	3735.84
429.454	4184.34
429.662	4452.63
429.869	4290.84
430.076	4403.47
430.284	4258.07
430.491	4598.03
430.699	4735.25
430.906	4845.84
431.114	5011.72
431.321	5212.42
431.528	5075.21
431.736	5566.72
431.943	5767.42
432.15	5599.49
432.358	5675.26
432.565	5882.11
432.772	6107.38
432.979	6328.56
433.187	6426.87
433.394	6547.7
433.601	6824.17
433.808	6850.8
434.016	6625.52
434.223	7020.78
434.43	7561.44
434.637	7411.94
434.844	7864.54
435.052	8077.53
435.259	7944.41
435.466	7905.5
435.673	7899.36
435.88	8519.89
436.087	8999.12
436.294	8786.13
436.501	9060.56
436.708	8923.34
436.915	9230.54
437.122	9636.03
437.329	9806.02
437.537	10289.34
437.743	10076.35
437.95	10102.97
438.157	10682.55
438.364	10881.2
438.571	11053.23
438.778	10928.3
438.985	12075.17
439.192	11638.95
439.399	11980.96
439.606	11808.93
439.813	12230.81
440.02	12837.01
440.227	12671.12
440.433	12515.48
440.64	13244.56
440.847	13037.71
441.054	13529.22
441.261	14415.99
441.467	14188.67
441.674	14413.95
441.881	14995.57
442.088	14880.88
442.294	14864.5
442.501	15122.54
442.708	15618.15
442.914	16085.09
443.121	16926.8
443.328	16119.9
443.534	17530.95
443.741	17016.91
443.948	16861.27
444.154	18008.13
444.361	17801.29
444.568	17834.05
444.774	18051.14
444.981	18161.73
445.187	18905.14
445.394	19939.37
445.6	19601.45
445.807	21200.91
446.013	20328.48
446.22	20750.36
446.426	21725.19
446.633	21630.99
446.839	22548.48
447.046	21710.86
447.252	22720.51
447.459	22958.07
447.665	22595.58
447.871	23588.85
448.078	24571.87
448.284	23824.36
448.491	24133.61
448.697	25292.76
448.903	25245.65
449.11	25651.15
449.316	25184.21
449.522	25907.15
449.728	26660.8
449.935	26836.92
450.141	26773.44
450.347	27187.13
450.553	26570.69
450.76	27013.05
450.966	27324.34
451.172	27619.25
451.378	28346.28
451.584	27654.06
451.791	28227.49
451.997	28192.68
452.203	28522.4
452.409	28735.39
452.615	28522.4
452.821	27260.85
453.027	27058.1
453.233	28739.49
453.44	27418.55
453.646	27862.96
453.852	27994.03
454.058	28661.66
454.264	27400.12
454.47	28043.18
454.676	27262.9
454.882	28602.27
455.088	26157
455.294	26001.35
455.5	26730.43
455.705	27279.29
455.911	26019.78
456.117	25597.9
456.323	25296.85
456.529	23857.13
456.735	25202.64
456.941	24162.28
457.147	23715.82
457.352	23156.72
457.558	22472.7
457.764	22951.93
457.97	22452.22
458.176	22274.05
458.381	22052.87
458.587	20846.62
458.793	21186.58
458.999	19912.74
459.204	21532.68
459.41	20772.89
459.616	19152.95
459.821	19406.89
460.027	19208.24
460.233	18765.88
460.438	17836.1
460.644	18102.34
460.85	17291.34
461.055	16928.85
461.261	17184.85
461.466	15734.89
461.672	15294.57
461.878	16461.91
462.083	15325.29
462.289	15050.86
462.494	14913.65
462.7	14250.11
462.905	14063.74
463.111	14178.43
463.316	14303.36
463.522	14022.78
463.727	13918.34
463.932	13987.97
464.138	13963.39
464.343	13686.92
464.549	13457.54
464.754	13865.09
464.959	13779.08
465.165	13836.42
465.37	13291.66
465.575	12998.8
465.781	13353.1
465.986	13420.68
466.191	12996.75
466.397	12781.71
466.602	11956.38
466.807	12619.92
467.012	12583.06
467.218	12564.63
467.423	12527.77
467.628	12624.02
467.833	12791.95
468.038	12310.68
468.244	12255.39
468.449	12427.42
468.654	12155.04
468.859	12161.18
469.064	12003.49
469.269	11589.8
469.474	11655.33
469.679	11825.31
469.885	11622.56
470.09	11833.5
470.295	11653.28
470.5	11450.53
470.705	11378.86
470.91	11352.23
471.115	11141.29
471.32	11190.44
471.525	11249.83
471.73	10922.16
471.935	10879.15
472.139	10633.4
472.344	10731.7
472.549	10633.4
472.754	10260.66
472.959	10213.56
473.164	10127.55
473.369	10025.15
473.574	10344.63
473.778	10301.62
473.983	10080.44
474.188	10074.3
474.393	9724.1
474.598	9771.2
474.802	9492.68
475.007	9521.35
475.212	9574.6
475.417	9236.68
475.621	9121.99
475.826	9152.71
476.031	9230.54
476.235	8706.26
476.44	8947.92
476.645	8874.19
476.849	8915.15
477.054	8618.19
477.259	8562.9
477.463	8569.04
477.668	8356.05
477.872	8736.98
478.077	8347.86
478.282	8259.8
478.486	8190.17
478.691	8175.83
478.895	7971.04
479.1	8016.09
479.304	8028.38
479.509	7835.87
479.713	7878.88
479.918	7696.61
480.122	7790.81
480.326	7690.46
480.531	7786.72
480.735	7606.5
480.94	7577.83
481.144	7702.75
481.348	7430.37
481.553	7647.46
481.757	7297.25
481.961	7407.84
482.166	7428.32
482.37	7497.95
482.574	7262.44
482.778	7450.85
482.983	7395.56
483.187	7338.21
483.391	7477.48
483.595	7325.93
483.8	7215.34
484.004	7354.6
484.208	7418.08
484.412	7383.27
484.616	7407.84
484.821	7581.92
485.025	7301.35
485.229	7416.04
485.433	7434.47
485.637	7428.32
485.841	7383.27
486.045	7332.07
486.249	7305.45
486.453	7399.65
486.657	7244.01
486.861	7442.66
487.065	7454.95
487.269	7358.69
487.473	7184.62
487.677	7553.25
487.881	7512.29
488.085	7309.54
488.289	7454.95
488.493	7551.2
488.697	7461.09
488.901	7426.28
489.105	7610.59
489.309	7692.51
489.512	7518.43
489.716	7465.19
489.92	7588.07
490.124	7424.23
490.328	7723.23
490.531	7463.14
490.735	7624.93
490.939	7676.13
491.143	7608.55
491.346	7592.16
491.55	7827.68
491.754	7723.23
491.958	7784.67
492.161	7803.1
492.365	7864.54
492.569	7657.7
492.772	7895.26
492.976	7893.21
493.18	7870.69
493.383	8149.21
493.587	7952.6
493.79	8093.91
493.994	8024.28
494.197	8198.36
494.401	8483.03
494.605	8229.08
494.808	8313.05
495.012	8370.39
495.215	8214.74
495.419	8607.95
495.622	8544.47
495.825	8571.09
496.029	8591.57
496.232	8822.99
496.436	8747.22
496.639	9156.81
496.843	8913.1
497.046	9087.18
497.249	9392.33
497.453	9294.02
497.656	9332.93
497.859	9527.49
498.063	9464
498.266	9666.75
498.469	9871.55
498.673	9871.55
498.876	9914.56
499.079	10074.3
499.282	9971.9
499.485	10066.11
499.689	10178.75
499.892	10467.51
500.095	10379.45
500.298	10565.81
500.501	10526.9
500.705	10844.34
500.908	10909.87
501.111	10999.98
501.314	11235.5
501.517	11262.12
501.72	11378.86
501.923	11419.82
502.126	11657.38
502.329	11931.81
502.532	11944.1
502.735	12038.3
502.938	12144.8
503.141	12394.65
503.344	12570.77
503.547	12521.62
503.75	12769.43
503.953	12941.46
504.156	12812.43
504.359	12992.66
504.562	13396.1
504.765	13219.98
504.968	13619.33
505.17	13770.88
505.373	13691.01
505.576	13934.72
505.779	14012.54
505.982	14071.93
506.185	14430.33
506.387	14573.69
506.59	14708.85
506.793	14956.66
506.996	14710.9
507.198	15382.63
507.401	15077.49
507.604	15276.14
507.807	15532.14
508.009	15894.63
508.212	16033.89
508.415	15757.41
508.617	16203.87
508.82	16498.78
509.022	16437.34
509.225	16765.01
509.428	16656.47
509.63	16820.31
509.833	17066.06
510.035	17389.64
510.238	17311.82
510.44	17385.55
510.643	17535.05
510.845	18112.58
511.048	18012.23
511.25	18151.49
511.453	18501.69
511.655	19132.47
511.858	18710.58
512.06	18853.94
512.262	19048.5
512.465	19060.79
512.667	19585.07
512.87	19896.36
513.072	19922.98
513.274	20273.18
513.477	20123.68
513.679	20283.42
513.881	20819.99
514.084	20668.44
514.286	20916.25
514.488	21016.6
514.69	21452.81
514.893	21440.53
515.095	21530.64
515.297	21733.39
515.499	21897.22
515.701	22114.31
515.904	22593.53
516.106	22618.11
516.308	22700.03
516.51	23001.08
516.712	23033.85
516.914	23355.38
517.116	23590.89
517.318	23353.33
517.52	23750.63
517.722	24125.41
517.925	24004.58
518.127	24592.35
518.329	24436.7
518.531	24535.01
518.733	24881.11
518.935	24987.61
519.136	24956.89
519.338	25550.8
519.54	25767.88
519.742	25690.06
519.944	26083.27
520.146	26613.7
520.348	26556.35
520.55	26425.28
520.752	26525.63
520.954	27033.53
521.155	26898.36
521.357	27230.13
521.559	27531.19
521.761	27889.58
521.963	27809.71
522.164	28270.5
522.366	28221.35
522.568	28465.06
522.77	28571.55
522.971	28866.46
523.173	28522.4
523.375	29005.72
523.576	28938.14
523.778	29118.36
523.98	29894.54
524.181	29648.78
524.383	29869.97
524.584	30021.52
524.786	30173.06
524.988	30283.66
525.189	30295.94
525.391	30443.4
525.592	30996.35
525.794	30818.18
525.995	30646.15
526.197	30861.18
526.398	31211.39
526.6	30771.07
526.801	31356.79
527.003	31446.9
527.204	30961.53
527.406	31801.2
527.607	31500.15
527.808	31786.86
528.01	31473.53
528.211	31911.79
528.412	32667.49
528.614	32139.11
528.815	32286.57
529.016	32456.55
529.218	32302.95
529.419	32323.43
529.62	32483.17
529.822	32563.04
530.023	32419.69
530.224	32229.23
530.425	32370.54
530.626	32376.68
530.828	32393.06
531.029	33101.66
531.23	32683.87
531.431	32585.57
531.632	32651.11
531.833	32894.82
532.035	33089.37
532.236	33279.83
532.437	33232.73
532.638	33056.6
532.839	33146.72
533.04	33335.13
533.241	32749.41
533.442	33331.03
533.643	33183.58
533.844	33314.65
534.045	33199.96
534.246	33058.65
534.447	33333.08
534.648	33015.65
534.849	33562.45
535.05	33505.11
535.251	33595.22
535.451	33156.96
535.652	33627.99
535.853	33535.83
536.054	33462.1
536.255	33767.25
536.456	32986.97
536.657	33625.94
536.857	33619.8
537.058	33064.8
537.259	33523.54
537.46	33427.29
537.66	33476.44
537.861	33183.58
538.062	33374.04
538.263	33453.91
538.463	33482.58
538.664	33556.31
538.865	33617.75
539.065	33738.58
539.266	33304.41
539.466	33525.59
539.667	33298.27
539.868	34139.98
540.068	33251.16
540.269	33247.07
540.469	33797.97
540.67	33159
540.87	33263.45
541.071	33249.11
541.271	33507.16
541.472	33613.65
541.672	33400.66
541.873	33302.36
542.073	32946.01
542.274	33566.55
542.474	33513.3
542.675	33111.9
542.875	33611.6
543.075	33611.6
543.276	33240.92
543.476	33656.66
543.676	33249.11
543.877	33507.16
544.077	33181.53
544.277	33365.85
544.478	33535.83
544.678	33437.53
544.878	33517.4
545.078	33070.94
545.279	32976.73
545.479	33296.22
545.679	33038.17
545.879	33208.15
546.079	33292.12
546.28	33406.81
546.48	32735.07
546.68	33122.14
546.88	33439.58
547.08	33175.39
547.28	32761.7
547.48	33005.41
547.68	33034.08
547.88	33019.74
548.081	33283.93
548.281	32907.1
548.481	33116
548.681	33314.65
548.881	32954.21
549.081	32993.12
549.28	33169.24
549.48	33390.42
549.68	32819.04
549.88	33159
550.08	32843.62
550.28	33060.7
550.48	33132.38
550.68	33320.79
550.88	33046.37
551.08	33267.55
551.279	33490.77
551.479	33079.13
551.679	33152.86
551.879	33105.76
552.079	33161.05
552.278	32460.65
552.478	33005.41
552.678	33150.81
552.878	33052.51
553.077	32872.29
553.277	32868.19
553.477	33134.43
553.676	32872.29
553.876	32982.88
554.076	32993.12
554.275	33056.6
554.475	32634.72
554.674	33113.95
554.874	32737.12
555.074	32788.32
555.273	32814.94
555.473	32790.37
555.672	32665.44
555.872	32767.84
556.071	32878.43
556.271	32792.42
556.47	32520.04
556.67	32337.77
556.869	32366.44
557.068	32450.41
557.268	32466.79
557.467	32845.66
557.667	32307.05
557.866	32489.32
558.065	32489.32
558.265	31743.86
558.464	32464.74
558.663	32421.73
558.863	32020.33
559.062	32509.8
559.261	31905.65
559.461	32333.67
559.66	32038.76
559.859	32296.81
560.058	31993.71
560.258	31995.76
560.457	31868.78
560.656	32003.95
560.855	31907.69
561.054	32006
561.253	31934.32
561.453	31958.89
561.652	31844.21
561.851	32081.77
562.05	31786.86
562.249	31244.15
562.448	31766.38
562.647	31145.85
562.846	31305.59
563.045	31614.83
563.244	31295.35
563.443	31582.07
563.642	31250.3
563.841	31262.58
564.04	30971.77
564.239	31606.64
564.438	31401.85
564.637	31336.31
564.836	31420.28
565.035	31168.38
565.234	30889.85
565.432	30879.61
565.631	31125.37
565.83	30922.62
566.029	30869.37
566.228	30771.07
566.427	30795.65
566.625	30461.83
566.824	30218.12
567.023	30742.4
567.222	30300.04
567.42	30683.01
567.619	30398.34
567.818	30400.39
568.016	30107.53
568.215	30764.93
568.414	30328.71
568.612	30314.37
568.811	30244.74
569.01	30211.98
569.208	30027.66
569.407	30097.29
569.605	29894.54
569.804	30187.4
570.002	29710.22
570.201	29906.83
570.4	29417.36
570.598	29740.94
570.797	29480.85
570.995	29925.26
571.193	29226.9
571.392	29484.95
571.59	29325.21
571.789	29337.49
571.987	29089.69
572.186	29226.9
572.384	29077.4
572.582	29226.9
572.781	29237.14
572.979	28733.34
573.177	28555.17
573.376	29280.15
573.574	28825.5
573.772	28944.28
573.971	28817.31
574.169	28417.96
574.367	28387.24
574.565	28585.89
574.763	28446.63
574.962	28714.91
575.16	28217.25
575.358	28395.43
575.556	28135.34
575.754	28313.51
575.952	28090.28
576.151	28475.3
576.349	27633.58
576.547	27793.33
576.745	27670.45
576.943	27961.26
577.141	27846.57
577.339	27881.39
577.537	27432.88
577.735	27662.26
577.933	27406.26
578.131	27652.02
578.329	27525.04
578.527	27105.21
578.725	27262.9
578.923	27258.81
579.121	26898.36
579.319	27107.26
579.516	27215.8
579.714	27320.24
579.912	26838.97
580.11	26806.2
580.308	26922.94
580.506	26798.01
580.704	26464.19
580.901	26429.38
581.099	26722.24
581.297	26554.3
581.495	26339.27
581.692	26349.51
581.89	25997.26
582.088	26576.83
582.285	26111.94
582.483	26417.09
582.681	26222.53
582.878	26105.8
583.076	25753.55
583.274	26249.16
583.471	25567.18
583.669	25743.31
583.866	25737.16
584.064	25839.56
584.262	25343.95
584.459	25911.24
584.657	25378.77
584.854	25796.56
585.052	25008.09
585.249	25364.43
585.447	25544.66
585.644	24825.82
585.841	25227.22
586.039	25370.58
586.236	24858.59
586.434	24905.69
586.631	24846.3
586.828	24868.83
587.026	24874.97
587.223	24752.09
587.42	24750.04
587.618	24793.05
587.815	24428.51
588.012	24526.82
588.21	24354.79
588.407	24518.62
588.604	24184.8
588.801	24178.66
588.999	24330.21
589.196	24432.61
589.393	24098.79
589.59	24070.12
589.787	23930.86
589.984	24078.31
590.182	23805.93
590.379	23842.79
590.576	23459.82
590.773	23488.49
590.97	23697.39
591.167	23635.95
591.364	23478.26
591.561	23533.55
591.758	22900.73
591.955	23396.34
592.152	23166.96
592.349	23060.47
592.546	23062.52
592.743	23023.61
592.94	22708.22
593.137	22874.1
593.334	23191.54
593.531	22446.08
593.727	22511.61
593.924	22702.07
594.121	22585.34
594.318	22894.58
594.515	22339.58
594.712	22611.96
594.908	21886.98
595.105	22272
595.302	22126.6
595.499	22296.58
595.696	22190.08
595.892	21798.92
596.089	22050.82
596.286	22065.16
596.482	21684.23
596.679	21993.48
596.876	21899.27
597.072	21385.23
597.269	21948.42
597.466	21645.32
597.662	21243.92
597.859	21401.61
598.055	21514.25
598.252	21418
598.448	21303.31
598.645	21346.32
598.841	21215.25
599.038	21227.54
599.234	21151.76
599.431	20869.14
599.627	20885.53
599.824	21016.6
600.02	20830.23
600.217	21053.46
600.413	20582.43
600.609	20762.65
600.806	20525.08
601.002	20488.22
601.198	20375.58
601.395	20359.2
601.591	20531.23
601.787	20201.51
601.984	20338.72
602.18	20168.74
602.376	20080.67
602.572	19894.31
602.769	19855.4
602.965	19855.4
603.161	19949.6
603.357	19869.73
603.553	19632.17
603.75	20027.43
603.946	19660.84
604.142	19474.48
604.338	19353.65
604.534	19666.99
604.73	19224.62
604.926	19277.87
605.122	19568.68
605.318	19148.85
605.514	19163.18
605.71	19281.97
605.906	18901.04
606.102	19138.61
606.298	19232.82
606.494	18901.04
606.69	18944.05
606.886	18913.33
607.082	18843.7
607.278	19171.38
607.474	18444.35
607.67	18788.41
607.866	18509.88
608.062	18815.03
608.257	18565.18
608.453	18380.86
608.649	18565.18
608.845	18257.98
609.041	18556.99
609.236	18569.27
609.432	18282.56
609.628	18339.9
609.824	18196.54
610.019	18335.81
610.215	18335.81
610.411	18204.74
610.606	17981.51
610.802	18163.78
610.998	18126.91
611.193	18114.62
611.389	18071.62
611.584	17844.29
611.78	17705.03
611.976	18184.26
612.171	17819.72
612.367	17952.84
612.562	17610.82
612.758	17809.48
612.953	17836.1
613.149	17821.77
613.344	17764.42
613.539	17946.69
613.735	17789
613.93	17774.66
614.126	17483.85
614.321	17711.18
614.517	17741.89
614.712	17664.07
614.907	17604.68
615.103	17748.04
615.298	17125.46
615.493	17610.82
615.688	17160.27
615.884	17723.46
616.079	16957.52
616.274	17221.71
616.47	17039.44
616.665	17139.79
616.86	17150.03
617.055	16828.5
617.25	17150.03
617.445	17197.13
617.641	16785.49
617.836	16832.6
618.031	16644.18
618.226	16934.99
618.421	16732.25
618.616	16947.28
618.811	16689.24
619.006	16906.32
619.201	16527.45
619.396	16676.95
619.591	16232.54
619.786	16732.25
619.981	16629.85
620.176	16474.2
620.371	16441.43
620.566	16285.79
620.761	16040.03
620.956	16164.96
621.151	16037.98
621.346	15755.36
621.541	15716.45
621.735	15992.93
621.93	15517.8
622.125	15769.7
622.32	15417.45
622.515	15376.49
622.709	15466.6
622.904	15251.56
623.099	14936.18
623.294	15226.99
623.488	14964.85
623.683	15226.99
623.878	14743.67
624.072	14936.18
624.267	14792.82
624.462	14639.22
624.656	14661.75
624.851	14610.55
625.046	14497.91
625.24	14407.8
625.435	14160
625.629	14547.06
625.824	14235.77
626.018	14291.07
626.213	13910.15
626.407	14127.23
626.602	13779.08
626.796	14010.5
626.991	13844.61
627.185	13752.45
627.38	13523.08
627.574	13695.11
627.768	13410.44
627.963	13295.75
628.157	13607.05
628.352	13510.79
628.546	13215.88
628.74	13265.03
628.935	12880.02
629.129	13213.84
629.323	13004.94
629.517	12783.76
629.712	12834.96
629.906	12689.56
630.1	12705.94
630.294	12746.9
630.489	12505.24
630.683	12486.81
630.877	12259.48
631.071	12241.05
631.265	12298.39
631.459	12361.88
631.653	12232.86
631.848	12144.8
632.042	12112.03
632.236	11931.81
632.43	11864.22
632.624	12023.97
632.818	11872.42
633.012	11735.2
633.206	11600.04
633.4	11686.05
633.594	11493.54
633.788	11528.36
633.982	11499.69
634.176	11501.73
634.369	11440.29
634.563	11301.03
634.757	11196.59
634.951	11286.7
635.145	11245.74
635.339	11200.68
635.533	11157.68
635.726	10911.92
635.92	10891.44
636.114	10805.42
636.308	10858.67
636.501	10647.73
636.695	10782.9
636.889	10711.22
637.083	10494.13
637.276	10379.45
637.47	10361.02
637.664	10238.14
637.857	10481.85
638.051	10188.99
638.244	10256.57
638.438	10268.86
638.632	10195.13
638.825	10082.49
639.019	9967.81
639.212	10068.16
639.406	9892.03
639.599	9822.4
639.793	9932.99
639.986	9810.11
640.18	9773.25
640.373	9902.27
640.567	9693.38
640.76	9683.14
640.954	9513.16
641.147	9586.88
641.34	9367.75
641.534	9500.87
641.727	9330.89
641.92	9398.47
642.114	9396.42
642.307	9224.39
642.5	9365.7
642.694	8992.97
642.887	9148.62
643.08	9183.43
643.273	9035.98
643.467	8970.44
643.66	8818.89
643.853	8827.09
644.046	8644.82
644.239	9003.21
644.432	8724.69
644.626	8556.75
644.819	8630.48
645.012	8769.74
645.205	8673.49
645.398	8610
645.591	8526.04
645.784	8540.37
645.977	8108.25
646.17	8292.57
646.363	8376.53
646.556	8108.25
646.749	8206.55
646.942	8171.74
647.135	8175.83
647.328	8075.48
647.521	8055
647.714	7862.49
647.907	7809.25
648.099	7725.28
648.292	7913.69
648.485	7923.93
648.678	7688.42
648.871	7667.94
649.064	7641.31
649.256	7669.98
649.449	7762.14
649.642	7688.42
649.835	7680.22
650.027	7516.39
650.22	7553.25
650.413	7534.82
650.605	7543.01
650.798	7442.66
650.991	7454.95
651.183	7360.74
651.376	7403.75
651.568	7301.35
651.761	7211.24
651.954	7067.88
652.146	7155.94
652.339	7123.18
652.531	6858.99
652.724	6975.72
652.916	6942.96
653.109	7002.35
653.301	7008.49
653.494	6928.62
653.686	6699.25
653.879	6881.52
654.071	6877.42
654.263	6822.13
654.456	6783.21
654.648	6846.7
654.84	6473.97
655.033	6578.42
655.225	6629.62
655.417	6562.03
655.61	6453.49
655.802	6482.16
655.994	6430.96
656.186	6492.4
656.379	6242.55
656.571	6459.63
656.763	6310.13
656.955	6322.42
657.148	6349.04
657.34	6316.28
657.532	6134.01
657.724	6129.91
657.916	6101.24
658.108	6146.3
658.3	6070.52
658.492	5994.75
658.684	5824.76
658.876	5937.4
659.068	6017.27
659.26	5880.06
659.452	5980.41
659.644	6023.42
659.836	5865.72
660.028	5781.76
660.22	5751.04
660.412	5699.84
660.604	5642.5
660.796	5744.89
660.988	5632.26
661.18	5533.95
661.372	5579.01
661.563	5726.46
661.755	5552.38
661.947	5415.17
662.139	5603.58
662.331	5472.51
662.522	5492.99
662.714	5402.88
662.906	5429.51
663.097	5394.69
663.289	5366.02
663.481	5323.01
663.673	5210.37
663.864	5284.1
664.056	5187.85
664.247	5314.82
664.439	5171.46
664.631	5148.93
664.822	5144.84
665.014	5048.58
665.205	5214.47
665.397	4878.6
665.588	5062.92
665.78	4966.67
665.971	4868.36
666.163	4976.91
666.354	4989.19
666.546	4825.36
666.737	4817.16
666.929	4821.26
667.12	4839.69
667.311	4909.32
667.503	4675.85
667.694	4819.21
667.885	4735.25
668.077	4821.26
668.268	4700.43
668.459	4745.48
668.651	4563.22
668.842	4692.24
669.033	4589.84
669.224	4571.41
669.416	4559.12
669.607	4577.55
669.798	4499.73
669.989	4528.4
670.18	4503.82
670.371	4561.17
670.563	4419.86
670.754	4503.82
670.945	4512.02
671.136	4438.29
671.327	4258.07
671.518	4407.57
671.709	4296.98
671.9	4337.94
672.091	4426
672.282	4292.88
672.473	4360.47
672.664	4327.7
672.855	4215.06
673.046	4292.88
673.237	4270.36
673.428	4260.12
673.619	4233.49
673.809	4202.77
674	4090.13
674.191	4299.03
674.382	4192.53
674.573	4141.33
674.764	4141.33
674.954	4186.39
675.145	4167.96
675.336	3952.92
675.527	3975.45
675.717	4012.31
675.908	4127
676.099	4141.33
676.289	4213.01
676.48	3950.87
676.671	4000.02
676.861	4028.7
677.052	3961.11
677.243	3975.45
677.433	4077.85
677.624	4002.07
677.814	3760.41
678.005	3897.63
678.195	3838.23
678.386	3965.21
678.576	3895.58
678.767	3965.21
678.957	3926.3
679.148	3942.68
679.338	3848.47
679.529	3858.71
679.719	3731.74
679.909	3868.95
680.1	3651.87
680.29	3862.81
680.481	3696.92
680.671	3844.38
680.861	3711.26
681.052	3838.23
681.242	3596.57
681.432	3627.29
681.622	3809.56
681.813	3565.85
682.003	3664.16
682.193	3735.84
682.383	3703.07
682.573	3817.76
682.764	3668.25
682.954	3629.34
683.144	3604.77
683.334	3721.5
683.524	3770.65
683.714	3725.6
683.904	3578.14
684.094	3643.68
684.284	3549.47
684.474	3641.63
684.664	3537.18
684.854	3686.69
685.044	3404.07
685.234	3502.37
685.424	3428.64
685.614	3422.5
685.804	3498.27
685.994	3551.52
686.184	3588.38
686.374	3350.82
686.564	3373.35
686.753	3313.95
686.943	3365.15
687.133	3336.48
687.323	3344.67
687.513	3266.85
687.702	3338.53
687.892	3316
688.082	3383.59
688.272	3344.67
688.461	3262.76
688.651	3361.06
688.841	3283.24
689.03	3266.85
689.22	3105.06
689.41	3203.36
689.599	3178.79
689.789	3133.73
689.979	3121.45
690.168	3141.93
690.358	3043.62
690.547	2990.38
690.737	3203.36
690.926	3033.38
691.116	3051.81
691.305	3025.19
691.495	2953.51
691.684	2984.23
691.874	3088.68
692.063	2935.08
692.252	2961.7
692.442	3014.95
692.631	2939.18
692.82	3033.38
693.01	2892.07
693.199	2873.64
693.388	2763.05
693.578	2838.83
693.767	2976.04
693.956	2840.87
694.146	2961.7
694.335	2777.39
694.524	2836.78
694.713	2804.01
694.902	2797.87
695.092	2838.83
695.281	2810.15
695.47	2781.48
695.659	2629.93
695.848	2634.03
696.037	2650.41
696.226	2797.87
696.415	2603.31
696.604	2748.72
696.793	2695.47
696.982	2726.19
697.171	2640.17
697.36	2715.95
697.549	2603.31
697.738	2597.17
697.927	2611.5
698.116	2736.43
698.305	2707.76
698.494	2607.41
698.683	2709.8
698.872	2593.07
699.061	2703.66
699.25	2517.29
699.438	2677.04
699.627	2752.81
699.816	2603.31
700.005	2580.78
700.193	2529.58
700.382	2607.41
700.571	2576.69
700.76	2527.53
700.948	2517.29
701.137	2431.28
701.326	2511.15
701.514	2466.1
701.703	2560.3
701.892	2584.88
702.08	2638.13
702.269	2507.06
702.457	2523.44
702.646	2476.34
702.834	2400.56
703.023	2560.3
703.212	2470.19
703.4	2474.29
703.589	2523.44
703.777	2576.69
703.965	2462
704.154	2494.77
704.342	2515.25
704.531	2525.49
704.719	2435.38
704.907	2459.95
705.096	2470.19
705.284	2507.06
705.472	2435.38
705.661	2445.62
705.849	2529.58
706.037	2439.47
706.226	2554.16
706.414	2638.13
706.602	2554.16
706.79	2382.13
706.979	2470.19
707.167	2464.05
707.355	2406.7
707.543	2337.07
707.731	2543.92
707.919	2423.09
708.107	2369.84
708.296	2445.62
708.484	2441.52
708.672	2513.2
708.86	2421.04
709.048	2505.01
709.236	2490.67
709.424	2556.21
709.612	2490.67
709.8	2410.8
709.988	2445.62
710.176	2400.56
710.364	2316.59
710.551	2357.55
710.739	2433.33
710.927	2429.23
711.115	2367.79
711.303	2480.43
711.491	2466.1
711.679	2312.5
711.866	2359.6
712.054	2388.27
712.242	2468.14
712.43	2443.57
712.617	2363.7
712.805	2396.46
712.993	2433.33
713.181	2421.04
713.368	2384.18
713.556	2421.04
713.744	2316.59
713.931	2433.33
714.119	2451.76
714.306	2535.73
714.494	2416.94
714.682	2400.56
714.869	2404.66
715.057	2521.39
715.244	2480.43
715.432	2390.32
715.619	2462
715.807	2507.06
715.994	2433.33
716.182	2406.7
716.369	2378.03
716.556	2373.94
716.744	2384.18
716.931	2375.99
717.119	2330.93
717.306	2457.9
717.493	2462
717.681	2455.86
717.868	2453.81
718.055	2279.73
718.242	2445.62
718.43	2502.96
718.617	2439.47
718.804	2396.46
718.991	2373.94
719.179	2470.19
719.366	2480.43
719.553	2498.86
719.74	2375.99
719.927	2339.12
720.114	2386.22
720.301	2445.62
720.488	2418.99
720.676	2412.85
720.863	2431.28
721.05	2531.63
721.237	2367.79
721.424	2402.61
721.611	2402.61
721.798	2339.12
721.985	2386.22
722.172	2459.95
722.358	2343.22
722.545	2386.22
722.732	2359.6
722.919	2382.13
723.106	2421.04
723.293	2371.89
723.48	2414.9
723.667	2418.99
723.853	2355.51
724.04	2498.86
724.227	2285.87
724.414	2355.51
724.6	2373.94
724.787	2570.54
724.974	2517.29
725.161	2421.04
725.347	2431.28
725.534	2384.18
725.72	2509.1
725.907	2314.55
726.094	2429.23
726.28	2353.46
726.467	2355.51
726.653	2367.79
726.84	2390.32
727.027	2488.62
727.213	2355.51
727.4	2445.62
727.586	2402.61
727.773	2402.61
727.959	2386.22
728.145	2359.6
728.332	2314.55
728.518	2414.9
728.705	2486.58
728.891	2494.77
729.077	2339.12
729.264	2517.29
729.45	2326.83
729.636	2406.7
729.823	2369.84
730.009	2519.34
730.195	2382.13
730.382	2347.31
730.568	2490.67
730.754	2437.42
730.94	2388.27
731.126	2431.28
731.313	2373.94
731.499	2490.67
731.685	2337.07
731.871	2332.98
732.057	2425.14
732.243	2529.58
732.429	2484.53
732.615	2281.78
732.801	2416.94
732.987	2502.96
733.173	2228.53
733.359	2347.31
733.545	2447.66
733.731	2423.09
733.917	2439.47
734.103	2320.69
734.289	2423.09
734.475	2306.35
734.661	2345.27
734.847	2371.89
735.033	2408.75
735.219	2388.27
735.404	2429.23
735.59	2367.79
735.776	2339.12
735.962	2382.13
736.148	2439.47
736.333	2349.36
736.519	2294.07
736.705	2388.27
736.89	2373.94
737.076	2382.13
737.262	2238.77
737.447	2314.55
737.633	2367.79
737.819	2283.83
738.004	2189.62
738.19	2212.15
738.375	2367.79
738.561	2349.36
738.747	2332.98
738.932	2318.64
739.118	2271.54
739.303	2279.73
739.489	2326.83
739.674	2212.15
739.859	2265.39
740.045	2228.53
740.23	2273.59
740.416	2294.07
740.601	2289.97
740.786	2267.44
740.972	2232.63
741.157	2273.59
741.342	2238.77
741.528	2257.2
741.713	2138.42
741.898	2130.23
742.084	2169.14
742.269	2341.17
742.454	2199.86
742.639	2154.8
742.824	2244.92
743.01	2187.57
743.195	2154.8
743.38	2138.42
743.565	2208.05
743.75	2193.72
743.935	2185.52
744.12	2191.67
744.305	1982.78
744.49	2085.17
744.675	2017.59
744.86	2044.21
745.045	2097.46
745.23	2013.49
745.415	2142.52
745.6	2068.79
745.785	2068.79
745.97	2095.41
746.155	2042.17
746.34	1984.82
746.525	2023.73
746.71	2027.83
746.895	1947.96
747.079	1945.91
747.264	1894.71
747.449	1978.68
747.634	1882.42
747.819	1886.52
748.003	1882.42
748.188	1818.94
748.373	1972.54
748.557	1890.62
748.742	1917.24
748.927	1884.47
749.111	1784.12
749.296	1863.99
749.481	1866.04
749.665	1853.75
749.85	1706.3
750.034	1882.42
750.219	1743.16
750.404	1794.36
750.588	1786.17
750.773	1610.04
750.957	1681.72
751.141	1632.57
751.326	1696.06
751.51	1681.72
751.695	1712.44
751.879	1564.99
752.064	1720.64
752.248	1691.96
752.432	1655.1
752.617	1638.72
752.801	1636.67
752.985	1489.21
753.17	1558.85
753.354	1556.8
753.538	1556.8
753.722	1634.62
753.907	1478.97
754.091	1505.6
754.275	1536.32
754.459	1448.26
754.643	1462.59
754.828	1419.58
755.012	1505.6
755.196	1364.29
755.38	1470.78
755.564	1478.97
755.748	1444.16
755.932	1462.59
756.116	1456.45
756.3	1438.02
756.484	1403.2
756.668	1513.79
756.852	1341.76
757.036	1306.95
757.22	1272.13
757.404	1308.99
757.588	1368.38
757.772	1397.06
757.956	1325.38
758.14	1466.69
758.323	1263.94
758.507	1360.19
758.691	1265.99
758.875	1339.71
759.059	1341.76
759.242	1237.31
759.426	1235.27
759.61	1188.16
759.794	1093.96
759.977	1198.4
760.161	1323.33
760.345	1175.88
760.528	1245.51
760.712	1225.03
760.895	1173.83
761.079	1227.07
761.263	1198.4
761.446	1096
761.63	1222.98
761.813	1196.36
761.997	1249.6
762.18	1143.11
762.364	1210.69
762.547	1126.72
762.731	1196.36
762.914	1087.81
763.098	1118.53
763.281	1026.37
763.464	1155.4
763.648	1143.11
763.831	1141.06
764.015	1055.05
764.198	1153.35
764.381	1153.35
764.564	1067.33
764.748	1116.48
764.931	1087.81
765.114	1071.43
765.297	991.56
765.481	1020.23
765.664	1134.92
765.847	1079.62
766.03	962.89
766.213	985.41
766.397	1022.28
766.58	1012.04
766.763	1114.44
766.946	1065.29
767.129	995.65
767.312	989.51
767.495	991.56
767.678	989.51
767.861	950.6
768.044	987.46
768.227	954.69
768.41	880.97
768.593	952.65
768.776	975.17
768.959	944.45
769.142	930.12
769.324	889.16
769.507	944.45
769.69	962.89
769.873	899.4
770.056	919.88
770.239	960.84
770.421	868.68
770.604	993.61
770.787	985.41
770.97	899.4
771.152	913.74
771.335	905.54
771.518	891.21
771.7	874.82
771.883	946.5
772.066	788.81
772.248	848.2
772.431	788.81
772.613	846.15
772.796	848.2
772.978	743.75
773.161	850.25
773.343	885.06
773.526	895.3
773.708	745.8
773.891	831.82
774.073	840.01
774.256	797
774.438	899.4
774.621	801.1
774.803	831.82
774.985	788.81
775.168	702.79
775.35	811.34
775.532	784.71
775.715	741.71
775.897	764.23
776.079	760.14
776.261	696.65
776.444	684.36
776.626	739.66
776.808	696.65
776.99	729.42
777.173	704.84
777.355	741.71
777.537	696.65
777.719	665.93
777.901	680.27
778.083	696.65
778.265	737.61
778.447	667.98
778.629	627.02
778.811	672.08
778.993	713.03
779.175	715.08
779.357	584.01
779.539	678.22
779.721	573.77
779.903	588.11
780.085	575.82
780.267	715.08
780.449	610.64
780.631	573.77
780.812	596.3
780.994	659.79
781.176	665.93
781.358	635.21
781.54	543.05
781.721	598.35
781.903	534.86
782.085	590.16
782.267	612.68
782.448	553.29
782.63	577.87
782.812	551.24
782.993	581.96
783.175	446.8
783.357	522.57
783.538	618.83
783.72	526.67
783.901	528.72
784.083	510.29
784.264	532.81
784.446	506.19
784.627	459.09
784.809	510.29
784.99	493.9
785.172	590.16
785.353	520.53
785.535	475.47
785.716	522.57
785.897	477.52
786.079	405.84
786.26	442.7
786.441	457.04
786.623	461.13
786.804	467.28
786.985	422.22
787.167	459.09
787.348	489.81
787.529	457.04
787.71	489.81
787.891	426.32
788.073	428.37
788.254	428.37
788.435	454.99
788.616	520.53
788.797	407.89
788.978	368.98
789.159	434.51
789.34	500.05
789.522	340.3
789.703	342.35
789.884	399.7
790.065	373.07
790.246	391.5
790.427	364.88
790.607	358.74
790.788	418.13
790.969	420.17
791.15	436.56
791.331	399.7
791.512	340.3
791.693	397.65
791.874	276.82
792.054	385.36
792.235	336.21
792.416	364.88
792.597	385.36
792.778	362.83
792.958	362.83
793.139	397.65
793.32	319.82
793.5	301.39
793.681	323.92
793.862	354.64
794.042	377.17
794.223	256.34
794.404	342.35
794.584	356.69
794.765	426.32
794.945	282.96
795.126	289.1
795.306	332.11
795.487	293.2
795.667	364.88
795.848	311.63
796.028	264.53
796.209	323.92
796.389	264.53
796.57	289.1
796.75	287.06
796.93	311.63
797.111	332.11
797.291	246.1
797.471	332.11
797.652	350.54
797.832	285.01
798.012	338.26
798.192	180.56
798.373	235.86
798.553	246.1
798.733	299.34
798.913	248.15
799.093	268.63
799.274	211.28
799.454	342.35
799.634	239.95
799.814	254.29
799.994	260.43
800.174	280.91
800.354	250.19
800.534	203.09
800.714	248.15
800.894	330.06
801.074	237.91
801.254	211.28
801.434	356.69
801.614	242
801.794	248.15
801.974	612.68
802.154	221.52
802.334	221.52
802.514	237.91
802.693	131.41
802.873	256.34
803.053	244.05
803.233	205.14
803.413	242
803.592	194.9
803.772	170.32
803.952	297.3
804.131	252.24
804.311	303.44
804.491	227.67
804.67	147.8
804.85	215.38
805.03	248.15
805.209	223.57
805.389	264.53
805.568	155.99
805.748	205.14
805.928	289.1
806.107	196.95
806.287	239.95
806.466	190.8
806.646	174.42
806.825	223.57
807.004	239.95
807.184	176.47
807.363	178.51
807.543	209.23
807.722	176.47
807.901	289.1
808.081	176.47
808.26	219.47
808.439	194.9
808.619	213.33
808.798	110.93
808.977	209.23
809.156	264.53
809.336	201.04
809.515	215.38
809.694	151.89
809.873	237.91
810.052	190.8
810.231	252.24
810.411	123.22
810.59	244.05
810.769	242
810.948	192.85
811.127	188.75
811.306	198.99
811.485	133.46
811.664	196.95
811.843	131.41
812.022	170.32
812.201	225.62
812.38	149.84
812.559	182.61
812.737	151.89
812.916	102.74
813.095	188.75
813.274	141.65
813.453	133.46
813.632	151.89
813.811	168.27
813.989	117.08
814.168	145.75
814.347	108.88
814.526	155.99
814.704	166.23
814.883	158.03
815.062	141.65
815.24	121.17
815.419	131.41
815.598	176.47
815.776	139.6
815.955	182.61
816.133	51.54
816.312	104.79
816.49	127.32
816.669	112.98
816.847	149.84
817.026	213.33
817.204	172.37
817.383	110.93
817.561	98.64
817.74	155.99
817.918	151.89
818.097	186.71
818.275	117.08
818.453	94.55
818.632	141.65
818.81	108.88
818.988	53.59
819.167	82.26
819.345	147.8
819.523	145.75
819.701	100.69
819.879	151.89
820.058	115.03
820.236	137.56
820.414	78.16
820.592	153.94
820.77	127.32
820.948	125.27
821.127	127.32
821.305	112.98
821.483	129.36
821.661	174.42
821.839	115.03
822.017	63.83
822.195	143.7
822.373	84.31
822.551	104.79
822.729	135.51
822.907	121.17
823.085	41.3
823.262	100.69
823.44	80.21
823.618	112.98
823.796	117.08
823.974	127.32
824.152	153.94
824.329	110.93
824.507	106.84
824.685	33.11
824.863	112.98
825.04	153.94
825.218	108.88
825.396	115.03
825.574	106.84
825.751	78.16
825.929	106.84
826.107	90.45
826.284	115.03
826.462	115.03
826.639	80.21
826.817	74.07
826.994	53.59
827.172	129.36
827.349	153.94
827.527	112.98
827.704	153.94
827.882	129.36
828.059	135.51
828.237	96.6
828.414	80.21
828.591	51.54
828.769	112.98
828.946	98.64
829.124	115.03
829.301	100.69
829.478	155.99
829.655	133.46
829.833	31.06
830.01	112.98
830.187	-3.75
830.364	67.92
830.542	78.16
830.719	168.27
830.896	67.92
831.073	33.11
831.25	162.13
831.427	45.4
831.604	129.36
831.782	135.51
831.959	102.74
832.136	147.8
832.313	115.03
832.49	98.64
832.667	86.36
832.844	88.4
833.021	65.88
833.198	65.88
833.374	88.4
833.551	98.64
833.728	121.17
833.905	90.45
834.082	33.11
834.259	24.92
834.436	98.64
834.612	-30.38
834.789	117.08
834.966	16.73
835.143	92.5
835.319	55.64
835.496	84.31
835.673	115.03
835.85	76.12
836.026	129.36
836.203	49.49
836.38	24.92
836.556	41.3
836.733	115.03
836.909	104.79
837.086	84.31
837.262	47.44
837.439	49.49
837.616	96.6
837.792	69.97
837.968	6.49
838.145	100.69
838.321	106.84
838.498	90.45
838.674	47.44
838.851	104.79
839.027	8.53
839.203	78.16
839.38	84.31
839.556	57.68
839.732	127.32
839.909	26.96
840.085	53.59
840.261	82.26
840.437	80.21
840.614	53.59
840.79	35.16
840.966	112.98
841.142	110.93
841.318	80.21
841.494	115.03
841.671	96.6
841.847	55.64
842.023	18.77
842.199	35.16
842.375	63.83
842.551	110.93
842.727	37.2
842.903	110.93
843.079	108.88
843.255	117.08
843.431	61.78
843.607	55.64
843.783	94.55
843.959	88.4
844.134	57.68
844.31	39.25
844.486	141.65
844.662	115.03
844.838	78.16
845.013	123.22
845.189	59.73
845.365	39.25
845.541	26.96
845.716	39.25
845.892	80.21
846.068	33.11
846.244	65.88
846.419	96.6
846.595	49.49
846.77	43.35
846.946	102.74
847.122	47.44
847.297	26.96
847.473	74.07
847.648	67.92
847.824	63.83
847.999	-69.29
848.175	61.78
848.35	63.83
848.526	55.64
848.701	45.4
848.876	96.6
849.052	78.16
849.227	31.06
849.403	123.22
849.578	41.3
849.753	121.17
849.929	18.77
850.104	26.96
850.279	63.83
850.454	51.54
850.63	37.2
850.805	47.44
850.98	86.36
851.155	45.4
851.33	41.3
851.505	49.49
851.681	82.26
851.856	90.45
852.031	69.97
852.206	24.92
852.381	41.3
852.556	41.3
852.731	88.4
852.906	2.39
853.081	53.59
853.256	67.92
853.431	41.3
853.606	37.2
853.781	16.73
853.956	2.39
854.131	24.92
854.305	-5.8
854.48	-13.99
854.655	55.64
854.83	76.12
855.005	8.53
855.18	43.35
855.354	29.01
855.529	92.5
855.704	67.92
855.879	67.92
856.053	-9.9
856.228	43.35
856.403	45.4
856.577	82.26
856.752	20.82
856.926	143.7
857.101	-5.8
857.276	41.3
857.45	80.21
857.625	72.02
857.799	45.4
857.974	49.49
858.148	24.92
858.323	8.53
858.497	53.59
858.672	20.82
858.846	-9.9
859.02	41.3
859.195	37.2
859.369	18.77
859.543	59.73
859.718	20.82
859.892	20.82
860.066	39.25
860.241	37.2
860.415	51.54
860.589	-18.09
860.763	-9.9
860.938	104.79
861.112	35.16
861.286	24.92
861.46	96.6
861.634	-24.23
861.808	45.4
861.982	67.92
862.157	72.02
862.331	2.39
862.505	-18.09
862.679	4.44
862.853	88.4
863.027	69.97
863.201	86.36
863.375	-34.47
863.549	31.06
863.722	33.11
863.896	80.21
864.07	61.78
864.244	-24.23
864.418	-36.52
864.592	108.88
864.766	35.16
864.939	51.54
865.113	-54.95
865.287	39.25
865.461	45.4
865.634	41.3
865.808	-9.9
865.982	33.11
866.156	31.06
866.329	-16.04
866.503	-52.91
866.676	43.35
866.85	53.59
867.024	12.63
867.197	51.54
867.371	45.4
867.544	166.23
867.718	22.87
867.891	55.64
868.065	-9.9
868.238	10.58
868.412	16.73
868.585	-16.04
868.759	-42.67
868.932	-11.95
869.105	33.11
869.279	10.58
869.452	51.54
869.625	-30.38
869.799	-11.95
869.972	20.82
870.145	55.64
870.319	31.06
870.492	12.63
870.665	-20.14
870.838	39.25
871.011	2.39
871.185	37.2
871.358	16.73
871.531	39.25
871.704	8.53
871.877	31.06
872.05	-7.85
872.223	-91.82
872.396	51.54
872.569	41.3
872.742	-57
872.915	55.64
873.088	-3.75
873.261	6.49
873.434	53.59
873.607	84.31
873.78	84.31
873.953	0.34
874.126	20.82
874.299	22.87
874.471	55.64
874.644	72.02
874.817	65.88
874.99	76.12
875.163	-7.85
875.335	31.06
875.508	-40.62
875.681	86.36
875.853	-26.28
876.026	39.25
876.199	65.88
876.371	-16.04
876.544	2.39
876.717	-30.38
876.889	31.06
877.062	-40.62
877.234	14.68
877.407	37.2
877.579	119.12
877.752	53.59
877.924	82.26
878.097	-30.38
878.269	67.92
878.442	63.83
878.614	26.96
878.786	80.21
878.959	-40.62
879.131	112.98
879.303	-69.29
879.476	47.44
879.648	49.49
879.82	55.64
879.993	-32.43
880.165	18.77
880.337	29.01
880.509	76.12
880.681	-24.23
880.854	-9.9
881.026	49.49
881.198	57.68
881.37	29.01
881.542	37.2
881.714	2.39
881.886	-7.85
882.058	26.96
882.23	14.68
882.402	18.77
882.574	74.07
882.746	-44.71
882.918	16.73
883.09	12.63
883.262	55.64
883.434	2.39
883.606	-24.23
883.778	74.07
883.95	-11.95
884.122	-22.19
884.293	49.49
884.465	-9.9
884.637	39.25
884.809	-46.76
884.98	37.2
885.152	-16.04
885.324	63.83
885.496	-28.33
885.667	76.12
885.839	2.39
886.011	-9.9
886.182	41.3
886.354	31.06
886.525	47.44
886.697	20.82
886.869	-20.14
887.04	-30.38
887.212	102.74
887.383	110.93
887.555	-5.8
887.726	-34.47
887.897	4.44
888.069	31.06
888.24	33.11
888.412	26.96
888.583	51.54
888.754	16.73
888.926	-16.04
889.097	4.44
889.268	-24.23
889.44	33.11
889.611	0.34
889.782	18.77
889.953	-3.75
890.125	47.44
890.296	-24.23
890.467	20.82
890.638	16.73
890.809	-1.71
890.98	0.34
891.151	0.34
891.323	10.58
891.494	65.88
891.665	49.49
891.836	10.58
892.007	47.44
892.178	24.92
892.349	-36.52
892.52	-5.8
892.691	-24.23
892.862	41.3
893.032	22.87
893.203	26.96
893.374	29.01
893.545	82.26
893.716	-30.38
893.887	-13.99
894.057	37.2
894.228	8.53
894.399	-89.77
894.57	67.92
894.74	47.44
894.911	96.6
895.082	74.07
895.253	-22.19
895.423	-44.71
895.594	88.4
895.764	16.73
895.935	39.25
896.106	57.68
896.276	20.82
896.447	20.82
896.617	14.68
896.788	-7.85
896.958	-11.95
897.129	115.03
897.299	63.83
897.47	-18.09
897.64	-24.23
897.81	-1.71
897.981	20.82
898.151	51.54
898.322	-13.99
898.492	29.01
898.662	-44.71
898.832	20.82
899.003	51.54
899.173	41.3
899.343	-11.95
899.513	-30.38
