Data from USB4F104151__40__12-27-21-694.txt Node

Date: Fri Mar 14 12:27:21 EDT 2025
User: louis
Spectrometer: USB4F10415
Trigger mode: 4
Integration Time (sec): 2.000000E-2
Scans to average: 1
Electric dark correction enabled: true
Nonlinearity correction enabled: false
Boxcar width: 0
XAxis mode: Wavelengths
Number of Pixels in Spectrum: 3648
>>>>>Begin Spectral Data<<<<<
178.204	-122.2
178.424	-122.2
178.644	-122.2
178.864	-60.76
179.084	-105.81
179.304	21.16
179.524	-99.67
179.744	-36.18
179.964	45.74
180.184	58.03
180.404	-44.37
180.624	-79.19
180.844	25.26
181.064	-34.13
181.283	80.55
181.503	2.73
181.723	60.07
181.943	-44.37
182.163	8.87
182.383	8.87
182.602	39.59
182.822	31.4
183.042	43.69
183.262	23.21
183.482	17.07
183.701	0.68
183.921	-60.76
184.141	35.5
184.361	25.26
184.58	-19.8
184.8	-44.37
185.02	-38.23
185.239	31.4
185.459	-5.46
185.679	39.59
185.898	-17.75
186.118	0.68
186.338	-25.94
186.557	-58.71
186.777	-40.28
186.997	35.5
187.216	-9.56
187.436	84.65
187.655	33.45
187.875	72.36
188.095	17.07
188.314	33.45
188.534	41.64
188.753	-34.13
188.973	66.22
189.192	0.68
189.412	39.59
189.631	58.03
189.851	-23.89
190.07	33.45
190.29	-52.56
190.509	41.64
190.729	0.68
190.948	53.93
191.168	6.83
191.387	76.46
191.607	8.87
191.826	45.74
192.045	4.78
192.265	12.97
192.484	-15.7
192.704	6.83
192.923	-30.04
193.142	92.84
193.362	86.7
193.581	80.55
193.8	90.79
194.02	47.79
194.239	41.64
194.458	-56.66
194.678	-9.56
194.897	25.26
195.116	-30.04
195.335	2.73
195.555	33.45
195.774	-17.75
195.993	62.12
196.212	15.02
196.432	37.55
196.651	-9.56
196.87	4.78
197.089	66.22
197.308	0.68
197.528	51.88
197.747	-62.8
197.966	74.41
198.185	90.79
198.404	10.92
198.623	109.22
198.842	92.84
199.062	68.27
199.281	51.88
199.5	82.6
199.719	45.74
199.938	10.92
200.157	19.11
200.376	15.02
200.595	-1.37
200.814	8.87
201.033	96.94
201.252	-3.41
201.471	51.88
201.69	-17.75
201.909	37.55
202.128	10.92
202.347	4.78
202.566	43.69
202.785	25.26
203.004	37.55
203.223	-1.37
203.442	66.22
203.661	68.27
203.879	-23.89
204.098	-3.41
204.317	84.65
204.536	107.18
204.755	-34.13
204.974	29.35
205.193	23.21
205.411	60.07
205.63	-27.99
205.849	-15.7
206.068	-5.46
206.287	92.84
206.505	90.79
206.724	78.51
206.943	64.17
207.162	19.11
207.381	43.69
207.599	2.73
207.818	-11.61
208.037	-5.46
208.255	17.07
208.474	-5.46
208.693	-68.95
208.911	37.55
209.13	21.16
209.349	25.26
209.567	53.93
209.786	8.87
210.005	0.68
210.223	27.31
210.442	-1.37
210.661	80.55
210.879	-23.89
211.098	33.45
211.316	6.83
211.535	-23.89
211.753	-23.89
211.972	43.69
212.191	68.27
212.409	-9.56
212.628	33.45
212.846	55.98
213.065	70.31
213.283	-25.94
213.502	-19.8
213.72	-5.46
213.938	64.17
214.157	-9.56
214.375	25.26
214.594	-77.14
214.812	47.79
215.031	19.11
215.249	31.4
215.467	23.21
215.686	43.69
215.904	70.31
216.122	35.5
216.341	4.78
216.559	80.55
216.778	21.16
216.996	-11.61
217.214	-34.13
217.432	62.12
217.651	74.41
217.869	-3.41
218.087	15.02
218.306	17.07
218.524	70.31
218.742	53.93
218.96	25.26
219.179	8.87
219.397	41.64
219.615	41.64
219.833	25.26
220.051	-79.19
220.27	94.89
220.488	117.42
220.706	19.11
220.924	29.35
221.142	53.93
221.36	45.74
221.578	86.7
221.796	23.21
222.015	29.35
222.233	-40.28
222.451	45.74
222.669	-56.66
222.887	-44.37
223.105	-62.8
223.323	8.87
223.541	31.4
223.759	64.17
223.977	12.97
224.195	86.7
224.413	113.32
224.631	58.03
224.849	2.73
225.067	62.12
225.285	33.45
225.503	64.17
225.721	-23.89
225.939	-40.28
226.157	-23.89
226.375	86.7
226.592	19.11
226.81	-5.46
227.028	66.22
227.246	45.74
227.464	37.55
227.682	64.17
227.9	27.31
228.117	45.74
228.335	27.31
228.553	4.78
228.771	2.73
228.989	-44.37
229.206	43.69
229.424	2.73
229.642	-1.37
229.86	0.68
230.077	33.45
230.295	64.17
230.513	29.35
230.731	113.32
230.948	49.83
231.166	72.36
231.384	-23.89
231.601	-15.7
231.819	41.64
232.037	27.31
232.254	29.35
232.472	29.35
232.689	31.4
232.907	123.56
233.125	27.31
233.342	31.4
233.56	53.93
233.777	58.03
233.995	88.75
234.213	80.55
234.43	23.21
234.648	53.93
234.865	12.97
235.083	-3.41
235.3	74.41
235.518	49.83
235.735	4.78
235.953	39.59
236.17	-5.46
236.388	-17.75
236.605	49.83
236.822	82.6
237.04	10.92
237.257	39.59
237.475	-21.85
237.692	80.55
237.909	-7.51
238.127	43.69
238.344	113.32
238.562	72.36
238.779	10.92
238.996	15.02
239.214	4.78
239.431	76.46
239.648	-44.37
239.865	74.41
240.083	123.56
240.3	49.83
240.517	41.64
240.735	31.4
240.952	51.88
241.169	-73.04
241.386	2.73
241.603	49.83
241.821	31.4
242.038	25.26
242.255	35.5
242.472	12.97
242.689	80.55
242.907	66.22
243.124	72.36
243.341	74.41
243.558	4.78
243.775	-34.13
243.992	19.11
244.209	-3.41
244.426	-9.56
244.643	10.92
244.86	19.11
245.078	39.59
245.295	51.88
245.512	-1.37
245.729	47.79
245.946	43.69
246.163	23.21
246.38	70.31
246.597	-34.13
246.814	68.27
247.031	23.21
247.248	76.46
247.464	-3.41
247.681	31.4
247.898	19.11
248.115	19.11
248.332	29.35
248.549	58.03
248.766	4.78
248.983	88.75
249.2	-42.32
249.417	98.99
249.633	23.21
249.85	98.99
250.067	25.26
250.284	51.88
250.501	115.37
250.717	-3.41
250.934	58.03
251.151	39.59
251.368	86.7
251.585	4.78
251.801	60.07
252.018	-48.47
252.235	66.22
252.451	10.92
252.668	72.36
252.885	29.35
253.102	41.64
253.318	19.11
253.535	80.55
253.752	25.26
253.968	96.94
254.185	-32.08
254.401	2.73
254.618	21.16
254.835	72.36
255.051	29.35
255.268	76.46
255.484	-1.37
255.701	17.07
255.917	15.02
256.134	51.88
256.351	15.02
256.567	-19.8
256.784	78.51
257	-38.23
257.217	96.94
257.433	49.83
257.65	15.02
257.866	51.88
258.082	-17.75
258.299	4.78
258.515	35.5
258.732	41.64
258.948	98.99
259.165	51.88
259.381	2.73
259.597	-42.32
259.814	10.92
260.03	29.35
260.246	68.27
260.463	27.31
260.679	-3.41
260.895	86.7
261.112	31.4
261.328	0.68
261.544	-13.65
261.761	39.59
261.977	-64.85
262.193	-17.75
262.409	-56.66
262.626	68.27
262.842	45.74
263.058	-5.46
263.274	49.83
263.49	27.31
263.707	25.26
263.923	58.03
264.139	19.11
264.355	39.59
264.571	92.84
264.787	-32.08
265.004	64.17
265.22	-17.75
265.436	25.26
265.652	27.31
265.868	-7.51
266.084	17.07
266.3	55.98
266.516	53.93
266.732	115.37
266.948	17.07
267.164	66.22
267.38	-13.65
267.596	101.03
267.812	78.51
268.028	4.78
268.244	-1.37
268.46	-5.46
268.676	107.18
268.892	86.7
269.108	-15.7
269.324	12.97
269.54	17.07
269.756	66.22
269.972	43.69
270.188	25.26
270.403	12.97
270.619	25.26
270.835	58.03
271.051	-5.46
271.267	96.94
271.483	17.07
271.698	29.35
271.914	-34.13
272.13	2.73
272.346	-11.61
272.562	-36.18
272.777	94.89
272.993	43.69
273.209	10.92
273.425	21.16
273.64	31.4
273.856	27.31
274.072	62.12
274.287	17.07
274.503	66.22
274.719	64.17
274.934	55.98
275.15	-46.42
275.366	41.64
275.581	-34.13
275.797	45.74
276.012	15.02
276.228	-36.18
276.444	64.17
276.659	19.11
276.875	64.17
277.09	-58.71
277.306	6.83
277.521	27.31
277.737	-23.89
277.952	29.35
278.168	-7.51
278.383	78.51
278.599	88.75
278.814	27.31
279.03	23.21
279.245	92.84
279.461	19.11
279.676	41.64
279.892	-5.46
280.107	-3.41
280.322	64.17
280.538	35.5
280.753	33.45
280.969	21.16
281.184	-19.8
281.399	66.22
281.615	35.5
281.83	8.87
282.045	8.87
282.26	43.69
282.476	23.21
282.691	47.79
282.906	-79.19
283.122	0.68
283.337	62.12
283.552	19.11
283.767	39.59
283.983	27.31
284.198	21.16
284.413	37.55
284.628	-13.65
284.843	35.5
285.058	-5.46
285.274	-13.65
285.489	-15.7
285.704	39.59
285.919	15.02
286.134	-11.61
286.349	-1.37
286.564	35.5
286.779	37.55
286.995	96.94
287.21	8.87
287.425	2.73
287.64	-11.61
287.855	33.45
288.07	-30.04
288.285	72.36
288.5	37.55
288.715	17.07
288.93	6.83
289.145	-25.94
289.36	94.89
289.575	49.83
289.79	98.99
290.004	-5.46
290.219	35.5
290.434	-13.65
290.649	-109.91
290.864	21.16
291.079	39.59
291.294	15.02
291.509	29.35
291.724	8.87
291.938	74.41
292.153	-21.85
292.368	80.55
292.583	92.84
292.798	33.45
293.012	23.21
293.227	60.07
293.442	4.78
293.657	43.69
293.871	33.45
294.086	80.55
294.301	45.74
294.516	-25.94
294.73	72.36
294.945	21.16
295.16	41.64
295.374	62.12
295.589	31.4
295.804	-19.8
296.018	25.26
296.233	78.51
296.447	29.35
296.662	105.13
296.877	17.07
297.091	-23.89
297.306	66.22
297.52	8.87
297.735	39.59
297.949	53.93
298.164	25.26
298.378	41.64
298.593	-32.08
298.807	29.35
299.022	4.78
299.236	96.94
299.451	-36.18
299.665	15.02
299.88	-13.65
300.094	62.12
300.309	10.92
300.523	37.55
300.737	41.64
300.952	-3.41
301.166	33.45
301.381	60.07
301.595	37.55
301.809	94.89
302.024	-19.8
302.238	86.7
302.452	21.16
302.667	53.93
302.881	45.74
303.095	64.17
303.309	37.55
303.524	51.88
303.738	6.83
303.952	-7.51
304.166	139.94
304.381	31.4
304.595	39.59
304.809	60.07
305.023	-15.7
305.237	37.55
305.452	58.03
305.666	21.16
305.88	25.26
306.094	4.78
306.308	49.83
306.522	33.45
306.736	12.97
306.95	47.79
307.164	-17.75
307.379	2.73
307.593	64.17
307.807	37.55
308.021	80.55
308.235	-48.47
308.449	12.97
308.663	-17.75
308.877	68.27
309.091	25.26
309.305	53.93
309.519	70.31
309.733	-42.32
309.947	10.92
310.161	-5.46
310.374	-11.61
310.588	43.69
310.802	-32.08
311.016	123.56
311.23	0.68
311.444	41.64
311.658	-64.85
311.872	58.03
312.085	72.36
312.299	6.83
312.513	12.97
312.727	94.89
312.941	-7.51
313.154	68.27
313.368	-7.51
313.582	0.68
313.796	43.69
314.009	92.84
314.223	25.26
314.437	45.74
314.651	12.97
314.864	8.87
315.078	10.92
315.292	-13.65
315.505	51.88
315.719	62.12
315.933	33.45
316.146	98.99
316.36	-7.51
316.573	31.4
316.787	98.99
317.001	-11.61
317.214	-3.41
317.428	33.45
317.641	-21.85
317.855	10.92
318.068	-38.23
318.282	4.78
318.495	33.45
318.709	33.45
318.922	27.31
319.136	43.69
319.349	41.64
319.563	-3.41
319.776	60.07
319.99	31.4
320.203	70.31
320.417	-9.56
320.63	-38.23
320.843	78.51
321.057	90.79
321.27	74.41
321.483	27.31
321.697	25.26
321.91	8.87
322.124	-1.37
322.337	-11.61
322.55	4.78
322.763	-19.8
322.977	-5.46
323.19	0.68
323.403	15.02
323.617	88.75
323.83	86.7
324.043	2.73
324.256	25.26
324.469	41.64
324.683	82.6
324.896	86.7
325.109	19.11
325.322	2.73
325.535	0.68
325.748	47.79
325.962	88.75
326.175	37.55
326.388	-15.7
326.601	-17.75
326.814	41.64
327.027	21.16
327.24	92.84
327.453	-40.28
327.666	0.68
327.879	62.12
328.092	2.73
328.305	70.31
328.518	-21.85
328.731	19.11
328.944	39.59
329.157	-5.46
329.37	53.93
329.583	2.73
329.796	96.94
330.009	-17.75
330.222	49.83
330.435	37.55
330.648	0.68
330.861	-1.37
331.073	72.36
331.286	55.98
331.499	101.03
331.712	17.07
331.925	25.26
332.138	51.88
332.35	4.78
332.563	-38.23
332.776	47.79
332.989	51.88
333.202	-36.18
333.414	23.21
333.627	-9.56
333.84	8.87
334.053	53.93
334.265	43.69
334.478	29.35
334.691	33.45
334.903	33.45
335.116	-42.32
335.329	84.65
335.541	-25.94
335.754	21.16
335.966	31.4
336.179	2.73
336.392	35.5
336.604	88.75
336.817	21.16
337.029	0.68
337.242	-19.8
337.454	19.11
337.667	-23.89
337.88	105.13
338.092	103.08
338.305	90.79
338.517	6.83
338.729	35.5
338.942	62.12
339.154	33.45
339.367	27.31
339.579	92.84
339.792	-54.61
340.004	-17.75
340.217	103.08
340.429	35.5
340.641	31.4
340.854	0.68
341.066	4.78
341.278	33.45
341.491	60.07
341.703	70.31
341.915	-27.99
342.128	17.07
342.34	88.75
342.552	33.45
342.764	53.93
342.977	21.16
343.189	68.27
343.401	19.11
343.613	35.5
343.826	45.74
344.038	31.4
344.25	43.69
344.462	123.56
344.674	94.89
344.886	15.02
345.099	25.26
345.311	55.98
345.523	10.92
345.735	-11.61
345.947	64.17
346.159	68.27
346.371	-17.75
346.583	17.07
346.795	86.7
347.007	47.79
347.219	139.94
347.431	6.83
347.643	37.55
347.855	6.83
348.067	64.17
348.279	-17.75
348.491	72.36
348.703	6.83
348.915	4.78
349.127	41.64
349.339	119.46
349.551	-66.9
349.763	94.89
349.975	103.08
350.187	8.87
350.399	58.03
350.61	76.46
350.822	49.83
351.034	55.98
351.246	47.79
351.458	35.5
351.669	41.64
351.881	96.94
352.093	49.83
352.305	62.12
352.517	12.97
352.728	119.46
352.94	4.78
353.152	123.56
353.363	37.55
353.575	31.4
353.787	41.64
353.999	17.07
354.21	84.65
354.422	-7.51
354.633	25.26
354.845	21.16
355.057	17.07
355.268	25.26
355.48	49.83
355.692	6.83
355.903	49.83
356.115	-1.37
356.326	60.07
356.538	133.8
356.749	49.83
356.961	66.22
357.172	21.16
357.384	25.26
357.595	70.31
357.807	25.26
358.018	-5.46
358.23	8.87
358.441	141.99
358.653	31.4
358.864	15.02
359.075	-3.41
359.287	-3.41
359.498	51.88
359.709	27.31
359.921	-5.46
360.132	109.22
360.344	6.83
360.555	37.55
360.766	53.93
360.977	10.92
361.189	39.59
361.4	76.46
361.611	17.07
361.823	49.83
362.034	12.97
362.245	15.02
362.456	58.03
362.667	74.41
362.879	51.88
363.09	47.79
363.301	27.31
363.512	31.4
363.723	68.27
363.935	-9.56
364.146	141.99
364.357	4.78
364.568	37.55
364.779	41.64
364.99	43.69
365.201	-34.13
365.412	55.98
365.623	-17.75
365.834	45.74
366.045	98.99
366.256	-7.51
366.467	15.02
366.678	25.26
366.889	109.22
367.1	-9.56
367.311	29.35
367.522	21.16
367.733	-50.52
367.944	33.45
368.155	41.64
368.366	70.31
368.577	49.83
368.788	39.59
368.999	15.02
369.209	-17.75
369.42	47.79
369.631	101.03
369.842	-15.7
370.053	33.45
370.264	53.93
370.474	55.98
370.685	60.07
370.896	23.21
371.107	17.07
371.317	66.22
371.528	35.5
371.739	58.03
371.95	53.93
372.16	98.99
372.371	80.55
372.582	78.51
372.792	60.07
373.003	8.87
373.214	27.31
373.424	25.26
373.635	49.83
373.846	80.55
374.056	0.68
374.267	-13.65
374.477	12.97
374.688	80.55
374.898	-40.28
375.109	4.78
375.319	21.16
375.53	-1.37
375.74	68.27
375.951	-34.13
376.161	53.93
376.372	39.59
376.582	62.12
376.793	129.7
377.003	12.97
377.214	15.02
377.424	84.65
377.635	113.32
377.845	27.31
378.055	133.8
378.266	39.59
378.476	19.11
378.686	21.16
378.897	39.59
379.107	78.51
379.317	39.59
379.528	-13.65
379.738	39.59
379.948	60.07
380.158	41.64
380.369	27.31
380.579	68.27
380.789	21.16
380.999	86.7
381.21	76.46
381.42	31.4
381.63	31.4
381.84	62.12
382.05	19.11
382.261	98.99
382.471	141.99
382.681	27.31
382.891	-34.13
383.101	68.27
383.311	49.83
383.521	39.59
383.731	53.93
383.941	66.22
384.151	135.85
384.361	90.79
384.571	8.87
384.781	88.75
384.991	49.83
385.201	68.27
385.411	17.07
385.621	37.55
385.831	43.69
386.041	60.07
386.251	84.65
386.461	90.79
386.671	15.02
386.881	82.6
387.091	103.08
387.301	21.16
387.511	21.16
387.72	17.07
387.93	53.93
388.14	-13.65
388.35	19.11
388.56	76.46
388.769	29.35
388.979	-1.37
389.189	103.08
389.399	45.74
389.609	62.12
389.818	37.55
390.028	37.55
390.238	58.03
390.447	88.75
390.657	39.59
390.867	4.78
391.076	4.78
391.286	60.07
391.496	-27.99
391.705	-21.85
391.915	49.83
392.125	70.31
392.334	58.03
392.544	41.64
392.753	47.79
392.963	25.26
393.172	37.55
393.382	-5.46
393.591	70.31
393.801	121.51
394.01	47.79
394.22	35.5
394.429	84.65
394.639	76.46
394.848	115.37
395.058	92.84
395.267	45.74
395.477	92.84
395.686	98.99
395.895	19.11
396.105	115.37
396.314	21.16
396.524	29.35
396.733	55.98
396.942	2.73
397.152	92.84
397.361	117.42
397.57	39.59
397.78	53.93
397.989	131.75
398.198	80.55
398.407	135.85
398.617	-5.46
398.826	144.04
399.035	60.07
399.244	49.83
399.453	125.61
399.663	72.36
399.872	78.51
400.081	115.37
400.29	94.89
400.499	35.5
400.708	160.42
400.917	49.83
401.127	98.99
401.336	45.74
401.545	107.18
401.754	139.94
401.963	117.42
402.172	92.84
402.381	76.46
402.59	96.94
402.799	70.31
403.008	141.99
403.217	119.46
403.426	72.36
403.635	33.45
403.844	121.51
404.053	109.22
404.262	189.1
404.471	129.7
404.68	174.76
404.888	148.14
405.097	174.76
405.306	129.7
405.515	187.05
405.724	90.79
405.933	131.75
406.142	80.55
406.35	119.46
406.559	115.37
406.768	135.85
406.977	154.28
407.185	121.51
407.394	141.99
407.603	90.79
407.812	162.47
408.02	170.66
408.229	217.77
408.438	146.09
408.646	117.42
408.855	203.43
409.064	127.66
409.272	121.51
409.481	275.11
409.69	172.71
409.898	182.95
410.107	301.73
410.315	297.64
410.524	228.01
410.733	238.25
410.941	199.34
411.15	361.13
411.358	320.17
411.567	373.41
411.775	277.16
411.984	330.41
412.192	336.55
412.401	281.25
412.609	338.6
412.818	352.93
413.026	391.84
413.234	467.62
413.443	342.69
413.651	324.26
413.86	445.09
414.068	551.59
414.276	510.63
414.485	500.39
414.693	600.74
414.901	516.77
415.11	533.15
415.318	498.34
415.526	545.44
415.734	594.59
415.943	625.31
416.151	721.57
416.359	619.17
416.567	670.37
416.776	742.05
416.984	744.1
417.192	735.9
417.4	721.57
417.608	740
417.817	783.01
418.025	819.87
418.233	881.31
418.441	920.22
418.649	944.8
418.857	1002.14
419.065	1073.82
419.273	1129.11
419.481	1008.28
419.689	1088.15
419.897	1170.07
420.105	1219.22
420.313	1180.31
420.521	1370.77
420.729	1260.18
420.937	1245.85
421.145	1354.39
421.353	1501.84
421.561	1510.04
421.769	1518.23
421.977	1630.87
422.185	1604.24
422.393	1632.91
422.601	1731.22
422.809	1809.04
423.017	1868.43
423.224	1878.67
423.432	1950.35
423.64	1899.15
423.848	2081.42
424.056	2046.6
424.263	2194.06
424.471	2241.16
424.679	2435.72
424.887	2378.37
425.094	2441.86
425.302	2474.63
425.51	2636.42
425.718	2681.47
425.925	2648.71
426.133	2873.98
426.341	2964.09
426.548	3201.66
426.756	3111.55
426.964	3027.58
427.171	3347.06
427.379	3433.08
427.586	3494.52
427.794	3560.05
428.001	3762.8
428.209	3857.01
428.417	3814
428.624	4104.81
428.832	4213.35
429.039	4029.04
429.247	4072.04
429.454	4545.13
429.662	4692.58
429.869	4375.14
430.076	4983.39
430.284	4696.67
430.491	4948.58
430.699	5104.22
430.906	5151.32
431.114	5263.96
431.321	5489.24
431.528	5495.38
431.736	5780.05
431.943	5986.9
432.15	5845.59
432.358	6140.49
432.565	6398.54
432.772	6210.12
432.979	6730.31
433.187	6881.86
433.394	6742.6
433.601	7354.94
433.808	7252.54
434.016	7234.11
434.223	7660.09
434.43	8182.32
434.637	7832.12
434.844	8247.85
435.052	8479.27
435.259	8342.06
435.466	8651.3
435.673	8596.01
435.88	9048.61
436.087	9429.53
436.294	9415.19
436.501	9089.57
436.708	9497.11
436.915	10005.01
437.122	10396.17
437.329	10285.58
437.537	10447.37
437.743	10711.56
437.95	10590.73
438.157	11192.83
438.364	11772.41
438.571	11801.08
438.778	11600.38
438.985	12526.06
439.192	12179.95
439.399	12603.88
439.606	12202.48
439.813	13031.91
440.02	13789.66
440.227	13269.47
440.433	13666.78
440.64	13769.18
440.847	13875.67
441.054	14283.22
441.261	15122.88
441.467	14817.74
441.674	15354.3
441.881	15667.64
442.088	15724.99
442.294	15464.89
442.501	15987.13
442.708	16337.33
442.914	17009.06
443.121	17557.92
443.328	17148.33
443.534	18448.79
443.741	17869.21
443.948	17674.65
444.154	19089.8
444.361	19011.98
444.568	18907.53
444.774	19233.16
444.981	19126.66
445.187	19470.72
445.394	20648.3
445.6	20445.55
445.807	21985.63
446.013	21100.9
446.22	21690.72
446.426	22636.88
446.633	22554.96
446.839	23736.64
447.046	23118.15
447.252	24129.85
447.459	23916.86
447.665	23920.96
447.871	25033
448.078	26005.79
448.284	24998.19
448.491	25585.96
448.697	26593.56
448.903	26997.01
449.11	27244.81
449.316	26695.96
449.522	27199.76
449.728	27824.39
449.935	28049.66
450.141	27996.42
450.347	28809.46
450.553	27615.49
450.76	28344.57
450.966	29069.55
451.172	29157.61
451.378	29161.71
451.584	29106.41
451.791	29567.21
451.997	29509.86
452.203	30025.95
452.409	29937.89
452.615	30064.86
452.821	28516.6
453.027	28854.51
453.233	29913.31
453.44	28930.29
453.646	29296.88
453.852	29270.25
454.058	30099.68
454.264	29032.69
454.47	29559.02
454.676	28928.24
454.882	29698.28
455.088	27119.88
455.294	27873.54
455.5	28016.9
455.705	28319.99
455.911	27064.59
456.117	26980.62
456.323	26153.24
456.529	24811.82
456.735	25862.43
456.941	25481.51
457.147	25024.81
457.352	24281.4
457.558	24109.37
457.764	24035.64
457.97	23527.75
458.176	23089.48
458.381	23144.78
458.587	21809.5
458.793	21866.85
458.999	21066.09
459.204	22167.9
459.41	21629.28
459.616	20291.96
459.821	20091.26
460.027	20214.13
460.233	19804.54
460.438	18753.93
460.644	19081.61
460.85	17879.45
461.055	17944.98
461.261	18000.28
461.466	16497.07
461.672	15954.36
461.878	17105.32
462.083	16144.82
462.289	15786.43
462.494	15778.23
462.7	14795.21
462.905	14383.57
463.111	15057.35
463.316	15110.6
463.522	14389.71
463.727	14727.63
463.932	14604.75
464.138	14647.76
464.343	14596.56
464.549	14031.32
464.754	14600.65
464.959	14664.14
465.165	14354.9
465.37	13781.46
465.575	13287.9
465.781	14109.14
465.986	14111.19
466.191	13570.52
466.397	13281.76
466.602	12360.17
466.807	13117.92
467.012	12984.8
467.218	12964.32
467.423	13011.43
467.628	12904.93
467.833	13468.13
468.038	13072.87
468.244	12693.99
468.449	12993
468.654	12530.16
468.859	12730.86
469.064	12595.69
469.269	11991.54
469.474	12184.05
469.679	12237.3
469.885	12089.84
470.09	12171.76
470.295	12069.36
470.5	11801.08
470.705	12024.31
470.91	11557.37
471.115	11381.25
471.32	11819.51
471.525	11878.9
471.73	11321.85
471.935	11428.35
472.139	10940.93
472.344	11043.33
472.549	11133.44
472.754	10811.91
472.959	10717.7
473.164	10484.23
473.369	10328.59
473.574	10648.07
473.778	10592.78
473.983	10449.42
474.188	10455.56
474.393	10138.13
474.598	10070.55
474.802	9974.29
475.007	9929.24
475.212	9892.37
475.417	9521.69
475.621	9339.42
475.826	9355.8
476.031	9437.72
476.235	8948.26
476.44	9536.03
476.645	9028.13
476.849	9071.14
477.054	9071.14
477.259	8987.17
477.463	8938.02
477.668	8653.35
477.872	8694.31
478.077	8737.32
478.282	8403.5
478.486	8288.81
478.691	8464.94
478.895	8290.86
479.1	8372.78
479.304	8272.43
479.509	8159.79
479.713	8235.57
479.918	7969.33
480.122	7838.26
480.326	7950.9
480.531	7932.47
480.735	7789.11
480.94	7778.87
481.144	8022.58
481.348	7868.98
481.553	7764.53
481.757	7715.38
481.961	7690.81
482.166	7981.62
482.37	7903.79
482.574	7584.31
482.778	7572.02
482.983	7660.09
483.187	7639.61
483.391	7664.18
483.595	7664.18
483.8	7451.19
484.004	7526.97
484.208	7670.33
484.412	7645.75
484.616	7719.48
484.821	7578.17
485.025	7588.41
485.229	7582.26
485.433	7533.11
485.637	7627.32
485.841	7623.22
486.045	7596.6
486.249	7690.81
486.453	7467.58
486.657	7664.18
486.861	7678.52
487.065	7465.53
487.269	7739.96
487.473	7471.67
487.677	7680.57
487.881	7649.85
488.085	7602.74
488.289	7789.11
488.493	7703.09
488.697	7612.98
488.901	7703.09
489.105	7617.08
489.309	7725.62
489.512	7764.53
489.716	7539.26
489.92	7668.28
490.124	7653.94
490.328	7811.64
490.531	7766.58
490.735	7707.19
490.939	7699
491.143	7932.47
491.346	7807.54
491.55	7948.85
491.754	7885.36
491.958	7963.19
492.161	8094.26
492.365	7918.13
492.569	8004.14
492.772	7922.23
492.976	8118.83
493.18	8151.6
493.383	8149.55
493.587	8524.33
493.79	8284.72
493.994	8258.09
494.197	8380.97
494.401	8417.83
494.605	8403.5
494.808	8563.24
495.012	8589.86
495.215	8596.01
495.419	8765.99
495.622	8520.23
495.825	8741.41
496.029	8737.32
496.232	9019.94
496.436	9087.52
496.639	9134.62
496.843	9038.37
497.046	9474.59
497.249	9527.83
497.453	9497.11
497.656	9589.27
497.859	9861.65
498.063	9536.03
498.266	9908.76
498.469	9759.25
498.673	10050.07
498.876	9886.23
499.079	10295.82
499.282	10201.61
499.485	10531.34
499.689	10613.26
499.892	10609.16
500.095	10639.88
500.298	10760.71
500.501	10879.49
500.705	11229.7
500.908	11344.38
501.111	11266.56
501.314	11391.48
501.517	11663.86
501.72	11684.34
501.923	11794.93
502.126	12093.94
502.329	12093.94
502.532	12190.19
502.735	12374.51
502.938	12327.41
503.141	12569.07
503.344	13130.21
503.547	12839.4
503.75	13107.68
503.953	13330.91
504.156	13271.52
504.359	13310.43
504.562	13425.12
504.765	13724.12
504.968	13797.85
505.17	13945.3
505.373	14092.76
505.576	14383.57
505.779	14506.45
505.982	14657.99
506.185	14930.37
506.387	14838.22
506.59	14877.13
506.793	15139.27
506.996	15294.91
507.198	15696.32
507.401	15767.99
507.604	15632.83
507.807	16073.14
508.009	16142.77
508.212	16275.89
508.415	16552.37
508.617	16515.5
508.82	16687.53
509.022	16806.31
509.225	16988.58
509.428	17154.47
509.63	17379.75
509.833	17529.25
510.035	17879.45
510.238	17711.52
510.44	17914.27
510.643	18411.92
510.845	18327.95
511.048	18315.67
511.25	18561.42
511.453	18606.48
511.655	19319.17
511.858	19233.16
512.06	19419.52
512.262	19456.39
512.465	19736.96
512.667	19872.12
512.87	20212.09
513.072	20117.88
513.274	20715.89
513.477	20791.66
513.679	20697.45
513.881	20859.24
514.084	21195.11
514.286	21197.16
514.488	21420.39
514.69	21956.96
514.893	22042.97
515.095	22090.07
515.297	22436.18
515.499	22294.87
515.701	22753.62
515.904	23093.58
516.106	23050.57
516.308	23222.6
516.51	23636.29
516.712	23488.84
516.914	23712.06
517.116	23959.87
517.318	23914.81
517.52	24375.61
517.722	24537.4
517.925	24969.52
518.127	25147.69
518.329	25383.21
518.531	25127.21
518.733	25528.61
518.935	25764.13
519.136	25659.68
519.338	25950.49
519.54	26005.79
519.742	26620.18
519.944	26489.11
520.146	26781.97
520.348	27183.37
520.55	27048.21
520.752	27386.12
520.954	27779.33
521.155	27730.18
521.357	28524.79
521.559	28522.74
521.761	28233.98
521.963	28469.5
522.164	28756.21
522.366	28360.95
522.568	29384.94
522.77	29423.85
522.971	29685.99
523.173	29489.38
523.375	29552.87
523.576	29769.96
523.778	29747.43
523.98	30447.83
524.181	30384.35
524.383	30460.12
524.584	30656.73
524.786	30730.45
524.988	30879.96
525.189	30968.02
525.391	31363.28
525.592	31504.59
525.794	31310.03
525.995	31498.44
526.197	31645.9
526.398	31617.22
526.6	32110.78
526.801	32172.22
527.003	32069.83
527.204	32135.36
527.406	32628.92
527.607	32659.64
527.808	32839.86
528.01	32274.62
528.211	32618.68
528.412	33253.55
528.614	33089.71
528.815	33022.13
529.016	33224.88
529.218	33188.02
529.419	33122.48
529.62	33296.56
529.822	33450.16
530.023	33532.07
530.224	33257.65
530.425	33632.43
530.626	33048.75
530.828	33562.79
531.029	34158.75
531.23	33628.33
531.431	33618.09
531.632	33996.96
531.833	33837.22
532.035	34007.2
532.236	34109.6
532.437	33804.45
532.638	33683.62
532.839	34117.79
533.04	34465.95
533.241	34023.59
533.442	34330.78
533.643	34271.39
533.844	34314.4
534.045	34443.42
534.246	34011.3
534.447	34543.77
534.648	34300.06
534.849	34248.86
535.05	34011.3
535.251	34396.32
535.451	34035.88
535.652	34373.79
535.853	34576.54
536.054	34439.33
536.255	34416.8
536.456	33890.47
536.657	34556.06
536.857	33867.94
537.058	34310.3
537.259	34678.94
537.46	34371.74
537.66	34566.3
537.861	34312.35
538.062	33978.53
538.263	34699.42
538.463	34138.27
538.664	34355.36
538.865	34373.79
539.065	34687.13
539.266	34347.17
539.466	34490.52
539.667	34107.55
539.868	34666.65
540.068	34177.19
540.269	34087.07
540.469	34064.55
540.67	34273.44
540.87	34318.49
541.071	34183.33
541.271	34197.66
541.472	33992.87
541.672	34390.17
541.873	34242.72
542.073	33687.72
542.274	34498.72
542.474	34226.34
542.675	34193.57
542.875	34416.8
543.075	34156.71
543.276	33558.7
543.476	34723.99
543.676	34003.11
543.877	34228.38
544.077	34035.88
544.277	34017.44
544.478	33894.57
544.678	34332.83
544.878	34287.78
545.078	34341.02
545.279	33888.42
545.479	34074.79
545.679	34009.25
545.879	34146.47
546.079	34197.66
546.28	33765.54
546.48	33493.16
546.68	34191.52
546.88	34306.21
547.08	34283.68
547.28	34111.65
547.48	33859.75
547.68	34066.59
547.88	33786.02
548.081	34304.16
548.281	34541.72
548.481	33890.47
548.681	34404.51
548.881	33847.46
549.081	33743.02
549.28	33927.33
549.48	33810.6
549.68	33919.14
549.88	34349.21
550.08	33898.66
550.28	34138.27
550.48	33632.43
550.68	34058.4
550.88	33659.05
551.08	34046.12
551.279	34414.75
551.479	33659.05
551.679	33927.33
551.879	33947.81
552.079	34089.12
552.278	33743.02
552.478	33931.43
552.678	33489.07
552.878	33822.89
553.077	33765.54
553.277	33339.57
553.477	34377.89
553.676	33704.1
553.876	33863.85
554.076	33429.68
554.275	33726.63
554.475	33136.82
554.674	33712.3
554.874	33654.95
555.074	33591.47
555.273	33661.1
555.473	33783.98
555.672	33573.03
555.872	33380.53
556.071	33915.05
556.271	33765.54
556.47	33401
556.67	33169.58
556.869	33358
557.068	33738.92
557.268	32964.79
557.467	32882.87
557.667	33308.85
557.866	33204.4
558.065	32575.67
558.265	33120.43
558.464	33042.61
558.663	33292.46
558.863	32811.19
559.062	33517.74
559.261	32739.51
559.461	33104.05
559.66	32381.12
559.859	32702.65
560.058	32889.01
560.258	33032.37
560.457	32422.08
560.656	33056.95
560.855	32643.26
561.054	33024.18
561.253	32391.36
561.453	32827.57
561.652	32491.71
561.851	32704.7
562.05	32467.13
562.249	32196.8
562.448	32559.29
562.647	32233.66
562.846	32354.49
563.045	32086.21
563.244	32135.36
563.443	32395.45
563.642	31862.98
563.841	32307.39
564.04	31824.07
564.239	32202.94
564.438	31819.97
564.637	32059.59
564.836	32352.44
565.035	31598.79
565.234	31811.78
565.432	31561.93
565.631	31482.06
565.83	31762.63
566.029	31541.45
566.228	31426.76
566.427	31305.93
566.625	31314.12
566.824	31076.56
567.023	31467.72
567.222	31080.66
567.42	31684.81
567.619	31439.05
567.818	31127.76
568.016	31236.3
568.215	31434.95
568.414	31004.88
568.612	30972.11
568.811	31002.83
569.01	31226.06
569.208	30372.06
569.407	30892.24
569.605	30367.96
569.804	30695.64
570.002	30273.76
570.201	30300.38
570.4	30138.59
570.598	30017.76
570.797	30132.45
570.995	30365.92
571.193	29737.19
571.392	30453.98
571.59	29829.35
571.789	29890.79
571.987	29921.51
572.186	30071.01
572.384	29745.38
572.582	30247.13
572.781	30132.45
572.979	29804.77
573.177	29581.54
573.376	29841.64
573.574	29151.47
573.772	29714.66
573.971	29262.06
574.169	29087.98
574.367	29380.84
574.565	29436.14
574.763	29309.16
574.962	29214.96
575.16	28674.29
575.358	29030.64
575.556	28680.44
575.754	28963.06
575.952	28616.95
576.151	28811.51
576.349	28158.2
576.547	28446.97
576.745	28780.79
576.943	28604.66
577.141	28522.74
577.339	28623.09
577.537	27971.84
577.735	28377.34
577.933	28000.51
578.131	28410.11
578.329	27955.46
578.527	27986.18
578.725	28104.96
578.923	28203.26
579.121	27904.26
579.319	27648.26
579.516	28047.61
579.714	27873.54
579.912	27635.97
580.11	27445.51
580.308	27642.12
580.506	27834.63
580.704	27134.22
580.901	27390.22
581.099	27924.74
581.297	27037.97
581.495	27173.13
581.692	27271.43
581.89	26814.74
582.088	27212.04
582.285	26986.77
582.483	27238.67
582.681	26923.28
582.878	26751.25
583.076	26630.42
583.274	26919.18
583.471	26573.08
583.669	26472.73
583.866	26525.97
584.064	26632.47
584.262	26222.87
584.459	26532.12
584.657	26069.28
584.854	26439.96
585.052	25907.49
585.249	26280.22
585.447	25975.07
585.644	25674.02
585.841	25856.29
586.039	26134.81
586.236	25577.76
586.434	25690.4
586.631	25585.96
586.828	25682.21
587.026	25489.7
587.223	25501.99
587.42	25207.08
587.618	25202.99
587.815	25028.91
588.012	24949.04
588.21	24998.19
588.407	25166.12
588.604	24895.79
588.801	24867.12
588.999	24895.79
589.196	24697.14
589.393	24811.82
589.59	24703.28
589.787	24815.92
589.984	24506.68
590.182	24054.08
590.379	24647.99
590.576	24049.98
590.773	24541.49
590.97	24240.44
591.167	24332.6
591.364	24324.41
591.561	24156.47
591.758	23808.32
591.955	23851.33
592.152	24103.23
592.349	23472.45
592.546	23509.32
592.743	23927.1
592.94	23204.17
593.137	23568.71
593.334	23689.54
593.531	23345.48
593.727	23542.08
593.924	23540.04
594.121	23261.51
594.318	23200.07
594.515	23054.67
594.712	23159.11
594.908	22976.84
595.105	23069
595.302	22782.29
595.499	22837.58
595.696	22944.08
595.892	22640.98
596.089	22653.26
596.286	22817.1
596.482	22653.26
596.679	22673.74
596.876	22849.87
597.072	22266.2
597.269	22503.76
597.466	22352.21
597.662	22141.27
597.859	22069.59
598.055	22088.03
598.252	21903.71
598.448	22116.7
598.645	22012.25
598.841	21676.38
599.038	21954.91
599.234	21780.83
599.431	21315.94
599.627	21516.64
599.824	21582.18
600.02	21428.58
600.217	21483.87
600.413	21174.63
600.609	21193.06
600.806	21176.68
601.002	21289.32
601.198	20971.88
601.395	21100.9
601.591	20920.68
601.787	21098.86
601.984	20912.49
602.18	21424.48
602.376	20623.73
602.572	20443.51
602.769	20683.12
602.965	20302.2
603.161	20724.08
603.357	20500.85
603.553	20566.38
603.75	20607.34
603.946	20232.57
604.142	20562.29
604.338	20197.75
604.534	20222.33
604.73	20048.25
604.926	20040.06
605.122	20195.7
605.318	19937.66
605.514	19784.06
605.71	19919.23
605.906	20003.19
606.102	19612.03
606.298	19632.51
606.494	19861.88
606.69	19642.75
606.886	19747.2
607.082	19169.67
607.278	19693.95
607.474	19337.6
607.67	19593.6
607.866	19100.04
608.062	19685.76
608.257	19274.12
608.453	19333.51
608.649	19169.67
608.845	19194.25
609.041	18968.97
609.236	19069.32
609.432	19200.39
609.628	19243.4
609.824	18895.24
610.019	18870.67
610.215	19067.27
610.411	18966.92
610.606	18839.95
610.802	19077.51
610.998	18858.38
611.193	18819.47
611.389	19018.12
611.584	18895.24
611.78	18682.25
611.976	18723.21
612.171	18700.69
612.367	18590.1
612.562	18542.99
612.758	18391.44
612.953	18629.01
613.149	18825.61
613.344	18516.37
613.539	18463.12
613.735	18258.32
613.93	18717.07
614.126	18182.55
614.321	18532.75
614.517	18262.42
614.712	18420.11
614.907	18190.74
615.103	18586
615.298	18078.1
615.493	18346.39
615.688	18012.57
615.884	18536.85
616.079	17881.5
616.274	18143.64
616.47	17807.77
616.665	17910.17
616.86	17711.52
617.055	17770.91
617.25	17869.21
617.445	18016.66
617.641	17519.01
617.836	17797.53
618.031	17582.49
618.226	18031
618.421	17834.39
618.616	17738.14
618.811	17693.08
619.006	17924.51
619.201	17308.07
619.396	17355.17
619.591	17179.04
619.786	17392.03
619.981	16955.82
620.176	17357.22
620.371	16873.9
620.566	17142.18
620.761	16961.96
620.956	16861.61
621.151	16724.4
621.346	16820.65
621.541	16474.54
621.735	16722.35
621.93	16617.9
622.125	16456.11
622.32	16134.58
622.515	16466.35
622.709	16062.9
622.904	16427.44
623.099	16085.43
623.294	16060.85
623.488	15827.39
623.683	15999.41
623.878	15655.36
624.072	15808.95
624.267	15325.63
624.462	15507.9
624.656	15192.51
624.851	15315.39
625.046	15421.89
625.24	15086.02
625.435	14981.57
625.629	15237.57
625.824	15083.97
626.018	15051.2
626.213	14590.41
626.407	14821.83
626.602	14432.72
626.796	14639.56
626.991	14498.25
627.185	14410.19
627.38	14283.22
627.574	14174.67
627.768	14152.15
627.963	14197.2
628.157	14006.74
628.352	14242.26
628.546	13578.72
628.74	13816.28
628.935	13652.44
629.129	13863.38
629.323	13466.08
629.517	13515.23
629.712	13255.14
629.906	13550.04
630.1	13210.08
630.294	13386.21
630.489	12999.14
630.683	13058.53
630.877	13128.16
631.071	13001.19
631.265	13060.58
631.459	12911.08
631.653	12743.14
631.848	12687.85
632.042	12782.06
632.236	12657.13
632.43	12474.86
632.624	12448.24
632.818	12210.67
633.012	12491.24
633.206	12231.15
633.4	12347.89
633.594	12261.87
633.788	12138.99
633.982	12116.47
634.176	12022.26
634.369	12028.4
634.563	12091.89
634.757	11756.02
634.951	11981.3
635.145	11923.96
635.339	11837.94
635.533	11489.79
635.726	11534.84
635.92	11657.72
636.114	11323.9
636.308	11098.63
636.501	11317.76
636.695	11319.81
636.889	11117.06
637.083	11112.96
637.276	11076.1
637.47	10920.45
637.664	10873.35
637.857	10879.49
638.051	10953.22
638.244	10918.4
638.438	10791.43
638.632	10648.07
638.825	10473.99
639.019	10412.56
639.212	10633.74
639.406	10582.54
639.599	10344.97
639.793	10433.04
639.986	10222.09
640.18	10533.39
640.373	10234.38
640.567	9964.05
640.76	10174.99
640.954	10185.23
641.147	10131.98
641.34	10091.02
641.534	10099.22
641.727	10099.22
641.92	10041.87
642.114	9837.08
642.307	9763.35
642.5	9658.9
642.694	9540.12
642.887	9542.17
643.08	9587.22
643.273	9329.18
643.467	9607.7
643.66	9327.13
643.853	9470.49
644.046	9267.74
644.239	9300.51
644.432	9085.47
644.626	9148.96
644.819	9134.62
645.012	9034.27
645.205	9126.43
645.398	9032.22
645.591	8956.45
645.784	8886.82
645.977	8735.27
646.17	8725.03
646.363	8700.45
646.556	8682.02
646.749	8817.19
646.942	8741.41
647.135	8608.3
647.328	8561.19
647.521	8579.62
647.714	8516.14
647.907	8438.31
648.099	8342.06
648.292	8495.66
648.485	8227.37
648.678	8213.04
648.871	8165.93
649.064	8045.1
649.256	8247.85
649.449	8112.69
649.642	7981.62
649.835	7887.41
650.027	7977.52
650.22	8043.06
650.413	7821.88
650.605	7889.46
650.798	8010.29
650.991	7766.58
651.183	7782.96
651.376	7758.39
651.568	7592.5
651.761	7729.72
651.954	7535.16
652.146	7643.7
652.339	7481.91
652.531	7365.18
652.724	7297.6
652.916	7301.69
653.109	7254.59
653.301	7393.85
653.494	7273.02
653.686	7182.91
653.879	7311.93
654.071	7250.49
654.263	7326.27
654.456	7088.7
654.648	7168.57
654.84	6969.92
655.033	6924.86
655.225	6924.86
655.417	6988.35
655.61	7066.17
655.802	6922.82
655.994	6820.42
656.186	6830.66
656.379	6902.34
656.571	6740.55
656.763	6752.84
656.955	6697.54
657.148	6740.55
657.34	6617.67
657.532	6482.5
657.724	6525.51
657.916	6394.44
658.108	6601.29
658.3	6292.04
658.492	6351.43
658.684	6443.59
658.876	6277.71
659.068	6271.56
659.26	6306.38
659.452	6236.75
659.644	6343.24
659.836	6107.73
660.028	6210.12
660.22	6201.93
660.412	6124.11
660.604	6013.52
660.796	5962.32
660.988	6054.48
661.18	5909.07
661.372	5966.42
661.563	5855.83
661.755	6038.09
661.947	6025.81
662.139	5968.46
662.331	5790.29
662.522	6040.14
662.714	5792.34
662.906	5689.94
663.097	5661.27
663.289	5644.88
663.481	5608.02
663.673	5675.6
663.864	5614.16
664.056	5507.67
664.247	5573.21
664.439	5546.58
664.631	5397.08
664.822	5409.37
665.014	5438.04
665.205	5481.05
665.397	5315.16
665.588	5435.99
665.78	5163.61
665.971	5431.9
666.163	5257.82
666.354	5136.99
666.546	5202.52
666.737	5102.17
666.929	5411.42
667.12	5257.82
667.311	4989.53
667.503	5243.48
667.694	5204.57
667.885	5083.74
668.077	5153.37
668.268	5030.49
668.459	4962.91
668.651	5061.21
668.842	5053.02
669.033	5083.74
669.224	4813.41
669.416	4962.91
669.607	4991.58
669.798	4876.9
669.989	4924
670.18	4704.87
670.371	4833.89
670.563	4903.52
670.754	4792.93
670.945	4749.92
671.136	4821.6
671.327	4641.38
671.518	4842.08
671.709	4573.8
671.9	4760.16
672.091	4493.93
672.282	4702.82
672.473	4526.69
672.664	4674.15
672.855	4547.17
673.046	4545.13
673.237	4430.44
673.428	4516.45
673.619	4532.84
673.809	4512.36
674	4348.52
674.191	4635.24
674.382	4498.02
674.573	4266.6
674.764	4352.62
674.954	4500.07
675.145	4514.41
675.336	4381.29
675.527	4334.18
675.717	4590.18
675.908	4213.35
676.099	4485.73
676.289	4323.94
676.48	4309.61
676.671	4205.16
676.861	4227.69
677.052	4282.99
677.243	4178.54
677.433	4110.96
677.624	4295.27
677.814	4164.2
678.005	4221.55
678.195	4088.43
678.386	4211.31
678.576	4221.55
678.767	4104.81
678.957	4080.24
679.148	4209.26
679.338	4168.3
679.529	4102.76
679.719	4043.37
679.909	4123.24
680.1	4129.39
680.29	4244.07
680.481	3988.08
680.671	4026.99
680.861	4129.39
681.052	4055.66
681.242	3932.78
681.432	3998.32
681.622	3877.49
681.813	4070
682.003	3904.11
682.193	3916.4
682.383	4174.44
682.573	3963.5
682.764	3940.97
682.954	3977.84
683.144	4000.37
683.334	3988.08
683.524	3881.58
683.714	3965.55
683.904	3949.17
684.094	3781.23
684.284	3818.1
684.474	3928.69
684.664	4020.85
684.854	3822.19
685.044	3697.27
685.234	3736.18
685.424	3836.53
685.614	3730.03
685.804	3697.27
685.994	3609.2
686.184	3854.96
686.374	3873.39
686.564	3515
686.753	3699.31
686.943	3668.59
687.133	3613.3
687.323	3615.35
687.513	3564.15
687.702	3603.06
687.892	3553.91
688.082	3580.53
688.272	3486.33
688.461	3609.2
688.651	3615.35
688.841	3574.39
689.03	3564.15
689.22	3383.93
689.41	3324.54
689.599	3439.22
689.789	3416.69
689.979	3328.63
690.168	3261.05
690.358	3484.28
690.547	3359.35
690.737	3383.93
690.926	3351.16
691.116	3164.79
691.305	3390.07
691.495	3195.51
691.684	3175.03
691.874	3322.49
692.063	3191.42
692.252	3160.7
692.442	3281.53
692.631	3093.12
692.82	3074.68
693.01	3136.12
693.199	3082.88
693.388	3132.03
693.578	3164.79
693.767	3236.47
693.956	3154.55
694.146	3000.96
694.335	3050.11
694.524	3043.96
694.713	2972.29
694.902	2990.72
695.092	3027.58
695.281	2853.5
695.47	3007.1
695.659	3013.24
695.848	3003
696.037	2962.05
696.226	2964.09
696.415	2908.8
696.604	3023.48
696.793	2777.73
696.982	2937.47
697.171	2927.23
697.36	2845.31
697.549	2802.3
697.738	2849.41
697.927	2775.68
698.116	2824.83
698.305	2732.67
698.494	2747.01
698.683	2960
698.872	2871.93
699.061	2828.93
699.25	2851.46
699.438	2824.83
699.627	2839.17
699.816	2781.82
700.005	2841.22
700.193	2771.58
700.382	2744.96
700.571	2695.81
700.76	2728.58
700.948	2718.34
701.137	2681.47
701.326	2781.82
701.514	2650.75
701.703	2724.48
701.892	2630.27
702.08	2712.19
702.269	2675.33
702.457	2691.71
702.646	2617.99
702.834	2615.94
703.023	2595.46
703.212	2595.46
703.4	2734.72
703.589	2626.18
703.777	2740.86
703.965	2523.78
704.154	2724.48
704.342	2636.42
704.531	2677.38
704.719	2628.23
704.907	2624.13
705.096	2701.95
705.284	2599.55
705.472	2615.94
705.661	2734.72
705.849	2570.88
706.037	2624.13
706.226	2663.04
706.414	2665.09
706.602	2488.96
706.79	2570.88
706.979	2617.99
707.167	2609.79
707.355	2560.64
707.543	2540.16
707.731	2523.78
707.919	2515.59
708.107	2538.12
708.296	2605.7
708.484	2499.2
708.672	2615.94
708.86	2523.78
709.048	2617.99
709.236	2511.49
709.424	2622.08
709.612	2636.42
709.8	2628.23
709.988	2503.3
710.176	2517.64
710.364	2556.55
710.551	2574.98
710.739	2570.88
710.927	2523.78
711.115	2634.37
711.303	2562.69
711.491	2529.92
711.679	2654.85
711.866	2507.4
712.054	2601.6
712.242	2486.92
712.43	2577.03
712.617	2525.83
712.805	2486.92
712.993	2595.46
713.181	2632.32
713.368	2534.02
713.556	2638.47
713.744	2564.74
713.931	2617.99
714.119	2617.99
714.306	2593.41
714.494	2562.69
714.682	2607.75
714.869	2523.78
715.057	2402.95
715.244	2585.22
715.432	2538.12
715.619	2572.93
715.807	2464.39
715.994	2560.64
716.182	2531.97
716.369	2503.3
716.556	2521.73
716.744	2597.51
716.931	2656.9
717.119	2574.98
717.306	2531.97
717.493	2615.94
717.681	2654.85
717.868	2548.36
718.055	2566.79
718.242	2603.65
718.43	2470.53
718.617	2597.51
718.804	2538.12
718.991	2622.08
719.179	2486.92
719.366	2589.32
719.553	2630.27
719.74	2538.12
719.927	2624.13
720.114	2581.12
720.301	2511.49
720.488	2558.6
720.676	2515.59
720.863	2474.63
721.05	2525.83
721.237	2527.88
721.424	2677.38
721.611	2527.88
721.798	2523.78
721.985	2407.05
722.172	2523.78
722.358	2497.16
722.545	2515.59
722.732	2570.88
722.919	2636.42
723.106	2505.35
723.293	2566.79
723.48	2593.41
723.667	2552.45
723.853	2439.81
724.04	2646.66
724.227	2540.16
724.414	2556.55
724.6	2511.49
724.787	2568.84
724.974	2609.79
725.161	2536.07
725.347	2497.16
725.534	2679.43
725.72	2683.52
725.907	2523.78
726.094	2491.01
726.28	2388.61
726.467	2593.41
726.653	2546.31
726.84	2572.93
727.027	2636.42
727.213	2468.48
727.4	2579.08
727.586	2536.07
727.773	2599.55
727.959	2673.28
728.145	2611.84
728.332	2497.16
728.518	2499.2
728.705	2593.41
728.891	2660.99
729.077	2507.4
729.264	2534.02
729.45	2560.64
729.636	2665.09
729.823	2671.23
730.009	2536.07
730.195	2593.41
730.382	2523.78
730.568	2607.75
730.754	2683.52
730.94	2488.96
731.126	2650.75
731.313	2478.72
731.499	2556.55
731.685	2601.6
731.871	2534.02
732.057	2632.32
732.243	2515.59
732.429	2550.4
732.615	2476.68
732.801	2495.11
732.987	2527.88
733.173	2480.77
733.359	2585.22
733.545	2579.08
733.731	2484.87
733.917	2511.49
734.103	2675.33
734.289	2568.84
734.475	2388.61
734.661	2695.81
734.847	2464.39
735.033	2507.4
735.219	2579.08
735.404	2482.82
735.59	2531.97
735.776	2478.72
735.962	2558.6
736.148	2538.12
736.333	2560.64
736.519	2523.78
736.705	2452.1
736.89	2521.73
737.076	2390.66
737.262	2443.91
737.447	2413.19
737.633	2507.4
737.819	2437.77
738.004	2386.57
738.19	2493.06
738.375	2540.16
738.561	2521.73
738.747	2476.68
738.932	2431.62
739.118	2503.3
739.303	2482.82
739.489	2521.73
739.674	2464.39
739.859	2425.48
740.045	2445.96
740.23	2357.89
740.416	2409.09
740.601	2474.63
740.786	2339.46
740.972	2253.45
741.157	2366.09
741.342	2341.51
741.528	2339.46
741.713	2415.24
741.898	2419.33
742.084	2421.38
742.269	2376.33
742.454	2359.94
742.639	2353.8
742.824	2202.25
743.01	2503.3
743.195	2333.32
743.38	2212.49
743.565	2284.17
743.75	2331.27
743.935	2210.44
744.12	2288.26
744.305	2257.54
744.49	2245.26
744.675	2179.72
744.86	2198.15
745.045	2323.08
745.23	2372.23
745.415	2173.58
745.6	2230.92
745.785	2202.25
745.97	2099.85
746.155	2128.52
746.34	2169.48
746.525	2056.84
746.71	2171.53
746.895	1925.77
747.079	2128.52
747.264	2032.27
747.449	2126.47
747.634	2087.56
747.819	2017.93
748.003	1958.54
748.188	2048.65
748.373	2046.6
748.557	2028.17
748.742	1968.78
748.927	1987.21
749.111	2071.18
749.296	1833.61
749.481	1931.92
749.665	1950.35
749.85	1854.09
750.034	1899.15
750.219	1915.53
750.404	1843.85
750.588	1956.49
750.773	1761.94
750.957	1915.53
751.141	1893.01
751.326	1776.27
751.51	1825.42
751.695	1741.46
751.879	1753.74
752.064	1815.18
752.248	1806.99
752.432	1770.13
752.617	1682.06
752.801	1696.4
752.985	1735.31
753.17	1751.7
753.354	1823.37
753.538	1716.88
753.722	1577.62
753.907	1653.39
754.091	1596.05
754.275	1702.54
754.459	1630.87
754.643	1487.51
754.828	1518.23
755.012	1653.39
755.196	1512.08
755.38	1528.47
755.564	1520.28
755.748	1565.33
755.932	1622.67
756.116	1530.52
756.3	1534.61
756.484	1514.13
756.668	1565.33
756.852	1526.42
757.036	1503.89
757.22	1491.6
757.404	1378.97
757.588	1383.06
757.772	1428.12
757.956	1444.5
758.14	1442.45
758.323	1331.86
758.507	1395.35
758.691	1376.92
758.875	1331.86
759.059	1389.21
759.242	1438.36
759.426	1282.71
759.61	1268.38
759.794	1335.96
759.977	1385.11
760.161	1358.49
760.345	1299.09
760.528	1325.72
760.712	1233.56
760.895	1319.57
761.079	1260.18
761.263	1235.61
761.446	1149.59
761.63	1184.41
761.813	1172.12
761.997	1204.89
762.18	1225.37
762.364	1221.27
762.547	1223.32
762.731	1206.94
762.914	1133.21
763.098	1182.36
763.281	1272.47
763.464	1153.69
763.648	1206.94
763.831	1186.46
764.015	1215.13
764.198	1155.74
764.381	1122.97
764.564	1219.22
764.748	1129.11
764.931	1198.74
765.114	975.52
765.297	1176.22
765.481	1114.78
765.664	1096.35
765.847	1069.72
766.03	1071.77
766.213	1024.67
766.397	1204.89
766.58	1110.68
766.763	1088.15
766.946	1065.63
767.129	1039
767.312	1051.29
767.495	1026.71
767.678	1036.95
767.861	1061.53
768.044	1024.67
768.227	918.17
768.41	1020.57
768.593	1018.52
768.776	1002.14
768.959	957.08
769.142	1045.15
769.324	1108.63
769.507	993.95
769.69	985.76
769.873	1012.38
770.056	1014.43
770.239	957.08
770.421	918.17
770.604	983.71
770.787	987.8
770.97	930.46
771.152	844.45
771.335	926.36
771.518	871.07
771.7	955.04
771.883	922.27
772.066	891.55
772.248	928.41
772.431	944.8
772.613	883.36
772.796	893.6
772.978	780.96
773.161	912.03
773.343	952.99
773.526	791.2
773.708	826.01
773.891	772.77
774.073	778.91
774.256	848.54
774.438	836.25
774.621	809.63
774.803	909.98
774.985	852.64
775.168	813.73
775.35	801.44
775.532	848.54
775.715	780.96
775.897	819.87
776.079	731.81
776.261	889.5
776.444	703.14
776.626	799.39
776.808	766.62
776.99	746.14
777.173	803.49
777.355	785.05
777.537	746.14
777.719	733.86
777.901	699.04
778.083	684.7
778.265	625.31
778.447	778.91
778.629	696.99
778.811	688.8
778.993	672.42
779.175	617.12
779.357	590.5
779.539	787.1
779.721	699.04
779.903	727.71
780.085	629.41
780.267	662.18
780.449	637.6
780.631	717.47
780.812	676.51
780.994	633.5
781.176	561.83
781.358	606.88
781.54	649.89
781.721	623.27
781.903	623.27
782.085	555.68
782.267	588.45
782.448	539.3
782.63	586.4
782.812	586.4
782.993	600.74
783.175	541.35
783.357	520.87
783.538	514.72
783.72	486.05
783.901	447.14
784.083	504.48
784.264	490.15
784.446	490.15
784.627	582.31
784.809	469.67
784.99	598.69
785.172	453.28
785.353	463.52
785.535	518.82
785.716	504.48
785.897	432.8
786.079	449.19
786.26	555.68
786.441	514.72
786.623	467.62
786.804	410.28
786.985	498.34
787.167	455.33
787.348	461.48
787.529	416.42
787.71	484
787.891	494.24
788.073	402.08
788.254	383.65
788.435	459.43
788.616	492.2
788.797	451.24
788.978	336.55
789.159	346.79
789.34	422.56
789.522	375.46
789.703	443.04
789.884	424.61
790.065	451.24
790.246	445.09
790.427	432.8
790.607	469.67
790.788	408.23
790.969	371.37
791.15	395.94
791.331	441
791.512	336.55
791.693	365.22
791.874	363.17
792.054	428.71
792.235	404.13
792.416	311.97
792.597	311.97
792.778	385.7
792.958	393.89
793.139	301.73
793.32	367.27
793.5	305.83
793.681	328.36
793.862	359.08
794.042	297.64
794.223	295.59
794.404	371.37
794.584	330.41
794.765	367.27
794.945	338.6
795.126	379.56
795.306	359.08
795.487	289.45
795.667	322.21
795.848	340.65
796.028	342.69
796.209	336.55
796.389	342.69
796.57	311.97
796.75	309.93
796.93	316.07
797.111	271.01
797.291	277.16
797.471	303.78
797.652	279.21
797.832	234.15
798.012	381.6
798.192	305.83
798.373	228.01
798.553	309.93
798.733	342.69
798.913	385.7
799.093	311.97
799.274	318.12
799.454	256.68
799.634	346.79
799.814	240.29
799.994	242.34
800.174	332.45
800.354	250.53
800.534	277.16
800.714	234.15
800.894	307.88
801.074	217.77
801.254	203.43
801.434	291.49
801.614	291.49
801.794	217.77
801.974	672.42
802.154	189.1
802.334	232.1
802.514	291.49
802.693	209.58
802.873	252.58
803.053	287.4
803.233	238.25
803.413	266.92
803.592	162.47
803.772	271.01
803.952	330.41
804.131	195.24
804.311	203.43
804.491	287.4
804.67	209.58
804.85	293.54
805.03	248.49
805.209	230.06
805.389	193.19
805.568	268.97
805.748	311.97
805.928	221.86
806.107	213.67
806.287	211.62
806.466	193.19
806.646	176.81
806.825	277.16
807.004	185
807.184	193.19
807.363	230.06
807.543	207.53
807.722	199.34
807.901	207.53
808.081	291.49
808.26	199.34
808.439	162.47
808.619	234.15
808.798	191.14
808.977	152.23
809.156	232.1
809.336	182.95
809.515	248.49
809.694	191.14
809.873	121.51
810.052	189.1
810.231	262.82
810.411	225.96
810.59	158.38
810.769	195.24
810.948	187.05
811.127	242.34
811.306	164.52
811.485	172.71
811.664	273.06
811.843	154.28
812.022	207.53
812.201	158.38
812.38	191.14
812.559	98.99
812.737	211.62
812.916	90.79
813.095	252.58
813.274	162.47
813.453	156.33
813.632	127.66
813.811	174.76
813.989	131.75
814.168	127.66
814.347	230.06
814.526	193.19
814.704	230.06
814.883	168.62
815.062	127.66
815.24	131.75
815.419	154.28
815.598	88.75
815.776	133.8
815.955	152.23
816.133	105.13
816.312	164.52
816.49	88.75
816.669	148.14
816.847	176.81
817.026	125.61
817.204	148.14
817.383	131.75
817.561	101.03
817.74	180.9
817.918	150.18
818.097	170.66
818.275	129.7
818.453	133.8
818.632	168.62
818.81	213.67
818.988	131.75
819.167	180.9
819.345	172.71
819.523	180.9
819.701	125.61
819.879	115.37
820.058	195.24
820.236	135.85
820.414	133.8
820.592	62.12
820.77	213.67
820.948	176.81
821.127	74.41
821.305	152.23
821.483	107.18
821.661	146.09
821.839	133.8
822.017	111.27
822.195	185
822.373	144.04
822.551	111.27
822.729	94.89
822.907	107.18
823.085	154.28
823.262	141.99
823.44	135.85
823.618	101.03
823.796	150.18
823.974	137.9
824.152	94.89
824.329	123.56
824.507	131.75
824.685	19.11
824.863	180.9
825.04	78.51
825.218	117.42
825.396	131.75
825.574	180.9
825.751	137.9
825.929	164.52
826.107	51.88
826.284	146.09
826.462	156.33
826.639	121.51
826.817	68.27
826.994	45.74
827.172	64.17
827.349	154.28
827.527	105.13
827.704	158.38
827.882	113.32
828.059	156.33
828.237	53.93
828.414	156.33
828.591	29.35
828.769	94.89
828.946	96.94
829.124	96.94
829.301	125.61
829.478	49.83
829.655	94.89
829.833	152.23
830.01	58.03
830.187	70.31
830.364	29.35
830.542	156.33
830.719	162.47
830.896	43.69
831.073	113.32
831.25	105.13
831.427	135.85
831.604	131.75
831.782	144.04
831.959	180.9
832.136	58.03
832.313	51.88
832.49	72.36
832.667	146.09
832.844	21.16
833.021	123.56
833.198	45.74
833.374	66.22
833.551	29.35
833.728	111.27
833.905	78.51
834.082	78.51
834.259	74.41
834.436	90.79
834.612	98.99
834.789	80.55
834.966	86.7
835.143	125.61
835.319	-7.51
835.496	107.18
835.673	66.22
835.85	105.13
836.026	43.69
836.203	139.94
836.38	53.93
836.556	103.08
836.733	35.5
836.909	82.6
837.086	90.79
837.262	6.83
837.439	107.18
837.616	96.94
837.792	25.26
837.968	84.65
838.145	90.79
838.321	119.46
838.498	94.89
838.674	121.51
838.851	68.27
839.027	70.31
839.203	43.69
839.38	92.84
839.556	131.75
839.732	92.84
839.909	90.79
840.085	10.92
840.261	19.11
840.437	60.07
840.614	76.46
840.79	58.03
840.966	35.5
841.142	76.46
841.318	6.83
841.494	88.75
841.671	-1.37
841.847	66.22
842.023	86.7
842.199	-1.37
842.375	82.6
842.551	15.02
842.727	86.7
842.903	17.07
843.079	51.88
843.255	58.03
843.431	35.5
843.607	15.02
843.783	41.64
843.959	68.27
844.134	66.22
844.31	90.79
844.486	45.74
844.662	74.41
844.838	80.55
845.013	0.68
845.189	27.31
845.365	119.46
845.541	60.07
845.716	98.99
845.892	82.6
846.068	88.75
846.244	25.26
846.419	66.22
846.595	74.41
846.77	92.84
846.946	131.75
847.122	98.99
847.297	39.59
847.473	90.79
847.648	-11.61
847.824	6.83
847.999	55.98
848.175	19.11
848.35	64.17
848.526	70.31
848.701	76.46
848.876	72.36
849.052	29.35
849.227	35.5
849.403	-40.28
849.578	58.03
849.753	113.32
849.929	15.02
850.104	74.41
850.279	0.68
850.454	64.17
850.63	96.94
850.805	113.32
850.98	60.07
851.155	39.59
851.33	62.12
851.505	94.89
851.681	84.65
851.856	43.69
852.031	111.27
852.206	53.93
852.381	45.74
852.556	-23.89
852.731	90.79
852.906	19.11
853.081	35.5
853.256	53.93
853.431	55.98
853.606	74.41
853.781	23.21
853.956	45.74
854.131	4.78
854.305	33.45
854.48	107.18
854.655	84.65
854.83	25.26
855.005	66.22
855.18	64.17
855.354	-9.56
855.529	84.65
855.704	33.45
855.879	68.27
856.053	-46.42
856.228	90.79
856.403	-3.41
856.577	58.03
856.752	35.5
856.926	-62.8
857.101	66.22
857.276	-58.71
857.45	74.41
857.625	21.16
857.799	84.65
857.974	-32.08
858.148	2.73
858.323	55.98
858.497	37.55
858.672	27.31
858.846	29.35
859.02	41.64
859.195	55.98
859.369	47.79
859.543	4.78
859.718	35.5
859.892	29.35
860.066	41.64
860.241	66.22
860.415	6.83
860.589	68.27
860.763	68.27
860.938	-5.46
861.112	84.65
861.286	-40.28
861.46	25.26
861.634	21.16
861.808	41.64
861.982	12.97
862.157	21.16
862.331	25.26
862.505	-13.65
862.679	29.35
862.853	27.31
863.027	43.69
863.201	21.16
863.375	29.35
863.549	0.68
863.722	55.98
863.896	55.98
864.07	-21.85
864.244	35.5
864.418	92.84
864.592	23.21
864.766	17.07
864.939	-9.56
865.113	109.22
865.287	74.41
865.461	39.59
865.634	96.94
865.808	-5.46
865.982	-32.08
866.156	0.68
866.329	-30.04
866.503	109.22
866.676	35.5
866.85	62.12
867.024	35.5
867.197	33.45
867.371	49.83
867.544	-52.56
867.718	45.74
867.891	101.03
868.065	-36.18
868.238	68.27
868.412	127.66
868.585	-11.61
868.759	-9.56
868.932	4.78
869.105	-38.23
869.279	92.84
869.452	31.4
869.625	86.7
869.799	80.55
869.972	-25.94
870.145	37.55
870.319	33.45
870.492	-38.23
870.665	37.55
870.838	33.45
871.011	4.78
871.185	45.74
871.358	2.73
871.531	27.31
871.704	-13.65
871.877	76.46
872.05	53.93
872.223	-13.65
872.396	12.97
872.569	31.4
872.742	-3.41
872.915	31.4
873.088	37.55
873.261	6.83
873.434	31.4
873.607	8.87
873.78	17.07
873.953	-32.08
874.126	53.93
874.299	0.68
874.471	4.78
874.644	-5.46
874.817	25.26
874.99	39.59
875.163	-32.08
875.335	4.78
875.508	76.46
875.681	17.07
875.853	-52.56
876.026	29.35
876.199	29.35
876.371	21.16
876.544	-38.23
876.717	25.26
876.889	19.11
877.062	-32.08
877.234	-11.61
877.407	41.64
877.579	27.31
877.752	2.73
877.924	-36.18
878.097	12.97
878.269	-13.65
878.442	31.4
878.614	19.11
878.786	37.55
878.959	72.36
879.131	45.74
879.303	-25.94
879.476	82.6
879.648	-1.37
879.82	125.61
879.993	12.97
880.165	-52.56
880.337	-17.75
880.509	-7.51
880.681	47.79
880.854	-5.46
881.026	72.36
881.198	39.59
881.37	-23.89
881.542	74.41
881.714	-73.04
881.886	2.73
882.058	60.07
882.23	21.16
882.402	84.65
882.574	12.97
882.746	35.5
882.918	58.03
883.09	41.64
883.262	55.98
883.434	49.83
883.606	-3.41
883.778	2.73
883.95	70.31
884.122	19.11
884.293	47.79
884.465	-11.61
884.637	10.92
884.809	-7.51
884.98	82.6
885.152	15.02
885.324	43.69
885.496	-62.8
885.667	51.88
885.839	-13.65
886.011	53.93
886.182	27.31
886.354	31.4
886.525	4.78
886.697	80.55
886.869	25.26
887.04	-15.7
887.212	47.79
887.383	47.79
887.555	47.79
887.726	31.4
887.897	37.55
888.069	45.74
888.24	37.55
888.412	-58.71
888.583	-52.56
888.754	-13.65
888.926	-40.28
889.097	-15.7
889.268	-42.32
889.44	10.92
889.611	-5.46
889.782	-46.42
889.953	-17.75
890.125	86.7
890.296	-52.56
890.467	43.69
890.638	-60.76
890.809	8.87
890.98	-34.13
891.151	55.98
891.323	88.75
891.494	53.93
891.665	31.4
891.836	43.69
892.007	0.68
892.178	10.92
892.349	35.5
892.52	-30.04
892.691	-38.23
892.862	-9.56
893.032	-38.23
893.203	43.69
893.374	10.92
893.545	49.83
893.716	25.26
893.887	15.02
894.057	45.74
894.228	51.88
894.399	-27.99
894.57	-1.37
894.74	8.87
894.911	-32.08
895.082	23.21
895.253	41.64
895.423	-17.75
895.594	-1.37
895.764	4.78
895.935	0.68
896.106	8.87
896.276	19.11
896.447	15.02
896.617	15.02
896.788	-32.08
896.958	39.59
897.129	8.87
897.299	-54.61
897.47	60.07
897.64	55.98
897.81	-79.19
897.981	10.92
898.151	0.68
898.322	49.83
898.492	8.87
898.662	-11.61
898.832	-17.75
899.003	47.79
899.173	60.07
899.343	-46.42
899.513	-27.99
