Data from USB4F104151__92__12-28-17-668.txt Node

Date: Fri Mar 14 12:28:17 EDT 2025
User: louis
Spectrometer: USB4F10415
Trigger mode: 4
Integration Time (sec): 2.000000E-2
Scans to average: 1
Electric dark correction enabled: true
Nonlinearity correction enabled: false
Boxcar width: 0
XAxis mode: Wavelengths
Number of Pixels in Spectrum: 3648
>>>>>Begin Spectral Data<<<<<
178.204	-127.66
178.424	-127.66
178.644	-127.66
178.864	-74.41
179.084	-41.64
179.304	-19.11
179.524	-10.92
179.744	-15.02
179.964	109.91
180.184	19.8
180.404	-2.73
180.624	42.32
180.844	-68.27
181.064	-37.55
181.283	9.56
181.503	-31.4
181.723	3.41
181.943	38.23
182.163	85.33
182.383	5.46
182.602	32.08
182.822	50.52
183.042	75.09
183.262	13.65
183.482	71
183.701	-15.02
183.921	19.8
184.141	-19.11
184.361	5.46
184.58	27.99
184.8	58.71
185.02	40.28
185.239	99.67
185.459	48.47
185.679	54.61
185.898	27.99
186.118	27.99
186.338	93.52
186.557	93.52
186.777	13.65
186.997	5.46
187.216	46.42
187.436	1.37
187.655	75.09
187.875	79.19
188.095	73.04
188.314	66.9
188.534	-15.02
188.753	27.99
188.973	30.04
189.192	42.32
189.412	56.66
189.631	-12.97
189.851	36.18
190.07	-70.31
190.29	7.51
190.509	36.18
190.729	27.99
190.948	87.38
191.168	34.13
191.387	146.77
191.607	17.75
191.826	17.75
192.045	30.04
192.265	-33.45
192.484	66.9
192.704	-6.83
192.923	-4.78
193.142	107.86
193.362	-2.73
193.581	42.32
193.8	25.94
194.02	89.43
194.239	71
194.458	-4.78
194.678	42.32
194.897	71
195.116	13.65
195.335	25.94
195.555	-6.83
195.774	34.13
195.993	-8.87
196.212	40.28
196.432	19.8
196.651	15.7
196.87	19.8
197.089	66.9
197.308	75.09
197.528	11.61
197.747	13.65
197.966	54.61
198.185	99.67
198.404	34.13
198.623	-47.79
198.842	36.18
199.062	54.61
199.281	124.24
199.5	81.24
199.719	52.56
199.938	-12.97
200.157	38.23
200.376	-2.73
200.595	32.08
200.814	34.13
201.033	15.7
201.252	42.32
201.471	64.85
201.69	42.32
201.909	19.8
202.128	25.94
202.347	66.9
202.566	46.42
202.785	-15.02
203.004	13.65
203.223	105.81
203.442	73.04
203.661	3.41
203.879	83.28
204.098	93.52
204.317	-62.12
204.536	5.46
204.755	21.85
204.974	-39.59
205.193	81.24
205.411	60.76
205.63	3.41
205.849	34.13
206.068	75.09
206.287	107.86
206.505	-72.36
206.724	9.56
206.943	38.23
207.162	-4.78
207.381	50.52
207.599	134.48
207.818	11.61
208.037	81.24
208.255	3.41
208.474	91.48
208.693	48.47
208.911	15.7
209.13	62.8
209.349	32.08
209.567	56.66
209.786	44.37
210.005	-4.78
210.223	54.61
210.442	44.37
210.661	42.32
210.879	-6.83
211.098	50.52
211.316	36.18
211.535	25.94
211.753	21.85
211.972	19.8
212.191	95.57
212.409	44.37
212.628	48.47
212.846	56.66
213.065	40.28
213.283	42.32
213.502	-23.21
213.72	85.33
213.938	62.8
214.157	7.51
214.375	77.14
214.594	44.37
214.812	25.94
215.031	15.7
215.249	116.05
215.467	-4.78
215.686	-19.11
215.904	134.48
216.122	54.61
216.341	46.42
216.559	-2.73
216.778	40.28
216.996	71
217.214	-15.02
217.432	101.72
217.651	48.47
217.869	40.28
218.087	132.44
218.306	30.04
218.524	27.99
218.742	52.56
218.96	60.76
219.179	15.7
219.397	19.8
219.615	81.24
219.833	95.57
220.051	79.19
220.27	89.43
220.488	48.47
220.706	13.65
220.924	1.37
221.142	11.61
221.36	-12.97
221.578	89.43
221.796	52.56
222.015	75.09
222.233	-64.17
222.451	23.89
222.669	42.32
222.887	91.48
223.105	-21.16
223.323	1.37
223.541	7.51
223.759	56.66
223.977	21.85
224.195	68.95
224.413	40.28
224.631	79.19
224.849	81.24
225.067	58.71
225.285	36.18
225.503	1.37
225.721	52.56
225.939	17.75
226.157	11.61
226.375	38.23
226.592	30.04
226.81	79.19
227.028	71
227.246	50.52
227.464	1.37
227.682	52.56
227.9	52.56
228.117	52.56
228.335	15.7
228.553	-10.92
228.771	1.37
228.989	38.23
229.206	13.65
229.424	114
229.642	52.56
229.86	7.51
230.077	38.23
230.295	81.24
230.513	7.51
230.731	44.37
230.948	-4.78
231.166	83.28
231.384	-51.88
231.601	46.42
231.819	64.85
232.037	52.56
232.254	25.94
232.472	9.56
232.689	-31.4
232.907	-10.92
233.125	77.14
233.342	27.99
233.56	7.51
233.777	109.91
233.995	101.72
234.213	71
234.43	-27.31
234.648	89.43
234.865	9.56
235.083	120.15
235.3	1.37
235.518	56.66
235.735	-4.78
235.953	73.04
236.17	36.18
236.388	50.52
236.605	38.23
236.822	107.86
237.04	89.43
237.257	56.66
237.475	19.8
237.692	44.37
237.909	34.13
238.127	-10.92
238.344	107.86
238.562	66.9
238.779	58.71
238.996	13.65
239.214	27.99
239.431	30.04
239.648	19.8
239.865	27.99
240.083	93.52
240.3	36.18
240.517	27.99
240.735	54.61
240.952	58.71
241.169	17.75
241.386	23.89
241.603	21.85
241.821	60.76
242.038	91.48
242.255	83.28
242.472	36.18
242.689	32.08
242.907	23.89
243.124	81.24
243.341	93.52
243.558	60.76
243.775	95.57
243.992	3.41
244.209	13.65
244.426	21.85
244.643	27.99
244.86	27.99
245.078	85.33
245.295	5.46
245.512	89.43
245.729	-29.35
245.946	52.56
246.163	21.85
246.38	36.18
246.597	3.41
246.814	21.85
247.031	15.7
247.248	1.37
247.464	-12.97
247.681	-10.92
247.898	85.33
248.115	19.8
248.332	32.08
248.549	77.14
248.766	40.28
248.983	91.48
249.2	17.75
249.417	19.8
249.633	81.24
249.85	101.72
250.067	13.65
250.284	23.89
250.501	75.09
250.717	48.47
250.934	-47.79
251.151	116.05
251.368	-2.73
251.585	19.8
251.801	107.86
252.018	40.28
252.235	77.14
252.451	50.52
252.668	21.85
252.885	48.47
253.102	58.71
253.318	56.66
253.535	-4.78
253.752	93.52
253.968	5.46
254.185	44.37
254.401	13.65
254.618	93.52
254.835	-15.02
255.051	27.99
255.268	73.04
255.484	95.57
255.701	89.43
255.917	107.86
256.134	-17.07
256.351	75.09
256.567	3.41
256.784	107.86
257	11.61
257.217	79.19
257.433	60.76
257.65	34.13
257.866	89.43
258.082	-6.83
258.299	42.32
258.515	38.23
258.732	1.37
258.948	-37.55
259.165	19.8
259.381	25.94
259.597	54.61
259.814	-19.11
260.03	21.85
260.246	34.13
260.463	122.2
260.679	60.76
260.895	46.42
261.112	17.75
261.328	25.94
261.544	15.7
261.761	81.24
261.977	42.32
262.193	-27.31
262.409	23.89
262.626	56.66
262.842	9.56
263.058	89.43
263.274	21.85
263.49	52.56
263.707	44.37
263.923	-19.11
264.139	-12.97
264.355	9.56
264.571	30.04
264.787	17.75
265.004	44.37
265.22	32.08
265.436	81.24
265.652	71
265.868	25.94
266.084	15.7
266.3	64.85
266.516	-25.26
266.732	64.85
266.948	21.85
267.164	-21.16
267.38	3.41
267.596	34.13
267.812	66.9
268.028	-8.87
268.244	68.95
268.46	42.32
268.676	44.37
268.892	-10.92
269.108	30.04
269.324	21.85
269.54	77.14
269.756	116.05
269.972	1.37
270.188	40.28
270.403	19.8
270.619	-0.68
270.835	13.65
271.051	122.2
271.267	50.52
271.483	50.52
271.698	30.04
271.914	62.8
272.13	73.04
272.346	32.08
272.562	34.13
272.777	54.61
272.993	42.32
273.209	32.08
273.425	7.51
273.64	42.32
273.856	48.47
274.072	17.75
274.287	50.52
274.503	77.14
274.719	58.71
274.934	109.91
275.15	-4.78
275.366	25.94
275.581	50.52
275.797	-12.97
276.012	13.65
276.228	95.57
276.444	44.37
276.659	3.41
276.875	-62.12
277.09	93.52
277.306	79.19
277.521	-4.78
277.737	-4.78
277.952	142.68
278.168	36.18
278.383	60.76
278.599	83.28
278.814	30.04
279.03	30.04
279.245	34.13
279.461	87.38
279.676	64.85
279.892	-29.35
280.107	81.24
280.322	48.47
280.538	30.04
280.753	77.14
280.969	73.04
281.184	-2.73
281.399	15.7
281.615	-23.21
281.83	81.24
282.045	-10.92
282.26	68.95
282.476	-43.69
282.691	-4.78
282.906	-0.68
283.122	44.37
283.337	114
283.552	-4.78
283.767	23.89
283.983	91.48
284.198	-37.55
284.413	25.94
284.628	-27.31
284.843	89.43
285.058	5.46
285.274	62.8
285.489	11.61
285.704	56.66
285.919	7.51
286.134	46.42
286.349	83.28
286.564	66.9
286.779	105.81
286.995	17.75
287.21	-19.11
287.425	-2.73
287.64	9.56
287.855	56.66
288.07	27.99
288.285	-15.02
288.5	25.94
288.715	-2.73
288.93	71
289.145	40.28
289.36	46.42
289.575	40.28
289.79	64.85
290.004	17.75
290.219	165.2
290.434	19.8
290.649	83.28
290.864	44.37
291.079	-10.92
291.294	66.9
291.509	23.89
291.724	1.37
291.938	25.94
292.153	48.47
292.368	13.65
292.583	44.37
292.798	48.47
293.012	130.39
293.227	89.43
293.442	66.9
293.657	15.7
293.871	27.99
294.086	30.04
294.301	75.09
294.516	-4.78
294.73	34.13
294.945	30.04
295.16	-17.07
295.374	73.04
295.589	99.67
295.804	30.04
296.018	66.9
296.233	71
296.447	23.89
296.662	-45.74
296.877	-6.83
297.091	64.85
297.306	150.87
297.52	-53.93
297.735	71
297.949	32.08
298.164	34.13
298.378	3.41
298.593	56.66
298.807	-37.55
299.022	52.56
299.236	73.04
299.451	83.28
299.665	1.37
299.88	30.04
300.094	50.52
300.309	1.37
300.523	21.85
300.737	64.85
300.952	48.47
301.166	-21.16
301.381	-45.74
301.595	-10.92
301.809	9.56
302.024	11.61
302.238	27.99
302.452	42.32
302.667	60.76
302.881	1.37
303.095	-8.87
303.309	71
303.524	52.56
303.738	36.18
303.952	44.37
304.166	62.8
304.381	54.61
304.595	68.95
304.809	-25.26
305.023	44.37
305.237	-35.5
305.452	116.05
305.666	32.08
305.88	5.46
306.094	56.66
306.308	27.99
306.522	3.41
306.736	30.04
306.95	99.67
307.164	23.89
307.379	3.41
307.593	60.76
307.807	114
308.021	15.7
308.235	79.19
308.449	25.94
308.663	11.61
308.877	46.42
309.091	30.04
309.305	30.04
309.519	-19.11
309.733	60.76
309.947	-0.68
310.161	93.52
310.374	105.81
310.588	66.9
310.802	13.65
311.016	1.37
311.23	11.61
311.444	27.99
311.658	13.65
311.872	87.38
312.085	-12.97
312.299	66.9
312.513	97.62
312.727	77.14
312.941	-8.87
313.154	-21.16
313.368	-2.73
313.582	-15.02
313.796	44.37
314.009	-10.92
314.223	23.89
314.437	66.9
314.651	89.43
314.864	46.42
315.078	-0.68
315.292	42.32
315.505	64.85
315.719	38.23
315.933	21.85
316.146	21.85
316.36	15.7
316.573	81.24
316.787	42.32
317.001	3.41
317.214	32.08
317.428	75.09
317.641	5.46
317.855	38.23
318.068	34.13
318.282	62.8
318.495	15.7
318.709	89.43
318.922	109.91
319.136	75.09
319.349	89.43
319.563	13.65
319.776	87.38
319.99	81.24
320.203	50.52
320.417	58.71
320.63	36.18
320.843	-6.83
321.057	58.71
321.27	42.32
321.483	46.42
321.697	60.76
321.91	68.95
322.124	15.7
322.337	23.89
322.55	-19.11
322.763	50.52
322.977	48.47
323.19	52.56
323.403	58.71
323.617	7.51
323.83	46.42
324.043	83.28
324.256	71
324.469	60.76
324.683	25.94
324.896	81.24
325.109	44.37
325.322	-2.73
325.535	87.38
325.748	66.9
325.962	68.95
326.175	73.04
326.388	38.23
326.601	85.33
326.814	46.42
327.027	15.7
327.24	60.76
327.453	19.8
327.666	91.48
327.879	52.56
328.092	85.33
328.305	23.89
328.518	17.75
328.731	11.61
328.944	99.67
329.157	46.42
329.37	32.08
329.583	95.57
329.796	52.56
330.009	1.37
330.222	103.76
330.435	38.23
330.648	71
330.861	-2.73
331.073	103.76
331.286	-6.83
331.499	109.91
331.712	9.56
331.925	40.28
332.138	19.8
332.35	93.52
332.563	54.61
332.776	32.08
332.989	13.65
333.202	-4.78
333.414	15.7
333.627	81.24
333.84	64.85
334.053	66.9
334.265	64.85
334.478	15.7
334.691	21.85
334.903	-4.78
335.116	-0.68
335.329	77.14
335.541	52.56
335.754	62.8
335.966	21.85
336.179	54.61
336.392	-35.5
336.604	9.56
336.817	52.56
337.029	81.24
337.242	15.7
337.454	21.85
337.667	-15.02
337.88	52.56
338.092	-19.11
338.305	7.51
338.517	75.09
338.729	44.37
338.942	81.24
339.154	11.61
339.367	5.46
339.579	40.28
339.792	114
340.004	34.13
340.217	17.75
340.429	32.08
340.641	38.23
340.854	30.04
341.066	52.56
341.278	93.52
341.491	111.96
341.703	36.18
341.915	77.14
342.128	-6.83
342.34	34.13
342.552	58.71
342.764	83.28
342.977	64.85
343.189	71
343.401	-10.92
343.613	87.38
343.826	101.72
344.038	30.04
344.25	44.37
344.462	-10.92
344.674	62.8
344.886	36.18
345.099	48.47
345.311	77.14
345.523	64.85
345.735	1.37
345.947	50.52
346.159	60.76
346.371	-10.92
346.583	111.96
346.795	71
347.007	-4.78
347.219	77.14
347.431	-0.68
347.643	7.51
347.855	38.23
348.067	25.94
348.279	5.46
348.491	114
348.703	60.76
348.915	-49.83
349.127	91.48
349.339	83.28
349.551	-51.88
349.763	42.32
349.975	103.76
350.187	103.76
350.399	58.71
350.61	23.89
350.822	-0.68
351.034	54.61
351.246	71
351.458	83.28
351.669	40.28
351.881	73.04
352.093	99.67
352.305	83.28
352.517	13.65
352.728	66.9
352.94	81.24
353.152	25.94
353.363	-10.92
353.575	48.47
353.787	-10.92
353.999	79.19
354.21	109.91
354.422	44.37
354.633	99.67
354.845	79.19
355.057	11.61
355.268	54.61
355.48	66.9
355.692	58.71
355.903	11.61
356.115	44.37
356.326	68.95
356.538	85.33
356.749	124.24
356.961	38.23
357.172	60.76
357.384	-41.64
357.595	42.32
357.807	68.95
358.018	7.51
358.23	87.38
358.441	77.14
358.653	-25.26
358.864	7.51
359.075	-12.97
359.287	46.42
359.498	91.48
359.709	66.9
359.921	64.85
360.132	62.8
360.344	99.67
360.555	-33.45
360.766	75.09
360.977	-6.83
361.189	1.37
361.4	7.51
361.611	99.67
361.823	58.71
362.034	114
362.245	-8.87
362.456	-2.73
362.667	77.14
362.879	30.04
363.09	13.65
363.301	81.24
363.512	30.04
363.723	25.94
363.935	-15.02
364.146	58.71
364.357	66.9
364.568	148.82
364.779	44.37
364.99	44.37
365.201	79.19
365.412	105.81
365.623	-2.73
365.834	64.85
366.045	-35.5
366.256	56.66
366.467	-41.64
366.678	132.44
366.889	21.85
367.1	46.42
367.311	-0.68
367.522	52.56
367.733	71
367.944	52.56
368.155	5.46
368.366	93.52
368.577	128.34
368.788	32.08
368.999	52.56
369.209	66.9
369.42	44.37
369.631	19.8
369.842	23.89
370.053	83.28
370.264	52.56
370.474	7.51
370.685	52.56
370.896	34.13
371.107	21.85
371.317	87.38
371.528	5.46
371.739	13.65
371.95	9.56
372.16	75.09
372.371	-2.73
372.582	42.32
372.792	62.8
373.003	-2.73
373.214	25.94
373.424	32.08
373.635	71
373.846	17.75
374.056	68.95
374.267	-0.68
374.477	87.38
374.688	62.8
374.898	56.66
375.109	75.09
375.319	44.37
375.53	83.28
375.74	15.7
375.951	99.67
376.161	81.24
376.372	25.94
376.582	27.99
376.793	83.28
377.003	44.37
377.214	30.04
377.424	93.52
377.635	27.99
377.845	-37.55
378.055	27.99
378.266	32.08
378.476	68.95
378.686	73.04
378.897	50.52
379.107	13.65
379.317	105.81
379.528	109.91
379.738	56.66
379.948	85.33
380.158	118.1
380.369	60.76
380.579	114
380.789	23.89
380.999	99.67
381.21	46.42
381.42	105.81
381.63	83.28
381.84	-2.73
382.05	87.38
382.261	40.28
382.471	87.38
382.681	42.32
382.891	146.77
383.101	52.56
383.311	7.51
383.521	52.56
383.731	25.94
383.941	3.41
384.151	54.61
384.361	50.52
384.571	73.04
384.781	50.52
384.991	64.85
385.201	105.81
385.411	58.71
385.621	25.94
385.831	54.61
386.041	42.32
386.251	34.13
386.461	25.94
386.671	42.32
386.881	109.91
387.091	52.56
387.301	42.32
387.511	77.14
387.72	91.48
387.93	71
388.14	15.7
388.35	79.19
388.56	109.91
388.769	60.76
388.979	30.04
389.189	36.18
389.399	42.32
389.609	46.42
389.818	173.39
390.028	89.43
390.238	85.33
390.447	13.65
390.657	30.04
390.867	40.28
391.076	46.42
391.286	122.2
391.496	42.32
391.705	97.62
391.915	95.57
392.125	36.18
392.334	11.61
392.544	-0.68
392.753	81.24
392.963	-2.73
393.172	120.15
393.382	5.46
393.591	68.95
393.801	56.66
394.01	30.04
394.22	7.51
394.429	34.13
394.639	118.1
394.848	177.49
395.058	56.66
395.267	60.76
395.477	97.62
395.686	52.56
395.895	54.61
396.105	126.29
396.314	111.96
396.524	101.72
396.733	62.8
396.942	85.33
397.152	93.52
397.361	81.24
397.57	103.76
397.78	103.76
397.989	79.19
398.198	128.34
398.407	54.61
398.617	107.86
398.826	62.8
399.035	77.14
399.244	89.43
399.453	91.48
399.663	52.56
399.872	161.11
400.081	111.96
400.29	118.1
400.499	17.75
400.708	109.91
400.917	36.18
401.127	89.43
401.336	27.99
401.545	132.44
401.754	64.85
401.963	144.72
402.172	54.61
402.381	87.38
402.59	87.38
402.799	107.86
403.008	83.28
403.217	77.14
403.426	136.53
403.635	71
403.844	189.78
404.053	46.42
404.262	56.66
404.471	167.25
404.68	126.29
404.888	114
405.097	195.92
405.306	93.52
405.515	154.96
405.724	91.48
405.933	163.15
406.142	183.63
406.35	138.58
406.559	128.34
406.768	128.34
406.977	206.16
407.185	132.44
407.394	200.02
407.603	150.87
407.812	146.77
408.02	79.19
408.229	148.82
408.438	159.06
408.646	179.54
408.855	159.06
409.064	224.59
409.272	128.34
409.481	226.64
409.69	171.35
409.898	210.26
410.107	204.11
410.315	257.36
410.524	157.01
410.733	265.55
410.941	224.59
411.15	222.55
411.358	269.65
411.567	329.04
411.775	271.7
411.984	296.27
412.192	322.9
412.401	378.19
412.609	429.39
412.818	343.38
413.026	370
413.234	318.8
413.443	302.42
413.651	345.42
413.86	355.66
414.068	408.91
414.276	429.39
414.485	445.77
414.693	456.01
414.901	458.06
415.11	468.3
415.318	488.78
415.526	441.68
415.734	550.22
415.943	578.89
416.151	591.18
416.359	601.42
416.567	572.75
416.776	576.84
416.984	650.57
417.192	685.39
417.4	699.72
417.608	669
417.817	695.63
418.025	691.53
418.233	822.6
418.441	785.74
418.649	931.14
418.857	847.18
419.065	922.95
419.273	853.32
419.481	941.38
419.689	918.86
419.897	963.91
420.105	1011.01
420.313	1027.4
420.521	1086.79
420.729	1170.76
420.937	1152.32
421.145	1209.67
421.353	1269.06
421.561	1330.5
421.769	1332.54
421.977	1402.18
422.185	1426.75
422.393	1393.98
422.601	1467.71
422.809	1559.87
423.017	1527.1
423.224	1588.54
423.432	1598.78
423.64	1713.47
423.848	1834.3
424.056	1787.19
424.263	1893.69
424.471	1860.92
424.679	2080.05
424.887	2020.66
425.094	2098.49
425.302	2219.32
425.51	2123.06
425.718	2385.2
425.925	2215.22
426.133	2422.06
426.341	2508.08
426.548	2616.62
426.756	2581.81
426.964	2678.06
427.171	2766.12
427.379	2821.42
427.586	2954.54
427.794	3048.74
428.001	3179.81
428.209	3353.89
428.417	3308.83
428.624	3611.93
428.832	3374.37
429.039	3259.68
429.247	3476.77
429.454	3904.79
429.662	4181.27
429.869	3808.54
430.076	3968.28
430.284	3984.66
430.491	4162.84
430.699	4420.88
430.906	4490.51
431.114	4484.37
431.321	4615.44
431.528	4578.58
431.736	4844.81
431.943	5141.77
432.15	4990.22
432.358	5014.79
432.565	5356.8
432.772	5401.86
432.979	5774.59
433.187	5690.62
433.394	5817.6
433.601	6135.03
433.808	6315.25
434.016	6098.17
434.223	6526.19
434.43	6808.81
434.637	6769.9
434.844	7171.3
435.052	7363.81
435.259	7156.97
435.466	7341.29
435.673	7142.63
435.88	7658.72
436.087	8000.73
436.294	8074.46
436.501	7742.69
436.708	8072.41
436.915	8328.41
437.122	8727.76
437.329	8647.89
437.537	9059.53
437.743	9047.24
437.95	8912.08
438.157	9577.67
438.364	9903.29
438.571	9688.26
438.778	9829.57
438.985	10656.95
439.192	10364.09
439.399	10855.6
439.606	10407.09
439.813	10974.38
440.02	11515.05
440.227	11414.7
440.433	11435.17
440.64	11687.07
440.847	11257
441.054	11934.88
441.261	12809.36
441.467	12594.33
441.674	12895.38
441.881	13323.4
442.088	13026.45
442.294	13196.43
442.501	13552.77
442.708	13835.39
442.914	14224.51
443.121	14996.59
443.328	14365.82
443.534	15506.54
443.741	15207.53
443.948	14894.19
444.154	16252
444.361	15981.67
444.568	16133.22
444.774	16340.06
444.981	16118.88
445.187	16772.18
445.394	17445.96
445.6	17198.16
445.807	18906.16
446.013	18265.15
446.22	18447.42
446.426	19121.2
446.633	19528.75
446.839	20249.63
447.046	19168.3
447.252	20356.13
447.459	19921.96
447.665	20392.99
447.871	20900.89
448.078	22055.94
448.284	20872.21
448.491	21615.63
448.697	22709.24
448.903	22852.6
449.11	23131.12
449.316	22428.67
449.522	22809.59
449.728	23430.13
449.935	23784.43
450.141	23626.73
450.347	24110.05
450.553	23454.7
450.76	23952.36
450.966	24724.44
451.172	24447.97
451.378	24724.44
451.584	24421.34
451.791	24953.82
451.997	24822.75
452.203	25301.97
452.409	25555.92
452.615	25064.41
452.821	24386.53
453.027	24251.36
453.233	25637.84
453.44	24155.11
453.646	24703.96
453.852	25041.88
454.058	25318.35
454.264	24429.54
454.47	24935.38
454.676	24771.55
454.882	25281.49
455.088	23206.9
455.294	23411.7
455.5	23770.09
455.705	23983.08
455.911	23331.83
456.117	22610.94
456.323	22320.13
456.529	20945.94
456.735	21726.22
456.941	21457.93
457.147	21269.52
457.352	20689.95
457.558	20280.35
457.764	20296.74
457.97	19917.86
458.176	19776.55
458.381	19844.13
458.587	18627.64
458.793	18754.62
458.999	17630.28
459.204	18873.4
459.41	18549.82
459.616	16976.98
459.821	17151.06
460.027	17095.76
460.233	16628.82
460.438	15909.99
460.644	16208.99
460.85	15357.03
461.055	15305.84
461.261	15098.99
461.466	13962.37
461.672	13520.01
461.878	14427.26
462.083	13493.38
462.289	13331.59
462.494	13139.08
462.7	12553.37
462.905	12037.28
463.111	12733.59
463.316	12645.52
463.522	12350.62
463.727	12584.09
463.932	12504.21
464.138	12477.59
464.343	12270.75
464.549	11902.11
464.754	12440.73
464.959	12258.46
465.165	12006.56
465.37	11648.16
465.575	11375.78
465.781	11672.74
465.986	11824.29
466.191	11476.13
466.397	11308.2
466.602	10790.06
466.807	11158.7
467.012	11091.12
467.218	11068.59
467.423	10824.88
467.628	10910.89
467.833	11457.7
468.038	11207.85
468.244	10679.47
468.449	11250.86
468.654	10583.22
468.859	10798.26
469.064	10452.15
469.269	10104
469.474	10460.34
469.679	10499.25
469.885	10241.21
470.09	10257.59
470.295	10251.45
470.5	9989.31
470.705	9958.59
470.91	9979.07
471.115	9913.53
471.32	9938.11
471.525	9913.53
471.73	9665.73
471.935	9667.78
472.139	9227.46
472.344	9442.5
472.549	9342.15
472.754	9094.35
472.959	9157.83
473.164	8719.57
473.369	8891.6
473.574	9159.88
473.778	8832.21
473.983	8985.8
474.188	8746.19
474.393	8502.48
474.598	8611.03
474.802	8402.13
475.007	8256.73
475.212	8324.31
475.417	8027.35
475.621	8115.42
475.826	8070.36
476.031	8287.45
476.235	7677.15
476.44	7761.12
476.645	7840.99
476.849	7711.97
477.054	7650.53
477.259	7447.78
477.463	7589.09
477.668	7494.88
477.872	7490.79
478.077	7281.89
478.282	7085.29
478.486	7079.15
478.691	7185.64
478.895	7216.36
479.1	6898.92
479.304	6941.93
479.509	6651.12
479.713	7005.42
479.918	6702.32
480.122	6577.39
480.326	6827.25
480.531	6769.9
480.735	6651.12
480.94	6849.77
481.144	6898.92
481.348	6599.92
481.553	6585.58
481.757	6573.3
481.961	6544.63
482.166	6663.41
482.37	6577.39
482.574	6335.73
482.778	6466.8
482.983	6653.17
483.187	6538.48
483.391	6604.02
483.595	6477.04
483.8	6335.73
484.004	6626.54
484.208	6526.19
484.412	6397.17
484.616	6343.92
484.821	6700.27
485.025	6356.21
485.229	6532.34
485.433	6444.27
485.637	6493.43
485.841	6460.66
486.045	6382.84
486.249	6409.46
486.453	6503.67
486.657	6622.45
486.861	6456.56
487.065	6225.14
487.269	6403.32
487.473	6327.54
487.677	6477.04
487.881	6583.54
488.085	6401.27
488.289	6626.54
488.493	6563.06
488.697	6481.14
488.901	6710.51
489.105	6391.03
489.309	6655.22
489.512	6399.22
489.716	6374.64
489.92	6493.43
490.124	6767.85
490.328	6634.74
490.531	6513.91
490.735	6599.92
490.939	6718.7
491.143	6563.06
491.346	6698.22
491.55	6864.11
491.754	6735.09
491.958	6737.13
492.161	6757.61
492.365	6941.93
492.569	6718.7
492.772	6866.16
492.976	6929.64
493.18	6874.35
493.383	6935.79
493.587	7109.86
493.79	7027.95
493.994	7001.32
494.197	7130.34
494.401	7116.01
494.605	7281.89
494.808	7324.9
495.012	7240.93
495.215	7242.98
495.419	7599.33
495.622	7308.52
495.825	7572.71
496.029	7503.07
496.232	7750.88
496.436	7783.65
496.639	7830.75
496.843	7740.64
497.046	7931.1
497.249	7986.4
497.453	8051.93
497.656	8166.62
497.859	8101.08
498.063	8172.76
498.266	8510.68
498.469	8232.15
498.673	8367.32
498.876	8680.66
499.079	8522.96
499.282	8457.43
499.485	9016.52
499.689	8864.97
499.892	8987.85
500.095	9063.63
500.298	9209.03
500.501	9252.04
500.705	9454.79
500.908	9454.79
501.111	9460.93
501.314	9710.79
501.517	9839.81
501.72	10175.67
501.923	9915.58
502.126	10185.91
502.329	10278.07
502.532	10147
502.735	10316.98
502.938	10476.73
503.141	10620.08
503.344	10669.23
503.547	10681.52
503.75	10814.64
503.953	11396.26
504.156	11183.27
504.359	11281.58
504.562	11463.85
504.765	11580.58
504.968	11658.4
505.17	11725.99
505.373	11947.17
505.576	12018.85
505.779	12332.19
505.982	12207.26
506.185	12336.28
506.387	12364.95
506.59	12649.62
506.793	12854.42
506.996	12889.23
507.198	13264.01
507.401	13337.74
507.604	13427.85
507.807	13477
508.009	13694.08
508.212	13776
508.415	14044.29
508.617	14003.33
508.82	13991.04
509.022	14066.81
509.225	14511.22
509.428	14431.35
509.63	14517.37
509.833	14787.7
510.035	15199.34
510.238	15123.57
510.44	15301.74
510.643	15621.22
510.845	15635.56
511.048	15516.78
511.25	15701.09
511.453	15881.31
511.655	16088.16
511.858	16321.63
512.06	16489.56
512.262	16725.08
512.465	16473.18
512.667	16780.37
512.87	16737.37
513.072	17032.27
513.274	17501.26
513.477	17425.48
513.679	17581.13
513.881	17759.3
514.084	18017.35
514.286	18195.52
514.488	18050.11
514.69	18744.38
514.893	18664.5
515.095	18498.62
515.297	18746.42
515.499	18910.26
515.701	19063.86
515.904	19573.8
516.106	19362.86
516.308	19772.46
516.51	20220.96
516.712	20057.12
516.914	20053.03
517.116	20116.51
517.318	20493.34
517.52	20677.66
517.722	20384.8
517.925	20841.5
518.127	21279.76
518.329	21378.06
518.531	21177.36
518.733	21679.11
518.935	22000.65
519.136	21906.44
519.338	22189.06
519.54	22172.67
519.742	22610.94
519.944	22709.24
520.146	23131.12
520.348	22979.57
520.55	23211
520.752	23167.99
520.954	23809
521.155	23579.63
521.357	23837.67
521.559	23657.45
521.761	24224.74
521.963	24038.37
522.164	24454.11
522.366	24472.54
522.568	25025.5
522.77	24759.26
522.971	25234.39
523.173	24818.65
523.375	25381.84
523.576	25371.6
523.778	25289.68
523.98	25623.5
524.181	25818.06
524.383	25783.24
524.584	26106.82
524.786	26033.1
524.988	26235.85
525.189	26291.14
525.391	26565.57
525.592	26405.83
525.794	26995.64
525.995	26764.22
526.197	27028.41
526.398	27282.36
526.6	27132.86
526.801	27300.79
527.003	27595.7
527.204	27380.66
527.406	27569.07
527.607	27653.04
527.808	28095.4
528.01	27429.81
528.211	27790.25
528.412	28273.57
528.614	28224.42
528.815	28109.74
529.016	28371.88
529.218	27855.79
529.419	28429.22
529.62	28482.47
529.822	28072.87
530.023	28306.34
530.224	28543.91
530.425	28599.2
530.626	28451.75
530.828	28269.48
531.029	28908.44
531.23	28693.41
531.431	28779.42
531.632	29033.37
531.833	28873.63
532.035	28980.12
532.236	28842.91
532.437	28857.24
532.638	28525.47
532.839	29016.99
533.04	29543.31
533.241	29045.66
533.442	29213.59
533.643	28951.45
533.844	29180.82
534.045	29363.09
534.246	29100.95
534.447	29139.86
534.648	28937.12
534.849	29135.77
535.05	28793.76
535.251	29344.66
535.451	29574.03
535.652	29236.12
535.853	29197.21
536.054	29266.84
536.255	29449.11
536.456	28744.61
536.657	29653.9
536.857	29328.28
537.058	29051.8
537.259	29127.58
537.46	29438.87
537.66	29205.4
537.861	29528.98
538.062	29402
538.263	29412.24
538.463	29328.28
538.664	29377.43
538.865	29244.31
539.065	29211.54
539.266	29072.28
539.466	29662.1
539.667	28969.88
539.868	29330.33
540.068	29035.42
540.269	29197.21
540.469	29309.85
540.67	29354.9
540.87	29291.41
541.071	29195.16
541.271	29082.52
541.472	29117.34
541.672	29047.71
541.873	29295.51
542.073	28951.45
542.274	29434.77
542.474	29178.78
542.675	29074.33
542.875	29387.67
543.075	29092.76
543.276	28976.03
543.476	29617.04
543.676	28838.81
543.877	29404.05
544.077	29107.1
544.277	28847.01
544.478	28689.31
544.678	29447.06
544.878	29049.75
545.078	29281.17
545.279	28787.61
545.479	28947.36
545.679	29098.91
545.879	28992.41
546.079	28904.35
546.28	29254.55
546.48	28713.89
546.68	28842.91
546.88	29305.75
547.08	29156.25
547.28	29166.49
547.48	28935.07
547.68	28865.44
547.88	29045.66
548.081	29395.86
548.281	29209.5
548.481	28824.48
548.681	29311.89
548.881	28971.93
549.081	28791.71
549.28	28885.92
549.48	28918.68
549.68	28748.7
549.88	29332.37
550.08	28697.5
550.28	29229.98
550.48	28935.07
550.68	29088.67
550.88	28748.7
551.08	28650.4
551.279	28885.92
551.479	28511.14
551.679	29168.54
551.879	28894.11
552.079	29109.15
552.278	29004.7
552.478	28650.4
552.678	28783.52
552.878	28904.35
553.077	28607.39
553.277	28746.65
553.477	28867.48
553.676	28799.9
553.876	28822.43
554.076	28451.75
554.275	28752.8
554.475	28173.22
554.674	28656.54
554.874	28404.64
555.074	28572.58
555.273	28693.41
555.473	28697.5
555.672	28488.61
555.872	28470.18
556.071	28840.86
556.271	28502.95
556.47	28447.65
556.67	28271.53
556.869	28451.75
557.068	28421.03
557.268	28160.94
557.467	28296.1
557.667	28158.89
557.866	28023.72
558.065	28193.7
558.265	27995.05
558.464	27949.99
558.663	28416.93
558.863	27806.64
559.062	28459.94
559.261	27886.51
559.461	28412.84
559.66	27605.94
559.859	27970.47
560.058	27880.36
560.258	27569.07
560.457	27438
560.656	27618.22
560.855	27513.78
561.054	28023.72
561.253	27540.4
561.453	27737.01
561.652	27962.28
561.851	27624.37
562.05	27448.24
562.249	27186.1
562.448	27757.49
562.647	27364.28
562.846	27349.94
563.045	27241.4
563.244	27001.79
563.443	27802.54
563.642	26829.76
563.841	27055.03
564.04	27120.57
564.239	27505.59
564.438	26985.4
564.637	27065.27
564.836	27345.84
565.035	26674.11
565.234	26905.53
565.432	26737.6
565.631	26463.17
565.83	26874.81
566.029	26592.19
566.228	26653.63
566.427	26252.23
566.625	26362.82
566.824	26399.68
567.023	26530.75
567.222	25910.22
567.42	26393.54
567.619	26328
567.818	26317.76
568.016	26215.37
568.215	26239.94
568.414	25897.93
568.612	26133.45
568.811	25840.59
569.01	26127.3
569.208	25416.66
569.407	25992.14
569.605	25578.45
569.804	25879.5
570.002	25517.01
570.201	25658.32
570.4	25396.18
570.598	25877.45
570.797	25283.54
570.995	25779.15
571.193	25273.3
571.392	25517.01
571.59	25068.5
571.789	25195.48
571.987	25123.8
572.186	25158.61
572.384	25197.52
572.582	25289.68
572.781	25109.46
572.979	24812.51
573.177	24847.32
573.376	24773.6
573.574	24497.12
573.772	24781.79
573.971	24652.77
574.169	24503.26
574.367	24374.24
574.565	24576.99
574.763	24185.83
574.962	24093.67
575.16	24181.73
575.358	24437.73
575.556	24081.38
575.754	24558.56
575.952	24024.04
576.151	24343.52
576.349	23872.49
576.547	23913.45
576.745	24101.86
576.943	23911.4
577.141	23831.53
577.339	23598.06
577.537	23561.2
577.735	23516.14
577.933	23333.87
578.131	23292.91
578.329	23450.61
578.527	23075.83
578.725	23184.37
578.923	23290.87
579.121	23251.95
579.319	23391.22
579.516	23378.93
579.714	22897.66
579.912	23098.36
580.11	23118.84
580.308	23159.8
580.506	22940.66
580.704	22490.11
580.901	23049.21
581.099	23045.11
581.297	22617.08
581.495	22551.55
581.692	22735.87
581.89	22369.28
582.088	22471.68
582.285	22299.65
582.483	22656
582.681	22359.04
582.878	22379.52
583.076	22072.32
583.274	22316.03
583.471	21978.12
583.669	22033.41
583.866	21990.41
584.064	22330.37
584.262	21613.58
584.459	22068.23
584.657	21660.68
584.854	21955.59
585.052	21177.36
585.249	21689.35
585.447	21832.71
585.644	21406.73
585.841	21490.7
586.039	21693.45
586.236	21154.83
586.434	21445.65
586.631	21314.58
586.828	21296.14
587.026	21177.36
587.223	20868.12
587.42	21066.77
587.618	21234.71
587.815	21003.28
588.012	20622.36
588.21	20571.16
588.407	20775.96
588.604	20937.75
588.801	20425.76
588.999	20573.21
589.196	20632.6
589.393	20620.31
589.59	20532.25
589.787	20188.19
589.984	20319.26
590.182	20311.07
590.379	20675.61
590.576	20165.67
590.773	20399.13
590.97	19928.1
591.167	19909.67
591.364	19854.37
591.561	20186.15
591.758	19835.94
591.955	20042.79
592.152	19729.45
592.349	19702.82
592.546	19696.68
592.743	19903.53
592.94	19170.35
593.137	19330.09
593.334	19506.22
593.531	19371.05
593.727	19541.04
593.924	19457.07
594.121	19350.57
594.318	19315.76
594.515	19043.38
594.712	19426.35
594.908	19020.85
595.105	19170.35
595.302	18705.46
595.499	18963.51
595.696	18676.79
595.892	18652.22
596.089	18793.53
596.286	18650.17
596.482	18715.7
596.679	18703.42
596.876	18426.94
597.072	18586.68
597.269	18603.07
597.466	18259.01
597.662	18279.49
597.859	18437.18
598.055	18220.1
598.252	18072.64
598.448	18598.97
598.645	18060.35
598.841	17914.95
599.038	18062.4
599.234	18080.83
599.431	18052.16
599.627	17888.32
599.824	17951.81
600.02	17624.14
600.217	17742.92
600.413	17620.04
600.609	17607.75
600.806	17427.53
601.002	17609.8
601.198	17310.8
601.395	17316.94
601.591	17452.11
601.787	17120.34
601.984	16997.46
602.18	17321.04
602.376	17171.54
602.572	17062.99
602.769	16821.33
602.965	16772.18
603.161	16942.16
603.357	16772.18
603.553	17011.79
603.75	16800.85
603.946	16471.13
604.142	16630.87
604.338	16467.03
604.534	16733.27
604.73	16551
604.926	16483.42
605.122	16571.48
605.318	16344.16
605.514	16163.93
605.71	16094.3
605.906	16266.33
606.102	16172.13
606.298	16090.21
606.494	16286.81
606.69	16075.87
606.886	16127.07
607.082	15996
607.278	16120.93
607.474	15821.92
607.67	16190.56
607.866	15707.24
608.062	15905.89
608.257	15705.19
608.453	15780.96
608.649	15699.05
608.845	15676.52
609.041	15731.81
609.236	15883.36
609.432	15510.63
609.628	15590.5
609.824	15801.44
610.019	15656.04
610.215	15500.39
610.411	15449.19
610.606	15326.32
610.802	15311.98
610.998	15277.16
611.193	15576.17
611.389	15338.6
611.584	15381.61
611.78	15295.6
611.976	15338.6
612.171	15307.88
612.367	15287.4
612.562	15047.79
612.758	14890.1
612.953	15004.78
613.149	15174.77
613.344	14902.39
613.539	15223.92
613.735	14855.28
613.93	15125.61
614.126	14931.06
614.321	14869.62
614.517	14949.49
614.712	14865.52
614.907	14871.67
615.103	15101.04
615.298	14728.31
615.493	15236.2
615.688	14498.94
615.884	14740.6
616.079	14812.28
616.274	14713.97
616.47	14500.98
616.665	14711.92
616.86	14664.82
617.055	14613.62
617.25	14597.24
617.445	14636.15
617.641	14310.52
617.836	14519.42
618.031	14288
618.226	14363.77
618.421	14367.87
618.616	14277.76
618.811	14158.97
619.006	14343.29
619.201	13982.85
619.396	14152.83
619.591	13866.11
619.786	14124.16
619.981	13986.94
620.176	13757.57
620.371	13880.45
620.566	13913.22
620.761	13782.15
620.956	13698.18
621.151	13515.91
621.346	13646.98
621.541	13395.08
621.735	13649.03
621.93	13364.36
622.125	13411.46
622.32	13161.61
622.515	13331.59
622.709	13071.5
622.904	12999.82
623.099	12946.58
623.294	12924.05
623.488	12504.21
623.683	12952.72
623.878	12491.93
624.072	12657.81
624.267	12559.51
624.462	12317.85
624.656	12608.66
624.851	12690.58
625.046	12266.65
625.24	12252.31
625.435	12315.8
625.629	12068
625.824	12108.96
626.018	12166.3
626.213	11738.27
626.407	12303.51
626.602	11938.98
626.796	11764.9
626.991	11871.39
627.185	11725.99
627.38	11656.36
627.574	11472.04
627.768	11482.28
627.963	11426.98
628.157	11363.5
628.352	11355.3
628.546	11265.19
628.74	11222.19
628.935	10958
629.129	11316.39
629.323	10894.51
629.517	11015.34
629.712	10865.84
629.906	10927.28
630.1	10720.43
630.294	10888.37
630.489	10788.02
630.683	10605.75
630.877	10427.57
631.071	10368.18
631.265	10443.96
631.459	10480.82
631.653	10394.81
631.848	10376.37
632.042	10161.34
632.236	10151.1
632.43	10060.99
632.624	10206.39
632.818	9989.31
633.012	9919.68
633.206	9901.25
633.4	10071.23
633.594	9948.35
633.788	9876.67
633.982	9835.71
634.176	9759.94
634.369	9864.38
634.563	9626.82
634.757	9823.42
634.951	9514.18
635.145	9469.12
635.339	9497.8
635.533	9379.01
635.726	9452.74
635.92	9239.75
636.114	9249.99
636.308	9266.38
636.501	9012.43
636.695	9243.85
636.889	9143.5
637.083	9168.07
637.276	8928.46
637.47	9034.96
637.664	8891.6
637.857	8842.45
638.051	8842.45
638.244	8596.69
638.438	8713.42
638.632	8680.66
638.825	8584.4
639.019	8660.18
639.212	8494.29
639.406	8584.4
639.599	8545.49
639.793	8510.68
639.986	8318.17
640.18	8291.54
640.373	8307.93
640.567	8330.45
640.76	8164.57
640.954	8389.85
641.147	8070.36
641.34	8049.88
641.534	7963.87
641.727	8211.67
641.92	7990.49
642.114	7927
642.307	7838.94
642.5	7818.46
642.694	7771.36
642.887	7693.54
643.08	8006.88
643.273	7582.95
643.467	7644.38
643.66	7498.98
643.853	7458.02
644.046	7394.53
644.239	7503.07
644.432	7535.84
644.626	7384.29
644.819	7279.85
645.012	7308.52
645.205	7161.06
645.398	7242.98
645.591	7156.97
645.784	7216.36
645.977	7161.06
646.17	7181.54
646.363	7001.32
646.556	6978.79
646.749	7034.09
646.942	7064.81
647.135	7040.23
647.328	6757.61
647.521	6819.05
647.714	6796.53
647.907	6837.48
648.099	6690.03
648.292	6735.09
648.485	6786.29
648.678	6671.6
648.871	6567.15
649.064	6685.94
649.256	6659.31
649.449	6462.71
649.642	6501.62
649.835	6556.91
650.027	6411.51
650.22	6354.16
650.413	6264.05
650.605	6335.73
650.798	6321.4
650.991	6149.37
651.183	6188.28
651.376	6161.66
651.568	6151.42
651.761	6044.92
651.954	6065.4
652.146	6079.74
652.339	6104.31
652.531	5969.15
652.724	5938.43
652.916	5774.59
653.109	5807.36
653.301	5952.76
653.494	5924.09
653.686	5778.69
653.879	5780.73
654.071	5868.8
654.263	5739.77
654.456	5870.84
654.648	5770.49
654.84	5588.22
655.033	5627.14
655.225	5545.22
655.417	5446.91
655.61	5631.23
655.802	5633.28
655.994	5401.86
656.186	5444.87
656.379	5684.48
656.571	5405.95
656.763	5459.2
656.955	5192.97
657.148	5453.06
657.34	5321.99
657.532	5143.81
657.724	5207.3
657.916	5197.06
658.108	5276.93
658.3	5131.53
658.492	5125.38
658.684	5195.01
658.876	5104.9
659.068	5113.1
659.26	4920.59
659.452	5053.7
659.644	5031.18
659.836	5106.95
660.028	5096.71
660.22	4850.96
660.412	4982.03
660.604	4814.09
660.796	4918.54
660.988	4701.45
661.18	4664.59
661.372	4844.81
661.563	4642.06
661.755	4779.28
661.947	4642.06
662.139	4607.25
662.331	4766.99
662.522	4734.22
662.714	4615.44
662.906	4629.77
663.097	4594.96
663.289	4467.99
663.481	4463.89
663.673	4500.75
663.864	4490.51
664.056	4369.68
664.247	4482.32
664.439	4361.49
664.631	4494.61
664.822	4435.22
665.014	4396.31
665.205	4271.38
665.397	4355.35
665.588	4218.13
665.78	4242.71
665.971	4218.13
666.163	4408.59
666.354	4302.1
666.546	4261.14
666.737	4160.79
666.929	4250.9
667.12	4228.37
667.311	4095.25
667.503	4130.07
667.694	4134.17
667.885	4156.69
668.077	4001.05
668.268	4050.2
668.459	4007.19
668.651	4007.19
668.842	4054.3
669.033	4093.21
669.224	3845.4
669.416	4021.53
669.607	3859.74
669.798	3894.55
669.989	3943.71
670.18	3923.23
670.371	3890.46
670.563	4029.72
670.754	4019.48
670.945	3786.01
671.136	3810.59
671.327	3900.7
671.518	3792.16
671.709	3769.63
671.9	3718.43
672.091	3652.89
672.282	3749.15
672.473	3648.8
672.664	3644.7
672.855	3636.51
673.046	3616.03
673.237	3728.67
673.428	3722.52
673.619	3661.09
673.809	3556.64
674	3722.52
674.191	3681.57
674.382	3622.17
674.573	3636.51
674.764	3558.69
674.954	3603.74
675.145	3540.26
675.336	3589.41
675.527	3552.54
675.717	3519.78
675.908	3478.82
676.099	3540.26
676.289	3384.61
676.48	3423.52
676.671	3417.38
676.861	3446.05
677.052	3556.64
677.243	3464.48
677.433	3310.88
677.624	3400.99
677.814	3474.72
678.005	3460.38
678.195	3583.26
678.386	3454.24
678.576	3374.37
678.767	3411.23
678.957	3419.43
679.148	3491.1
679.338	3331.36
679.529	3261.73
679.719	3343.65
679.909	3306.79
680.1	3411.23
680.29	3398.95
680.481	3210.53
680.671	3210.53
680.861	3194.15
681.052	3278.12
681.242	3292.45
681.432	3351.84
681.622	3261.73
681.813	3329.31
682.003	3237.16
682.193	3257.64
682.383	3400.99
682.573	3288.36
682.764	3249.44
682.954	3304.74
683.144	3300.64
683.334	3267.88
683.524	3261.73
683.714	3179.81
683.904	3271.97
684.094	3130.66
684.284	3093.8
684.474	3142.95
684.664	3239.2
684.854	3208.48
685.044	3165.48
685.234	3093.8
685.424	3091.75
685.614	3142.95
685.804	3040.55
685.994	3175.72
686.184	3140.9
686.374	3101.99
686.564	3173.67
686.753	3087.65
686.943	2956.58
687.133	3065.13
687.323	2868.52
687.513	2983.21
687.702	2792.75
687.892	2975.02
688.082	2977.06
688.272	2962.73
688.461	2991.4
688.651	2938.15
688.841	2878.76
689.03	2985.26
689.22	2903.34
689.41	2946.34
689.599	2811.18
689.789	2936.1
689.979	3028.26
690.168	2688.3
690.358	2837.8
690.547	2817.32
690.737	2811.18
690.926	2833.71
691.116	2725.16
691.305	2671.92
691.495	2620.72
691.684	2637.1
691.874	2782.51
692.063	2686.25
692.252	2716.97
692.442	2653.48
692.631	2633.01
692.82	2544.94
693.01	2710.83
693.199	2594.09
693.388	2596.14
693.578	2565.42
693.767	2633.01
693.956	2454.83
694.146	2489.65
694.335	2483.5
694.524	2565.42
694.713	2641.2
694.902	2403.63
695.092	2567.47
695.281	2618.67
695.47	2319.67
695.659	2352.43
695.848	2436.4
696.037	2358.58
696.226	2479.41
696.415	2465.07
696.604	2407.73
696.793	2395.44
696.982	2426.16
697.171	2501.94
697.36	2395.44
697.549	2415.92
697.738	2374.96
697.927	2436.4
698.116	2477.36
698.305	2362.67
698.494	2344.24
698.683	2387.25
698.872	2379.06
699.061	2262.32
699.25	2270.51
699.438	2405.68
699.627	2471.22
699.816	2309.43
700.005	2329.91
700.193	2377.01
700.382	2290.99
700.571	2327.86
700.76	2331.95
700.948	2403.63
701.137	2331.95
701.326	2465.07
701.514	2286.9
701.703	2284.85
701.892	2241.84
702.08	2325.81
702.269	2331.95
702.457	2323.76
702.646	2299.19
702.834	2290.99
703.023	2278.71
703.212	2288.95
703.4	2305.33
703.589	2204.98
703.777	2290.99
703.965	2268.47
704.154	2436.4
704.342	2204.98
704.531	2299.19
704.719	2305.33
704.907	2393.39
705.096	2198.84
705.284	2194.74
705.472	2233.65
705.661	2231.6
705.849	2434.35
706.037	2323.76
706.226	2272.56
706.414	2350.39
706.602	2358.58
706.79	2280.75
706.979	2301.23
707.167	2362.67
707.355	2329.91
707.543	2256.18
707.731	2276.66
707.919	2307.38
708.107	2252.08
708.296	2247.99
708.484	2415.92
708.672	2364.72
708.86	2354.48
709.048	2313.52
709.236	2329.91
709.424	2288.95
709.612	2237.75
709.8	2336.05
709.988	2278.71
710.176	2239.8
710.364	2360.63
710.551	2309.43
710.739	2315.57
710.927	2231.6
711.115	2274.61
711.303	2360.63
711.491	2286.9
711.679	2379.06
711.866	2362.67
712.054	2338.1
712.242	2342.19
712.43	2366.77
712.617	2303.28
712.805	2393.39
712.993	2366.77
713.181	2192.69
713.368	2331.95
713.556	2424.11
713.744	2366.77
713.931	2379.06
714.119	2379.06
714.306	2391.34
714.494	2288.95
714.682	2245.94
714.869	2307.38
715.057	2465.07
715.244	2407.73
715.432	2460.98
715.619	2370.87
715.807	2282.8
715.994	2377.01
716.182	2434.35
716.369	2342.19
716.556	2393.39
716.744	2295.09
716.931	2420.02
717.119	2405.68
717.306	2565.42
717.493	2370.87
717.681	2440.5
717.868	2413.87
718.055	2358.58
718.242	2444.59
718.43	2372.91
718.617	2387.25
718.804	2438.45
718.991	2319.67
719.179	2293.04
719.366	2426.16
719.553	2325.81
719.74	2450.74
719.927	2329.91
720.114	2442.54
720.301	2297.14
720.488	2317.62
720.676	2383.15
720.863	2401.58
721.05	2448.69
721.237	2411.82
721.424	2364.72
721.611	2506.03
721.798	2327.86
721.985	2393.39
722.172	2352.43
722.358	2397.49
722.545	2411.82
722.732	2467.12
722.919	2360.63
723.106	2360.63
723.293	2354.48
723.48	2467.12
723.667	2442.54
723.853	2387.25
724.04	2467.12
724.227	2450.74
724.414	2381.1
724.6	2315.57
724.787	2530.61
724.974	2354.48
725.161	2469.17
725.347	2350.39
725.534	2366.77
725.72	2506.03
725.907	2366.77
726.094	2444.59
726.28	2458.93
726.467	2327.86
726.653	2391.34
726.84	2516.27
727.027	2485.55
727.213	2385.2
727.4	2432.3
727.586	2448.69
727.773	2389.3
727.959	2399.54
728.145	2475.31
728.332	2450.74
728.518	2559.28
728.705	2471.22
728.891	2417.97
729.077	2444.59
729.264	2239.8
729.45	2409.78
729.636	2479.41
729.823	2438.45
730.009	2399.54
730.195	2436.4
730.382	2499.89
730.568	2465.07
730.754	2518.32
730.94	2297.14
731.126	2405.68
731.313	2434.35
731.499	2379.06
731.685	2424.11
731.871	2262.32
732.057	2422.06
732.243	2530.61
732.429	2407.73
732.615	2417.97
732.801	2409.78
732.987	2475.31
733.173	2364.72
733.359	2344.24
733.545	2489.65
733.731	2436.4
733.917	2477.36
734.103	2399.54
734.289	2454.83
734.475	2366.77
734.661	2352.43
734.847	2325.81
735.033	2479.41
735.219	2491.7
735.404	2430.26
735.59	2329.91
735.776	2467.12
735.962	2372.91
736.148	2434.35
736.333	2321.71
736.519	2266.42
736.705	2415.92
736.89	2405.68
737.076	2356.53
737.262	2399.54
737.447	2409.78
737.633	2311.47
737.819	2420.02
738.004	2430.26
738.19	2317.62
738.375	2258.23
738.561	2460.98
738.747	2278.71
738.932	2225.46
739.118	2278.71
739.303	2377.01
739.489	2424.11
739.674	2374.96
739.859	2327.86
740.045	2243.89
740.23	2370.87
740.416	2352.43
740.601	2293.04
740.786	2334
740.972	2325.81
741.157	2282.8
741.342	2204.98
741.528	2290.99
741.713	2276.66
741.898	2139.44
742.084	2397.49
742.269	2188.6
742.454	2272.56
742.639	2168.12
742.824	2143.54
743.01	2170.16
743.195	2133.3
743.38	2211.12
743.565	2102.58
743.75	2229.56
743.935	2196.79
744.12	2254.13
744.305	2035
744.49	2170.16
744.675	2217.27
744.86	2176.31
745.045	2018.61
745.23	2080.05
745.415	1981.75
745.6	2168.12
745.785	2006.33
745.97	2098.49
746.155	2002.23
746.34	2104.63
746.525	2045.24
746.71	2157.88
746.895	1887.54
747.079	2059.57
747.264	1996.09
747.449	1881.4
747.634	1912.12
747.819	1926.46
748.003	1916.22
748.188	1985.85
748.373	1922.36
748.557	1895.74
748.742	1953.08
748.927	1922.36
749.111	1924.41
749.296	1858.87
749.481	1832.25
749.665	1867.06
749.85	1754.43
750.034	1830.2
750.219	1850.68
750.404	1822.01
750.588	1860.92
750.773	1733.95
750.957	1635.64
751.141	1731.9
751.326	1774.91
751.51	1793.34
751.695	1719.61
751.879	1754.43
752.064	1781.05
752.248	1721.66
752.432	1676.6
752.617	1729.85
752.801	1637.69
752.985	1576.25
753.17	1703.23
753.354	1502.53
753.538	1641.79
753.722	1539.39
753.907	1574.21
754.091	1490.24
754.275	1621.31
754.459	1486.14
754.643	1584.45
754.828	1500.48
755.012	1467.71
755.196	1445.18
755.38	1430.85
755.564	1531.2
755.748	1400.13
755.932	1525.05
756.116	1477.95
756.3	1418.56
756.484	1449.28
756.668	1398.08
756.852	1426.75
757.036	1475.9
757.22	1404.22
757.404	1412.42
757.588	1316.16
757.772	1215.81
757.956	1314.11
758.14	1322.31
758.323	1232.19
758.507	1314.11
758.691	1418.56
758.875	1279.3
759.059	1299.78
759.242	1236.29
759.426	1232.19
759.61	1166.66
759.794	1285.44
759.977	1267.01
760.161	1334.59
760.345	1269.06
760.528	1207.62
760.712	1312.07
760.895	1271.11
761.079	1144.13
761.263	1115.46
761.446	1209.67
761.63	1258.82
761.813	1121.6
761.997	1209.67
762.18	1185.09
762.364	1164.61
762.547	1119.56
762.731	1064.26
762.914	1232.19
763.098	1154.37
763.281	1142.08
763.464	1142.08
763.648	1172.8
763.831	1021.25
764.015	1135.94
764.198	1084.74
764.381	1109.32
764.564	1025.35
764.748	1162.56
764.931	1133.89
765.114	1103.17
765.297	1070.4
765.481	1023.3
765.664	1142.08
765.847	1013.06
766.03	1109.32
766.213	1049.93
766.397	1111.36
766.58	982.34
766.763	1031.49
766.946	980.29
767.129	998.73
767.312	986.44
767.495	1033.54
767.678	1008.97
767.861	1094.98
768.044	992.58
768.227	972.1
768.41	1013.06
768.593	1023.3
768.776	841.03
768.959	976.2
769.142	1025.35
769.324	857.42
769.507	990.53
769.69	998.73
769.873	1027.4
770.056	1033.54
770.239	920.9
770.421	863.56
770.604	982.34
770.787	943.43
770.97	890.18
771.152	904.52
771.335	910.66
771.518	830.79
771.7	920.9
771.883	838.98
772.066	861.51
772.248	863.56
772.431	984.39
772.613	906.57
772.796	900.42
772.978	853.32
773.161	843.08
773.343	836.94
773.526	781.64
773.708	777.55
773.891	869.7
774.073	867.66
774.256	892.23
774.438	802.12
774.621	777.55
774.803	843.08
774.985	810.31
775.168	810.31
775.35	798.03
775.532	787.79
775.715	841.03
775.897	779.59
776.079	746.83
776.261	740.68
776.444	832.84
776.626	761.16
776.808	697.67
776.99	669
777.173	613.71
777.355	650.57
777.537	789.83
777.719	671.05
777.901	654.67
778.083	705.87
778.265	669
778.447	693.58
778.629	701.77
778.811	734.54
778.993	648.52
779.175	707.91
779.357	611.66
779.539	611.66
779.721	656.72
779.903	601.42
780.085	716.11
780.267	703.82
780.449	673.1
780.631	582.99
780.812	550.22
780.994	613.71
781.176	638.28
781.358	640.33
781.54	564.56
781.721	558.41
781.903	638.28
782.085	503.12
782.267	546.12
782.448	509.26
782.63	589.13
782.812	523.6
782.993	490.83
783.175	562.51
783.357	468.3
783.538	531.79
783.72	517.45
783.901	484.69
784.083	464.21
784.264	507.21
784.446	470.35
784.627	388.43
784.809	400.72
784.99	519.5
785.172	499.02
785.353	423.25
785.535	574.8
785.716	443.73
785.897	484.69
786.079	542.03
786.26	488.78
786.441	462.16
786.623	437.58
786.804	453.97
786.985	439.63
787.167	453.97
787.348	458.06
787.529	482.64
787.71	433.49
787.891	472.4
788.073	388.43
788.254	345.42
788.435	402.77
788.616	501.07
788.797	439.63
788.978	441.68
789.159	415.06
789.34	372.05
789.522	447.82
789.703	359.76
789.884	378.19
790.065	361.81
790.246	384.34
790.427	394.58
790.607	443.73
790.788	425.29
790.969	353.62
791.15	378.19
791.331	314.7
791.512	365.9
791.693	367.95
791.874	329.04
792.054	372.05
792.235	388.43
792.416	378.19
792.597	337.23
792.778	335.18
792.958	388.43
793.139	331.09
793.32	382.29
793.5	314.7
793.681	314.7
793.862	404.82
794.042	306.51
794.223	267.6
794.404	298.32
794.584	343.38
794.765	320.85
794.945	329.04
795.126	351.57
795.306	306.51
795.487	288.08
795.667	335.18
795.848	306.51
796.028	324.94
796.209	286.03
796.389	312.66
796.57	275.79
796.75	279.89
796.93	345.42
797.111	304.46
797.291	267.6
797.471	312.66
797.652	283.99
797.832	277.84
798.012	294.22
798.192	265.55
798.373	251.22
798.553	240.98
798.733	329.04
798.913	257.36
799.093	251.22
799.274	333.14
799.454	304.46
799.634	296.27
799.814	304.46
799.994	322.9
800.174	322.9
800.354	234.83
800.534	257.36
800.714	236.88
800.894	283.99
801.074	222.55
801.254	240.98
801.434	214.35
801.614	316.75
801.794	234.83
801.974	587.08
802.154	279.89
802.334	206.16
802.514	200.02
802.693	218.45
802.873	273.75
803.053	247.12
803.233	263.51
803.413	157.01
803.592	335.18
803.772	218.45
803.952	253.27
804.131	208.21
804.311	128.34
804.491	283.99
804.67	216.4
804.85	202.07
805.03	234.83
805.209	197.97
805.389	263.51
805.568	226.64
805.748	257.36
805.928	197.97
806.107	249.17
806.287	230.74
806.466	173.39
806.646	138.58
806.825	226.64
807.004	157.01
807.184	267.6
807.363	200.02
807.543	181.59
807.722	179.54
807.901	224.59
808.081	208.21
808.26	197.97
808.439	253.27
808.619	159.06
808.798	202.07
808.977	181.59
809.156	136.53
809.336	204.11
809.515	230.74
809.694	206.16
809.873	159.06
810.052	218.45
810.231	152.92
810.411	200.02
810.59	154.96
810.769	200.02
810.948	208.21
811.127	154.96
811.306	175.44
811.485	210.26
811.664	261.46
811.843	161.11
812.022	175.44
812.201	177.49
812.38	157.01
812.559	175.44
812.737	200.02
812.916	130.39
813.095	175.44
813.274	238.93
813.453	163.15
813.632	197.97
813.811	208.21
813.989	130.39
814.168	226.64
814.347	142.68
814.526	228.69
814.704	175.44
814.883	128.34
815.062	116.05
815.24	189.78
815.419	175.44
815.598	218.45
815.776	152.92
815.955	185.68
816.133	58.71
816.312	140.63
816.49	154.96
816.669	128.34
816.847	144.72
817.026	232.79
817.204	130.39
817.383	169.3
817.561	114
817.74	222.55
817.918	202.07
818.097	122.2
818.275	107.86
818.453	85.33
818.632	157.01
818.81	171.35
818.988	120.15
819.167	109.91
819.345	154.96
819.523	152.92
819.701	138.58
819.879	85.33
820.058	89.43
820.236	226.64
820.414	138.58
820.592	99.67
820.77	138.58
820.948	132.44
821.127	116.05
821.305	142.68
821.483	120.15
821.661	161.11
821.839	116.05
822.017	111.96
822.195	128.34
822.373	142.68
822.551	93.52
822.729	179.54
822.907	154.96
823.085	128.34
823.262	58.71
823.44	68.95
823.618	89.43
823.796	138.58
823.974	93.52
824.152	138.58
824.329	42.32
824.507	140.63
824.685	101.72
824.863	148.82
825.04	91.48
825.218	73.04
825.396	142.68
825.574	118.1
825.751	128.34
825.929	103.76
826.107	19.8
826.284	103.76
826.462	140.63
826.639	93.52
826.817	81.24
826.994	120.15
827.172	73.04
827.349	130.39
827.527	91.48
827.704	136.53
827.882	161.11
828.059	68.95
828.237	103.76
828.414	154.96
828.591	73.04
828.769	148.82
828.946	107.86
829.124	126.29
829.301	152.92
829.478	83.28
829.655	66.9
829.833	150.87
830.01	91.48
830.187	95.57
830.364	13.65
830.542	179.54
830.719	126.29
830.896	150.87
831.073	87.38
831.25	97.62
831.427	116.05
831.604	101.72
831.782	21.85
831.959	91.48
832.136	81.24
832.313	34.13
832.49	103.76
832.667	130.39
832.844	75.09
833.021	91.48
833.198	66.9
833.374	105.81
833.551	157.01
833.728	105.81
833.905	163.15
834.082	34.13
834.259	25.94
834.436	136.53
834.612	13.65
834.789	109.91
834.966	27.99
835.143	181.59
835.319	99.67
835.496	132.44
835.673	11.61
835.85	97.62
836.026	30.04
836.203	99.67
836.38	146.77
836.556	68.95
836.733	46.42
836.909	99.67
837.086	68.95
837.262	99.67
837.439	105.81
837.616	38.23
837.792	87.38
837.968	17.75
838.145	56.66
838.321	208.21
838.498	23.89
838.674	111.96
838.851	58.71
839.027	58.71
839.203	-0.68
839.38	34.13
839.556	3.41
839.732	27.99
839.909	54.61
840.085	36.18
840.261	71
840.437	109.91
840.614	79.19
840.79	81.24
840.966	27.99
841.142	97.62
841.318	87.38
841.494	81.24
841.671	25.94
841.847	85.33
842.023	17.75
842.199	75.09
842.375	64.85
842.551	103.76
842.727	7.51
842.903	97.62
843.079	9.56
843.255	71
843.431	56.66
843.607	42.32
843.783	-12.97
843.959	95.57
844.134	-2.73
844.31	136.53
844.486	71
844.662	34.13
844.838	93.52
845.013	66.9
845.189	36.18
845.365	75.09
845.541	60.76
845.716	36.18
845.892	52.56
846.068	11.61
846.244	46.42
846.419	11.61
846.595	56.66
846.77	7.51
846.946	126.29
847.122	46.42
847.297	27.99
847.473	107.86
847.648	32.08
847.824	46.42
847.999	-43.69
848.175	34.13
848.35	38.23
848.526	32.08
848.701	52.56
848.876	71
849.052	32.08
849.227	105.81
849.403	68.95
849.578	85.33
849.753	-15.02
849.929	101.72
850.104	60.76
850.279	130.39
850.454	46.42
850.63	87.38
850.805	30.04
850.98	66.9
851.155	89.43
851.33	114
851.505	68.95
851.681	75.09
851.856	7.51
852.031	7.51
852.206	64.85
852.381	46.42
852.556	-27.31
852.731	54.61
852.906	91.48
853.081	13.65
853.256	19.8
853.431	-0.68
853.606	81.24
853.781	83.28
853.956	5.46
854.131	109.91
854.305	40.28
854.48	-12.97
854.655	1.37
854.83	44.37
855.005	23.89
855.18	128.34
855.354	73.04
855.529	-21.16
855.704	17.75
855.879	79.19
856.053	64.85
856.228	17.75
856.403	21.85
856.577	50.52
856.752	44.37
856.926	-23.21
857.101	40.28
857.276	85.33
857.45	58.71
857.625	48.47
857.799	46.42
857.974	68.95
858.148	5.46
858.323	48.47
858.497	38.23
858.672	66.9
858.846	-31.4
859.02	126.29
859.195	27.99
859.369	50.52
859.543	15.7
859.718	52.56
859.892	81.24
860.066	11.61
860.241	36.18
860.415	-0.68
860.589	-33.45
860.763	27.99
860.938	42.32
861.112	134.48
861.286	77.14
861.46	19.8
861.634	-6.83
861.808	40.28
861.982	58.71
862.157	-10.92
862.331	58.71
862.505	13.65
862.679	7.51
862.853	-15.02
863.027	50.52
863.201	48.47
863.375	44.37
863.549	44.37
863.722	15.7
863.896	77.14
864.07	11.61
864.244	52.56
864.418	60.76
864.592	97.62
864.766	-23.21
864.939	56.66
865.113	44.37
865.287	77.14
865.461	-27.31
865.634	34.13
865.808	52.56
865.982	21.85
866.156	-35.5
866.329	-8.87
866.503	66.9
866.676	107.86
866.85	-10.92
867.024	25.94
867.197	50.52
867.371	68.95
867.544	75.09
867.718	34.13
867.891	34.13
868.065	-21.16
868.238	36.18
868.412	114
868.585	-17.07
868.759	77.14
868.932	11.61
869.105	23.89
869.279	58.71
869.452	-8.87
869.625	32.08
869.799	58.71
869.972	30.04
870.145	-37.55
870.319	48.47
870.492	42.32
870.665	103.76
870.838	48.47
871.011	36.18
871.185	13.65
871.358	-12.97
871.531	-19.11
871.704	27.99
871.877	5.46
872.05	19.8
872.223	-23.21
872.396	17.75
872.569	56.66
872.742	25.94
872.915	3.41
873.088	9.56
873.261	15.7
873.434	77.14
873.607	9.56
873.78	60.76
873.953	27.99
874.126	-4.78
874.299	42.32
874.471	-35.5
874.644	7.51
874.817	-27.31
874.99	36.18
875.163	30.04
875.335	11.61
875.508	42.32
875.681	-21.16
875.853	19.8
876.026	19.8
876.199	42.32
876.371	81.24
876.544	-25.26
876.717	60.76
876.889	105.81
877.062	50.52
877.234	13.65
877.407	-31.4
877.579	-64.17
877.752	15.7
877.924	36.18
878.097	79.19
878.269	-49.83
878.442	5.46
878.614	13.65
878.786	17.75
878.959	83.28
879.131	-15.02
879.303	-25.26
879.476	1.37
879.648	54.61
879.82	-55.98
879.993	60.76
880.165	21.85
880.337	111.96
880.509	19.8
880.681	-58.03
880.854	-8.87
881.026	-25.26
881.198	83.28
881.37	21.85
881.542	-0.68
881.714	19.8
881.886	93.52
882.058	7.51
882.23	44.37
882.402	15.7
882.574	-21.16
882.746	32.08
882.918	60.76
883.09	50.52
883.262	19.8
883.434	58.71
883.606	30.04
883.778	9.56
883.95	52.56
884.122	19.8
884.293	109.91
884.465	17.75
884.637	83.28
884.809	62.8
884.98	54.61
885.152	42.32
885.324	44.37
885.496	5.46
885.667	77.14
885.839	11.61
886.011	68.95
886.182	56.66
886.354	36.18
886.525	42.32
886.697	13.65
886.869	-19.11
887.04	-2.73
887.212	73.04
887.383	77.14
887.555	23.89
887.726	38.23
887.897	-43.69
888.069	11.61
888.24	44.37
888.412	-10.92
888.583	-10.92
888.754	58.71
888.926	-33.45
889.097	5.46
889.268	1.37
889.44	58.71
889.611	9.56
889.782	13.65
889.953	17.75
890.125	21.85
890.296	13.65
890.467	-33.45
890.638	46.42
890.809	13.65
890.98	9.56
891.151	99.67
891.323	-2.73
891.494	40.28
891.665	5.46
891.836	50.52
892.007	-10.92
892.178	44.37
892.349	-10.92
892.52	46.42
892.691	83.28
892.862	-6.83
893.032	27.99
893.203	5.46
893.374	27.99
893.545	-17.07
893.716	25.94
893.887	75.09
894.057	-2.73
894.228	54.61
894.399	9.56
894.57	-23.21
894.74	21.85
894.911	44.37
895.082	77.14
895.253	42.32
895.423	19.8
895.594	21.85
895.764	36.18
895.935	-10.92
896.106	71
896.276	68.95
896.447	19.8
896.617	-35.5
896.788	11.61
896.958	-0.68
897.129	-4.78
897.299	7.51
897.47	-45.74
897.64	34.13
897.81	46.42
897.981	32.08
898.151	91.48
898.322	-35.5
898.492	-19.11
898.662	9.56
898.832	-31.4
899.003	7.51
899.173	27.99
899.343	27.99
899.513	21.85
