Data from USB4F104151__25__12-27-10-616.txt Node

Date: Fri Mar 14 12:27:10 EDT 2025
User: louis
Spectrometer: USB4F10415
Trigger mode: 4
Integration Time (sec): 2.000000E-2
Scans to average: 1
Electric dark correction enabled: true
Nonlinearity correction enabled: false
Boxcar width: 0
XAxis mode: Wavelengths
Number of Pixels in Spectrum: 3648
>>>>>Begin Spectral Data<<<<<
178.204	-55.47
178.424	-55.47
178.644	-55.47
178.864	-16.55
179.084	-26.79
179.304	-98.47
179.524	34.64
179.744	36.69
179.964	55.12
180.184	-53.42
180.404	10.07
180.624	1.88
180.844	-41.13
181.064	-41.13
181.283	30.55
181.503	-51.37
181.723	116.56
181.943	8.02
182.163	65.36
182.383	48.98
182.602	14.17
182.822	-18.6
183.042	40.79
183.262	-2.22
183.482	1.88
183.701	26.45
183.921	-22.7
184.141	-34.99
184.361	57.17
184.58	38.74
184.8	-28.84
185.02	-12.46
185.239	53.08
185.459	-104.62
185.679	57.17
185.898	91.99
186.118	28.5
186.338	-4.27
186.557	24.4
186.777	10.07
186.997	-75.95
187.216	61.27
187.436	77.65
187.655	30.55
187.875	16.21
188.095	-6.31
188.314	69.46
188.534	110.42
188.753	63.32
188.973	32.6
189.192	5.97
189.412	5.97
189.631	14.17
189.851	-47.27
190.07	46.93
190.29	38.74
190.509	-28.84
190.729	-26.79
190.948	46.93
191.168	81.75
191.387	75.6
191.607	32.6
191.826	3.93
192.045	-16.55
192.265	79.7
192.484	3.93
192.704	38.74
192.923	12.12
193.142	55.12
193.362	-49.32
193.581	16.21
193.8	81.75
194.02	48.98
194.239	14.17
194.458	59.22
194.678	-10.41
194.897	16.21
195.116	-59.56
195.335	-6.31
195.555	55.12
195.774	-14.51
195.993	57.17
196.212	-20.65
196.432	-47.27
196.651	36.69
196.87	3.93
197.089	67.41
197.308	12.12
197.528	-12.46
197.747	22.36
197.966	26.45
198.185	79.7
198.404	71.51
198.623	77.65
198.842	51.03
199.062	36.69
199.281	98.13
199.5	20.31
199.719	106.32
199.938	14.17
200.157	100.18
200.376	26.45
200.595	89.94
200.814	122.71
201.033	-22.7
201.252	-10.41
201.471	-4.27
201.69	98.13
201.909	79.7
202.128	87.89
202.347	8.02
202.566	22.36
202.785	87.89
203.004	-47.27
203.223	-22.7
203.442	28.5
203.661	24.4
203.879	36.69
204.098	32.6
204.317	8.02
204.536	34.64
204.755	71.51
204.974	30.55
205.193	53.08
205.411	69.46
205.63	-14.51
205.849	36.69
206.068	77.65
206.287	5.97
206.505	40.79
206.724	12.12
206.943	-43.18
207.162	-22.7
207.381	8.02
207.599	28.5
207.818	-18.6
208.037	-22.7
208.255	28.5
208.474	91.99
208.693	-34.99
208.911	-8.36
209.13	26.45
209.349	-6.31
209.567	61.27
209.786	36.69
210.005	-12.46
210.223	59.22
210.442	-16.55
210.661	38.74
210.879	-28.84
211.098	-22.7
211.316	14.17
211.535	106.32
211.753	51.03
211.972	34.64
212.191	-34.99
212.409	91.99
212.628	14.17
212.846	-90.28
213.065	-49.32
213.283	108.37
213.502	63.32
213.72	-47.27
213.938	-2.22
214.157	63.32
214.375	3.93
214.594	-45.23
214.812	10.07
215.031	-26.79
215.249	-6.31
215.467	-2.22
215.686	96.08
215.904	12.12
216.122	61.27
216.341	63.32
216.559	1.88
216.778	14.17
216.996	71.51
217.214	-4.27
217.432	57.17
217.651	-0.17
217.869	36.69
218.087	26.45
218.306	38.74
218.524	20.31
218.742	-16.55
218.96	1.88
219.179	26.45
219.397	118.61
219.615	104.28
219.833	16.21
220.051	5.97
220.27	38.74
220.488	48.98
220.706	10.07
220.924	40.79
221.142	91.99
221.36	-10.41
221.578	53.08
221.796	-2.22
222.015	-18.6
222.233	36.69
222.451	24.4
222.669	63.32
222.887	44.88
223.105	1.88
223.323	-59.56
223.541	-39.08
223.759	-69.8
223.977	22.36
224.195	110.42
224.413	30.55
224.631	42.84
224.849	28.5
225.067	83.8
225.285	77.65
225.503	120.66
225.721	-61.61
225.939	30.55
226.157	30.55
226.375	112.47
226.592	38.74
226.81	34.64
227.028	8.02
227.246	108.37
227.464	73.56
227.682	1.88
227.9	83.8
228.117	75.6
228.335	26.45
228.553	61.27
228.771	-8.36
228.989	-45.23
229.206	-4.27
229.424	-2.22
229.642	-8.36
229.86	-12.46
230.077	38.74
230.295	8.02
230.513	20.31
230.731	14.17
230.948	38.74
231.166	-8.36
231.384	40.79
231.601	38.74
231.819	79.7
232.037	8.02
232.254	46.93
232.472	36.69
232.689	-0.17
232.907	81.75
233.125	63.32
233.342	71.51
233.56	-10.41
233.777	8.02
233.995	32.6
234.213	120.66
234.43	24.4
234.648	44.88
234.865	1.88
235.083	30.55
235.3	32.6
235.518	102.23
235.735	126.8
235.953	10.07
236.17	10.07
236.388	1.88
236.605	-0.17
236.822	110.42
237.04	28.5
237.257	42.84
237.475	34.64
237.692	118.61
237.909	20.31
238.127	32.6
238.344	-57.51
238.562	175.95
238.779	46.93
238.996	30.55
239.214	20.31
239.431	135
239.648	32.6
239.865	65.36
240.083	46.93
240.3	-6.31
240.517	42.84
240.735	53.08
240.952	75.6
241.169	22.36
241.386	36.69
241.603	26.45
241.821	44.88
242.038	-41.13
242.255	26.45
242.472	-24.75
242.689	48.98
242.907	20.31
243.124	16.21
243.341	44.88
243.558	-84.14
243.775	38.74
243.992	16.21
244.209	18.26
244.426	65.36
244.643	69.46
244.86	8.02
245.078	83.8
245.295	135
245.512	116.56
245.729	53.08
245.946	42.84
246.163	85.84
246.38	14.17
246.597	79.7
246.814	42.84
247.031	81.75
247.248	36.69
247.464	26.45
247.681	46.93
247.898	22.36
248.115	44.88
248.332	22.36
248.549	-47.27
248.766	16.21
248.983	75.6
249.2	24.4
249.417	73.56
249.633	14.17
249.85	30.55
250.067	46.93
250.284	48.98
250.501	24.4
250.717	69.46
250.934	46.93
251.151	-20.65
251.368	12.12
251.585	100.18
251.801	5.97
252.018	34.64
252.235	75.6
252.451	-18.6
252.668	-14.51
252.885	28.5
253.102	38.74
253.318	65.36
253.535	48.98
253.752	5.97
253.968	1.88
254.185	61.27
254.401	1.88
254.618	83.8
254.835	1.88
255.051	51.03
255.268	71.51
255.484	20.31
255.701	32.6
255.917	48.98
256.134	24.4
256.351	61.27
256.567	-22.7
256.784	26.45
257	34.64
257.217	10.07
257.433	30.55
257.65	61.27
257.866	98.13
258.082	-8.36
258.299	81.75
258.515	120.66
258.732	38.74
258.948	89.94
259.165	1.88
259.381	-14.51
259.597	30.55
259.814	118.61
260.03	-18.6
260.246	3.93
260.463	12.12
260.679	67.41
260.895	-2.22
261.112	91.99
261.328	-45.23
261.544	1.88
261.761	85.84
261.977	96.08
262.193	-14.51
262.409	67.41
262.626	14.17
262.842	-12.46
263.058	40.79
263.274	10.07
263.49	42.84
263.707	40.79
263.923	77.65
264.139	-24.75
264.355	-4.27
264.571	30.55
264.787	77.65
265.004	48.98
265.22	-18.6
265.436	18.26
265.652	-20.65
265.868	51.03
266.084	48.98
266.3	42.84
266.516	-2.22
266.732	65.36
266.948	104.28
267.164	-8.36
267.38	30.55
267.596	16.21
267.812	79.7
268.028	61.27
268.244	-16.55
268.46	-20.65
268.676	51.03
268.892	48.98
269.108	-4.27
269.324	81.75
269.54	14.17
269.756	38.74
269.972	53.08
270.188	30.55
270.403	18.26
270.619	14.17
270.835	61.27
271.051	48.98
271.267	32.6
271.483	24.4
271.698	71.51
271.914	104.28
272.13	-10.41
272.346	-39.08
272.562	32.6
272.777	16.21
272.993	59.22
273.209	-12.46
273.425	14.17
273.64	-47.27
273.856	5.97
274.072	36.69
274.287	38.74
274.503	51.03
274.719	61.27
274.934	-8.36
275.15	51.03
275.366	77.65
275.581	46.93
275.797	26.45
276.012	32.6
276.228	10.07
276.444	42.84
276.659	-4.27
276.875	1.88
277.09	44.88
277.306	-26.79
277.521	-22.7
277.737	-8.36
277.952	-4.27
278.168	42.84
278.383	87.89
278.599	3.93
278.814	-12.46
279.03	28.5
279.245	38.74
279.461	16.21
279.676	42.84
279.892	-12.46
280.107	57.17
280.322	46.93
280.538	14.17
280.753	14.17
280.969	18.26
281.184	36.69
281.399	102.23
281.615	55.12
281.83	34.64
282.045	-14.51
282.26	48.98
282.476	79.7
282.691	38.74
282.906	-30.89
283.122	24.4
283.337	32.6
283.552	85.84
283.767	-26.79
283.983	48.98
284.198	18.26
284.413	46.93
284.628	48.98
284.843	-32.94
285.058	-0.17
285.274	1.88
285.489	-45.23
285.704	36.69
285.919	46.93
286.134	-16.55
286.349	32.6
286.564	44.88
286.779	94.04
286.995	-20.65
287.21	-22.7
287.425	-8.36
287.64	-47.27
287.855	77.65
288.07	34.64
288.285	51.03
288.5	79.7
288.715	28.5
288.93	-30.89
289.145	36.69
289.36	87.89
289.575	24.4
289.79	14.17
290.004	1.88
290.219	24.4
290.434	5.97
290.649	28.5
290.864	-69.8
291.079	102.23
291.294	59.22
291.509	10.07
291.724	30.55
291.938	87.89
292.153	18.26
292.368	22.36
292.583	53.08
292.798	67.41
293.012	57.17
293.227	3.93
293.442	77.65
293.657	44.88
293.871	34.64
294.086	24.4
294.301	69.46
294.516	24.4
294.73	87.89
294.945	65.36
295.16	20.31
295.374	48.98
295.589	-18.6
295.804	59.22
296.018	28.5
296.233	-20.65
296.447	12.12
296.662	-18.6
296.877	-2.22
297.091	71.51
297.306	-8.36
297.52	63.32
297.735	14.17
297.949	24.4
298.164	36.69
298.378	-30.89
298.593	-45.23
298.807	89.94
299.022	28.5
299.236	46.93
299.451	-22.7
299.665	-45.23
299.88	3.93
300.094	14.17
300.309	36.69
300.523	28.5
300.737	30.55
300.952	40.79
301.166	63.32
301.381	-47.27
301.595	10.07
301.809	-18.6
302.024	61.27
302.238	-49.32
302.452	30.55
302.667	51.03
302.881	46.93
303.095	16.21
303.309	59.22
303.524	73.56
303.738	30.55
303.952	-28.84
304.166	73.56
304.381	-104.62
304.595	126.8
304.809	12.12
305.023	53.08
305.237	-2.22
305.452	126.8
305.666	-2.22
305.88	108.37
306.094	132.95
306.308	18.26
306.522	77.65
306.736	-8.36
306.95	-30.89
307.164	18.26
307.379	63.32
307.593	38.74
307.807	79.7
308.021	83.8
308.235	96.08
308.449	5.97
308.663	83.8
308.877	96.08
309.091	46.93
309.305	18.26
309.519	77.65
309.733	63.32
309.947	5.97
310.161	61.27
310.374	40.79
310.588	79.7
310.802	18.26
311.016	-26.79
311.23	-18.6
311.444	36.69
311.658	85.84
311.872	139.09
312.085	5.97
312.299	40.79
312.513	77.65
312.727	53.08
312.941	32.6
313.154	51.03
313.368	22.36
313.582	55.12
313.796	32.6
314.009	-73.9
314.223	12.12
314.437	20.31
314.651	85.84
314.864	-6.31
315.078	79.7
315.292	34.64
315.505	20.31
315.719	40.79
315.933	16.21
316.146	-4.27
316.36	53.08
316.573	53.08
316.787	67.41
317.001	53.08
317.214	51.03
317.428	38.74
317.641	34.64
317.855	22.36
318.068	10.07
318.282	34.64
318.495	5.97
318.709	-6.31
318.922	10.07
319.136	87.89
319.349	59.22
319.563	-8.36
319.776	65.36
319.99	-12.46
320.203	-0.17
320.417	22.36
320.63	30.55
320.843	24.4
321.057	94.04
321.27	5.97
321.483	12.12
321.697	30.55
321.91	-14.51
322.124	96.08
322.337	36.69
322.55	20.31
322.763	112.47
322.977	85.84
323.19	-0.17
323.403	36.69
323.617	30.55
323.83	53.08
324.043	16.21
324.256	32.6
324.469	28.5
324.683	114.52
324.896	114.52
325.109	59.22
325.322	-34.99
325.535	28.5
325.748	73.56
325.962	10.07
326.175	61.27
326.388	87.89
326.601	57.17
326.814	63.32
327.027	26.45
327.24	118.61
327.453	3.93
327.666	1.88
327.879	55.12
328.092	42.84
328.305	16.21
328.518	10.07
328.731	81.75
328.944	63.32
329.157	40.79
329.37	102.23
329.583	36.69
329.796	44.88
330.009	30.55
330.222	51.03
330.435	16.21
330.648	34.64
330.861	98.13
331.073	44.88
331.286	102.23
331.499	61.27
331.712	36.69
331.925	-20.65
332.138	46.93
332.35	51.03
332.563	28.5
332.776	87.89
332.989	-8.36
333.202	67.41
333.414	18.26
333.627	110.42
333.84	71.51
334.053	20.31
334.265	38.74
334.478	3.93
334.691	22.36
334.903	61.27
335.116	-4.27
335.329	40.79
335.541	94.04
335.754	46.93
335.966	57.17
336.179	73.56
336.392	-41.13
336.604	1.88
336.817	59.22
337.029	96.08
337.242	-47.27
337.454	98.13
337.667	126.8
337.88	63.32
338.092	83.8
338.305	53.08
338.517	1.88
338.729	57.17
338.942	-22.7
339.154	8.02
339.367	-69.8
339.579	10.07
339.792	-24.75
340.004	46.93
340.217	63.32
340.429	85.84
340.641	75.6
340.854	55.12
341.066	20.31
341.278	46.93
341.491	30.55
341.703	26.45
341.915	8.02
342.128	87.89
342.34	34.64
342.552	-6.31
342.764	36.69
342.977	-18.6
343.189	-8.36
343.401	42.84
343.613	-75.95
343.826	20.31
344.038	14.17
344.25	24.4
344.462	-63.66
344.674	57.17
344.886	16.21
345.099	67.41
345.311	32.6
345.523	10.07
345.735	130.9
345.947	61.27
346.159	51.03
346.371	53.08
346.583	65.36
346.795	48.98
347.007	79.7
347.219	71.51
347.431	34.64
347.643	40.79
347.855	59.22
348.067	24.4
348.279	48.98
348.491	44.88
348.703	51.03
348.915	14.17
349.127	28.5
349.339	30.55
349.551	-45.23
349.763	75.6
349.975	-14.51
350.187	53.08
350.399	87.89
350.61	36.69
350.822	104.28
351.034	20.31
351.246	3.93
351.458	63.32
351.669	75.6
351.881	53.08
352.093	18.26
352.305	-26.79
352.517	116.56
352.728	71.51
352.94	73.56
353.152	126.8
353.363	40.79
353.575	14.17
353.787	26.45
353.999	46.93
354.21	63.32
354.422	73.56
354.633	67.41
354.845	-16.55
355.057	16.21
355.268	48.98
355.48	-16.55
355.692	38.74
355.903	-20.65
356.115	36.69
356.326	-8.36
356.538	-16.55
356.749	12.12
356.961	34.64
357.172	-16.55
357.384	59.22
357.595	36.69
357.807	20.31
358.018	34.64
358.23	-6.31
358.441	44.88
358.653	91.99
358.864	30.55
359.075	79.7
359.287	10.07
359.498	135
359.709	48.98
359.921	28.5
360.132	32.6
360.344	30.55
360.555	132.95
360.766	26.45
360.977	-28.84
361.189	63.32
361.4	5.97
361.611	102.23
361.823	116.56
362.034	24.4
362.245	8.02
362.456	40.79
362.667	110.42
362.879	10.07
363.09	36.69
363.301	59.22
363.512	61.27
363.723	36.69
363.935	30.55
364.146	59.22
364.357	40.79
364.568	85.84
364.779	22.36
364.99	85.84
365.201	48.98
365.412	85.84
365.623	-32.94
365.834	18.26
366.045	-16.55
366.256	46.93
366.467	48.98
366.678	22.36
366.889	67.41
367.1	67.41
367.311	14.17
367.522	-6.31
367.733	-14.51
367.944	81.75
368.155	71.51
368.366	-6.31
368.577	61.27
368.788	79.7
368.999	-12.46
369.209	44.88
369.42	48.98
369.631	87.89
369.842	106.32
370.053	59.22
370.264	55.12
370.474	-12.46
370.685	-0.17
370.896	53.08
371.107	40.79
371.317	42.84
371.528	83.8
371.739	85.84
371.95	8.02
372.16	51.03
372.371	48.98
372.582	102.23
372.792	55.12
373.003	34.64
373.214	69.46
373.424	12.12
373.635	-32.94
373.846	116.56
374.056	87.89
374.267	36.69
374.477	153.43
374.688	79.7
374.898	12.12
375.109	10.07
375.319	108.37
375.53	112.47
375.74	34.64
375.951	32.6
376.161	53.08
376.372	132.95
376.582	8.02
376.793	96.08
377.003	20.31
377.214	73.56
377.424	53.08
377.635	55.12
377.845	20.31
378.055	38.74
378.266	77.65
378.476	108.37
378.686	34.64
378.897	28.5
379.107	5.97
379.317	59.22
379.528	16.21
379.738	67.41
379.948	20.31
380.158	55.12
380.369	42.84
380.579	102.23
380.789	53.08
380.999	53.08
381.21	32.6
381.42	94.04
381.63	44.88
381.84	65.36
382.05	57.17
382.261	65.36
382.471	16.21
382.681	16.21
382.891	120.66
383.101	85.84
383.311	61.27
383.521	83.8
383.731	89.94
383.941	106.32
384.151	55.12
384.361	87.89
384.571	83.8
384.781	40.79
384.991	22.36
385.201	-14.51
385.411	12.12
385.621	55.12
385.831	-22.7
386.041	-2.22
386.251	77.65
386.461	120.66
386.671	-51.37
386.881	16.21
387.091	18.26
387.301	110.42
387.511	89.94
387.72	32.6
387.93	100.18
388.14	63.32
388.35	-14.51
388.56	10.07
388.769	55.12
388.979	44.88
389.189	-28.84
389.399	124.76
389.609	30.55
389.818	77.65
390.028	42.84
390.238	61.27
390.447	22.36
390.657	67.41
390.867	79.7
391.076	96.08
391.286	83.8
391.496	30.55
391.705	30.55
391.915	-6.31
392.125	46.93
392.334	36.69
392.544	69.46
392.753	34.64
392.963	-10.41
393.172	-10.41
393.382	10.07
393.591	34.64
393.801	18.26
394.01	69.46
394.22	71.51
394.429	128.85
394.639	24.4
394.848	89.94
395.058	77.65
395.267	108.37
395.477	89.94
395.686	143.19
395.895	83.8
396.105	59.22
396.314	87.89
396.524	94.04
396.733	132.95
396.942	100.18
397.152	110.42
397.361	122.71
397.57	-20.65
397.78	116.56
397.989	10.07
398.198	118.61
398.407	44.88
398.617	153.43
398.826	30.55
399.035	91.99
399.244	98.13
399.453	59.22
399.663	112.47
399.872	61.27
400.081	102.23
400.29	153.43
400.499	77.65
400.708	102.23
400.917	104.28
401.127	85.84
401.336	139.09
401.545	153.43
401.754	126.8
401.963	108.37
402.172	59.22
402.381	48.98
402.59	120.66
402.799	102.23
403.008	128.85
403.217	110.42
403.426	108.37
403.635	48.98
403.844	63.32
404.053	112.47
404.262	163.67
404.471	124.76
404.68	120.66
404.888	94.04
405.097	118.61
405.306	69.46
405.515	204.63
405.724	94.04
405.933	135
406.142	118.61
406.35	171.86
406.559	180.05
406.768	96.08
406.977	216.91
407.185	137.04
407.394	118.61
407.603	184.15
407.812	114.52
408.02	204.63
408.229	100.18
408.438	276.31
408.646	102.23
408.855	167.76
409.064	190.29
409.272	175.95
409.481	229.2
409.69	227.15
409.898	161.62
410.107	218.96
410.315	272.21
410.524	233.3
410.733	307.02
410.941	255.83
411.15	212.82
411.358	282.45
411.567	333.65
411.775	313.17
411.984	284.5
412.192	331.6
412.401	337.74
412.609	384.85
412.818	413.52
413.026	335.7
413.234	292.69
413.443	390.99
413.651	350.03
413.86	413.52
414.068	468.81
414.276	462.67
414.485	485.2
414.693	495.44
414.901	487.25
415.11	423.76
415.318	599.88
415.526	577.36
415.734	653.13
415.943	712.52
416.151	571.21
416.359	511.82
416.567	657.23
416.776	661.32
416.984	741.19
417.192	704.33
417.4	720.71
417.608	771.91
417.817	716.62
418.025	757.58
418.233	827.21
418.441	839.5
418.649	978.76
418.857	880.46
419.065	976.71
419.273	894.79
419.481	976.71
419.689	1040.2
419.897	1050.44
420.105	1015.62
420.313	1240.9
420.521	1132.36
420.729	1316.67
420.937	1167.17
421.145	1367.87
421.353	1322.82
421.561	1363.78
421.769	1337.15
421.977	1386.3
422.185	1572.67
422.393	1500.99
422.601	1677.12
422.809	1638.2
423.017	1679.16
423.224	1793.85
423.432	1818.43
423.64	1783.61
423.848	2002.74
424.056	1963.83
424.263	2066.23
424.471	2129.72
424.679	2162.48
424.887	2248.5
425.094	2305.84
425.302	2447.15
425.51	2402.1
425.718	2465.58
425.925	2463.54
426.133	2598.7
426.341	2754.35
426.548	2920.23
426.756	2924.33
426.964	2989.86
427.171	3114.79
427.379	3118.89
427.586	3176.23
427.794	3426.08
428.001	3534.62
428.209	3508
428.417	3544.86
428.624	3899.16
428.832	3807
429.039	3776.28
429.247	3735.32
429.454	4042.52
429.662	4335.38
429.869	4005.66
430.076	4521.74
430.284	4394.77
430.491	4329.24
430.699	4734.73
430.906	4642.57
431.114	4781.84
431.321	5015.3
431.528	5181.19
431.736	5420.8
431.943	5572.35
432.15	5543.68
432.358	5437.19
432.565	5803.77
432.772	5836.54
432.979	6125.3
433.187	6403.83
433.394	6248.18
433.601	6674.16
433.808	6678.26
434.016	6696.69
434.223	6928.11
434.43	7419.62
434.637	7259.88
434.844	7743.2
435.052	7773.92
435.259	7767.77
435.466	7986.91
435.673	7757.53
435.88	8371.93
436.087	8918.73
436.294	8722.13
436.501	8668.88
436.708	8621.78
436.915	9289.42
437.122	9510.6
437.329	9535.17
437.537	9860.8
437.743	9832.13
437.95	9850.56
438.157	10358.46
438.364	10718.9
438.571	10567.35
438.778	10815.15
438.985	11769.51
439.192	11321
439.399	11871.9
439.606	11458.21
439.813	11910.82
440.02	12879.5
440.227	12646.04
440.433	12453.53
440.64	12840.59
440.847	12822.16
441.054	13147.79
441.261	14073.47
441.467	13731.46
441.674	14276.22
441.881	14661.24
442.088	14667.38
442.294	14511.74
442.501	14734.96
442.708	15033.97
442.914	15591.02
443.121	16365.15
443.328	16082.53
443.534	17477.19
443.741	16602.71
443.948	16514.65
444.154	17573.45
444.361	17749.57
444.568	17651.27
444.774	17632.84
444.981	17878.6
445.187	18677.3
445.394	18970.16
445.6	18908.72
445.807	20772.38
446.013	19881.51
446.22	20381.21
446.426	21165.59
446.633	21341.71
446.839	21990.92
447.046	20989.46
447.252	22251.01
447.459	22253.06
447.665	22441.47
447.871	23229.94
448.078	24298.98
448.284	23080.44
448.491	23819.75
448.697	24501.73
448.903	25148.89
449.11	25122.26
449.316	24821.21
449.522	25212.37
449.728	26019.27
449.935	26154.44
450.141	26078.66
450.347	26834.36
450.553	25933.26
450.76	26248.64
450.966	27123.13
451.172	26727.87
451.378	27293.11
451.584	27151.8
451.791	27866.54
451.997	27481.52
452.203	27981.23
452.409	28097.96
452.615	28235.17
452.821	26779.07
453.027	26920.38
453.233	28292.52
453.44	26875.32
453.646	27352.5
453.852	27364.79
454.058	27970.99
454.264	26899.9
454.47	27753.9
454.676	26660.29
454.882	27876.78
455.088	25642.45
455.294	26140.1
455.5	26260.93
455.705	26504.64
455.911	25609.68
456.117	25478.61
456.323	24800.73
456.529	23285.23
456.735	24522.21
456.941	23766.51
457.147	23514.61
457.352	22638.08
457.558	22486.53
457.764	22808.06
457.97	21775.88
458.176	21904.9
458.381	21749.26
458.587	20557.34
458.793	20686.36
458.999	19699.24
459.204	20885.01
459.41	20330.02
459.616	19203.63
459.821	18982.45
460.027	18921.01
460.233	18392.64
460.438	17737.29
460.644	17811.01
460.85	17262.16
461.055	16862.8
461.261	16676.44
461.466	15494.76
461.672	14878.32
461.878	16016.99
462.083	15081.07
462.289	15036.02
462.494	14589.56
462.7	13960.83
462.905	13647.49
463.111	14069.37
463.316	14362.23
463.522	13766.28
463.727	13901.44
463.932	13725.32
464.138	13629.06
464.343	13635.21
464.549	13395.59
464.754	13710.98
464.959	13643.4
465.165	13549.19
465.37	13010.57
465.575	12760.72
465.781	12981.9
465.986	13274.76
466.191	12758.67
466.397	12439.19
466.602	12179.1
466.807	12502.68
467.012	12418.71
467.218	12299.93
467.423	12281.5
467.628	12179.1
467.833	12678.8
468.038	12152.48
468.244	12002.97
468.449	12412.57
468.654	12154.52
468.859	11968.16
469.064	11835.04
469.269	11316.9
469.474	11669.16
469.679	11957.92
469.885	11441.83
470.09	11447.97
470.295	11402.92
470.5	11179.69
470.705	11179.69
470.91	11083.44
471.115	10923.69
471.32	11087.53
471.525	10954.41
471.73	10743.47
471.935	10921.65
472.139	10448.57
472.344	10503.86
472.549	10354.36
472.754	10356.41
472.959	10208.95
473.164	9998.01
473.369	9893.57
473.574	10124.99
473.778	10043.07
473.983	9752.26
474.188	9907.9
474.393	9430.73
474.598	9586.37
474.802	9400.01
475.007	9195.21
475.212	9330.37
475.417	8974.03
475.621	9072.33
475.826	8947.4
476.031	8789.71
476.235	8691.41
476.44	9035.47
476.645	8570.58
476.849	8883.92
477.054	8550.1
477.259	8382.17
477.463	8482.52
477.668	8408.79
477.872	8148.7
478.077	8038.11
478.282	8146.65
478.486	7939.8
478.691	7933.66
478.895	7876.32
479.1	7898.84
479.304	7876.32
479.509	7673.57
479.713	7976.67
479.918	7507.68
480.122	7526.11
480.326	7567.07
480.531	7382.76
480.735	7519.97
480.94	7433.96
481.144	7528.16
481.348	7382.76
481.553	7376.61
481.757	7374.56
481.961	7276.26
482.166	7476.96
482.37	7438.05
482.574	7079.66
482.778	7116.52
482.983	7378.66
483.187	7454.44
483.391	7223.02
483.595	7161.58
483.8	7143.14
484.004	7364.32
484.208	7405.28
484.412	7444.2
484.616	7399.14
484.821	7442.15
485.025	7196.39
485.229	7505.63
485.433	7360.23
485.637	7339.75
485.841	7249.64
486.045	7339.75
486.249	7235.3
486.453	7194.34
486.657	7241.45
486.861	7519.97
487.065	7141.1
487.269	7237.35
487.473	7089.9
487.677	7251.69
487.881	7444.2
488.085	7347.94
488.289	7198.44
488.493	7358.18
488.697	7397.09
488.901	7280.36
489.105	7196.39
489.309	7429.86
489.512	7306.98
489.716	7294.69
489.92	7462.63
490.124	7317.22
490.328	7507.68
490.531	7405.28
490.735	7409.38
490.939	7474.92
491.143	7347.94
491.346	7581.41
491.55	7818.97
491.754	7671.52
491.958	7499.49
492.161	7663.33
492.365	7724.77
492.569	7708.38
492.772	7663.33
492.976	7741.15
493.18	7876.32
493.383	7837.41
493.587	8050.39
493.79	8038.11
493.994	8066.78
494.197	7927.52
494.401	8062.68
494.605	8269.53
494.808	8437.46
495.012	8201.94
495.215	8148.7
495.419	8371.93
495.622	8312.53
495.825	8548.05
496.029	8486.61
496.232	8642.26
496.436	8623.83
496.639	8822.48
496.843	8615.63
497.046	8994.51
497.249	9211.59
497.453	9361.09
497.656	9191.11
497.859	9105.1
498.063	9285.32
498.266	9574.08
498.469	9385.67
498.673	9537.22
498.876	9561.8
499.079	9770.69
499.282	9821.89
499.485	10034.88
499.689	10131.13
499.892	10161.85
500.095	10227.39
500.298	10512.05
500.501	10286.78
500.705	10786.48
500.908	10895.02
501.111	10895.02
501.314	11001.52
501.517	11177.64
501.72	11191.98
501.923	11284.14
502.126	11376.3
502.329	11701.92
502.532	11570.85
502.735	11845.28
502.938	12146.33
503.141	12005.02
503.344	12340.89
503.547	12293.79
503.75	12517.01
503.953	12613.27
504.156	12977.81
504.359	13008.53
504.562	13045.39
504.765	13121.17
504.968	13207.18
505.17	13469.32
505.373	13422.22
505.576	13676.16
505.779	13930.11
505.982	14145.15
506.185	14284.41
506.387	14202.49
506.59	14182.01
506.793	14749.3
506.996	14577.27
507.198	15261.29
507.401	14937.71
507.604	15167.09
507.807	15380.07
508.009	15648.36
508.212	15720.04
508.415	15691.37
508.617	15824.48
508.82	16066.14
509.022	16137.82
509.225	16490.07
509.428	16496.22
509.63	16871
509.833	16651.86
510.035	17163.86
510.238	17073.74
510.44	17360.46
510.643	17376.84
510.845	17751.62
511.048	17901.12
511.25	17878.6
511.453	18105.92
511.655	18759.22
511.858	18316.86
512.06	18761.27
512.262	19066.42
512.465	18968.12
512.667	19404.33
512.87	19099.19
513.072	19451.44
513.274	19744.3
513.477	19901.99
513.679	20094.5
513.881	20227.62
514.084	20356.64
514.286	20760.09
514.488	20626.97
514.69	21310.99
514.893	21048.85
515.095	21265.94
515.297	21693.96
515.499	21267.98
515.701	21822.98
515.904	22021.64
516.106	22341.12
516.308	22533.63
516.51	22760.95
516.712	22601.21
516.914	23225.84
517.116	23385.58
517.318	23289.33
517.52	23617
517.722	23625.2
517.925	24049.13
518.127	24094.18
518.329	24593.89
518.531	24317.41
518.733	24909.27
518.935	24767.96
519.136	24913.37
519.338	24983
519.54	25439.7
519.742	25791.95
519.944	25759.18
520.146	26207.69
520.348	26238.4
520.55	26559.94
520.752	26418.63
520.954	26738.11
521.155	26807.74
521.357	27360.69
521.559	27276.73
521.761	27674.03
521.963	27534.77
522.164	28069.29
522.366	28038.57
522.568	28362.15
522.77	28450.21
522.971	28730.78
523.173	28761.5
523.375	28851.61
523.576	28843.42
523.778	28894.62
523.98	29306.26
524.181	29683.09
524.383	29654.42
524.584	29998.48
524.786	29937.04
524.988	29697.42
525.189	30250.38
525.391	30104.97
525.592	30592.39
525.794	30274.95
525.995	30940.54
526.197	30952.83
526.398	30739.84
526.6	30997.88
526.801	31196.54
527.003	31350.13
527.204	31745.39
527.406	31458.68
527.607	31636.85
527.808	31915.37
528.01	31458.68
528.211	31731.06
528.412	32556.39
528.614	32136.55
528.815	32068.97
529.016	32355.69
529.218	32048.49
529.419	32083.31
529.62	32421.22
529.822	32748.9
530.023	32839.01
530.224	32394.6
530.425	32693.6
530.626	32736.61
530.828	32099.69
531.029	33385.82
531.23	32644.45
531.431	32839.01
531.632	32806.24
531.833	33181.02
532.035	32808.29
532.236	33156.44
532.437	33195.35
532.638	33107.29
532.839	33445.21
533.04	33178.97
533.241	32519.53
533.442	33441.11
533.643	33342.81
533.844	33250.65
534.045	33508.69
534.246	33172.83
534.447	33541.46
534.648	33408.34
534.849	33334.62
535.05	33095
535.251	33457.49
535.451	33416.54
535.652	33430.87
535.853	33510.74
536.054	33219.93
536.255	33723.73
536.456	33195.35
536.657	33881.42
536.857	33527.13
537.058	33346.9
537.259	33906
537.46	33545.56
537.66	33320.28
537.861	33455.45
538.062	33430.87
538.263	33512.79
538.463	33240.41
538.664	33658.2
538.865	33670.48
539.065	33881.42
539.266	33430.87
539.466	33680.72
539.667	33412.44
539.868	33563.99
540.068	33525.08
540.269	33602.9
540.469	33752.4
540.67	33271.13
540.87	33471.83
541.071	33410.39
541.271	33430.87
541.472	33346.9
541.672	33613.14
541.873	33592.66
542.073	33162.59
542.274	33529.17
542.474	33250.65
542.675	33203.55
542.875	34037.07
543.075	33316.18
543.276	33035.61
543.476	33729.87
543.676	32916.83
543.877	33135.96
544.077	33295.71
544.277	33461.59
544.478	33557.85
544.678	33408.34
544.878	33518.93
545.078	33351
545.279	33445.21
545.479	33297.75
545.679	33301.85
545.879	33234.27
546.079	33588.56
546.28	33310.04
546.48	33125.72
546.68	33506.65
546.88	33623.38
547.08	33625.43
547.28	33178.97
547.48	33361.24
547.68	33604.95
547.88	33234.27
548.081	33410.39
548.281	33252.7
548.481	33250.65
548.681	33391.96
548.881	33400.15
549.081	33588.56
549.28	33011.04
549.48	33420.63
549.68	33301.85
549.88	33803.6
550.08	33185.11
550.28	33449.3
550.48	33457.49
550.68	33451.35
550.88	32949.6
551.08	32984.41
551.279	33213.79
551.479	33295.71
551.679	33271.13
551.879	33258.84
552.079	33424.73
552.278	33162.59
552.478	33197.4
552.678	33391.96
552.878	33398.1
553.077	33391.96
553.277	32798.05
553.477	33418.58
553.676	33187.16
553.876	33144.16
554.076	32830.82
554.275	32574.82
554.475	32920.93
554.674	32965.98
554.874	33099.1
555.074	32789.86
555.273	33148.25
555.473	33133.92
555.672	32896.35
555.872	32965.98
556.071	33133.92
556.271	33013.09
556.47	32847.2
556.67	32335.21
556.869	32759.14
557.068	32796
557.268	32626.02
557.467	33004.89
557.667	32775.52
557.866	33060.19
558.065	32552.29
558.265	32695.65
558.464	32367.98
558.663	32781.67
558.863	32075.12
559.062	32654.69
559.261	32154.99
559.461	32771.43
559.66	32101.74
559.859	32109.93
560.058	32267.62
560.258	32222.57
560.457	32054.64
560.656	32347.5
560.855	32177.51
561.054	32247.15
561.253	32128.36
561.453	32007.53
561.652	31905.13
561.851	32202.09
562.05	31569.27
562.249	31665.52
562.448	32183.66
562.647	31737.2
562.846	32007.53
563.045	31782.26
563.244	31491.44
563.443	32009.58
563.642	31356.28
563.841	31579.51
564.04	31509.88
564.239	31907.18
564.438	31423.86
564.637	31450.49
564.836	31638.9
565.035	31069.56
565.234	31380.85
565.432	30946.69
565.631	30924.16
565.83	30950.78
566.029	30885.25
566.228	30977.4
566.427	30803.33
566.625	30586.24
566.824	30459.27
567.023	31165.82
567.222	30492.04
567.42	30975.36
567.619	30510.47
567.818	30619.01
568.016	30735.74
568.215	30686.59
568.414	30510.47
568.612	30633.35
568.811	30195.08
569.01	30240.14
569.208	29906.32
569.407	30246.28
569.605	29611.41
569.804	30236.04
570.002	29986.19
570.201	29930.89
570.4	29635.99
570.598	29457.81
570.797	29494.68
570.995	29793.68
571.193	29429.14
571.392	29848.97
571.59	29369.75
571.789	29660.56
571.987	29549.97
572.186	29210.01
572.384	29134.23
572.582	29404.56
572.781	29537.68
572.979	28665.25
573.177	29167
573.376	29013.4
573.574	29103.51
573.772	28970.4
573.971	28788.13
574.169	28534.18
574.367	28564.9
574.565	28878.24
574.763	28116.39
574.962	28284.33
575.16	28089.77
575.358	28489.12
575.556	28282.28
575.754	28689.82
575.952	28222.89
576.151	28294.57
576.349	27852.2
576.547	28013.99
576.745	28009.9
576.943	28077.48
577.141	27801.01
577.339	27956.65
577.537	28018.09
577.735	27676.08
577.933	27559.34
578.131	27600.3
578.329	27739.57
578.527	27588.02
578.725	27456.95
578.923	27426.23
579.121	27145.66
579.319	27282.87
579.516	27444.66
579.714	27188.66
579.912	27151.8
580.11	27284.92
580.308	27119.03
580.506	27186.61
580.704	26711.49
580.901	26766.78
581.099	26723.77
581.297	26385.86
581.495	26609.09
581.692	26549.7
581.89	26473.92
582.088	26525.12
582.285	26125.77
582.483	26617.28
582.681	26430.91
582.878	26033.61
583.076	25994.7
583.274	26191.3
583.471	25722.32
583.669	26144.2
583.866	25531.86
584.064	25785.8
584.262	25671.12
584.459	25986.5
584.657	25093.59
584.854	25884.11
585.052	25449.94
585.249	25886.15
585.447	25621.97
585.644	25267.67
585.841	25527.76
586.039	25365.97
586.236	24874.46
586.434	25195.99
586.631	25263.57
586.828	25118.17
587.026	24960.47
587.223	24890.84
587.42	24888.79
587.618	25124.31
587.815	24796.63
588.012	24514.02
588.21	24753.63
588.407	24817.11
588.604	24448.48
588.801	24366.56
588.999	24292.83
589.196	24401.38
589.393	24133.09
589.59	24485.34
589.787	24464.86
589.984	23942.63
590.182	23854.57
590.379	24120.81
590.576	23668.2
590.773	23803.37
590.97	23483.89
591.167	23645.68
591.364	23797.23
591.561	23485.93
591.758	23629.29
591.955	23358.96
592.152	23453.17
592.349	23086.58
592.546	23565.81
592.743	23295.47
592.94	23090.68
593.137	23045.62
593.334	23420.4
593.531	22740.47
593.727	22650.36
593.924	22879.74
594.121	22568.44
594.318	22982.13
594.515	22269.44
594.712	22676.99
594.908	22416.9
595.105	22562.3
595.302	22121.99
595.499	22560.25
595.696	22050.31
595.892	22023.69
596.089	22111.75
596.286	22095.36
596.482	21904.9
596.679	21980.68
596.876	22011.4
597.072	21773.83
597.269	22023.69
597.466	21687.82
597.662	21523.98
597.859	21618.19
598.055	21763.59
598.252	21579.28
598.448	21374.48
598.645	21478.93
598.841	21431.82
599.038	21351.95
599.234	21327.38
599.431	20962.84
599.627	21345.81
599.824	21440.01
600.02	20823.58
600.217	21198.35
600.413	20956.69
600.609	20811.29
600.806	20846.1
601.002	20997.65
601.198	20600.35
601.395	20651.55
601.591	20551.2
601.787	20420.13
601.984	20252.19
602.18	20543
602.376	20377.12
602.572	20084.26
602.769	20397.6
602.965	20180.51
603.161	20301.34
603.357	20022.82
603.553	19912.23
603.75	20012.58
603.946	19703.34
604.142	20366.88
604.338	19623.47
604.534	19756.58
604.73	19564.07
604.926	19631.66
605.122	19486.25
605.318	19461.68
605.514	19322.41
605.71	19430.96
605.906	19351.09
606.102	19416.62
606.298	19426.86
606.494	19365.42
606.69	19185.2
606.886	19226.16
607.082	18810.42
607.278	19156.53
607.474	18964.02
607.67	18959.92
607.866	18787.89
608.062	19045.94
608.257	18896.44
608.453	18714.17
608.649	18867.77
608.845	18662.97
609.041	18370.11
609.236	18693.69
609.432	18787.89
609.628	18943.54
609.824	18511.42
610.019	18400.83
610.215	18449.98
610.411	18447.93
610.606	18460.22
610.802	18566.71
610.998	18353.73
611.193	18134.59
611.389	18198.08
611.584	18374.2
611.78	18116.16
611.976	18130.5
612.171	18165.31
612.367	18239.04
612.562	18017.86
612.758	17894.98
612.953	17704.52
613.149	18165.31
613.344	17972.8
613.539	18005.57
613.735	18069.06
613.93	18120.26
614.126	17925.7
614.321	18132.54
614.517	17903.17
614.712	17725
614.907	17872.45
615.103	17897.03
615.298	17479.24
615.493	18114.11
615.688	17405.52
615.884	18095.68
616.079	17546.83
616.274	17555.02
616.47	17612.36
616.665	17473.1
616.86	17395.28
617.055	17399.37
617.25	17417.8
617.445	17450.57
617.641	17153.62
617.836	17354.32
618.031	17239.63
618.226	17194.57
618.421	17239.63
618.616	17157.71
618.811	16989.78
619.006	17239.63
619.201	16868.95
619.396	16907.86
619.591	16528.99
619.786	16891.48
619.981	16727.64
620.176	16709.21
620.371	16287.32
620.566	16645.72
620.761	16234.08
620.956	16428.63
621.151	16324.19
621.346	16365.15
621.541	15775.33
621.735	16207.45
621.93	15674.98
622.125	15894.11
622.32	15730.28
622.515	15703.65
622.709	15687.27
622.904	15777.38
623.099	15556.2
623.294	15582.82
623.488	15470.19
623.683	15447.66
623.878	15259.24
624.072	15183.47
624.267	15152.75
624.462	15218.29
624.656	15111.79
624.851	15025.78
625.046	14884.47
625.24	14747.25
625.435	14657.14
625.629	14786.16
625.824	14634.61
626.018	14464.63
626.213	14200.44
626.407	14251.64
626.602	14143.1
626.796	14229.12
626.991	14175.87
627.185	14114.43
627.38	13921.92
627.574	13858.43
627.768	13715.08
627.963	13764.23
628.157	13344.39
628.352	13559.43
628.546	13475.46
628.74	13426.31
628.935	13280.91
629.129	13258.38
629.323	13069.97
629.517	13133.45
629.712	13102.73
629.906	13139.6
630.1	12869.26
630.294	12973.71
630.489	12797.59
630.683	12889.74
630.877	12641.94
631.071	12613.27
631.265	12748.43
631.459	12615.32
631.653	12600.98
631.848	12451.48
632.042	12287.64
632.236	12428.95
632.43	12207.77
632.624	12172.96
632.818	12236.44
633.012	12125.85
633.206	12045.98
633.4	12050.08
633.594	11724.45
633.788	11951.77
633.982	11638.44
634.176	11577
634.369	11740.83
634.563	11804.32
634.757	11515.56
634.951	11407.02
635.145	11507.37
635.339	11409.06
635.533	11392.68
635.726	11179.69
635.92	11249.32
636.114	11255.47
636.308	10933.93
636.501	11128.49
636.695	10917.55
636.889	10776.24
637.083	10759.86
637.276	10940.08
637.47	10704.56
637.664	10778.29
637.857	10772.14
638.051	10667.7
638.244	10510
638.438	10647.22
638.632	10583.73
638.825	10348.22
639.019	10223.29
639.212	10280.63
639.406	10051.26
639.599	10106.56
639.793	10198.71
639.986	10116.79
640.18	10104.51
640.373	9957.05
640.567	10016.44
640.76	9985.72
640.954	9742.02
641.147	9666.24
641.34	9662.15
641.534	9864.89
641.727	9885.37
641.92	9774.78
642.114	9373.38
642.307	9436.87
642.5	9391.81
642.694	9397.96
642.887	9264.84
643.08	9551.56
643.273	9277.13
643.467	9236.17
643.66	9123.53
643.853	9101
644.046	9076.43
644.239	9043.66
644.432	8943.31
644.626	8822.48
644.819	8900.3
645.012	8824.53
645.205	8705.74
645.398	8933.07
645.591	8726.22
645.784	8695.5
645.977	8566.48
646.17	8632.02
646.363	8412.88
646.556	8472.28
646.749	8488.66
646.942	8345.3
647.135	8392.41
647.328	8228.57
647.521	8404.69
647.714	8109.79
647.907	8294.1
648.099	8152.79
648.292	8183.51
648.485	8238.81
648.678	8230.62
648.871	7991
649.064	7900.89
649.256	7993.05
649.449	7911.13
649.642	7759.58
649.835	7861.98
650.027	7849.69
650.22	7831.26
650.413	7626.46
650.605	7773.92
650.798	7837.41
650.991	7657.18
651.183	7468.77
651.376	7370.47
651.568	7716.58
651.761	7292.65
651.954	7419.62
652.146	7130.86
652.339	7263.97
652.531	7261.93
652.724	7296.74
652.916	7018.22
653.109	7257.83
653.301	6987.5
653.494	7182.06
653.686	6897.39
653.879	7114.47
654.071	7100.14
654.263	6762.22
654.456	6905.58
654.648	6934.25
654.84	6774.51
655.033	6846.19
655.225	6829.81
655.417	6573.81
655.61	6840.04
655.802	6749.93
655.994	6571.76
656.186	6594.29
656.379	6610.67
656.571	6563.57
656.763	6518.51
656.955	6428.4
657.148	6459.12
657.34	6514.42
657.532	6440.69
657.724	6403.83
657.916	6344.44
658.108	6295.29
658.3	6344.44
658.492	6289.14
658.684	6194.93
658.876	6336.24
659.068	6229.75
659.26	6237.94
659.452	6092.54
659.644	6213.37
659.836	6031.1
660.028	6070.01
660.22	5908.22
660.412	5979.9
660.604	5961.47
660.796	5971.71
660.988	5897.98
661.18	5869.31
661.372	5736.19
661.563	5754.62
661.755	5736.19
661.947	5621.5
662.139	5635.84
662.331	5625.6
662.522	5605.12
662.714	5535.49
662.906	5660.41
663.097	5486.34
663.289	5416.71
663.481	5424.9
663.673	5451.52
663.864	5439.23
664.056	5506.82
664.247	5564.16
664.439	5383.94
664.631	5150.47
664.822	5244.68
665.014	5183.24
665.205	5132.04
665.397	5107.46
665.588	5302.02
665.78	5113.61
665.971	5191.43
666.163	5066.5
666.354	5285.64
666.546	5314.31
666.737	5123.85
666.929	5170.95
667.12	5015.3
667.311	4904.71
667.503	5080.84
667.694	4970.25
667.885	5021.45
668.077	4755.21
668.268	4919.05
668.459	4753.16
668.651	4751.12
668.842	4964.11
669.033	4777.74
669.224	4724.49
669.416	4824.84
669.607	4830.99
669.798	4783.88
669.989	4654.86
670.18	4710.16
670.371	4601.62
670.563	4495.12
670.754	4691.73
670.945	4558.61
671.136	4550.42
671.327	4577.04
671.518	4542.22
671.709	4642.57
671.9	4646.67
672.091	4466.45
672.282	4474.64
672.473	4466.45
672.664	4505.36
672.855	4370.19
673.046	4454.16
673.237	4425.49
673.428	4411.15
673.619	4443.92
673.809	4314.9
674	4321.04
674.191	4402.96
674.382	4218.64
674.573	4419.35
674.764	4204.31
674.954	4218.64
675.145	4226.84
675.336	4181.78
675.527	4163.35
675.717	4167.45
675.908	4269.84
676.099	4208.41
676.289	4222.74
676.48	4089.62
676.671	4022.04
676.861	4206.36
677.052	4173.59
677.243	3983.13
677.433	4118.29
677.624	4212.5
677.814	4146.97
678.005	4005.66
678.195	4017.94
678.386	4077.34
678.576	3964.7
678.767	3856.15
678.957	3933.98
679.148	4015.9
679.338	3983.13
679.529	3964.7
679.719	3870.49
679.909	3864.35
680.1	3899.16
680.29	3825.43
680.481	3870.49
680.671	3860.25
680.861	3817.24
681.052	3854.11
681.242	3878.68
681.432	3800.86
681.622	3778.33
681.813	3876.63
682.003	3852.06
682.193	3788.57
682.383	3782.43
682.573	3780.38
682.764	3720.99
682.954	3788.57
683.144	3858.2
683.334	3727.13
683.524	3641.12
683.714	3764
683.904	3669.79
684.094	3755.8
684.284	3657.5
684.474	3710.75
684.664	3618.59
684.854	3727.13
685.044	3645.21
685.234	3573.53
685.424	3510.05
685.614	3452.7
685.804	3624.73
685.994	3653.41
686.184	3524.38
686.374	3475.23
686.564	3499.81
686.753	3608.35
686.943	3534.62
687.133	3553.06
687.323	3534.62
687.513	3446.56
687.702	3454.75
687.892	3415.84
688.082	3397.41
688.272	3432.22
688.461	3393.31
688.651	3417.89
688.841	3235.62
689.03	3378.98
689.22	3360.55
689.41	3221.28
689.599	3163.94
689.789	3239.72
689.979	3297.06
690.168	3237.67
690.358	3313.44
690.547	3241.76
690.737	3190.56
690.926	3215.14
691.116	3229.48
691.305	3069.73
691.495	3161.89
691.684	3141.41
691.874	3055.4
692.063	3086.12
692.252	3082.02
692.442	3165.99
692.631	3159.85
692.82	3016.49
693.01	3010.34
693.199	2985.77
693.388	3114.79
693.578	2844.46
693.767	3034.92
693.956	2969.38
694.146	2981.67
694.335	2877.23
694.524	2887.47
694.713	2924.33
694.902	2840.36
695.092	2793.26
695.281	2920.23
695.47	2895.66
695.659	2864.94
695.848	2871.08
696.037	2899.75
696.226	2836.27
696.415	2864.94
696.604	2770.73
696.793	2776.87
696.982	2705.2
697.171	2742.06
697.36	2764.59
697.549	2858.79
697.738	2764.59
697.927	2813.74
698.116	2813.74
698.305	2684.72
698.494	2643.76
698.683	2756.4
698.872	2699.05
699.061	2692.91
699.25	2803.5
699.438	2678.57
699.627	2666.28
699.816	2801.45
700.005	2768.68
700.193	2750.25
700.382	2588.46
700.571	2715.44
700.76	2582.32
700.948	2545.45
701.137	2629.42
701.326	2621.23
701.514	2588.46
701.703	2633.52
701.892	2610.99
702.08	2756.4
702.269	2598.7
702.457	2600.75
702.646	2635.57
702.834	2553.65
703.023	2539.31
703.212	2557.74
703.4	2594.61
703.589	2690.86
703.777	2680.62
703.965	2559.79
704.154	2668.33
704.342	2524.97
704.531	2473.78
704.719	2694.96
704.907	2600.75
705.096	2432.82
705.284	2621.23
705.472	2498.35
705.661	2608.94
705.849	2533.17
706.037	2572.08
706.226	2529.07
706.414	2537.26
706.602	2596.65
706.79	2600.75
706.979	2551.6
707.167	2490.16
707.355	2588.46
707.543	2604.85
707.731	2486.06
707.919	2508.59
708.107	2541.36
708.296	2385.71
708.484	2520.88
708.672	2547.5
708.86	2516.78
709.048	2533.17
709.236	2453.3
709.424	2582.32
709.612	2578.22
709.8	2529.07
709.988	2531.12
710.176	2596.65
710.364	2524.97
710.551	2330.42
710.739	2514.73
710.927	2610.99
711.115	2494.26
711.303	2561.84
711.491	2441.01
711.679	2649.9
711.866	2498.35
712.054	2469.68
712.242	2510.64
712.43	2641.71
712.617	2563.89
712.805	2533.17
712.993	2639.66
713.181	2412.34
713.368	2506.54
713.556	2567.98
713.744	2582.32
713.931	2467.63
714.119	2627.37
714.306	2578.22
714.494	2463.54
714.682	2613.04
714.869	2508.59
715.057	2443.06
715.244	2613.04
715.432	2629.42
715.619	2461.49
715.807	2422.58
715.994	2494.26
716.182	2496.3
716.369	2475.82
716.556	2543.41
716.744	2457.39
716.931	2436.91
717.119	2494.26
717.306	2492.21
717.493	2500.4
717.681	2488.11
717.868	2492.21
718.055	2527.02
718.242	2451.25
718.43	2469.68
718.617	2555.69
718.804	2610.99
718.991	2457.39
719.179	2570.03
719.366	2424.62
719.553	2524.97
719.74	2500.4
719.927	2666.28
720.114	2434.86
720.301	2551.6
720.488	2504.5
720.676	2527.02
720.863	2504.5
721.05	2426.67
721.237	2490.16
721.424	2557.74
721.611	2506.54
721.798	2465.58
721.985	2627.37
722.172	2455.34
722.358	2510.64
722.545	2484.02
722.732	2410.29
722.919	2541.36
723.106	2467.63
723.293	2486.06
723.48	2570.03
723.667	2576.17
723.853	2522.93
724.04	2656.04
724.227	2527.02
724.414	2467.63
724.6	2445.1
724.787	2451.25
724.974	2561.84
725.161	2563.89
725.347	2350.9
725.534	2445.1
725.72	2604.85
725.907	2524.97
726.094	2492.21
726.28	2574.13
726.467	2449.2
726.653	2559.79
726.84	2500.4
727.027	2570.03
727.213	2488.11
727.4	2604.85
727.586	2490.16
727.773	2520.88
727.959	2475.82
728.145	2563.89
728.332	2481.97
728.518	2451.25
728.705	2467.63
728.891	2451.25
729.077	2467.63
729.264	2395.95
729.45	2459.44
729.636	2459.44
729.823	2453.3
730.009	2633.52
730.195	2336.56
730.382	2461.49
730.568	2447.15
730.754	2459.44
730.94	2418.48
731.126	2387.76
731.313	2565.93
731.499	2582.32
731.685	2484.02
731.871	2570.03
732.057	2574.13
732.243	2524.97
732.429	2524.97
732.615	2516.78
732.801	2572.08
732.987	2551.6
733.173	2488.11
733.359	2500.4
733.545	2516.78
733.731	2424.62
733.917	2522.93
734.103	2502.45
734.289	2465.58
734.475	2557.74
734.661	2498.35
734.847	2541.36
735.033	2408.24
735.219	2461.49
735.404	2373.43
735.59	2527.02
735.776	2422.58
735.962	2590.51
736.148	2567.98
736.333	2551.6
736.519	2524.97
736.705	2500.4
736.89	2395.95
737.076	2441.01
737.262	2373.43
737.447	2426.67
737.633	2373.43
737.819	2453.3
738.004	2500.4
738.19	2486.06
738.375	2434.86
738.561	2330.42
738.747	2469.68
738.932	2463.54
739.118	2316.08
739.303	2359.09
739.489	2467.63
739.674	2385.71
739.859	2393.9
740.045	2375.47
740.23	2533.17
740.416	2383.66
740.601	2416.43
740.786	2324.27
740.972	2283.31
741.157	2375.47
741.342	2305.84
741.528	2432.82
741.713	2416.43
741.898	2285.36
742.084	2242.36
742.269	2264.88
742.454	2334.51
742.639	2191.16
742.824	2367.28
743.01	2330.42
743.195	2154.29
743.38	2207.54
743.565	2291.51
743.75	2322.23
743.935	2266.93
744.12	2254.64
744.305	2205.49
744.49	2039.61
744.675	2174.77
744.86	2111.29
745.045	2234.16
745.23	2109.24
745.415	2119.48
745.6	2228.02
745.785	2047.8
745.97	2187.06
746.155	2152.24
746.34	2074.42
746.525	2045.75
746.71	2049.85
746.895	2047.8
747.079	2045.75
747.264	1945.4
747.449	2031.41
747.634	1994.55
747.819	1967.93
748.003	1906.49
748.188	1988.41
748.373	1984.31
748.557	1912.63
748.742	1906.49
748.927	1869.62
749.111	1859.38
749.296	1959.74
749.481	1863.48
749.665	1812.28
749.85	1892.15
750.034	1967.93
750.219	1810.23
750.404	1904.44
750.588	1818.43
750.773	1769.27
750.957	1783.61
751.141	1777.47
751.326	1720.12
751.51	1799.99
751.695	1754.94
751.879	1754.94
752.064	1718.08
752.248	1636.16
752.432	1666.88
752.617	1695.55
752.801	1693.5
752.985	1613.63
753.17	1599.29
753.354	1711.93
753.538	1617.72
753.722	1705.79
753.907	1646.4
754.091	1632.06
754.275	1564.48
754.459	1603.39
754.643	1550.14
754.828	1570.62
755.012	1580.86
755.196	1521.47
755.38	1568.57
755.564	1552.19
755.748	1457.98
755.932	1513.28
756.116	1513.28
756.3	1478.46
756.484	1517.37
756.668	1474.37
756.852	1455.94
757.036	1433.41
757.22	1378.11
757.404	1363.78
757.588	1361.73
757.772	1488.7
757.956	1423.17
758.14	1462.08
758.323	1314.63
758.507	1361.73
758.691	1306.43
758.875	1367.87
759.059	1314.63
759.242	1273.67
759.426	1302.34
759.61	1296.19
759.794	1281.86
759.977	1206.08
760.161	1365.82
760.345	1275.71
760.528	1290.05
760.712	1247.04
760.895	1189.7
761.079	1236.8
761.263	1296.19
761.446	1214.27
761.63	1195.84
761.813	1185.6
761.997	1220.42
762.18	1154.88
762.364	1171.27
762.547	1103.68
762.731	1210.18
762.914	1275.71
763.098	1099.59
763.281	1220.42
763.464	1126.21
763.648	1093.44
763.831	1154.88
764.015	1105.73
764.198	1101.64
764.381	1120.07
764.564	1107.78
764.748	1122.12
764.931	1158.98
765.114	1134.4
765.297	1140.55
765.481	997.19
765.664	1136.45
765.847	1130.31
766.03	1122.12
766.213	1142.6
766.397	1072.96
766.58	1038.15
766.763	1095.49
766.946	1079.11
767.129	952.13
767.312	980.81
767.495	1015.62
767.678	1122.12
767.861	1011.53
768.044	937.8
768.227	1048.39
768.41	1003.33
768.593	1089.35
768.776	1126.21
768.959	1029.96
769.142	1036.1
769.324	962.37
769.507	1013.57
769.69	997.19
769.873	943.94
770.056	921.42
770.239	960.33
770.421	864.07
770.604	976.71
770.787	884.55
770.97	917.32
771.152	907.08
771.335	902.98
771.518	909.13
771.7	954.18
771.883	958.28
772.066	954.18
772.248	862.02
772.431	937.8
772.613	857.93
772.796	892.74
772.978	1042.25
773.161	827.21
773.343	853.83
773.526	827.21
773.708	847.69
773.891	802.63
774.073	905.03
774.256	882.5
774.438	821.06
774.621	823.11
774.803	866.12
774.985	696.14
775.168	851.78
775.35	794.44
775.532	784.2
775.715	847.69
775.897	804.68
776.079	794.44
776.261	786.25
776.444	749.39
776.626	786.25
776.808	755.53
776.99	773.96
777.173	780.11
777.355	718.67
777.537	702.28
777.719	616.27
777.901	749.39
778.083	739.15
778.265	778.06
778.447	716.62
778.629	706.38
778.811	722.76
778.993	737.1
779.175	685.9
779.357	675.66
779.539	618.32
779.721	649.04
779.903	687.95
780.085	673.61
780.267	560.97
780.449	651.08
780.631	673.61
780.812	671.56
780.994	603.98
781.176	692.04
781.358	599.88
781.54	636.75
781.721	649.04
781.903	585.55
782.085	649.04
782.267	628.56
782.448	599.88
782.63	655.18
782.812	618.32
782.993	573.26
783.175	622.41
783.357	548.68
783.538	558.92
783.72	581.45
783.901	552.78
784.083	487.25
784.264	560.97
784.446	546.64
784.627	526.16
784.809	587.6
784.99	548.68
785.172	556.88
785.353	520.01
785.535	509.77
785.716	528.21
785.897	530.25
786.079	489.29
786.26	501.58
786.441	434
786.623	429.9
786.804	532.3
786.985	515.92
787.167	446.29
787.348	458.57
787.529	454.48
787.71	544.59
787.891	452.43
788.073	429.9
788.254	444.24
788.435	503.63
788.616	505.68
788.797	474.96
788.978	487.25
789.159	380.75
789.34	425.81
789.522	472.91
789.703	364.37
789.884	397.14
790.065	390.99
790.246	417.61
790.427	390.99
790.607	507.73
790.788	448.33
790.969	438.09
791.15	403.28
791.331	333.65
791.512	419.66
791.693	429.9
791.874	354.13
792.054	429.9
792.235	415.57
792.416	368.46
792.597	319.31
792.778	372.56
792.958	448.33
793.139	323.41
793.32	347.98
793.5	335.7
793.681	331.6
793.862	411.47
794.042	325.46
794.223	313.17
794.404	376.66
794.584	286.54
794.765	370.51
794.945	339.79
795.126	337.74
795.306	374.61
795.487	362.32
795.667	380.75
795.848	380.75
796.028	331.6
796.209	280.4
796.389	278.35
796.57	390.99
796.75	282.45
796.93	315.22
797.111	347.98
797.291	329.55
797.471	294.74
797.652	284.5
797.832	278.35
798.012	325.46
798.192	196.43
798.373	266.07
798.553	247.63
798.733	243.54
798.913	270.16
799.093	229.2
799.274	292.69
799.454	329.55
799.634	327.5
799.814	276.31
799.994	292.69
800.174	286.54
800.354	280.4
800.534	261.97
800.714	221.01
800.894	227.15
801.074	251.73
801.254	284.5
801.434	206.67
801.614	321.36
801.794	169.81
801.974	704.33
802.154	233.3
802.334	290.64
802.514	200.53
802.693	241.49
802.873	190.29
803.053	286.54
803.233	212.82
803.413	272.21
803.592	223.06
803.772	157.52
803.952	221.01
804.131	165.71
804.311	208.72
804.491	202.58
804.67	223.06
804.85	249.68
805.03	241.49
805.209	206.67
805.389	257.87
805.568	241.49
805.748	190.29
805.928	218.96
806.107	190.29
806.287	175.95
806.466	182.1
806.646	212.82
806.825	286.54
807.004	268.11
807.184	208.72
807.363	223.06
807.543	180.05
807.722	194.39
807.901	233.3
808.081	214.87
808.26	175.95
808.439	167.76
808.619	249.68
808.798	167.76
808.977	153.43
809.156	178
809.336	202.58
809.515	194.39
809.694	247.63
809.873	169.81
810.052	229.2
810.231	212.82
810.411	139.09
810.59	212.82
810.769	165.71
810.948	130.9
811.127	190.29
811.306	204.63
811.485	94.04
811.664	132.95
811.843	214.87
812.022	188.24
812.201	132.95
812.38	173.91
812.559	188.24
812.737	227.15
812.916	159.57
813.095	196.43
813.274	171.86
813.453	120.66
813.632	202.58
813.811	212.82
813.989	81.75
814.168	212.82
814.347	171.86
814.526	180.05
814.704	231.25
814.883	214.87
815.062	159.57
815.24	227.15
815.419	130.9
815.598	135
815.776	145.24
815.955	192.34
816.133	151.38
816.312	274.26
816.49	132.95
816.669	186.19
816.847	208.72
817.026	214.87
817.204	192.34
817.383	184.15
817.561	116.56
817.74	216.91
817.918	196.43
818.097	130.9
818.275	184.15
818.453	194.39
818.632	163.67
818.81	173.91
818.988	147.28
819.167	190.29
819.345	145.24
819.523	186.19
819.701	139.09
819.879	126.8
820.058	75.6
820.236	190.29
820.414	116.56
820.592	135
820.77	100.18
820.948	145.24
821.127	163.67
821.305	159.57
821.483	130.9
821.661	139.09
821.839	135
822.017	126.8
822.195	161.62
822.373	100.18
822.551	120.66
822.729	161.62
822.907	120.66
823.085	143.19
823.262	186.19
823.44	91.99
823.618	155.47
823.796	126.8
823.974	73.56
824.152	77.65
824.329	221.01
824.507	118.61
824.685	102.23
824.863	81.75
825.04	116.56
825.218	157.52
825.396	171.86
825.574	20.31
825.751	114.52
825.929	180.05
826.107	163.67
826.284	100.18
826.462	104.28
826.639	159.57
826.817	102.23
826.994	139.09
827.172	79.7
827.349	106.32
827.527	104.28
827.704	98.13
827.882	42.84
828.059	83.8
828.237	73.56
828.414	182.1
828.591	42.84
828.769	102.23
828.946	53.08
829.124	128.85
829.301	91.99
829.478	126.8
829.655	89.94
829.833	94.04
830.01	48.98
830.187	137.04
830.364	61.27
830.542	122.71
830.719	61.27
830.896	132.95
831.073	114.52
831.25	132.95
831.427	98.13
831.604	106.32
831.782	28.5
831.959	73.56
832.136	137.04
832.313	81.75
832.49	38.74
832.667	173.91
832.844	-16.55
833.021	40.79
833.198	128.85
833.374	69.46
833.551	79.7
833.728	77.65
833.905	67.41
834.082	55.12
834.259	118.61
834.436	143.19
834.612	51.03
834.789	77.65
834.966	10.07
835.143	98.13
835.319	42.84
835.496	14.17
835.673	118.61
835.85	159.57
836.026	104.28
836.203	89.94
836.38	147.28
836.556	36.69
836.733	20.31
836.909	116.56
837.086	67.41
837.262	30.55
837.439	116.56
837.616	51.03
837.792	110.42
837.968	34.64
838.145	61.27
838.321	55.12
838.498	55.12
838.674	108.37
838.851	77.65
839.027	122.71
839.203	57.17
839.38	48.98
839.556	91.99
839.732	83.8
839.909	96.08
840.085	59.22
840.261	143.19
840.437	83.8
840.614	1.88
840.79	143.19
840.966	61.27
841.142	-37.03
841.318	116.56
841.494	26.45
841.671	26.45
841.847	40.79
842.023	75.6
842.199	98.13
842.375	65.36
842.551	55.12
842.727	30.55
842.903	91.99
843.079	34.64
843.255	141.14
843.431	34.64
843.607	89.94
843.783	38.74
843.959	48.98
844.134	48.98
844.31	147.28
844.486	28.5
844.662	94.04
844.838	46.93
845.013	98.13
845.189	36.69
845.365	94.04
845.541	67.41
845.716	96.08
845.892	36.69
846.068	-22.7
846.244	40.79
846.419	124.76
846.595	83.8
846.77	69.46
846.946	61.27
847.122	94.04
847.297	75.6
847.473	10.07
847.648	18.26
847.824	26.45
847.999	44.88
848.175	32.6
848.35	61.27
848.526	75.6
848.701	63.32
848.876	34.64
849.052	-6.31
849.227	40.79
849.403	36.69
849.578	32.6
849.753	73.56
849.929	48.98
850.104	40.79
850.279	63.32
850.454	81.75
850.63	61.27
850.805	-55.47
850.98	106.32
851.155	24.4
851.33	30.55
851.505	67.41
851.681	55.12
851.856	12.12
852.031	44.88
852.206	147.28
852.381	83.8
852.556	59.22
852.731	-28.84
852.906	120.66
853.081	8.02
853.256	48.98
853.431	30.55
853.606	48.98
853.781	24.4
853.956	38.74
854.131	51.03
854.305	24.4
854.48	36.69
854.655	48.98
854.83	46.93
855.005	59.22
855.18	14.17
855.354	34.64
855.529	26.45
855.704	67.41
855.879	63.32
856.053	-18.6
856.228	26.45
856.403	-26.79
856.577	108.37
856.752	-45.23
856.926	79.7
857.101	12.12
857.276	79.7
857.45	18.26
857.625	34.64
857.799	34.64
857.974	57.17
858.148	44.88
858.323	-2.22
858.497	69.46
858.672	79.7
858.846	-10.41
859.02	28.5
859.195	-2.22
859.369	67.41
859.543	108.37
859.718	46.93
859.892	48.98
860.066	32.6
860.241	36.69
860.415	102.23
860.589	48.98
860.763	-16.55
860.938	28.5
861.112	73.56
861.286	-20.65
861.46	42.84
861.634	24.4
861.808	71.51
861.982	32.6
862.157	16.21
862.331	5.97
862.505	42.84
862.679	18.26
862.853	36.69
863.027	59.22
863.201	46.93
863.375	34.64
863.549	-41.13
863.722	36.69
863.896	30.55
864.07	8.02
864.244	53.08
864.418	34.64
864.592	22.36
864.766	22.36
864.939	77.65
865.113	40.79
865.287	44.88
865.461	-28.84
865.634	20.31
865.808	32.6
865.982	85.84
866.156	8.02
866.329	28.5
866.503	-0.17
866.676	71.51
866.85	16.21
867.024	-39.08
867.197	75.6
867.371	20.31
867.544	-34.99
867.718	12.12
867.891	22.36
868.065	26.45
868.238	-12.46
868.412	3.93
868.585	-0.17
868.759	77.65
868.932	46.93
869.105	12.12
869.279	63.32
869.452	-10.41
869.625	96.08
869.799	44.88
869.972	12.12
870.145	16.21
870.319	96.08
870.492	-6.31
870.665	8.02
870.838	10.07
871.011	-0.17
871.185	61.27
871.358	8.02
871.531	126.8
871.704	-4.27
871.877	-34.99
872.05	3.93
872.223	57.17
872.396	59.22
872.569	48.98
872.742	-53.42
872.915	14.17
873.088	53.08
873.261	42.84
873.434	34.64
873.607	51.03
873.78	77.65
873.953	24.4
874.126	59.22
874.299	18.26
874.471	59.22
874.644	24.4
874.817	-26.79
874.99	100.18
875.163	143.19
875.335	-8.36
875.508	-10.41
875.681	57.17
875.853	20.31
876.026	40.79
876.199	3.93
876.371	77.65
876.544	24.4
876.717	-2.22
876.889	3.93
877.062	40.79
877.234	18.26
877.407	44.88
877.579	-55.47
877.752	8.02
877.924	8.02
878.097	24.4
878.269	-2.22
878.442	69.46
878.614	22.36
878.786	67.41
878.959	34.64
879.131	44.88
879.303	-41.13
879.476	3.93
879.648	-53.42
879.82	-37.03
879.993	98.13
880.165	91.99
880.337	18.26
880.509	94.04
880.681	-18.6
880.854	-0.17
881.026	-0.17
881.198	53.08
881.37	-34.99
881.542	65.36
881.714	-2.22
881.886	28.5
882.058	5.97
882.23	-32.94
882.402	40.79
882.574	42.84
882.746	48.98
882.918	-32.94
883.09	67.41
883.262	-18.6
883.434	-41.13
883.606	28.5
883.778	55.12
883.95	112.47
884.122	16.21
884.293	61.27
884.465	38.74
884.637	77.65
884.809	26.45
884.98	59.22
885.152	30.55
885.324	16.21
885.496	12.12
885.667	77.65
885.839	85.84
886.011	63.32
886.182	-18.6
886.354	65.36
886.525	30.55
886.697	-10.41
886.869	-73.9
887.04	34.64
887.212	32.6
887.383	71.51
887.555	-14.51
887.726	24.4
887.897	26.45
888.069	-59.56
888.24	79.7
888.412	59.22
888.583	-22.7
888.754	24.4
888.926	26.45
889.097	36.69
889.268	-45.23
889.44	65.36
889.611	-67.75
889.782	18.26
889.953	-24.75
890.125	63.32
890.296	-10.41
890.467	40.79
890.638	40.79
890.809	-0.17
890.98	36.69
891.151	-8.36
891.323	59.22
891.494	57.17
891.665	24.4
891.836	36.69
892.007	10.07
892.178	46.93
892.349	8.02
892.52	51.03
892.691	8.02
892.862	53.08
893.032	5.97
893.203	79.7
893.374	20.31
893.545	51.03
893.716	40.79
893.887	10.07
894.057	-32.94
894.228	26.45
894.399	-20.65
894.57	5.97
894.74	44.88
894.911	46.93
895.082	-4.27
895.253	5.97
895.423	-51.37
895.594	-10.41
895.764	63.32
895.935	40.79
896.106	-32.94
896.276	-8.36
896.447	53.08
896.617	28.5
896.788	-49.32
896.958	46.93
897.129	28.5
897.299	-8.36
897.47	48.98
897.64	22.36
897.81	-12.46
897.981	-10.41
898.151	16.21
898.322	-28.84
898.492	3.93
898.662	1.88
898.832	-8.36
899.003	73.56
899.173	34.64
899.343	48.98
899.513	57.17
