Data from USB4F104151__94__12-28-18-368.txt Node

Date: Fri Mar 14 12:28:18 EDT 2025
User: louis
Spectrometer: USB4F10415
Trigger mode: 4
Integration Time (sec): 2.000000E-2
Scans to average: 1
Electric dark correction enabled: true
Nonlinearity correction enabled: false
Boxcar width: 0
XAxis mode: Wavelengths
Number of Pixels in Spectrum: 3648
>>>>>Begin Spectral Data<<<<<
178.204	-51.37
178.424	-51.37
178.644	-51.37
178.864	-55.47
179.084	-127.14
179.304	-32.94
179.524	-16.55
179.744	-22.7
179.964	1.88
180.184	10.07
180.404	24.4
180.624	67.41
180.844	3.93
181.064	-32.94
181.283	-0.17
181.503	10.07
181.723	-12.46
181.943	-67.75
182.163	69.46
182.383	42.84
182.602	18.26
182.822	57.17
183.042	67.41
183.262	44.88
183.482	18.26
183.701	44.88
183.921	-2.22
184.141	-28.84
184.361	85.84
184.58	1.88
184.8	24.4
185.02	16.21
185.239	44.88
185.459	38.74
185.679	-6.31
185.898	-8.36
186.118	16.21
186.338	22.36
186.557	42.84
186.777	46.93
186.997	12.12
187.216	30.55
187.436	122.71
187.655	61.27
187.875	8.02
188.095	26.45
188.314	73.56
188.534	26.45
188.753	-24.75
188.973	24.4
189.192	57.17
189.412	18.26
189.631	30.55
189.851	40.79
190.07	75.6
190.29	-14.51
190.509	42.84
190.729	67.41
190.948	57.17
191.168	102.23
191.387	16.21
191.607	-47.27
191.826	32.6
192.045	-69.8
192.265	46.93
192.484	14.17
192.704	10.07
192.923	-53.42
193.142	-18.6
193.362	77.65
193.581	59.22
193.8	65.36
194.02	108.37
194.239	116.56
194.458	-26.79
194.678	1.88
194.897	-30.89
195.116	32.6
195.335	3.93
195.555	5.97
195.774	44.88
195.993	36.69
196.212	18.26
196.432	57.17
196.651	38.74
196.87	-57.51
197.089	59.22
197.308	28.5
197.528	83.8
197.747	-2.22
197.966	36.69
198.185	48.98
198.404	79.7
198.623	-0.17
198.842	1.88
199.062	3.93
199.281	48.98
199.5	-18.6
199.719	-10.41
199.938	55.12
200.157	-49.32
200.376	48.98
200.595	48.98
200.814	46.93
201.033	-22.7
201.252	40.79
201.471	-2.22
201.69	10.07
201.909	89.94
202.128	1.88
202.347	65.36
202.566	-39.08
202.785	-18.6
203.004	73.56
203.223	94.04
203.442	34.64
203.661	1.88
203.879	-39.08
204.098	38.74
204.317	-82.09
204.536	-28.84
204.755	67.41
204.974	61.27
205.193	-26.79
205.411	34.64
205.63	24.4
205.849	-12.46
206.068	-67.75
206.287	67.41
206.505	34.64
206.724	87.89
206.943	34.64
207.162	10.07
207.381	38.74
207.599	-39.08
207.818	12.12
208.037	16.21
208.255	53.08
208.474	67.41
208.693	30.55
208.911	12.12
209.13	-2.22
209.349	-24.75
209.567	63.32
209.786	51.03
210.005	-0.17
210.223	16.21
210.442	40.79
210.661	-14.51
210.879	36.69
211.098	8.02
211.316	5.97
211.535	10.07
211.753	30.55
211.972	38.74
212.191	57.17
212.409	-28.84
212.628	-12.46
212.846	12.12
213.065	-30.89
213.283	40.79
213.502	20.31
213.72	12.12
213.938	-34.99
214.157	18.26
214.375	40.79
214.594	20.31
214.812	51.03
215.031	44.88
215.249	24.4
215.467	83.8
215.686	24.4
215.904	65.36
216.122	-32.94
216.341	-8.36
216.559	24.4
216.778	75.6
216.996	8.02
217.214	46.93
217.432	3.93
217.651	65.36
217.869	36.69
218.087	30.55
218.306	36.69
218.524	67.41
218.742	40.79
218.96	-6.31
219.179	30.55
219.397	28.5
219.615	114.52
219.833	30.55
220.051	-18.6
220.27	38.74
220.488	38.74
220.706	8.02
220.924	16.21
221.142	-16.55
221.36	30.55
221.578	32.6
221.796	18.26
222.015	22.36
222.233	36.69
222.451	59.22
222.669	30.55
222.887	48.98
223.105	5.97
223.323	44.88
223.541	-22.7
223.759	81.75
223.977	12.12
224.195	83.8
224.413	71.51
224.631	63.32
224.849	102.23
225.067	61.27
225.285	1.88
225.503	57.17
225.721	26.45
225.939	32.6
226.157	28.5
226.375	30.55
226.592	-8.36
226.81	18.26
227.028	73.56
227.246	67.41
227.464	-28.84
227.682	40.79
227.9	16.21
228.117	1.88
228.335	-45.23
228.553	-0.17
228.771	24.4
228.989	-2.22
229.206	59.22
229.424	24.4
229.642	12.12
229.86	61.27
230.077	65.36
230.295	28.5
230.513	26.45
230.731	-0.17
230.948	22.36
231.166	63.32
231.384	48.98
231.601	-30.89
231.819	18.26
232.037	-10.41
232.254	-30.89
232.472	-28.84
232.689	65.36
232.907	-4.27
233.125	44.88
233.342	85.84
233.56	36.69
233.777	-22.7
233.995	44.88
234.213	98.13
234.43	51.03
234.648	46.93
234.865	-0.17
235.083	22.36
235.3	36.69
235.518	32.6
235.735	28.5
235.953	14.17
236.17	77.65
236.388	20.31
236.605	26.45
236.822	38.74
237.04	46.93
237.257	-8.36
237.475	-37.03
237.692	24.4
237.909	18.26
238.127	-4.27
238.344	96.08
238.562	-8.36
238.779	34.64
238.996	3.93
239.214	28.5
239.431	65.36
239.648	8.02
239.865	-53.42
240.083	32.6
240.3	48.98
240.517	-57.51
240.735	-53.42
240.952	26.45
241.169	38.74
241.386	36.69
241.603	-49.32
241.821	-14.51
242.038	-37.03
242.255	-14.51
242.472	16.21
242.689	44.88
242.907	10.07
243.124	-8.36
243.341	24.4
243.558	75.6
243.775	22.36
243.992	3.93
244.209	5.97
244.426	102.23
244.643	10.07
244.86	51.03
245.078	-18.6
245.295	8.02
245.512	-18.6
245.729	-8.36
245.946	-24.75
246.163	51.03
246.38	59.22
246.597	51.03
246.814	-84.14
247.031	24.4
247.248	3.93
247.464	1.88
247.681	112.47
247.898	12.12
248.115	10.07
248.332	28.5
248.549	108.37
248.766	-4.27
248.983	28.5
249.2	36.69
249.417	-61.61
249.633	-0.17
249.85	81.75
250.067	46.93
250.284	40.79
250.501	18.26
250.717	-18.6
250.934	5.97
251.151	42.84
251.368	44.88
251.585	10.07
251.801	-69.8
252.018	-30.89
252.235	67.41
252.451	53.08
252.668	24.4
252.885	3.93
253.102	18.26
253.318	24.4
253.535	-6.31
253.752	-16.55
253.968	67.41
254.185	-4.27
254.401	5.97
254.618	28.5
254.835	-34.99
255.051	-4.27
255.268	55.12
255.484	-2.22
255.701	32.6
255.917	83.8
256.134	16.21
256.351	-51.37
256.567	61.27
256.784	51.03
257	14.17
257.217	83.8
257.433	-0.17
257.65	61.27
257.866	81.75
258.082	-10.41
258.299	-110.76
258.515	40.79
258.732	-4.27
258.948	65.36
259.165	-28.84
259.381	22.36
259.597	73.56
259.814	32.6
260.03	12.12
260.246	71.51
260.463	1.88
260.679	57.17
260.895	-10.41
261.112	5.97
261.328	59.22
261.544	18.26
261.761	75.6
261.977	53.08
262.193	-10.41
262.409	44.88
262.626	-18.6
262.842	36.69
263.058	-37.03
263.274	91.99
263.49	12.12
263.707	32.6
263.923	34.64
264.139	-0.17
264.355	53.08
264.571	38.74
264.787	8.02
265.004	85.84
265.22	61.27
265.436	-4.27
265.652	12.12
265.868	110.42
266.084	22.36
266.3	57.17
266.516	-39.08
266.732	40.79
266.948	8.02
267.164	61.27
267.38	32.6
267.596	65.36
267.812	-16.55
268.028	22.36
268.244	46.93
268.46	65.36
268.676	20.31
268.892	48.98
269.108	24.4
269.324	1.88
269.54	-73.9
269.756	77.65
269.972	8.02
270.188	48.98
270.403	-4.27
270.619	63.32
270.835	-0.17
271.051	-41.13
271.267	34.64
271.483	-65.71
271.698	-59.56
271.914	67.41
272.13	71.51
272.346	10.07
272.562	-10.41
272.777	34.64
272.993	61.27
273.209	-2.22
273.425	36.69
273.64	16.21
273.856	1.88
274.072	130.9
274.287	48.98
274.503	10.07
274.719	34.64
274.934	-16.55
275.15	-24.75
275.366	89.94
275.581	24.4
275.797	-45.23
276.012	57.17
276.228	-14.51
276.444	-6.31
276.659	63.32
276.875	44.88
277.09	112.47
277.306	-53.42
277.521	32.6
277.737	-10.41
277.952	53.08
278.168	44.88
278.383	55.12
278.599	-8.36
278.814	-22.7
279.03	61.27
279.245	155.47
279.461	59.22
279.676	3.93
279.892	59.22
280.107	14.17
280.322	38.74
280.538	59.22
280.753	22.36
280.969	63.32
281.184	-4.27
281.399	108.37
281.615	73.56
281.83	46.93
282.045	-49.32
282.26	12.12
282.476	3.93
282.691	26.45
282.906	30.55
283.122	55.12
283.337	16.21
283.552	75.6
283.767	-28.84
283.983	98.13
284.198	18.26
284.413	69.46
284.628	-18.6
284.843	18.26
285.058	14.17
285.274	44.88
285.489	-16.55
285.704	75.6
285.919	3.93
286.134	-43.18
286.349	5.97
286.564	44.88
286.779	61.27
286.995	59.22
287.21	-10.41
287.425	75.6
287.64	42.84
287.855	65.36
288.07	-18.6
288.285	94.04
288.5	44.88
288.715	63.32
288.93	16.21
289.145	-32.94
289.36	79.7
289.575	87.89
289.79	44.88
290.004	5.97
290.219	61.27
290.434	1.88
290.649	-16.55
290.864	1.88
291.079	-8.36
291.294	1.88
291.509	-49.32
291.724	48.98
291.938	44.88
292.153	32.6
292.368	-34.99
292.583	77.65
292.798	120.66
293.012	69.46
293.227	-8.36
293.442	-26.79
293.657	-39.08
293.871	5.97
294.086	5.97
294.301	30.55
294.516	65.36
294.73	65.36
294.945	24.4
295.16	22.36
295.374	-18.6
295.589	-39.08
295.804	44.88
296.018	-43.18
296.233	14.17
296.447	71.51
296.662	-4.27
296.877	83.8
297.091	5.97
297.306	67.41
297.52	3.93
297.735	8.02
297.949	-10.41
298.164	20.31
298.378	38.74
298.593	40.79
298.807	40.79
299.022	18.26
299.236	10.07
299.451	18.26
299.665	-18.6
299.88	12.12
300.094	28.5
300.309	57.17
300.523	104.28
300.737	38.74
300.952	-41.13
301.166	3.93
301.381	-14.51
301.595	-55.47
301.809	18.26
302.024	-18.6
302.238	53.08
302.452	-0.17
302.667	48.98
302.881	26.45
303.095	112.47
303.309	22.36
303.524	87.89
303.738	8.02
303.952	-12.46
304.166	59.22
304.381	-59.56
304.595	65.36
304.809	44.88
305.023	8.02
305.237	8.02
305.452	12.12
305.666	24.4
305.88	71.51
306.094	18.26
306.308	100.18
306.522	-6.31
306.736	71.51
306.95	48.98
307.164	16.21
307.379	59.22
307.593	81.75
307.807	75.6
308.021	14.17
308.235	53.08
308.449	48.98
308.663	42.84
308.877	-28.84
309.091	83.8
309.305	55.12
309.519	44.88
309.733	16.21
309.947	30.55
310.161	34.64
310.374	79.7
310.588	63.32
310.802	-34.99
311.016	57.17
311.23	-16.55
311.444	-4.27
311.658	-41.13
311.872	26.45
312.085	18.26
312.299	16.21
312.513	16.21
312.727	42.84
312.941	12.12
313.154	36.69
313.368	-18.6
313.582	36.69
313.796	32.6
314.009	-10.41
314.223	55.12
314.437	83.8
314.651	46.93
314.864	20.31
315.078	-24.75
315.292	3.93
315.505	-18.6
315.719	-14.51
315.933	16.21
316.146	79.7
316.36	-34.99
316.573	22.36
316.787	44.88
317.001	1.88
317.214	10.07
317.428	48.98
317.641	34.64
317.855	-30.89
318.068	-6.31
318.282	32.6
318.495	157.52
318.709	-2.22
318.922	-2.22
319.136	63.32
319.349	12.12
319.563	69.46
319.776	59.22
319.99	-14.51
320.203	83.8
320.417	16.21
320.63	65.36
320.843	46.93
321.057	55.12
321.27	75.6
321.483	5.97
321.697	79.7
321.91	83.8
322.124	16.21
322.337	5.97
322.55	20.31
322.763	63.32
322.977	3.93
323.19	40.79
323.403	120.66
323.617	38.74
323.83	55.12
324.043	57.17
324.256	30.55
324.469	-73.9
324.683	-37.03
324.896	3.93
325.109	53.08
325.322	-47.27
325.535	44.88
325.748	53.08
325.962	65.36
326.175	53.08
326.388	63.32
326.601	46.93
326.814	-20.65
327.027	26.45
327.24	73.56
327.453	-57.51
327.666	114.52
327.879	65.36
328.092	48.98
328.305	-0.17
328.518	26.45
328.731	10.07
328.944	108.37
329.157	75.6
329.37	-16.55
329.583	42.84
329.796	55.12
330.009	22.36
330.222	12.12
330.435	59.22
330.648	87.89
330.861	98.13
331.073	22.36
331.286	65.36
331.499	10.07
331.712	-34.99
331.925	30.55
332.138	53.08
332.35	61.27
332.563	-4.27
332.776	-8.36
332.989	94.04
333.202	30.55
333.414	26.45
333.627	-0.17
333.84	67.41
334.053	-22.7
334.265	34.64
334.478	24.4
334.691	-26.79
334.903	24.4
335.116	32.6
335.329	36.69
335.541	-4.27
335.754	73.56
335.966	-61.61
336.179	69.46
336.392	16.21
336.604	10.07
336.817	26.45
337.029	-14.51
337.242	26.45
337.454	-10.41
337.667	12.12
337.88	94.04
338.092	24.4
338.305	10.07
338.517	28.5
338.729	16.21
338.942	48.98
339.154	55.12
339.367	63.32
339.579	63.32
339.792	32.6
340.004	22.36
340.217	14.17
340.429	55.12
340.641	36.69
340.854	65.36
341.066	-32.94
341.278	112.47
341.491	122.71
341.703	-16.55
341.915	48.98
342.128	77.65
342.34	16.21
342.552	79.7
342.764	28.5
342.977	104.28
343.189	-28.84
343.401	-0.17
343.613	48.98
343.826	42.84
344.038	5.97
344.25	46.93
344.462	-10.41
344.674	-24.75
344.886	34.64
345.099	-8.36
345.311	57.17
345.523	-12.46
345.735	20.31
345.947	48.98
346.159	-47.27
346.371	55.12
346.583	18.26
346.795	147.28
347.007	83.8
347.219	40.79
347.431	-20.65
347.643	26.45
347.855	110.42
348.067	53.08
348.279	75.6
348.491	-30.89
348.703	-20.65
348.915	-32.94
349.127	63.32
349.339	89.94
349.551	-8.36
349.763	44.88
349.975	-4.27
350.187	73.56
350.399	-45.23
350.61	38.74
350.822	-20.65
351.034	-4.27
351.246	83.8
351.458	51.03
351.669	53.08
351.881	112.47
352.093	-4.27
352.305	30.55
352.517	1.88
352.728	112.47
352.94	24.4
353.152	24.4
353.363	-37.03
353.575	110.42
353.787	40.79
353.999	14.17
354.21	94.04
354.422	53.08
354.633	-10.41
354.845	40.79
355.057	-51.37
355.268	75.6
355.48	79.7
355.692	28.5
355.903	36.69
356.115	32.6
356.326	1.88
356.538	59.22
356.749	53.08
356.961	46.93
357.172	-0.17
357.384	-10.41
357.595	24.4
357.807	46.93
358.018	10.07
358.23	8.02
358.441	69.46
358.653	98.13
358.864	-0.17
359.075	104.28
359.287	46.93
359.498	32.6
359.709	-0.17
359.921	-4.27
360.132	126.8
360.344	67.41
360.555	28.5
360.766	71.51
360.977	30.55
361.189	69.46
361.4	-4.27
361.611	81.75
361.823	24.4
362.034	59.22
362.245	18.26
362.456	-28.84
362.667	32.6
362.879	18.26
363.09	-59.56
363.301	-10.41
363.512	-10.41
363.723	65.36
363.935	22.36
364.146	14.17
364.357	57.17
364.568	14.17
364.779	48.98
364.99	116.56
365.201	-30.89
365.412	-24.75
365.623	20.31
365.834	18.26
366.045	55.12
366.256	61.27
366.467	32.6
366.678	5.97
366.889	8.02
367.1	-4.27
367.311	26.45
367.522	73.56
367.733	57.17
367.944	18.26
368.155	26.45
368.366	38.74
368.577	40.79
368.788	57.17
368.999	-65.71
369.209	79.7
369.42	124.76
369.631	12.12
369.842	16.21
370.053	48.98
370.264	106.32
370.474	81.75
370.685	89.94
370.896	63.32
371.107	61.27
371.317	94.04
371.528	-41.13
371.739	71.51
371.95	87.89
372.16	69.46
372.371	3.93
372.582	10.07
372.792	20.31
373.003	89.94
373.214	57.17
373.424	61.27
373.635	22.36
373.846	30.55
374.056	-32.94
374.267	67.41
374.477	53.08
374.688	14.17
374.898	-2.22
375.109	20.31
375.319	24.4
375.53	98.13
375.74	104.28
375.951	61.27
376.161	73.56
376.372	98.13
376.582	46.93
376.793	57.17
377.003	-26.79
377.214	12.12
377.424	48.98
377.635	28.5
377.845	61.27
378.055	51.03
378.266	-22.7
378.476	22.36
378.686	30.55
378.897	51.03
379.107	59.22
379.317	32.6
379.528	69.46
379.738	10.07
379.948	1.88
380.158	124.76
380.369	100.18
380.579	32.6
380.789	24.4
380.999	104.28
381.21	59.22
381.42	77.65
381.63	59.22
381.84	46.93
382.05	24.4
382.261	18.26
382.471	42.84
382.681	42.84
382.891	55.12
383.101	112.47
383.311	59.22
383.521	20.31
383.731	-6.31
383.941	24.4
384.151	-0.17
384.361	16.21
384.571	1.88
384.781	59.22
384.991	44.88
385.201	46.93
385.411	16.21
385.621	-4.27
385.831	73.56
386.041	-59.56
386.251	-4.27
386.461	124.76
386.671	24.4
386.881	-0.17
387.091	102.23
387.301	61.27
387.511	10.07
387.72	108.37
387.93	67.41
388.14	-32.94
388.35	48.98
388.56	61.27
388.769	12.12
388.979	-4.27
389.189	-28.84
389.399	-24.75
389.609	55.12
389.818	85.84
390.028	53.08
390.238	22.36
390.447	24.4
390.657	106.32
390.867	34.64
391.076	42.84
391.286	44.88
391.496	-22.7
391.705	44.88
391.915	122.71
392.125	61.27
392.334	53.08
392.544	30.55
392.753	81.75
392.963	-16.55
393.172	46.93
393.382	81.75
393.591	91.99
393.801	22.36
394.01	114.52
394.22	100.18
394.429	83.8
394.639	14.17
394.848	104.28
395.058	73.56
395.267	53.08
395.477	85.84
395.686	32.6
395.895	69.46
396.105	69.46
396.314	18.26
396.524	14.17
396.733	-37.03
396.942	73.56
397.152	57.17
397.361	94.04
397.57	32.6
397.78	106.32
397.989	83.8
398.198	77.65
398.407	40.79
398.617	81.75
398.826	94.04
399.035	48.98
399.244	73.56
399.453	71.51
399.663	96.08
399.872	38.74
400.081	22.36
400.29	137.04
400.499	57.17
400.708	98.13
400.917	81.75
401.127	112.47
401.336	40.79
401.545	137.04
401.754	110.42
401.963	63.32
402.172	124.76
402.381	65.36
402.59	96.08
402.799	61.27
403.008	98.13
403.217	104.28
403.426	40.79
403.635	73.56
403.844	44.88
404.053	137.04
404.262	51.03
404.471	75.6
404.68	57.17
404.888	55.12
405.097	57.17
405.306	114.52
405.515	116.56
405.724	61.27
405.933	161.62
406.142	153.43
406.35	132.95
406.559	180.05
406.768	77.65
406.977	175.95
407.185	110.42
407.394	114.52
407.603	165.71
407.812	186.19
408.02	153.43
408.229	108.37
408.438	167.76
408.646	163.67
408.855	159.57
409.064	204.63
409.272	182.1
409.481	200.53
409.69	124.76
409.898	186.19
410.107	194.39
410.315	204.63
410.524	214.87
410.733	278.35
410.941	165.71
411.15	274.26
411.358	241.49
411.567	317.26
411.775	323.41
411.984	245.59
412.192	296.78
412.401	214.87
412.609	259.92
412.818	286.54
413.026	309.07
413.234	294.74
413.443	352.08
413.651	423.76
413.86	358.22
414.068	427.85
414.276	458.57
414.485	399.18
414.693	489.29
414.901	436.05
415.11	413.52
415.318	485.2
415.526	458.57
415.734	438.09
415.943	552.78
416.151	534.35
416.359	630.6
416.567	577.36
416.776	573.26
416.984	702.28
417.192	726.86
417.4	687.95
417.608	628.56
417.817	743.24
418.025	618.32
418.233	827.21
418.441	792.39
418.649	806.73
418.857	788.3
419.065	851.78
419.273	788.3
419.481	886.6
419.689	993.09
419.897	974.66
420.105	1052.49
420.313	982.85
420.521	982.85
420.729	1128.26
420.937	1210.18
421.145	1226.56
421.353	1277.76
421.561	1396.54
421.769	1316.67
421.977	1423.17
422.185	1417.02
422.393	1517.37
422.601	1556.29
422.809	1644.35
423.017	1515.33
423.224	1658.68
423.432	1607.48
423.64	1787.71
423.848	1711.93
424.056	1828.67
424.263	1888.06
424.471	1892.15
424.679	2017.08
424.887	2031.41
425.094	2123.57
425.302	2187.06
425.51	2099
425.718	2340.66
425.925	2180.92
426.133	2332.47
426.341	2510.64
426.548	2627.37
426.756	2619.18
426.964	2678.57
427.171	2819.88
427.379	2955.05
427.586	2862.89
427.794	3161.89
428.001	3051.3
428.209	3231.52
428.417	3268.39
428.624	3561.25
428.832	3464.99
429.039	3487.52
429.247	3575.58
429.454	3786.52
429.662	3989.27
429.869	3764
430.076	4101.91
430.284	4060.95
430.491	4110.1
430.699	4448.02
430.906	4372.24
431.114	4347.67
431.321	4505.36
431.528	4618
431.736	4919.05
431.943	5134.09
432.15	5111.56
432.358	5076.74
432.565	5293.83
432.772	5445.38
432.979	5621.5
433.187	5572.35
433.394	5717.76
433.601	6145.78
433.808	6080.25
434.016	6145.78
434.223	6287.09
434.43	6762.22
434.637	6625.01
434.844	7208.68
435.052	7208.68
435.259	7018.22
435.466	7169.77
435.673	7157.48
435.88	7579.36
436.087	8144.6
436.294	8197.85
436.501	7804.64
436.708	7935.71
436.915	8412.88
437.122	8724.18
437.329	8611.54
437.537	9080.52
437.743	9058
437.95	9051.85
438.157	9281.22
438.364	9672.39
438.571	9627.33
438.778	9881.28
438.985	10860.21
439.192	10378.93
439.399	10755.76
439.606	10444.47
439.813	10772.14
440.02	11628.2
440.227	11634.34
440.433	11493.03
440.64	11802.27
440.847	11755.17
441.054	12064.41
441.261	12828.31
441.467	12619.41
441.674	12592.79
441.881	13282.95
442.088	13145.74
442.294	13268.62
442.501	13483.66
442.708	13465.22
442.914	14370.43
443.121	15040.11
443.328	14485.11
443.534	15410.79
443.741	15068.78
443.948	14935.67
444.154	15851.11
444.361	16033.38
444.568	16006.75
444.774	16033.38
444.981	16146.01
445.187	16735.83
445.394	17352.27
445.6	17305.17
445.807	18955.83
446.013	17993.28
446.22	18370.11
446.426	19230.26
446.633	19385.9
446.839	19850.79
447.046	19469.87
447.252	20583.96
447.459	20258.34
447.665	19912.23
447.871	21216.79
448.078	21814.79
448.284	20854.3
448.491	21370.38
448.697	22613.5
448.903	22777.34
449.11	22836.73
449.316	22402.56
449.522	22871.54
449.728	23561.71
449.935	23617
450.141	23733.74
450.347	24251.88
450.553	23432.69
450.76	23793.13
450.966	24645.09
451.172	24077.8
451.378	24976.86
451.584	24602.08
451.791	25282
451.997	24782.3
452.203	25247.19
452.409	25464.27
452.615	25046.49
452.821	24301.03
453.027	24229.35
453.233	25273.81
453.44	24505.82
453.646	24497.63
453.852	24432.1
454.058	25038.3
454.264	24569.31
454.47	24935.9
454.676	24280.55
454.882	25308.63
455.088	23254.51
455.294	23465.46
455.5	23711.21
455.705	23961.06
455.911	23029.24
456.117	22523.39
456.323	22369.79
456.529	20860.44
456.735	22070.79
456.941	21575.18
457.147	21020.18
457.352	20493.85
457.558	20176.42
457.764	20246.05
457.97	19910.18
458.176	19334.7
458.381	19332.65
458.587	18767.41
458.793	18402.88
458.999	17583.69
459.204	18687.54
459.41	18347.58
459.616	16840.28
459.821	17223.25
460.027	17081.94
460.233	16756.31
460.438	15869.54
460.644	16023.14
460.85	15244.91
461.055	14919.28
461.261	15060.59
461.466	13999.74
461.672	13573.77
461.878	14425.72
462.083	13622.92
462.289	13418.12
462.494	13483.66
462.7	12553.88
462.905	12293.79
463.111	12848.79
463.316	12867.22
463.522	12455.58
463.727	12347.03
463.932	12390.04
464.138	12215.96
464.343	12297.88
464.549	11998.88
464.754	12541.59
464.959	12371.61
465.165	11910.82
465.37	11626.15
465.575	11318.95
465.781	11923.1
465.986	11863.71
466.191	11419.3
466.397	11179.69
466.602	10682.03
466.807	11071.15
467.012	11157.16
467.218	11089.58
467.423	10976.94
467.628	11218.6
467.833	11429.54
468.038	11155.12
468.244	10462.9
468.449	11095.72
468.654	10536.63
468.859	10591.92
469.064	10704.56
469.269	10264.25
469.474	10245.82
469.679	10596.02
469.885	10051.26
470.09	10426.04
470.295	10354.36
470.5	10110.65
470.705	10049.21
470.91	9858.75
471.115	9688.77
471.32	10065.6
471.525	9823.94
471.73	9557.7
471.935	9598.66
472.139	9236.17
472.344	9477.83
472.549	9371.33
472.754	9217.74
472.959	8912.59
473.164	8576.72
473.369	8718.03
473.574	8963.79
473.778	9068.23
473.983	8877.77
474.188	8933.07
474.393	8521.43
474.598	8367.83
474.802	8406.74
475.007	8339.16
475.212	8455.89
475.417	8011.48
475.621	7933.66
475.826	8210.14
476.031	7798.49
476.235	7945.95
476.44	7833.31
476.645	7732.96
476.849	7755.49
477.054	7743.2
477.259	7460.58
477.463	7599.84
477.668	7333.61
477.872	7442.15
478.077	7429.86
478.282	7276.26
478.486	7216.87
478.691	6981.35
478.895	7042.79
479.1	6936.3
479.304	6930.16
479.509	6868.72
479.713	6936.3
479.918	6602.48
480.122	6764.27
480.326	6760.17
480.531	6981.35
480.735	6688.5
480.94	6549.23
481.144	6786.8
481.348	6428.4
481.553	6549.23
481.757	6354.68
481.961	6680.3
482.166	6641.39
482.37	6612.72
482.574	6364.92
482.778	6538.99
482.983	6375.16
483.187	6557.43
483.391	6465.27
483.595	6397.68
483.8	6397.68
484.004	6452.98
484.208	6549.23
484.412	6371.06
484.616	6510.32
484.821	6565.62
485.025	6377.2
485.229	6473.46
485.433	6489.84
485.637	6520.56
485.841	6463.22
486.045	6502.13
486.249	6569.71
486.453	6305.53
486.657	6448.88
486.861	6475.51
487.065	6283
487.269	6440.69
487.473	6403.83
487.677	6475.51
487.881	6559.47
488.085	6481.65
488.289	6430.45
488.493	6479.6
488.697	6749.93
488.901	6559.47
489.105	6518.51
489.309	6493.94
489.512	6563.57
489.716	6563.57
489.92	6579.95
490.124	6485.75
490.328	6743.79
490.531	6502.13
490.735	6582
490.939	6721.26
491.143	6788.85
491.346	6610.67
491.55	6770.41
491.754	6618.86
491.958	6733.55
492.161	6823.66
492.365	6741.74
492.569	6844.14
492.772	6790.89
492.976	6844.14
493.18	6842.09
493.383	6911.72
493.587	6999.79
493.79	6995.69
493.994	6878.96
494.197	7018.22
494.401	7153.38
494.605	7012.07
494.808	7325.41
495.012	7233.25
495.215	7280.36
495.419	7487.2
495.622	7499.49
495.825	7485.16
496.029	7368.42
496.232	7622.37
496.436	7685.86
496.639	7718.62
496.843	7769.82
497.046	7843.55
497.249	8111.83
497.453	8015.58
497.656	8132.31
497.859	8111.83
498.063	8343.25
498.266	8597.2
498.469	8140.51
498.673	8373.97
498.876	8550.1
499.079	8654.55
499.282	8558.29
499.485	8986.32
499.689	8873.68
499.892	9051.85
500.095	8986.32
500.298	9285.32
500.501	9221.83
500.705	9379.53
500.908	9451.21
501.111	9619.14
501.314	9641.67
501.517	9899.71
501.72	9813.7
501.923	9875.13
502.126	10194.62
502.329	10165.95
502.532	10331.83
502.735	10364.6
502.938	10804.91
503.141	10612.4
503.344	10823.34
503.547	10770.1
503.75	10872.5
503.953	10942.13
504.156	11187.88
504.359	11460.26
504.562	11617.96
504.765	11601.57
504.968	11677.35
505.17	11861.66
505.373	11902.62
505.576	11962.01
505.779	12310.17
505.982	12207.77
506.185	12474.01
506.387	12365.46
506.59	12637.84
506.793	12875.41
506.996	12889.74
507.198	13196.94
507.401	13125.26
507.604	13317.77
507.807	13538.95
508.009	13559.43
508.212	13870.72
508.415	14057.09
508.617	13895.3
508.82	14102.14
509.022	14151.29
509.225	14395
509.428	14464.63
509.63	14481.02
509.833	14450.3
510.035	14933.62
510.238	15119.98
510.44	15210.09
510.643	15396.46
510.845	15353.45
511.048	15365.74
511.25	15705.7
511.453	15898.21
511.655	16518.75
511.858	16014.94
512.06	16340.57
512.262	16442.97
512.465	16547.42
512.667	16670.29
512.87	17045.07
513.072	17018.45
513.274	17108.56
513.477	17583.69
513.679	17614.41
513.881	17722.95
514.084	18138.69
514.286	17837.64
514.488	18243.13
514.69	18683.45
514.893	18513.47
515.095	18714.17
515.297	18857.53
515.499	19119.67
515.701	19402.29
515.904	19416.62
516.106	19412.53
516.308	19686.95
516.51	19809.83
516.712	19967.52
516.914	20182.56
517.116	20434.46
517.318	20557.34
517.52	20612.63
517.722	20895.25
517.925	20942.36
518.127	21022.23
518.329	21542.41
518.531	20913.69
518.733	21665.29
518.935	21849.61
519.136	22156.8
519.338	22246.91
519.54	22214.15
519.742	22693.37
519.944	22595.07
520.146	22670.84
520.348	22982.13
520.55	23225.84
520.752	23254.51
520.954	23799.27
521.155	23422.45
521.357	23815.66
521.559	23946.73
521.761	24477.15
521.963	24516.06
522.164	24495.58
522.366	24671.71
522.568	24745.44
522.77	24800.73
522.971	25400.79
523.173	24948.18
523.375	25288.15
523.576	25429.46
523.778	25398.74
523.98	25664.97
524.181	25900.49
524.383	25914.83
524.584	26107.33
524.786	25822.67
524.988	26066.38
525.189	26490.31
525.391	26641.85
525.592	26660.29
525.794	26895.8
525.995	26725.82
526.197	27088.31
526.398	27086.26
526.6	26869.18
526.801	27256.25
527.003	27671.98
527.204	27571.63
527.406	27639.22
527.607	27680.17
527.808	27801.01
528.01	27520.43
528.211	27852.2
528.412	28364.2
528.614	28118.44
528.815	28224.93
529.016	28474.79
529.218	28317.09
529.419	28456.36
529.62	28421.54
529.822	28439.97
530.023	28442.02
530.224	28702.11
530.425	28628.38
530.626	28155.3
530.828	28360.1
531.029	29250.97
531.23	28534.18
531.431	28687.78
531.632	28677.54
531.833	28917.15
532.035	29128.09
532.236	28687.78
532.437	28847.52
532.638	28837.28
532.839	29101.47
533.04	28931.48
533.241	28738.97
533.442	29470.1
533.643	28933.53
533.844	29070.75
534.045	29554.07
534.246	29080.99
534.447	29117.85
534.648	29068.7
534.849	29259.16
535.05	28954.01
535.251	29320.6
535.451	29259.16
535.652	29470.1
535.853	29056.41
536.054	29220.25
536.255	29177.24
536.456	29398.42
536.657	29597.07
536.857	29670.8
537.058	29029.79
537.259	29226.39
537.46	29572.5
537.66	29293.97
537.861	29504.92
538.062	29013.4
538.263	29187.48
538.463	29336.98
538.664	29392.28
538.865	29353.37
539.065	29478.29
539.266	29033.88
539.466	29633.94
539.667	29072.79
539.868	29566.35
540.068	29126.04
540.269	29312.41
540.469	29343.13
540.67	29173.14
540.87	29017.5
541.071	29130.14
541.271	29259.16
541.472	28927.39
541.672	29187.48
541.873	29101.47
542.073	28990.87
542.274	29382.04
542.474	29023.64
542.675	29044.12
542.875	29314.45
543.075	29128.09
543.276	28757.41
543.476	29597.07
543.676	29201.82
543.877	29386.13
544.077	29224.34
544.277	29279.64
544.478	29142.42
544.678	28970.4
544.878	29001.11
545.078	28999.07
545.279	28919.2
545.479	29162.9
545.679	28980.64
545.879	29212.06
546.079	28800.41
546.28	29080.99
546.48	28745.12
546.68	29363.61
546.88	29068.7
547.08	29275.54
547.28	29060.51
547.48	28804.51
547.68	29072.79
547.88	28829.09
548.081	28882.33
548.281	28732.83
548.481	28736.93
548.681	29109.66
548.881	29146.52
549.081	28958.11
549.28	28964.25
549.48	29455.76
549.68	28880.28
549.88	29318.55
550.08	28720.54
550.28	28921.24
550.48	29091.23
550.68	29314.45
550.88	29085.08
551.08	28917.15
551.279	28833.18
551.479	28693.92
551.679	28792.22
551.879	28579.23
552.079	28894.62
552.278	28964.25
552.478	28712.35
552.678	28845.47
552.878	28925.34
553.077	28714.4
553.277	28407.2
553.477	28784.03
553.676	28786.08
553.876	28652.96
554.076	28548.51
554.275	28499.36
554.475	28427.68
554.674	28466.59
554.874	28652.96
555.074	28622.24
555.273	28804.51
555.473	28884.38
555.672	28304.81
555.872	28579.23
556.071	28974.49
556.271	28491.17
556.47	28181.93
556.67	28196.26
556.869	28372.39
557.068	28335.52
557.268	28110.25
557.467	28206.5
557.667	28370.34
557.866	28388.77
558.065	28122.54
558.265	28126.63
558.464	27919.79
558.663	28464.55
558.863	27964.84
559.062	28239.27
559.261	27862.44
559.461	28376.48
559.66	27536.82
559.859	27844.01
560.058	27657.65
560.258	28190.12
560.457	27735.47
560.656	27981.23
560.855	27516.34
561.054	27985.32
561.253	27624.88
561.453	27413.94
561.652	27788.72
561.851	27622.83
562.05	27633.07
562.249	27596.21
562.448	27655.6
562.647	27561.39
562.846	27393.46
563.045	27098.55
563.244	27252.15
563.443	27350.45
563.642	27084.22
563.841	27248.05
564.04	27110.84
564.239	27506.1
564.438	26639.81
564.637	27483.57
564.836	27157.94
565.035	26725.82
565.234	26957.24
565.432	26635.71
565.631	26940.86
565.83	26691.01
566.029	26744.25
566.228	26285.51
566.427	26457.54
566.625	26312.13
566.824	26011.08
567.023	26359.24
567.222	25976.26
567.42	26449.35
567.619	26250.69
567.818	26103.24
568.016	26207.69
568.215	26234.31
568.414	25867.72
568.612	26334.66
568.811	25740.75
569.01	25974.22
569.208	25750.99
569.407	26082.76
569.605	25525.71
569.804	26172.87
570.002	25476.56
570.201	25794
570.4	25241.04
570.598	25587.15
570.797	25486.8
570.995	25435.6
571.193	25089.49
571.392	25462.22
571.59	25318.87
571.789	25222.61
571.987	25134.55
572.186	25208.28
572.384	24815.07
572.582	24948.18
572.781	25150.93
572.979	24913.37
573.177	24755.68
573.376	24993.24
573.574	24581.6
573.772	25001.43
573.971	24382.95
574.169	24389.09
574.367	24511.97
574.565	24524.26
574.763	24186.34
574.962	24280.55
575.16	24112.61
575.358	24333.79
575.556	23881.19
575.754	24407.52
575.952	23977.45
576.151	24380.9
576.349	23866.86
576.547	23684.59
576.745	23827.95
576.943	23883.24
577.141	23815.66
577.339	23670.25
577.537	23678.44
577.735	23698.92
577.933	23473.65
578.131	23619.05
578.329	23543.28
578.527	22877.69
578.725	23385.58
578.923	23436.78
579.121	23188.98
579.319	22883.83
579.516	23119.35
579.714	22961.65
579.912	22867.45
580.11	22830.58
580.308	23057.91
580.506	22918.65
580.704	22543.87
580.901	22918.65
581.099	22838.78
581.297	22648.32
581.495	22357.5
581.692	22613.5
581.89	22394.37
582.088	22457.85
582.285	22289.92
582.483	22457.85
582.681	22439.42
582.878	22230.53
583.076	22074.88
583.274	22115.84
583.471	21909
583.669	22132.23
583.866	22033.93
584.064	22019.59
584.262	21618.19
584.459	22085.12
584.657	21730.83
584.854	21986.82
585.052	21585.42
585.249	21595.66
585.447	21450.25
585.644	21407.25
585.841	21546.51
586.039	21603.85
586.236	21159.44
586.434	21202.45
586.631	21069.33
586.828	21261.84
587.026	20889.11
587.223	21251.6
587.42	21034.52
587.618	21069.33
587.815	20936.21
588.012	20952.6
588.21	20751.9
588.407	20848.15
588.604	20801.05
588.801	20467.23
588.999	20620.83
589.196	20463.13
589.393	20252.19
589.59	20723.23
589.787	20260.38
589.984	20076.07
590.182	20106.79
590.379	20362.78
590.576	20172.32
590.773	20323.87
590.97	20100.64
591.167	19879.46
591.364	19897.89
591.561	20033.06
591.758	19826.21
591.955	19678.76
592.152	19922.47
592.349	19559.98
592.546	19744.3
592.743	19779.11
592.94	19342.89
593.137	19496.49
593.334	19670.57
593.531	19283.5
593.727	19545.64
593.924	19549.74
594.121	19154.48
594.318	19359.28
594.515	18976.31
594.712	18929.2
594.908	19158.58
595.105	18974.26
595.302	18814.52
595.499	18976.31
595.696	18808.37
595.892	18724.41
596.089	18710.07
596.286	18579
596.482	18777.65
596.679	18802.23
596.876	18540.09
597.072	18714.17
597.269	18316.86
597.466	18427.45
597.662	18179.65
597.859	18181.7
598.055	18355.77
598.252	17862.21
598.448	18236.99
598.645	18177.6
598.841	17950.28
599.038	18081.35
599.234	17886.79
599.431	17817.16
599.627	17593.93
599.824	17882.69
600.02	17630.79
600.217	17604.17
600.413	17620.55
600.609	17643.08
600.806	17733.19
601.002	17497.67
601.198	17487.43
601.395	17262.16
601.591	17268.3
601.787	17264.21
601.984	17024.59
602.18	17442.38
602.376	17094.22
602.572	17036.88
602.769	17176.14
602.965	16780.89
603.161	17112.66
603.357	16846.42
603.553	16619.1
603.75	16631.38
603.946	16629.34
604.142	16776.79
604.338	16387.68
604.534	16596.57
604.73	16408.15
604.926	16436.83
605.122	16664.15
605.318	16350.81
605.514	16459.35
605.71	16232.03
605.906	16221.79
606.102	16199.26
606.298	16277.08
606.494	16143.97
606.69	16184.93
606.886	16143.97
607.082	16016.99
607.278	16359
607.474	15804
607.67	16043.62
607.866	15824.48
608.062	15955.55
608.257	15799.91
608.453	15775.33
608.649	15779.43
608.845	15689.32
609.041	15720.04
609.236	15820.39
609.432	15431.27
609.628	15502.95
609.824	15625.83
610.019	15558.25
610.215	15365.74
610.411	15418.99
610.606	15378.03
610.802	15599.21
610.998	15488.62
611.193	15373.93
611.389	15386.22
611.584	15535.72
611.78	15230.57
611.976	15240.81
612.171	15236.72
612.367	15115.89
612.562	15031.92
612.758	15165.04
612.953	14970.48
613.149	15212.14
613.344	14790.26
613.539	15128.17
613.735	15185.52
613.93	14999.15
614.126	14722.68
614.321	14825.08
614.517	15093.36
614.712	14866.03
614.907	14728.82
615.103	15031.92
615.298	14976.62
615.493	14866.03
615.688	14788.21
615.884	15072.88
616.079	14620.28
616.274	14714.48
616.47	14808.69
616.665	14720.63
616.86	14532.22
617.055	14730.87
617.25	14440.06
617.445	14575.22
617.641	14597.75
617.836	14452.34
618.031	14356.09
618.226	14333.56
618.421	14261.88
618.616	14358.14
618.811	14069.37
619.006	14372.47
619.201	14098.05
619.396	14290.56
619.591	13926.02
619.786	14016.13
619.981	13792.9
620.176	14218.88
620.371	13807.23
620.566	13815.43
620.761	13717.12
620.956	13686.4
621.151	13485.7
621.346	13864.58
621.541	13477.51
621.735	13614.73
621.93	13102.73
622.125	13366.92
622.32	13160.08
622.515	13151.88
622.709	13049.49
622.904	13178.51
623.099	12965.52
623.294	13051.53
623.488	12924.56
623.683	12883.6
623.878	12723.86
624.072	12543.64
624.267	12775.06
624.462	12387.99
624.656	12308.12
624.851	12535.45
625.046	12537.49
625.24	12398.23
625.435	12189.34
625.629	12058.27
625.824	12154.52
626.018	12324.51
626.213	11964.06
626.407	12166.81
626.602	11800.23
626.796	11970.21
626.991	11667.11
627.185	11687.59
627.38	11542.18
627.574	11603.62
627.768	11609.76
627.963	11290.28
628.157	11482.79
628.352	11382.44
628.546	11048.62
628.74	11384.49
628.935	10991.28
629.129	11175.59
629.323	11013.81
629.517	11001.52
629.712	10845.87
629.906	10882.74
630.1	10813.1
630.294	10880.69
630.489	10671.79
630.683	10897.07
630.877	10639.03
631.071	10520.24
631.265	10426.04
631.459	10311.35
631.653	10192.57
631.848	10354.36
632.042	10233.53
632.236	10294.97
632.43	10036.92
632.624	10030.78
632.818	10092.22
633.012	10045.12
633.206	9926.33
633.4	10055.36
633.594	9774.78
633.788	9825.98
633.982	9750.21
634.176	9596.61
634.369	9592.51
634.563	9758.4
634.757	9498.31
634.951	9590.47
635.145	9492.16
635.339	9590.47
635.533	9211.59
635.726	9326.28
635.92	9289.42
636.114	9199.3
636.308	9168.59
636.501	9072.33
636.695	9156.3
636.889	8871.63
637.083	9225.93
637.276	9070.28
637.47	8961.74
637.664	8885.97
637.857	8804.05
638.051	8926.93
638.244	8666.83
638.438	8683.22
638.632	8720.08
638.825	8607.44
639.019	8568.53
639.212	8527.57
639.406	8507.09
639.599	8494.8
639.793	8412.88
639.986	8247
640.18	8353.49
640.373	8365.78
640.567	8347.35
640.76	8306.39
640.954	8273.62
641.147	8013.53
641.34	8034.01
641.534	7997.15
641.727	7995.1
641.92	8130.27
642.114	7931.61
642.307	7632.61
642.5	7696.1
642.694	7732.96
642.887	7747.3
643.08	7921.37
643.273	7638.75
643.467	7677.66
643.66	7571.17
643.853	7556.83
644.046	7368.42
644.239	7452.39
644.432	7317.22
644.626	7431.91
644.819	7323.37
645.012	7352.04
645.205	7448.29
645.398	7149.29
645.591	7368.42
645.784	7202.54
645.977	7190.25
646.17	7163.62
646.363	6932.2
646.556	6762.22
646.749	6878.96
646.942	6944.49
647.135	7032.55
647.328	6936.3
647.521	6817.52
647.714	6866.67
647.907	6586.1
648.099	6801.13
648.292	6676.21
648.485	6811.37
648.678	6653.68
648.871	6510.32
649.064	6680.3
649.256	6631.15
649.449	6459.12
649.642	6504.18
649.835	6405.88
650.027	6485.75
650.22	6307.57
650.413	6553.33
650.605	6334.2
650.798	6383.35
650.991	6180.6
651.183	6102.78
651.376	6088.44
651.568	6207.22
651.761	6117.11
651.954	6244.09
652.146	5889.79
652.339	5957.37
652.531	5918.46
652.724	5992.19
652.916	5664.51
653.109	5801.72
653.301	5838.59
653.494	5859.07
653.686	5822.2
653.879	5893.88
654.071	5838.59
654.263	5658.37
654.456	5734.14
654.648	5691.13
654.84	5408.51
655.033	5539.58
655.225	5480.19
655.417	5467.91
655.61	5648.13
655.802	5654.27
655.994	5461.76
656.186	5394.18
656.379	5361.41
656.571	5506.82
656.763	5345.03
656.955	5494.53
657.148	5269.25
657.34	5414.66
657.532	5205.77
657.724	5136.13
657.916	5189.38
658.108	5162.76
658.3	5076.74
658.492	5342.98
658.684	4996.87
658.876	5095.18
659.068	5015.3
659.26	5078.79
659.452	4980.49
659.644	5050.12
659.836	4939.53
660.028	5009.16
660.22	4804.36
660.412	5019.4
660.604	4908.81
660.796	4595.47
660.988	4925.19
661.18	4636.43
661.372	4826.89
661.563	4699.92
661.755	4695.82
661.947	4640.53
662.139	4683.53
662.331	4611.85
662.522	4697.87
662.714	4667.15
662.906	4640.53
663.097	4665.1
663.289	4437.78
663.481	4632.33
663.673	4618
663.864	4503.31
664.056	4478.74
664.247	4435.73
664.439	4439.83
664.631	4329.24
664.822	4306.71
665.014	4345.62
665.205	4259.6
665.397	4243.22
665.588	4443.92
665.78	4177.69
665.971	4259.6
666.163	4284.18
666.354	4267.8
666.546	4284.18
666.737	4310.8
666.929	4224.79
667.12	4198.17
667.311	4196.12
667.503	4032.28
667.694	4093.72
667.885	3962.65
668.077	4077.34
668.268	4026.14
668.459	4077.34
668.651	3905.31
668.842	3999.51
669.033	4005.66
669.224	4040.47
669.416	4079.38
669.607	3856.15
669.798	3966.74
669.989	4019.99
670.18	3880.73
670.371	3909.4
670.563	3911.45
670.754	3616.54
670.945	3802.91
671.136	3802.91
671.327	3786.52
671.518	3688.22
671.709	3886.87
671.9	3829.53
672.091	3729.18
672.282	3673.89
672.473	3755.8
672.664	3696.41
672.855	3651.36
673.046	3630.88
673.237	3694.36
673.428	3778.33
673.619	3741.47
673.809	3741.47
674	3677.98
674.191	3626.78
674.382	3667.74
674.573	3634.97
674.764	3677.98
674.954	3581.73
675.145	3637.02
675.336	3469.09
675.527	3397.41
675.717	3614.49
675.908	3530.53
676.099	3399.46
676.289	3516.19
676.48	3462.94
676.671	3567.39
676.861	3567.39
677.052	3374.88
677.243	3616.54
677.433	3288.87
677.624	3591.97
677.814	3393.31
678.005	3471.14
678.195	3569.44
678.386	3241.76
678.576	3295.01
678.767	3448.61
678.957	3381.03
679.148	3381.03
679.338	3368.74
679.529	3292.96
679.719	3532.58
679.909	3409.7
680.1	3352.35
680.29	3325.73
680.481	3249.96
680.671	3393.31
680.861	3280.68
681.052	3303.2
681.242	3309.35
681.432	3428.13
681.622	3301.15
681.813	3286.82
682.003	3356.45
682.193	3311.39
682.383	3350.31
682.573	3282.72
682.764	3378.98
682.954	3276.58
683.144	3127.08
683.334	3129.13
683.524	3217.19
683.714	3163.94
683.904	3215.14
684.094	3282.72
684.284	3202.85
684.474	3122.98
684.664	3184.42
684.854	3180.32
685.044	3118.89
685.234	3149.61
685.424	3202.85
685.614	3024.68
685.804	3159.85
685.994	3067.69
686.184	3221.28
686.374	3163.94
686.564	3088.17
686.753	3002.15
686.943	3053.35
687.133	3157.8
687.323	2926.38
687.513	3065.64
687.702	3045.16
687.892	3036.97
688.082	3047.21
688.272	2881.32
688.461	2998.06
688.651	2940.71
688.841	2883.37
689.03	2946.86
689.22	2862.89
689.41	3032.87
689.599	2909.99
689.789	2834.22
689.979	2926.38
690.168	2694.96
690.358	2801.45
690.547	2844.46
690.737	2852.65
690.926	2697
691.116	2721.58
691.305	2748.2
691.495	2764.59
691.684	2787.11
691.874	2789.16
692.063	2703.15
692.252	2694.96
692.442	2713.39
692.631	2586.41
692.82	2723.63
693.01	2639.66
693.199	2686.76
693.388	2686.76
693.578	2678.57
693.767	2703.15
693.956	2680.62
694.146	2565.93
694.335	2412.34
694.524	2508.59
694.713	2617.13
694.902	2606.89
695.092	2619.18
695.281	2563.89
695.47	2398
695.659	2449.2
695.848	2481.97
696.037	2481.97
696.226	2430.77
696.415	2391.86
696.604	2373.43
696.793	2424.62
696.982	2377.52
697.171	2434.86
697.36	2467.63
697.549	2457.39
697.738	2434.86
697.927	2395.95
698.116	2479.92
698.305	2359.09
698.494	2451.25
698.683	2465.58
698.872	2361.14
699.061	2338.61
699.25	2391.86
699.438	2400.05
699.627	2318.13
699.816	2361.14
700.005	2324.27
700.193	2326.32
700.382	2375.47
700.571	2375.47
700.76	2367.28
700.948	2357.04
701.137	2322.23
701.326	2309.94
701.514	2238.26
701.703	2307.89
701.892	2379.57
702.08	2291.51
702.269	2354.99
702.457	2340.66
702.646	2246.45
702.834	2320.18
703.023	2293.55
703.212	2320.18
703.4	2295.6
703.589	2301.75
703.777	2354.99
703.965	2342.71
704.154	2256.69
704.342	2307.89
704.531	2377.52
704.719	2268.98
704.907	2299.7
705.096	2326.32
705.284	2256.69
705.472	2291.51
705.661	2293.55
705.849	2264.88
706.037	2256.69
706.226	2262.83
706.414	2262.83
706.602	2352.95
706.79	2338.61
706.979	2316.08
707.167	2354.99
707.355	2250.55
707.543	2299.7
707.731	2398
707.919	2354.99
708.107	2234.16
708.296	2277.17
708.484	2211.64
708.672	2373.43
708.86	2328.37
709.048	2334.51
709.236	2244.4
709.424	2371.38
709.612	2330.42
709.8	2299.7
709.988	2291.51
710.176	2344.75
710.364	2375.47
710.551	2291.51
710.739	2408.24
710.927	2311.99
711.115	2264.88
711.303	2271.03
711.491	2332.47
711.679	2225.97
711.866	2207.54
712.054	2391.86
712.242	2479.92
712.43	2531.12
712.617	2332.47
712.805	2363.19
712.993	2359.09
713.181	2248.5
713.368	2228.02
713.556	2363.19
713.744	2326.32
713.931	2418.48
714.119	2334.51
714.306	2412.34
714.494	2398
714.682	2311.99
714.869	2383.66
715.057	2350.9
715.244	2326.32
715.432	2365.23
715.619	2389.81
715.807	2291.51
715.994	2412.34
716.182	2359.09
716.369	2428.72
716.556	2369.33
716.744	2318.13
716.931	2295.6
717.119	2479.92
717.306	2430.77
717.493	2275.12
717.681	2303.79
717.868	2346.8
718.055	2354.99
718.242	2400.05
718.43	2238.26
718.617	2283.31
718.804	2381.62
718.991	2410.29
719.179	2377.52
719.366	2402.1
719.553	2191.16
719.74	2242.36
719.927	2367.28
720.114	2334.51
720.301	2443.06
720.488	2428.72
720.676	2447.15
720.863	2438.96
721.05	2463.54
721.237	2400.05
721.424	2510.64
721.611	2422.58
721.798	2404.14
721.985	2342.71
722.172	2342.71
722.358	2428.72
722.545	2357.04
722.732	2465.58
722.919	2357.04
723.106	2354.99
723.293	2424.62
723.48	2342.71
723.667	2438.96
723.853	2273.07
724.04	2301.75
724.227	2451.25
724.414	2447.15
724.6	2314.03
724.787	2533.17
724.974	2398
725.161	2414.38
725.347	2328.37
725.534	2377.52
725.72	2520.88
725.907	2449.2
726.094	2381.62
726.28	2273.07
726.467	2424.62
726.653	2441.01
726.84	2387.76
727.027	2522.93
727.213	2496.3
727.4	2354.99
727.586	2549.55
727.773	2449.2
727.959	2461.49
728.145	2533.17
728.332	2348.85
728.518	2441.01
728.705	2451.25
728.891	2322.23
729.077	2457.39
729.264	2359.09
729.45	2463.54
729.636	2461.49
729.823	2416.43
730.009	2441.01
730.195	2408.24
730.382	2346.8
730.568	2346.8
730.754	2422.58
730.94	2428.72
731.126	2473.78
731.313	2381.62
731.499	2453.3
731.685	2486.06
731.871	2322.23
732.057	2508.59
732.243	2557.74
732.429	2381.62
732.615	2473.78
732.801	2383.66
732.987	2293.55
733.173	2484.02
733.359	2354.99
733.545	2430.77
733.731	2412.34
733.917	2381.62
734.103	2438.96
734.289	2451.25
734.475	2381.62
734.661	2424.62
734.847	2385.71
735.033	2406.19
735.219	2414.38
735.404	2340.66
735.59	2471.73
735.776	2477.87
735.962	2404.14
736.148	2541.36
736.333	2320.18
736.519	2332.47
736.705	2406.19
736.89	2320.18
737.076	2248.5
737.262	2451.25
737.447	2295.6
737.633	2432.82
737.819	2340.66
738.004	2420.53
738.19	2404.14
738.375	2338.61
738.561	2457.39
738.747	2402.1
738.932	2387.76
739.118	2393.9
739.303	2348.85
739.489	2359.09
739.674	2352.95
739.859	2240.31
740.045	2211.64
740.23	2287.41
740.416	2258.74
740.601	2322.23
740.786	2240.31
740.972	2338.61
741.157	2328.37
741.342	2203.44
741.528	2256.69
741.713	2293.55
741.898	2307.89
742.084	2234.16
742.269	2277.17
742.454	2242.36
742.639	2256.69
742.824	2311.99
743.01	2230.07
743.195	2238.26
743.38	2215.73
743.565	2238.26
743.75	2174.77
743.935	2162.48
744.12	2139.96
744.305	2137.91
744.49	2246.45
744.675	2137.91
744.86	2010.93
745.045	2219.83
745.23	2137.91
745.415	2133.81
745.6	2156.34
745.785	2142
745.97	2027.32
746.155	2000.69
746.34	2117.43
746.525	2033.46
746.71	2101.05
746.895	1974.07
747.079	2109.24
747.264	1947.45
747.449	2008.89
747.634	1963.83
747.819	2047.8
748.003	1943.35
748.188	2000.69
748.373	1906.49
748.557	1898.3
748.742	1906.49
748.927	2015.03
749.111	1912.63
749.296	1867.58
749.481	1865.53
749.665	1826.62
749.85	1818.43
750.034	1896.25
750.219	1871.67
750.404	1838.91
750.588	1736.51
750.773	1795.9
750.957	1883.96
751.141	1795.9
751.326	1705.79
751.51	1646.4
751.695	1685.31
751.879	1711.93
752.064	1611.58
752.248	1742.65
752.432	1679.16
752.617	1752.89
752.801	1759.03
752.985	1650.49
753.17	1630.01
753.354	1621.82
753.538	1537.85
753.722	1630.01
753.907	1625.92
754.091	1533.76
754.275	1591.1
754.459	1490.75
754.643	1484.61
754.828	1574.72
755.012	1396.54
755.196	1599.29
755.38	1556.29
755.564	1476.41
755.748	1390.4
755.932	1494.85
756.116	1367.87
756.3	1320.77
756.484	1410.88
756.668	1402.69
756.852	1462.08
757.036	1394.5
757.22	1386.3
757.404	1451.84
757.588	1441.6
757.772	1324.87
757.956	1417.02
758.14	1349.44
758.323	1341.25
758.507	1417.02
758.691	1343.3
758.875	1337.15
759.059	1435.46
759.242	1320.77
759.426	1283.91
759.61	1349.44
759.794	1154.88
759.977	1214.27
760.161	1288
760.345	1210.18
760.528	1206.08
760.712	1290.05
760.895	1230.66
761.079	1232.71
761.263	1314.63
761.446	1144.64
761.63	1132.36
761.813	1193.8
761.997	1208.13
762.18	1193.8
762.364	1167.17
762.547	1050.44
762.731	1208.13
762.914	1144.64
763.098	1130.31
763.281	1105.73
763.464	1132.36
763.648	1175.36
763.831	1095.49
764.015	1148.74
764.198	1050.44
764.381	1058.63
764.564	1056.58
764.748	1072.96
764.931	1201.99
765.114	1046.34
765.297	1034.05
765.481	1023.81
765.664	995.14
765.847	1048.39
766.03	1050.44
766.213	1007.43
766.397	1095.49
766.58	1042.25
766.763	925.51
766.946	1079.11
767.129	1005.38
767.312	1040.2
767.495	991.05
767.678	1017.67
767.861	1038.15
768.044	1019.72
768.227	986.95
768.41	907.08
768.593	999.24
768.776	952.13
768.959	919.37
769.142	1056.58
769.324	964.42
769.507	937.8
769.69	984.9
769.873	921.42
770.056	968.52
770.239	929.61
770.421	997.19
770.604	980.81
770.787	972.61
770.97	952.13
771.152	798.54
771.335	866.12
771.518	905.03
771.7	888.65
771.883	876.36
772.066	868.17
772.248	825.16
772.431	925.51
772.613	819.02
772.796	862.02
772.978	868.17
773.161	900.94
773.343	876.36
773.526	874.31
773.708	829.26
773.891	845.64
774.073	857.93
774.256	780.11
774.438	804.68
774.621	771.91
774.803	782.15
774.985	733
775.168	835.4
775.35	798.54
775.532	786.25
775.715	761.67
775.897	741.19
776.079	771.91
776.261	798.54
776.444	743.24
776.626	747.34
776.808	755.53
776.99	681.8
777.173	765.77
777.355	771.91
777.537	798.54
777.719	765.77
777.901	692.04
778.083	726.86
778.265	628.56
778.447	730.95
778.629	620.36
778.811	745.29
778.993	698.19
779.175	608.08
779.357	620.36
779.539	675.66
779.721	565.07
779.903	626.51
780.085	577.36
780.267	663.37
780.449	677.71
780.631	636.75
780.812	597.84
780.994	556.88
781.176	632.65
781.358	546.64
781.54	556.88
781.721	646.99
781.903	556.88
782.085	532.3
782.267	597.84
782.448	544.59
782.63	546.64
782.812	563.02
782.993	571.21
783.175	560.97
783.357	468.81
783.538	446.29
783.72	481.1
783.901	513.87
784.083	544.59
784.264	528.21
784.446	528.21
784.627	436.05
784.809	632.65
784.99	499.53
785.172	462.67
785.353	483.15
785.535	542.54
785.716	485.2
785.897	431.95
786.079	442.19
786.26	481.1
786.441	458.57
786.623	454.48
786.804	468.81
786.985	442.19
787.167	434
787.348	454.48
787.529	413.52
787.71	483.15
787.891	470.86
788.073	442.19
788.254	368.46
788.435	450.38
788.616	374.61
788.797	436.05
788.978	450.38
789.159	436.05
789.34	436.05
789.522	368.46
789.703	411.47
789.884	372.56
790.065	405.33
790.246	436.05
790.427	460.62
790.607	360.27
790.788	368.46
790.969	409.42
791.15	460.62
791.331	378.7
791.512	311.12
791.693	354.13
791.874	376.66
792.054	341.84
792.235	382.8
792.416	358.22
792.597	364.37
792.778	450.38
792.958	411.47
793.139	311.12
793.32	382.8
793.5	358.22
793.681	388.94
793.862	319.31
794.042	333.65
794.223	241.49
794.404	327.5
794.584	339.79
794.765	309.07
794.945	325.46
795.126	364.37
795.306	286.54
795.487	319.31
795.667	307.02
795.848	429.9
796.028	311.12
796.209	372.56
796.389	360.27
796.57	335.7
796.75	292.69
796.93	268.11
797.111	264.02
797.291	298.83
797.471	243.54
797.652	249.68
797.832	216.91
798.012	210.77
798.192	204.63
798.373	311.12
798.553	257.87
798.733	237.39
798.913	239.44
799.093	319.31
799.274	218.96
799.454	272.21
799.634	278.35
799.814	245.59
799.994	243.54
800.174	292.69
800.354	239.44
800.534	251.73
800.714	235.35
800.894	221.01
801.074	190.29
801.254	239.44
801.434	229.2
801.614	253.78
801.794	161.62
801.974	634.7
802.154	229.2
802.334	315.22
802.514	202.58
802.693	159.57
802.873	241.49
803.053	284.5
803.233	264.02
803.413	253.78
803.592	243.54
803.772	225.11
803.952	149.33
804.131	221.01
804.311	257.87
804.491	198.48
804.67	202.58
804.85	128.85
805.03	175.95
805.209	257.87
805.389	241.49
805.568	237.39
805.748	186.19
805.928	251.73
806.107	180.05
806.287	276.31
806.466	190.29
806.646	206.67
806.825	173.91
807.004	182.1
807.184	233.3
807.363	218.96
807.543	184.15
807.722	149.33
807.901	261.97
808.081	264.02
808.26	210.77
808.439	239.44
808.619	157.52
808.798	253.78
808.977	159.57
809.156	286.54
809.336	216.91
809.515	167.76
809.694	153.43
809.873	171.86
810.052	145.24
810.231	233.3
810.411	163.67
810.59	165.71
810.769	186.19
810.948	116.56
811.127	120.66
811.306	120.66
811.485	175.95
811.664	212.82
811.843	163.67
812.022	229.2
812.201	206.67
812.38	198.48
812.559	204.63
812.737	145.24
812.916	126.8
813.095	135
813.274	118.61
813.453	184.15
813.632	145.24
813.811	155.47
813.989	198.48
814.168	223.06
814.347	108.37
814.526	186.19
814.704	235.35
814.883	163.67
815.062	94.04
815.24	71.51
815.419	67.41
815.598	139.09
815.776	87.89
815.955	157.52
816.133	157.52
816.312	126.8
816.49	106.32
816.669	120.66
816.847	122.71
817.026	141.14
817.204	169.81
817.383	122.71
817.561	233.3
817.74	216.91
817.918	157.52
818.097	100.18
818.275	223.06
818.453	208.72
818.632	104.28
818.81	175.95
818.988	75.6
819.167	98.13
819.345	108.37
819.523	218.96
819.701	61.27
819.879	157.52
820.058	96.08
820.236	94.04
820.414	67.41
820.592	165.71
820.77	112.47
820.948	106.32
821.127	114.52
821.305	67.41
821.483	124.76
821.661	112.47
821.839	171.86
822.017	102.23
822.195	137.04
822.373	137.04
822.551	96.08
822.729	122.71
822.907	57.17
823.085	173.91
823.262	137.04
823.44	124.76
823.618	57.17
823.796	143.19
823.974	77.65
824.152	73.56
824.329	65.36
824.507	135
824.685	147.28
824.863	106.32
825.04	159.57
825.218	151.38
825.396	100.18
825.574	126.8
825.751	59.22
825.929	59.22
826.107	85.84
826.284	73.56
826.462	114.52
826.639	137.04
826.817	75.6
826.994	151.38
827.172	130.9
827.349	178
827.527	67.41
827.704	102.23
827.882	87.89
828.059	171.86
828.237	106.32
828.414	114.52
828.591	112.47
828.769	79.7
828.946	75.6
829.124	120.66
829.301	149.33
829.478	46.93
829.655	85.84
829.833	83.8
830.01	83.8
830.187	118.61
830.364	122.71
830.542	114.52
830.719	110.42
830.896	65.36
831.073	59.22
831.25	96.08
831.427	61.27
831.604	96.08
831.782	98.13
831.959	155.47
832.136	91.99
832.313	130.9
832.49	22.36
832.667	100.18
832.844	-22.7
833.021	65.36
833.198	77.65
833.374	55.12
833.551	71.51
833.728	59.22
833.905	79.7
834.082	28.5
834.259	89.94
834.436	44.88
834.612	71.51
834.789	85.84
834.966	-2.22
835.143	61.27
835.319	67.41
835.496	110.42
835.673	91.99
835.85	94.04
836.026	98.13
836.203	112.47
836.38	36.69
836.556	-10.41
836.733	42.84
836.909	61.27
837.086	22.36
837.262	59.22
837.439	59.22
837.616	65.36
837.792	24.4
837.968	100.18
838.145	69.46
838.321	83.8
838.498	-41.13
838.674	96.08
838.851	18.26
839.027	20.31
839.203	110.42
839.38	51.03
839.556	55.12
839.732	20.31
839.909	57.17
840.085	112.47
840.261	22.36
840.437	36.69
840.614	22.36
840.79	96.08
840.966	124.76
841.142	67.41
841.318	51.03
841.494	59.22
841.671	57.17
841.847	16.21
842.023	20.31
842.199	110.42
842.375	79.7
842.551	30.55
842.727	63.32
842.903	65.36
843.079	85.84
843.255	98.13
843.431	40.79
843.607	24.4
843.783	32.6
843.959	48.98
844.134	-6.31
844.31	94.04
844.486	-30.89
844.662	114.52
844.838	79.7
845.013	81.75
845.189	73.56
845.365	20.31
845.541	20.31
845.716	108.37
845.892	-0.17
846.068	51.03
846.244	44.88
846.419	14.17
846.595	59.22
846.77	18.26
846.946	55.12
847.122	77.65
847.297	53.08
847.473	10.07
847.648	-4.27
847.824	14.17
847.999	63.32
848.175	61.27
848.35	-24.75
848.526	75.6
848.701	77.65
848.876	55.12
849.052	-0.17
849.227	34.64
849.403	10.07
849.578	110.42
849.753	75.6
849.929	85.84
850.104	-4.27
850.279	38.74
850.454	-2.22
850.63	71.51
850.805	32.6
850.98	20.31
851.155	-14.51
851.33	34.64
851.505	-6.31
851.681	81.75
851.856	26.45
852.031	106.32
852.206	34.64
852.381	12.12
852.556	89.94
852.731	63.32
852.906	18.26
853.081	71.51
853.256	20.31
853.431	24.4
853.606	55.12
853.781	42.84
853.956	-61.61
854.131	14.17
854.305	10.07
854.48	53.08
854.655	38.74
854.83	28.5
855.005	34.64
855.18	-37.03
855.354	53.08
855.529	118.61
855.704	91.99
855.879	87.89
856.053	5.97
856.228	59.22
856.403	-12.46
856.577	36.69
856.752	26.45
856.926	34.64
857.101	-32.94
857.276	10.07
857.45	81.75
857.625	51.03
857.799	-37.03
857.974	67.41
858.148	-4.27
858.323	16.21
858.497	51.03
858.672	34.64
858.846	-47.27
859.02	32.6
859.195	-20.65
859.369	3.93
859.543	-65.71
859.718	96.08
859.892	30.55
860.066	-6.31
860.241	110.42
860.415	22.36
860.589	-6.31
860.763	-4.27
860.938	10.07
861.112	18.26
861.286	-26.79
861.46	16.21
861.634	-65.71
861.808	-8.36
861.982	36.69
862.157	63.32
862.331	-4.27
862.505	-8.36
862.679	-18.6
862.853	-6.31
863.027	-18.6
863.201	44.88
863.375	28.5
863.549	3.93
863.722	-12.46
863.896	85.84
864.07	12.12
864.244	22.36
864.418	-8.36
864.592	22.36
864.766	44.88
864.939	40.79
865.113	34.64
865.287	5.97
865.461	26.45
865.634	22.36
865.808	14.17
865.982	-20.65
866.156	-24.75
866.329	81.75
866.503	-22.7
866.676	-0.17
866.85	24.4
867.024	77.65
867.197	14.17
867.371	-51.37
867.544	-37.03
867.718	10.07
867.891	59.22
868.065	-24.75
868.238	44.88
868.412	34.64
868.585	20.31
868.759	8.02
868.932	-2.22
869.105	-18.6
869.279	-0.17
869.452	-8.36
869.625	96.08
869.799	30.55
869.972	1.88
870.145	51.03
870.319	59.22
870.492	-0.17
870.665	10.07
870.838	28.5
871.011	-34.99
871.185	-10.41
871.358	-32.94
871.531	26.45
871.704	-39.08
871.877	102.23
872.05	-32.94
872.223	42.84
872.396	10.07
872.569	24.4
872.742	-6.31
872.915	46.93
873.088	38.74
873.261	-28.84
873.434	10.07
873.607	-0.17
873.78	3.93
873.953	-20.65
874.126	59.22
874.299	5.97
874.471	40.79
874.644	71.51
874.817	28.5
874.99	42.84
875.163	81.75
875.335	40.79
875.508	-47.27
875.681	48.98
875.853	5.97
876.026	-39.08
876.199	36.69
876.371	-32.94
876.544	-55.47
876.717	61.27
876.889	1.88
877.062	46.93
877.234	-45.23
877.407	48.98
877.579	32.6
877.752	-22.7
877.924	10.07
878.097	-39.08
878.269	20.31
878.442	-0.17
878.614	46.93
878.786	-0.17
878.959	-18.6
879.131	28.5
879.303	-57.51
879.476	12.12
879.648	10.07
879.82	63.32
879.993	-39.08
880.165	-53.42
880.337	-2.22
880.509	24.4
880.681	-47.27
880.854	12.12
881.026	55.12
881.198	87.89
881.37	75.6
881.542	-10.41
881.714	10.07
881.886	44.88
882.058	-20.65
882.23	-32.94
882.402	20.31
882.574	12.12
882.746	42.84
882.918	-0.17
883.09	42.84
883.262	-2.22
883.434	77.65
883.606	24.4
883.778	-4.27
883.95	-18.6
884.122	-2.22
884.293	-59.56
884.465	-24.75
884.637	1.88
884.809	-75.95
884.98	40.79
885.152	30.55
885.324	53.08
885.496	-8.36
885.667	30.55
885.839	22.36
886.011	46.93
886.182	34.64
886.354	106.32
886.525	40.79
886.697	96.08
886.869	-8.36
887.04	-20.65
887.212	-14.51
887.383	-65.71
887.555	48.98
887.726	-26.79
887.897	-24.75
888.069	67.41
888.24	61.27
888.412	-8.36
888.583	24.4
888.754	-22.7
888.926	-63.66
889.097	51.03
889.268	67.41
889.44	-16.55
889.611	42.84
889.782	-53.42
889.953	-14.51
890.125	5.97
890.296	12.12
890.467	16.21
890.638	14.17
890.809	-24.75
890.98	3.93
891.151	24.4
891.323	69.46
891.494	77.65
891.665	14.17
891.836	-51.37
892.007	59.22
892.178	10.07
892.349	-24.75
892.52	67.41
892.691	-55.47
892.862	-37.03
893.032	-14.51
893.203	48.98
893.374	3.93
893.545	-8.36
893.716	-14.51
893.887	-39.08
894.057	20.31
894.228	-20.65
894.399	-0.17
894.57	69.46
894.74	-28.84
894.911	10.07
895.082	20.31
895.253	22.36
895.423	98.13
895.594	53.08
895.764	-14.51
895.935	-6.31
896.106	-10.41
896.276	-18.6
896.447	26.45
896.617	-96.43
896.788	-22.7
896.958	-43.18
897.129	-37.03
897.299	-39.08
897.47	73.56
897.64	30.55
897.81	-53.42
897.981	10.07
898.151	-4.27
898.322	5.97
898.492	67.41
898.662	22.36
898.832	-0.17
899.003	10.07
899.173	67.41
899.343	-43.18
899.513	-34.99
