Data from USB4F104151__81__12-27-53-090.txt Node

Date: Fri Mar 14 12:27:53 EDT 2025
User: louis
Spectrometer: USB4F10415
Trigger mode: 4
Integration Time (sec): 2.000000E-2
Scans to average: 1
Electric dark correction enabled: true
Nonlinearity correction enabled: false
Boxcar width: 0
XAxis mode: Wavelengths
Number of Pixels in Spectrum: 3648
>>>>>Begin Spectral Data<<<<<
178.204	-26.28
178.424	-26.28
178.644	-26.28
178.864	-108.2
179.084	-87.72
179.304	2.39
179.524	37.2
179.744	33.11
179.964	-44.71
180.184	14.68
180.404	-44.71
180.624	10.58
180.844	0.34
181.064	-16.04
181.283	10.58
181.503	8.53
181.723	-11.95
181.943	-40.62
182.163	104.79
182.383	14.68
182.602	47.44
182.822	41.3
183.042	4.44
183.262	-34.47
183.482	18.77
183.701	45.4
183.921	10.58
184.141	29.01
184.361	-13.99
184.58	51.54
184.8	-3.75
185.02	-59.05
185.239	20.82
185.459	-22.19
185.679	0.34
185.898	-54.95
186.118	6.49
186.338	37.2
186.557	39.25
186.777	-16.04
186.997	39.25
187.216	10.58
187.436	33.11
187.655	10.58
187.875	88.4
188.095	80.21
188.314	96.6
188.534	65.88
188.753	-7.85
188.973	31.06
189.192	92.5
189.412	43.35
189.631	-36.52
189.851	2.39
190.07	-9.9
190.29	59.73
190.509	37.2
190.729	-48.81
190.948	78.16
191.168	80.21
191.387	41.3
191.607	-1.71
191.826	0.34
192.045	-34.47
192.265	39.25
192.484	41.3
192.704	-13.99
192.923	-20.14
193.142	108.88
193.362	-1.71
193.581	61.78
193.8	-7.85
194.02	158.03
194.239	-30.38
194.458	72.02
194.678	-5.8
194.897	29.01
195.116	22.87
195.335	22.87
195.555	-9.9
195.774	-11.95
195.993	55.64
196.212	20.82
196.432	49.49
196.651	26.96
196.87	-1.71
197.089	39.25
197.308	49.49
197.528	-44.71
197.747	86.36
197.966	6.49
198.185	18.77
198.404	-13.99
198.623	29.01
198.842	26.96
199.062	45.4
199.281	45.4
199.5	-26.28
199.719	-1.71
199.938	14.68
200.157	49.49
200.376	29.01
200.595	65.88
200.814	-22.19
201.033	-3.75
201.252	41.3
201.471	-46.76
201.69	86.36
201.909	108.88
202.128	92.5
202.347	78.16
202.566	-26.28
202.785	-3.75
203.004	57.68
203.223	57.68
203.442	39.25
203.661	20.82
203.879	41.3
204.098	-22.19
204.317	45.4
204.536	49.49
204.755	47.44
204.974	94.55
205.193	-13.99
205.411	78.16
205.63	39.25
205.849	84.31
206.068	-1.71
206.287	31.06
206.505	-34.47
206.724	18.77
206.943	45.4
207.162	59.73
207.381	-3.75
207.599	24.92
207.818	69.97
208.037	72.02
208.255	18.77
208.474	41.3
208.693	-7.85
208.911	31.06
209.13	41.3
209.349	59.73
209.567	53.59
209.786	57.68
210.005	-24.23
210.223	18.77
210.442	-18.09
210.661	47.44
210.879	-9.9
211.098	6.49
211.316	-1.71
211.535	74.07
211.753	22.87
211.972	-7.85
212.191	45.4
212.409	26.96
212.628	117.08
212.846	80.21
213.065	53.59
213.283	84.31
213.502	26.96
213.72	26.96
213.938	-42.67
214.157	94.55
214.375	-38.57
214.594	69.97
214.812	59.73
215.031	-3.75
215.249	-40.62
215.467	57.68
215.686	76.12
215.904	-61.1
216.122	-3.75
216.341	37.2
216.559	10.58
216.778	43.35
216.996	0.34
217.214	29.01
217.432	29.01
217.651	76.12
217.869	4.44
218.087	84.31
218.306	-9.9
218.524	-9.9
218.742	16.73
218.96	49.49
219.179	88.4
219.397	35.16
219.615	-13.99
219.833	74.07
220.051	35.16
220.27	51.54
220.488	94.55
220.706	26.96
220.924	0.34
221.142	29.01
221.36	-13.99
221.578	47.44
221.796	84.31
222.015	55.64
222.233	-69.29
222.451	37.2
222.669	0.34
222.887	78.16
223.105	-3.75
223.323	-3.75
223.541	55.64
223.759	4.44
223.977	57.68
224.195	51.54
224.413	33.11
224.631	76.12
224.849	22.87
225.067	69.97
225.285	-20.14
225.503	12.63
225.721	33.11
225.939	22.87
226.157	100.69
226.375	160.08
226.592	12.63
226.81	14.68
227.028	12.63
227.246	76.12
227.464	20.82
227.682	35.16
227.9	51.54
228.117	-11.95
228.335	29.01
228.553	72.02
228.771	69.97
228.989	39.25
229.206	35.16
229.424	-59.05
229.642	4.44
229.86	4.44
230.077	-30.38
230.295	12.63
230.513	55.64
230.731	72.02
230.948	6.49
231.166	37.2
231.384	14.68
231.601	65.88
231.819	84.31
232.037	53.59
232.254	-28.33
232.472	53.59
232.689	4.44
232.907	6.49
233.125	39.25
233.342	22.87
233.56	8.53
233.777	-13.99
233.995	-16.04
234.213	94.55
234.43	-5.8
234.648	-40.62
234.865	108.88
235.083	-5.8
235.3	18.77
235.518	10.58
235.735	106.84
235.953	110.93
236.17	53.59
236.388	-3.75
236.605	8.53
236.822	35.16
237.04	-22.19
237.257	-30.38
237.475	-20.14
237.692	20.82
237.909	65.88
238.127	14.68
238.344	20.82
238.562	33.11
238.779	-34.47
238.996	18.77
239.214	37.2
239.431	10.58
239.648	-7.85
239.865	-11.95
240.083	51.54
240.3	-9.9
240.517	39.25
240.735	57.68
240.952	86.36
241.169	76.12
241.386	-24.23
241.603	16.73
241.821	-11.95
242.038	26.96
242.255	33.11
242.472	76.12
242.689	92.5
242.907	69.97
243.124	-5.8
243.341	100.69
243.558	65.88
243.775	16.73
243.992	18.77
244.209	115.03
244.426	96.6
244.643	29.01
244.86	22.87
245.078	82.26
245.295	84.31
245.512	-11.95
245.729	-13.99
245.946	119.12
246.163	24.92
246.38	-83.63
246.597	-61.1
246.814	43.35
247.031	-5.8
247.248	61.78
247.464	20.82
247.681	-9.9
247.898	69.97
248.115	43.35
248.332	0.34
248.549	10.58
248.766	63.83
248.983	29.01
249.2	10.58
249.417	-18.09
249.633	53.59
249.85	2.39
250.067	86.36
250.284	61.78
250.501	12.63
250.717	0.34
250.934	31.06
251.151	14.68
251.368	8.53
251.585	67.92
251.801	67.92
252.018	-5.8
252.235	63.83
252.451	-5.8
252.668	16.73
252.885	-11.95
253.102	12.63
253.318	115.03
253.535	6.49
253.752	26.96
253.968	43.35
254.185	16.73
254.401	-28.33
254.618	110.93
254.835	10.58
255.051	88.4
255.268	20.82
255.484	41.3
255.701	26.96
255.917	-11.95
256.134	6.49
256.351	10.58
256.567	33.11
256.784	102.74
257	-28.33
257.217	6.49
257.433	53.59
257.65	-9.9
257.866	49.49
258.082	-7.85
258.299	35.16
258.515	102.74
258.732	-7.85
258.948	37.2
259.165	-18.09
259.381	-3.75
259.597	8.53
259.814	-26.28
260.03	100.69
260.246	14.68
260.463	49.49
260.679	22.87
260.895	43.35
261.112	78.16
261.328	18.77
261.544	45.4
261.761	127.32
261.977	-7.85
262.193	33.11
262.409	39.25
262.626	6.49
262.842	-24.23
263.058	-7.85
263.274	39.25
263.49	0.34
263.707	-11.95
263.923	31.06
264.139	-57
264.355	29.01
264.571	33.11
264.787	65.88
265.004	22.87
265.22	22.87
265.436	26.96
265.652	-30.38
265.868	69.97
266.084	59.73
266.3	86.36
266.516	53.59
266.732	-52.91
266.948	0.34
267.164	57.68
267.38	141.65
267.596	110.93
267.812	51.54
268.028	-32.43
268.244	22.87
268.46	88.4
268.676	69.97
268.892	33.11
269.108	37.2
269.324	16.73
269.54	-65.19
269.756	51.54
269.972	-3.75
270.188	35.16
270.403	47.44
270.619	4.44
270.835	59.73
271.051	72.02
271.267	-95.91
271.483	14.68
271.698	-20.14
271.914	61.78
272.13	4.44
272.346	33.11
272.562	0.34
272.777	12.63
272.993	84.31
273.209	43.35
273.425	14.68
273.64	6.49
273.856	41.3
274.072	-18.09
274.287	53.59
274.503	31.06
274.719	-28.33
274.934	20.82
275.15	-73.39
275.366	-36.52
275.581	20.82
275.797	16.73
276.012	-30.38
276.228	29.01
276.444	22.87
276.659	33.11
276.875	-20.14
277.09	31.06
277.306	14.68
277.521	88.4
277.737	10.58
277.952	39.25
278.168	53.59
278.383	84.31
278.599	90.45
278.814	33.11
279.03	-20.14
279.245	72.02
279.461	61.78
279.676	20.82
279.892	20.82
280.107	24.92
280.322	-1.71
280.538	41.3
280.753	49.49
280.969	123.22
281.184	69.97
281.399	20.82
281.615	6.49
281.83	76.12
282.045	-22.19
282.26	24.92
282.476	100.69
282.691	76.12
282.906	43.35
283.122	35.16
283.337	-38.57
283.552	-20.14
283.767	67.92
283.983	78.16
284.198	8.53
284.413	33.11
284.628	14.68
284.843	74.07
285.058	-30.38
285.274	63.83
285.489	4.44
285.704	-13.99
285.919	-7.85
286.134	-11.95
286.349	2.39
286.564	63.83
286.779	141.65
286.995	-5.8
287.21	10.58
287.425	74.07
287.64	67.92
287.855	39.25
288.07	37.2
288.285	106.84
288.5	100.69
288.715	65.88
288.93	22.87
289.145	55.64
289.36	-3.75
289.575	18.77
289.79	69.97
290.004	49.49
290.219	106.84
290.434	10.58
290.649	16.73
290.864	78.16
291.079	2.39
291.294	-24.23
291.509	49.49
291.724	-11.95
291.938	0.34
292.153	43.35
292.368	-50.86
292.583	96.6
292.798	82.26
293.012	33.11
293.227	18.77
293.442	63.83
293.657	90.45
293.871	47.44
294.086	24.92
294.301	104.79
294.516	0.34
294.73	-22.19
294.945	0.34
295.16	39.25
295.374	67.92
295.589	57.68
295.804	33.11
296.018	82.26
296.233	74.07
296.447	24.92
296.662	-32.43
296.877	18.77
297.091	-26.28
297.306	51.54
297.52	29.01
297.735	24.92
297.949	31.06
298.164	16.73
298.378	-30.38
298.593	-24.23
298.807	-7.85
299.022	82.26
299.236	67.92
299.451	67.92
299.665	51.54
299.88	51.54
300.094	29.01
300.309	61.78
300.523	4.44
300.737	-30.38
300.952	131.41
301.166	80.21
301.381	47.44
301.595	45.4
301.809	-28.33
302.024	41.3
302.238	49.49
302.452	98.64
302.667	20.82
302.881	26.96
303.095	45.4
303.309	67.92
303.524	10.58
303.738	-59.05
303.952	88.4
304.166	39.25
304.381	10.58
304.595	143.7
304.809	74.07
305.023	37.2
305.237	65.88
305.452	18.77
305.666	45.4
305.88	-22.19
306.094	80.21
306.308	76.12
306.522	43.35
306.736	49.49
306.95	-7.85
307.164	69.97
307.379	65.88
307.593	65.88
307.807	43.35
308.021	-3.75
308.235	61.78
308.449	41.3
308.663	0.34
308.877	57.68
309.091	-13.99
309.305	29.01
309.519	12.63
309.733	127.32
309.947	31.06
310.161	61.78
310.374	29.01
310.588	-18.09
310.802	37.2
311.016	-7.85
311.23	24.92
311.444	55.64
311.658	10.58
311.872	59.73
312.085	74.07
312.299	86.36
312.513	33.11
312.727	57.68
312.941	-24.23
313.154	41.3
313.368	-18.09
313.582	43.35
313.796	45.4
314.009	45.4
314.223	65.88
314.437	26.96
314.651	63.83
314.864	12.63
315.078	-38.57
315.292	-30.38
315.505	24.92
315.719	47.44
315.933	33.11
316.146	0.34
316.36	2.39
316.573	100.69
316.787	14.68
317.001	129.36
317.214	69.97
317.428	18.77
317.641	8.53
317.855	31.06
318.068	24.92
318.282	57.68
318.495	104.79
318.709	6.49
318.922	41.3
319.136	82.26
319.349	61.78
319.563	86.36
319.776	90.45
319.99	80.21
320.203	12.63
320.417	29.01
320.63	84.31
320.843	74.07
321.057	90.45
321.27	2.39
321.483	16.73
321.697	41.3
321.91	47.44
322.124	61.78
322.337	65.88
322.55	41.3
322.763	18.77
322.977	67.92
323.19	-28.33
323.403	117.08
323.617	24.92
323.83	18.77
324.043	-13.99
324.256	26.96
324.469	4.44
324.683	78.16
324.896	24.92
325.109	22.87
325.322	41.3
325.535	35.16
325.748	0.34
325.962	12.63
326.175	-18.09
326.388	98.64
326.601	14.68
326.814	-3.75
327.027	18.77
327.24	117.08
327.453	41.3
327.666	37.2
327.879	102.74
328.092	63.83
328.305	22.87
328.518	45.4
328.731	-50.86
328.944	49.49
329.157	41.3
329.37	49.49
329.583	82.26
329.796	65.88
330.009	18.77
330.222	90.45
330.435	39.25
330.648	53.59
330.861	100.69
331.073	14.68
331.286	92.5
331.499	33.11
331.712	61.78
331.925	90.45
332.138	108.88
332.35	84.31
332.563	45.4
332.776	65.88
332.989	18.77
333.202	-18.09
333.414	33.11
333.627	133.46
333.84	-40.62
334.053	0.34
334.265	8.53
334.478	24.92
334.691	65.88
334.903	53.59
335.116	18.77
335.329	29.01
335.541	47.44
335.754	45.4
335.966	-16.04
336.179	98.64
336.392	76.12
336.604	6.49
336.817	61.78
337.029	22.87
337.242	78.16
337.454	74.07
337.667	26.96
337.88	14.68
338.092	4.44
338.305	22.87
338.517	-3.75
338.729	102.74
338.942	39.25
339.154	-77.48
339.367	29.01
339.579	53.59
339.792	24.92
340.004	53.59
340.217	172.37
340.429	123.22
340.641	26.96
340.854	4.44
341.066	65.88
341.278	-26.28
341.491	18.77
341.703	149.84
341.915	6.49
342.128	45.4
342.34	0.34
342.552	53.59
342.764	47.44
342.977	67.92
343.189	131.41
343.401	39.25
343.613	-1.71
343.826	-24.23
344.038	2.39
344.25	10.58
344.462	92.5
344.674	4.44
344.886	53.59
345.099	45.4
345.311	14.68
345.523	12.63
345.735	45.4
345.947	74.07
346.159	61.78
346.371	24.92
346.583	29.01
346.795	20.82
347.007	43.35
347.219	78.16
347.431	26.96
347.643	49.49
347.855	10.58
348.067	26.96
348.279	57.68
348.491	39.25
348.703	96.6
348.915	2.39
349.127	65.88
349.339	33.11
349.551	78.16
349.763	84.31
349.975	69.97
350.187	-5.8
350.399	74.07
350.61	22.87
350.822	104.79
351.034	29.01
351.246	78.16
351.458	59.73
351.669	53.59
351.881	43.35
352.093	10.58
352.305	61.78
352.517	14.68
352.728	63.83
352.94	57.68
353.152	76.12
353.363	-26.28
353.575	102.74
353.787	135.51
353.999	39.25
354.21	2.39
354.422	43.35
354.633	55.64
354.845	43.35
355.057	24.92
355.268	26.96
355.48	92.5
355.692	29.01
355.903	31.06
356.115	72.02
356.326	82.26
356.538	84.31
356.749	80.21
356.961	102.74
357.172	2.39
357.384	37.2
357.595	65.88
357.807	-11.95
358.018	-1.71
358.23	86.36
358.441	94.55
358.653	96.6
358.864	72.02
359.075	39.25
359.287	16.73
359.498	112.98
359.709	-52.91
359.921	-28.33
360.132	82.26
360.344	8.53
360.555	119.12
360.766	6.49
360.977	-36.52
361.189	74.07
361.4	-7.85
361.611	33.11
361.823	90.45
362.034	104.79
362.245	53.59
362.456	76.12
362.667	49.49
362.879	-36.52
363.09	33.11
363.301	45.4
363.512	45.4
363.723	49.49
363.935	112.98
364.146	84.31
364.357	20.82
364.568	35.16
364.779	43.35
364.99	45.4
365.201	92.5
365.412	47.44
365.623	94.55
365.834	53.59
366.045	22.87
366.256	29.01
366.467	69.97
366.678	92.5
366.889	74.07
367.1	41.3
367.311	55.64
367.522	45.4
367.733	-16.04
367.944	-13.99
368.155	59.73
368.366	31.06
368.577	-13.99
368.788	96.6
368.999	31.06
369.209	33.11
369.42	22.87
369.631	94.55
369.842	121.17
370.053	86.36
370.264	72.02
370.474	51.54
370.685	24.92
370.896	12.63
371.107	106.84
371.317	22.87
371.528	82.26
371.739	92.5
371.95	33.11
372.16	-7.85
372.371	55.64
372.582	117.08
372.792	76.12
373.003	53.59
373.214	76.12
373.424	22.87
373.635	35.16
373.846	-16.04
374.056	35.16
374.267	-13.99
374.477	90.45
374.688	31.06
374.898	8.53
375.109	-13.99
375.319	20.82
375.53	69.97
375.74	78.16
375.951	98.64
376.161	37.2
376.372	39.25
376.582	94.55
376.793	104.79
377.003	24.92
377.214	145.75
377.424	69.97
377.635	45.4
377.845	115.03
378.055	47.44
378.266	55.64
378.476	14.68
378.686	82.26
378.897	88.4
379.107	-7.85
379.317	61.78
379.528	90.45
379.738	53.59
379.948	108.88
380.158	41.3
380.369	61.78
380.579	94.55
380.789	29.01
380.999	84.31
381.21	39.25
381.42	63.83
381.63	22.87
381.84	133.46
382.05	69.97
382.261	55.64
382.471	76.12
382.681	26.96
382.891	31.06
383.101	74.07
383.311	65.88
383.521	69.97
383.731	80.21
383.941	69.97
384.151	65.88
384.361	33.11
384.571	80.21
384.781	49.49
384.991	153.94
385.201	125.27
385.411	110.93
385.621	43.35
385.831	49.49
386.041	53.59
386.251	65.88
386.461	115.03
386.671	35.16
386.881	90.45
387.091	59.73
387.301	49.49
387.511	104.79
387.72	115.03
387.93	74.07
388.14	72.02
388.35	37.2
388.56	63.83
388.769	143.7
388.979	131.41
389.189	-11.95
389.399	63.83
389.609	98.64
389.818	125.27
390.028	86.36
390.238	121.17
390.447	2.39
390.657	51.54
390.867	78.16
391.076	37.2
391.286	98.64
391.496	31.06
391.705	102.74
391.915	84.31
392.125	14.68
392.334	61.78
392.544	88.4
392.753	88.4
392.963	55.64
393.172	18.77
393.382	102.74
393.591	84.31
393.801	147.8
394.01	14.68
394.22	117.08
394.429	22.87
394.639	82.26
394.848	41.3
395.058	88.4
395.267	98.64
395.477	123.22
395.686	119.12
395.895	84.31
396.105	125.27
396.314	100.69
396.524	86.36
396.733	106.84
396.942	121.17
397.152	94.55
397.361	106.84
397.57	112.98
397.78	59.73
397.989	133.46
398.198	180.56
398.407	133.46
398.617	74.07
398.826	96.6
399.035	106.84
399.244	104.79
399.453	155.99
399.663	170.32
399.872	115.03
400.081	110.93
400.29	143.7
400.499	108.88
400.708	125.27
400.917	98.64
401.127	147.8
401.336	141.65
401.545	55.64
401.754	104.79
401.963	90.45
402.172	125.27
402.381	129.36
402.59	137.56
402.799	125.27
403.008	139.6
403.217	180.56
403.426	115.03
403.635	100.69
403.844	137.56
404.053	135.51
404.262	127.32
404.471	176.47
404.68	133.46
404.888	176.47
405.097	139.6
405.306	196.95
405.515	82.26
405.724	141.65
405.933	229.71
406.142	164.18
406.35	160.08
406.559	141.65
406.768	198.99
406.977	252.24
407.185	237.91
407.394	221.52
407.603	188.75
407.812	190.8
408.02	223.57
408.229	315.73
408.438	287.06
408.646	291.15
408.855	225.62
409.064	285.01
409.272	282.96
409.481	307.54
409.69	274.77
409.898	295.25
410.107	278.87
410.315	278.87
410.524	307.54
410.733	344.4
410.941	315.73
411.15	393.55
411.358	340.3
411.567	471.37
411.775	426.32
411.984	450.89
412.192	534.86
412.401	504.14
412.609	473.42
412.818	530.77
413.026	475.47
413.234	536.91
413.443	565.58
413.651	514.38
413.86	541.01
414.068	649.55
414.276	555.34
414.485	588.11
414.693	633.16
414.901	696.65
415.11	776.52
415.318	721.23
415.526	764.23
415.734	725.32
415.943	858.44
416.151	866.63
416.359	821.58
416.567	840.01
416.776	938.31
416.984	854.34
417.192	973.13
417.4	985.41
417.608	979.27
417.817	1048.9
418.025	1007.94
418.233	1132.87
418.441	1177.92
418.649	1272.13
418.857	1235.27
419.065	1392.96
419.273	1292.61
419.481	1245.51
419.689	1431.87
419.897	1397.06
420.105	1517.89
420.313	1513.79
420.521	1544.51
420.729	1573.18
420.937	1739.07
421.145	1747.26
421.353	1841.47
421.561	1958.2
421.769	1952.06
421.977	2068.79
422.185	2050.36
422.393	2056.5
422.601	2271.54
422.809	2277.68
423.017	2351.41
423.224	2531.63
423.432	2562.35
423.64	2586.93
423.848	2732.33
424.056	2746.67
424.263	3027.24
424.471	2869.55
424.679	3103.01
424.887	3070.25
425.094	3211.56
425.302	3213.6
425.51	3404.07
425.718	3569.95
425.925	3453.22
426.133	3615.01
426.341	3713.31
426.548	4069.66
426.756	3952.92
426.964	4036.89
427.171	4294.93
427.379	4481.3
427.586	4532.5
427.794	4518.16
428.001	4880.65
428.209	5019.91
428.417	4921.61
428.624	5265.67
428.832	5204.23
429.039	5345.54
429.247	5241.09
429.454	5718.27
429.662	6091
429.869	5841.15
430.076	6029.56
430.284	6058.23
430.491	6310.13
430.699	6764.78
430.906	6725.87
431.114	6689.01
431.321	6930.67
431.528	7084.27
431.736	7674.08
431.943	7946.46
432.15	7583.97
432.358	7809.25
432.565	8235.22
432.772	8224.98
432.979	8468.69
433.187	8648.91
433.394	8706.26
433.601	9330.89
433.808	9470.15
434.016	9494.72
434.223	9566.4
434.43	10354.87
434.637	10279.1
434.844	10733.75
435.052	11028.65
435.259	10916.01
435.466	11106.48
435.673	10870.96
435.88	11524.26
436.087	12224.67
436.294	12214.43
436.501	12114.08
436.708	12191.9
436.915	12933.26
437.122	13170.83
437.329	13156.49
437.537	13594.76
437.743	14039.17
437.95	13752.45
438.157	14430.33
438.364	15163.5
438.571	14876.79
438.778	15167.6
438.985	16529.5
439.192	15695.97
439.399	16326.75
439.606	16066.66
439.813	16805.97
440.02	17969.22
440.227	17614.92
440.433	17508.43
440.64	18032.71
440.847	18038.85
441.054	18325.57
441.261	19650.6
441.467	19335.21
441.674	19992.61
441.881	20504.6
442.088	20367.39
442.294	20260.9
442.501	20840.47
442.708	21393.42
442.914	21868.55
443.121	22755.32
443.328	22296.58
443.534	23975.91
443.741	23410.67
443.948	22876.15
444.154	24854.49
444.361	24549.34
444.568	24733.66
444.774	24528.86
444.981	25165.78
445.187	25843.66
445.394	27135.93
445.6	26582.98
445.807	29001.63
446.013	27713.45
446.22	28180.39
446.426	29298.58
446.633	29398.93
446.839	30441.35
447.046	29245.34
447.252	30932.86
447.459	30852.99
447.665	31178.62
447.871	32153.45
448.078	33775.44
448.284	32278.38
448.491	33159
448.697	34443.08
448.903	35342.14
449.11	34959.17
449.316	34660.16
449.522	35340.09
449.728	35708.72
449.935	36163.37
450.141	36357.93
450.347	37379.87
450.553	36206.38
450.76	36517.67
450.966	37818.13
451.172	37533.46
451.378	38272.78
451.584	37500.7
451.791	38389.52
451.997	38227.73
452.203	39100.16
452.409	39511.8
452.615	38981.38
452.821	37488.41
453.027	37232.41
453.233	39089.92
453.44	37601.05
453.646	37576.47
453.852	37760.79
454.058	39161.6
454.264	37521.18
454.47	38020.88
454.676	37586.71
454.882	38930.18
455.088	35467.06
455.294	35764.02
455.5	36310.83
455.705	36681.51
455.911	35254.08
456.117	34635.59
456.323	34355.02
456.529	32464.74
456.735	33904.46
456.941	32927.58
457.147	32702.31
457.352	31575.92
457.558	31080.32
457.764	31428.47
457.97	30668.67
458.176	30148.49
458.381	30039.95
458.587	28719.01
458.793	28645.28
458.999	27119.54
459.204	29345.69
459.41	28129.19
459.616	26326.98
459.821	26437.57
460.027	26150.85
460.233	25667.53
460.438	24502.24
460.644	24688.6
460.85	23744.49
461.055	23173.11
461.261	23414.77
461.466	21549.07
461.672	20957.21
461.878	22362.11
462.083	20996.12
462.289	20308
462.494	20215.84
462.7	19308.59
462.905	18741.3
463.111	19490.86
463.316	19591.21
463.522	19300.4
463.727	19574.83
463.932	19284.02
464.138	18931.76
464.343	19126.32
464.549	18477.12
464.754	19259.44
464.959	18927.67
465.165	18925.62
465.37	17846.34
465.575	17557.58
465.781	18286.65
465.986	18444.35
466.191	17649.74
466.397	17522.76
466.602	16388.19
466.807	17457.23
467.012	17277.01
467.218	16984.15
467.423	16992.34
467.628	17152.08
467.833	17786.95
468.038	17094.74
468.244	16230.49
468.449	17217.61
468.654	16566.36
468.859	16629.85
469.064	16502.87
469.269	15736.93
469.474	15855.72
469.679	15931.49
469.885	16066.66
470.09	15999.07
470.295	15913.06
470.5	15571.05
470.705	15685.73
470.91	15384.68
471.115	15138.93
471.32	15601.77
471.525	15257.71
471.73	14919.79
471.935	14915.7
472.139	14493.82
472.344	14622.84
472.549	14467.19
472.754	14305.4
472.959	14100.61
473.164	13879.43
473.369	13449.35
473.574	14295.16
473.778	13785.22
473.983	13734.02
474.188	13707.4
474.393	13133.96
474.598	13193.36
474.802	12753.04
475.007	13080.72
475.212	12808.34
475.417	12288.15
475.621	12437.66
475.826	12357.78
476.031	12333.21
476.235	12144.8
476.44	12124.32
476.645	11987.1
476.849	12142.75
477.054	11864.22
477.259	11767.97
477.463	11659.43
477.668	11593.89
477.872	11544.74
478.077	11303.08
478.282	11280.55
478.486	11112.62
478.691	11088.04
478.895	10895.54
479.1	10895.54
479.304	11049.13
479.509	10766.51
479.713	10748.08
479.918	10420.41
480.122	10340.54
480.326	10442.93
480.531	10463.41
480.735	10471.61
480.94	10062.01
481.144	10815.66
481.348	10174.65
481.553	10457.27
481.757	10016.96
481.961	10305.72
482.166	10424.5
482.37	10125.5
482.574	9742.53
482.778	9912.51
482.983	10299.58
483.187	10066.11
483.391	10150.07
483.595	10035.39
483.8	10021.05
484.004	10150.07
484.208	10350.78
484.412	10133.69
484.616	10105.02
484.821	9896.13
485.025	9900.22
485.229	10293.43
485.433	9918.65
485.637	10055.87
485.841	9994.43
486.045	10141.88
486.249	9959.61
486.453	9892.03
486.657	10158.27
486.861	10184.89
487.065	9738.43
487.269	10008.76
487.473	9824.45
487.677	10172.6
487.881	10125.5
488.085	10166.46
488.289	9992.38
488.493	10045.63
488.697	10170.55
488.901	10266.81
489.105	10195.13
489.309	10180.79
489.512	10125.5
489.716	10137.79
489.92	10229.95
490.124	10414.26
490.328	10354.87
490.531	10338.49
490.735	10418.36
490.939	10455.22
491.143	10522.8
491.346	10324.15
491.55	10483.89
491.754	10567.86
491.958	10508.47
492.161	10604.72
492.365	10600.63
492.569	10676.4
492.772	10612.92
492.976	10856.62
493.18	10793.14
493.383	11036.84
493.587	10842.29
493.79	11042.99
493.994	11028.65
494.197	11157.68
494.401	11231.4
494.605	10977.45
494.808	11473.06
495.012	11286.7
495.215	11464.87
495.419	11597.99
495.622	11538.6
495.825	11667.62
496.029	11827.36
496.232	12032.16
496.436	12050.59
496.639	12177.56
496.843	12091.55
497.046	12365.98
497.249	12554.39
497.453	12578.97
497.656	12781.71
497.859	12728.47
498.063	12927.12
498.266	13277.32
498.469	13387.91
498.673	13166.73
498.876	13578.37
499.079	13463.69
499.282	13559.94
499.485	13908.1
499.689	14133.37
499.892	13957.25
500.095	14311.55
500.298	14368.89
500.501	14524.54
500.705	14835.83
500.908	14782.58
501.111	15063.15
501.314	15270
501.517	15169.65
501.72	15569
501.923	15573.1
502.126	15921.25
502.329	16132.19
502.532	16169.05
502.735	16031.84
502.938	16566.36
503.141	16656.47
503.344	16941.14
503.547	17045.59
503.75	17199.18
503.953	17315.92
504.156	17522.76
504.359	17922.12
504.562	18022.47
504.765	18444.35
504.968	18229.31
505.17	18847.8
505.373	18536.51
505.576	19130.42
505.779	19136.56
505.982	19222.58
506.185	19634.22
506.387	19965.99
506.59	19564.59
506.793	20113.44
506.996	20037.67
507.198	20815.9
507.401	20387.87
507.604	21043.22
507.807	21123.09
508.009	21225.49
508.212	21098.52
508.415	21753.87
508.617	22165.51
508.82	22190.08
509.022	22226.95
509.225	22548.48
509.428	23048.18
509.63	22945.78
509.833	23349.23
510.035	23746.54
510.238	23408.62
510.44	24184.8
510.643	24287.2
510.845	24627.17
511.048	24375.27
511.25	24836.06
511.453	24731.61
511.655	25827.28
511.858	25313.24
512.06	25384.91
512.262	26021.83
512.465	26159.05
512.667	26365.89
512.87	26550.21
513.072	26947.51
513.274	27189.17
513.477	27344.82
513.679	27643.82
513.881	27887.53
514.084	28004.27
514.286	28276.65
514.488	28723.1
514.69	29210.52
514.893	29212.57
515.095	29208.47
515.297	29736.85
515.499	29724.56
515.701	30152.59
515.904	30177.16
516.106	30711.68
516.308	30920.57
516.51	31436.66
516.712	31420.28
516.914	31182.71
517.116	31907.69
517.318	32036.72
517.52	32454.5
517.722	32339.82
517.925	32808.8
518.127	33462.1
518.329	33474.39
518.531	33206.11
518.733	34217.8
518.935	34254.67
519.136	34185.04
519.338	34438.98
519.54	35010.37
519.742	34819.91
519.944	35700.53
520.146	35716.92
520.348	36259.63
520.55	36519.72
520.752	36433.71
520.954	37226.27
521.155	36439.85
521.357	37386.01
521.559	37500.7
521.761	38037.26
521.963	37728.02
522.164	38024.98
522.366	37883.67
522.568	38418.19
522.77	38659.85
522.971	39255.81
523.173	39229.18
523.375	39579.39
523.576	39524.09
523.778	39681.78
523.98	40222.45
524.181	40455.92
524.383	40369.9
524.584	41111.27
524.786	40912.61
524.988	40646.38
525.189	41058.02
525.391	41479.9
525.592	41422.56
525.794	41465.56
525.995	41600.73
526.197	42034.9
526.398	42137.3
526.6	42538.7
526.801	42583.76
527.003	42985.16
527.204	42393.29
527.406	43247.3
527.607	43316.93
527.808	43247.3
528.01	42555.08
528.211	43081.41
528.412	44111.54
528.614	43749.05
528.815	43607.74
529.016	44629.68
529.218	43677.37
529.419	43988.66
529.62	43980.47
529.822	44101.3
530.023	44261.04
530.224	44283.57
530.425	44265.14
530.626	43984.57
530.828	44107.44
531.029	44936.87
531.23	44508.85
531.431	44641.96
531.632	44889.77
531.833	44965.54
532.035	44689.07
532.236	44943.02
532.437	45231.78
532.638	44828.33
532.839	45053.61
533.04	44996.26
533.241	44832.43
533.442	45862.55
533.643	45127.33
533.844	45201.06
534.045	45668
534.246	44816.04
534.447	45461.15
534.648	45184.68
534.849	45651.61
535.05	45321.89
535.251	45713.05
535.451	45262.5
535.652	45747.87
535.853	45532.83
536.054	45389.47
536.255	45715.1
536.456	45186.72
536.657	46038.68
536.857	45643.42
537.058	45287.07
537.259	46102.17
537.46	45250.21
537.66	45258.4
537.861	45584.03
538.062	45436.58
538.263	45479.58
538.463	45401.76
538.664	45145.76
538.865	45434.53
539.065	45864.6
539.266	44996.26
539.466	45803.16
539.667	44957.35
539.868	45880.99
540.068	45385.38
540.269	45268.64
540.469	45889.18
540.67	45248.16
540.87	45475.49
541.071	45598.37
541.271	45770.39
541.472	45082.28
541.672	45248.16
541.873	45571.74
542.073	44850.86
542.274	45543.07
542.474	45156
542.675	45344.42
542.875	45127.33
543.075	45278.88
543.276	45174.44
543.476	45627.04
543.676	44891.82
543.877	45758.11
544.077	45565.6
544.277	45538.97
544.478	45229.73
544.678	45250.21
544.878	45616.8
545.078	45354.66
545.279	45305.51
545.479	45354.66
545.679	44986.02
545.879	44930.73
546.079	45213.35
546.28	45102.76
546.48	45113
546.68	45307.55
546.88	45180.58
547.08	44932.78
547.28	45401.76
547.48	44744.36
547.68	45078.18
547.88	45076.13
548.081	45231.78
548.281	45260.45
548.481	44951.21
548.681	45663.9
548.881	44994.21
549.081	45498.02
549.28	44918.44
549.48	45416.1
549.68	44730.03
549.88	45737.63
550.08	45024.93
550.28	45721.24
550.48	44811.95
550.68	45371.04
550.88	45203.11
551.08	45352.61
551.279	44940.97
551.479	44926.63
551.679	45162.15
551.879	45444.77
552.079	45412
552.278	44500.65
552.478	45278.88
552.678	45057.7
552.878	45498.02
553.077	44965.54
553.277	44922.54
553.477	45409.95
553.676	45008.55
553.876	44621.48
554.076	44996.26
554.275	45094.57
554.475	44340.91
554.674	45201.06
554.874	45029.03
555.074	44558
555.273	44934.82
555.473	45184.68
555.672	44322.48
555.872	44955.3
556.071	44689.07
556.271	44986.02
556.47	44615.34
556.67	44482.22
556.869	44529.33
557.068	44621.48
557.268	44494.51
557.467	44664.49
557.667	44644.01
557.866	44486.32
558.065	44324.53
558.265	44281.52
558.464	44304.05
558.663	44482.22
558.863	43693.75
559.062	44873.38
559.261	44238.51
559.461	44334.77
559.66	43734.71
559.859	44326.58
560.058	44031.67
560.258	44306.1
560.457	43796.15
560.656	43959.99
560.855	43980.47
561.054	44320.43
561.253	43441.85
561.453	43583.16
561.652	44050.1
561.851	43738.81
562.05	43787.96
562.249	43568.83
562.448	43845.3
562.647	43609.79
562.846	43742.91
563.045	43609.79
563.244	43271.87
563.443	43452.09
563.642	43202.24
563.841	43036.36
564.04	43181.76
564.239	43472.57
564.438	42686.15
564.637	43353.79
564.836	43202.24
565.035	42733.26
565.234	43247.3
565.432	42471.12
565.631	42362.57
565.83	42903.24
566.029	42618.57
566.228	42536.65
566.427	42112.72
566.625	42245.84
566.824	41768.66
567.023	42507.98
567.222	41664.22
567.42	42641.1
567.619	42262.22
567.818	41909.97
568.016	42323.66
568.215	42243.79
568.414	42127.06
568.612	42589.9
568.811	41342.69
569.01	41522.91
569.208	41293.54
569.407	41692.89
569.605	41354.97
569.804	41815.77
570.002	40922.85
570.201	41791.19
570.4	40949.48
570.598	40990.44
570.797	40566.51
570.995	41015.01
571.193	40564.46
571.392	41086.69
571.59	40607.47
571.789	40535.79
571.987	40716.01
572.186	40785.64
572.384	40457.96
572.582	40711.91
572.781	40679.14
572.979	40027.89
573.177	40380.14
573.376	40050.42
573.574	39862.01
573.772	40236.78
573.971	39835.38
574.169	40124.15
574.367	39458.56
574.565	39646.97
574.763	39921.4
574.962	39374.59
575.16	39241.47
575.358	39493.37
575.556	38950.66
575.754	39651.06
575.952	39091.97
576.151	39474.94
576.349	38731.53
576.547	39175.94
576.745	38901.51
576.943	39051.01
577.141	38872.84
577.339	38686.47
577.537	39096.06
577.735	38418.19
577.933	38266.64
578.131	38307.6
578.329	38217.49
578.527	38049.55
578.725	38221.58
578.923	38430.47
579.121	38160.14
579.319	37723.93
579.516	37979.92
579.714	37635.86
579.912	37549.85
580.11	37639.96
580.308	37713.69
580.506	37822.23
580.704	37074.72
580.901	37351.2
581.099	37547.8
581.297	37236.51
581.495	37082.91
581.692	37156.64
581.89	36931.36
582.088	37572.38
582.285	36513.58
582.483	36788
582.681	36656.93
582.878	36624.17
583.076	36652.84
583.274	36495.14
583.471	35997.49
583.669	36597.54
583.866	35968.82
584.064	36132.65
584.262	36009.78
584.459	36298.54
584.657	36017.97
584.854	35770.16
585.052	35301.18
585.249	35952.43
585.447	35770.16
585.644	35487.54
585.841	35571.51
586.039	35909.43
586.236	35237.69
586.434	35356.47
586.631	35006.27
586.828	35172.16
587.026	35274.56
587.223	34750.28
587.42	34611.01
587.618	34434.89
587.815	34434.89
588.012	34260.81
588.21	34252.62
588.407	35071.81
588.604	34178.89
588.801	34010.96
588.999	34414.41
589.196	34432.84
589.393	34189.13
589.59	33978.19
589.787	33802.07
589.984	33455.96
590.182	33525.59
590.379	33832.79
590.576	33582.93
590.773	33271.64
590.97	33177.44
591.167	34060.11
591.364	32622.44
591.561	33077.08
591.758	32751.46
591.955	32929.63
592.152	32763.75
592.349	32489.32
592.546	32614.24
592.743	32440.17
592.94	32466.79
593.137	32628.58
593.334	32257.9
593.531	31969.13
593.727	32239.47
593.924	32397.16
594.121	32016.24
594.318	32386.92
594.515	31526.77
594.712	31985.52
594.908	31727.47
595.105	31659.89
595.302	31293.3
595.499	31475.57
595.696	31647.6
595.892	31188.86
596.089	31506.29
596.286	31358.84
596.482	31377.27
596.679	30982.01
596.876	31020.92
597.072	30504.84
597.269	30748.54
597.466	30777.22
597.662	30117.77
597.859	30152.59
598.055	30689.15
598.252	30197.64
598.448	30152.59
598.645	30103.43
598.841	30033.8
599.038	30117.77
599.234	29837.2
599.431	29636.5
599.627	29837.2
599.824	29704.08
600.02	29786
600.217	29636.5
600.413	29403.03
600.609	29497.24
600.806	29185.94
601.002	29349.78
601.198	29286.29
601.395	28954.52
601.591	29173.66
601.787	29185.94
601.984	28727.2
602.18	29222.81
602.376	28592.03
602.572	28622.75
602.769	28204.97
602.965	28313.51
603.161	28280.74
603.357	28317.61
603.553	28454.82
603.75	28307.37
603.946	27938.73
604.142	27895.72
604.338	27805.61
604.534	27676.59
604.73	27729.84
604.926	27662.26
605.122	27582.38
605.318	27629.49
605.514	27375.54
605.71	27674.54
605.906	27283.38
606.102	27430.83
606.298	27293.62
606.494	27101.11
606.69	27248.57
606.886	26918.84
607.082	26787.77
607.278	27310
607.474	26417.09
607.67	27289.52
607.866	26374.08
608.062	27074.49
608.257	26707.9
608.453	26998.71
608.649	26625.98
608.845	26683.33
609.041	26630.08
609.236	26560.45
609.432	26331.08
609.628	26480.58
609.824	25976.78
610.019	26185.67
610.215	26062.79
610.411	26191.81
610.606	26064.84
610.802	26365.89
610.998	26425.28
611.193	26085.32
611.389	25808.84
611.584	26103.75
611.78	25585.61
611.976	25847.75
612.171	25917.39
612.367	25884.62
612.562	25714.64
612.758	25468.88
612.953	25411.54
613.149	25581.52
613.344	25110.49
613.539	25767.88
613.735	25534.42
613.93	25509.84
614.126	25141.21
614.321	25485.26
614.517	25593.81
614.712	25159.64
614.907	25049.05
615.103	25182.17
615.298	24864.73
615.493	25411.54
615.688	24723.42
615.884	25427.92
616.079	24893.4
616.274	25133.01
616.47	25102.29
616.665	24700.89
616.86	24883.16
617.055	24883.16
617.25	24670.17
617.445	24721.37
617.641	24279.01
617.836	24692.7
618.031	24356.83
618.226	24563.68
618.421	24129.51
618.616	24647.65
618.811	23922.66
619.006	24203.24
619.201	23453.68
619.396	24256.48
619.591	23545.84
619.786	23951.34
619.981	23551.98
620.176	24014.82
620.371	23465.97
620.566	23629.8
620.761	23318.51
620.956	23406.58
621.151	22898.68
621.346	23072.76
621.541	23066.61
621.735	23218.16
621.93	22745.08
622.125	22763.51
622.32	22712.31
622.515	22951.93
622.709	22261.76
622.904	22413.31
623.099	22484.99
623.294	22542.33
623.488	21925.89
623.683	21884.94
623.878	21770.25
624.072	21856.26
624.267	21325.84
624.462	21499.92
624.656	21504.01
624.851	21338.13
625.046	21166.1
625.24	21073.94
625.435	20795.42
625.629	20721.69
625.824	20697.11
626.018	20541.47
626.213	20312.1
626.407	20469.79
626.602	20357.15
626.796	20555.8
626.991	20086.82
627.185	19961.89
627.38	20090.91
627.574	19894.31
627.768	19525.68
627.963	19421.23
628.157	19533.87
628.352	19812.39
628.546	19079.22
628.74	19308.59
628.935	18784.31
629.129	19183.66
629.323	18708.54
629.517	18913.33
629.712	18772.02
629.906	18593.85
630.1	18337.85
630.294	18376.76
630.489	18378.81
630.683	18247.74
630.877	17973.32
631.071	18063.43
631.265	18083.91
631.459	17762.37
631.653	17725.51
631.848	17977.41
632.042	17664.07
632.236	17598.54
632.43	17268.81
632.624	17379.4
632.818	17080.4
633.012	17008.72
633.206	17100.88
633.4	17264.72
633.594	16959.57
633.788	16855.12
633.982	16894.04
634.176	16791.64
634.369	16642.14
634.563	16818.26
634.757	16414.81
634.951	16351.32
635.145	16447.58
635.339	16277.6
635.533	16140.38
635.726	16330.84
635.92	15818.85
636.114	16011.36
636.308	15808.61
636.501	15693.93
636.695	15986.79
636.889	15704.17
637.083	15435.88
637.276	15407.21
637.47	15315.05
637.664	15161.45
637.857	15255.66
638.051	15183.98
638.244	15011.95
638.438	15196.27
638.632	14987.38
638.825	15016.05
639.019	14803.06
639.212	14821.49
639.406	14661.75
639.599	14649.46
639.793	14497.91
639.986	14289.02
640.18	14487.67
640.373	14305.4
640.567	14282.88
640.76	14321.79
640.954	13781.12
641.147	13977.73
641.34	13949.06
641.534	14160
641.727	13990.02
641.92	13762.69
642.114	13781.12
642.307	13561.99
642.5	13639.81
642.694	13533.32
642.887	13328.52
643.08	13459.59
643.273	13332.62
643.467	13238.41
643.66	13199.5
643.853	13060.24
644.046	13009.04
644.239	12957.84
644.432	12841.11
644.626	12783.76
644.819	12902.54
645.012	12615.83
645.205	12611.73
645.398	12611.73
645.591	12339.35
645.784	12423.32
645.977	12456.09
646.17	12615.83
646.363	12296.35
646.556	12294.3
646.749	12261.53
646.942	12359.83
647.135	12157.08
647.328	12105.88
647.521	12019.87
647.714	11862.18
647.907	11798.69
648.099	11794.59
648.292	11767.97
648.485	11720.87
648.678	11458.73
648.871	11612.32
649.064	11526.31
649.256	11321.51
649.449	11301.03
649.642	11079.85
649.835	11495.59
650.027	11272.36
650.22	10858.67
650.413	11061.42
650.605	10965.17
650.798	10961.07
650.991	10610.87
651.183	10950.83
651.376	10758.32
651.568	10793.14
651.761	10666.16
651.954	10700.98
652.146	10457.27
652.339	10479.8
652.531	10641.59
652.724	10334.39
652.916	10311.86
653.109	10389.69
653.301	10223.8
653.494	10295.48
653.686	9976
653.879	9996.48
654.071	10203.32
654.263	10053.82
654.456	9900.22
654.648	9951.42
654.84	9894.08
655.033	9855.17
655.225	9826.5
655.417	9597.12
655.61	9636.03
655.802	9701.57
655.994	9668.8
656.186	9521.35
656.379	9388.23
656.571	9564.36
656.763	9365.7
656.955	9490.63
657.148	9312.46
657.34	9326.79
657.532	9115.85
657.724	9165
657.916	9353.41
658.108	9326.79
658.3	9017.55
658.492	8902.86
658.684	8945.87
658.876	8915.15
659.068	8693.97
659.26	8650.96
659.452	8814.8
659.644	8607.95
659.836	8515.8
660.028	8610
660.22	8448.21
660.412	8593.62
660.604	8331.48
660.796	8622.29
660.988	8397.01
661.18	8356.05
661.372	8362.2
661.563	8392.92
661.755	8179.93
661.947	8257.75
662.139	8190.17
662.331	8186.07
662.522	8177.88
662.714	8224.98
662.906	7897.31
663.097	8003.8
663.289	7948.51
663.481	8059.1
663.673	8020.19
663.864	7807.2
664.056	7684.32
664.247	7794.91
664.439	7868.64
664.631	7813.34
664.822	7641.31
665.014	7657.7
665.205	7551.2
665.397	7563.49
665.588	7516.39
665.78	7637.22
665.971	7483.62
666.163	7532.77
666.354	7434.47
666.546	7291.11
666.737	7301.35
666.929	7205.1
667.12	7190.76
667.311	7325.93
667.503	7102.7
667.694	7094.51
667.885	7137.51
668.077	7235.81
668.268	6975.72
668.459	7028.97
668.651	6934.76
668.842	6908.14
669.033	6959.34
669.224	6850.8
669.416	6856.94
669.607	6879.47
669.798	6811.89
669.989	6625.52
670.18	6807.79
670.371	6539.51
670.563	6746.35
670.754	6680.82
670.945	6533.36
671.136	6676.72
671.327	6580.46
671.518	6680.82
671.709	6445.3
671.9	6566.13
672.091	6408.44
672.282	6357.24
672.473	6416.63
672.664	6402.29
672.855	6447.35
673.046	6420.72
673.237	6525.17
673.428	6312.18
673.619	6371.57
673.809	6375.67
674	6109.43
674.191	6295.8
674.382	6181.11
674.573	6103.29
674.764	6101.24
674.954	6002.94
675.145	6113.53
675.336	6093.05
675.527	6080.76
675.717	5984.51
675.908	5918.97
676.099	5939.45
676.289	6088.95
676.48	5935.35
676.671	5837.05
676.861	5986.55
677.052	5894.4
677.243	5828.86
677.433	5759.23
677.624	5728.51
677.814	5853.44
678.005	5835
678.195	5892.35
678.386	5859.58
678.576	5828.86
678.767	5785.85
678.957	5667.07
679.148	5742.85
679.338	5681.41
679.529	5605.63
679.719	5613.82
679.909	5740.8
680.1	5740.8
680.29	5781.76
680.481	5648.64
680.671	5505.28
680.861	5665.02
681.052	5652.74
681.242	5531.9
681.432	5613.82
681.622	5583.1
681.813	5460.23
682.003	5472.51
682.193	5503.23
682.383	5368.07
682.573	5447.94
682.764	5466.37
682.954	5456.13
683.144	5464.32
683.334	5273.86
683.524	5222.66
683.714	5402.88
683.904	5275.91
684.094	5243.14
684.284	5361.92
684.474	5253.38
684.664	5196.04
684.854	5212.42
685.044	5187.85
685.234	5011.72
685.424	5216.52
685.614	5144.84
685.804	5157.13
685.994	4993.29
686.184	4995.34
686.374	5247.24
686.564	5112.07
686.753	5101.83
686.943	5044.49
687.133	4948.23
687.323	4956.43
687.513	4925.71
687.702	5083.4
687.892	4940.04
688.082	4876.55
688.272	4925.71
688.461	4720.91
688.651	4813.07
688.841	4667.66
689.03	4655.37
689.22	4722.96
689.41	4677.9
689.599	4718.86
689.789	4698.38
689.979	4598.03
690.168	4546.83
690.358	4622.61
690.547	4620.56
690.737	4626.7
690.926	4532.5
691.116	4413.71
691.305	4428.05
691.495	4473.11
691.684	4497.68
691.874	4499.73
692.063	4434.19
692.252	4356.37
692.442	4469.01
692.631	4292.88
692.82	4389.14
693.01	4301.08
693.199	4342.04
693.388	4182.29
693.578	4180.25
693.767	4081.94
693.956	4247.83
694.146	4178.2
694.335	4262.16
694.524	4221.2
694.713	4108.57
694.902	4262.16
695.092	4159.77
695.281	4108.57
695.47	4114.71
695.659	4190.49
695.848	4069.66
696.037	4036.89
696.226	4079.9
696.415	3981.59
696.604	4083.99
696.793	3916.06
696.982	3942.68
697.171	3952.92
697.36	3977.5
697.549	3922.2
697.738	3893.53
697.927	3795.23
698.116	3889.43
698.305	4000.02
698.494	3821.85
698.683	3817.76
698.872	3893.53
699.061	3809.56
699.25	3791.13
699.438	3797.28
699.627	3813.66
699.816	3868.95
700.005	3885.34
700.193	3805.47
700.382	3741.98
700.571	3821.85
700.76	3672.35
700.948	3768.6
701.137	3799.32
701.326	3795.23
701.514	3623.2
701.703	3834.14
701.892	3723.55
702.08	3684.64
702.269	3776.8
702.457	3660.06
702.646	3709.21
702.834	3688.73
703.023	3750.17
703.212	3721.5
703.4	3653.92
703.589	3672.35
703.777	3696.92
703.965	3678.49
704.154	3635.49
704.342	3709.21
704.531	3572
704.719	3563.81
704.907	3514.66
705.096	3604.77
705.284	3580.19
705.472	3518.75
705.661	3658.01
705.849	3662.11
706.037	3711.26
706.226	3498.27
706.414	3549.47
706.602	3590.43
706.79	3608.86
706.979	3649.82
707.167	3606.81
707.355	3549.47
707.543	3561.76
707.731	3592.48
707.919	3479.84
708.107	3563.81
708.296	3475.74
708.484	3402.02
708.672	3510.56
708.86	3375.39
709.048	3379.49
709.236	3567.9
709.424	3524.9
709.612	3471.65
709.8	3520.8
709.988	3498.27
710.176	3485.98
710.364	3565.85
710.551	3539.23
710.739	3477.79
710.927	3541.28
711.115	3418.4
711.303	3555.62
711.491	3553.57
711.679	3418.4
711.866	3426.59
712.054	3391.78
712.242	3365.15
712.43	3498.27
712.617	3381.54
712.805	3361.06
712.993	3359.01
713.181	3418.4
713.368	3432.74
713.556	3363.11
713.744	3330.34
713.931	3438.88
714.119	3490.08
714.306	3416.35
714.494	3410.21
714.682	3426.59
714.869	3322.15
715.057	3399.97
715.244	3350.82
715.432	3373.35
715.619	3260.71
715.807	3422.5
715.994	3406.11
716.182	3332.39
716.369	3320.1
716.556	3340.58
716.744	3381.54
716.931	3500.32
717.119	3334.43
717.306	3381.54
717.493	3324.19
717.681	3354.91
717.868	3283.24
718.055	3404.07
718.242	3397.92
718.43	3332.39
718.617	3430.69
718.804	3256.61
718.991	3381.54
719.179	3283.24
719.366	3379.49
719.553	3326.24
719.74	3393.83
719.927	3332.39
720.114	3295.52
720.301	3236.13
720.488	3254.56
720.676	3285.28
720.863	3408.16
721.05	3303.71
721.237	3156.26
721.424	3258.66
721.611	3352.87
721.798	3377.44
721.985	3277.09
722.172	3363.11
722.358	3283.24
722.545	3301.67
722.732	3139.88
722.919	3289.38
723.106	3336.48
723.293	3297.57
723.48	3408.16
723.667	3174.69
723.853	3166.5
724.04	3291.43
724.227	3156.26
724.414	3174.69
724.6	3211.56
724.787	3387.68
724.974	3352.87
725.161	3174.69
725.347	3107.11
725.534	3207.46
725.72	3232.04
725.907	3293.48
726.094	3174.69
726.28	3191.08
726.467	3154.21
726.653	3307.81
726.84	3162.41
727.027	3352.87
727.213	3203.36
727.4	3268.9
727.586	3234.08
727.773	3117.35
727.959	3250.47
728.145	3156.26
728.332	3244.32
728.518	3180.84
728.705	3189.03
728.891	3137.83
729.077	3060.01
729.264	3191.08
729.45	3277.09
729.636	3166.5
729.823	3135.78
730.009	3217.7
730.195	3189.03
730.382	3260.71
730.568	3193.12
730.754	3172.64
730.94	3080.49
731.126	3070.25
731.313	3047.72
731.499	3103.01
731.685	3017
731.871	3191.08
732.057	3090.73
732.243	3137.83
732.429	3143.97
732.615	3168.55
732.801	3176.74
732.987	3209.51
733.173	3066.15
733.359	3027.24
733.545	3068.2
733.731	3049.77
733.917	3070.25
734.103	3162.41
734.289	3053.86
734.475	3092.77
734.661	3045.67
734.847	3186.98
735.033	3014.95
735.219	3148.07
735.404	3090.73
735.59	3047.72
735.776	2996.52
735.962	3168.55
736.148	3262.76
736.333	3199.27
736.519	3008.81
736.705	3010.86
736.89	3084.58
737.076	2976.04
737.262	2943.27
737.447	3080.49
737.633	3008.81
737.819	3002.66
738.004	3160.36
738.19	2971.94
738.375	2967.85
738.561	3037.48
738.747	3057.96
738.932	3021.1
739.118	3043.62
739.303	2982.18
739.489	3017
739.674	2976.04
739.859	3012.9
740.045	2914.6
740.23	2873.64
740.416	2855.21
740.601	2978.09
740.786	3010.86
740.972	2797.87
741.157	2900.27
741.342	2902.31
741.528	2771.24
741.713	2877.74
741.898	2810.15
742.084	2838.83
742.269	2849.07
742.454	2818.35
742.639	2818.35
742.824	2748.72
743.01	2879.79
743.195	2756.91
743.38	2756.91
743.565	2672.94
743.75	2877.74
743.935	2693.42
744.12	2658.6
744.305	2691.37
744.49	2611.5
744.675	2685.23
744.86	2621.74
745.045	2668.84
745.23	2623.79
745.415	2691.37
745.6	2595.12
745.785	2650.41
745.97	2636.08
746.155	2511.15
746.34	2437.42
746.525	2601.26
746.71	2591.02
746.895	2578.73
747.079	2586.93
747.264	2484.53
747.449	2412.85
747.634	2498.86
747.819	2431.28
748.003	2550.06
748.188	2531.63
748.373	2496.82
748.557	2408.75
748.742	2375.99
748.927	2439.47
749.111	2394.42
749.296	2324.79
749.481	2324.79
749.665	2306.35
749.85	2322.74
750.034	2275.63
750.219	2285.87
750.404	2349.36
750.588	2206
750.773	2189.62
750.957	2226.48
751.141	2173.24
751.326	2300.21
751.51	2173.24
751.695	2210.1
751.879	2279.73
752.064	2044.21
752.248	2234.68
752.432	2085.17
752.617	2097.46
752.801	2087.22
752.985	2036.02
753.17	2142.52
753.354	1993.01
753.538	2019.64
753.722	2068.79
753.907	1956.15
754.091	1997.11
754.275	1990.97
754.459	2036.02
754.643	1913.14
754.828	1868.09
755.012	1917.24
755.196	1814.84
755.38	1775.93
755.564	1837.37
755.748	1851.71
755.932	1859.9
756.116	1747.26
756.3	1704.25
756.484	1804.6
756.668	1939.77
756.852	1743.16
757.036	1687.87
757.22	1780.03
757.404	1677.63
757.588	1730.87
757.772	1749.31
757.956	1700.16
758.14	1659.2
758.323	1564.99
758.507	1624.38
758.691	1589.57
758.875	1741.11
759.059	1632.57
759.242	1648.96
759.426	1616.19
759.61	1556.8
759.794	1622.33
759.977	1583.42
760.161	1661.24
760.345	1476.93
760.528	1608
760.712	1573.18
760.895	1493.31
761.079	1380.67
761.263	1517.89
761.446	1495.36
761.63	1485.12
761.813	1552.7
761.997	1536.32
762.18	1438.02
762.364	1524.03
762.547	1456.45
762.731	1489.21
762.914	1419.58
763.098	1464.64
763.281	1421.63
763.464	1405.25
763.648	1366.34
763.831	1298.75
764.015	1517.89
764.198	1382.72
764.381	1378.62
764.564	1390.91
764.748	1380.67
764.931	1446.21
765.114	1229.12
765.297	1390.91
765.481	1304.9
765.664	1405.25
765.847	1296.71
766.03	1329.47
766.213	1358.14
766.397	1239.36
766.58	1220.93
766.763	1286.47
766.946	1265.99
767.129	1272.13
767.312	1188.16
767.495	1337.66
767.678	1284.42
767.861	1356.1
768.044	1341.76
768.227	1270.08
768.41	1270.08
768.593	1329.47
768.776	1179.97
768.959	1216.83
769.142	1237.31
769.324	1229.12
769.507	1212.74
769.69	1235.27
769.873	1171.78
770.056	1268.03
770.239	1237.31
770.421	1245.51
770.604	1085.76
770.787	1069.38
770.97	1118.53
771.152	1165.64
771.335	1118.53
771.518	1175.88
771.7	1102.15
771.883	1104.2
772.066	1057.09
772.248	1065.29
772.431	1184.07
772.613	1161.54
772.796	1067.33
772.978	1173.83
773.161	1087.81
773.343	1001.8
773.526	1022.28
773.708	1040.71
773.891	1046.85
774.073	975.17
774.256	962.89
774.438	1024.33
774.621	1096
774.803	999.75
774.985	1018.18
775.168	944.45
775.35	977.22
775.532	1091.91
775.715	948.55
775.897	1053
776.079	1007.94
776.261	971.08
776.444	934.22
776.626	891.21
776.808	934.22
776.99	944.45
777.173	858.44
777.355	872.78
777.537	909.64
777.719	942.41
777.901	852.3
778.083	848.2
778.265	862.54
778.447	897.35
778.629	778.57
778.811	936.26
778.993	835.91
779.175	811.34
779.357	874.82
779.539	876.87
779.721	809.29
779.903	870.73
780.085	715.08
780.267	778.57
780.449	815.43
780.631	831.82
780.812	856.39
780.994	827.72
781.176	784.71
781.358	717.13
781.54	807.24
781.721	805.19
781.903	700.75
782.085	753.99
782.267	762.19
782.448	657.74
782.63	764.23
782.812	737.61
782.993	756.04
783.175	698.7
783.357	651.6
783.538	641.36
783.72	676.17
783.901	715.08
784.083	688.46
784.264	659.79
784.446	702.79
784.627	596.3
784.809	639.31
784.99	655.69
785.172	588.11
785.353	608.59
785.535	678.22
785.716	571.72
785.897	590.16
786.079	614.73
786.26	563.53
786.441	567.63
786.623	579.92
786.804	477.52
786.985	565.58
787.167	512.33
787.348	610.64
787.529	502.09
787.71	620.88
787.891	569.68
788.073	616.78
788.254	477.52
788.435	561.48
788.616	520.53
788.797	512.33
788.978	545.1
789.159	516.43
789.34	534.86
789.522	487.76
789.703	477.52
789.884	473.42
790.065	518.48
790.246	561.48
790.427	575.82
790.607	526.67
790.788	553.29
790.969	555.34
791.15	524.62
791.331	461.13
791.512	454.99
791.693	440.65
791.874	448.85
792.054	551.24
792.235	414.03
792.416	416.08
792.597	452.94
792.778	442.7
792.958	454.99
793.139	500.05
793.32	434.51
793.5	393.55
793.681	446.8
793.862	428.37
794.042	348.5
794.223	364.88
794.404	448.85
794.584	428.37
794.765	391.5
794.945	411.98
795.126	407.89
795.306	411.98
795.487	360.78
795.667	364.88
795.848	350.54
796.028	352.59
796.209	377.17
796.389	368.98
796.57	362.83
796.75	387.41
796.93	303.44
797.111	416.08
797.291	317.78
797.471	348.5
797.652	397.65
797.832	381.26
798.012	352.59
798.192	303.44
798.373	346.45
798.553	323.92
798.733	356.69
798.913	278.87
799.093	342.35
799.274	342.35
799.454	371.02
799.634	377.17
799.814	336.21
799.994	366.93
800.174	321.87
800.354	364.88
800.534	172.37
800.714	395.6
800.894	289.1
801.074	252.24
801.254	291.15
801.434	330.06
801.614	356.69
801.794	264.53
801.974	688.46
802.154	266.58
802.334	321.87
802.514	385.36
802.693	289.1
802.873	352.59
803.053	336.21
803.233	258.39
803.413	258.39
803.592	211.28
803.772	295.25
803.952	385.36
804.131	303.44
804.311	235.86
804.491	274.77
804.67	231.76
804.85	242
805.03	340.3
805.209	293.2
805.389	268.63
805.568	215.38
805.748	250.19
805.928	229.71
806.107	293.2
806.287	323.92
806.466	285.01
806.646	225.62
806.825	268.63
807.004	278.87
807.184	231.76
807.363	264.53
807.543	231.76
807.722	295.25
807.901	239.95
808.081	272.72
808.26	155.99
808.439	274.77
808.619	244.05
808.798	248.15
808.977	221.52
809.156	207.19
809.336	203.09
809.515	219.47
809.694	225.62
809.873	182.61
810.052	303.44
810.231	256.34
810.411	223.57
810.59	280.91
810.769	244.05
810.948	237.91
811.127	147.8
811.306	223.57
811.485	258.39
811.664	272.72
811.843	174.42
812.022	231.76
812.201	276.82
812.38	198.99
812.559	188.75
812.737	254.29
812.916	225.62
813.095	174.42
813.274	244.05
813.453	266.58
813.632	221.52
813.811	149.84
813.989	127.32
814.168	213.33
814.347	237.91
814.526	166.23
814.704	207.19
814.883	250.19
815.062	139.6
815.24	194.9
815.419	178.51
815.598	215.38
815.776	127.32
815.955	194.9
816.133	178.51
816.312	182.61
816.49	139.6
816.669	184.66
816.847	180.56
817.026	205.14
817.204	176.47
817.383	172.37
817.561	205.14
817.74	176.47
817.918	168.27
818.097	121.17
818.275	190.8
818.453	242
818.632	127.32
818.81	117.08
818.988	203.09
819.167	139.6
819.345	123.22
819.523	266.58
819.701	168.27
819.879	198.99
820.058	201.04
820.236	182.61
820.414	141.65
820.592	164.18
820.77	168.27
820.948	151.89
821.127	176.47
821.305	201.04
821.483	174.42
821.661	166.23
821.839	219.47
822.017	160.08
822.195	92.5
822.373	102.74
822.551	49.49
822.729	239.95
822.907	121.17
823.085	170.32
823.262	112.98
823.44	108.88
823.618	192.85
823.796	112.98
823.974	172.37
824.152	123.22
824.329	149.84
824.507	133.46
824.685	194.9
824.863	129.36
825.04	131.41
825.218	203.09
825.396	98.64
825.574	106.84
825.751	174.42
825.929	190.8
826.107	98.64
826.284	88.4
826.462	69.97
826.639	41.3
826.817	86.36
826.994	145.75
827.172	86.36
827.349	174.42
827.527	160.08
827.704	149.84
827.882	149.84
828.059	63.83
828.237	125.27
828.414	133.46
828.591	92.5
828.769	110.93
828.946	135.51
829.124	166.23
829.301	127.32
829.478	143.7
829.655	102.74
829.833	123.22
830.01	98.64
830.187	192.85
830.364	100.69
830.542	67.92
830.719	98.64
830.896	67.92
831.073	74.07
831.25	149.84
831.427	102.74
831.604	90.45
831.782	72.02
831.959	108.88
832.136	108.88
832.313	164.18
832.49	137.56
832.667	94.55
832.844	94.55
833.021	78.16
833.198	123.22
833.374	37.2
833.551	139.6
833.728	84.31
833.905	131.41
834.082	102.74
834.259	143.7
834.436	35.16
834.612	147.8
834.789	110.93
834.966	14.68
835.143	117.08
835.319	90.45
835.496	86.36
835.673	29.01
835.85	117.08
836.026	84.31
836.203	117.08
836.38	18.77
836.556	84.31
836.733	59.73
836.909	143.7
837.086	129.36
837.262	117.08
837.439	76.12
837.616	24.92
837.792	115.03
837.968	53.59
838.145	22.87
838.321	94.55
838.498	82.26
838.674	188.75
838.851	98.64
839.027	41.3
839.203	39.25
839.38	104.79
839.556	139.6
839.732	137.56
839.909	45.4
840.085	84.31
840.261	51.54
840.437	41.3
840.614	49.49
840.79	96.6
840.966	72.02
841.142	84.31
841.318	33.11
841.494	125.27
841.671	123.22
841.847	74.07
842.023	47.44
842.199	117.08
842.375	53.59
842.551	72.02
842.727	14.68
842.903	186.71
843.079	84.31
843.255	125.27
843.431	43.35
843.607	153.94
843.783	22.87
843.959	61.78
844.134	96.6
844.31	53.59
844.486	47.44
844.662	53.59
844.838	129.36
845.013	82.26
845.189	88.4
845.365	45.4
845.541	63.83
845.716	72.02
845.892	133.46
846.068	98.64
846.244	65.88
846.419	86.36
846.595	65.88
846.77	90.45
846.946	29.01
847.122	10.58
847.297	90.45
847.473	82.26
847.648	86.36
847.824	92.5
847.999	6.49
848.175	59.73
848.35	115.03
848.526	72.02
848.701	35.16
848.876	26.96
849.052	43.35
849.227	110.93
849.403	0.34
849.578	76.12
849.753	51.54
849.929	57.68
850.104	67.92
850.279	47.44
850.454	43.35
850.63	63.83
850.805	53.59
850.98	102.74
851.155	78.16
851.33	84.31
851.505	80.21
851.681	72.02
851.856	59.73
852.031	35.16
852.206	67.92
852.381	31.06
852.556	72.02
852.731	160.08
852.906	51.54
853.081	29.01
853.256	108.88
853.431	69.97
853.606	0.34
853.781	86.36
853.956	49.49
854.131	59.73
854.305	-7.85
854.48	63.83
854.655	10.58
854.83	12.63
855.005	72.02
855.18	45.4
855.354	20.82
855.529	37.2
855.704	76.12
855.879	33.11
856.053	98.64
856.228	63.83
856.403	18.77
856.577	76.12
856.752	49.49
856.926	78.16
857.101	-44.71
857.276	92.5
857.45	0.34
857.625	37.2
857.799	131.41
857.974	63.83
858.148	-3.75
858.323	133.46
858.497	-1.71
858.672	57.68
858.846	61.78
859.02	51.54
859.195	-100.01
859.369	100.69
859.543	63.83
859.718	84.31
859.892	29.01
860.066	14.68
860.241	72.02
860.415	67.92
860.589	16.73
860.763	20.82
860.938	-42.67
861.112	80.21
861.286	-40.62
861.46	41.3
861.634	84.31
861.808	88.4
861.982	-26.28
862.157	-7.85
862.331	24.92
862.505	80.21
862.679	16.73
862.853	57.68
863.027	57.68
863.201	135.51
863.375	112.98
863.549	14.68
863.722	47.44
863.896	-20.14
864.07	82.26
864.244	26.96
864.418	31.06
864.592	115.03
864.766	10.58
864.939	-9.9
865.113	4.44
865.287	67.92
865.461	-67.24
865.634	-40.62
865.808	-5.8
865.982	53.59
866.156	-7.85
866.329	31.06
866.503	72.02
866.676	49.49
866.85	10.58
867.024	29.01
867.197	41.3
867.371	51.54
867.544	67.92
867.718	-26.28
867.891	61.78
868.065	18.77
868.238	45.4
868.412	96.6
868.585	-38.57
868.759	16.73
868.932	-30.38
869.105	-28.33
869.279	49.49
869.452	14.68
869.625	39.25
869.799	10.58
869.972	22.87
870.145	61.78
870.319	24.92
870.492	39.25
870.665	29.01
870.838	24.92
871.011	-73.39
871.185	-3.75
871.358	22.87
871.531	-13.99
871.704	20.82
871.877	4.44
872.05	-40.62
872.223	26.96
872.396	-3.75
872.569	110.93
872.742	45.4
872.915	18.77
873.088	39.25
873.261	24.92
873.434	37.2
873.607	-52.91
873.78	88.4
873.953	-52.91
874.126	0.34
874.299	39.25
874.471	-3.75
874.644	4.44
874.817	24.92
874.99	59.73
875.163	55.64
875.335	-11.95
875.508	0.34
875.681	92.5
875.853	16.73
876.026	14.68
876.199	33.11
876.371	12.63
876.544	55.64
876.717	-16.04
876.889	6.49
877.062	-11.95
877.234	100.69
877.407	33.11
877.579	59.73
877.752	-3.75
877.924	-63.15
878.097	-32.43
878.269	37.2
878.442	14.68
878.614	20.82
878.786	6.49
878.959	39.25
879.131	-36.52
879.303	-48.81
879.476	-28.33
879.648	24.92
879.82	6.49
879.993	-13.99
880.165	-5.8
880.337	43.35
880.509	16.73
880.681	-22.19
880.854	51.54
881.026	6.49
881.198	112.98
881.37	22.87
881.542	29.01
881.714	35.16
881.886	-9.9
882.058	-18.09
882.23	-1.71
882.402	-30.38
882.574	98.64
882.746	22.87
882.918	51.54
883.09	0.34
883.262	4.44
883.434	-16.04
883.606	92.5
883.778	-16.04
883.95	39.25
884.122	-9.9
884.293	12.63
884.465	14.68
884.637	-24.23
884.809	33.11
884.98	51.54
885.152	-83.63
885.324	-13.99
885.496	37.2
885.667	2.39
885.839	-89.77
886.011	-13.99
886.182	33.11
886.354	33.11
886.525	8.53
886.697	37.2
886.869	-54.95
887.04	47.44
887.212	22.87
887.383	-48.81
887.555	26.96
887.726	-13.99
887.897	53.59
888.069	-48.81
888.24	6.49
888.412	20.82
888.583	-16.04
888.754	-24.23
888.926	-3.75
889.097	67.92
889.268	0.34
889.44	37.2
889.611	0.34
889.782	0.34
889.953	39.25
890.125	24.92
890.296	-11.95
890.467	22.87
890.638	8.53
890.809	78.16
890.98	-7.85
891.151	-1.71
891.323	65.88
891.494	-20.14
891.665	-40.62
891.836	51.54
892.007	-42.67
892.178	43.35
892.349	67.92
892.52	-9.9
892.691	61.78
892.862	33.11
893.032	2.39
893.203	29.01
893.374	18.77
893.545	-16.04
893.716	-46.76
893.887	-24.23
894.057	-5.8
894.228	29.01
894.399	31.06
894.57	6.49
894.74	-46.76
894.911	55.64
895.082	84.31
895.253	-34.47
895.423	-1.71
895.594	-16.04
895.764	-1.71
895.935	-44.71
896.106	-20.14
896.276	18.77
896.447	29.01
896.617	-18.09
896.788	4.44
896.958	-3.75
897.129	-32.43
897.299	24.92
897.47	0.34
897.64	6.49
897.81	-18.09
897.981	-5.8
898.151	-16.04
898.322	41.3
898.492	-7.85
898.662	72.02
898.832	-3.75
899.003	31.06
899.173	-40.62
899.343	12.63
899.513	-24.23
