Data from USB4F104151__3__11-44-06-731.txt Node

Date: Wed Feb 19 11:44:06 EST 2025
User: louis
Spectrometer: USB4F10415
Trigger mode: 4
Integration Time (sec): 2.250200E-1
Scans to average: 1
Electric dark correction enabled: true
Nonlinearity correction enabled: false
Boxcar width: 0
XAxis mode: Wavelengths
Number of Pixels in Spectrum: 3648
>>>>>Begin Spectral Data<<<<<
178.204	-810.48
178.424	-810.48
178.644	-810.48
178.864	-751.09
179.084	-839.16
179.304	190.97
179.524	31.23
179.744	49.66
179.964	-144.89
180.184	193.02
180.404	147.97
180.624	-220.67
180.844	-126.46
181.064	-40.45
181.283	219.64
181.503	-222.72
181.723	-77.31
181.943	-13.82
182.163	401.91
182.383	-204.28
182.602	-241.15
182.822	440.83
183.042	184.83
183.262	-273.92
183.482	-200.19
183.701	244.22
183.921	143.87
184.141	-155.13
184.361	-155.13
184.58	242.17
184.8	205.31
185.02	-155.13
185.239	-7.68
185.459	244.22
185.679	381.43
185.898	-194.05
186.118	-165.37
186.338	197.12
186.557	379.39
186.777	-216.57
186.997	-224.76
187.216	209.4
187.436	455.16
187.655	-142.85
187.875	-15.87
188.095	233.98
188.314	451.07
188.534	-85.5
188.753	-247.29
188.973	317.95
189.192	500.22
189.412	-241.15
189.631	-136.7
189.851	352.76
190.07	446.97
190.29	-202.24
190.509	-226.81
190.729	150.01
190.948	385.53
191.168	-9.73
191.387	-177.66
191.607	195.07
191.826	285.18
192.045	-65.02
192.265	-146.94
192.484	367.1
192.704	233.98
192.923	-134.65
193.142	-17.92
193.362	317.95
193.581	326.14
193.8	-36.35
194.02	-157.18
194.239	264.7
194.458	350.71
194.678	-85.5
194.897	-220.67
195.116	281.08
195.335	258.56
195.555	-118.27
195.774	-255.48
195.993	373.24
196.212	176.64
196.432	-69.12
196.651	-241.15
196.87	225.79
197.089	516.6
197.308	-230.91
197.528	-128.51
197.747	10.75
197.966	150.01
198.185	-13.82
198.404	-255.48
198.623	266.75
198.842	344.57
199.062	-93.69
199.281	-118.27
199.5	287.23
199.719	328.19
199.938	-216.57
200.157	-189.95
200.376	375.29
200.595	313.85
200.814	-130.56
201.033	-198.14
201.252	461.3
201.471	221.69
201.69	-171.52
201.909	-124.41
202.128	279.04
202.347	244.22
202.566	-87.55
202.785	-310.78
203.004	117.25
203.223	498.17
203.442	-118.27
203.661	-280.06
203.879	238.08
204.098	274.94
204.317	-235
204.536	-36.35
204.755	315.9
204.974	299.52
205.193	-263.68
205.411	-73.21
205.63	377.34
205.849	238.08
206.068	-222.72
206.287	-343.55
206.505	420.35
206.724	141.82
206.943	-189.95
207.162	-216.57
207.381	145.92
207.599	166.4
207.818	-40.45
208.037	-241.15
208.255	219.64
208.474	281.08
208.693	-151.04
208.911	-210.43
209.13	264.7
209.349	236.03
209.567	-15.87
209.786	-155.13
210.005	332.28
210.223	190.97
210.442	-351.74
210.661	-179.71
210.879	297.47
211.098	219.64
211.316	-228.86
211.535	-153.09
211.753	274.94
211.972	360.95
212.191	-126.46
212.409	-177.66
212.628	322.04
212.846	100.86
213.065	-146.94
213.283	-112.13
213.502	207.36
213.72	154.11
213.938	-243.2
214.157	-148.99
214.375	258.56
214.594	193.02
214.812	-93.69
215.031	-185.85
215.249	272.89
215.467	258.56
215.686	-134.65
215.904	-93.69
216.122	170.49
216.341	387.58
216.559	-11.78
216.778	-56.83
216.996	412.15
217.214	111.1
217.432	-153.09
217.651	-292.35
217.869	205.31
218.087	172.54
218.306	-167.42
218.524	-187.9
218.742	164.35
218.96	389.63
219.179	-103.93
219.397	-185.85
219.615	508.41
219.833	264.7
220.051	-185.85
220.27	-46.59
220.488	383.48
220.706	215.55
220.924	-243.2
221.142	-200.19
221.36	270.84
221.578	246.27
221.796	-237.05
222.015	-87.55
222.233	274.94
222.451	426.49
222.669	-40.45
222.887	-116.22
223.105	127.49
223.323	164.35
223.541	-134.65
223.759	-151.04
223.977	211.45
224.195	487.93
224.413	-24.06
224.631	-99.84
224.849	233.98
225.067	526.84
225.285	-93.69
225.503	-218.62
225.721	16.9
225.939	215.55
226.157	-62.98
226.375	86.53
226.592	111.1
226.81	150.01
227.028	10.75
227.246	-110.08
227.464	254.46
227.682	258.56
227.9	-71.17
228.117	-71.17
228.335	227.84
228.553	201.21
228.771	-220.67
228.989	-122.37
229.206	305.66
229.424	152.06
229.642	-126.46
229.86	-95.74
230.077	383.48
230.295	258.56
230.513	14.85
230.731	-79.36
230.948	467.45
231.166	414.2
231.384	-60.93
231.601	-177.66
231.819	489.98
232.037	43.52
232.254	-87.55
232.472	-97.79
232.689	174.59
232.907	346.62
233.125	-228.86
233.342	-226.81
233.56	137.73
233.777	154.11
233.995	-232.96
234.213	-46.59
234.43	322.04
234.648	158.21
234.865	-251.39
235.083	-46.59
235.3	205.31
235.518	268.8
235.735	-81.41
235.953	-79.36
236.17	227.84
236.388	172.54
236.605	23.04
236.822	-91.65
237.04	354.81
237.257	227.84
237.475	-204.28
237.692	-128.51
237.909	363
238.127	121.34
238.344	41.47
238.562	-103.93
238.779	-24.06
238.996	-48.64
239.214	-54.78
239.431	-97.79
239.648	61.95
239.865	176.64
240.083	-77.31
240.3	-155.13
240.517	170.49
240.735	113.15
240.952	49.66
241.169	-204.28
241.386	285.18
241.603	174.59
241.821	-179.71
242.038	-122.37
242.255	317.95
242.472	39.42
242.689	-73.21
242.907	-75.26
243.124	184.83
243.341	242.17
243.558	-161.28
243.775	-226.81
243.992	-19.97
244.209	221.69
244.426	-36.35
244.643	-128.51
244.86	215.55
245.078	270.84
245.295	-142.85
245.512	-46.59
245.729	76.29
245.946	272.89
246.163	-105.98
246.38	-112.13
246.597	182.78
246.814	203.26
247.031	-110.08
247.248	-204.28
247.464	322.04
247.681	223.74
247.898	-58.88
248.115	-65.02
248.332	76.29
248.549	338.43
248.766	-58.88
248.983	-114.17
249.2	295.42
249.417	315.9
249.633	-134.65
249.85	-85.5
250.067	158.21
250.284	154.11
250.501	-155.13
250.717	-97.79
250.934	-48.64
251.151	229.88
251.368	-101.89
251.585	-105.98
251.801	225.79
252.018	49.66
252.235	76.29
252.451	-130.56
252.668	266.75
252.885	330.23
253.102	-95.74
253.318	-159.23
253.535	113.15
253.752	127.49
253.968	-81.41
254.185	-273.92
254.401	223.74
254.618	336.38
254.835	-83.45
255.051	-105.98
255.268	377.34
255.484	229.88
255.701	-103.93
255.917	-138.75
256.134	115.2
256.351	215.55
256.567	-173.57
256.784	27.14
257	-5.63
257.217	344.57
257.433	29.18
257.65	-151.04
257.866	408.06
258.082	-79.36
258.299	-77.31
258.515	-9.73
258.732	217.6
258.948	82.43
259.165	-85.5
259.381	-179.71
259.597	291.32
259.814	94.72
260.03	-235
260.246	-140.8
260.463	260.6
260.679	401.91
260.895	-48.64
261.112	23.04
261.328	147.97
261.544	18.94
261.761	-67.07
261.977	-146.94
262.193	64
262.409	172.54
262.626	70.14
262.842	-114.17
263.058	102.91
263.274	303.61
263.49	-38.4
263.707	-148.99
263.923	350.71
264.139	31.23
264.355	-38.4
264.571	-26.11
264.787	342.52
265.004	276.99
265.22	51.71
265.436	-118.27
265.652	57.86
265.868	291.32
266.084	-175.61
266.3	-153.09
266.516	37.38
266.732	258.56
266.948	-62.98
267.164	-148.99
267.38	293.37
267.596	223.74
267.812	47.62
268.028	-85.5
268.244	88.57
268.46	254.46
268.676	-9.73
268.892	-24.06
269.108	59.9
269.324	2.56
269.54	-140.8
269.756	-67.07
269.972	16.9
270.188	141.82
270.403	-124.41
270.619	-93.69
270.835	287.23
271.051	213.5
271.267	-93.69
271.483	-108.03
271.698	242.17
271.914	129.53
272.13	-56.83
272.346	-77.31
272.562	164.35
272.777	334.33
272.993	-81.41
273.209	-69.12
273.425	285.18
273.64	-48.64
273.856	-101.89
274.072	-200.19
274.287	188.93
274.503	320
274.719	-19.97
274.934	-171.52
275.15	-73.21
275.366	221.69
275.581	-89.6
275.797	-85.5
276.012	213.5
276.228	84.48
276.444	-19.97
276.659	137.73
276.875	147.97
277.09	94.72
277.306	-58.88
277.521	29.18
277.737	209.4
277.952	172.54
278.168	-69.12
278.383	-99.84
278.599	86.53
278.814	295.42
279.03	-175.61
279.245	41.47
279.461	147.97
279.676	233.98
279.892	-103.93
280.107	-69.12
280.322	43.52
280.538	377.34
280.753	-24.06
280.969	-77.31
281.184	186.88
281.399	309.76
281.615	-17.92
281.83	27.14
282.045	-40.45
282.26	90.62
282.476	-1.54
282.691	133.63
282.906	113.15
283.122	154.11
283.337	-7.68
283.552	-1.54
283.767	94.72
283.983	213.5
284.198	0.51
284.413	-85.5
284.628	53.76
284.843	113.15
285.058	-48.64
285.274	-112.13
285.489	119.29
285.704	186.88
285.919	-44.54
286.134	-48.64
286.349	150.01
286.564	98.81
286.779	55.81
286.995	-85.5
287.21	76.29
287.425	231.93
287.64	-93.69
287.855	35.33
288.07	-30.21
288.285	268.8
288.5	8.7
288.715	10.75
288.93	152.06
289.145	98.81
289.36	2.56
289.575	-15.87
289.79	281.08
290.004	25.09
290.219	2.56
290.434	-79.36
290.649	139.77
290.864	100.86
291.079	-7.68
291.294	33.28
291.509	195.07
291.724	92.67
291.938	-38.4
292.153	-24.06
292.368	135.68
292.583	195.07
292.798	-32.26
293.012	166.4
293.227	207.36
293.442	195.07
293.657	18.94
293.871	51.71
294.086	326.14
294.301	289.28
294.516	88.57
294.73	27.14
294.945	170.49
295.16	133.63
295.374	37.38
295.589	78.33
295.804	188.93
296.018	176.64
296.233	-122.37
296.447	10.75
296.662	137.73
296.877	352.76
297.091	-56.83
297.306	-56.83
297.52	104.96
297.735	281.08
297.949	31.23
298.164	-157.18
298.378	246.27
298.593	4.61
298.807	-30.21
299.022	18.94
299.236	322.04
299.451	61.95
299.665	-24.06
299.88	-15.87
300.094	270.84
300.309	141.82
300.523	-30.21
300.737	12.8
300.952	233.98
301.166	268.8
301.381	-97.79
301.595	-122.37
301.809	113.15
302.024	76.29
302.238	-75.26
302.452	102.91
302.667	174.59
302.881	285.18
303.095	39.42
303.309	45.57
303.524	43.52
303.738	193.02
303.952	49.66
304.166	25.09
304.381	-110.08
304.595	258.56
304.809	-26.11
305.023	-46.59
305.237	64
305.452	92.67
305.666	-28.16
305.88	43.52
306.094	309.76
306.308	205.31
306.522	-97.79
306.736	84.48
306.95	260.6
307.164	92.67
307.379	33.28
307.593	66.05
307.807	270.84
308.021	295.42
308.235	139.77
308.449	-155.13
308.663	100.86
308.877	483.83
309.091	0.51
309.305	80.38
309.519	-48.64
309.733	246.27
309.947	-157.18
310.161	-93.69
310.374	154.11
310.588	281.08
310.802	-71.17
311.016	0.51
311.23	184.83
311.444	41.47
311.658	35.33
311.872	109.05
312.085	258.56
312.299	295.42
312.513	233.98
312.727	-122.37
312.941	80.38
313.154	94.72
313.368	-44.54
313.582	-48.64
313.796	115.2
314.009	156.16
314.223	174.59
314.437	92.67
314.651	221.69
314.864	115.2
315.078	-9.73
315.292	-159.23
315.505	72.19
315.719	193.02
315.933	76.29
316.146	-50.69
316.36	41.47
316.573	223.74
316.787	303.61
317.001	-34.3
317.214	-44.54
317.428	160.25
317.641	-11.78
317.855	8.7
318.068	166.4
318.282	197.12
318.495	176.64
318.709	-69.12
318.922	141.82
319.136	225.79
319.349	86.53
319.563	-17.92
319.776	217.6
319.99	-67.07
320.203	20.99
320.417	18.94
320.63	109.05
320.843	223.74
321.057	35.33
321.27	-7.68
321.483	309.76
321.697	256.51
321.91	-126.46
322.124	66.05
322.337	178.69
322.55	-9.73
322.763	-13.82
322.977	-71.17
323.19	43.52
323.403	31.23
323.617	8.7
323.83	213.5
324.043	164.35
324.256	98.81
324.469	-198.14
324.683	123.39
324.896	92.67
325.109	98.81
325.322	-122.37
325.535	29.18
325.748	260.6
325.962	107.01
326.175	84.48
326.388	39.42
326.601	223.74
326.814	68.09
327.027	-9.73
327.24	125.44
327.453	-101.89
327.666	205.31
327.879	111.1
328.092	20.99
328.305	156.16
328.518	94.72
328.731	23.04
328.944	-97.79
329.157	117.25
329.37	-3.58
329.583	111.1
329.796	59.9
330.009	29.18
330.222	197.12
330.435	68.09
330.648	8.7
330.861	229.88
331.073	147.97
331.286	88.57
331.499	8.7
331.712	113.15
331.925	119.29
332.138	0.51
332.35	-42.5
332.563	156.16
332.776	289.28
332.989	-60.93
333.202	-67.07
333.414	121.34
333.627	141.82
333.84	-118.27
334.053	59.9
334.265	66.05
334.478	66.05
334.691	-24.06
334.903	29.18
335.116	61.95
335.329	90.62
335.541	-9.73
335.754	180.73
335.966	137.73
336.179	94.72
336.392	41.47
336.604	88.57
336.817	178.69
337.029	215.55
337.242	-85.5
337.454	49.66
337.667	76.29
337.88	256.51
338.092	96.77
338.305	39.42
338.517	41.47
338.729	174.59
338.942	31.23
339.154	-171.52
339.367	23.04
339.579	266.75
339.792	-79.36
340.004	88.57
340.217	174.59
340.429	303.61
340.641	-138.75
340.854	-54.78
341.066	90.62
341.278	303.61
341.491	147.97
341.703	-67.07
341.915	41.47
342.128	297.47
342.34	12.8
342.552	-13.82
342.764	94.72
342.977	150.01
343.189	53.76
343.401	59.9
343.613	25.09
343.826	104.96
344.038	-87.55
344.25	51.71
344.462	45.57
344.674	139.77
344.886	-17.92
345.099	-36.35
345.311	211.45
345.523	33.28
345.735	-122.37
345.947	78.33
346.159	201.21
346.371	156.16
346.583	90.62
346.795	152.06
347.007	94.72
347.219	219.64
347.431	-19.97
347.643	49.66
347.855	107.01
348.067	328.19
348.279	-87.55
348.491	-58.88
348.703	295.42
348.915	86.53
349.127	-15.87
349.339	2.56
349.551	131.58
349.763	287.23
349.975	-13.82
350.187	49.66
350.399	311.8
350.61	131.58
350.822	14.85
351.034	14.85
351.246	207.36
351.458	244.22
351.669	82.43
351.881	14.85
352.093	297.47
352.305	236.03
352.517	-71.17
352.728	41.47
352.94	39.42
353.152	258.56
353.363	-101.89
353.575	-56.83
353.787	360.95
353.999	172.54
354.21	147.97
354.422	-126.46
354.633	145.92
354.845	166.4
355.057	51.71
355.268	10.75
355.48	256.51
355.692	57.86
355.903	37.38
356.115	-110.08
356.326	-71.17
356.538	354.81
356.749	-5.63
356.961	94.72
357.172	184.83
357.384	6.66
357.595	197.12
357.807	-58.88
358.018	74.24
358.23	147.97
358.441	-17.92
358.653	-36.35
358.864	102.91
359.075	-40.45
359.287	14.85
359.498	25.09
359.709	129.53
359.921	147.97
360.132	82.43
360.344	-48.64
360.555	8.7
360.766	162.3
360.977	-79.36
361.189	66.05
361.4	139.77
361.611	326.14
361.823	14.85
362.034	-79.36
362.245	-62.98
362.456	115.2
362.667	117.25
362.879	-179.71
363.09	221.69
363.301	152.06
363.512	-91.65
363.723	-103.93
363.935	74.24
364.146	309.76
364.357	12.8
364.568	-122.37
364.779	-56.83
364.99	311.8
365.201	-73.21
365.412	123.39
365.623	-42.5
365.834	252.41
366.045	129.53
366.256	8.7
366.467	270.84
366.678	111.1
366.889	-11.78
367.1	14.85
367.311	305.66
367.522	6.66
367.733	150.01
367.944	2.56
368.155	127.49
368.366	145.92
368.577	68.09
368.788	98.81
368.999	49.66
369.209	221.69
369.42	111.1
369.631	379.39
369.842	197.12
370.053	64
370.264	37.38
370.474	-79.36
370.685	238.08
370.896	82.43
371.107	61.95
371.317	0.51
371.528	111.1
371.739	250.36
371.95	53.76
372.16	2.56
372.371	-65.02
372.582	66.05
372.792	-56.83
373.003	74.24
373.214	107.01
373.424	178.69
373.635	-75.26
373.846	55.81
374.056	184.83
374.267	125.44
374.477	90.62
374.688	-56.83
374.898	219.64
375.109	66.05
375.319	70.14
375.53	-7.68
375.74	270.84
375.951	64
376.161	37.38
376.372	47.62
376.582	88.57
376.793	213.5
377.003	-44.54
377.214	-93.69
377.424	236.03
377.635	147.97
377.845	35.33
378.055	66.05
378.266	-30.21
378.476	147.97
378.686	-7.68
378.897	33.28
379.107	279.04
379.317	199.16
379.528	-103.93
379.738	8.7
379.948	18.94
380.158	322.04
380.369	29.18
380.579	84.48
380.789	145.92
380.999	135.68
381.21	70.14
381.42	125.44
381.63	127.49
381.84	279.04
382.05	96.77
382.261	117.25
382.471	262.65
382.681	49.66
382.891	90.62
383.101	94.72
383.311	-3.58
383.521	74.24
383.731	-60.93
383.941	111.1
384.151	182.78
384.361	90.62
384.571	33.28
384.781	53.76
384.991	279.04
385.201	387.58
385.411	180.73
385.621	8.7
385.831	266.75
386.041	236.03
386.251	80.38
386.461	90.62
386.671	125.44
386.881	170.49
387.091	-17.92
387.301	176.64
387.511	127.49
387.72	221.69
387.93	102.91
388.14	-79.36
388.35	158.21
388.56	180.73
388.769	55.81
388.979	25.09
389.189	88.57
389.399	172.54
389.609	-17.92
389.818	20.99
390.028	254.46
390.238	162.3
390.447	-36.35
390.657	64
390.867	147.97
391.076	-30.21
391.286	-56.83
391.496	-1.54
391.705	141.82
391.915	307.71
392.125	2.56
392.334	61.95
392.544	317.95
392.753	115.2
392.963	37.38
393.172	8.7
393.382	45.57
393.591	375.29
393.801	39.42
394.01	6.66
394.22	281.08
394.429	82.43
394.639	74.24
394.848	68.09
395.058	225.79
395.267	113.15
395.477	76.29
395.686	115.2
395.895	504.31
396.105	281.08
396.314	53.76
396.524	61.95
396.733	84.48
396.942	283.13
397.152	25.09
397.361	115.2
397.57	100.86
397.78	78.33
397.989	100.86
398.198	201.21
398.407	88.57
398.617	51.71
398.826	84.48
399.035	-34.3
399.244	143.87
399.453	147.97
399.663	-62.98
399.872	-99.84
400.081	16.9
400.29	254.46
400.499	-54.78
400.708	70.14
400.917	154.11
401.127	82.43
401.336	2.56
401.545	285.18
401.754	254.46
401.963	268.8
402.172	25.09
402.381	-75.26
402.59	113.15
402.799	156.16
403.008	82.43
403.217	14.85
403.426	229.88
403.635	-38.4
403.844	-97.79
404.053	-9.73
404.262	113.15
404.471	311.8
404.68	47.62
404.888	70.14
405.097	102.91
405.306	125.44
405.515	117.25
405.724	-24.06
405.933	262.65
406.142	166.4
406.35	66.05
406.559	37.38
406.768	162.3
406.977	336.38
407.185	88.57
407.394	92.67
407.603	-44.54
407.812	133.63
408.02	123.39
408.229	31.23
408.438	240.12
408.646	-34.3
408.855	31.23
409.064	0.51
409.272	55.81
409.481	231.93
409.69	-3.58
409.898	-19.97
410.107	203.26
410.315	313.85
410.524	51.71
410.733	-11.78
410.941	100.86
411.15	258.56
411.358	47.62
411.567	113.15
411.775	203.26
411.984	188.93
412.192	147.97
412.401	-28.16
412.609	348.67
412.818	207.36
413.026	145.92
413.234	31.23
413.443	121.34
413.651	-17.92
413.86	-124.41
414.068	217.6
414.276	401.91
414.485	61.95
414.693	115.2
414.901	205.31
415.11	190.97
415.318	176.64
415.526	-11.78
415.734	115.2
415.943	213.5
416.151	291.32
416.359	35.33
416.567	90.62
416.776	252.41
416.984	238.08
417.192	135.68
417.4	25.09
417.608	98.81
417.817	53.76
418.025	145.92
418.233	68.09
418.441	27.14
418.649	-71.17
418.857	109.05
419.065	43.52
419.273	158.21
419.481	172.54
419.689	14.85
419.897	-22.02
420.105	33.28
420.313	238.08
420.521	94.72
420.729	115.2
420.937	70.14
421.145	8.7
421.353	98.81
421.561	143.87
421.769	197.12
421.977	-3.58
422.185	31.23
422.393	78.33
422.601	258.56
422.809	242.17
423.017	80.38
423.224	0.51
423.432	324.09
423.64	109.05
423.848	-13.82
424.056	-44.54
424.263	383.48
424.471	133.63
424.679	190.97
424.887	-40.45
425.094	424.44
425.302	145.92
425.51	-161.28
425.718	80.38
425.925	209.4
426.133	29.18
426.341	133.63
426.548	66.05
426.756	43.52
426.964	150.01
427.171	-24.06
427.379	74.24
427.586	250.36
427.794	238.08
428.001	139.77
428.209	74.24
428.417	320
428.624	244.22
428.832	64
429.039	98.81
429.247	178.69
429.454	199.16
429.662	162.3
429.869	137.73
430.076	229.88
430.284	246.27
430.491	16.9
430.699	111.1
430.906	381.43
431.114	164.35
431.321	109.05
431.528	98.81
431.736	162.3
431.943	166.4
432.15	57.86
432.358	53.76
432.565	395.77
432.772	-81.41
432.979	113.15
433.187	-38.4
433.394	233.98
433.601	68.09
433.808	86.53
434.016	201.21
434.223	219.64
434.43	147.97
434.637	147.97
434.844	172.54
435.052	184.83
435.259	297.47
435.466	209.4
435.673	131.58
435.88	285.18
436.087	332.28
436.294	338.43
436.501	174.59
436.708	213.5
436.915	242.17
437.122	160.25
437.329	2.56
437.537	141.82
437.743	240.12
437.95	248.32
438.157	100.86
438.364	281.08
438.571	227.84
438.778	111.1
438.985	150.01
439.192	408.06
439.399	262.65
439.606	166.4
439.813	279.04
440.02	463.35
440.227	498.17
440.433	178.69
440.64	123.39
440.847	197.12
441.054	233.98
441.261	145.92
441.467	227.84
441.674	219.64
441.881	383.48
442.088	139.77
442.294	188.93
442.501	373.24
442.708	430.59
442.914	143.87
443.121	188.93
443.328	465.4
443.534	446.97
443.741	182.78
443.948	152.06
444.154	350.71
444.361	508.41
444.568	193.02
444.774	324.09
444.981	195.07
445.187	582.14
445.394	317.95
445.6	270.84
445.807	369.15
446.013	350.71
446.22	82.43
446.426	360.95
446.633	475.64
446.839	723.44
447.046	125.44
447.252	434.68
447.459	434.68
447.665	311.8
447.871	315.9
448.078	647.67
448.284	571.9
448.491	647.67
448.697	449.02
448.903	451.07
449.11	598.52
449.316	506.36
449.522	633.33
449.728	528.89
449.935	651.77
450.141	563.7
450.347	643.57
450.553	496.12
450.76	768.5
450.966	750.07
451.172	700.92
451.378	651.77
451.584	760.31
451.791	979.44
451.997	670.2
452.203	641.53
452.409	934.39
452.615	852.47
452.821	621.05
453.027	637.43
453.233	1157.61
453.44	944.63
453.646	725.49
453.852	825.84
454.058	809.46
454.264	985.58
454.47	936.43
454.676	840.18
454.882	1120.75
455.088	1108.46
455.294	983.54
455.5	1114.61
455.705	1212.91
455.911	1180.14
456.117	946.67
456.323	1032.69
456.529	1143.28
456.735	1182.19
456.941	1004.02
457.147	1122.8
457.352	1214.96
457.558	1155.57
457.764	1114.61
457.97	1024.5
458.176	1296.88
458.381	1155.57
458.587	1262.06
458.793	1190.38
458.999	1090.03
459.204	1188.33
459.41	1069.55
459.616	1018.35
459.821	1282.54
460.027	1034.74
460.233	1147.37
460.438	1182.19
460.644	1126.89
460.85	1083.89
461.055	1065.46
461.261	1087.98
461.466	1016.3
461.672	1137.13
461.878	930.29
462.083	1087.98
462.289	940.53
462.494	989.68
462.7	1006.06
462.905	868.85
463.111	1266.16
463.316	1223.15
463.522	948.72
463.727	870.9
463.932	1040.88
464.138	999.92
464.343	1001.97
464.549	885.23
464.754	1296.88
464.959	1212.91
465.165	940.53
465.37	924.15
465.575	1073.65
465.781	915.95
465.986	811.51
466.191	735.73
466.397	1008.11
466.602	1077.74
466.807	825.84
467.012	948.72
467.218	1038.83
467.423	1038.83
467.628	807.41
467.833	821.75
468.038	961.01
468.244	797.17
468.449	799.22
468.654	940.53
468.859	938.48
469.064	901.62
469.269	727.54
469.474	854.51
469.679	1085.94
469.885	1020.4
470.09	860.66
470.295	872.95
470.5	932.34
470.705	1030.64
470.91	897.52
471.115	954.87
471.32	985.58
471.525	1188.33
471.73	791.03
471.935	821.75
472.139	895.47
472.344	893.43
472.549	823.8
472.754	909.81
472.959	993.78
473.164	965.11
473.369	836.08
473.574	1067.5
473.778	1022.45
473.983	1044.98
474.188	950.77
474.393	801.27
474.598	1057.26
474.802	1112.56
475.007	901.62
475.212	821.75
475.417	936.43
475.621	1133.04
475.826	762.36
476.031	965.11
476.235	940.53
476.44	967.15
476.645	942.58
476.849	799.22
477.054	987.63
477.259	889.33
477.463	944.63
477.668	958.96
477.872	1237.49
478.077	1020.4
478.282	811.51
478.486	856.56
478.691	1016.3
478.895	1006.06
479.1	1047.02
479.304	827.89
479.509	874.99
479.713	1165.81
479.918	915.95
480.122	932.34
480.326	1055.22
480.531	1059.31
480.735	1030.64
480.94	846.32
481.144	1165.81
481.348	1047.02
481.553	1006.06
481.757	954.87
481.961	1081.84
482.166	1128.94
482.37	743.92
482.574	887.28
482.778	983.54
482.983	1327.6
483.187	961.01
483.391	1155.57
483.595	1008.11
483.8	1192.43
484.004	1208.81
484.208	1059.31
484.412	1262.06
484.616	1087.98
484.821	1014.26
485.025	952.82
485.229	1038.83
485.433	1135.09
485.637	1040.88
485.841	1065.46
486.045	1243.63
486.249	1309.16
486.453	1038.83
486.657	1024.5
486.861	866.8
487.065	1163.76
487.269	973.3
487.473	1008.11
487.677	1214.96
487.881	1591.78
488.085	1096.18
488.289	1231.34
488.493	1223.15
488.697	1409.51
488.901	1262.06
489.105	1192.43
489.309	1307.12
489.512	1503.72
489.716	1233.39
489.92	1444.33
490.124	1386.99
490.328	1671.65
490.531	1401.32
490.735	1497.58
490.939	1292.78
491.143	1438.19
491.346	1286.64
491.55	1378.79
491.754	1481.19
491.958	1499.63
492.161	1497.58
492.365	1552.87
492.569	1645.03
492.772	1638.89
492.976	1567.21
493.18	1606.12
493.383	1642.98
493.587	1757.67
493.79	1690.09
493.994	1569.26
494.197	1800.68
494.401	1804.77
494.605	1559.02
494.808	1796.58
495.012	1864.16
495.215	2058.72
495.419	1911.27
495.622	1896.93
495.825	1982.95
496.029	2038.24
496.232	1995.23
496.436	1853.92
496.639	2232.8
496.843	2138.59
497.046	2021.86
497.249	2187.74
497.453	2400.73
497.656	2224.61
497.859	2367.96
498.063	2339.29
498.266	2533.85
498.469	2240.99
498.673	2445.79
498.876	2308.57
499.079	2494.94
499.282	2523.61
499.485	2644.44
499.689	2718.17
499.892	2875.86
500.095	2728.41
500.298	2804.18
500.501	2763.22
500.705	3015.12
500.908	3084.75
501.111	3111.38
501.314	3111.38
501.517	3322.32
501.72	3379.66
501.923	3234.25
502.126	3303.89
502.329	3707.34
502.532	3711.43
502.735	3625.42
502.938	3707.34
503.141	3856.84
503.344	3803.59
503.547	3914.18
503.75	3842.5
503.953	3963.33
504.156	4311.49
504.359	4166.08
504.562	4350.4
504.765	4526.52
504.968	4606.39
505.17	4772.28
505.373	4506.04
505.576	4948.4
505.779	4995.51
505.982	4772.28
506.185	4942.26
506.387	5116.34
506.59	5345.71
506.793	5398.96
506.996	5626.28
507.198	5996.96
507.401	6007.2
507.604	5878.18
507.807	6144.42
508.009	6302.11
508.212	6533.53
508.415	6171.04
508.617	6513.05
508.82	6513.05
509.022	6631.83
509.225	7033.24
509.428	6967.7
509.63	7307.66
509.833	7342.48
510.035	7799.18
510.238	7571.85
510.44	7743.88
510.643	8094.08
510.845	8063.36
511.048	8196.48
511.25	8450.43
511.453	8735.1
511.655	8982.9
511.858	8941.94
512.06	9365.87
512.262	9384.3
512.465	9253.23
512.667	9423.22
512.87	9658.73
513.072	10140.01
513.274	10150.25
513.477	10080.61
513.679	10602.85
513.881	10838.36
514.084	10799.45
514.286	11067.74
514.488	11567.44
514.69	11723.09
514.893	11549.01
515.095	11778.38
515.297	12009.8
515.499	12443.97
515.701	12585.28
515.904	12841.28
516.106	13283.64
516.308	13461.81
516.51	13533.49
516.712	13754.67
516.914	14012.71
517.116	14266.66
517.318	14453.03
517.52	14899.48
517.722	15053.08
517.925	15266.07
518.127	15395.09
518.329	15859.98
518.531	15859.98
518.733	16292.1
518.935	16294.15
519.136	16550.15
519.338	17076.48
519.54	17363.19
519.742	17449.21
519.944	17934.57
520.146	18346.22
520.348	18325.74
520.55	18645.22
520.752	18649.32
520.954	19257.56
521.155	19169.5
521.357	19712.21
521.559	19990.73
521.761	20553.93
521.963	20447.43
522.164	20758.72
522.366	20953.28
522.568	21465.27
522.77	21665.97
522.971	21993.65
523.173	22124.72
523.375	22474.92
523.576	22253.74
523.778	22399.15
523.98	23072.93
524.181	23705.75
524.383	23462.04
524.584	24088.72
524.786	23857.3
524.988	24156.3
525.189	24494.22
525.391	24879.24
525.592	25077.89
525.794	24737.93
525.995	25505.91
526.197	25495.67
526.398	25897.08
526.6	26230.9
526.801	26241.14
527.003	26372.21
527.204	26634.35
527.406	26919.01
527.607	26968.16
527.808	27326.56
528.01	27084.9
528.211	27770.97
528.412	28164.18
528.614	28330.06
528.815	28260.43
529.016	28784.71
529.218	28641.35
529.419	28567.63
529.62	28610.64
529.822	29116.48
530.023	28807.24
530.224	29065.28
530.425	29577.28
530.626	29157.44
530.828	29354.05
531.029	29968.44
531.23	29925.43
531.431	29960.25
531.632	30455.86
531.833	30566.45
532.035	30154.8
532.236	30646.32
532.437	30847.02
532.638	30523.44
532.839	30877.74
533.04	31649.82
533.241	31240.23
533.442	31555.61
533.643	31232.04
533.844	31293.47
534.045	31729.69
534.246	31359.01
534.447	31629.34
534.648	31496.22
534.849	31926.3
535.05	31316
535.251	31825.95
535.451	32116.76
535.652	32083.99
535.853	31981.59
536.054	32180.24
536.255	32530.45
536.456	32106.52
536.657	32849.93
536.857	32237.59
537.058	32432.15
537.259	32518.16
537.46	32616.46
537.66	32233.49
537.861	32948.23
538.062	32704.52
538.263	32532.5
538.463	32286.74
538.664	32587.79
538.865	32780.3
539.065	32972.81
539.266	32626.7
539.466	33411.07
539.667	32923.66
539.868	33007.62
540.068	32716.81
540.269	33361.92
540.469	33314.82
540.67	33048.58
540.87	33445.89
541.071	33228.8
541.271	33456.13
541.472	33226.76
541.672	33275.91
541.873	33351.68
542.073	33116.17
542.274	33775.61
542.474	33169.41
542.675	33746.94
542.875	33716.22
543.075	33349.64
543.276	33241.09
543.476	34099.19
543.676	33773.56
543.877	33931.26
544.077	33441.79
544.277	34152.44
544.478	33634.3
544.678	33964.03
544.878	33759.23
545.078	33898.49
545.279	33843.2
545.479	33740.8
545.679	33779.71
545.879	34447.35
546.079	34455.54
546.28	34125.82
546.48	33937.4
546.68	34486.26
546.88	34353.14
547.08	34107.38
547.28	34162.68
547.48	33613.82
547.68	34807.79
547.88	34123.77
548.081	34615.28
548.281	34457.59
548.481	34156.53
548.681	34689.01
548.881	34375.67
549.081	34535.41
549.28	34308.08
549.48	34791.41
549.68	34394.1
549.88	35035.11
550.08	34246.65
550.28	34408.43
550.48	34787.31
550.68	34983.91
550.88	34762.73
551.08	34834.41
551.279	35071.98
551.479	34529.27
551.679	35020.78
551.879	34699.25
552.079	34660.34
552.278	34992.11
552.478	35409.89
552.678	35153.9
552.878	35110.89
553.077	34875.37
553.277	34736.11
553.477	35432.42
553.676	35188.71
553.876	35434.47
554.076	35454.95
554.275	34824.17
554.475	34504.69
554.674	35225.57
554.874	34789.36
555.074	34613.23
555.273	35268.58
555.473	35297.25
555.672	34910.19
555.872	34977.77
556.071	35012.59
556.271	35508.19
556.47	34662.38
556.67	34897.9
556.869	34795.5
557.068	34772.97
557.268	34881.52
557.467	34811.88
557.667	34662.38
557.866	34467.83
558.065	34207.73
558.265	34289.65
558.464	34242.55
558.663	35026.92
558.863	34115.58
559.062	34582.51
559.261	33996.79
559.461	35008.49
559.66	34189.3
559.859	34453.49
560.058	33955.83
560.258	33988.6
560.457	34066.42
560.656	33980.41
560.855	33658.88
561.054	34267.13
561.253	33996.79
561.453	34125.82
561.652	34183.16
561.851	33685.5
562.05	33630.21
562.249	33292.29
562.448	33624.06
562.647	33290.24
562.846	33208.33
563.045	33304.58
563.244	32974.86
563.443	33376.26
563.642	32573.45
563.841	32981
564.04	32559.12
564.239	32806.92
564.438	32270.36
564.637	32122.9
564.836	32450.58
565.035	32079.89
565.234	31844.38
565.432	31940.63
565.631	31721.5
565.83	31782.94
566.029	31584.29
566.228	31326.24
566.427	31473.7
566.625	31070.25
566.824	30906.41
567.023	31168.55
567.222	30191.67
567.42	30761
567.619	30629.93
567.818	30382.13
568.016	30570.54
568.215	30517.29
568.414	30193.72
568.612	30105.65
568.811	29820.98
569.01	29835.32
569.208	29366.34
569.407	29450.3
569.605	29304.9
569.804	29403.2
570.002	29036.61
570.201	28866.63
570.4	28710.99
570.598	28782.66
570.797	28262.48
570.995	28022.87
571.193	28033.11
571.392	28604.49
571.59	28037.2
571.789	27969.62
571.987	27889.75
572.186	27713.63
572.384	27392.09
572.582	27373.66
572.781	27285.6
572.979	26794.09
573.177	27048.04
573.376	26976.36
573.574	26714.22
573.772	26685.54
573.971	25987.19
574.169	26103.92
574.367	25679.99
574.565	26314.86
574.763	26452.08
574.962	25811.06
575.16	25788.53
575.358	25788.53
575.556	25538.68
575.754	25661.56
575.952	24875.14
576.151	25448.57
576.349	25137.28
576.547	25049.22
576.745	25147.52
576.943	24854.66
577.141	24639.62
577.339	24518.79
577.537	24330.38
577.735	24649.86
577.933	24053.9
578.131	24217.74
578.329	24080.53
578.527	23896.21
578.725	24164.5
578.923	23586.97
579.121	23845.01
579.319	23521.43
579.516	23820.44
579.714	23492.76
579.912	23320.73
580.11	23412.89
580.308	23302.3
580.506	23117.98
580.704	22513.83
580.901	22902.95
581.099	23216.29
581.297	22984.87
581.495	22706.34
581.692	22714.53
581.89	22712.49
582.088	22669.48
582.285	22296.75
582.483	22542.5
582.681	22290.6
582.878	22139.05
583.076	21942.45
583.274	22292.65
583.471	22046.9
583.669	22167.73
583.866	21891.25
584.064	21739.7
584.262	21541.05
584.459	21692.6
584.657	21373.11
584.854	21715.12
585.052	21235.9
585.249	21149.89
585.447	21205.18
585.644	20922.56
585.841	21145.79
586.039	21110.97
586.236	21043.39
586.434	21113.02
586.631	20641.99
586.828	20517.06
587.026	20685
587.223	20412.62
587.42	20863.17
587.618	20629.7
587.815	20627.65
588.012	20672.71
588.21	20512.97
588.407	20687.04
588.604	20173
588.801	20150.48
588.999	20435.14
589.196	20115.66
589.393	19931.34
589.59	20138.19
589.787	20132.04
589.984	19818.71
590.182	19585.24
590.379	19716.31
590.576	19777.75
590.773	19751.12
590.97	19587.29
591.167	19822.8
591.364	19923.15
591.561	19546.33
591.758	19263.71
591.955	19570.9
592.152	19486.93
592.349	19323.1
592.546	19247.32
592.743	19505.37
592.94	18886.88
593.137	19464.41
593.334	19327.19
593.531	19132.64
593.727	19257.56
593.924	18784.48
594.121	18852.06
594.318	19202.27
594.515	18606.31
594.712	19038.43
594.908	18903.26
595.105	18936.03
595.302	18917.6
595.499	18811.1
595.696	18976.99
595.892	18825.44
596.089	18907.36
596.286	18704.61
596.482	18692.32
596.679	18809.06
596.876	18538.73
597.072	18436.33
597.269	18622.69
597.466	18520.29
597.662	18518.25
597.859	18438.37
598.055	18553.06
598.252	18751.71
598.448	18780.39
598.645	18299.11
598.841	17807.6
599.038	18514.15
599.234	18729.19
599.431	18297.06
599.627	18276.59
599.824	18413.8
600.02	18198.76
600.217	18090.22
600.413	17879.28
600.609	18385.13
600.806	18469.09
601.002	18342.12
601.198	17985.77
601.395	18295.02
601.591	18383.08
601.787	18077.93
601.984	17758.45
602.18	18247.91
602.376	18145.52
602.572	17877.23
602.769	17991.92
602.965	18069.74
603.161	17916.14
603.357	17940.72
603.553	17819.89
603.75	18131.18
603.946	17942.77
604.142	17580.28
604.338	17578.23
604.534	17897.71
604.73	17727.73
604.926	17746.16
605.122	17899.76
605.318	17656.05
605.514	17584.37
605.71	17316.09
605.906	17484.02
606.102	17711.35
606.298	17774.83
606.494	17580.28
606.69	17391.86
606.886	17690.87
607.082	17420.53
607.278	17686.77
607.474	17266.94
607.67	17582.32
607.866	17092.86
608.062	17531.12
608.257	17162.49
608.453	17064.19
608.649	17424.63
608.845	16779.52
609.041	17056
609.236	17484.02
609.432	17328.38
609.628	16892.16
609.824	17076.48
610.019	16879.87
610.215	17015.04
610.411	17182.97
610.606	16957.69
610.802	17006.84
610.998	17225.98
611.193	17139.96
611.389	16433.41
611.584	17004.8
611.78	16509.19
611.976	16830.72
612.171	16865.53
612.367	16863.49
612.562	16457.99
612.758	16431.37
612.953	16199.94
613.149	16867.58
613.344	16709.89
613.539	16695.55
613.735	16318.73
613.93	16632.07
614.126	16476.42
614.321	16431.37
614.517	16357.64
614.712	16365.83
614.907	16369.93
615.103	16584.96
615.298	16058.63
615.493	16324.87
615.688	15952.14
615.884	16466.18
616.079	15917.33
616.274	16476.42
616.47	15937.8
616.665	16107.79
616.86	15606.03
617.055	16089.35
617.25	15739.15
617.445	15790.35
617.641	15640.85
617.836	15696.14
618.031	15442.2
618.226	15550.74
618.421	15474.96
618.616	15587.6
618.811	15192.34
619.006	15477.01
619.201	15132.95
619.396	15282.45
619.591	14913.82
619.786	15098.14
619.981	14944.54
620.176	15130.91
620.371	14868.77
620.566	14844.19
620.761	15001.88
620.956	14866.72
621.151	14922.01
621.346	14819.61
621.541	14311.72
621.735	14922.01
621.93	14487.84
622.125	14500.13
622.32	14407.97
622.515	14346.53
622.709	14518.56
622.904	14706.98
623.099	14149.93
623.294	14420.26
623.488	14227.75
623.683	14487.84
623.878	13834.54
624.072	14485.79
624.267	13953.32
624.462	13930.8
624.656	13738.29
624.851	13857.07
625.046	13963.56
625.24	13639.98
625.435	13486.39
625.629	13773.1
625.824	13760.81
626.018	13787.44
626.213	13275.45
626.407	13599.02
626.602	13568.3
626.796	13379.89
626.991	13361.46
627.185	13136.18
627.38	13314.36
627.574	13351.22
627.768	13355.32
627.963	13183.29
628.157	13535.54
628.352	12992.83
628.546	12859.71
628.74	13261.11
628.935	12898.62
629.129	12896.57
629.323	12894.52
629.517	12839.23
629.712	13293.88
629.906	12628.29
630.1	13001.02
630.294	12972.35
630.489	12734.78
630.683	12779.84
630.877	12704.06
631.071	12523.84
631.265	12734.78
631.459	12476.74
631.653	12431.68
631.848	12781.88
632.042	12554.56
632.236	12433.73
632.43	12388.67
632.624	12206.41
632.818	12235.08
633.012	11970.89
633.206	11940.17
633.4	12112.2
633.594	12005.7
633.788	11960.65
633.982	11938.12
634.176	12067.14
634.369	11827.53
634.563	11657.55
634.757	11536.72
634.951	11852.11
635.145	11518.29
635.339	11272.53
635.533	11350.35
635.726	11637.07
635.92	10897.75
636.114	11082.07
636.308	11018.58
636.501	10963.29
636.695	10996.06
636.889	10576.22
637.083	10490.21
637.276	10447.2
637.47	10248.55
637.664	10330.47
637.857	10205.54
638.051	10350.95
638.244	10232.16
638.438	9965.93
638.632	9916.78
638.825	9617.77
639.019	9748.84
639.212	9300.34
639.406	9392.5
639.599	9218.42
639.793	9341.3
639.986	8976.76
640.18	9290.1
640.373	8759.67
640.567	8872.31
640.76	8739.19
640.954	8466.81
641.147	8350.08
641.34	8272.26
641.534	8262.02
641.727	8098.18
641.92	8395.14
642.114	7960.97
642.307	7715.21
642.5	7827.85
642.694	7586.19
642.887	7623.05
643.08	7651.72
643.273	7326.1
643.467	7276.94
643.66	6988.18
643.853	6848.92
644.046	6853.02
644.239	6795.67
644.432	6439.33
644.626	6445.47
644.819	6212
645.012	6207.91
645.205	6431.13
645.398	6261.15
645.591	5933.48
645.784	5861.8
645.977	6058.4
646.17	5769.64
646.363	5736.87
646.556	5566.89
646.749	5562.8
646.942	5294.51
647.135	5327.28
647.328	5378.48
647.521	5329.33
647.714	4997.56
647.907	5196.21
648.099	4977.08
648.292	5169.59
648.485	5181.87
648.678	4731.32
648.871	4667.83
649.064	4657.59
649.256	4557.24
649.449	4628.92
649.642	4397.5
649.835	4583.87
650.027	4207.04
650.22	4434.36
650.413	4444.6
650.605	4338.11
650.798	4291.01
650.991	4157.89
651.183	4188.61
651.376	4020.67
651.568	4041.15
651.761	3916.23
651.954	4168.13
652.146	4012.48
652.339	3924.42
652.531	3869.12
652.724	3918.28
652.916	3774.92
653.109	3600.84
653.301	3776.97
653.494	3914.18
653.686	3783.11
653.879	3670.47
654.071	3787.21
654.263	3543.5
654.456	3604.94
654.648	3600.84
654.84	3523.02
655.033	3574.22
655.225	3613.13
655.417	3281.36
655.61	3383.76
655.802	3631.56
655.994	3637.7
656.186	3279.31
656.379	3297.74
656.571	3226.06
656.763	3338.7
656.955	3269.07
657.148	3146.19
657.34	3254.73
657.532	2998.74
657.724	3051.99
657.916	3070.42
658.108	3082.7
658.3	3142.1
658.492	3115.47
658.684	2826.71
658.876	3094.99
659.068	2726.36
659.26	2560.47
659.452	2599.38
659.644	2935.25
659.836	3072.47
660.028	2597.34
660.22	2591.19
660.412	2703.83
660.604	2673.11
660.796	2447.83
660.988	2427.35
661.18	2492.89
661.372	2433.5
661.563	2361.82
661.755	2247.13
661.947	2148.83
662.139	2214.37
662.331	2286.05
662.522	2025.95
662.714	2087.39
662.906	2046.43
663.097	1933.79
663.289	1903.07
663.481	1724.9
663.673	1962.47
663.864	1763.81
664.056	1755.62
664.247	1724.9
664.439	1982.95
664.631	1696.23
664.822	1767.91
665.014	1888.74
665.205	1657.32
665.397	1606.12
665.588	1604.07
665.78	1688.04
665.971	1774.05
666.163	1405.42
666.354	1368.56
666.546	1425.9
666.737	1425.9
666.929	1374.7
667.12	1372.65
667.311	1442.28
667.503	1389.03
667.694	1337.84
667.885	1243.63
668.077	1319.4
668.268	1067.5
668.459	1196.53
668.651	1247.72
668.842	1319.4
669.033	1210.86
669.224	1063.41
669.416	1354.22
669.607	1112.56
669.798	1096.18
669.989	1071.6
670.18	1024.5
670.371	1190.38
670.563	770.55
670.754	1065.46
670.945	1020.4
671.136	1278.44
671.327	922.1
671.518	913.91
671.709	1004.02
671.9	1135.09
672.091	1073.65
672.282	938.48
672.473	748.02
672.664	793.08
672.855	1001.97
673.046	803.32
673.237	885.23
673.428	979.44
673.619	1028.59
673.809	727.54
674	901.62
674.191	1012.21
674.382	985.58
674.573	713.21
674.764	776.69
674.954	1065.46
675.145	877.04
675.336	662.01
675.527	715.25
675.717	905.71
675.908	834.04
676.099	750.07
676.289	655.86
676.48	698.87
676.671	864.75
676.861	678.39
677.052	651.77
677.243	815.6
677.433	770.55
677.624	721.4
677.814	614.9
678.005	705.01
678.195	967.15
678.386	719.35
678.576	627.19
678.767	571.9
678.957	754.16
679.148	815.6
679.338	782.84
679.529	862.71
679.719	813.56
679.909	762.36
680.1	672.25
680.29	831.99
680.481	614.9
680.671	748.02
680.861	801.27
681.052	907.76
681.242	629.24
681.432	797.17
681.622	698.87
681.813	694.77
682.003	864.75
682.193	631.29
682.383	729.59
682.573	786.93
682.764	799.22
682.954	754.16
683.144	999.92
683.334	872.95
683.524	899.57
683.714	905.71
683.904	905.71
684.094	1051.12
684.284	883.19
684.474	1014.26
684.664	1059.31
684.854	1044.98
685.044	1133.04
685.234	930.29
685.424	979.44
685.614	1034.74
685.804	1450.47
685.994	1133.04
686.184	1165.81
686.374	1401.32
686.564	1282.54
686.753	1386.99
686.943	1196.53
687.133	1368.56
687.323	1513.96
687.513	1442.28
687.702	1460.71
687.892	1483.24
688.082	1737.19
688.272	1642.98
688.461	1659.37
688.651	2087.39
688.841	1935.84
689.03	1901.03
689.22	1837.54
689.41	2187.74
689.599	2175.45
689.789	2075.1
689.979	2218.46
690.168	2322.91
690.358	2396.64
690.547	2327
690.737	2449.88
690.926	2759.13
691.116	2699.73
691.305	2673.11
691.495	2703.83
691.684	2793.94
691.874	2804.18
692.063	2843.09
692.252	3123.66
692.442	3361.23
692.631	3228.11
692.82	3443.15
693.01	3557.83
693.199	3649.99
693.388	3838.41
693.578	3707.34
693.767	3856.84
693.956	4145.6
694.146	4061.63
694.335	4254.14
694.524	4147.65
694.713	4819.38
694.902	4512.19
695.092	4585.91
695.281	4667.83
695.47	4819.38
695.659	4964.79
695.848	5007.8
696.037	4874.68
696.226	5595.56
696.415	5403.05
696.604	5630.38
696.793	5368.24
696.982	5702.06
697.171	5996.96
697.36	5611.95
697.549	5869.99
697.738	5943.72
697.927	6220.19
698.116	6259.1
698.305	6236.58
698.494	6539.68
698.683	6609.31
698.872	6594.97
699.061	6594.97
699.25	6891.93
699.438	6934.93
699.627	6842.78
699.816	7192.98
700.005	6963.61
700.193	7272.85
700.382	7342.48
700.571	7408.01
700.76	7569.8
700.948	7850.38
701.137	7471.5
701.326	7924.1
701.514	7760.27
701.703	7864.71
701.892	7790.99
702.08	8030.6
702.269	8130.95
702.457	8061.32
702.646	8067.46
702.834	7967.11
703.023	8317.31
703.212	8593.79
703.4	8399.23
703.589	8200.58
703.777	8675.71
703.965	8479.1
704.154	8577.41
704.342	8632.7
704.531	8733.05
704.719	8636.8
704.907	9015.67
705.096	8749.43
705.284	8796.54
705.472	9034.1
705.661	8851.83
705.849	9036.15
706.037	9333.11
706.226	9240.95
706.414	9120.12
706.602	9177.46
706.79	9146.74
706.979	9320.82
707.167	9134.45
707.355	9177.46
707.543	9533.81
707.731	9410.93
707.919	9298.29
708.107	9064.82
708.296	9331.06
708.484	9212.28
708.672	9185.65
708.86	9269.62
709.048	9554.29
709.236	9277.81
709.424	9455.98
709.612	9548.14
709.8	9433.46
709.988	9628.01
710.176	9652.59
710.364	9636.2
710.551	9570.67
710.739	9535.85
710.927	9519.47
711.115	9628.01
711.303	9668.97
711.491	9765.23
711.679	9501.04
711.866	9505.13
712.054	9673.07
712.242	9490.8
712.43	9695.6
712.617	9488.75
712.805	9793.9
712.993	9623.92
713.181	9386.35
713.368	9548.14
713.556	9851.24
713.744	9507.18
713.931	9959.78
714.119	9365.87
714.306	9847.15
714.494	9556.33
714.682	9558.38
714.869	9247.09
715.057	9726.32
715.244	9369.97
715.432	9718.12
715.619	9388.4
715.807	9728.36
715.994	9486.7
716.182	9521.52
716.369	9607.53
716.556	9697.64
716.744	9503.09
716.931	9425.26
717.119	9681.26
717.306	9705.84
717.493	9474.42
717.681	9462.13
717.868	9263.47
718.055	9691.5
718.242	9468.27
718.43	9369.97
718.617	9271.67
718.804	9361.78
718.991	9517.42
719.179	9445.74
719.366	9159.03
719.553	9453.94
719.74	9464.18
719.927	9367.92
720.114	9109.88
720.301	9339.25
720.488	9154.93
720.676	9138.55
720.863	9386.35
721.05	9539.95
721.237	9544.05
721.424	9228.66
721.611	9038.2
721.798	9148.79
721.985	9109.88
722.172	9087.35
722.358	8968.57
722.545	9474.42
722.732	9128.31
722.919	9240.95
723.106	8837.5
723.293	9257.33
723.48	9083.25
723.667	8970.62
723.853	8677.76
724.04	9066.87
724.227	8948.09
724.414	8671.61
724.6	8765.82
724.787	9111.92
724.974	9257.33
725.161	8857.98
725.347	8663.42
725.534	8896.89
725.72	8735.1
725.907	8630.65
726.094	8821.11
726.28	8718.71
726.467	8673.66
726.653	8610.17
726.84	8591.74
727.027	9156.98
727.213	8563.07
727.4	8524.16
727.586	8642.94
727.773	8829.31
727.959	8737.15
728.145	8589.69
728.332	8417.66
728.518	8528.25
728.705	8685.95
728.891	8421.76
729.077	8573.31
729.264	8440.19
729.45	8315.27
729.636	8630.65
729.823	8202.63
730.009	8700.28
730.195	8452.48
730.382	8311.17
730.568	8157.57
730.754	8155.52
730.94	8235.39
731.126	8300.93
731.313	8204.67
731.499	8415.62
731.685	8212.87
731.871	8030.6
732.057	8317.31
732.243	8356.22
732.429	8210.82
732.615	8014.21
732.801	7809.42
732.987	7995.78
733.173	8036.74
733.359	7840.14
733.545	7807.37
733.731	7811.46
733.917	8151.43
734.103	7989.64
734.289	7821.7
734.475	7899.53
734.661	7938.44
734.847	7782.79
735.033	7627.15
735.219	7897.48
735.404	7635.34
735.59	7575.95
735.776	7332.24
735.962	7815.56
736.148	7758.22
736.333	7672.2
736.519	7520.65
736.705	7661.96
736.89	7676.3
737.076	7379.34
737.262	6896.02
737.447	7285.14
737.633	7346.58
737.819	7416.21
738.004	7227.79
738.19	7408.01
738.375	7432.59
738.561	7248.27
738.747	7156.11
738.932	7012.76
739.118	7389.58
739.303	7215.51
739.489	7070.1
739.674	7109.01
739.859	6910.36
740.045	7002.52
740.23	6775.19
740.416	6588.83
740.601	6936.98
740.786	6820.25
740.972	6715.8
741.157	6783.38
741.342	6517.15
741.528	6381.98
741.713	6650.27
741.898	6756.76
742.084	6850.97
742.269	6617.5
742.454	6502.81
742.639	6932.89
742.824	6668.7
743.01	6474.14
743.195	6357.41
743.38	6418.85
743.565	6594.97
743.75	6433.18
743.935	6128.03
744.12	6625.69
744.305	6269.34
744.49	6160.8
744.675	5966.24
744.86	6027.68
745.045	6291.87
745.23	5915.05
745.415	5941.67
745.6	6046.12
745.785	6021.54
745.97	6005.16
746.155	6005.16
746.34	6228.38
746.525	5745.06
746.71	5956.01
746.895	5702.06
747.079	5697.96
747.264	5796.26
747.449	5716.39
747.634	5706.15
747.819	5810.6
748.003	5595.56
748.188	5517.74
748.373	5513.64
748.557	5802.41
748.742	5616.04
748.927	5466.54
749.111	5235.12
749.296	5452.2
749.481	5474.73
749.665	5372.33
749.85	5188.02
750.034	5482.92
750.219	5312.94
750.404	4972.98
750.588	5005.75
750.773	5118.39
750.957	5235.12
751.141	4829.62
751.326	5136.82
751.51	4927.92
751.695	5018.04
751.879	5003.7
752.064	5018.04
752.248	4979.12
752.432	5091.76
752.617	4645.31
752.801	4719.03
752.985	4768.18
753.17	4837.81
753.354	4700.6
753.538	4645.31
753.722	4612.54
753.907	4401.6
754.091	4366.78
754.275	4438.46
754.459	4489.66
754.643	4493.76
754.828	4600.25
755.012	4194.75
755.196	4221.38
755.38	4379.07
755.564	4153.79
755.748	4260.29
755.932	4401.6
756.116	4334.01
756.3	4276.67
756.484	4092.35
756.668	4135.36
756.852	3819.97
757.036	4012.48
757.22	3957.19
757.404	4053.44
757.588	4026.82
757.772	3981.76
757.956	3953.09
758.14	4276.67
758.323	3856.84
758.507	3869.12
758.691	3680.71
758.875	3936.71
759.059	3946.95
759.242	3508.68
759.426	3836.36
759.61	3703.24
759.794	3566.03
759.977	3797.45
760.161	4135.36
760.345	3949
760.528	3768.77
760.712	3588.55
760.895	3430.86
761.079	3508.68
761.263	3174.86
761.446	3148.24
761.63	3215.82
761.813	3568.07
761.997	3234.25
762.18	3279.31
762.364	3289.55
762.547	3105.23
762.731	3310.03
762.914	3211.73
763.098	3084.75
763.281	3269.07
763.464	3189.2
763.648	3127.76
763.831	3201.49
764.015	3172.82
764.198	3316.17
764.381	3160.53
764.564	3035.6
764.748	3305.93
764.931	3252.69
765.114	2941.4
765.297	3123.66
765.481	2978.26
765.664	3074.51
765.847	3119.57
766.03	3043.79
766.213	2933.2
766.397	3101.14
766.58	2972.11
766.763	3023.31
766.946	3023.31
767.129	3084.75
767.312	2822.61
767.495	2892.24
767.678	2974.16
767.861	3000.79
768.044	2978.26
768.227	2961.87
768.41	3043.79
768.593	3019.22
768.776	3047.89
768.959	2906.58
769.142	3226.06
769.324	3054.03
769.507	2912.72
769.69	2869.72
769.873	2953.68
770.056	3236.3
770.239	2843.09
770.421	2984.4
770.604	3017.17
770.787	2836.95
770.97	2839
771.152	2703.83
771.335	2939.35
771.518	2705.88
771.7	2617.82
771.883	2849.24
772.066	2757.08
772.248	2744.79
772.431	2961.87
772.613	2769.37
772.796	2607.58
772.978	2828.76
773.161	2757.08
773.343	2605.53
773.526	2550.23
773.708	2456.03
773.891	2492.89
774.073	2415.07
774.256	2525.66
774.438	2804.18
774.621	2435.55
774.803	2425.31
774.985	2576.86
775.168	2564.57
775.35	2437.59
775.532	2613.72
775.715	2470.36
775.897	2507.23
776.079	2359.77
776.261	2546.14
776.444	2462.17
776.626	2374.11
776.808	2220.51
776.99	2103.78
777.173	2419.16
777.355	2439.64
777.537	2273.76
777.719	2247.13
777.901	2269.66
778.083	2175.45
778.265	1974.75
778.447	2288.09
778.629	2161.12
778.811	2195.93
778.993	2165.21
779.175	2122.21
779.357	2187.74
779.539	1874.4
779.721	2197.98
779.903	2097.63
780.085	1972.71
780.267	2050.53
780.449	1866.21
780.631	2167.26
780.812	2107.87
780.994	2040.29
781.176	1888.74
781.358	1810.92
781.54	2019.81
781.721	2060.77
781.903	1765.86
782.085	1739.24
782.267	2023.91
782.448	1714.66
782.63	1884.64
782.812	1753.57
782.993	1896.93
783.175	1864.16
783.357	1673.7
783.538	1726.95
783.72	1726.95
783.901	1860.07
784.083	1753.57
784.264	1704.42
784.446	1573.35
784.627	1579.5
784.809	1657.32
784.99	1565.16
785.172	1706.47
785.353	1587.69
785.535	1491.43
785.716	1493.48
785.897	1479.15
786.079	1528.3
786.26	1507.82
786.441	1624.55
786.623	1286.64
786.804	1493.48
786.985	1432.04
787.167	1389.03
787.348	1536.49
787.529	1577.45
787.71	1546.73
787.891	1409.51
788.073	1401.32
788.254	1255.92
788.435	1540.58
788.616	1352.17
788.797	1290.73
788.978	1460.71
789.159	1257.96
789.34	1343.98
789.522	1403.37
789.703	1237.49
789.884	1358.32
790.065	1337.84
790.246	1540.58
790.427	1266.16
790.607	1354.22
790.788	1305.07
790.969	1192.43
791.15	1346.03
791.331	1208.81
791.512	1174
791.693	1176.05
791.874	1241.58
792.054	1329.64
792.235	1219.05
792.416	1071.6
792.597	983.54
792.778	1145.33
792.958	1051.12
793.139	1251.82
793.32	1034.74
793.5	965.11
793.681	1092.08
793.862	1380.84
794.042	1079.79
794.223	897.52
794.404	975.35
794.584	895.47
794.765	1092.08
794.945	1128.94
795.126	1110.51
795.306	1153.52
795.487	1036.78
795.667	946.67
795.848	907.76
796.028	1010.16
796.209	1092.08
796.389	1051.12
796.57	850.42
796.75	879.09
796.93	1022.45
797.111	836.08
797.291	858.61
797.471	1001.97
797.652	913.91
797.832	877.04
798.012	950.77
798.192	934.39
798.373	772.6
798.553	905.71
798.733	858.61
798.913	893.43
799.093	827.89
799.274	815.6
799.454	901.62
799.634	1004.02
799.814	1012.21
799.994	977.39
800.174	954.87
800.354	852.47
800.534	762.36
800.714	858.61
800.894	743.92
801.074	836.08
801.254	711.16
801.434	938.48
801.614	707.06
801.794	639.48
801.974	4983.22
802.154	676.34
802.334	827.89
802.514	643.57
802.693	756.21
802.873	631.29
803.053	854.51
803.233	870.9
803.413	717.3
803.592	629.24
803.772	686.58
803.952	774.64
804.131	557.56
804.311	762.36
804.491	696.82
804.67	772.6
804.85	616.95
805.03	670.2
805.209	793.08
805.389	666.1
805.568	688.63
805.748	614.9
805.928	623.09
806.107	762.36
806.287	809.46
806.466	715.25
806.646	672.25
806.825	827.89
807.004	672.25
807.184	700.92
807.363	737.78
807.543	696.82
807.722	543.22
807.901	760.31
808.081	629.24
808.26	389.63
808.439	612.85
808.619	524.79
808.798	606.71
808.977	717.3
809.156	809.46
809.336	651.77
809.515	641.53
809.694	549.37
809.873	508.41
810.052	510.46
810.231	729.59
810.411	612.85
810.59	725.49
810.769	428.54
810.948	602.61
811.127	332.28
811.306	549.37
811.485	461.3
811.664	682.49
811.843	647.67
812.022	606.71
812.201	494.07
812.38	430.59
812.559	492.02
812.737	614.9
812.916	371.19
813.095	451.07
813.274	684.53
813.453	639.48
813.632	518.65
813.811	508.41
813.989	375.29
814.168	623.09
814.347	336.38
814.526	463.35
814.704	696.82
814.883	713.21
815.062	274.94
815.24	467.45
815.419	410.11
815.598	659.96
815.776	297.47
815.955	395.77
816.133	225.79
816.312	547.32
816.49	391.67
816.669	492.02
816.847	547.32
817.026	575.99
817.204	377.34
817.383	498.17
817.561	420.35
817.74	410.11
817.918	444.92
818.097	320
818.275	360.95
818.453	551.42
818.632	461.3
818.81	360.95
818.988	449.02
819.167	381.43
819.345	434.68
819.523	315.9
819.701	518.65
819.879	549.37
820.058	412.15
820.236	358.91
820.414	461.3
820.592	449.02
820.77	424.44
820.948	195.07
821.127	309.76
821.305	598.52
821.483	242.17
821.661	410.11
821.839	422.39
822.017	311.8
822.195	313.85
822.373	336.38
822.551	451.07
822.729	569.85
822.907	426.49
823.085	395.77
823.262	516.6
823.44	330.23
823.618	332.28
823.796	367.1
823.974	340.47
824.152	223.74
824.329	414.2
824.507	330.23
824.685	471.54
824.863	381.43
825.04	297.47
825.218	410.11
825.396	426.49
825.574	395.77
825.751	406.01
825.929	170.49
826.107	264.7
826.284	403.96
826.462	225.79
826.639	320
826.817	258.56
826.994	332.28
827.172	131.58
827.349	287.23
827.527	479.74
827.704	350.71
827.882	457.21
828.059	209.4
828.237	289.28
828.414	446.97
828.591	59.9
828.769	231.93
828.946	240.12
829.124	475.64
829.301	303.61
829.478	213.5
829.655	401.91
829.833	297.47
830.01	117.25
830.187	315.9
830.364	254.46
830.542	373.24
830.719	377.34
830.896	371.19
831.073	391.67
831.25	303.61
831.427	166.4
831.604	190.97
831.782	213.5
831.959	408.06
832.136	205.31
832.313	295.42
832.49	219.64
832.667	262.65
832.844	102.91
833.021	373.24
833.198	360.95
833.374	317.95
833.551	236.03
833.728	147.97
833.905	401.91
834.082	53.76
834.259	373.24
834.436	287.23
834.612	201.21
834.789	539.13
834.966	270.84
835.143	242.17
835.319	162.3
835.496	360.95
835.673	223.74
835.85	279.04
836.026	387.58
836.203	412.15
836.38	115.2
836.556	180.73
836.733	254.46
836.909	547.32
837.086	158.21
837.262	41.47
837.439	283.13
837.616	199.16
837.792	248.32
837.968	209.4
838.145	39.42
838.321	231.93
838.498	207.36
838.674	326.14
838.851	283.13
839.027	156.16
839.203	133.63
839.38	264.7
839.556	203.26
839.732	389.63
839.909	217.6
840.085	231.93
840.261	141.82
840.437	291.32
840.614	143.87
840.79	311.8
840.966	315.9
841.142	262.65
841.318	233.98
841.494	199.16
841.671	371.19
841.847	100.86
842.023	76.29
842.199	141.82
842.375	457.21
842.551	-32.26
842.727	74.24
842.903	236.03
843.079	109.05
843.255	436.73
843.431	180.73
843.607	285.18
843.783	6.66
843.959	352.76
844.134	152.06
844.31	268.8
844.486	201.21
844.662	72.19
844.838	213.5
845.013	160.25
845.189	418.3
845.365	262.65
845.541	186.88
845.716	236.03
845.892	410.11
846.068	129.53
846.244	178.69
846.419	88.57
846.595	119.29
846.77	98.81
846.946	268.8
847.122	74.24
847.297	227.84
847.473	428.54
847.648	80.38
847.824	74.24
847.999	18.94
848.175	240.12
848.35	166.4
848.526	307.71
848.701	399.87
848.876	281.08
849.052	328.19
849.227	104.96
849.403	293.37
849.578	244.22
849.753	221.69
849.929	160.25
850.104	-52.74
850.279	180.73
850.454	211.45
850.63	311.8
850.805	248.32
850.98	281.08
851.155	217.6
851.33	172.54
851.505	137.73
851.681	397.82
851.856	64
852.031	172.54
852.206	223.74
852.381	92.67
852.556	164.35
852.731	72.19
852.906	313.85
853.081	307.71
853.256	244.22
853.431	109.05
853.606	131.58
853.781	57.86
853.956	-46.59
854.131	84.48
854.305	104.96
854.48	98.81
854.655	96.77
854.83	115.2
855.005	147.97
855.18	262.65
855.354	29.18
855.529	119.29
855.704	172.54
855.879	272.89
856.053	25.09
856.228	221.69
856.403	16.9
856.577	246.27
856.752	31.23
856.926	123.39
857.101	193.02
857.276	23.04
857.45	217.6
857.625	190.97
857.799	244.22
857.974	156.16
858.148	-77.31
858.323	182.78
858.497	199.16
858.672	131.58
858.846	45.57
859.02	152.06
859.195	84.48
859.369	244.22
859.543	154.11
859.718	150.01
859.892	164.35
860.066	195.07
860.241	121.34
860.415	2.56
860.589	285.18
860.763	133.63
860.938	121.34
861.112	150.01
861.286	100.86
861.46	164.35
861.634	139.77
861.808	156.16
861.982	141.82
862.157	43.52
862.331	25.09
862.505	-50.69
862.679	90.62
862.853	117.25
863.027	25.09
863.201	166.4
863.375	190.97
863.549	147.97
863.722	203.26
863.896	225.79
864.07	107.01
864.244	141.82
864.418	150.01
864.592	66.05
864.766	203.26
864.939	156.16
865.113	76.29
865.287	231.93
865.461	-11.78
865.634	219.64
865.808	76.29
865.982	39.42
866.156	94.72
866.329	-46.59
866.503	37.38
866.676	133.63
866.85	229.88
867.024	39.42
867.197	156.16
867.371	111.1
867.544	197.12
867.718	4.61
867.891	242.17
868.065	-46.59
868.238	201.21
868.412	262.65
868.585	121.34
868.759	51.71
868.932	80.38
869.105	-75.26
869.279	178.69
869.452	-5.63
869.625	246.27
869.799	100.86
869.972	-42.5
870.145	131.58
870.319	356.86
870.492	47.62
870.665	80.38
870.838	-1.54
871.011	-105.98
871.185	92.67
871.358	10.75
871.531	281.08
871.704	29.18
871.877	119.29
872.05	12.8
872.223	-79.36
872.396	344.57
872.569	207.36
872.742	-3.58
872.915	109.05
873.088	135.68
873.261	-65.02
873.434	229.88
873.607	-3.58
873.78	410.11
873.953	-71.17
874.126	125.44
874.299	152.06
874.471	45.57
874.644	64
874.817	268.8
874.99	221.69
875.163	84.48
875.335	162.3
875.508	27.14
875.681	180.73
875.853	107.01
876.026	164.35
876.199	219.64
876.371	41.47
876.544	76.29
876.717	154.11
876.889	111.1
877.062	98.81
877.234	4.61
877.407	84.48
877.579	33.28
877.752	147.97
877.924	250.36
878.097	201.21
878.269	27.14
878.442	219.64
878.614	326.14
878.786	125.44
878.959	111.1
879.131	131.58
879.303	-46.59
879.476	133.63
879.648	162.3
879.82	18.94
879.993	158.21
880.165	29.18
880.337	49.66
880.509	55.81
880.681	-101.89
880.854	10.75
881.026	160.25
881.198	180.73
881.37	33.28
881.542	98.81
881.714	47.62
881.886	-32.26
882.058	141.82
882.23	156.16
882.402	125.44
882.574	66.05
882.746	279.04
882.918	262.65
883.09	156.16
883.262	61.95
883.434	184.83
883.606	-19.97
883.778	66.05
883.95	107.01
884.122	92.67
884.293	260.6
884.465	125.44
884.637	139.77
884.809	74.24
884.98	156.16
885.152	141.82
885.324	182.78
885.496	29.18
885.667	117.25
885.839	0.51
886.011	117.25
886.182	254.46
886.354	315.9
886.525	156.16
886.697	35.33
886.869	-26.11
887.04	57.86
887.212	231.93
887.383	225.79
887.555	137.73
887.726	84.48
887.897	72.19
888.069	115.2
888.24	268.8
888.412	150.01
888.583	113.15
888.754	72.19
888.926	-77.31
889.097	76.29
889.268	-83.45
889.44	-9.73
889.611	53.76
889.782	-54.78
889.953	-95.74
890.125	127.49
890.296	-3.58
890.467	78.33
890.638	64
890.809	33.28
890.98	78.33
891.151	231.93
891.323	217.6
891.494	-26.11
891.665	176.64
891.836	117.25
892.007	94.72
892.178	45.57
892.349	168.45
892.52	25.09
892.691	139.77
892.862	25.09
893.032	-46.59
893.203	53.76
893.374	70.14
893.545	182.78
893.716	84.48
893.887	311.8
894.057	74.24
894.228	61.95
894.399	41.47
894.57	301.56
894.74	162.3
894.911	94.72
895.082	70.14
895.253	-5.63
895.423	84.48
895.594	213.5
895.764	217.6
895.935	-40.45
896.106	121.34
896.276	-40.45
896.447	94.72
896.617	8.7
896.788	-130.56
896.958	0.51
897.129	59.9
897.299	20.99
897.47	231.93
897.64	59.9
897.81	43.52
897.981	176.64
898.151	37.38
898.322	57.86
898.492	242.17
898.662	-19.97
898.832	20.99
899.003	8.7
899.173	160.25
899.343	4.61
899.513	-17.92
