Data from USB4F104151__253__14-45-55-361.txt Node

Date: Thu Mar 13 14:45:55 EDT 2025
User: louis
Spectrometer: USB4F10415
Trigger mode: 4
Integration Time (sec): 2.000000E-2
Scans to average: 1
Electric dark correction enabled: true
Nonlinearity correction enabled: false
Boxcar width: 0
XAxis mode: Wavelengths
Number of Pixels in Spectrum: 3648
>>>>>Begin Spectral Data<<<<<
178.204	-165.89
178.424	-165.89
178.644	-165.89
178.864	-137.21
179.084	-112.64
179.304	14.34
179.524	-26.62
179.744	-4.1
179.964	16.38
180.184	-36.86
180.404	57.34
180.624	2.05
180.844	22.53
181.064	-24.58
181.283	-2.05
181.503	-8.19
181.723	-10.24
181.943	-40.96
182.163	-26.62
182.383	-34.82
182.602	-18.43
182.822	43.01
183.042	-26.62
183.262	-40.96
183.482	-2.05
183.701	14.34
183.921	-26.62
184.141	43.01
184.361	71.68
184.58	-18.43
184.8	53.25
185.02	2.05
185.239	30.72
185.459	24.58
185.679	-8.19
185.898	-71.68
186.118	22.53
186.338	14.34
186.557	22.53
186.777	77.82
186.997	14.34
187.216	2.05
187.436	0
187.655	-30.72
187.875	-10.24
188.095	-36.86
188.314	-10.24
188.534	98.3
188.753	59.39
188.973	-2.05
189.192	71.68
189.412	10.24
189.631	88.06
189.851	-51.2
190.07	38.91
190.29	10.24
190.509	32.77
190.729	18.43
190.948	45.06
191.168	129.02
191.387	12.29
191.607	34.82
191.826	0
192.045	16.38
192.265	57.34
192.484	-28.67
192.704	-26.62
192.923	16.38
193.142	32.77
193.362	-36.86
193.581	24.58
193.8	12.29
194.02	49.15
194.239	43.01
194.458	-12.29
194.678	30.72
194.897	2.05
195.116	10.24
195.335	38.91
195.555	30.72
195.774	-38.91
195.993	-12.29
196.212	16.38
196.432	71.68
196.651	-98.3
196.87	18.43
197.089	38.91
197.308	2.05
197.528	49.15
197.747	30.72
197.966	-24.58
198.185	98.3
198.404	10.24
198.623	6.14
198.842	43.01
199.062	12.29
199.281	69.63
199.5	-34.82
199.719	10.24
199.938	14.34
200.157	47.1
200.376	-14.34
200.595	-32.77
200.814	0
201.033	2.05
201.252	-10.24
201.471	16.38
201.69	-8.19
201.909	114.69
202.128	24.58
202.347	-6.14
202.566	16.38
202.785	-32.77
203.004	-47.1
203.223	57.34
203.442	14.34
203.661	-34.82
203.879	16.38
204.098	20.48
204.317	-43.01
204.536	18.43
204.755	-2.05
204.974	90.11
205.193	43.01
205.411	88.06
205.63	-49.15
205.849	16.38
206.068	-43.01
206.287	-47.1
206.505	-30.72
206.724	-100.35
206.943	-43.01
207.162	-6.14
207.381	-55.3
207.599	6.14
207.818	65.54
208.037	34.82
208.255	-32.77
208.474	-6.14
208.693	49.15
208.911	-49.15
209.13	57.34
209.349	49.15
209.567	45.06
209.786	40.96
210.005	-10.24
210.223	2.05
210.442	-10.24
210.661	-22.53
210.879	-34.82
211.098	-2.05
211.316	10.24
211.535	-4.1
211.753	-8.19
211.972	40.96
212.191	-40.96
212.409	-18.43
212.628	32.77
212.846	6.14
213.065	43.01
213.283	30.72
213.502	2.05
213.72	22.53
213.938	-16.38
214.157	-12.29
214.375	24.58
214.594	22.53
214.812	-28.67
215.031	47.1
215.249	6.14
215.467	6.14
215.686	-4.1
215.904	-40.96
216.122	18.43
216.341	-18.43
216.559	-16.38
216.778	40.96
216.996	59.39
217.214	34.82
217.432	2.05
217.651	-30.72
217.869	20.48
218.087	2.05
218.306	43.01
218.524	22.53
218.742	-45.06
218.96	47.1
219.179	14.34
219.397	8.19
219.615	43.01
219.833	2.05
220.051	-43.01
220.27	20.48
220.488	28.67
220.706	8.19
220.924	-2.05
221.142	38.91
221.36	4.1
221.578	47.1
221.796	38.91
222.015	55.3
222.233	79.87
222.451	-2.05
222.669	-79.87
222.887	81.92
223.105	-36.86
223.323	36.86
223.541	-65.54
223.759	-12.29
223.977	6.14
224.195	6.14
224.413	43.01
224.631	-49.15
224.849	6.14
225.067	102.4
225.285	-2.05
225.503	4.1
225.721	-59.39
225.939	30.72
226.157	-8.19
226.375	92.16
226.592	-26.62
226.81	57.34
227.028	-10.24
227.246	24.58
227.464	22.53
227.682	55.3
227.9	34.82
228.117	51.2
228.335	-51.2
228.553	51.2
228.771	-18.43
228.989	-59.39
229.206	51.2
229.424	24.58
229.642	-75.77
229.86	43.01
230.077	-36.86
230.295	36.86
230.513	6.14
230.731	32.77
230.948	55.3
231.166	38.91
231.384	14.34
231.601	26.62
231.819	53.25
232.037	-43.01
232.254	-10.24
232.472	57.34
232.689	-38.91
232.907	65.54
233.125	14.34
233.342	-8.19
233.56	-14.34
233.777	-40.96
233.995	47.1
234.213	18.43
234.43	30.72
234.648	38.91
234.865	47.1
235.083	34.82
235.3	-2.05
235.518	-16.38
235.735	14.34
235.953	24.58
236.17	38.91
236.388	0
236.605	38.91
236.822	-2.05
237.04	-2.05
237.257	40.96
237.475	-2.05
237.692	104.45
237.909	-38.91
238.127	6.14
238.344	16.38
238.562	20.48
238.779	-12.29
238.996	-22.53
239.214	-83.97
239.431	38.91
239.648	-65.54
239.865	26.62
240.083	38.91
240.3	-38.91
240.517	-43.01
240.735	-67.58
240.952	-2.05
241.169	63.49
241.386	6.14
241.603	-24.58
241.821	-34.82
242.038	79.87
242.255	61.44
242.472	-67.58
242.689	71.68
242.907	65.54
243.124	-34.82
243.341	22.53
243.558	-40.96
243.775	-8.19
243.992	67.58
244.209	63.49
244.426	43.01
244.643	57.34
244.86	10.24
245.078	-24.58
245.295	-18.43
245.512	-8.19
245.729	-26.62
245.946	8.19
246.163	51.2
246.38	38.91
246.597	-22.53
246.814	49.15
247.031	8.19
247.248	38.91
247.464	20.48
247.681	0
247.898	79.87
248.115	49.15
248.332	40.96
248.549	-43.01
248.766	90.11
248.983	59.39
249.2	12.29
249.417	32.77
249.633	14.34
249.85	-10.24
250.067	55.3
250.284	-32.77
250.501	10.24
250.717	57.34
250.934	-57.34
251.151	-24.58
251.368	36.86
251.585	-8.19
251.801	47.1
252.018	47.1
252.235	-24.58
252.451	32.77
252.668	-40.96
252.885	-4.1
253.102	24.58
253.318	-24.58
253.535	-2.05
253.752	-8.19
253.968	43.01
254.185	-14.34
254.401	-40.96
254.618	12.29
254.835	12.29
255.051	83.97
255.268	30.72
255.484	-43.01
255.701	0
255.917	34.82
256.134	-14.34
256.351	38.91
256.567	14.34
256.784	8.19
257	-63.49
257.217	137.21
257.433	30.72
257.65	-2.05
257.866	26.62
258.082	-47.1
258.299	10.24
258.515	-32.77
258.732	-2.05
258.948	-51.2
259.165	-49.15
259.381	-24.58
259.597	40.96
259.814	-2.05
260.03	2.05
260.246	-2.05
260.463	0
260.679	73.73
260.895	40.96
261.112	-2.05
261.328	88.06
261.544	-18.43
261.761	-10.24
261.977	8.19
262.193	8.19
262.409	-14.34
262.626	18.43
262.842	-12.29
263.058	24.58
263.274	32.77
263.49	24.58
263.707	6.14
263.923	69.63
264.139	-30.72
264.355	22.53
264.571	34.82
264.787	43.01
265.004	32.77
265.22	16.38
265.436	-24.58
265.652	-59.39
265.868	43.01
266.084	-10.24
266.3	-2.05
266.516	-8.19
266.732	-79.87
266.948	10.24
267.164	-71.68
267.38	92.16
267.596	47.1
267.812	83.97
268.028	6.14
268.244	34.82
268.46	57.34
268.676	-61.44
268.892	16.38
269.108	-16.38
269.324	-38.91
269.54	-30.72
269.756	43.01
269.972	-47.1
270.188	-57.34
270.403	-34.82
270.619	47.1
270.835	22.53
271.051	30.72
271.267	-30.72
271.483	104.45
271.698	8.19
271.914	2.05
272.13	-2.05
272.346	51.2
272.562	-57.34
272.777	24.58
272.993	-26.62
273.209	26.62
273.425	40.96
273.64	14.34
273.856	43.01
274.072	-8.19
274.287	-43.01
274.503	-2.05
274.719	51.2
274.934	38.91
275.15	22.53
275.366	14.34
275.581	6.14
275.797	6.14
276.012	24.58
276.228	-55.3
276.444	2.05
276.659	8.19
276.875	-8.19
277.09	-2.05
277.306	6.14
277.521	86.01
277.737	-43.01
277.952	43.01
278.168	-34.82
278.383	6.14
278.599	26.62
278.814	22.53
279.03	14.34
279.245	8.19
279.461	141.31
279.676	18.43
279.892	32.77
280.107	24.58
280.322	43.01
280.538	24.58
280.753	88.06
280.969	16.38
281.184	-43.01
281.399	30.72
281.615	-10.24
281.83	8.19
282.045	-73.73
282.26	-26.62
282.476	16.38
282.691	88.06
282.906	6.14
283.122	14.34
283.337	45.06
283.552	-34.82
283.767	-36.86
283.983	-30.72
284.198	24.58
284.413	69.63
284.628	16.38
284.843	43.01
285.058	20.48
285.274	71.68
285.489	-20.48
285.704	43.01
285.919	-75.77
286.134	81.92
286.349	-47.1
286.564	-16.38
286.779	69.63
286.995	-18.43
287.21	-116.73
287.425	-10.24
287.64	-18.43
287.855	53.25
288.07	-18.43
288.285	51.2
288.5	32.77
288.715	6.14
288.93	-10.24
289.145	-26.62
289.36	0
289.575	22.53
289.79	59.39
290.004	-14.34
290.219	-10.24
290.434	-16.38
290.649	49.15
290.864	22.53
291.079	-40.96
291.294	-30.72
291.509	40.96
291.724	-18.43
291.938	-22.53
292.153	43.01
292.368	83.97
292.583	34.82
292.798	4.1
293.012	-10.24
293.227	92.16
293.442	-16.38
293.657	124.93
293.871	16.38
294.086	45.06
294.301	34.82
294.516	55.3
294.73	-26.62
294.945	-4.1
295.16	18.43
295.374	22.53
295.589	63.49
295.804	6.14
296.018	24.58
296.233	137.21
296.447	10.24
296.662	24.58
296.877	16.38
297.091	6.14
297.306	43.01
297.52	6.14
297.735	49.15
297.949	53.25
298.164	-10.24
298.378	-59.39
298.593	6.14
298.807	43.01
299.022	28.67
299.236	92.16
299.451	-30.72
299.665	79.87
299.88	18.43
300.094	-26.62
300.309	-47.1
300.523	26.62
300.737	53.25
300.952	47.1
301.166	0
301.381	-28.67
301.595	-20.48
301.809	49.15
302.024	112.64
302.238	-40.96
302.452	38.91
302.667	38.91
302.881	10.24
303.095	67.58
303.309	43.01
303.524	-26.62
303.738	6.14
303.952	14.34
304.166	43.01
304.381	-45.06
304.595	14.34
304.809	-71.68
305.023	-53.25
305.237	32.77
305.452	63.49
305.666	38.91
305.88	-14.34
306.094	14.34
306.308	147.45
306.522	45.06
306.736	55.3
306.95	92.16
307.164	-2.05
307.379	38.91
307.593	-26.62
307.807	36.86
308.021	59.39
308.235	22.53
308.449	-12.29
308.663	-43.01
308.877	90.11
309.091	47.1
309.305	63.49
309.519	16.38
309.733	6.14
309.947	2.05
310.161	59.39
310.374	67.58
310.588	30.72
310.802	0
311.016	-8.19
311.23	53.25
311.444	-71.68
311.658	-47.1
311.872	65.54
312.085	-8.19
312.299	20.48
312.513	55.3
312.727	22.53
312.941	63.49
313.154	4.1
313.368	24.58
313.582	-26.62
313.796	73.73
314.009	26.62
314.223	34.82
314.437	12.29
314.651	14.34
314.864	-10.24
315.078	53.25
315.292	-63.49
315.505	-30.72
315.719	-59.39
315.933	18.43
316.146	63.49
316.36	-24.58
316.573	71.68
316.787	77.82
317.001	49.15
317.214	-10.24
317.428	104.45
317.641	-65.54
317.855	-26.62
318.068	-14.34
318.282	18.43
318.495	30.72
318.709	67.58
318.922	-26.62
319.136	14.34
319.349	26.62
319.563	-8.19
319.776	-26.62
319.99	-43.01
320.203	53.25
320.417	-65.54
320.63	81.92
320.843	131.07
321.057	55.3
321.27	26.62
321.483	8.19
321.697	-18.43
321.91	6.14
322.124	88.06
322.337	51.2
322.55	14.34
322.763	6.14
322.977	4.1
323.19	6.14
323.403	63.49
323.617	26.62
323.83	30.72
324.043	-34.82
324.256	18.43
324.469	57.34
324.683	43.01
324.896	24.58
325.109	30.72
325.322	-12.29
325.535	18.43
325.748	18.43
325.962	-2.05
326.175	30.72
326.388	18.43
326.601	71.68
326.814	40.96
327.027	59.39
327.24	116.73
327.453	-77.82
327.666	-24.58
327.879	114.69
328.092	4.1
328.305	-2.05
328.518	-32.77
328.731	-8.19
328.944	14.34
329.157	-30.72
329.37	-40.96
329.583	38.91
329.796	57.34
330.009	-65.54
330.222	6.14
330.435	49.15
330.648	24.58
330.861	16.38
331.073	22.53
331.286	6.14
331.499	6.14
331.712	-90.11
331.925	53.25
332.138	22.53
332.35	2.05
332.563	-36.86
332.776	98.3
332.989	-18.43
333.202	88.06
333.414	49.15
333.627	-8.19
333.84	-8.19
334.053	63.49
334.265	8.19
334.478	30.72
334.691	-10.24
334.903	106.49
335.116	-6.14
335.329	-26.62
335.541	67.58
335.754	-4.1
335.966	16.38
336.179	4.1
336.392	10.24
336.604	49.15
336.817	38.91
337.029	63.49
337.242	22.53
337.454	71.68
337.667	96.25
337.88	86.01
338.092	-34.82
338.305	22.53
338.517	-8.19
338.729	43.01
338.942	36.86
339.154	-24.58
339.367	-10.24
339.579	-14.34
339.792	-40.96
340.004	112.64
340.217	32.77
340.429	45.06
340.641	-49.15
340.854	79.87
341.066	16.38
341.278	88.06
341.491	14.34
341.703	59.39
341.915	-2.05
342.128	69.63
342.34	38.91
342.552	-22.53
342.764	-10.24
342.977	-16.38
343.189	8.19
343.401	14.34
343.613	34.82
343.826	22.53
344.038	-14.34
344.25	100.35
344.462	6.14
344.674	0
344.886	10.24
345.099	10.24
345.311	22.53
345.523	47.1
345.735	-75.77
345.947	-18.43
346.159	51.2
346.371	-12.29
346.583	-2.05
346.795	75.77
347.007	4.1
347.219	-2.05
347.431	-26.62
347.643	61.44
347.855	-10.24
348.067	71.68
348.279	-92.16
348.491	43.01
348.703	36.86
348.915	-20.48
349.127	-20.48
349.339	32.77
349.551	-18.43
349.763	129.02
349.975	73.73
350.187	47.1
350.399	106.49
350.61	12.29
350.822	18.43
351.034	-2.05
351.246	38.91
351.458	71.68
351.669	16.38
351.881	38.91
352.093	38.91
352.305	86.01
352.517	47.1
352.728	30.72
352.94	14.34
353.152	49.15
353.363	-43.01
353.575	10.24
353.787	40.96
353.999	-16.38
354.21	63.49
354.422	22.53
354.633	-43.01
354.845	22.53
355.057	6.14
355.268	-10.24
355.48	22.53
355.692	-6.14
355.903	-8.19
356.115	28.67
356.326	-40.96
356.538	55.3
356.749	20.48
356.961	34.82
357.172	40.96
357.384	-34.82
357.595	71.68
357.807	63.49
358.018	10.24
358.23	-28.67
358.441	47.1
358.653	59.39
358.864	22.53
359.075	63.49
359.287	26.62
359.498	47.1
359.709	-18.43
359.921	-63.49
360.132	108.54
360.344	26.62
360.555	-28.67
360.766	-24.58
360.977	-32.77
361.189	83.97
361.4	8.19
361.611	47.1
361.823	83.97
362.034	32.77
362.245	-63.49
362.456	53.25
362.667	100.35
362.879	-18.43
363.09	0
363.301	22.53
363.512	43.01
363.723	26.62
363.935	49.15
364.146	38.91
364.357	57.34
364.568	-14.34
364.779	-14.34
364.99	38.91
365.201	0
365.412	38.91
365.623	-12.29
365.834	16.38
366.045	-2.05
366.256	38.91
366.467	55.3
366.678	55.3
366.889	10.24
367.1	-47.1
367.311	71.68
367.522	-22.53
367.733	43.01
367.944	83.97
368.155	63.49
368.366	14.34
368.577	30.72
368.788	47.1
368.999	73.73
369.209	-8.19
369.42	30.72
369.631	36.86
369.842	-2.05
370.053	43.01
370.264	47.1
370.474	12.29
370.685	61.44
370.896	43.01
371.107	40.96
371.317	57.34
371.528	-24.58
371.739	30.72
371.95	71.68
372.16	22.53
372.371	-8.19
372.582	-2.05
372.792	22.53
373.003	8.19
373.214	63.49
373.424	55.3
373.635	-26.62
373.846	59.39
374.056	-16.38
374.267	112.64
374.477	45.06
374.688	38.91
374.898	18.43
375.109	-18.43
375.319	-28.67
375.53	38.91
375.74	63.49
375.951	10.24
376.161	88.06
376.372	38.91
376.582	-10.24
376.793	34.82
377.003	6.14
377.214	55.3
377.424	53.25
377.635	120.83
377.845	34.82
378.055	112.64
378.266	47.1
378.476	0
378.686	6.14
378.897	55.3
379.107	26.62
379.317	30.72
379.528	47.1
379.738	24.58
379.948	-38.91
380.158	32.77
380.369	47.1
380.579	-8.19
380.789	-2.05
380.999	-16.38
381.21	-51.2
381.42	90.11
381.63	47.1
381.84	40.96
382.05	100.35
382.261	20.48
382.471	30.72
382.681	40.96
382.891	98.3
383.101	-34.82
383.311	-43.01
383.521	10.24
383.731	100.35
383.941	65.54
384.151	-14.34
384.361	-4.1
384.571	81.92
384.781	16.38
384.991	55.3
385.201	38.91
385.411	18.43
385.621	-30.72
385.831	-51.2
386.041	22.53
386.251	8.19
386.461	59.39
386.671	-10.24
386.881	90.11
387.091	-6.14
387.301	149.5
387.511	-47.1
387.72	69.63
387.93	49.15
388.14	71.68
388.35	38.91
388.56	32.77
388.769	75.77
388.979	98.3
389.189	45.06
389.399	16.38
389.609	88.06
389.818	63.49
390.028	-8.19
390.238	24.58
390.447	-36.86
390.657	102.4
390.867	16.38
391.076	-34.82
391.286	38.91
391.496	59.39
391.705	14.34
391.915	71.68
392.125	102.4
392.334	53.25
392.544	16.38
392.753	43.01
392.963	55.3
393.172	-24.58
393.382	40.96
393.591	86.01
393.801	22.53
394.01	81.92
394.22	32.77
394.429	20.48
394.639	47.1
394.848	49.15
395.058	90.11
395.267	118.78
395.477	88.06
395.686	83.97
395.895	79.87
396.105	79.87
396.314	63.49
396.524	67.58
396.733	57.34
396.942	102.4
397.152	90.11
397.361	79.87
397.57	47.1
397.78	71.68
397.989	79.87
398.198	161.79
398.407	14.34
398.617	32.77
398.826	106.49
399.035	104.45
399.244	114.69
399.453	75.77
399.663	59.39
399.872	112.64
400.081	102.4
400.29	102.4
400.499	53.25
400.708	4.1
400.917	69.63
401.127	61.44
401.336	96.25
401.545	106.49
401.754	96.25
401.963	47.1
402.172	67.58
402.381	71.68
402.59	96.25
402.799	75.77
403.008	163.84
403.217	14.34
403.426	34.82
403.635	141.31
403.844	120.83
404.053	26.62
404.262	102.4
404.471	129.02
404.68	88.06
404.888	145.41
405.097	114.69
405.306	104.45
405.515	135.17
405.724	79.87
405.933	137.21
406.142	34.82
406.35	194.56
406.559	131.07
406.768	172.03
406.977	190.46
407.185	212.99
407.394	227.32
407.603	129.02
407.812	110.59
408.02	157.69
408.229	178.17
408.438	186.37
408.646	194.56
408.855	204.8
409.064	210.94
409.272	182.27
409.481	215.04
409.69	217.08
409.898	256
410.107	262.14
410.315	235.52
410.524	219.13
410.733	264.19
410.941	294.91
411.15	245.76
411.358	313.34
411.567	358.39
411.775	327.67
411.984	337.91
412.192	360.44
412.401	393.21
412.609	446.46
412.818	362.49
413.026	448.51
413.234	417.79
413.443	442.36
413.651	497.66
413.86	505.85
414.068	456.7
414.276	579.58
414.485	522.23
414.693	509.94
414.901	530.42
415.11	573.43
415.318	614.39
415.526	661.49
415.734	704.5
415.943	636.92
416.151	679.93
416.359	724.98
416.567	700.41
416.776	774.13
416.984	739.32
417.192	784.37
417.4	743.41
417.608	946.16
417.817	778.23
418.025	901.11
418.233	1030.13
418.441	868.34
418.649	1021.94
418.857	1136.62
419.065	1054.7
419.273	1040.37
419.481	1073.14
419.689	1210.35
419.897	1241.07
420.105	1341.42
420.313	1261.55
420.521	1320.94
420.729	1415.15
420.937	1333.23
421.145	1540.07
421.353	1492.97
421.561	1611.75
421.769	1488.87
421.977	1710.05
422.185	1748.97
422.393	1820.64
422.601	1947.62
422.809	1886.18
423.017	1957.86
423.224	1959.91
423.432	1972.19
423.64	2062.3
423.848	2179.04
424.056	2197.47
424.263	2240.48
424.471	2437.08
424.679	2516.95
424.887	2541.53
425.094	2674.65
425.302	2627.54
425.51	2762.71
425.718	2744.28
425.925	2779.09
426.133	2916.31
426.341	3149.78
426.548	3246.03
426.756	3200.98
426.964	3358.67
427.171	3526.6
427.379	3467.21
427.586	3524.55
427.794	3651.53
428.001	3782.6
428.209	4032.45
428.417	4018.11
428.624	4224.96
428.832	4247.49
429.039	4247.49
429.247	4241.34
429.454	4724.66
429.662	4943.8
429.869	4532.15
430.076	4966.32
430.284	4911.03
430.491	5169.07
430.699	5226.42
430.906	5314.48
431.114	5400.49
431.321	5791.66
431.528	5699.5
431.736	6182.82
431.943	6305.7
432.15	6444.96
432.358	6258.59
432.565	6551.45
432.772	6569.88
432.979	6842.26
433.187	6854.55
433.394	7030.68
433.601	7448.46
433.808	7608.2
434.016	7419.79
434.223	7847.82
434.43	8345.47
434.637	8103.81
434.844	8521.6
435.052	8820.6
435.259	8748.92
435.466	8746.87
435.673	8669.05
435.88	9314.16
436.087	9885.55
436.294	9834.35
436.501	9502.57
436.708	9926.5
436.915	10184.55
437.122	10430.3
437.329	10434.4
437.537	10854.23
437.743	11030.36
437.95	10854.23
438.157	11646.8
438.364	11972.43
438.571	11900.75
438.778	11702.09
438.985	12971.83
439.192	12650.3
439.399	13068.09
439.606	12676.93
439.813	13518.64
440.02	14190.38
440.227	14118.7
440.433	13829.93
440.64	14153.51
440.847	13899.56
441.054	14602.02
441.261	15591.19
441.467	15308.57
441.674	15640.34
441.881	16127.75
442.088	16051.98
442.294	15556.37
442.501	16439.05
442.708	16684.8
442.914	17463.03
443.121	18247.4
443.328	17630.96
443.534	18822.88
443.741	18405.1
443.948	18050.8
444.154	19691.22
444.361	19367.64
444.568	19396.31
444.774	19723.99
444.981	19715.8
445.187	20428.49
445.394	21173.95
445.6	20932.29
445.807	23158.43
446.013	21905.07
446.22	22595.24
446.426	22988.45
446.633	23688.85
446.839	24563.34
447.046	23111.33
447.252	24309.39
447.459	24759.94
447.665	24471.18
447.871	25806.45
448.078	27057.76
448.284	25544.31
448.491	26302.06
448.697	27207.26
448.903	27752.02
449.11	27874.9
449.316	27584.09
449.522	28036.69
449.728	28833.35
449.935	29023.81
450.141	29167.17
450.347	29765.18
450.553	28573.26
450.76	29009.48
450.966	30017.08
451.172	29832.76
451.378	30703.15
451.584	30055.99
451.791	30780.97
451.997	30758.44
452.203	31348.26
452.409	31245.86
452.615	31151.65
452.821	29967.93
453.027	29638.2
453.233	31184.42
453.44	29685.31
453.646	30604.84
453.852	30776.87
454.058	31118.89
454.264	30221.87
454.47	30826.03
454.676	30285.36
454.882	31288.87
455.088	28827.21
455.294	28712.52
455.5	29392.45
455.705	29816.38
455.911	28425.81
456.117	28241.49
456.323	27612.76
456.529	26230.38
456.735	27379.29
456.941	26754.66
457.147	26513
457.352	25376.38
457.558	25360
457.764	25261.69
457.97	24911.49
458.176	24475.27
458.381	24532.62
458.587	23344.8
458.793	23469.72
458.999	21960.37
459.204	23799.44
459.41	22797.99
459.616	21399.23
459.821	21657.27
460.027	21335.74
460.233	20975.3
460.438	20086.48
460.644	20291.27
460.85	19414.74
461.055	19240.67
461.261	19042.01
461.466	17557.24
461.672	17161.98
461.878	18446.05
462.083	17000.19
462.289	16948.99
462.494	16514.82
462.7	15990.54
462.905	15642.39
463.111	16133.9
463.316	16111.37
463.522	15791.89
463.727	15795.98
463.932	15947.53
464.138	15427.35
464.343	15726.35
464.549	15271.7
464.754	15716.11
464.959	15623.95
465.165	15519.51
465.37	14972.7
465.575	14501.67
465.781	15009.56
465.986	15210.26
466.191	14546.72
466.397	14583.59
466.602	13532.98
466.807	14108.46
467.012	14087.98
467.218	13913.9
467.423	13973.29
467.628	13985.58
467.833	14522.15
468.038	14116.65
468.244	13647.66
468.449	14245.67
468.654	13674.29
468.859	13657.9
469.064	13797.17
469.269	13178.68
469.474	13360.95
469.679	13451.06
469.885	13127.48
470.09	13117.24
470.295	13317.94
470.5	12599.1
470.705	13055.8
470.91	12564.29
471.115	12361.54
471.32	12883.77
471.525	12621.63
471.73	12230.47
471.935	12289.86
472.139	12080.97
472.344	12050.25
472.549	12072.78
472.754	11884.36
472.959	11499.34
473.164	11403.09
473.369	11333.46
473.574	11845.45
473.778	11556.69
473.983	11362.13
474.188	11585.36
474.393	10975.06
474.598	10925.91
474.802	10645.34
475.007	10786.65
475.212	10706.78
475.417	10350.43
475.621	10372.96
475.826	10565.47
476.031	10215.27
476.235	9987.94
476.44	10207.08
476.645	9824.11
476.849	10069.86
477.054	9774.95
477.259	9811.82
477.463	9731.95
477.668	9484.14
477.872	9414.51
478.077	9404.27
478.282	9291.63
478.486	9117.56
478.691	9187.19
478.895	9099.13
479.1	9017.21
479.304	9004.92
479.509	8685.44
479.713	9078.65
479.918	8927.1
480.122	8673.15
480.326	8630.14
480.531	8624
480.735	8626.04
480.94	8718.2
481.144	8730.49
481.348	8501.12
481.553	8548.22
481.757	8187.78
481.961	8341.38
482.166	8462.21
482.37	8499.07
482.574	8288.13
482.778	8431.49
482.983	8615.8
483.187	8363.9
483.391	8492.93
483.595	8312.71
483.8	8376.19
484.004	8490.88
484.208	8677.24
484.412	8476.54
484.616	8546.17
484.821	8658.81
485.025	8230.79
485.229	8206.21
485.433	8132.48
485.637	8390.53
485.841	8298.37
486.045	8136.58
486.249	8421.25
486.453	8368
486.657	8509.31
486.861	8517.5
487.065	7987.08
487.269	8230.79
487.473	8296.32
487.677	8511.36
487.881	8353.66
488.085	8599.42
488.289	8552.32
488.493	8476.54
488.697	8517.5
488.901	8654.72
489.105	8587.13
489.309	8468.35
489.512	8593.28
489.716	8558.46
489.92	8394.62
490.124	8593.28
490.328	8556.41
490.531	8634.24
490.735	8871.8
490.939	8796.03
491.143	8650.62
491.346	8697.72
491.55	8845.18
491.754	9031.54
491.958	8693.63
492.161	8986.49
492.365	8994.68
492.569	8773.5
492.772	9049.97
492.976	9205.62
493.18	9021.3
493.383	9246.58
493.587	9271.15
493.79	9357.17
493.994	9332.59
494.197	9406.32
494.401	9602.93
494.605	9500.53
494.808	9801.58
495.012	9914.22
495.215	9656.17
495.419	9981.8
495.622	9881.45
495.825	10012.52
496.029	10041.19
496.232	10368.87
496.436	10297.19
496.639	10577.76
496.843	10360.67
497.046	10764.12
497.249	10655.58
497.453	10952.54
497.656	10909.53
497.859	10848.09
498.063	11153.24
498.266	11401.04
498.469	11384.66
498.673	11411.28
498.876	11741
499.079	11900.75
499.282	11843.4
499.485	12269.38
499.689	12326.72
499.892	12287.81
500.095	12754.75
500.298	12605.25
500.501	12463.94
500.705	12932.92
500.908	13000.51
501.111	13233.97
501.314	13473.59
501.517	13473.59
501.72	13809.45
501.923	13874.99
502.126	13993.77
502.329	14352.16
502.532	14317.35
502.735	14493.47
502.938	14722.85
503.141	14546.72
503.344	15265.56
503.547	15101.72
503.75	15255.32
503.953	15376.15
504.156	15949.58
504.359	15908.62
504.562	16164.62
504.765	16606.98
504.968	16498.44
505.17	16664.32
505.373	16684.8
505.576	17137.4
505.779	17452.79
505.982	17430.26
506.185	17712.88
506.387	17940.21
506.59	17938.16
506.793	18476.77
506.996	18429.67
507.198	18892.51
507.401	18865.89
507.604	19244.76
507.807	19447.51
508.009	19611.35
508.212	19619.54
508.415	20207.31
508.617	20166.35
508.82	20276.94
509.022	20504.26
509.225	20983.49
509.428	21024.45
509.63	21210.81
509.833	21315.26
510.035	21980.85
510.238	21950.13
510.44	22116.01
510.643	22580.9
510.845	22996.64
511.048	22814.37
511.25	23361.18
511.453	23199.39
511.655	23926.42
511.858	23778.97
512.06	24145.55
512.262	24446.6
512.465	24366.73
512.667	24843.91
512.87	24907.4
513.072	25130.62
513.274	25728.63
513.477	25835.13
513.679	26107.51
513.881	26535.53
514.084	26678.89
514.286	26930.79
514.488	27156.07
514.69	27788.89
514.893	27684.44
515.095	28227.15
515.297	28505.68
515.499	28425.81
515.701	28837.45
515.904	29079.11
516.106	29300.29
516.308	29812.28
516.51	30189.11
516.712	29666.88
516.914	30215.73
517.116	30848.55
517.318	30684.72
517.52	31145.51
517.722	31733.28
517.925	31890.97
518.127	32183.83
518.329	32445.97
518.531	32230.93
518.733	32935.43
518.935	33285.64
519.136	33271.3
519.338	34067.96
519.54	33687.04
519.742	34121.21
519.944	34239.99
520.146	35118.57
520.348	35057.13
520.55	35044.84
520.752	35517.92
520.954	36255.19
521.155	35831.26
521.357	36611.54
521.559	36668.88
521.761	36994.51
521.963	37311.94
522.164	37203.4
522.366	37778.88
522.568	37559.75
522.77	38073.79
522.971	38798.77
523.173	37981.63
523.375	38483.38
523.576	39163.31
523.778	38976.94
523.98	39642.53
524.181	39577
524.383	39751.07
524.584	40363.42
524.786	40201.63
524.988	39992.73
525.189	40762.77
525.391	40922.51
525.592	40791.44
525.794	41272.71
525.995	41237.9
526.197	41629.06
526.398	41440.65
526.6	41635.2
526.801	41969.02
527.003	42173.82
527.204	42108.29
527.406	42569.08
527.607	42624.37
527.808	42468.73
528.01	42102.14
528.211	42982.77
528.412	43478.38
528.614	43230.57
528.815	43003.25
529.016	43418.99
529.218	43337.07
529.419	43625.83
529.62	43584.87
529.822	43189.61
530.023	43558.25
530.224	43519.34
530.425	43763.04
530.626	43650.41
530.828	43543.91
531.029	44496.22
531.23	43904.35
531.431	44186.97
531.632	44289.37
531.833	44281.18
532.035	44086.62
532.236	44211.55
532.437	44688.73
532.638	44139.87
532.839	44707.16
533.04	44610.9
533.241	44445.02
533.442	45280.59
533.643	44780.88
533.844	44451.16
534.045	45020.5
534.246	44295.52
534.447	44844.37
534.648	44787.03
534.849	44995.92
535.05	44623.19
535.251	44817.75
535.451	44854.61
535.652	44940.63
535.853	44930.39
536.054	44830.04
536.255	45043.02
536.456	44766.55
536.657	45317.45
536.857	44911.95
537.058	44186.97
537.259	45399.37
537.46	45419.85
537.66	44688.73
537.861	44756.31
538.062	44920.15
538.263	45098.32
538.463	45143.38
538.664	45290.83
538.865	45133.14
539.065	45303.12
539.266	44455.26
539.466	45055.31
539.667	44432.73
539.868	45602.12
540.068	44909.91
540.269	44821.84
540.469	45270.35
540.67	44729.69
540.87	44881.24
541.071	45149.52
541.271	45116.75
541.472	44942.67
541.672	44660.05
541.873	44510.55
542.073	44537.18
542.274	45403.47
542.474	44762.45
542.675	44551.51
542.875	44938.58
543.075	44453.21
543.276	44332.38
543.476	44997.97
543.676	44584.28
543.877	44866.9
544.077	44969.3
544.277	44918.1
544.478	44504.41
544.678	44592.47
544.878	44871
545.078	44635.48
545.279	44383.58
545.479	44615
545.679	44879.19
545.879	44709.21
546.079	45057.36
546.28	44911.95
546.48	44060
546.68	44662.1
546.88	44834.13
547.08	44592.47
547.28	44254.56
547.48	44023.14
547.68	44545.37
547.88	44162.4
548.081	45018.45
548.281	44379.48
548.481	44225.89
548.681	45024.59
548.881	44682.58
549.081	44893.52
549.28	44420.44
549.48	44868.95
549.68	44369.24
549.88	44713.3
550.08	44408.15
550.28	44428.63
550.48	44426.59
550.68	44662.1
550.88	44107.1
551.08	44531.03
551.279	44612.95
551.479	44096.86
551.679	44631.38
551.879	44215.65
552.079	44430.68
552.278	44146.01
552.478	44166.49
552.678	44371.29
552.878	44719.45
553.077	44103.01
553.277	43871.59
553.477	44703.06
553.676	44189.02
553.876	44641.62
554.076	44125.53
554.275	43906.4
554.475	43789.67
554.674	44125.53
554.874	44236.12
555.074	43734.37
555.273	43853.15
555.473	43892.07
555.672	43672.93
555.872	43863.39
556.071	43801.96
556.271	43912.55
556.47	43715.94
556.67	43160.94
556.869	43609.45
557.068	43451.75
557.268	43644.26
557.467	43451.75
557.667	43631.97
557.866	43265.39
558.065	43373.93
558.265	43261.29
558.464	43337.07
558.663	43875.68
558.863	42831.22
559.062	43570.54
559.261	42808.69
559.461	43406.7
559.66	42667.38
559.859	43103.6
560.058	42964.34
560.258	43042.16
560.457	42384.76
560.656	43126.13
560.855	42749.3
561.054	43158.89
561.253	42562.93
561.453	42700.15
561.652	42624.37
561.851	43179.37
562.05	42476.92
562.249	42198.4
562.448	42849.65
562.647	42093.95
562.846	42415.48
563.045	42728.82
563.244	41977.22
563.443	42102.14
563.642	41577.86
563.841	41915.78
564.04	41758.08
564.239	42222.97
564.438	41528.71
564.637	42042.75
564.836	41667.97
565.035	41182.6
565.234	41919.87
565.432	41454.98
565.631	40977.81
565.83	41665.92
566.029	41137.55
566.228	41153.93
566.427	40928.66
566.625	40998.29
566.824	40717.71
567.023	41362.82
567.222	40711.57
567.42	41278.86
567.619	40897.94
567.818	40607.12
568.016	40443.29
568.215	40623.51
568.414	40779.15
568.612	40781.2
568.811	40185.24
569.01	40152.48
569.208	39882.14
569.407	40463.77
569.605	39611.81
569.804	40322.46
570.002	39577
570.201	40398.23
570.4	39472.55
570.598	39441.83
570.797	39224.75
570.995	39654.82
571.193	39003.56
571.392	39638.44
571.59	39454.12
571.789	39161.26
571.987	39308.71
572.186	39067.05
572.384	39194.03
572.582	38983.09
572.781	38938.03
572.979	38112.7
573.177	38585.78
573.376	38589.88
573.574	38020.54
573.772	38833.58
573.971	38188.47
574.169	38041.02
574.367	37946.81
574.565	38010.3
574.763	37766.59
574.962	38174.14
575.16	37363.14
575.358	37918.14
575.556	37123.53
575.754	38034.88
575.952	37080.52
576.151	37705.15
576.349	36947.4
576.547	36750.8
576.745	37176.78
576.943	37072.33
577.141	36799.95
577.339	36736.46
577.537	36406.74
577.735	36574.67
577.933	36324.82
578.131	36421.08
578.329	36232.66
578.527	36103.64
578.725	36320.73
578.923	36210.14
579.121	36062.68
579.319	35614.18
579.516	35925.47
579.714	35761.63
579.912	35612.13
580.11	35421.67
580.308	35759.58
580.506	35401.19
580.704	34649.58
580.901	35241.45
581.099	35493.35
581.297	35005.93
581.495	35108.33
581.692	34647.54
581.89	34631.15
582.088	34776.56
582.285	34442.74
582.483	34475.51
582.681	34565.62
582.878	34336.24
583.076	33971.71
583.274	34498.03
583.471	33959.42
583.669	34092.54
583.866	33764.86
584.064	34100.73
584.262	33424.9
584.459	33857.02
584.657	33482.24
584.854	33687.04
585.052	32947.72
585.249	33480.19
585.447	33510.91
585.644	32857.61
585.841	33148.42
586.039	33082.89
586.236	32701.97
586.434	33345.03
586.631	32605.71
586.828	32960.01
587.026	32429.59
587.223	32405.01
587.42	31913.5
587.618	32478.74
587.815	32079.38
588.012	31907.35
588.21	31772.19
588.407	32103.96
588.604	31551.01
588.801	31649.31
588.999	31501.86
589.196	31690.27
589.393	31532.57
589.59	31209
589.787	31127.08
589.984	31280.67
590.182	31018.53
590.379	31176.23
590.576	30893.61
590.773	30926.38
590.97	30606.89
591.167	30623.28
591.364	30387.76
591.561	30506.54
591.758	30115.38
591.955	30379.57
592.152	30651.95
592.349	30064.18
592.546	30170.68
592.743	29965.88
592.94	29615.68
593.137	29945.4
593.334	29804.09
593.531	29353.54
593.727	30010.93
593.924	29822.52
594.121	28950.09
594.318	29476.41
594.515	29029.96
594.712	29789.75
594.908	28972.61
595.105	28956.23
595.302	28845.64
595.499	28984.9
595.696	28890.7
595.892	28673.61
596.089	28456.53
596.286	28565.07
596.482	28235.35
596.679	28134.99
596.876	28477.01
597.072	28073.56
597.269	28257.87
597.466	28239.44
597.662	27944.53
597.859	27895.38
598.055	27711.07
598.252	27588.19
598.448	27838.04
598.645	27291.23
598.841	27129.44
599.038	27532.89
599.234	27614.81
599.431	27242.08
599.627	26930.79
599.824	27205.22
600.02	26752.62
600.217	27006.56
600.413	26629.74
600.609	26723.94
600.806	26504.81
601.002	26818.15
601.198	26429.04
601.395	26310.25
601.591	26179.18
601.787	26459.76
601.984	26189.42
602.18	26490.48
602.376	25958
602.572	25964.15
602.769	25697.91
602.965	25775.73
603.161	25906.8
603.357	25671.29
603.553	25456.25
603.75	25677.43
603.946	25319.04
604.142	25685.62
604.338	24788.61
604.534	25271.93
604.73	24852.1
604.926	25073.28
605.122	24966.79
605.318	24895.11
605.514	24893.06
605.71	24645.26
605.906	24532.62
606.102	24458.89
606.298	24567.43
606.494	24694.41
606.69	24161.94
606.886	24561.29
607.082	24073.87
607.278	24311.44
607.474	23977.62
607.67	24385.16
607.866	23596.7
608.062	24071.82
608.257	23744.15
608.453	23873.17
608.649	23584.41
608.845	23473.82
609.041	23375.52
609.236	23682.71
609.432	23707.29
609.628	23606.94
609.824	23647.9
610.019	23334.56
610.215	23299.74
610.411	23326.36
610.606	23346.84
610.802	23242.4
610.998	22869.67
611.193	22931.11
611.389	22742.69
611.584	22638.25
611.78	22675.11
611.976	22550.18
612.171	23375.52
612.367	22838.95
612.562	22779.56
612.758	22308.52
612.953	22507.18
613.149	22775.46
613.344	22531.75
613.539	22970.02
613.735	22476.46
613.93	22343.34
614.126	22025.9
614.321	22439.59
614.517	22380.2
614.712	22095.53
614.907	21966.51
615.103	22187.69
615.298	21878.45
615.493	21958.32
615.688	21763.76
615.884	22027.95
616.079	21741.24
616.274	21817.01
616.47	21718.71
616.665	21817.01
616.86	21677.75
617.055	21522.1
617.25	21288.64
617.445	21796.53
617.641	21272.25
617.836	21405.37
618.031	21143.23
618.226	21362.36
618.421	21290.68
618.616	21286.59
618.811	20829.89
619.006	21362.36
619.201	20543.17
619.396	20872.9
619.591	20731.59
619.786	20487.88
619.981	20051.66
620.176	20633.29
620.371	20051.66
620.566	20242.12
620.761	20168.4
620.956	20281.03
621.151	19943.12
621.346	19961.55
621.541	19519.19
621.735	20022.99
621.93	19390.17
622.125	19785.43
622.32	19218.14
622.515	19388.12
622.709	19261.15
622.904	19283.67
623.099	18912.99
623.294	19060.45
623.488	18900.7
623.683	18556.64
623.878	18403.05
624.072	18454.25
624.267	18665.19
624.462	18337.51
624.656	17811.18
624.851	18138.86
625.046	17962.73
625.24	17886.96
625.435	17813.23
625.629	17614.58
625.824	17536.76
626.018	17620.72
626.213	17284.86
626.407	17387.25
626.602	17200.89
626.796	17178.36
626.991	17071.87
627.185	16901.89
627.38	16887.55
627.574	16707.33
627.768	16623.36
627.963	16619.27
628.157	16457.48
628.352	16516.87
628.546	16252.68
628.74	16496.39
628.935	16082.7
629.129	16303.88
629.323	15963.92
629.517	16013.07
629.712	16039.69
629.906	15652.63
630.1	15597.33
630.294	15507.22
630.489	15605.52
630.683	15492.88
630.877	14956.32
631.071	15288.09
631.265	15165.21
631.459	15079.19
631.653	14673.7
631.848	14991.13
632.042	14874.4
632.236	14755.61
632.43	14761.76
632.624	14817.05
632.818	14571.3
633.012	14235.43
633.206	14317.35
633.4	14423.84
633.594	14210.86
633.788	14102.31
633.982	14051.11
634.176	14083.88
634.369	13954.86
634.563	13993.77
634.757	13870.89
634.951	13774.64
635.145	13866.8
635.339	13637.42
635.533	13674.29
635.726	13393.72
635.92	13143.86
636.114	13190.97
636.308	13158.2
636.501	13311.8
636.695	13354.8
636.889	13131.58
637.083	13154.1
637.276	12844.86
637.47	12904.25
637.664	12783.42
637.857	12859.2
638.051	12803.9
638.244	12599.1
638.438	12461.89
638.632	12451.65
638.825	12164.93
639.019	12166.98
639.212	12267.33
639.406	11980.62
639.599	12091.21
639.793	12035.91
639.986	11839.31
640.18	11761.48
640.373	11765.58
640.567	11585.36
640.76	11657.04
640.954	11802.44
641.147	11517.78
641.34	11562.83
641.534	11401.04
641.727	11386.71
641.92	11476.82
642.114	11179.86
642.307	11099.99
642.5	11036.5
642.694	11009.88
642.887	10985.3
643.08	10905.43
643.273	10862.43
643.467	10942.3
643.66	10762.08
643.853	10692.44
644.046	10700.64
644.239	10385.25
644.432	10579.81
644.626	10282.85
644.819	10276.71
645.012	10241.89
645.205	10313.57
645.398	10182.5
645.591	10164.07
645.784	10084.2
645.977	9916.26
646.17	10057.57
646.363	9934.7
646.556	9717.61
646.749	9854.83
646.942	9949.03
647.135	9846.63
647.328	9607.02
647.521	9611.12
647.714	9389.94
647.907	9371.5
648.099	9432.94
648.292	9312.11
648.485	9344.88
648.678	9140.08
648.871	9207.67
649.064	8896.38
649.256	9326.45
649.449	8888.18
649.642	8968.06
649.835	8757.11
650.027	8781.69
650.22	8992.63
650.413	8632.19
650.605	8630.14
650.798	8630.14
650.991	8609.66
651.183	8621.95
651.376	8331.14
651.568	8439.68
651.761	8435.58
651.954	8312.71
652.146	8435.58
652.339	8191.88
652.531	8210.31
652.724	8238.98
652.916	7980.93
653.109	7966.6
653.301	8118.15
653.494	8128.39
653.686	7774.09
653.879	8083.33
654.071	7847.82
654.263	7657.36
654.456	7788.43
654.648	7643.02
654.84	7487.37
655.033	7606.16
655.225	7427.98
655.417	7475.09
655.61	7585.68
655.802	7593.87
655.994	7509.9
656.186	7268.24
656.379	7214.99
656.571	7309.2
656.763	7419.79
656.955	7235.47
657.148	7122.84
657.34	7165.84
657.532	6893.46
657.724	6905.75
657.916	7071.64
658.108	6999.96
658.3	6934.42
658.492	6756.25
658.684	6870.94
658.876	6657.95
659.068	6684.57
659.26	6633.37
659.452	6766.49
659.644	6602.65
659.836	6477.73
660.028	6578.08
660.22	6502.3
660.412	6338.46
660.604	6371.23
660.796	6487.97
660.988	6313.89
661.18	6078.37
661.372	6277.02
661.563	6424.48
661.755	6172.58
661.947	6070.18
662.139	6006.69
662.331	5912.49
662.522	6018.98
662.714	6092.71
662.906	6014.88
663.097	5744.55
663.289	5832.61
663.481	5805.99
663.673	5838.76
663.864	5668.78
664.056	5699.5
664.247	5537.71
664.439	5568.43
664.631	5775.27
664.822	5703.59
665.014	5525.42
665.205	5437.36
665.397	5474.22
665.588	5380.01
665.78	5388.21
665.971	5228.46
666.163	5359.53
666.354	5154.74
666.546	5226.42
666.737	5314.48
666.929	5265.33
667.12	5191.6
667.311	5179.31
667.503	5132.21
667.694	4933.56
667.885	5025.72
668.077	5019.57
668.268	4949.94
668.459	5019.57
668.651	4986.8
668.842	4722.62
669.033	4888.5
669.224	4726.71
669.416	4904.89
669.607	4859.83
669.798	4769.72
669.989	4800.44
670.18	4716.47
670.371	4859.83
670.563	4622.27
670.754	4704.18
670.945	4562.87
671.136	4601.79
671.327	4487.1
671.518	4474.81
671.709	4601.79
671.9	4532.15
672.091	4423.61
672.282	4470.72
672.473	4376.51
672.664	4360.13
672.855	4415.42
673.046	4360.13
673.237	4501.44
673.428	4417.47
673.619	4319.17
673.809	4208.58
674	4267.97
674.191	4366.27
674.382	4040.64
674.573	4255.68
674.764	4145.09
674.954	4243.39
675.145	4022.21
675.336	4083.65
675.527	4200.38
675.717	4202.43
675.908	4128.7
676.099	4120.51
676.289	4003.78
676.48	4052.93
676.671	3950.53
676.861	4044.74
677.052	3930.05
677.243	3905.48
677.433	3958.72
677.624	3934.15
677.814	4024.26
678.005	3919.81
678.195	4079.55
678.386	3833.8
678.576	3848.13
678.767	3790.79
678.957	3839.94
679.148	3866.56
679.338	3921.86
679.529	3895.24
679.719	3895.24
679.909	3952.58
680.1	3925.96
680.29	3782.6
680.481	3850.18
680.671	3827.65
680.861	3850.18
681.052	3784.65
681.242	3782.6
681.432	3674.06
681.622	3774.41
681.813	3727.3
682.003	3768.26
682.193	3710.92
682.383	3700.68
682.573	3710.92
682.764	3672.01
682.954	3694.54
683.144	3741.64
683.334	3585.99
683.524	3758.02
683.714	3610.57
683.904	3692.49
684.094	3620.81
684.284	3659.72
684.474	3698.63
684.664	3645.38
684.854	3585.99
685.044	3522.51
685.234	3553.23
685.424	3708.87
685.614	3577.8
685.804	3561.42
685.994	3475.4
686.184	3590.09
686.374	3563.47
686.564	3499.98
686.753	3459.02
686.943	3383.24
687.133	3471.31
687.323	3438.54
687.513	3469.26
687.702	3424.2
687.892	3465.16
688.082	3463.12
688.272	3399.63
688.461	3446.73
688.651	3549.13
688.841	3323.85
689.03	3407.82
689.22	3495.88
689.41	3344.33
689.599	3338.19
689.789	3272.65
689.979	3248.08
690.168	3274.7
690.358	3327.95
690.547	3170.26
690.737	3303.37
690.926	3198.93
691.116	3241.93
691.305	3280.85
691.495	3284.94
691.684	3260.37
691.874	3315.66
692.063	3250.13
692.252	3231.69
692.442	3219.41
692.631	3200.98
692.82	3188.69
693.01	3106.77
693.199	3258.32
693.388	3203.02
693.578	3131.34
693.767	3143.63
693.956	3219.41
694.146	3219.41
694.335	3104.72
694.524	3100.62
694.713	3168.21
694.902	2957.27
695.092	3108.82
695.281	3045.33
695.47	3000.27
695.659	2967.51
695.848	3041.23
696.037	3047.38
696.226	3012.56
696.415	2983.89
696.604	2951.12
696.793	3094.48
696.982	3014.61
697.171	2987.99
697.36	2906.07
697.549	2965.46
697.738	3000.27
697.927	2832.34
698.116	2930.64
698.305	3033.04
698.494	2906.07
698.683	3010.51
698.872	2906.07
699.061	2834.39
699.25	2895.83
699.438	2818
699.627	2889.68
699.816	2881.49
700.005	2977.75
700.193	2807.77
700.382	2826.2
700.571	2934.74
700.76	2752.47
700.948	2953.17
701.137	2906.07
701.326	2803.67
701.514	2797.53
701.703	2811.86
701.892	2744.28
702.08	2881.49
702.269	2668.5
702.457	2752.47
702.646	2701.27
702.834	2758.61
703.023	2629.59
703.212	2777.05
703.4	2820.05
703.589	2578.39
703.777	2783.19
703.965	2662.36
704.154	2592.73
704.342	2602.97
704.531	2621.4
704.719	2594.78
704.907	2684.89
705.096	2684.89
705.284	2674.65
705.472	2576.34
705.661	2625.5
705.849	2754.52
706.037	2580.44
706.226	2619.35
706.414	2586.58
706.602	2514.91
706.79	2648.02
706.979	2584.54
707.167	2611.16
707.355	2482.14
707.543	2521.05
707.731	2605.02
707.919	2582.49
708.107	2586.58
708.296	2543.58
708.484	2471.9
708.672	2557.91
708.86	2562.01
709.048	2506.71
709.236	2492.38
709.424	2461.66
709.612	2531.29
709.8	2521.05
709.988	2498.52
710.176	2377.69
710.364	2504.67
710.551	2422.75
710.739	2416.6
710.927	2357.21
711.115	2396.12
711.303	2469.85
711.491	2519
711.679	2500.57
711.866	2398.17
712.054	2521.05
712.242	2445.27
712.43	2392.03
712.617	2279.39
712.805	2447.32
712.993	2349.02
713.181	2291.68
713.368	2308.06
713.556	2377.69
713.744	2336.73
713.931	2463.71
714.119	2410.46
714.306	2340.83
714.494	2349.02
714.682	2293.72
714.869	2369.5
715.057	2392.03
715.244	2275.29
715.432	2424.8
715.619	2254.81
715.807	2226.14
715.994	2275.29
716.182	2318.3
716.369	2220
716.556	2301.92
716.744	2269.15
716.931	2289.63
717.119	2367.45
717.306	2269.15
717.493	2156.51
717.681	2197.47
717.868	2267.1
718.055	2228.19
718.242	2258.91
718.43	2189.28
718.617	2226.14
718.804	2246.62
718.991	2222.05
719.179	2207.71
719.366	2279.39
719.553	2201.57
719.74	2041.82
719.927	2078.69
720.114	2082.78
720.301	2072.54
720.488	2086.88
720.676	2123.74
720.863	2058.21
721.05	2226.14
721.237	2193.37
721.424	2140.13
721.611	2187.23
721.798	2054.11
721.985	2146.27
722.172	2152.42
722.358	2138.08
722.545	2131.94
722.732	2039.78
722.919	2115.55
723.106	2097.12
723.293	2152.42
723.48	2160.61
723.667	1937.38
723.853	1988.58
724.04	2025.44
724.227	2011.11
724.414	2041.82
724.6	1998.82
724.787	2062.3
724.974	2150.37
725.161	1964
725.347	2070.5
725.534	2043.87
725.72	1972.19
725.907	1898.47
726.094	2000.87
726.28	2033.63
726.467	1898.47
726.653	2062.3
726.84	2017.25
727.027	1988.58
727.213	2025.44
727.4	1982.43
727.586	1972.19
727.773	2097.12
727.959	1923.04
728.145	1927.14
728.332	2056.16
728.518	1982.43
728.705	1941.47
728.891	1982.43
729.077	1914.85
729.264	1916.9
729.45	1853.41
729.636	2095.07
729.823	1964
730.009	1931.23
730.195	1959.91
730.382	1898.47
730.568	1945.57
730.754	1941.47
730.94	1906.66
731.126	2017.25
731.313	2033.63
731.499	1832.93
731.685	1877.99
731.871	1896.42
732.057	1804.26
732.243	1900.52
732.429	1802.21
732.615	1808.36
732.801	1920.99
732.987	1884.13
733.173	1933.28
733.359	1923.04
733.545	1845.22
733.731	1855.46
733.917	1884.13
734.103	1857.51
734.289	1843.17
734.475	1882.08
734.661	1861.6
734.847	1851.36
735.033	1783.78
735.219	1916.9
735.404	1718.25
735.59	1695.72
735.776	1738.73
735.962	1828.84
736.148	1931.23
736.333	1824.74
736.519	1767.4
736.705	1804.26
736.89	1771.49
737.076	1699.81
737.262	1759.21
737.447	1705.96
737.633	1773.54
737.819	1800.16
738.004	1748.97
738.19	1681.38
738.375	1746.92
738.561	1783.78
738.747	1742.82
738.932	1767.4
739.118	1791.97
739.303	1738.73
739.489	1767.4
739.674	1820.64
739.859	1759.21
740.045	1730.53
740.23	1726.44
740.416	1632.23
740.601	1701.86
740.786	1710.05
740.972	1554.41
741.157	1701.86
741.342	1621.99
741.528	1644.52
741.713	1712.1
741.898	1628.14
742.084	1691.62
742.269	1634.28
742.454	1619.94
742.639	1728.49
742.824	1550.31
743.01	1722.34
743.195	1605.61
743.38	1677.29
743.565	1570.79
743.75	1529.83
743.935	1540.07
744.12	1578.98
744.305	1562.6
744.49	1466.35
744.675	1546.22
744.86	1484.78
745.045	1527.78
745.23	1509.35
745.415	1490.92
745.6	1423.34
745.785	1423.34
745.97	1595.37
746.155	1480.68
746.34	1470.44
746.525	1415.15
746.71	1460.2
746.895	1482.73
747.079	1400.81
747.264	1427.43
747.449	1404.91
747.634	1382.38
747.819	1466.35
748.003	1402.86
748.188	1425.39
748.373	1386.47
748.557	1449.96
748.742	1398.76
748.927	1325.04
749.111	1351.66
749.296	1341.42
749.481	1302.51
749.665	1277.93
749.85	1277.93
750.034	1271.79
750.219	1318.89
750.404	1267.69
750.588	1230.83
750.773	1230.83
750.957	1284.08
751.141	1290.22
751.326	1298.41
751.51	1183.73
751.695	1114.1
751.879	1271.79
752.064	1228.78
752.248	1206.25
752.432	1177.58
752.617	1202.16
752.801	1206.25
752.985	1128.43
753.17	1144.81
753.354	1208.3
753.538	1120.24
753.722	1153.01
753.907	1210.35
754.091	1095.66
754.275	1122.29
754.459	1087.47
754.643	1118.19
754.828	1150.96
755.012	1171.44
755.196	1046.51
755.38	1202.16
755.564	1026.03
755.748	1032.18
755.932	1056.75
756.116	1030.13
756.3	1136.62
756.484	1150.96
756.668	1021.94
756.852	1122.29
757.036	1034.22
757.22	1023.98
757.404	927.73
757.588	972.79
757.772	1013.74
757.956	862.19
758.14	964.59
758.323	919.54
758.507	917.49
758.691	864.24
758.875	954.35
759.059	1040.37
759.242	948.21
759.426	995.31
759.61	903.15
759.794	907.25
759.977	1009.65
760.161	890.87
760.345	925.68
760.528	876.53
760.712	897.01
760.895	927.73
761.079	868.34
761.263	796.66
761.446	851.96
761.63	935.92
761.813	894.96
761.997	843.76
762.18	792.56
762.364	858.1
762.547	854
762.731	882.67
762.914	942.07
763.098	784.37
763.281	800.76
763.464	827.38
763.648	833.52
763.831	817.14
764.015	837.62
764.198	761.84
764.381	767.99
764.564	817.14
764.748	784.37
764.931	851.96
765.114	743.41
765.297	811
765.481	800.76
765.664	739.32
765.847	731.12
766.03	821.24
766.213	737.27
766.397	825.33
766.58	776.18
766.763	796.66
766.946	792.56
767.129	770.04
767.312	792.56
767.495	737.27
767.678	712.69
767.861	792.56
768.044	823.28
768.227	786.42
768.41	770.04
768.593	753.65
768.776	731.12
768.959	741.36
769.142	753.65
769.324	702.45
769.507	710.65
769.69	665.59
769.873	690.17
770.056	776.18
770.239	649.21
770.421	704.5
770.604	638.97
770.787	661.49
770.97	712.69
771.152	690.17
771.335	643.06
771.518	731.12
771.7	800.76
771.883	770.04
772.066	630.77
772.248	665.59
772.431	645.11
772.613	647.16
772.796	550.9
772.978	694.26
773.161	753.65
773.343	657.4
773.526	655.35
773.708	614.39
773.891	550.9
774.073	622.58
774.256	628.73
774.438	694.26
774.621	608.25
774.803	622.58
774.985	524.28
775.168	645.11
775.35	604.15
775.532	688.12
775.715	532.47
775.897	589.81
776.079	522.23
776.261	661.49
776.444	563.19
776.626	604.15
776.808	589.81
776.99	585.72
777.173	614.39
777.355	540.66
777.537	565.24
777.719	563.19
777.901	575.48
778.083	585.72
778.265	503.8
778.447	548.86
778.629	514.04
778.811	505.85
778.993	526.33
779.175	555
779.357	583.67
779.539	491.51
779.721	507.9
779.903	436.22
780.085	524.28
780.267	514.04
780.449	497.66
780.631	489.46
780.812	460.79
780.994	516.09
781.176	458.75
781.358	464.89
781.54	464.89
781.721	409.59
781.903	456.7
782.085	448.51
782.267	466.94
782.448	409.59
782.63	417.79
782.812	497.66
782.993	409.59
783.175	458.75
783.357	460.79
783.538	428.03
783.72	366.59
783.901	393.21
784.083	399.35
784.264	462.84
784.446	464.89
784.627	409.59
784.809	436.22
784.99	409.59
785.172	391.16
785.353	389.11
785.535	321.53
785.716	395.26
785.897	385.02
786.079	313.34
786.26	409.59
786.441	425.98
786.623	329.72
786.804	309.24
786.985	382.97
787.167	405.5
787.348	335.87
787.529	317.44
787.71	407.55
787.891	333.82
788.073	401.4
788.254	356.35
788.435	329.72
788.616	370.68
788.797	266.24
788.978	360.44
789.159	382.97
789.34	342.01
789.522	323.58
789.703	352.25
789.884	270.33
790.065	352.25
790.246	337.91
790.427	237.56
790.607	382.97
790.788	284.67
790.969	294.91
791.15	292.86
791.331	268.28
791.512	245.76
791.693	260.09
791.874	251.9
792.054	342.01
792.235	237.56
792.416	219.13
792.597	346.11
792.778	247.8
792.958	333.82
793.139	325.63
793.32	233.47
793.5	206.84
793.681	260.09
793.862	288.76
794.042	235.52
794.223	247.8
794.404	313.34
794.584	172.03
794.765	239.61
794.945	237.56
795.126	301.05
795.306	305.15
795.487	309.24
795.667	272.38
795.848	270.33
796.028	243.71
796.209	270.33
796.389	274.43
796.57	157.69
796.75	137.21
796.93	256
797.111	182.27
797.291	223.23
797.471	247.8
797.652	237.56
797.832	215.04
798.012	219.13
798.192	268.28
798.373	169.98
798.553	176.13
798.733	276.48
798.913	245.76
799.093	169.98
799.274	290.81
799.454	169.98
799.634	223.23
799.814	204.8
799.994	290.81
800.174	251.9
800.354	219.13
800.534	153.6
800.714	174.08
800.894	120.83
801.074	196.61
801.254	217.08
801.434	161.79
801.614	155.65
801.794	149.5
801.974	743.41
802.154	210.94
802.334	245.76
802.514	73.73
802.693	137.21
802.873	137.21
803.053	165.89
803.233	153.6
803.413	245.76
803.592	190.46
803.772	53.25
803.952	155.65
804.131	172.03
804.311	190.46
804.491	215.04
804.67	163.84
804.85	120.83
805.03	178.17
805.209	137.21
805.389	114.69
805.568	215.04
805.748	163.84
805.928	186.37
806.107	247.8
806.287	178.17
806.466	104.45
806.646	116.73
806.825	155.65
807.004	165.89
807.184	161.79
807.363	71.68
807.543	131.07
807.722	116.73
807.901	243.71
808.081	163.84
808.26	180.22
808.439	147.45
808.619	145.41
808.798	206.84
808.977	149.5
809.156	155.65
809.336	165.89
809.515	178.17
809.694	75.77
809.873	172.03
810.052	122.88
810.231	153.6
810.411	163.84
810.59	116.73
810.769	149.5
810.948	81.92
811.127	65.54
811.306	147.45
811.485	135.17
811.664	137.21
811.843	88.06
812.022	92.16
812.201	100.35
812.38	114.69
812.559	79.87
812.737	149.5
812.916	45.06
813.095	63.49
813.274	157.69
813.453	51.2
813.632	112.64
813.811	88.06
813.989	20.48
814.168	124.93
814.347	63.49
814.526	176.13
814.704	178.17
814.883	100.35
815.062	96.25
815.24	118.78
815.419	137.21
815.598	145.41
815.776	16.38
815.955	153.6
816.133	100.35
816.312	71.68
816.49	139.26
816.669	200.7
816.847	38.91
817.026	112.64
817.204	79.87
817.383	55.3
817.561	67.58
817.74	96.25
817.918	98.3
818.097	34.82
818.275	108.54
818.453	96.25
818.632	155.65
818.81	67.58
818.988	122.88
819.167	67.58
819.345	10.24
819.523	14.34
819.701	22.53
819.879	79.87
820.058	139.26
820.236	92.16
820.414	116.73
820.592	161.79
820.77	69.63
820.948	36.86
821.127	79.87
821.305	116.73
821.483	8.19
821.661	139.26
821.839	96.25
822.017	61.44
822.195	124.93
822.373	65.54
822.551	122.88
822.729	55.3
822.907	65.54
823.085	73.73
823.262	18.43
823.44	88.06
823.618	141.31
823.796	-2.05
823.974	38.91
824.152	-10.24
824.329	26.62
824.507	47.1
824.685	47.1
824.863	106.49
825.04	110.59
825.218	104.45
825.396	38.91
825.574	92.16
825.751	32.77
825.929	34.82
826.107	-18.43
826.284	59.39
826.462	126.97
826.639	38.91
826.817	10.24
826.994	88.06
827.172	-10.24
827.349	110.59
827.527	34.82
827.704	98.3
827.882	59.39
828.059	69.63
828.237	-4.1
828.414	51.2
828.591	40.96
828.769	73.73
828.946	47.1
829.124	61.44
829.301	81.92
829.478	6.14
829.655	16.38
829.833	71.68
830.01	6.14
830.187	24.58
830.364	40.96
830.542	106.49
830.719	83.97
830.896	104.45
831.073	67.58
831.25	137.21
831.427	96.25
831.604	57.34
831.782	47.1
831.959	141.31
832.136	65.54
832.313	32.77
832.49	69.63
832.667	96.25
832.844	22.53
833.021	108.54
833.198	79.87
833.374	86.01
833.551	4.1
833.728	114.69
833.905	55.3
834.082	24.58
834.259	55.3
834.436	32.77
834.612	18.43
834.789	14.34
834.966	14.34
835.143	14.34
835.319	-2.05
835.496	10.24
835.673	63.49
835.85	57.34
836.026	57.34
836.203	32.77
836.38	30.72
836.556	38.91
836.733	-14.34
836.909	81.92
837.086	18.43
837.262	-51.2
837.439	65.54
837.616	71.68
837.792	47.1
837.968	2.05
838.145	26.62
838.321	6.14
838.498	28.67
838.674	67.58
838.851	69.63
839.027	32.77
839.203	0
839.38	22.53
839.556	34.82
839.732	114.69
839.909	8.19
840.085	79.87
840.261	65.54
840.437	34.82
840.614	36.86
840.79	22.53
840.966	18.43
841.142	45.06
841.318	57.34
841.494	14.34
841.671	98.3
841.847	-34.82
842.023	6.14
842.199	-32.77
842.375	124.93
842.551	55.3
842.727	-65.54
842.903	65.54
843.079	8.19
843.255	79.87
843.431	65.54
843.607	26.62
843.783	-18.43
843.959	110.59
844.134	8.19
844.31	90.11
844.486	18.43
844.662	55.3
844.838	45.06
845.013	90.11
845.189	-32.77
845.365	16.38
845.541	57.34
845.716	14.34
845.892	104.45
846.068	-51.2
846.244	-20.48
846.419	43.01
846.595	22.53
846.77	2.05
846.946	24.58
847.122	-10.24
847.297	-26.62
847.473	81.92
847.648	-34.82
847.824	22.53
847.999	6.14
848.175	100.35
848.35	-4.1
848.526	129.02
848.701	36.86
848.876	83.97
849.052	40.96
849.227	51.2
849.403	0
849.578	47.1
849.753	-22.53
849.929	24.58
850.104	18.43
850.279	-10.24
850.454	30.72
850.63	-10.24
850.805	63.49
850.98	47.1
851.155	59.39
851.33	49.15
851.505	18.43
851.681	51.2
851.856	22.53
852.031	47.1
852.206	47.1
852.381	10.24
852.556	-2.05
852.731	30.72
852.906	38.91
853.081	14.34
853.256	49.15
853.431	28.67
853.606	16.38
853.781	14.34
853.956	-40.96
854.131	38.91
854.305	-10.24
854.48	-18.43
854.655	-12.29
854.83	-49.15
855.005	-75.77
855.18	-24.58
855.354	43.01
855.529	26.62
855.704	-75.77
855.879	71.68
856.053	-47.1
856.228	10.24
856.403	4.1
856.577	65.54
856.752	-47.1
856.926	75.77
857.101	-10.24
857.276	14.34
857.45	-6.14
857.625	49.15
857.799	30.72
857.974	16.38
858.148	-49.15
858.323	69.63
858.497	14.34
858.672	55.3
858.846	22.53
859.02	14.34
859.195	40.96
859.369	-45.06
859.543	-4.1
859.718	106.49
859.892	38.91
860.066	38.91
860.241	10.24
860.415	14.34
860.589	43.01
860.763	61.44
860.938	-71.68
861.112	32.77
861.286	-75.77
861.46	-2.05
861.634	14.34
861.808	49.15
861.982	-10.24
862.157	-14.34
862.331	-20.48
862.505	-43.01
862.679	-69.63
862.853	8.19
863.027	-2.05
863.201	79.87
863.375	-65.54
863.549	43.01
863.722	22.53
863.896	51.2
864.07	-43.01
864.244	59.39
864.418	10.24
864.592	51.2
864.766	-8.19
864.939	-14.34
865.113	8.19
865.287	88.06
865.461	4.1
865.634	-59.39
865.808	34.82
865.982	-18.43
866.156	-14.34
866.329	-104.45
866.503	-2.05
866.676	69.63
866.85	67.58
867.024	-98.3
867.197	51.2
867.371	6.14
867.544	12.29
867.718	-32.77
867.891	-18.43
868.065	22.53
868.238	22.53
868.412	22.53
868.585	-8.19
868.759	-40.96
868.932	-18.43
869.105	-75.77
869.279	-18.43
869.452	-55.3
869.625	63.49
869.799	24.58
869.972	-108.54
870.145	-34.82
870.319	55.3
870.492	6.14
870.665	-36.86
870.838	6.14
871.011	-75.77
871.185	-20.48
871.358	18.43
871.531	30.72
871.704	-57.34
871.877	30.72
872.05	-12.29
872.223	-8.19
872.396	34.82
872.569	-10.24
872.742	-22.53
872.915	47.1
873.088	-14.34
873.261	-63.49
873.434	-51.2
873.607	-2.05
873.78	14.34
873.953	-30.72
874.126	-30.72
874.299	-40.96
874.471	-24.58
874.644	-57.34
874.817	24.58
874.99	65.54
875.163	-10.24
875.335	-59.39
875.508	-22.53
875.681	24.58
875.853	-16.38
876.026	-47.1
876.199	-26.62
876.371	6.14
876.544	-75.77
876.717	16.38
876.889	-40.96
877.062	40.96
877.234	-10.24
877.407	-18.43
877.579	14.34
877.752	-55.3
877.924	-30.72
878.097	32.77
878.269	-26.62
878.442	-28.67
878.614	71.68
878.786	-24.58
878.959	28.67
879.131	12.29
879.303	-51.2
879.476	-16.38
879.648	18.43
879.82	-10.24
879.993	-26.62
880.165	-32.77
880.337	-34.82
880.509	34.82
880.681	-34.82
880.854	-65.54
881.026	-14.34
881.198	-2.05
881.37	-90.11
881.542	47.1
881.714	-59.39
881.886	-14.34
882.058	0
882.23	40.96
882.402	-10.24
882.574	-59.39
882.746	75.77
882.918	32.77
883.09	8.19
883.262	-49.15
883.434	-106.49
883.606	0
883.778	-32.77
883.95	-43.01
884.122	-67.58
884.293	8.19
884.465	-14.34
884.637	47.1
884.809	-63.49
884.98	22.53
885.152	30.72
885.324	8.19
885.496	-71.68
885.667	73.73
885.839	-40.96
886.011	10.24
886.182	6.14
886.354	6.14
886.525	-10.24
886.697	-43.01
886.869	-47.1
887.04	18.43
887.212	63.49
887.383	59.39
887.555	18.43
887.726	-2.05
887.897	-8.19
888.069	-40.96
888.24	47.1
888.412	-26.62
888.583	-26.62
888.754	-26.62
888.926	-30.72
889.097	-26.62
889.268	-10.24
889.44	-18.43
889.611	-34.82
889.782	22.53
889.953	-67.58
890.125	47.1
890.296	-49.15
890.467	16.38
890.638	-30.72
890.809	-43.01
890.98	-104.45
891.151	55.3
891.323	24.58
891.494	-6.14
891.665	-24.58
891.836	-63.49
892.007	-83.97
892.178	49.15
892.349	-40.96
892.52	-14.34
892.691	-51.2
892.862	-88.06
893.032	-94.21
893.203	-24.58
893.374	47.1
893.545	0
893.716	-10.24
893.887	14.34
894.057	6.14
894.228	-8.19
894.399	-10.24
894.57	24.58
894.74	-26.62
894.911	-16.38
895.082	-8.19
895.253	-34.82
895.423	-18.43
895.594	6.14
895.764	-40.96
895.935	-59.39
896.106	-6.14
896.276	-30.72
896.447	43.01
896.617	-6.14
896.788	-2.05
896.958	12.29
897.129	16.38
897.299	6.14
897.47	-30.72
897.64	-18.43
897.81	-53.25
897.981	-79.87
898.151	-2.05
898.322	-2.05
898.492	-6.14
898.662	-108.54
898.832	-28.67
899.003	-59.39
899.173	43.01
899.343	-34.82
899.513	26.62
