Data from USB4F104151__286__14-46-25-754.txt Node

Date: Thu Mar 13 14:46:25 EDT 2025
User: louis
Spectrometer: USB4F10415
Trigger mode: 4
Integration Time (sec): 2.000000E-2
Scans to average: 1
Electric dark correction enabled: true
Nonlinearity correction enabled: false
Boxcar width: 0
XAxis mode: Wavelengths
Number of Pixels in Spectrum: 3648
>>>>>Begin Spectral Data<<<<<
178.204	-79.7
178.424	-79.7
178.644	-79.7
178.864	-110.42
179.084	-143.19
179.304	30.89
179.524	-81.75
179.744	10.41
179.964	53.42
180.184	-3.93
180.404	24.75
180.624	-38.74
180.844	47.27
181.064	-116.56
181.283	55.47
181.503	30.89
181.723	-12.12
181.943	6.31
182.163	8.36
182.383	22.7
182.602	10.41
182.822	14.51
183.042	41.13
183.262	-42.84
183.482	63.66
183.701	-91.99
183.921	59.56
184.141	10.41
184.361	65.71
184.58	55.47
184.8	10.41
185.02	39.08
185.239	24.75
185.459	55.47
185.679	39.08
185.898	22.7
186.118	14.51
186.338	-42.84
186.557	-34.64
186.777	22.7
186.997	55.47
187.216	28.84
187.436	57.51
187.655	-1.88
187.875	100.52
188.095	18.6
188.314	14.51
188.534	22.7
188.753	-48.98
188.973	55.47
189.192	75.95
189.412	12.46
189.631	55.47
189.851	39.08
190.07	110.76
190.29	22.7
190.509	24.75
190.729	-34.64
190.948	39.08
191.168	149.67
191.387	39.08
191.607	8.36
191.826	6.31
192.045	-5.97
192.265	30.89
192.484	6.31
192.704	-38.74
192.923	10.41
193.142	131.24
193.362	82.09
193.581	-26.45
193.8	-10.07
194.02	14.51
194.239	63.66
194.458	24.75
194.678	47.27
194.897	22.7
195.116	14.51
195.335	-10.07
195.555	90.28
195.774	98.47
195.993	47.27
196.212	6.31
196.432	-18.26
196.651	22.7
196.87	-18.26
197.089	102.57
197.308	30.89
197.528	28.84
197.747	43.18
197.966	67.75
198.185	34.99
198.404	-14.17
198.623	6.31
198.842	-10.07
199.062	-14.17
199.281	73.9
199.5	16.55
199.719	22.7
199.938	51.37
200.157	18.6
200.376	69.8
200.595	55.47
200.814	22.7
201.033	14.51
201.252	6.31
201.471	-48.98
201.69	30.89
201.909	90.28
202.128	43.18
202.347	86.19
202.566	80.04
202.785	-57.17
203.004	-30.55
203.223	98.47
203.442	96.43
203.661	16.55
203.879	16.55
204.098	63.66
204.317	47.27
204.536	-26.45
204.755	88.23
204.974	71.85
205.193	75.95
205.411	98.47
205.63	67.75
205.849	-24.4
206.068	14.51
206.287	-10.07
206.505	34.99
206.724	22.7
206.943	-42.84
207.162	45.23
207.381	0.17
207.599	6.31
207.818	24.75
208.037	22.7
208.255	-1.88
208.474	-5.97
208.693	16.55
208.911	-1.88
209.13	18.6
209.349	49.32
209.567	49.32
209.786	24.75
210.005	30.89
210.223	61.61
210.442	-10.07
210.661	8.36
210.879	104.62
211.098	-1.88
211.316	18.6
211.535	14.51
211.753	39.08
211.972	51.37
212.191	-10.07
212.409	14.51
212.628	-14.17
212.846	55.47
213.065	28.84
213.283	106.67
213.502	-42.84
213.72	34.99
213.938	-18.26
214.157	-3.93
214.375	-10.07
214.594	71.85
214.812	43.18
215.031	49.32
215.249	-30.55
215.467	14.51
215.686	0.17
215.904	8.36
216.122	-18.26
216.341	51.37
216.559	-34.64
216.778	71.85
216.996	41.13
217.214	-10.07
217.432	22.7
217.651	0.17
217.869	-30.55
218.087	0.17
218.306	18.6
218.524	59.56
218.742	37.03
218.96	28.84
219.179	69.8
219.397	-59.22
219.615	47.27
219.833	65.71
220.051	-18.26
220.27	71.85
220.488	125.1
220.706	24.75
220.924	22.7
221.142	8.36
221.36	-26.45
221.578	-1.88
221.796	34.99
222.015	20.65
222.233	55.47
222.451	67.75
222.669	-65.36
222.887	24.75
223.105	26.79
223.323	-51.03
223.541	-1.88
223.759	65.71
223.977	8.36
224.195	100.52
224.413	32.94
224.631	63.66
224.849	-48.98
225.067	59.56
225.285	22.7
225.503	-30.55
225.721	-18.26
225.939	24.75
226.157	-1.88
226.375	75.95
226.592	16.55
226.81	61.61
227.028	39.08
227.246	39.08
227.464	53.42
227.682	-44.88
227.9	-8.02
228.117	14.51
228.335	18.6
228.553	16.55
228.771	80.04
228.989	41.13
229.206	6.31
229.424	2.22
229.642	2.22
229.86	8.36
230.077	30.89
230.295	37.03
230.513	49.32
230.731	88.23
230.948	-16.21
231.166	-24.4
231.384	30.89
231.601	-32.6
231.819	98.47
232.037	24.75
232.254	22.7
232.472	6.31
232.689	-53.08
232.907	47.27
233.125	24.75
233.342	22.7
233.56	-3.93
233.777	22.7
233.995	39.08
234.213	104.62
234.43	-63.32
234.648	8.36
234.865	-8.02
235.083	45.23
235.3	-100.18
235.518	55.47
235.735	106.67
235.953	63.66
236.17	59.56
236.388	34.99
236.605	108.71
236.822	-5.97
237.04	63.66
237.257	-48.98
237.475	-16.21
237.692	41.13
237.909	51.37
238.127	8.36
238.344	-14.17
238.562	22.7
238.779	-24.4
238.996	-10.07
239.214	26.79
239.431	131.24
239.648	-40.79
239.865	-1.88
240.083	22.7
240.3	26.79
240.517	8.36
240.735	-18.26
240.952	30.89
241.169	106.67
241.386	22.7
241.603	-55.12
241.821	-36.69
242.038	53.42
242.255	43.18
242.472	10.41
242.689	24.75
242.907	88.23
243.124	-5.97
243.341	-3.93
243.558	-38.74
243.775	-22.36
243.992	43.18
244.209	55.47
244.426	22.7
244.643	-10.07
244.86	-22.36
245.078	24.75
245.295	-22.36
245.512	14.51
245.729	-81.75
245.946	14.51
246.163	80.04
246.38	6.31
246.597	-5.97
246.814	100.52
247.031	-16.21
247.248	47.27
247.464	6.31
247.681	2.22
247.898	20.65
248.115	71.85
248.332	-8.02
248.549	67.75
248.766	47.27
248.983	55.47
249.2	43.18
249.417	49.32
249.633	22.7
249.85	57.51
250.067	2.22
250.284	43.18
250.501	18.6
250.717	57.51
250.934	24.75
251.151	73.9
251.368	45.23
251.585	18.6
251.801	4.27
252.018	32.94
252.235	20.65
252.451	0.17
252.668	47.27
252.885	65.71
253.102	71.85
253.318	16.55
253.535	-55.12
253.752	24.75
253.968	34.99
254.185	14.51
254.401	-3.93
254.618	18.6
254.835	22.7
255.051	63.66
255.268	63.66
255.484	71.85
255.701	-24.4
255.917	30.89
256.134	75.95
256.351	24.75
256.567	-5.97
256.784	0.17
257	12.46
257.217	100.52
257.433	47.27
257.65	30.89
257.866	63.66
258.082	30.89
258.299	63.66
258.515	-71.51
258.732	6.31
258.948	-10.07
259.165	30.89
259.381	-32.6
259.597	-14.17
259.814	53.42
260.03	6.31
260.246	10.41
260.463	22.7
260.679	47.27
260.895	-22.36
261.112	-18.26
261.328	-26.45
261.544	0.17
261.761	129.19
261.977	30.89
262.193	-57.17
262.409	41.13
262.626	43.18
262.842	73.9
263.058	-42.84
263.274	73.9
263.49	-18.26
263.707	10.41
263.923	6.31
264.139	4.27
264.355	-1.88
264.571	45.23
264.787	94.38
265.004	112.81
265.22	-10.07
265.436	-24.4
265.652	-34.64
265.868	71.85
266.084	28.84
266.3	51.37
266.516	10.41
266.732	47.27
266.948	24.75
267.164	32.94
267.38	-1.88
267.596	-20.31
267.812	53.42
268.028	51.37
268.244	-26.45
268.46	18.6
268.676	-10.07
268.892	22.7
269.108	28.84
269.324	14.51
269.54	30.89
269.756	16.55
269.972	-12.12
270.188	0.17
270.403	18.6
270.619	12.46
270.835	49.32
271.051	45.23
271.267	18.6
271.483	14.51
271.698	14.51
271.914	47.27
272.13	2.22
272.346	-34.64
272.562	16.55
272.777	51.37
272.993	84.14
273.209	-34.64
273.425	55.47
273.64	-18.26
273.856	-1.88
274.072	80.04
274.287	-30.55
274.503	16.55
274.719	39.08
274.934	14.51
275.15	16.55
275.366	26.79
275.581	-94.04
275.797	24.75
276.012	22.7
276.228	34.99
276.444	-38.74
276.659	77.99
276.875	-96.08
277.09	14.51
277.306	26.79
277.521	82.09
277.737	-89.94
277.952	-24.4
278.168	49.32
278.383	14.51
278.599	34.99
278.814	18.6
279.03	14.51
279.245	43.18
279.461	10.41
279.676	12.46
279.892	20.65
280.107	-57.17
280.322	2.22
280.538	-1.88
280.753	-65.36
280.969	30.89
281.184	-1.88
281.399	-1.88
281.615	-5.97
281.83	41.13
282.045	-34.64
282.26	65.71
282.476	-24.4
282.691	39.08
282.906	-8.02
283.122	-22.36
283.337	6.31
283.552	49.32
283.767	16.55
283.983	67.75
284.198	-34.64
284.413	77.99
284.628	0.17
284.843	14.51
285.058	51.37
285.274	-14.17
285.489	-14.17
285.704	-32.6
285.919	57.51
286.134	22.7
286.349	71.85
286.564	-1.88
286.779	71.85
286.995	51.37
287.21	-40.79
287.425	65.71
287.64	-73.56
287.855	6.31
288.07	-46.93
288.285	30.89
288.5	-22.36
288.715	32.94
288.93	2.22
289.145	-18.26
289.36	49.32
289.575	26.79
289.79	100.52
290.004	-8.02
290.219	75.95
290.434	18.6
290.649	-10.07
290.864	-30.55
291.079	6.31
291.294	32.94
291.509	-42.84
291.724	-16.21
291.938	80.04
292.153	39.08
292.368	2.22
292.583	-3.93
292.798	30.89
293.012	14.51
293.227	26.79
293.442	14.51
293.657	98.47
293.871	80.04
294.086	63.66
294.301	6.31
294.516	39.08
294.73	39.08
294.945	6.31
295.16	16.55
295.374	112.81
295.589	47.27
295.804	-40.79
296.018	57.51
296.233	98.47
296.447	88.23
296.662	14.51
296.877	-16.21
297.091	4.27
297.306	-8.02
297.52	-53.08
297.735	67.75
297.949	10.41
298.164	-3.93
298.378	12.46
298.593	-1.88
298.807	6.31
299.022	-14.17
299.236	43.18
299.451	34.99
299.665	-42.84
299.88	80.04
300.094	32.94
300.309	51.37
300.523	32.94
300.737	-18.26
300.952	75.95
301.166	57.51
301.381	14.51
301.595	32.94
301.809	-51.03
302.024	-34.64
302.238	37.03
302.452	-10.07
302.667	67.75
302.881	80.04
303.095	26.79
303.309	30.89
303.524	51.37
303.738	51.37
303.952	-59.22
304.166	-24.4
304.381	-46.93
304.595	67.75
304.809	-8.02
305.023	28.84
305.237	47.27
305.452	-1.88
305.666	-51.03
305.88	137.38
306.094	16.55
306.308	53.42
306.522	4.27
306.736	121
306.95	41.13
307.164	0.17
307.379	-5.97
307.593	73.9
307.807	-1.88
308.021	34.99
308.235	67.75
308.449	8.36
308.663	2.22
308.877	86.19
309.091	20.65
309.305	94.38
309.519	-22.36
309.733	18.6
309.947	4.27
310.161	86.19
310.374	57.51
310.588	34.99
310.802	22.7
311.016	2.22
311.23	55.47
311.444	10.41
311.658	8.36
311.872	16.55
312.085	57.51
312.299	88.23
312.513	63.66
312.727	84.14
312.941	-32.6
313.154	39.08
313.368	-30.55
313.582	16.55
313.796	39.08
314.009	49.32
314.223	16.55
314.437	65.71
314.651	14.51
314.864	106.67
315.078	6.31
315.292	-18.26
315.505	32.94
315.719	2.22
315.933	10.41
316.146	2.22
316.36	26.79
316.573	82.09
316.787	47.27
317.001	32.94
317.214	14.51
317.428	63.66
317.641	-16.21
317.855	100.52
318.068	16.55
318.282	-48.98
318.495	18.6
318.709	-16.21
318.922	2.22
319.136	98.47
319.349	30.89
319.563	-5.97
319.776	41.13
319.99	30.89
320.203	34.99
320.417	-10.07
320.63	18.6
320.843	26.79
321.057	49.32
321.27	53.42
321.483	-1.88
321.697	18.6
321.91	18.6
322.124	55.47
322.337	-44.88
322.55	55.47
322.763	51.37
322.977	8.36
323.19	82.09
323.403	0.17
323.617	2.22
323.83	18.6
324.043	39.08
324.256	121
324.469	30.89
324.683	71.85
324.896	4.27
325.109	-5.97
325.322	39.08
325.535	18.6
325.748	-10.07
325.962	55.47
326.175	57.51
326.388	-8.02
326.601	39.08
326.814	-18.26
327.027	-42.84
327.24	100.52
327.453	14.51
327.666	47.27
327.879	-53.08
328.092	10.41
328.305	59.56
328.518	24.75
328.731	-40.79
328.944	8.36
329.157	26.79
329.37	16.55
329.583	47.27
329.796	55.47
330.009	10.41
330.222	8.36
330.435	41.13
330.648	-32.6
330.861	24.75
331.073	47.27
331.286	22.7
331.499	73.9
331.712	-1.88
331.925	-8.02
332.138	-10.07
332.35	47.27
332.563	-22.36
332.776	-5.97
332.989	43.18
333.202	14.51
333.414	75.95
333.627	-5.97
333.84	4.27
334.053	63.66
334.265	-38.74
334.478	2.22
334.691	10.41
334.903	-24.4
335.116	30.89
335.329	-8.02
335.541	108.71
335.754	98.47
335.966	22.7
336.179	39.08
336.392	-26.45
336.604	26.79
336.817	30.89
337.029	-57.17
337.242	41.13
337.454	32.94
337.667	-16.21
337.88	51.37
338.092	0.17
338.305	22.7
338.517	30.89
338.729	16.55
338.942	123.05
339.154	8.36
339.367	26.79
339.579	8.36
339.792	8.36
340.004	10.41
340.217	-14.17
340.429	-1.88
340.641	-16.21
340.854	-10.07
341.066	14.51
341.278	137.38
341.491	6.31
341.703	55.47
341.915	71.85
342.128	-28.5
342.34	63.66
342.552	22.7
342.764	59.56
342.977	75.95
343.189	-10.07
343.401	-1.88
343.613	-69.46
343.826	67.75
344.038	22.7
344.25	82.09
344.462	-14.17
344.674	88.23
344.886	18.6
345.099	0.17
345.311	-28.5
345.523	61.61
345.735	-34.64
345.947	32.94
346.159	22.7
346.371	30.89
346.583	34.99
346.795	-1.88
347.007	-67.41
347.219	63.66
347.431	-8.02
347.643	26.79
347.855	67.75
348.067	45.23
348.279	-16.21
348.491	-18.26
348.703	55.47
348.915	71.85
349.127	30.89
349.339	55.47
349.551	39.08
349.763	6.31
349.975	39.08
350.187	65.71
350.399	41.13
350.61	80.04
350.822	-3.93
351.034	10.41
351.246	55.47
351.458	75.95
351.669	65.71
351.881	63.66
352.093	65.71
352.305	63.66
352.517	34.99
352.728	6.31
352.94	-55.12
353.152	37.03
353.363	-67.41
353.575	73.9
353.787	65.71
353.999	80.04
354.21	63.66
354.422	47.27
354.633	18.6
354.845	-18.26
355.057	34.99
355.268	34.99
355.48	96.43
355.692	30.89
355.903	-1.88
356.115	8.36
356.326	-42.84
356.538	63.66
356.749	84.14
356.961	71.85
357.172	10.41
357.384	2.22
357.595	106.67
357.807	0.17
358.018	22.7
358.23	8.36
358.441	88.23
358.653	63.66
358.864	51.37
359.075	14.51
359.287	39.08
359.498	57.51
359.709	37.03
359.921	86.19
360.132	37.03
360.344	2.22
360.555	-5.97
360.766	24.75
360.977	43.18
361.189	24.75
361.4	22.7
361.611	96.43
361.823	112.81
362.034	47.27
362.245	41.13
362.456	43.18
362.667	55.47
362.879	24.75
363.09	24.75
363.301	-51.03
363.512	20.65
363.723	30.89
363.935	55.47
364.146	-18.26
364.357	-1.88
364.568	88.23
364.779	32.94
364.99	39.08
365.201	12.46
365.412	43.18
365.623	-18.26
365.834	55.47
366.045	55.47
366.256	18.6
366.467	16.55
366.678	-8.02
366.889	6.31
367.1	-26.45
367.311	94.38
367.522	12.46
367.733	96.43
367.944	67.75
368.155	22.7
368.366	112.81
368.577	47.27
368.788	10.41
368.999	-5.97
369.209	63.66
369.42	57.51
369.631	88.23
369.842	14.51
370.053	26.79
370.264	80.04
370.474	49.32
370.685	-22.36
370.896	75.95
371.107	59.56
371.317	43.18
371.528	-34.64
371.739	-63.32
371.95	-38.74
372.16	71.85
372.371	18.6
372.582	90.28
372.792	30.89
373.003	20.65
373.214	2.22
373.424	121
373.635	-59.22
373.846	80.04
374.056	-1.88
374.267	-16.21
374.477	-30.55
374.688	39.08
374.898	8.36
375.109	14.51
375.319	-34.64
375.53	77.99
375.74	8.36
375.951	18.6
376.161	67.75
376.372	41.13
376.582	30.89
376.793	51.37
377.003	22.7
377.214	71.85
377.424	-8.02
377.635	-1.88
377.845	-24.4
378.055	22.7
378.266	-36.69
378.476	-10.07
378.686	41.13
378.897	16.55
379.107	14.51
379.317	73.9
379.528	0.17
379.738	57.51
379.948	10.41
380.158	94.38
380.369	30.89
380.579	-8.02
380.789	-14.17
380.999	80.04
381.21	63.66
381.42	96.43
381.63	45.23
381.84	-22.36
382.05	6.31
382.261	39.08
382.471	-44.88
382.681	16.55
382.891	20.65
383.101	28.84
383.311	47.27
383.521	39.08
383.731	116.9
383.941	14.51
384.151	-24.4
384.361	30.89
384.571	-18.26
384.781	63.66
384.991	69.8
385.201	139.43
385.411	69.8
385.621	104.62
385.831	30.89
386.041	41.13
386.251	8.36
386.461	59.56
386.671	71.85
386.881	67.75
387.091	18.6
387.301	63.66
387.511	30.89
387.72	39.08
387.93	61.61
388.14	22.7
388.35	24.75
388.56	26.79
388.769	75.95
388.979	39.08
389.189	94.38
389.399	32.94
389.609	24.75
389.818	82.09
390.028	37.03
390.238	43.18
390.447	28.84
390.657	47.27
390.867	45.23
391.076	63.66
391.286	90.28
391.496	30.89
391.705	57.51
391.915	39.08
392.125	67.75
392.334	34.99
392.544	2.22
392.753	26.79
392.963	6.31
393.172	47.27
393.382	-5.97
393.591	137.38
393.801	-34.64
394.01	125.1
394.22	-3.93
394.429	-38.74
394.639	55.47
394.848	84.14
395.058	114.86
395.267	71.85
395.477	88.23
395.686	102.57
395.895	71.85
396.105	155.82
396.314	30.89
396.524	47.27
396.733	84.14
396.942	116.9
397.152	57.51
397.361	166.06
397.57	53.42
397.78	112.81
397.989	84.14
398.198	63.66
398.407	65.71
398.617	59.56
398.826	77.99
399.035	82.09
399.244	59.56
399.453	39.08
399.663	34.99
399.872	39.08
400.081	45.23
400.29	104.62
400.499	8.36
400.708	145.58
400.917	30.89
401.127	59.56
401.336	47.27
401.545	121
401.754	100.52
401.963	133.29
402.172	30.89
402.381	59.56
402.59	80.04
402.799	82.09
403.008	67.75
403.217	57.51
403.426	80.04
403.635	39.08
403.844	92.33
404.053	104.62
404.262	143.53
404.471	153.77
404.68	63.66
404.888	106.67
405.097	121
405.306	118.95
405.515	98.47
405.724	96.43
405.933	63.66
406.142	57.51
406.35	63.66
406.559	98.47
406.768	88.23
406.977	186.54
407.185	161.96
407.394	112.81
407.603	137.38
407.812	151.72
408.02	221.35
408.229	121
408.438	96.43
408.646	137.38
408.855	190.63
409.064	141.48
409.272	133.29
409.481	213.16
409.69	75.95
409.898	190.63
410.107	182.44
410.315	166.06
410.524	184.49
410.733	178.34
410.941	245.93
411.15	327.85
411.358	264.36
411.567	360.61
411.775	301.22
411.984	276.65
412.192	297.13
412.401	344.23
412.609	264.36
412.818	352.42
413.026	336.04
413.234	385.19
413.443	411.81
413.651	352.42
413.86	401.57
414.068	415.91
414.276	377
414.485	352.42
414.693	381.09
414.901	436.39
415.11	454.82
415.318	555.17
415.526	510.11
415.734	526.5
415.943	467.11
416.151	583.84
416.359	477.35
416.567	610.47
416.776	657.57
416.984	696.48
417.192	759.97
417.4	618.66
417.608	542.88
417.817	671.9
418.025	774.3
418.233	766.11
418.441	811.17
418.649	827.55
418.857	870.56
419.065	792.73
419.273	819.36
419.481	923.8
419.689	954.52
419.897	966.81
420.105	1101.98
420.313	1036.44
420.521	1058.97
420.729	1056.92
420.937	1116.31
421.145	1196.18
421.353	1237.14
421.561	1214.62
421.769	1292.44
421.977	1452.18
422.185	1327.25
422.393	1443.99
422.601	1579.15
422.809	1448.08
423.017	1443.99
423.224	1646.74
423.432	1708.18
423.64	1626.26
423.848	1896.59
424.056	1816.72
424.263	1896.59
424.471	1949.84
424.679	1923.21
424.887	2064.52
425.094	2080.91
425.302	2195.59
425.51	2185.35
425.718	2265.22
425.925	2336.9
426.133	2377.86
426.341	2566.28
426.548	2603.14
426.756	2664.58
426.964	2711.68
427.171	2711.68
427.379	2926.72
427.586	2963.58
427.794	2965.63
428.001	3100.8
428.209	3324.02
428.417	3242.11
428.624	3537.01
428.832	3459.19
429.039	3539.06
429.247	3401.85
429.454	3756.15
429.662	4061.29
429.869	3784.82
430.076	3991.66
430.284	4026.48
430.491	4110.44
430.699	4331.62
430.906	4247.66
431.114	4358.25
431.321	4429.93
431.528	4640.87
431.736	4941.92
431.943	5072.99
432.15	5052.51
432.358	4997.21
432.565	5275.74
432.772	5204.06
432.979	5539.93
433.187	5824.59
433.394	5625.94
433.601	6086.73
433.808	6109.26
434.016	6039.63
434.223	6254.67
434.43	6617.16
434.637	6594.63
434.844	6897.73
435.052	7049.28
435.259	6936.64
435.466	7100.48
435.673	7071.81
435.88	7495.74
436.087	7731.25
436.294	7845.94
436.501	7655.48
436.708	7876.66
436.915	8114.22
437.122	8419.37
437.329	8448.04
437.537	8462.38
437.743	8900.64
437.95	8572.97
438.157	9283.61
438.364	9529.37
438.571	9584.66
438.778	9404.44
438.985	10432.52
439.192	9869.33
439.399	10385.42
439.606	10158.1
439.813	10573.83
440.02	11225.09
440.227	10995.71
440.433	10831.88
440.64	11196.42
440.847	10991.62
441.054	11696.12
441.261	12292.08
441.467	12056.56
441.674	12318.7
441.881	12646.38
442.088	12761.06
442.294	12662.76
442.501	12941.29
442.708	13268.96
442.914	13883.35
443.121	14264.27
443.328	13869.02
443.534	14936.01
443.741	14456.78
443.948	14342.1
444.154	15497.15
444.361	15237.06
444.568	15556.54
444.774	15355.84
444.981	15169.48
445.187	15749.05
445.394	16641.96
445.6	16459.7
445.807	17856.41
446.013	17250.21
446.22	17553.31
446.426	18102.17
446.633	18405.27
446.839	18876.3
447.046	18278.29
447.252	19292.04
447.459	19187.59
447.665	19142.53
447.871	19838.84
448.078	21030.76
448.284	19834.75
448.491	20500.34
448.697	21059.43
448.903	21282.66
449.11	21753.69
449.316	21340.01
449.522	21624.67
449.728	22132.57
449.935	22320.98
450.141	22091.61
450.347	22925.13
450.553	22388.57
450.76	22429.52
450.966	23416.65
451.172	22994.76
451.378	23588.67
451.584	23037.77
451.791	23791.42
451.997	23746.37
452.203	24117.05
452.409	24233.78
452.615	23953.21
452.821	23125.83
453.027	22757.2
453.233	24041.28
453.44	23447.36
453.646	23664.45
453.852	23639.87
454.058	24268.6
454.264	23207.75
454.47	23940.93
454.676	22943.56
454.882	23942.97
455.088	21839.71
455.294	22183.77
455.5	22773.58
455.705	22830.93
455.911	21751.65
456.117	21737.31
456.323	21309.29
456.529	20076.41
456.735	21002.09
456.941	20725.61
457.147	20162.42
457.352	19646.33
457.558	19527.55
457.764	19490.69
457.97	19228.55
458.176	18765.71
458.381	18556.82
458.587	18147.22
458.793	17831.83
458.999	16955.3
459.204	18306.96
459.41	17528.74
459.616	16621.49
459.821	16531.37
460.027	16621.49
460.233	16248.75
460.438	15243.2
460.644	15843.26
460.85	14817.22
461.055	14608.33
461.261	14696.39
461.466	13580.25
461.672	12994.53
461.878	14168.02
462.083	13033.44
462.289	12826.6
462.494	12681.19
462.7	12283.89
462.905	11839.48
463.111	12253.17
463.316	12206.06
463.522	12085.23
463.727	12056.56
463.932	12124.15
464.138	11851.77
464.343	11925.49
464.549	11491.32
464.754	11917.3
464.959	11515.9
465.165	11646.97
465.37	11294.72
465.575	10854.41
465.781	11548.67
465.986	11704.31
466.191	11194.37
466.397	10827.78
466.602	10330.13
466.807	10561.55
467.012	10696.71
467.218	10661.9
467.423	10575.88
467.628	10516.49
467.833	11161.6
468.038	10688.52
468.244	10385.42
468.449	10792.97
468.654	10418.19
468.859	10483.72
469.064	10123.28
469.269	10027.03
469.474	9932.82
469.679	9943.06
469.885	9730.07
470.09	10010.64
470.295	9848.85
470.5	9635.86
470.705	9816.08
470.91	9451.55
471.115	9369.63
471.32	9422.87
471.525	9582.62
471.73	9248.8
471.935	9287.71
472.139	8968.23
472.344	9160.73
472.549	8978.47
472.754	8861.73
472.959	8773.67
473.164	8630.31
473.369	8439.85
473.574	8681.51
473.778	8575.02
473.983	8443.95
474.188	8615.98
474.393	8089.65
474.598	8093.74
474.802	7989.3
475.007	7809.08
475.212	8056.88
475.417	7675.96
475.621	7993.39
475.826	7843.89
476.031	7835.7
476.235	7438.39
476.44	7579.7
476.645	7522.36
476.849	7448.63
477.054	7331.9
477.259	7178.3
477.463	7264.32
477.668	7133.25
477.872	7333.95
478.077	7055.42
478.282	6961.22
478.486	6889.54
478.691	6897.73
478.895	6862.91
479.1	6838.34
479.304	6899.78
479.509	6617.16
479.713	6641.73
479.918	6590.53
480.122	6432.84
480.326	6518.86
480.531	6604.87
480.735	6455.37
480.94	6340.68
481.144	6555.72
481.348	6232.14
481.553	6494.28
481.757	6371.4
481.961	6226
482.166	6420.55
482.37	6275.15
482.574	6293.58
482.778	6334.54
482.983	6434.89
483.187	6314.06
483.391	6207.56
483.595	6180.94
483.8	6092.88
484.004	6377.55
484.208	6412.36
484.412	6291.53
484.616	6299.72
484.821	6299.72
485.025	6119.5
485.229	6209.61
485.433	6346.83
485.637	6252.62
485.841	6152.27
486.045	6150.22
486.249	6117.45
486.453	6281.29
486.657	6465.61
486.861	6103.12
487.065	6209.61
487.269	6166.6
487.473	6051.92
487.677	6342.73
487.881	6355.02
488.085	6295.63
488.289	6230.09
488.493	6064.21
488.697	6305.87
488.901	6197.32
489.105	6166.6
489.309	6297.67
489.512	6322.25
489.716	6205.52
489.92	6355.02
490.124	6244.43
490.328	6481.99
490.531	6262.86
490.735	6422.6
490.939	6371.4
491.143	6355.02
491.346	6385.74
491.55	6461.51
491.754	6322.25
491.958	6600.77
492.161	6404.17
492.365	6633.54
492.569	6395.98
492.772	6457.42
492.976	6592.58
493.18	6455.37
493.383	6756.42
493.587	6801.47
493.79	6760.52
493.994	6742.08
494.197	6881.35
494.401	6981.7
494.605	7039.04
494.808	7077.95
495.012	6961.22
495.215	7147.58
495.419	7094.33
495.622	7163.97
495.825	7080
496.029	7221.31
496.232	7432.25
496.436	7292.99
496.639	7448.63
496.843	7641.14
497.046	7626.81
497.249	7618.61
497.453	7710.77
497.656	7878.71
497.859	7991.34
498.063	8089.65
498.266	8142.89
498.469	8077.36
498.673	8175.66
498.876	8347.69
499.079	8353.84
499.282	8280.11
499.485	8648.74
499.689	8626.22
499.892	8693.8
500.095	8683.56
500.298	9050.14
500.501	8767.52
500.705	9158.69
500.908	9207.84
501.111	9322.52
501.314	9314.33
501.517	9637.91
501.72	9492.51
501.923	9486.36
502.126	9873.43
502.329	9842.71
502.532	9902.1
502.735	9885.72
502.938	10217.49
503.141	10526.73
503.344	10375.18
503.547	10588.17
503.75	10641.42
503.953	10887.17
504.156	10870.79
504.359	10936.32
504.562	10864.64
504.765	11315.2
504.968	11634.68
505.17	11548.67
505.373	11386.88
505.576	11702.26
505.779	11855.86
505.982	11878.39
506.185	12138.48
506.387	12103.67
506.59	12490.73
506.793	12466.16
506.996	12509.16
507.198	12900.33
507.401	12922.85
507.604	12982.24
507.807	13031.4
508.009	13264.86
508.212	13309.92
508.415	13553.63
508.617	13664.22
508.82	13801.43
509.022	13709.27
509.225	14067.67
509.428	14284.75
509.63	14282.7
509.833	14352.34
510.035	14933.96
510.238	14800.84
510.44	15044.55
510.643	15071.17
510.845	15683.52
511.048	15425.47
511.25	15419.33
511.453	15546.3
511.655	16385.97
511.858	16175.03
512.06	16211.89
512.262	16326.58
512.465	16271.28
512.667	16537.52
512.87	16881.58
513.072	16906.15
513.274	17170.34
513.477	17145.77
513.679	17633.18
513.881	17741.72
514.084	17559.45
514.286	17948.57
514.488	18020.25
514.69	18552.72
514.893	18734.99
515.095	18706.32
515.297	18634.64
515.499	18997.13
515.701	19183.49
515.904	19392.39
516.106	19709.82
516.308	19863.42
516.51	20072.31
516.712	20074.36
516.914	20297.59
517.116	21012.33
517.318	20793.2
517.52	20756.33
517.722	20963.18
517.925	21270.37
518.127	21657.44
518.329	21786.46
518.531	21544.8
518.733	22243.16
518.935	22357.85
519.136	22140.76
519.338	22392.66
519.54	22421.33
519.742	22916.94
519.944	22890.32
520.146	23584.58
520.348	23447.36
520.55	23588.67
520.752	23998.27
520.954	24254.26
521.155	24037.18
521.357	24586.04
521.559	24282.94
521.761	24778.54
521.963	25014.06
522.164	25280.3
522.366	25300.78
522.568	25417.51
522.77	25784.1
522.971	25939.74
523.173	25982.75
523.375	26291.99
523.576	26113.82
523.778	26040.09
523.98	26394.39
524.181	27111.18
524.383	26951.44
524.584	27526.92
524.786	27105.04
524.988	27391.75
525.189	27592.45
525.391	27838.21
525.592	28020.48
525.794	27744
525.995	27989.76
526.197	28268.28
526.398	28665.59
526.6	28307.19
526.801	28606.2
527.003	28737.27
527.204	28774.13
527.406	29427.43
527.607	29171.44
527.808	29339.37
528.01	28792.56
528.211	29181.68
528.412	29804.26
528.614	29505.26
528.815	29675.24
529.016	30000.86
529.218	29656.81
529.419	29935.33
529.62	29898.47
529.822	29773.54
530.023	30004.96
530.224	30170.85
530.425	30328.54
530.626	30281.44
530.828	30029.54
531.029	30766.81
531.23	30418.65
531.431	30377.69
531.632	30410.46
531.833	30676.69
532.035	30553.82
532.236	30562.01
532.437	30684.89
532.638	30475.99
532.839	30588.63
533.04	31176.4
533.241	30576.34
533.442	31256.27
533.643	30457.56
533.844	30639.83
534.045	31047.38
534.246	30744.28
534.447	31184.59
534.648	30914.26
534.849	31049.42
535.05	30691.03
535.251	31026.9
535.451	30858.96
535.652	31074
535.853	31131.34
536.054	31176.4
536.255	31182.54
536.456	30869.2
536.657	31370.96
536.857	31352.52
537.058	30766.81
537.259	31135.44
537.46	31438.54
537.66	31047.38
537.861	31098.58
538.062	31004.37
538.263	30856.92
538.463	31020.75
538.664	31037.14
538.865	31309.52
539.065	31145.68
539.266	30861.01
539.466	31467.21
539.667	30564.06
539.868	31520.46
540.068	31112.91
540.269	31117.01
540.469	31022.8
540.67	31338.19
540.87	31043.28
541.071	31131.34
541.271	31047.38
541.472	30920.4
541.672	30777.05
541.873	30709.46
542.073	30568.15
542.274	31074
542.474	31180.49
542.675	30670.55
542.875	30990.03
543.075	30852.82
543.276	30516.95
543.476	31323.85
543.676	30719.7
543.877	31008.47
544.077	31100.62
544.277	30803.67
544.478	30676.69
544.678	30742.23
544.878	30783.19
545.078	31284.94
545.279	30426.84
545.479	30938.83
545.679	30674.65
545.879	30668.5
546.079	30951.12
546.28	30977.75
546.48	30605.02
546.68	30684.89
546.88	31241.93
547.08	30703.32
547.28	30990.03
547.48	30615.26
547.68	30850.77
547.88	30308.06
548.081	30951.12
548.281	30893.78
548.481	30672.6
548.681	31135.44
548.881	30961.36
549.081	30883.54
549.28	30594.78
549.48	30840.53
549.68	30404.31
549.88	31080.14
550.08	30781.14
550.28	30873.3
550.48	30707.41
550.68	31012.56
550.88	30983.89
551.08	30930.64
551.279	30885.59
551.479	30426.84
551.679	30617.3
551.879	30549.72
552.079	30775
552.278	30457.56
552.478	30828.24
552.678	30605.02
552.878	30709.46
553.077	30439.13
553.277	30301.92
553.477	30985.94
553.676	30650.07
553.876	30205.66
554.076	30516.95
554.275	30545.62
554.475	29974.24
554.674	30578.39
554.874	30613.21
555.074	30713.56
555.273	30535.38
555.473	30600.92
555.672	30121.7
555.872	29968.1
556.071	30140.13
556.271	30607.06
556.47	30076.64
556.67	29619.94
556.869	30084.83
557.068	30269.15
557.268	29814.5
557.467	30105.31
557.667	30174.94
557.866	29828.84
558.065	30002.91
558.265	30211.81
558.464	29452.01
558.663	29861.6
558.863	29343.47
559.062	29888.23
559.261	29486.82
559.461	29794.02
559.66	29406.95
559.859	29431.53
560.058	29099.76
560.258	29411.05
560.457	29097.71
560.656	29271.79
560.855	29073.14
561.054	29693.67
561.253	29193.97
561.453	29300.46
561.652	28952.3
561.851	29120.24
562.05	28882.67
562.249	28628.73
562.448	29218.54
562.647	28802.8
562.846	28960.5
563.045	28905.2
563.244	28614.39
563.443	28714.74
563.642	28577.53
563.841	28501.75
564.04	28239.61
564.239	28813.04
564.438	28425.98
564.637	28575.48
564.836	28538.62
565.035	27961.09
565.234	28129.02
565.432	27830.02
565.631	28040.96
565.83	28139.26
566.029	27860.74
566.228	27903.74
566.427	27741.96
566.625	27623.17
566.824	27219.72
567.023	27676.42
567.222	26881.81
567.42	27651.84
567.619	27461.38
567.818	27125.52
568.016	27219.72
568.215	27371.27
568.414	26902.29
568.612	27252.49
568.811	27023.12
569.01	26976.02
569.208	26324.76
569.407	26578.71
569.605	26107.68
569.804	26785.55
570.002	26476.31
570.201	26537.75
570.4	26124.06
570.598	26040.09
570.797	25982.75
570.995	25906.98
571.193	25876.26
571.392	25992.99
571.59	25829.15
571.789	25777.95
571.987	25831.2
572.186	25605.92
572.384	25628.45
572.582	25605.92
572.781	25780
572.979	25313.06
573.177	25364.26
573.376	25343.78
573.574	24977.2
573.772	25247.53
573.971	24926
574.169	24919.85
574.367	24766.26
574.565	25100.08
574.763	24944.43
574.962	24723.25
575.16	24356.66
575.358	24444.73
575.556	24250.17
575.754	24483.64
575.952	24176.44
576.151	24311.61
576.349	24160.06
576.547	24006.46
576.745	24444.73
576.943	24160.06
577.141	23824.19
577.339	24055.61
577.537	23801.66
577.735	23848.77
577.933	23551.81
578.131	23738.18
578.329	23633.73
578.527	23668.55
578.725	23418.69
578.923	23441.22
579.121	23271.24
579.319	23248.71
579.516	23351.11
579.714	23220.04
579.912	23066.44
580.11	22937.42
580.308	22959.95
580.506	22619.99
580.704	22531.92
580.901	22724.43
581.099	22992.72
581.297	22644.56
581.495	22634.32
581.692	22525.78
581.89	22505.3
582.088	22642.51
582.285	22343.51
582.483	22527.83
582.681	22140.76
582.878	22284.12
583.076	22099.8
583.274	21985.12
583.471	21782.37
583.669	21768.03
583.866	21657.44
584.064	21954.4
584.262	21469.03
584.459	21823.33
584.657	21385.06
584.854	21852
585.052	21034.86
585.249	21698.4
585.447	21428.07
585.644	21102.44
585.841	21204.84
586.039	21315.43
586.236	20782.96
586.434	20871.02
586.631	20981.61
586.828	20899.69
587.026	20797.29
587.223	20692.85
587.42	20617.07
587.618	20580.21
587.815	20586.35
588.012	20440.95
588.21	20334.45
588.407	20471.67
588.604	20164.47
588.801	20250.49
588.999	20363.12
589.196	20174.71
589.393	20320.12
589.59	19838.84
589.787	19793.79
589.984	20221.81
590.182	19801.98
590.379	20195.19
590.576	19969.91
590.773	19613.57
590.97	19570.56
591.167	19830.65
591.364	19443.59
591.561	19502.98
591.758	19285.89
591.955	19132.29
592.152	19226.5
592.349	19261.32
592.546	19339.14
592.743	19335.04
592.94	18796.43
593.137	19074.95
593.334	19373.96
593.531	18878.35
593.727	19029.9
593.924	18966.41
594.121	18528.14
594.318	18661.26
594.515	18556.82
594.712	18747.28
594.908	18644.88
595.105	18257.81
595.302	18296.72
595.499	18413.46
595.696	18247.57
595.892	18155.41
596.089	18233.24
596.286	18184.09
596.482	18153.37
596.679	18061.21
596.876	18237.33
597.072	17856.41
597.269	18010.01
597.466	17846.17
597.662	17676.19
597.859	17762.2
598.055	17514.4
598.252	17604.51
598.448	17577.89
598.645	17407.91
598.841	17461.15
599.038	17393.57
599.234	17289.12
599.431	17201.06
599.627	16758.7
599.824	17213.35
600.02	16992.17
600.217	16900.01
600.413	16990.12
600.609	17133.48
600.806	17168.29
601.002	16883.63
601.198	16703.4
601.395	16496.56
601.591	16816.04
601.787	16723.88
601.984	16465.84
602.18	16734.12
602.376	16611.25
602.572	16439.22
602.769	16306.1
602.965	16422.83
603.161	16402.35
603.357	16338.87
603.553	16072.63
603.75	16218.04
603.946	16121.78
604.142	16136.12
604.338	15923.13
604.534	16046.01
604.73	15855.54
604.926	15935.42
605.122	15933.37
605.318	15728.57
605.514	15644.6
605.71	15734.71
605.906	15501.25
606.102	15525.82
606.298	15663.04
606.494	15335.36
606.69	15331.26
606.886	15472.57
607.082	15368.13
607.278	15675.32
607.474	15046.6
607.67	15302.59
607.866	15085.51
608.062	15325.12
608.257	14866.38
608.453	15151.04
608.649	15056.84
608.845	15009.73
609.041	15286.21
609.236	14890.95
609.432	14864.33
609.628	14979.01
609.824	14901.19
610.019	14809.03
610.215	14766.03
610.411	14782.41
610.606	14811.08
610.802	14819.27
610.998	14727.11
611.193	14518.22
611.389	14487.5
611.584	14622.67
611.78	14444.49
611.976	14313.42
612.171	14643.15
612.367	14313.42
612.562	14376.91
612.758	14227.41
612.953	14032.85
613.149	14333.9
613.344	13981.65
613.539	14481.36
613.735	14237.65
613.93	14202.83
614.126	14065.62
614.321	14182.35
614.517	13934.55
614.712	14039
614.907	14196.69
615.103	14245.84
615.298	13787.1
615.493	14090.2
615.688	13821.91
615.884	14047.19
616.079	13727.71
616.274	13875.16
616.47	13617.11
616.665	13983.7
616.86	13727.71
617.055	13547.48
617.25	13459.42
617.445	13733.85
617.641	13357.02
617.836	13367.26
618.031	13387.74
618.226	13463.52
618.421	13451.23
618.616	13477.85
618.811	13277.15
619.006	13338.59
619.201	13090.79
619.396	13178.85
619.591	13146.08
619.786	13025.25
619.981	12845.03
620.176	13111.27
620.371	12879.85
620.566	13027.3
620.761	12834.79
620.956	12879.85
621.151	12718.06
621.346	12625.9
621.541	12474.35
621.735	12482.54
621.93	12433.39
622.125	12455.92
622.32	12206.06
622.515	12388.33
622.709	12107.76
622.904	12068.85
623.099	12095.47
623.294	11976.69
623.488	11806.71
623.683	11845.62
623.878	11618.3
624.072	11804.66
624.267	11816.95
624.462	11495.42
624.656	11497.47
624.851	11616.25
625.046	11399.16
625.24	11157.5
625.435	11180.03
625.629	11548.67
625.824	11251.71
626.018	11421.69
626.213	10956.8
626.407	10997.76
626.602	10788.87
626.796	10983.43
626.991	11059.2
627.185	10768.39
627.38	10840.07
627.574	10541.07
627.768	10455.05
627.963	10639.37
628.157	10493.96
628.352	10473.48
628.546	10127.38
628.74	10354.7
628.935	10348.56
629.129	10326.03
629.323	10246.16
629.517	10027.03
629.712	9918.48
629.906	10188.82
630.1	10033.17
630.294	10018.83
630.489	9912.34
630.683	9834.52
630.877	9601.05
631.071	9637.91
631.265	9533.47
631.459	9508.89
631.653	9410.59
631.848	9541.66
632.042	9326.62
632.236	9453.59
632.43	9267.23
632.624	9406.49
632.818	9320.48
633.012	9185.31
633.206	8966.18
633.4	9254.94
633.594	9039.9
633.788	8970.27
633.982	8966.18
634.176	8968.23
634.369	8812.58
634.563	8742.95
634.757	8673.32
634.951	8677.41
635.145	8755.24
635.339	8460.33
635.533	8445.99
635.726	8562.73
635.92	8392.75
636.114	8290.35
636.308	8394.79
636.501	8386.6
636.695	8216.62
636.889	8384.55
637.083	8214.57
637.276	8112.17
637.47	7966.77
637.664	8085.55
637.857	8060.98
638.051	7870.51
638.244	8007.73
638.438	8095.79
638.632	7934
638.825	7665.72
639.019	7751.73
639.212	7813.17
639.406	7798.84
639.599	7682.1
639.793	7632.95
639.986	7575.61
640.18	7469.11
640.373	7264.32
640.567	7290.94
640.76	7456.82
640.954	7383.1
641.147	7370.81
641.34	7370.81
641.534	7381.05
641.727	7247.93
641.92	7116.86
642.114	7104.57
642.307	7133.25
642.5	7182.4
642.694	6918.21
642.887	6905.92
643.08	7032.9
643.273	7018.56
643.467	6815.81
643.66	7000.13
643.853	6942.78
644.046	6623.3
644.239	6674.5
644.432	6613.06
644.626	6510.66
644.819	6633.54
645.012	6522.95
645.205	6559.81
645.398	6461.51
645.591	6508.62
645.784	6287.43
645.977	6436.94
646.17	6369.35
646.363	6299.72
646.556	6357.07
646.749	6248.52
646.942	6211.66
647.135	6223.95
647.328	6023.25
647.521	6051.92
647.714	6029.39
647.907	6062.16
648.099	6033.49
648.292	6115.41
648.485	5883.98
648.678	5781.59
648.871	5955.66
649.064	5879.89
649.256	5933.14
649.449	5750.87
649.642	5767.25
649.835	5673.04
650.027	5689.43
650.22	5617.75
650.413	5865.55
650.605	5675.09
650.798	5494.87
650.991	5439.58
651.183	5595.22
651.376	5478.49
651.568	5589.08
651.761	5392.47
651.954	5298.27
652.146	5466.2
652.339	5187.68
652.531	5306.46
652.724	5371.99
652.916	5238.87
653.109	5150.81
653.301	5259.35
653.494	5118.04
653.686	4999.26
653.879	5183.58
654.071	5183.58
654.263	5021.79
654.456	4923.49
654.648	5105.76
654.84	5003.36
655.033	4888.67
655.225	4872.29
655.417	4980.83
655.61	4851.81
655.802	4847.71
655.994	4913.25
656.186	4884.58
656.379	4798.56
656.571	4667.49
656.763	4761.7
656.955	4679.78
657.148	4681.83
657.34	4638.82
657.532	4585.57
657.724	4524.13
657.916	4622.44
658.108	4491.37
658.3	4501.61
658.492	4554.85
658.684	4544.61
658.876	4554.85
659.068	4528.23
659.26	4339.82
659.452	4319.34
659.644	4354.15
659.836	4458.6
660.028	4425.83
660.22	4225.13
660.412	4214.89
660.604	4335.72
660.796	4202.6
660.988	4106.35
661.18	4233.32
661.372	4132.97
661.563	4188.27
661.755	4089.96
661.947	4171.88
662.139	4032.62
662.331	4073.58
662.522	3995.76
662.714	3969.13
662.906	4040.81
663.097	3983.47
663.289	3924.08
663.481	3915.89
663.673	3856.5
663.864	3938.41
664.056	3856.5
664.247	3784.82
664.439	3872.88
664.631	3760.24
664.822	3782.77
665.014	3612.79
665.205	3696.75
665.397	3774.58
665.588	3741.81
665.78	3709.04
665.971	3725.43
666.163	3672.18
666.354	3661.94
666.546	3608.69
666.737	3563.64
666.929	3592.31
667.12	3577.97
667.311	3594.36
667.503	3590.26
667.694	3559.54
667.885	3537.01
668.077	3530.87
668.268	3403.89
668.459	3610.74
668.651	3512.44
668.842	3549.3
669.033	3442.81
669.224	3281.02
669.416	3602.55
669.607	3430.52
669.798	3305.59
669.989	3448.95
670.18	3434.61
670.371	3348.6
670.563	3276.92
670.754	3268.73
670.945	3268.73
671.136	3238.01
671.327	3291.26
671.518	3223.67
671.709	3203.19
671.9	3180.67
672.091	3192.95
672.282	3106.94
672.473	3213.43
672.664	3373.18
672.855	3338.36
673.046	3168.38
673.237	3168.38
673.428	3246.2
673.619	3154.04
673.809	3063.93
674	3014.78
674.191	3160.19
674.382	3033.21
674.573	3102.84
674.764	2982.01
674.954	3149.95
675.145	3022.97
675.336	3022.97
675.527	3012.73
675.717	3012.73
675.908	2941.05
676.099	2973.82
676.289	2979.97
676.48	2957.44
676.671	2898.05
676.861	2928.77
677.052	2812.03
677.243	2934.91
677.433	3039.36
677.624	2852.99
677.814	2869.37
678.005	2934.91
678.195	2975.87
678.386	2908.29
678.576	2783.36
678.767	2797.7
678.957	2801.79
679.148	2918.53
679.338	2967.68
679.529	2930.81
679.719	2857.09
679.909	2889.85
680.1	2834.56
680.29	2850.94
680.481	2822.27
680.671	2799.74
680.861	2824.32
681.052	2785.41
681.242	2721.92
681.432	2809.98
681.622	2652.29
681.813	2721.92
682.003	2760.83
682.193	2648.19
682.383	2783.36
682.573	2709.63
682.764	2730.11
682.954	2742.4
683.144	2644.1
683.334	2721.92
683.524	2730.11
683.714	2769.02
683.904	2664.58
684.094	2701.44
684.284	2594.95
684.474	2670.72
684.664	2687.11
684.854	2539.65
685.044	2547.84
685.234	2635.91
685.424	2644.1
685.614	2662.53
685.804	2703.49
685.994	2603.14
686.184	2660.48
686.374	2590.85
686.564	2570.37
686.753	2556.04
686.943	2582.66
687.133	2441.35
687.323	2529.41
687.513	2529.41
687.702	2578.56
687.892	2504.84
688.082	2431.11
688.272	2367.62
688.461	2558.08
688.651	2513.03
688.841	2455.69
689.03	2392.2
689.22	2480.26
689.41	2443.4
689.599	2465.93
689.789	2429.06
689.979	2334.86
690.168	2359.43
690.358	2422.92
690.547	2308.23
690.737	2482.31
690.926	2361.48
691.116	2427.01
691.305	2365.57
691.495	2281.61
691.684	2295.94
691.874	2265.22
692.063	2244.74
692.252	2314.38
692.442	2371.72
692.631	2226.31
692.82	2300.04
693.01	2283.66
693.199	2347.14
693.388	2203.79
693.578	2252.94
693.767	2248.84
693.956	2080.91
694.146	2226.31
694.335	2181.26
694.524	2164.87
694.713	2324.62
694.902	2302.09
695.092	2140.3
695.281	2173.07
695.47	2148.49
695.659	2132.11
695.848	2119.82
696.037	2146.44
696.226	2136.2
696.415	2113.67
696.604	2091.15
696.793	2144.39
696.982	2281.61
697.171	2101.39
697.36	2054.28
697.549	2144.39
697.738	2078.86
697.927	2187.4
698.116	2023.56
698.305	2128.01
698.494	2201.74
698.683	2166.92
698.872	2197.64
699.061	1998.99
699.25	2119.82
699.438	2095.24
699.627	2117.77
699.816	2095.24
700.005	2037.9
700.193	2128.01
700.382	2056.33
700.571	2042
700.76	2142.35
700.948	2187.4
701.137	2181.26
701.326	2062.48
701.514	2132.11
701.703	2160.78
701.892	2097.29
702.08	2099.34
702.269	2091.15
702.457	2101.39
702.646	2087.05
702.834	2082.95
703.023	2179.21
703.212	2185.35
703.4	2035.85
703.589	2072.72
703.777	2138.25
703.965	2111.63
704.154	2037.9
704.342	2017.42
704.531	2042
704.719	2052.24
704.907	2115.72
705.096	2066.57
705.284	2091.15
705.472	2123.91
705.661	2001.04
705.849	2142.35
706.037	1949.84
706.226	2056.33
706.414	2142.35
706.602	2078.86
706.79	2082.95
706.979	2080.91
707.167	2058.38
707.355	2029.71
707.543	2080.91
707.731	2111.63
707.919	2115.72
708.107	2031.76
708.296	2021.52
708.484	1964.17
708.672	2015.37
708.86	2042
709.048	2058.38
709.236	1984.65
709.424	2005.13
709.612	2109.58
709.8	2082.95
709.988	2062.48
710.176	1980.56
710.364	2046.09
710.551	2072.72
710.739	2064.52
710.927	2144.39
711.115	2103.43
711.303	2062.48
711.491	2121.87
711.679	2058.38
711.866	2005.13
712.054	2130.06
712.242	2162.83
712.43	2091.15
712.617	2121.87
712.805	2105.48
712.993	2037.9
713.181	2097.29
713.368	2214.02
713.556	2089.1
713.744	2003.08
713.931	2087.05
714.119	2070.67
714.306	2109.58
714.494	2138.25
714.682	2107.53
714.869	2005.13
715.057	2046.09
715.244	2177.16
715.432	2185.35
715.619	2103.43
715.807	2042
715.994	2121.87
716.182	2039.95
716.369	2128.01
716.556	2078.86
716.744	2064.52
716.931	1974.41
717.119	2062.48
717.306	2089.1
717.493	2156.68
717.681	2087.05
717.868	2113.67
718.055	2037.9
718.242	2119.82
718.43	2029.71
718.617	2152.59
718.804	2089.1
718.991	2029.71
719.179	2128.01
719.366	1955.98
719.553	2048.14
719.74	2121.87
719.927	2037.9
720.114	1998.99
720.301	2085
720.488	2074.76
720.676	2111.63
720.863	2105.48
721.05	2119.82
721.237	2017.42
721.424	2115.72
721.611	2115.72
721.798	2066.57
721.985	2048.14
722.172	2082.95
722.358	2128.01
722.545	2037.9
722.732	2101.39
722.919	2111.63
723.106	2093.19
723.293	2017.42
723.48	2042
723.667	1980.56
723.853	2074.76
724.04	2015.37
724.227	2033.8
724.414	2021.52
724.6	2029.71
724.787	2166.92
724.974	2201.74
725.161	2095.24
725.347	2007.18
725.534	2097.29
725.72	2078.86
725.907	2066.57
726.094	2087.05
726.28	1964.17
726.467	2005.13
726.653	2017.42
726.84	2072.72
727.027	2148.49
727.213	1978.51
727.4	2054.28
727.586	2152.59
727.773	2072.72
727.959	2013.32
728.145	2105.48
728.332	2111.63
728.518	2050.19
728.705	2058.38
728.891	2052.24
729.077	1964.17
729.264	2068.62
729.45	2128.01
729.636	2117.77
729.823	1775.76
730.009	2015.37
730.195	1992.84
730.382	2037.9
730.568	1953.93
730.754	1986.7
730.94	2070.67
731.126	2048.14
731.313	2125.96
731.499	2021.52
731.685	2160.78
731.871	1923.21
732.057	2080.91
732.243	2011.28
732.429	2003.08
732.615	2005.13
732.801	1964.17
732.987	2087.05
733.173	2039.95
733.359	2095.24
733.545	2003.08
733.731	2080.91
733.917	1900.69
734.103	2015.37
734.289	1964.17
734.475	1992.84
734.661	2128.01
734.847	1996.94
735.033	2078.86
735.219	1988.75
735.404	1980.56
735.59	1955.98
735.776	1958.03
735.962	2117.77
736.148	1951.88
736.333	2005.13
736.519	1882.25
736.705	1845.39
736.89	1962.12
737.076	2056.33
737.262	1892.49
737.447	2017.42
737.633	1837.2
737.819	1861.77
738.004	1910.93
738.19	1945.74
738.375	1915.02
738.561	1988.75
738.747	1898.64
738.932	1917.07
739.118	2037.9
739.303	1982.6
739.489	1941.65
739.674	1857.68
739.859	1888.4
740.045	1984.65
740.23	2017.42
740.416	1800.34
740.601	1833.1
740.786	1880.21
740.972	1833.1
741.157	1849.49
741.342	1800.34
741.528	1908.88
741.713	1833.1
741.898	1761.42
742.084	1837.2
742.269	1865.87
742.454	1837.2
742.639	1867.92
742.824	1892.49
743.01	1761.42
743.195	1878.16
743.38	1765.52
743.565	1742.99
743.75	1734.8
743.935	1761.42
744.12	1730.7
744.305	1708.18
744.49	1687.7
744.675	1591.44
744.86	1734.8
745.045	1644.69
745.23	1591.44
745.415	1613.97
745.6	1642.64
745.785	1763.47
745.97	1751.18
746.155	1570.96
746.34	1652.88
746.525	1718.42
746.71	1734.8
746.895	1599.63
747.079	1597.59
747.264	1613.97
747.449	1591.44
747.634	1620.11
747.819	1661.07
748.003	1487
748.188	1534.1
748.373	1644.69
748.557	1591.44
748.742	1484.95
748.927	1562.77
749.111	1550.48
749.296	1532.05
749.481	1507.48
749.665	1476.76
749.85	1450.13
750.034	1478.8
750.219	1452.18
750.404	1464.47
750.588	1435.8
750.773	1415.32
750.957	1470.61
751.141	1390.74
751.326	1474.71
751.51	1415.32
751.695	1372.31
751.879	1400.98
752.064	1433.75
752.248	1392.79
752.432	1314.97
752.617	1525.91
752.801	1376.41
752.985	1362.07
753.17	1390.74
753.354	1280.15
753.538	1407.13
753.722	1284.25
753.907	1337.49
754.091	1255.58
754.275	1237.14
754.459	1276.06
754.643	1271.96
754.828	1173.66
755.012	1292.44
755.196	1214.62
755.38	1292.44
755.564	1161.37
755.748	1185.94
755.932	1292.44
756.116	1136.79
756.3	1177.75
756.484	1104.03
756.668	1144.99
756.852	1061.02
757.036	1155.23
757.22	1136.79
757.404	1239.19
757.588	1056.92
757.772	1149.08
757.956	1153.18
758.14	1095.83
758.323	1101.98
758.507	1067.16
758.691	1104.03
758.875	1087.64
759.059	1058.97
759.242	1011.87
759.426	1034.39
759.61	991.39
759.794	1046.68
759.977	1069.21
760.161	1079.45
760.345	993.44
760.528	1108.12
760.712	940.19
760.895	989.34
761.079	942.24
761.263	1054.87
761.446	948.38
761.63	1024.16
761.813	958.62
761.997	948.38
762.18	911.52
762.364	972.96
762.547	936.09
762.731	929.95
762.914	893.09
763.098	1018.01
763.281	868.51
763.464	905.37
763.648	923.8
763.831	942.24
764.015	934.04
764.198	915.61
764.381	876.7
764.564	876.7
764.748	923.8
764.931	825.5
765.114	809.12
765.297	880.8
765.481	841.89
765.664	833.69
765.847	964.76
766.03	895.13
766.213	843.93
766.397	821.41
766.58	862.37
766.763	946.33
766.946	915.61
767.129	866.46
767.312	848.03
767.495	800.93
767.678	835.74
767.861	876.7
768.044	768.16
768.227	911.52
768.41	788.64
768.593	917.66
768.776	802.97
768.959	714.91
769.142	794.78
769.324	815.26
769.507	780.45
769.69	768.16
769.873	858.27
770.056	737.44
770.239	796.83
770.421	835.74
770.604	762.02
770.787	809.12
770.97	725.15
771.152	800.93
771.335	741.54
771.518	784.54
771.7	790.69
771.883	751.78
772.066	624.8
772.248	802.97
772.431	723.1
772.613	712.86
772.796	637.09
772.978	704.67
773.161	702.62
773.343	710.82
773.526	688.29
773.708	708.77
773.891	686.24
774.073	637.09
774.256	645.28
774.438	784.54
774.621	649.38
774.803	694.43
774.985	604.32
775.168	704.67
775.35	641.18
775.532	628.9
775.715	604.32
775.897	698.53
776.079	596.13
776.261	653.47
776.444	684.19
776.626	632.99
776.808	567.46
776.99	540.83
777.173	589.99
777.355	604.32
777.537	628.9
777.719	596.13
777.901	600.23
778.083	567.46
778.265	522.4
778.447	538.79
778.629	557.22
778.811	563.36
778.993	581.79
779.175	569.51
779.357	592.03
779.539	587.94
779.721	524.45
779.903	608.42
780.085	542.88
780.267	483.49
780.449	465.06
780.631	592.03
780.812	540.83
780.994	538.79
781.176	549.03
781.358	479.4
781.54	432.29
781.721	538.79
781.903	546.98
782.085	415.91
782.267	587.94
782.448	448.68
782.63	477.35
782.812	426.15
782.993	501.92
783.175	467.11
783.357	430.24
783.538	487.59
783.72	424.1
783.901	542.88
784.083	506.02
784.264	438.44
784.446	366.76
784.627	391.33
784.809	465.06
784.99	485.54
785.172	436.39
785.353	436.39
785.535	497.83
785.716	473.25
785.897	358.57
786.079	430.24
786.26	499.88
786.441	399.52
786.623	307.37
786.804	415.91
786.985	450.72
787.167	415.91
787.348	321.7
787.529	409.76
787.71	444.58
787.891	350.37
788.073	305.32
788.254	303.27
788.435	372.9
788.616	327.85
788.797	338.09
788.978	366.76
789.159	338.09
789.34	309.41
789.522	311.46
789.703	303.27
789.884	366.76
790.065	264.36
790.246	411.81
790.427	358.57
790.607	368.81
790.788	358.57
790.969	325.8
791.15	321.7
791.331	342.18
791.512	260.26
791.693	301.22
791.874	274.6
792.054	393.38
792.235	358.57
792.416	295.08
792.597	317.61
792.778	293.03
792.958	268.45
793.139	256.17
793.32	272.55
793.5	290.98
793.681	358.57
793.862	225.45
794.042	313.51
794.223	219.3
794.404	272.55
794.584	217.26
794.765	336.04
794.945	258.21
795.126	254.12
795.306	276.65
795.487	241.83
795.667	241.83
795.848	295.08
796.028	270.5
796.209	268.45
796.389	327.85
796.57	239.78
796.75	229.54
796.93	278.69
797.111	260.26
797.291	196.78
797.471	217.26
797.652	254.12
797.832	233.64
798.012	309.41
798.192	170.15
798.373	288.93
798.553	256.17
798.733	204.97
798.913	254.12
799.093	325.8
799.274	231.59
799.454	329.89
799.634	237.74
799.814	278.69
799.994	233.64
800.174	256.17
800.354	333.99
800.534	204.97
800.714	235.69
800.894	270.5
801.074	188.58
801.254	268.45
801.434	276.65
801.614	188.58
801.794	145.58
801.974	774.3
802.154	196.78
802.334	258.21
802.514	194.73
802.693	186.54
802.873	211.11
803.053	207.02
803.233	196.78
803.413	170.15
803.592	235.69
803.772	166.06
803.952	231.59
804.131	186.54
804.311	219.3
804.491	192.68
804.67	278.69
804.85	71.85
805.03	172.2
805.209	235.69
805.389	231.59
805.568	213.16
805.748	209.06
805.928	106.67
806.107	145.58
806.287	241.83
806.466	182.44
806.646	161.96
806.825	174.25
807.004	170.15
807.184	137.38
807.363	170.15
807.543	186.54
807.722	141.48
807.901	186.54
808.081	174.25
808.26	121
808.439	125.1
808.619	143.53
808.798	129.19
808.977	145.58
809.156	190.63
809.336	149.67
809.515	190.63
809.694	157.86
809.873	71.85
810.052	186.54
810.231	170.15
810.411	268.45
810.59	137.38
810.769	161.96
810.948	178.34
811.127	67.75
811.306	139.43
811.485	133.29
811.664	161.96
811.843	190.63
812.022	178.34
812.201	204.97
812.38	170.15
812.559	178.34
812.737	178.34
812.916	112.81
813.095	108.71
813.274	123.05
813.453	188.58
813.632	139.43
813.811	170.15
813.989	121
814.168	131.24
814.347	39.08
814.526	112.81
814.704	121
814.883	174.25
815.062	75.95
815.24	182.44
815.419	127.14
815.598	180.39
815.776	121
815.955	104.62
816.133	96.43
816.312	84.14
816.49	145.58
816.669	112.81
816.847	149.67
817.026	123.05
817.204	106.67
817.383	80.04
817.561	121
817.74	90.28
817.918	137.38
818.097	47.27
818.275	104.62
818.453	196.78
818.632	112.81
818.81	145.58
818.988	123.05
819.167	112.81
819.345	92.33
819.523	92.33
819.701	139.43
819.879	137.38
820.058	123.05
820.236	157.86
820.414	88.23
820.592	161.96
820.77	75.95
820.948	112.81
821.127	30.89
821.305	166.06
821.483	121
821.661	106.67
821.839	98.47
822.017	102.57
822.195	57.51
822.373	172.2
822.551	24.75
822.729	92.33
822.907	112.81
823.085	77.99
823.262	86.19
823.44	118.95
823.618	71.85
823.796	67.75
823.974	30.89
824.152	116.9
824.329	65.71
824.507	92.33
824.685	96.43
824.863	80.04
825.04	88.23
825.218	161.96
825.396	71.85
825.574	102.57
825.751	67.75
825.929	106.67
826.107	8.36
826.284	57.51
826.462	98.47
826.639	98.47
826.817	24.75
826.994	22.7
827.172	65.71
827.349	125.1
827.527	149.67
827.704	96.43
827.882	94.38
828.059	88.23
828.237	84.14
828.414	94.38
828.591	12.46
828.769	82.09
828.946	0.17
829.124	92.33
829.301	112.81
829.478	121
829.655	49.32
829.833	80.04
830.01	41.13
830.187	100.52
830.364	73.9
830.542	121
830.719	100.52
830.896	121
831.073	24.75
831.25	71.85
831.427	61.61
831.604	65.71
831.782	63.66
831.959	84.14
832.136	30.89
832.313	18.6
832.49	96.43
832.667	51.37
832.844	86.19
833.021	67.75
833.198	104.62
833.374	139.43
833.551	104.62
833.728	32.94
833.905	75.95
834.082	22.7
834.259	121
834.436	26.79
834.612	55.47
834.789	90.28
834.966	82.09
835.143	98.47
835.319	26.79
835.496	88.23
835.673	96.43
835.85	71.85
836.026	47.27
836.203	41.13
836.38	47.27
836.556	37.03
836.733	96.43
836.909	88.23
837.086	170.15
837.262	41.13
837.439	57.51
837.616	96.43
837.792	114.86
837.968	82.09
838.145	16.55
838.321	32.94
838.498	22.7
838.674	49.32
838.851	18.6
839.027	22.7
839.203	20.65
839.38	22.7
839.556	-8.02
839.732	133.29
839.909	34.99
840.085	82.09
840.261	34.99
840.437	12.46
840.614	37.03
840.79	57.51
840.966	98.47
841.142	112.81
841.318	53.42
841.494	24.75
841.671	-3.93
841.847	98.47
842.023	-5.97
842.199	98.47
842.375	30.89
842.551	-59.22
842.727	98.47
842.903	20.65
843.079	-24.4
843.255	43.18
843.431	-20.31
843.607	106.67
843.783	16.55
843.959	57.51
844.134	30.89
844.31	47.27
844.486	18.6
844.662	71.85
844.838	16.55
845.013	71.85
845.189	90.28
845.365	65.71
845.541	53.42
845.716	114.86
845.892	43.18
846.068	-10.07
846.244	114.86
846.419	57.51
846.595	41.13
846.77	-57.17
846.946	49.32
847.122	6.31
847.297	10.41
847.473	75.95
847.648	-22.36
847.824	73.9
847.999	14.51
848.175	0.17
848.35	55.47
848.526	24.75
848.701	112.81
848.876	20.65
849.052	34.99
849.227	24.75
849.403	67.75
849.578	82.09
849.753	37.03
849.929	-46.93
850.104	32.94
850.279	47.27
850.454	24.75
850.63	57.51
850.805	8.36
850.98	30.89
851.155	112.81
851.33	-26.45
851.505	-24.4
851.681	147.62
851.856	-57.17
852.031	80.04
852.206	24.75
852.381	16.55
852.556	43.18
852.731	-1.88
852.906	108.71
853.081	57.51
853.256	-5.97
853.431	18.6
853.606	90.28
853.781	22.7
853.956	-81.75
854.131	43.18
854.305	28.84
854.48	84.14
854.655	55.47
854.83	22.7
855.005	6.31
855.18	55.47
855.354	47.27
855.529	34.99
855.704	53.42
855.879	39.08
856.053	14.51
856.228	88.23
856.403	-38.74
856.577	71.85
856.752	18.6
856.926	47.27
857.101	47.27
857.276	123.05
857.45	-14.17
857.625	32.94
857.799	73.9
857.974	61.61
858.148	-14.17
858.323	14.51
858.497	-5.97
858.672	34.99
858.846	-3.93
859.02	92.33
859.195	-32.6
859.369	14.51
859.543	63.66
859.718	8.36
859.892	55.47
860.066	18.6
860.241	-32.6
860.415	-26.45
860.589	0.17
860.763	-16.21
860.938	10.41
861.112	47.27
861.286	-26.45
861.46	-59.22
861.634	-22.36
861.808	32.94
861.982	-26.45
862.157	8.36
862.331	-12.12
862.505	8.36
862.679	-34.64
862.853	-87.89
863.027	116.9
863.201	73.9
863.375	6.31
863.549	-48.98
863.722	-34.64
863.896	37.03
864.07	30.89
864.244	14.51
864.418	47.27
864.592	22.7
864.766	73.9
864.939	-1.88
865.113	75.95
865.287	75.95
865.461	-26.45
865.634	6.31
865.808	55.47
865.982	51.37
866.156	-24.4
866.329	-18.26
866.503	2.22
866.676	45.23
866.85	-24.4
867.024	77.99
867.197	10.41
867.371	57.51
867.544	-3.93
867.718	-22.36
867.891	59.56
868.065	2.22
868.238	2.22
868.412	41.13
868.585	16.55
868.759	-40.79
868.932	2.22
869.105	28.84
869.279	-36.69
869.452	67.75
869.625	-46.93
869.799	-12.12
869.972	39.08
870.145	-38.74
870.319	-26.45
870.492	-77.65
870.665	-10.07
870.838	-18.26
871.011	-53.08
871.185	49.32
871.358	-1.88
871.531	-14.17
871.704	-75.6
871.877	57.51
872.05	41.13
872.223	22.7
872.396	88.23
872.569	59.56
872.742	10.41
872.915	10.41
873.088	-16.21
873.261	57.51
873.434	-1.88
873.607	-24.4
873.78	8.36
873.953	-10.07
874.126	-5.97
874.299	71.85
874.471	-3.93
874.644	-18.26
874.817	22.7
874.99	73.9
875.163	-61.27
875.335	100.52
875.508	-1.88
875.681	-8.02
875.853	16.55
876.026	-26.45
876.199	8.36
876.371	-14.17
876.544	8.36
876.717	39.08
876.889	10.41
877.062	-28.5
877.234	-1.88
877.407	59.56
877.579	22.7
877.752	-5.97
877.924	24.75
878.097	39.08
878.269	-18.26
878.442	6.31
878.614	-22.36
878.786	6.31
878.959	-63.32
879.131	41.13
879.303	-61.27
879.476	57.51
879.648	-1.88
879.82	30.89
879.993	-51.03
880.165	26.79
880.337	-55.12
880.509	6.31
880.681	8.36
880.854	-20.31
881.026	-28.5
881.198	75.95
881.37	34.99
881.542	10.41
881.714	6.31
881.886	-53.08
882.058	34.99
882.23	-16.21
882.402	-42.84
882.574	-46.93
882.746	26.79
882.918	43.18
883.09	-40.79
883.262	51.37
883.434	2.22
883.606	-42.84
883.778	-59.22
883.95	73.9
884.122	-16.21
884.293	22.7
884.465	-32.6
884.637	-30.55
884.809	-18.26
884.98	53.42
885.152	30.89
885.324	-26.45
885.496	-1.88
885.667	10.41
885.839	-32.6
886.011	16.55
886.182	82.09
886.354	-1.88
886.525	57.51
886.697	26.79
886.869	-1.88
887.04	-10.07
887.212	-22.36
887.383	71.85
887.555	-16.21
887.726	30.89
887.897	-24.4
888.069	-26.45
888.24	30.89
888.412	114.86
888.583	-8.02
888.754	14.51
888.926	-42.84
889.097	-67.41
889.268	-51.03
889.44	16.55
889.611	-65.36
889.782	-38.74
889.953	-34.64
890.125	4.27
890.296	-5.97
890.467	-1.88
890.638	71.85
890.809	-40.79
890.98	2.22
891.151	-34.64
891.323	39.08
891.494	-59.22
891.665	-1.88
891.836	-12.12
892.007	32.94
892.178	59.56
892.349	-5.97
892.52	-10.07
892.691	8.36
892.862	-8.02
893.032	-16.21
893.203	-71.51
893.374	-63.32
893.545	-30.55
893.716	0.17
893.887	-65.36
894.057	-10.07
894.228	24.75
894.399	-42.84
894.57	14.51
894.74	-24.4
894.911	43.18
895.082	-24.4
895.253	-44.88
895.423	-83.8
895.594	32.94
895.764	-8.02
895.935	-28.5
896.106	10.41
896.276	43.18
896.447	-51.03
896.617	6.31
896.788	-57.17
896.958	-24.4
897.129	0.17
897.299	-55.12
897.47	-48.98
897.64	6.31
897.81	2.22
897.981	30.89
898.151	-26.45
898.322	63.66
898.492	-38.74
898.662	26.79
898.832	-32.6
899.003	-8.02
899.173	16.55
899.343	-22.36
899.513	-34.64
