Data from USB4F104151__205__14-45-21-289.txt Node

Date: Thu Mar 13 14:45:21 EDT 2025
User: louis
Spectrometer: USB4F10415
Trigger mode: 4
Integration Time (sec): 2.000000E-2
Scans to average: 1
Electric dark correction enabled: true
Nonlinearity correction enabled: false
Boxcar width: 0
XAxis mode: Wavelengths
Number of Pixels in Spectrum: 3648
>>>>>Begin Spectral Data<<<<<
178.204	-66.73
178.424	-66.73
178.644	-66.73
178.864	-99.5
179.084	-60.59
179.304	-25.77
179.524	-48.3
179.744	7
179.964	47.96
180.184	-1.19
180.404	-13.48
180.624	-23.72
180.844	66.39
181.064	13.14
181.283	-42.15
181.503	-40.11
181.723	60.24
181.943	13.14
182.163	88.92
182.383	41.81
182.602	13.14
182.822	21.33
183.042	-17.58
183.262	31.57
183.482	15.19
183.701	15.19
183.921	11.09
184.141	-50.35
184.361	72.53
184.58	62.29
184.8	105.3
185.02	-21.67
185.239	82.77
185.459	23.38
185.679	56.15
185.898	-70.83
186.118	68.44
186.338	56.15
186.557	35.67
186.777	-5.29
186.997	35.67
187.216	-52.39
187.436	64.34
187.655	80.72
187.875	31.57
188.095	47.96
188.314	138.07
188.534	29.52
188.753	35.67
188.973	29.52
189.192	64.34
189.412	-15.53
189.631	23.38
189.851	-15.53
190.07	82.77
190.29	13.14
190.509	15.19
190.729	90.96
190.948	39.76
191.168	183.12
191.387	97.11
191.607	-1.19
191.826	56.15
192.045	52.05
192.265	60.24
192.484	29.52
192.704	27.48
192.923	-9.39
193.142	82.77
193.362	2.9
193.581	33.62
193.8	97.11
194.02	88.92
194.239	0.85
194.458	-13.48
194.678	37.72
194.897	41.81
195.116	-1.19
195.335	-42.15
195.555	31.57
195.774	47.96
195.993	74.58
196.212	2.9
196.432	-64.68
196.651	-19.63
196.87	-7.34
197.089	138.07
197.308	64.34
197.528	33.62
197.747	-13.48
197.966	-23.72
198.185	97.11
198.404	64.34
198.623	47.96
198.842	33.62
199.062	39.76
199.281	72.53
199.5	17.24
199.719	86.87
199.938	43.86
200.157	31.57
200.376	56.15
200.595	121.68
200.814	19.29
201.033	-7.34
201.252	52.05
201.471	37.72
201.69	62.29
201.909	97.11
202.128	45.91
202.347	-5.29
202.566	-3.24
202.785	31.57
203.004	-1.19
203.223	105.3
203.442	21.33
203.661	-11.43
203.879	11.09
204.098	58.2
204.317	15.19
204.536	74.58
204.755	39.76
204.974	60.24
205.193	47.96
205.411	97.11
205.63	68.44
205.849	-1.19
206.068	2.9
206.287	80.72
206.505	80.72
206.724	47.96
206.943	-21.67
207.162	11.09
207.381	-5.29
207.599	60.24
207.818	66.39
208.037	-21.67
208.255	25.43
208.474	105.3
208.693	68.44
208.911	43.86
209.13	105.3
209.349	27.48
209.567	82.77
209.786	39.76
210.005	43.86
210.223	11.09
210.442	-17.58
210.661	-58.54
210.879	2.9
211.098	90.96
211.316	17.24
211.535	56.15
211.753	-21.67
211.972	107.35
212.191	58.2
212.409	31.57
212.628	72.53
212.846	7
213.065	80.72
213.283	54.1
213.502	-81.07
213.72	15.19
213.938	17.24
214.157	60.24
214.375	19.29
214.594	15.19
214.812	31.57
215.031	23.38
215.249	93.01
215.467	80.72
215.686	15.19
215.904	2.9
216.122	0.85
216.341	138.07
216.559	-15.53
216.778	99.16
216.996	142.16
217.214	-15.53
217.432	25.43
217.651	-58.54
217.869	2.9
218.087	101.2
218.306	17.24
218.524	19.29
218.742	23.38
218.96	31.57
219.179	19.29
219.397	27.48
219.615	105.3
219.833	68.44
220.051	52.05
220.27	121.68
220.488	103.25
220.706	101.2
220.924	50
221.142	11.09
221.36	25.43
221.578	113.49
221.796	-19.63
222.015	58.2
222.233	64.34
222.451	115.54
222.669	-27.82
222.887	60.24
223.105	4.95
223.323	60.24
223.541	43.86
223.759	52.05
223.977	125.78
224.195	25.43
224.413	25.43
224.631	41.81
224.849	76.63
225.067	113.49
225.285	97.11
225.503	31.57
225.721	-11.43
225.939	80.72
226.157	78.68
226.375	80.72
226.592	7
226.81	9.05
227.028	66.39
227.246	-5.29
227.464	-48.3
227.682	29.52
227.9	62.29
228.117	107.35
228.335	39.76
228.553	-31.91
228.771	121.68
228.989	43.86
229.206	82.77
229.424	-42.15
229.642	90.96
229.86	-3.24
230.077	68.44
230.295	41.81
230.513	97.11
230.731	50
230.948	72.53
231.166	54.1
231.384	41.81
231.601	52.05
231.819	119.64
232.037	164.69
232.254	56.15
232.472	154.45
232.689	56.15
232.907	50
233.125	50
233.342	35.67
233.56	9.05
233.777	-9.39
233.995	43.86
234.213	58.2
234.43	64.34
234.648	113.49
234.865	86.87
235.083	74.58
235.3	29.52
235.518	-25.77
235.735	68.44
235.953	101.2
236.17	35.67
236.388	76.63
236.605	72.53
236.822	131.92
237.04	47.96
237.257	66.39
237.475	105.3
237.692	80.72
237.909	33.62
238.127	25.43
238.344	47.96
238.562	66.39
238.779	50
238.996	11.09
239.214	62.29
239.431	64.34
239.648	21.33
239.865	72.53
240.083	-9.39
240.3	33.62
240.517	0.85
240.735	33.62
240.952	2.9
241.169	70.48
241.386	-9.39
241.603	52.05
241.821	-1.19
242.038	99.16
242.255	17.24
242.472	27.48
242.689	17.24
242.907	31.57
243.124	54.1
243.341	97.11
243.558	-66.73
243.775	23.38
243.992	17.24
244.209	33.62
244.426	72.53
244.643	66.39
244.86	-17.58
245.078	-25.77
245.295	47.96
245.512	-13.48
245.729	43.86
245.946	113.49
246.163	-5.29
246.38	56.15
246.597	66.39
246.814	50
247.031	56.15
247.248	56.15
247.464	60.24
247.681	4.95
247.898	21.33
248.115	84.82
248.332	17.24
248.549	123.73
248.766	72.53
248.983	-7.34
249.2	31.57
249.417	105.3
249.633	56.15
249.85	105.3
250.067	25.43
250.284	43.86
250.501	-1.19
250.717	50
250.934	-54.44
251.151	15.19
251.368	27.48
251.585	93.01
251.801	27.48
252.018	17.24
252.235	7
252.451	33.62
252.668	27.48
252.885	31.57
253.102	111.44
253.318	-33.96
253.535	60.24
253.752	19.29
253.968	19.29
254.185	-31.91
254.401	-25.77
254.618	80.72
254.835	15.19
255.051	19.29
255.268	52.05
255.484	101.2
255.701	19.29
255.917	33.62
256.134	4.95
256.351	0.85
256.567	-1.19
256.784	2.9
257	7
257.217	64.34
257.433	17.24
257.65	109.4
257.866	64.34
258.082	2.9
258.299	-25.77
258.515	15.19
258.732	80.72
258.948	2.9
259.165	19.29
259.381	7
259.597	50
259.814	50
260.03	39.76
260.246	-31.91
260.463	58.2
260.679	72.53
260.895	39.76
261.112	7
261.328	-13.48
261.544	15.19
261.761	58.2
261.977	74.58
262.193	11.09
262.409	17.24
262.626	39.76
262.842	41.81
263.058	41.81
263.274	109.4
263.49	17.24
263.707	121.68
263.923	39.76
264.139	-1.19
264.355	56.15
264.571	115.54
264.787	50
265.004	101.2
265.22	97.11
265.436	-56.49
265.652	17.24
265.868	97.11
266.084	-1.19
266.3	93.01
266.516	-21.67
266.732	27.48
266.948	-3.24
267.164	72.53
267.38	109.4
267.596	115.54
267.812	125.78
268.028	60.24
268.244	15.19
268.46	64.34
268.676	50
268.892	50
269.108	-81.07
269.324	72.53
269.54	-42.15
269.756	11.09
269.972	31.57
270.188	-1.19
270.403	7
270.619	64.34
270.835	23.38
271.051	62.29
271.267	66.39
271.483	121.68
271.698	39.76
271.914	33.62
272.13	41.81
272.346	60.24
272.562	50
272.777	97.11
272.993	-38.06
273.209	25.43
273.425	97.11
273.64	29.52
273.856	43.86
274.072	113.49
274.287	43.86
274.503	72.53
274.719	39.76
274.934	64.34
275.15	-38.06
275.366	50
275.581	58.2
275.797	93.01
276.012	39.76
276.228	43.86
276.444	23.38
276.659	148.31
276.875	54.1
277.09	58.2
277.306	39.76
277.521	74.58
277.737	-48.3
277.952	117.59
278.168	64.34
278.383	-21.67
278.599	41.81
278.814	88.92
279.03	11.09
279.245	138.07
279.461	43.86
279.676	25.43
279.892	0.85
280.107	-21.67
280.322	41.81
280.538	7
280.753	80.72
280.969	84.82
281.184	43.86
281.399	41.81
281.615	41.81
281.83	56.15
282.045	-31.91
282.26	25.43
282.476	43.86
282.691	33.62
282.906	52.05
283.122	27.48
283.337	31.57
283.552	84.82
283.767	82.77
283.983	138.07
284.198	0.85
284.413	19.29
284.628	-17.58
284.843	29.52
285.058	56.15
285.274	50
285.489	15.19
285.704	27.48
285.919	9.05
286.134	2.9
286.349	43.86
286.564	27.48
286.779	39.76
286.995	15.19
287.21	11.09
287.425	66.39
287.64	4.95
287.855	15.19
288.07	13.14
288.285	72.53
288.5	11.09
288.715	62.29
288.93	82.77
289.145	103.25
289.36	62.29
289.575	56.15
289.79	13.14
290.004	25.43
290.219	80.72
290.434	29.52
290.649	99.16
290.864	-25.77
291.079	68.44
291.294	41.81
291.509	37.72
291.724	23.38
291.938	64.34
292.153	43.86
292.368	58.2
292.583	43.86
292.798	62.29
293.012	68.44
293.227	58.2
293.442	27.48
293.657	82.77
293.871	31.57
294.086	62.29
294.301	80.72
294.516	62.29
294.73	33.62
294.945	93.01
295.16	99.16
295.374	76.63
295.589	125.78
295.804	-15.53
296.018	103.25
296.233	95.06
296.447	56.15
296.662	47.96
296.877	170.83
297.091	68.44
297.306	19.29
297.52	27.48
297.735	70.48
297.949	52.05
298.164	123.73
298.378	146.26
298.593	-25.77
298.807	25.43
299.022	7
299.236	80.72
299.451	52.05
299.665	15.19
299.88	78.68
300.094	23.38
300.309	-17.58
300.523	76.63
300.737	52.05
300.952	115.54
301.166	25.43
301.381	47.96
301.595	39.76
301.809	80.72
302.024	66.39
302.238	-29.87
302.452	64.34
302.667	52.05
302.881	127.83
303.095	74.58
303.309	86.87
303.524	-33.96
303.738	47.96
303.952	39.76
304.166	80.72
304.381	-33.96
304.595	113.49
304.809	66.39
305.023	56.15
305.237	-7.34
305.452	-9.39
305.666	66.39
305.88	72.53
306.094	90.96
306.308	131.92
306.522	68.44
306.736	52.05
306.95	39.76
307.164	58.2
307.379	-1.19
307.593	47.96
307.807	47.96
308.021	140.12
308.235	119.64
308.449	31.57
308.663	47.96
308.877	131.92
309.091	23.38
309.305	9.05
309.519	19.29
309.733	64.34
309.947	70.48
310.161	47.96
310.374	80.72
310.588	2.9
310.802	37.72
311.016	27.48
311.23	60.24
311.444	-11.43
311.658	29.52
311.872	39.76
312.085	127.83
312.299	15.19
312.513	138.07
312.727	9.05
312.941	-7.34
313.154	25.43
313.368	33.62
313.582	90.96
313.796	82.77
314.009	56.15
314.223	82.77
314.437	17.24
314.651	15.19
314.864	15.19
315.078	82.77
315.292	80.72
315.505	84.82
315.719	105.3
315.933	7
316.146	74.58
316.36	-19.63
316.573	121.68
316.787	0.85
317.001	56.15
317.214	23.38
317.428	80.72
317.641	-17.58
317.855	66.39
318.068	56.15
318.282	146.26
318.495	88.92
318.709	76.63
318.922	80.72
319.136	74.58
319.349	50
319.563	-23.72
319.776	41.81
319.99	-7.34
320.203	88.92
320.417	66.39
320.63	68.44
320.843	84.82
321.057	-9.39
321.27	50
321.483	43.86
321.697	39.76
321.91	-48.3
322.124	-23.72
322.337	88.92
322.55	99.16
322.763	99.16
322.977	47.96
323.19	39.76
323.403	60.24
323.617	35.67
323.83	72.53
324.043	31.57
324.256	72.53
324.469	9.05
324.683	58.2
324.896	-42.15
325.109	11.09
325.322	82.77
325.535	93.01
325.748	88.92
325.962	37.72
326.175	50
326.388	76.63
326.601	7
326.814	23.38
327.027	31.57
327.24	39.76
327.453	43.86
327.666	7
327.879	-5.29
328.092	29.52
328.305	47.96
328.518	-40.11
328.731	80.72
328.944	97.11
329.157	43.86
329.37	64.34
329.583	7
329.796	105.3
330.009	0.85
330.222	56.15
330.435	43.86
330.648	101.2
330.861	-15.53
331.073	146.26
331.286	68.44
331.499	41.81
331.712	-1.19
331.925	66.39
332.138	7
332.35	82.77
332.563	33.62
332.776	113.49
332.989	2.9
333.202	72.53
333.414	23.38
333.627	9.05
333.84	39.76
334.053	72.53
334.265	68.44
334.478	21.33
334.691	72.53
334.903	54.1
335.116	43.86
335.329	129.88
335.541	166.74
335.754	109.4
335.966	0.85
336.179	-29.87
336.392	72.53
336.604	50
336.817	156.5
337.029	33.62
337.242	-64.68
337.454	27.48
337.667	31.57
337.88	82.77
338.092	58.2
338.305	39.76
338.517	17.24
338.729	64.34
338.942	80.72
339.154	80.72
339.367	52.05
339.579	13.14
339.792	43.86
340.004	117.59
340.217	45.91
340.429	97.11
340.641	35.67
340.854	60.24
341.066	41.81
341.278	56.15
341.491	70.48
341.703	82.77
341.915	-17.58
342.128	76.63
342.34	17.24
342.552	64.34
342.764	113.49
342.977	56.15
343.189	74.58
343.401	23.38
343.613	50
343.826	-1.19
344.038	-9.39
344.25	80.72
344.462	19.29
344.674	76.63
344.886	72.53
345.099	146.26
345.311	72.53
345.523	33.62
345.735	72.53
345.947	99.16
346.159	31.57
346.371	-9.39
346.583	-15.53
346.795	129.88
347.007	15.19
347.219	80.72
347.431	66.39
347.643	74.58
347.855	50
348.067	56.15
348.279	0.85
348.491	56.15
348.703	105.3
348.915	72.53
349.127	27.48
349.339	84.82
349.551	35.67
349.763	121.68
349.975	15.19
350.187	64.34
350.399	66.39
350.61	9.05
350.822	54.1
351.034	82.77
351.246	84.82
351.458	25.43
351.669	25.43
351.881	80.72
352.093	68.44
352.305	47.96
352.517	72.53
352.728	33.62
352.94	0.85
353.152	47.96
353.363	-23.72
353.575	123.73
353.787	43.86
353.999	56.15
354.21	97.11
354.422	0.85
354.633	-23.72
354.845	15.19
355.057	-68.78
355.268	107.35
355.48	74.58
355.692	21.33
355.903	101.2
356.115	125.78
356.326	74.58
356.538	154.45
356.749	138.07
356.961	23.38
357.172	31.57
357.384	15.19
357.595	50
357.807	64.34
358.018	103.25
358.23	80.72
358.441	144.21
358.653	80.72
358.864	52.05
359.075	84.82
359.287	15.19
359.498	72.53
359.709	-5.29
359.921	56.15
360.132	70.48
360.344	129.88
360.555	56.15
360.766	66.39
360.977	39.76
361.189	80.72
361.4	33.62
361.611	62.29
361.823	82.77
362.034	72.53
362.245	-11.43
362.456	80.72
362.667	74.58
362.879	72.53
363.09	58.2
363.301	64.34
363.512	52.05
363.723	97.11
363.935	129.88
364.146	88.92
364.357	66.39
364.568	93.01
364.779	74.58
364.99	113.49
365.201	47.96
365.412	86.87
365.623	58.2
365.834	56.15
366.045	105.3
366.256	58.2
366.467	123.73
366.678	123.73
366.889	117.59
367.1	54.1
367.311	31.57
367.522	60.24
367.733	105.3
367.944	93.01
368.155	60.24
368.366	-7.34
368.577	58.2
368.788	76.63
368.999	97.11
369.209	47.96
369.42	119.64
369.631	84.82
369.842	15.19
370.053	41.81
370.264	125.78
370.474	50
370.685	76.63
370.896	60.24
371.107	117.59
371.317	111.44
371.528	41.81
371.739	76.63
371.95	33.62
372.16	43.86
372.371	47.96
372.582	62.29
372.792	129.88
373.003	97.11
373.214	64.34
373.424	64.34
373.635	54.1
373.846	105.3
374.056	47.96
374.267	70.48
374.477	23.38
374.688	47.96
374.898	7
375.109	133.97
375.319	37.72
375.53	121.68
375.74	56.15
375.951	23.38
376.161	72.53
376.372	97.11
376.582	39.76
376.793	47.96
377.003	39.76
377.214	64.34
377.424	45.91
377.635	80.72
377.845	56.15
378.055	101.2
378.266	9.05
378.476	-9.39
378.686	7
378.897	74.58
379.107	88.92
379.317	144.21
379.528	80.72
379.738	56.15
379.948	2.9
380.158	60.24
380.369	72.53
380.579	70.48
380.789	88.92
380.999	7
381.21	103.25
381.42	164.69
381.63	15.19
381.84	97.11
382.05	115.54
382.261	50
382.471	64.34
382.681	72.53
382.891	172.88
383.101	-15.53
383.311	17.24
383.521	80.72
383.731	121.68
383.941	97.11
384.151	148.31
384.361	88.92
384.571	39.76
384.781	183.12
384.991	97.11
385.201	33.62
385.411	72.53
385.621	39.76
385.831	99.16
386.041	189.27
386.251	125.78
386.461	88.92
386.671	41.81
386.881	74.58
387.091	39.76
387.301	58.2
387.511	154.45
387.72	47.96
387.93	82.77
388.14	50
388.35	31.57
388.56	90.96
388.769	82.77
388.979	74.58
389.189	15.19
389.399	80.72
389.609	107.35
389.818	131.92
390.028	52.05
390.238	47.96
390.447	72.53
390.657	72.53
390.867	-1.19
391.076	58.2
391.286	68.44
391.496	101.2
391.705	43.86
391.915	115.54
392.125	113.49
392.334	93.01
392.544	74.58
392.753	88.92
392.963	17.24
393.172	154.45
393.382	27.48
393.591	189.27
393.801	93.01
394.01	129.88
394.22	72.53
394.429	35.67
394.639	99.16
394.848	66.39
395.058	88.92
395.267	2.9
395.477	15.19
395.686	9.05
395.895	84.82
396.105	125.78
396.314	60.24
396.524	66.39
396.733	80.72
396.942	41.81
397.152	93.01
397.361	156.5
397.57	64.34
397.78	105.3
397.989	117.59
398.198	205.65
398.407	29.52
398.617	105.3
398.826	39.76
399.035	50
399.244	125.78
399.453	68.44
399.663	84.82
399.872	56.15
400.081	76.63
400.29	191.31
400.499	97.11
400.708	152.4
400.917	148.31
401.127	121.68
401.336	138.07
401.545	121.68
401.754	115.54
401.963	166.74
402.172	121.68
402.381	123.73
402.59	189.27
402.799	144.21
403.008	113.49
403.217	138.07
403.426	121.68
403.635	84.82
403.844	119.64
404.053	211.79
404.262	90.96
404.471	203.6
404.68	144.21
404.888	136.02
405.097	195.41
405.306	209.75
405.515	195.41
405.724	166.74
405.933	252.75
406.142	213.84
406.35	158.55
406.559	195.41
406.768	172.88
406.977	269.14
407.185	187.22
407.394	205.65
407.603	197.46
407.812	267.09
408.02	252.75
408.229	238.42
408.438	279.38
408.646	203.6
408.855	285.52
409.064	344.91
409.272	269.14
409.481	351.06
409.69	265.04
409.898	289.62
410.107	322.38
410.315	383.82
410.524	367.44
410.733	303.95
410.941	369.49
411.15	371.54
411.358	416.59
411.567	404.3
411.775	416.59
411.984	449.36
412.192	510.8
412.401	437.07
412.609	514.89
412.818	543.57
413.026	502.61
413.234	557.9
413.443	549.71
413.651	480.08
413.86	568.14
414.068	695.11
414.276	666.44
414.485	588.62
414.693	691.02
414.901	756.55
415.11	746.31
415.318	678.73
415.526	727.88
415.734	795.47
415.943	803.66
416.151	846.66
416.359	897.86
416.567	813.9
416.776	940.87
416.984	990.02
417.192	994.12
417.4	1014.6
417.608	934.73
417.817	1057.61
418.025	1035.08
418.233	1235.78
418.441	1162.05
418.649	1125.19
418.857	1200.96
419.065	1295.17
419.273	1301.31
419.481	1461.06
419.689	1473.34
419.897	1555.26
420.105	1571.65
420.313	1588.03
420.521	1624.89
420.729	1747.77
420.937	1745.72
421.145	1923.9
421.353	1887.03
421.561	2001.72
421.769	1952.57
421.977	2071.35
422.185	2067.25
422.393	2138.93
422.601	2317.11
422.809	2284.34
423.017	2319.15
423.224	2474.8
423.432	2581.29
423.64	2587.44
423.848	2818.86
424.056	2706.22
424.263	2931.5
424.471	2978.6
424.679	2956.07
424.887	3099.43
425.094	3222.31
425.302	3279.65
425.51	3423.01
425.718	3451.68
425.925	3447.58
426.133	3646.24
426.341	3810.08
426.548	4010.78
426.756	3838.75
426.964	4037.4
427.171	4285.2
427.379	4350.74
427.586	4440.85
427.794	4659.98
428.001	4727.57
428.209	4979.47
428.417	4883.21
428.624	5294.85
428.832	5356.29
429.039	5315.33
429.247	5204.74
429.454	5774.08
429.662	6183.67
429.869	5806.84
430.076	6146.81
430.284	5980.92
430.491	6312.69
430.699	6572.79
430.906	6576.88
431.114	6699.76
431.321	7062.25
431.528	7226.09
431.736	7289.57
431.943	7813.85
432.15	7672.54
432.358	7660.26
432.565	8239.83
432.772	7863.01
432.979	8583.89
433.187	8776.4
433.394	8592.08
433.601	9280.2
433.808	9403.08
434.016	9296.58
434.223	9677.51
434.43	10328.76
434.637	10271.42
434.844	10584.76
435.052	10926.77
435.259	10640.05
435.466	10611.38
435.673	10664.63
435.88	11440.81
436.087	11926.18
436.294	12001.95
436.501	11645.6
436.708	12231.32
436.915	12632.72
437.122	13220.49
437.329	12890.77
437.537	13374.09
437.743	13568.65
437.95	13337.23
438.157	13949.57
438.364	14594.68
438.571	14662.26
438.778	14813.81
438.985	15944.29
439.192	15258.22
439.399	16206.43
439.606	15491.69
439.813	16450.14
440.02	17341
440.227	17146.45
440.433	16886.36
440.64	17861.19
440.847	17775.17
441.054	17949.25
441.261	19038.77
441.467	18821.69
441.674	19081.78
441.881	19563.05
442.088	19632.68
442.294	19692.07
442.501	20218.4
442.708	20548.12
442.914	21443.09
443.121	22163.97
443.328	21682.7
443.534	23136.76
443.741	22553.09
443.948	22200.83
444.154	23814.63
444.361	23914.98
444.568	23990.76
444.774	23912.94
444.981	24285.67
445.187	24687.07
445.394	25739.72
445.6	25516.5
445.807	28211.62
446.013	26884.54
446.22	27640.24
446.426	28363.17
446.633	28840.35
446.839	29718.93
447.046	28838.3
447.252	30187.91
447.459	30364.04
447.665	29880.72
447.871	31574.39
448.078	32549.22
448.284	31005.05
448.491	32153.96
448.697	33220.95
448.903	34031.95
449.11	34177.36
449.316	33657.17
449.522	34234.7
449.728	35135.81
449.935	35481.91
450.141	35428.66
450.347	36084.01
450.553	35002.69
450.76	36008.24
450.966	36901.15
451.172	36600.1
451.378	37404.95
451.584	36747.56
451.791	37421.34
451.997	37515.54
452.203	38105.36
452.409	38078.74
452.615	37609.75
452.821	36507.94
453.027	36229.42
453.233	38228.24
453.44	36442.41
453.646	37124.38
453.852	37378.33
454.058	37810.45
454.264	36981.03
454.47	37935.38
454.676	36483.37
454.882	37939.47
455.088	34445.64
455.294	35336.51
455.5	35664.18
455.705	36442.41
455.911	34818.37
456.117	34455.88
456.323	33954.13
456.529	32037.23
456.735	33571.16
456.941	32797.02
457.147	32244.07
457.352	31320.44
457.558	30972.28
457.764	31017.34
457.97	30294.41
458.176	30060.94
458.381	29778.32
458.587	28348.84
458.793	28543.39
458.999	26900.92
459.204	28809.63
459.41	28236.2
459.616	26200.52
459.821	26442.18
460.027	26243.52
460.233	25948.62
460.438	24650.21
460.644	24697.31
460.85	23439.86
461.055	23345.65
461.261	23341.55
461.466	21602.83
461.672	20845.08
461.878	22112.77
462.083	20941.33
462.289	20615.71
462.494	20441.63
462.7	19282.48
462.905	19200.56
463.111	19692.07
463.316	19823.14
463.522	19153.46
463.727	19319.34
463.932	19126.83
464.138	19094.07
464.343	19305.01
464.549	18733.62
464.754	19006
464.959	19057.2
465.165	18471.48
465.37	18350.65
465.575	17644.1
465.781	18516.54
465.986	18549.31
466.191	17687.11
466.397	17345.1
466.602	16704.09
466.807	17298
467.012	17449.55
467.218	17238.61
467.423	16822.87
467.628	17234.51
467.833	17615.43
468.038	17185.36
468.244	16763.48
468.449	17220.17
468.654	16779.86
468.859	16513.63
469.064	16552.54
469.269	15997.54
469.474	16114.27
469.679	16392.8
469.885	15858.28
470.09	16390.75
470.295	16069.22
470.5	15612.52
470.705	15821.41
470.91	15336.04
471.115	15391.34
471.32	15614.57
471.525	15465.07
471.73	14965.36
471.935	14776.95
472.139	14633.59
472.344	14641.78
472.549	14643.83
472.754	14633.59
472.959	14373.5
473.164	13924.99
473.369	13507.21
473.574	14316.15
473.778	14092.93
473.983	13881.99
474.188	13697.67
474.393	13222.54
474.598	13103.76
474.802	13329.03
475.007	12933.78
475.212	13118.09
475.417	12608.15
475.621	12833.43
475.826	12733.08
476.031	12333.72
476.235	12153.5
476.44	12491.41
476.645	12083.87
476.849	12216.99
477.054	11852.45
477.259	11911.84
477.463	11946.66
477.668	11584.16
477.872	11633.32
478.077	11393.7
478.282	11330.22
478.486	11002.54
478.691	10918.57
478.895	11010.73
479.1	10830.51
479.304	11027.12
479.509	10648.24
479.713	10746.55
479.918	10468.02
480.122	10328.76
480.326	10508.98
480.531	10801.84
480.735	10437.3
480.94	10283.7
481.144	10468.02
481.348	10095.29
481.553	10484.41
481.757	9927.36
481.961	10214.07
482.166	10506.93
482.37	10128.06
482.574	10197.69
482.778	10207.93
482.983	10377.91
483.187	10218.17
483.391	10304.18
483.595	10144.44
483.8	10091.2
484.004	10281.66
484.208	10164.92
484.412	10230.46
484.616	10238.65
484.821	10212.03
485.025	10150.59
485.229	10191.55
485.433	10166.97
485.637	10269.37
485.841	10271.42
486.045	10011.32
486.249	9978.56
486.453	10058.43
486.657	10187.45
486.861	10158.78
487.065	9923.26
487.269	10181.31
487.473	10050.24
487.677	10304.18
487.881	10295.99
488.085	10353.34
488.289	10126.01
488.493	10255.03
488.697	10228.41
488.901	10214.07
489.105	10158.78
489.309	10177.21
489.512	10289.85
489.716	10384.05
489.92	10586.8
490.124	10334.9
490.328	10654.39
490.531	10525.36
490.735	10648.24
490.939	10590.9
491.143	10287.8
491.346	10674.87
491.55	10705.59
491.754	10658.48
491.958	10695.35
492.161	10861.23
492.365	10584.76
492.569	10703.54
492.772	10701.49
492.976	11000.49
493.18	10801.84
493.383	11190.95
493.587	11262.63
493.79	11160.24
493.994	11100.84
494.197	11371.18
494.401	11270.83
494.605	11446.95
494.808	11786.91
495.012	11516.58
495.215	11846.3
495.419	12016.29
495.622	11909.79
495.825	12128.92
496.029	12020.38
496.232	12323.48
496.436	12247.71
496.639	12579.48
496.843	12563.09
497.046	12860.05
497.249	12952.21
497.453	12999.31
497.656	13152.91
497.859	12944.02
498.063	13413
498.266	13646.47
498.469	13466.25
498.673	13574.79
498.876	13949.57
499.079	14025.34
499.282	14293.63
499.485	14410.36
499.689	14654.07
499.892	14703.22
500.095	14633.59
500.298	15161.97
500.501	14760.56
500.705	15600.23
500.908	15655.53
501.111	15915.62
501.314	16069.22
501.517	15811.17
501.72	16472.67
501.923	16169.57
502.126	16745.05
502.329	16898.64
502.532	17072.72
502.735	17304.14
502.938	17306.19
503.141	17498.7
503.344	17838.66
503.547	17941.06
503.75	18033.22
503.953	18387.52
504.156	18594.36
504.359	18657.85
504.562	18799.16
504.765	19331.63
504.968	19354.16
505.17	19610.15
505.373	19921.45
505.576	20312.61
505.779	20351.52
505.982	20492.83
506.185	20804.12
506.387	20937.24
506.59	21172.75
506.793	21842.44
506.996	21660.17
507.198	22456.83
507.401	22147.59
507.604	22354.43
507.807	23028.21
508.009	23015.93
508.212	23208.44
508.415	23622.12
508.617	23896.55
508.82	23910.89
509.022	23896.55
509.225	24306.15
509.428	24500.7
509.63	24904.15
509.833	24836.57
510.035	25786.83
510.238	25643.47
510.44	25932.23
510.643	26018.25
510.845	26704.32
511.048	26235.33
511.25	27031.99
511.453	27249.08
511.655	27945.39
511.858	27851.18
512.06	27795.89
512.262	28264.87
512.465	28473.76
512.667	28959.13
512.87	29125.02
513.072	29155.74
513.274	30013.84
513.477	30085.51
513.679	30347.65
513.881	30642.56
514.084	31226.23
514.286	31201.66
514.488	31537.52
514.69	32145.77
514.893	32119.15
515.095	32389.48
515.297	32645.48
515.499	32874.85
515.701	33204.57
515.904	33536.34
516.106	33626.45
516.308	34126.16
516.51	34408.78
516.712	34462.02
516.914	34924.86
517.116	35645.75
517.318	35490.1
517.52	35703.09
517.722	35981.62
517.925	36303.15
518.127	36995.36
518.329	37050.66
518.531	37228.83
518.733	37749.01
518.935	38082.83
519.136	38164.75
519.338	38551.82
519.54	38899.97
519.742	39481.59
519.944	39381.24
520.146	40284.4
520.348	40032.5
520.55	40442.09
520.752	40528.11
520.954	40898.79
521.155	41087.2
521.357	41830.62
521.559	41885.91
521.761	42262.74
521.963	42322.13
522.164	42307.79
522.366	42696.91
522.568	43452.61
522.77	43245.76
522.971	44261.55
523.173	43663.55
523.375	43978.93
523.576	44155.06
523.778	44218.55
523.98	44812.46
524.181	44830.89
524.383	45025.45
524.584	45756.57
524.786	45793.43
524.988	45559.97
525.189	46330
525.391	46325.91
525.592	46524.56
525.794	46958.73
525.995	46467.22
526.197	46993.54
526.398	47007.88
526.6	47417.47
526.801	47526.02
527.003	48072.82
527.204	47624.32
527.406	48320.63
527.607	48312.44
527.808	48738.41
528.01	47911.03
528.211	48488.56
528.412	49127.53
528.614	48590.96
528.815	48261.24
529.016	49703.01
529.218	49148.01
529.419	49412.2
529.62	49139.82
529.822	49070.18
530.023	49653.86
530.224	49700.96
530.425	49408.1
530.626	49272.93
530.828	49444.96
531.029	50333.78
531.23	49692.77
531.431	49522.79
531.632	49840.22
531.833	50319.45
532.035	49852.51
532.236	50251.86
532.437	50135.13
532.638	50219.1
532.839	50483.28
533.04	49991.77
533.241	49983.58
533.442	50827.34
533.643	50552.91
533.844	50276.44
534.045	50753.61
534.246	49840.22
534.447	50532.43
534.648	50161.75
534.849	50722.9
535.05	50155.61
535.251	51003.47
535.451	50335.83
535.652	50901.07
535.853	50335.83
536.054	50432.08
536.255	50985.04
536.456	50061.4
536.657	51507.27
536.857	50364.5
537.058	50450.52
537.259	50720.85
537.46	50679.89
537.66	50288.73
537.861	50815.05
538.062	50813.01
538.263	51134.54
538.463	50458.71
538.664	50737.23
538.865	50507.86
539.065	50962.51
539.266	50049.11
539.466	50597.97
539.667	49889.37
539.868	50993.23
540.068	50561.11
540.269	50493.52
540.469	51122.25
540.67	50366.55
540.87	50526.29
541.071	50544.72
541.271	50681.94
541.472	50489.43
541.672	50425.94
541.873	50477.14
542.073	49639.52
542.274	50612.31
542.474	50270.29
542.675	50544.72
542.875	50444.37
543.075	50442.32
543.276	49645.66
543.476	50907.21
543.676	50595.92
543.877	50616.4
544.077	50081.88
544.277	50522.19
544.478	50184.28
544.678	50608.21
544.878	50036.83
545.078	49930.33
545.279	49887.32
545.479	50292.82
545.679	50458.71
545.879	50120.79
546.079	50286.68
546.28	50112.6
546.48	49696.86
546.68	50446.42
546.88	50235.48
547.08	50055.26
547.28	49848.41
547.48	49725.53
547.68	49729.63
547.88	49795.17
548.081	50337.88
548.281	50040.92
548.481	49913.95
548.681	50311.25
548.881	50393.17
549.081	50192.47
549.28	49776.73
549.48	50258.01
549.68	49893.47
549.88	49946.72
550.08	49789.02
550.28	49948.76
550.48	49580.13
550.68	50038.87
550.88	49539.17
551.08	49981.53
551.279	49928.28
551.479	49240.17
551.679	49836.12
551.879	49692.77
552.079	50131.03
552.278	49655.9
552.478	49756.25
552.678	49944.67
552.878	49811.55
553.077	49719.39
553.277	49477.73
553.477	49946.72
553.676	49361
553.876	49897.56
554.076	49344.61
554.275	49565.79
554.475	49041.51
554.674	49774.69
554.874	49842.27
555.074	48961.64
555.273	49530.98
555.473	49731.68
555.672	49311.84
555.872	49209.45
556.071	49174.63
556.271	49440.87
556.47	49133.67
556.67	48758.89
556.869	49092.71
557.068	49436.77
557.268	49047.66
557.467	49133.67
557.667	48349.3
557.866	49098.86
558.065	48992.36
558.265	48560.24
558.464	48550
558.663	48900.2
558.863	48111.74
559.062	48797.8
559.261	48396.4
559.461	48992.36
559.66	48164.98
559.859	48384.12
560.058	47904.89
560.258	47851.64
560.457	48089.21
560.656	48683.12
560.855	47966.33
561.054	48369.78
561.253	47833.21
561.453	48136.31
561.652	47943.8
561.851	47997.05
562.05	47681.66
562.249	47597.7
562.448	48005.24
562.647	47536.26
562.846	47929.47
563.045	47509.63
563.244	47327.36
563.443	48009.34
563.642	46618.77
563.841	47526.02
564.04	47184.01
564.239	47366.27
564.438	47513.73
564.637	47337.6
564.836	47194.25
565.035	46680.21
565.234	46755.98
565.432	46479.5
565.631	46342.29
565.83	46551.18
566.029	46536.85
566.228	46559.37
566.427	46434.45
566.625	46485.65
566.824	45711.52
567.023	46164.12
567.222	45488.29
567.42	46291.09
567.619	45867.16
567.818	45791.39
568.016	45588.64
568.215	46121.11
568.414	45232.29
568.612	46092.44
568.811	45871.26
569.01	45621.41
569.208	45285.54
569.407	45238.44
569.605	44808.36
569.804	45232.29
570.002	44517.55
570.201	44941.48
570.4	45154.47
570.598	44560.56
570.797	44521.65
570.995	44421.3
571.193	43665.6
571.392	44908.71
571.59	44015.8
571.789	44249.27
571.987	44249.27
572.186	44126.39
572.384	43919.54
572.582	44165.3
572.781	43856.06
572.979	43434.17
573.177	43421.89
573.376	43856.06
573.574	43856.06
573.772	43520.19
573.971	42981.57
574.169	43061.44
574.367	42952.9
574.565	43110.6
574.763	42821.83
574.962	42463.44
575.16	42295.5
575.358	43139.27
575.556	42442.96
575.754	42430.67
575.952	41822.42
576.151	42533.07
576.349	42035.41
576.547	42029.27
576.745	41980.12
576.943	42260.69
577.141	41867.48
577.339	42021.08
577.537	41439.45
577.735	41453.79
577.933	41201.89
578.131	41271.52
578.329	41042.15
578.527	41038.05
578.725	40974.56
578.923	41453.79
579.121	40548.59
579.319	40833.25
579.516	40687.85
579.714	40614.12
579.912	40044.79
580.11	40159.47
580.308	40706.28
580.506	40405.23
580.704	39635.19
580.901	40331.5
581.099	40044.79
581.297	39649.53
581.495	39764.21
581.692	39694.58
581.89	39409.92
582.088	39782.65
582.285	38926.6
582.483	39328
582.681	39078.15
582.878	38803.72
583.076	38430.99
583.274	39239.93
583.471	38199.57
583.669	38484.23
583.866	38224.14
584.064	38674.7
584.262	38066.45
584.459	38390.03
584.657	38150.42
584.854	38517
585.052	37779.73
585.249	38172.94
585.447	37921.04
585.644	37574.94
585.841	37415.19
586.039	37810.45
586.236	37234.97
586.434	36905.25
586.631	37165.34
586.828	36956.45
587.026	36991.26
587.223	36481.32
587.42	36645.16
587.618	37003.55
587.815	36446.51
588.012	36538.66
588.21	36356.39
588.407	36540.71
588.604	36391.21
588.801	35817.78
588.999	36012.34
589.196	35998
589.393	35799.35
589.59	35672.37
589.787	35535.16
589.984	35402.04
590.182	35305.79
590.379	35707.19
590.576	34926.91
590.773	35299.64
590.97	34982.21
591.167	34984.26
591.364	34726.21
591.561	34859.33
591.758	34320.71
591.955	34607.43
592.152	34568.52
592.349	34296.14
592.546	34296.14
592.743	34400.58
592.94	33632.6
593.137	34361.67
593.334	34429.26
593.531	33513.81
593.727	33927.5
593.924	33958.22
594.121	33311.07
594.318	33804.63
594.515	32903.52
594.712	33358.17
594.908	33290.59
595.105	33186.14
595.302	32762.21
595.499	33229.15
595.696	32921.95
595.892	32534.88
596.089	32530.79
596.286	32567.65
596.482	32446.82
596.679	32559.46
596.876	32156.01
597.072	32274.79
597.269	32084.33
597.466	31719.79
597.662	31658.35
597.859	32035.18
598.055	31816.05
598.252	31555.96
598.448	31457.65
598.645	31279.48
598.841	30986.62
599.038	31134.07
599.234	31340.92
599.431	30845.31
599.627	30734.72
599.824	31220.09
600.02	30638.47
600.217	30761.34
600.413	30556.55
600.609	30110.09
600.806	30013.84
601.002	30583.17
601.198	30183.82
601.395	29874.57
601.591	30210.44
601.787	30271.88
601.984	30095.75
602.18	29944.2
602.376	29440.4
602.572	29503.89
602.769	29632.91
602.965	29075.87
603.161	29395.35
603.357	29122.97
603.553	29073.82
603.75	29206.94
603.946	29053.34
604.142	29006.23
604.338	28481.95
604.534	28783.01
604.73	28555.68
604.926	28389.8
605.122	28666.27
605.318	28457.38
605.514	28176.81
605.71	28361.12
605.906	28168.62
606.102	28160.42
606.298	27720.11
606.494	27789.74
606.69	27861.42
606.886	28209.57
607.082	27417.01
607.278	27865.52
607.474	27072.95
607.67	27292.08
607.866	27175.35
608.062	27351.48
608.257	27580.85
608.453	27101.62
608.649	27427.25
608.845	27083.19
609.041	26896.83
609.236	27066.81
609.432	26982.84
609.628	27019.71
609.824	26812.86
610.019	26591.68
610.215	26714.56
610.411	26855.87
610.606	26552.77
610.802	26569.15
610.998	26360.26
611.193	26448.32
611.389	26472.9
611.584	26360.26
611.78	26071.5
611.976	26309.06
612.171	26186.18
612.367	26028.49
612.562	25549.26
612.758	25586.13
612.953	25557.46
613.149	25883.08
613.344	25786.83
613.539	26005.96
613.735	25833.93
613.93	25627.09
614.126	25668.05
614.321	25782.73
614.517	25749.96
614.712	25563.6
614.907	25197.01
615.103	25514.45
615.298	25090.52
615.493	25508.3
615.688	25061.85
615.884	25536.98
616.079	24988.12
616.274	25194.96
616.47	24768.99
616.665	25203.16
616.86	24910.3
617.055	24742.36
617.25	24760.8
617.445	24676.83
617.641	24093.16
617.836	24713.69
618.031	24068.58
618.226	24390.11
618.421	24418.78
618.616	24480.22
618.811	23869.93
619.006	24072.68
619.201	23966.18
619.396	23828.97
619.591	23329.27
619.786	23702
619.981	23437.81
620.176	23446
620.371	23116.28
620.566	23398.9
620.761	22993.4
620.956	23226.87
621.151	23011.83
621.346	23110.13
621.541	22710.78
621.735	22766.07
621.93	22276.61
622.125	22561.28
622.32	21963.27
622.515	22200.83
622.709	22053.38
622.904	22026.76
623.099	21772.81
623.294	21719.56
623.488	21565.96
623.683	21703.18
623.878	21211.67
624.072	21355.02
624.267	21271.06
624.462	21019.16
624.656	20927
624.851	20793.88
625.046	20662.81
625.24	20550.17
625.435	20380.19
625.629	20560.41
625.824	20175.39
626.018	20337.18
626.213	19626.54
626.407	20128.29
626.602	19671.59
626.796	19733.03
626.991	19833.38
627.185	19554.86
627.38	19438.12
627.574	19221.04
627.768	19341.87
627.963	19184.18
628.157	18815.54
628.352	18926.13
628.546	18526.78
628.74	18917.94
628.935	18498.11
629.129	18596.41
629.323	18346.56
629.517	18410.04
629.712	18428.48
629.906	18172.48
630.1	17885.76
630.294	18004.55
630.489	17990.21
630.683	18090.56
630.877	17398.35
631.071	17455.69
631.265	17597
631.459	17459.79
631.653	17191.5
631.848	17261.13
632.042	17254.99
632.236	17103.44
632.43	16814.68
632.624	16931.41
632.818	16874.07
633.012	16699.99
633.206	16613.98
633.4	16697.94
633.594	16304.73
633.788	16165.47
633.982	16474.71
634.176	16061.02
634.369	15975.01
634.563	16110.18
634.757	15907.43
634.951	15968.87
635.145	15731.3
635.339	15837.8
635.533	15612.52
635.726	15309.42
635.92	15534.7
636.114	15293.04
636.308	15260.27
636.501	15274.6
636.695	15032.94
636.889	15061.62
637.083	14819.96
637.276	14936.69
637.47	14666.36
637.664	14539.38
637.857	14629.49
638.051	14609.01
638.244	14527.1
638.438	14531.19
638.632	14217.85
638.825	14258.81
639.019	14291.58
639.212	14051.97
639.406	13908.61
639.599	13957.76
639.793	14178.94
639.986	13632.13
640.18	13761.16
640.373	13777.54
640.567	13462.15
640.76	13447.82
640.954	13408.9
641.147	13300.36
641.34	13333.13
641.534	13372.04
641.727	13040.27
641.92	13197.96
642.114	12782.23
642.307	12731.03
642.5	12769.94
642.694	12677.78
642.887	12634.77
643.08	12884.62
643.273	12599.96
643.467	12520.09
643.66	12401.3
643.853	12368.54
644.046	12108.44
644.239	12317.34
644.432	12321.43
644.626	12200.6
644.819	12196.51
645.012	11817.63
645.205	12110.49
645.398	11930.27
645.591	11844.26
645.784	11717.28
645.977	11702.95
646.17	11451.05
646.363	11283.11
646.556	11186.86
646.749	11391.66
646.942	11565.73
647.135	11090.6
647.328	11178.67
647.521	11008.69
647.714	10914.48
647.907	10812.08
648.099	10914.48
648.292	10980.01
648.485	10803.89
648.678	10681.01
648.871	10715.83
649.064	10640.05
649.256	10582.71
649.449	10558.13
649.642	10468.02
649.835	10322.62
650.027	10189.5
650.22	10207.93
650.413	10152.63
650.605	10224.31
650.798	10097.34
650.991	9837.25
651.183	10099.39
651.376	9841.34
651.568	10140.35
651.761	9693.89
651.954	10058.43
652.146	9575.11
652.339	9525.96
652.531	9677.51
652.724	9640.64
652.916	9478.85
653.109	9644.74
653.301	9292.49
653.494	9398.98
653.686	9239.24
653.879	9294.54
654.071	9214.66
654.263	8989.39
654.456	9050.83
654.648	9159.37
654.84	8960.72
655.033	8942.28
655.225	8862.41
655.417	8841.93
655.61	8848.08
655.802	8768.21
655.994	8714.96
656.186	8721.1
656.379	8616.66
656.571	8610.51
656.763	8422.1
656.955	8407.77
657.148	8372.95
657.34	8274.65
657.532	8141.53
657.724	8260.31
657.916	8190.68
658.108	8125.15
658.3	8043.23
658.492	7940.83
658.684	7815.9
658.876	7895.77
659.068	8071.9
659.26	7820
659.452	7748.32
659.644	7875.29
659.836	7647.97
660.028	7549.67
660.22	7469.8
660.412	7611.11
660.604	7420.64
660.796	7486.18
660.988	7248.61
661.18	7420.64
661.372	7334.63
661.563	7267.05
661.755	7244.52
661.947	7289.57
662.139	7121.64
662.331	7129.83
662.522	7013.1
662.714	6951.66
662.906	7125.74
663.097	7039.72
663.289	6814.45
663.481	6949.61
663.673	6765.29
663.864	6830.83
664.056	6722.29
664.247	6605.55
664.439	6695.66
664.631	6716.14
664.822	6626.03
665.014	6585.07
665.205	6478.58
665.397	6279.93
665.588	6367.99
665.78	6353.65
665.971	6322.93
666.163	6314.74
666.354	6339.32
666.546	6267.64
666.737	6134.52
666.929	6281.97
667.12	6146.81
667.311	6097.66
667.503	5966.59
667.694	6011.64
667.885	6060.79
668.077	5921.53
668.268	5782.27
668.459	5831.42
668.651	5743.36
668.842	5872.38
669.033	5776.13
669.224	5761.79
669.416	5876.48
669.607	5579.52
669.798	5700.35
669.989	5589.76
670.18	5585.66
670.371	5530.37
670.563	5372.68
670.754	5518.08
670.945	5462.79
671.136	5503.75
671.327	5409.54
671.518	5348.1
671.709	5288.71
671.9	5364.48
672.091	5423.87
672.282	5434.11
672.473	5235.46
672.664	5235.46
672.855	5102.34
673.046	5155.59
673.237	5278.47
673.428	5194.5
673.619	5167.88
673.809	5159.69
674	5104.39
674.191	4897.55
674.382	4872.97
674.573	4911.88
674.764	4909.83
674.954	4940.55
675.145	4823.82
675.336	4963.08
675.527	4827.92
675.717	4901.64
675.908	4678.41
676.099	4844.3
676.289	4733.71
676.48	4762.38
676.671	4686.61
676.861	4735.76
677.052	4899.59
677.243	4719.37
677.433	4733.71
677.624	4856.59
677.814	4545.3
678.005	4645.65
678.195	4664.08
678.386	4522.77
678.576	4520.72
678.767	4592.4
678.957	4487.95
679.148	4664.08
679.338	4543.25
679.529	4598.54
679.719	4348.69
679.909	4490
680.1	4444.95
680.29	4356.88
680.481	4477.71
680.671	4440.85
680.861	4393.75
681.052	4430.61
681.242	4295.44
681.432	4422.42
681.622	4197.14
681.813	4295.44
682.003	4332.31
682.193	4152.09
682.383	4301.59
682.573	4178.71
682.764	4113.17
682.954	4283.16
683.144	4332.31
683.334	4209.43
683.524	4188.95
683.714	4072.22
683.904	4111.13
684.094	4117.27
684.284	4029.21
684.474	4219.67
684.664	4121.37
684.854	4180.76
685.044	4244.24
685.234	4172.57
685.424	4018.97
685.614	4031.26
685.804	4152.09
685.994	3943.19
686.184	4055.83
686.374	4078.36
686.564	4033.3
686.753	4098.84
686.943	3916.57
687.133	3982.1
687.323	3877.66
687.513	3980.06
687.702	3838.75
687.892	3939.1
688.082	3947.29
688.272	3871.51
688.461	3887.9
688.651	3947.29
688.841	3785.5
689.03	3826.46
689.22	3824.41
689.41	3750.68
689.599	3889.95
689.789	3883.8
689.979	3752.73
690.168	3734.3
690.358	3695.39
690.547	3668.77
690.737	3728.16
690.926	3656.48
691.116	3644.19
691.305	3779.36
691.495	3767.07
691.684	3574.56
691.874	3605.28
692.063	3662.62
692.252	3603.23
692.442	3537.7
692.631	3472.16
692.82	3599.13
693.01	3537.7
693.199	3506.98
693.388	3603.23
693.578	3554.08
693.767	3541.79
693.956	3472.16
694.146	3488.54
694.335	3355.43
694.524	3459.87
694.713	3496.74
694.902	3482.4
695.092	3439.39
695.281	3365.67
695.47	3341.09
695.659	3414.82
695.848	3310.37
696.037	3447.58
696.226	3263.27
696.415	3427.11
696.604	3380
696.793	3406.63
696.982	3359.52
697.171	3398.43
697.36	3371.81
697.549	3236.64
697.738	3388.19
697.927	3336.99
698.116	3253.03
698.305	3382.05
698.494	3212.07
698.683	3234.6
698.872	3375.91
699.061	3261.22
699.25	3212.07
699.438	3431.2
699.627	3140.39
699.816	3226.4
700.005	3210.02
700.193	3240.74
700.382	3291.94
700.571	3048.23
700.76	3105.57
700.948	3095.33
701.137	3074.85
701.326	3261.22
701.514	2988.84
701.703	3124.01
701.892	3119.91
702.08	3070.76
702.269	3164.97
702.457	3035.94
702.646	3015.46
702.834	2992.94
703.023	2874.15
703.212	2951.98
703.4	3007.27
703.589	3031.85
703.777	3021.61
703.965	2929.45
704.154	2974.5
704.342	2908.97
704.531	3011.37
704.719	2931.5
704.907	2990.89
705.096	2939.69
705.284	3011.37
705.472	2833.19
705.661	2898.73
705.849	2915.11
706.037	2939.69
706.226	2892.59
706.414	2802.47
706.602	2929.45
706.79	2915.11
706.979	2908.97
707.167	2792.23
707.355	2798.38
707.543	2808.62
707.731	2761.52
707.919	2741.04
708.107	2716.46
708.296	2892.59
708.484	2876.2
708.672	2808.62
708.86	2720.56
709.048	2825
709.236	2732.84
709.424	2759.47
709.612	2794.28
709.8	2730.8
709.988	2706.22
710.176	2636.59
710.364	2769.71
710.551	2687.79
710.739	2704.17
710.927	2808.62
711.115	2724.65
711.303	2759.47
711.491	2726.7
711.679	2687.79
711.866	2636.59
712.054	2620.21
712.242	2724.65
712.43	2665.26
712.617	2589.49
712.805	2544.43
712.993	2663.21
713.181	2530.09
713.368	2710.32
713.556	2554.67
713.744	2507.57
713.931	2599.73
714.119	2620.21
714.306	2472.75
714.494	2624.3
714.682	2476.85
714.869	2480.94
715.057	2353.97
715.244	2464.56
715.432	2501.42
715.619	2435.89
715.807	2566.96
715.994	2480.94
716.182	2497.33
716.369	2523.95
716.556	2474.8
716.744	2448.18
716.931	2507.57
717.119	2562.86
717.306	2548.53
717.493	2562.86
717.681	2378.55
717.868	2480.94
718.055	2482.99
718.242	2415.41
718.43	2403.12
718.617	2485.04
718.804	2417.46
718.991	2511.66
719.179	2358.07
719.366	2353.97
719.553	2370.35
719.74	2353.97
719.927	2327.35
720.114	2433.84
720.301	2343.73
720.488	2204.47
720.676	2345.78
720.863	2196.28
721.05	2351.92
721.237	2261.81
721.424	2290.48
721.611	2378.55
721.798	2161.46
721.985	2302.77
722.172	2341.68
722.358	2200.37
722.545	2306.87
722.732	2235.19
722.919	2212.66
723.106	2270
723.293	2263.86
723.48	2136.88
723.667	2161.46
723.853	2245.43
724.04	2274.1
724.227	2140.98
724.414	2157.36
724.6	2122.55
724.787	2153.27
724.974	2179.89
725.161	2224.95
725.347	2222.9
725.534	2081.59
725.72	2177.84
725.907	2317.11
726.094	2169.65
726.28	2214.71
726.467	2167.6
726.653	2114.36
726.84	2218.8
727.027	2097.97
727.213	2161.46
727.4	2100.02
727.586	2134.84
727.773	2181.94
727.959	2122.55
728.145	2208.56
728.332	2106.17
728.518	2140.98
728.705	2059.06
728.891	2110.26
729.077	1973.05
729.264	2112.31
729.45	2032.44
729.636	2108.21
729.823	2095.93
730.009	1925.94
730.195	1997.62
730.382	1960.76
730.568	2046.77
730.754	2081.59
730.94	1927.99
731.126	2087.73
731.313	2046.77
731.499	2112.31
731.685	2032.44
731.871	1989.43
732.057	1950.52
732.243	2057.01
732.429	1997.62
732.615	1942.33
732.801	2016.05
732.987	1993.53
733.173	2028.34
733.359	1905.46
733.545	1948.47
733.731	1995.57
733.917	2038.58
734.103	1995.57
734.289	1860.41
734.475	2063.16
734.661	1907.51
734.847	1952.57
735.033	1968.95
735.219	1940.28
735.404	1956.66
735.59	1983.29
735.776	1940.28
735.962	1839.93
736.148	1925.94
736.333	1866.55
736.519	1866.55
736.705	1919.8
736.89	1844.03
737.076	1852.22
737.262	1829.69
737.447	1878.84
737.633	1841.98
737.819	1946.42
738.004	1858.36
738.19	1764.15
738.375	1874.74
738.561	1846.07
738.747	1817.4
738.932	1661.76
739.118	1891.13
739.303	1772.35
739.489	1778.49
739.674	1844.03
739.859	1852.22
740.045	1784.63
740.23	1876.79
740.416	1727.29
740.601	1755.96
740.786	1743.67
740.972	1729.34
741.157	1729.34
741.342	1776.44
741.528	1753.91
741.713	1788.73
741.898	1780.54
742.084	1690.43
742.269	1672
742.454	1678.14
742.639	1608.51
742.824	1628.99
743.01	1811.26
743.195	1762.11
743.38	1672
743.565	1739.58
743.75	1643.32
743.935	1567.55
744.12	1725.24
744.305	1547.07
744.49	1661.76
744.675	1661.76
744.86	1631.04
745.045	1579.84
745.23	1649.47
745.415	1528.64
745.6	1596.22
745.785	1571.65
745.97	1661.76
746.155	1567.55
746.34	1628.99
746.525	1442.62
746.71	1557.31
746.895	1588.03
747.079	1540.93
747.264	1524.54
747.449	1551.17
747.634	1469.25
747.819	1563.45
748.003	1424.19
748.188	1393.47
748.373	1510.21
748.557	1475.39
748.742	1434.43
748.927	1450.82
749.111	1438.53
749.296	1424.19
749.481	1354.56
749.665	1395.52
749.85	1350.46
750.034	1452.86
750.219	1450.82
750.404	1446.72
750.588	1366.85
750.773	1405.76
750.957	1364.8
751.141	1256.26
751.326	1289.03
751.51	1248.07
751.695	1366.85
751.879	1329.99
752.064	1276.74
752.248	1280.83
752.432	1278.79
752.617	1368.9
752.801	1391.42
752.985	1264.45
753.17	1295.17
753.354	1155.91
753.538	1256.26
753.722	1227.59
753.907	1264.45
754.091	1215.3
754.275	1096.52
754.459	1123.14
754.643	1137.48
754.828	1117
755.012	1203.01
755.196	1147.72
755.38	1190.72
755.564	1157.96
755.748	1108.8
755.932	1090.37
756.116	1082.18
756.3	1071.94
756.484	1096.52
756.668	1141.57
756.852	977.73
757.036	1033.03
757.22	1114.95
757.404	1026.89
757.588	942.92
757.772	1172.29
757.956	1104.71
758.14	1104.71
758.323	1008.45
758.507	1096.52
758.691	1047.37
758.875	1065.8
759.059	1041.22
759.242	965.45
759.426	951.11
759.61	949.06
759.794	994.12
759.977	990.02
760.161	985.93
760.345	949.06
760.528	965.45
760.712	928.58
760.895	809.8
761.079	908.1
761.263	936.78
761.446	957.25
761.63	990.02
761.813	850.76
761.997	959.3
762.18	922.44
762.364	920.39
762.547	840.52
762.731	879.43
762.914	908.1
763.098	951.11
763.281	772.94
763.464	904.01
763.648	901.96
763.831	863.05
764.015	842.57
764.198	875.34
764.381	856.9
764.564	883.53
764.748	764.75
764.931	817.99
765.114	904.01
765.297	883.53
765.481	817.99
765.664	793.42
765.847	844.62
766.03	910.15
766.213	858.95
766.397	752.46
766.58	787.27
766.763	942.92
766.946	744.27
767.129	746.31
767.312	770.89
767.495	766.79
767.678	852.81
767.861	883.53
768.044	811.85
768.227	877.38
768.41	746.31
768.593	760.65
768.776	768.84
768.959	828.23
769.142	711.5
769.324	670.54
769.507	826.18
769.69	760.65
769.873	762.7
770.056	867.14
770.239	787.27
770.421	674.64
770.604	787.27
770.787	746.31
770.97	742.22
771.152	674.64
771.335	820.04
771.518	762.7
771.7	811.85
771.883	777.03
772.066	688.97
772.248	678.73
772.431	754.51
772.613	729.93
772.796	682.83
772.978	725.83
773.161	734.03
773.343	607.05
773.526	658.25
773.708	705.35
773.891	703.31
774.073	713.55
774.256	756.55
774.438	764.75
774.621	736.07
774.803	670.54
774.985	645.96
775.168	621.39
775.35	598.86
775.532	652.11
775.715	598.86
775.897	621.39
776.079	631.63
776.261	621.39
776.444	688.97
776.626	668.49
776.808	625.48
776.99	590.67
777.173	639.82
777.355	625.48
777.537	582.48
777.719	609.1
777.901	586.57
778.083	639.82
778.265	533.33
778.447	557.9
778.629	555.85
778.811	568.14
778.993	621.39
779.175	580.43
779.357	596.81
779.539	514.89
779.721	541.52
779.903	605
780.085	580.43
780.267	588.62
780.449	533.33
780.631	514.89
780.812	557.9
780.994	588.62
781.176	461.65
781.358	453.45
781.54	475.98
781.721	543.57
781.903	451.41
782.085	549.71
782.267	471.89
782.448	510.8
782.63	424.78
782.812	492.37
782.993	496.46
783.175	473.93
783.357	383.82
783.538	449.36
783.72	396.11
783.901	461.65
784.083	492.37
784.264	498.51
784.446	346.96
784.627	400.21
784.809	449.36
784.99	439.12
785.172	404.3
785.353	482.13
785.535	430.93
785.716	412.5
785.897	332.62
786.079	467.79
786.26	449.36
786.441	394.06
786.623	392.02
786.804	338.77
786.985	414.54
787.167	351.06
787.348	375.63
787.529	326.48
787.71	398.16
787.891	449.36
788.073	344.91
788.254	344.91
788.435	363.34
788.616	402.26
788.797	334.67
788.978	385.87
789.159	383.82
789.34	295.76
789.522	381.78
789.703	328.53
789.884	351.06
790.065	400.21
790.246	435.02
790.427	346.96
790.607	316.24
790.788	287.57
790.969	367.44
791.15	328.53
791.331	277.33
791.512	383.82
791.693	240.47
791.874	328.53
792.054	342.86
792.235	320.34
792.416	301.9
792.597	303.95
792.778	318.29
792.958	312.14
793.139	363.34
793.32	254.8
793.5	252.75
793.681	301.9
793.862	330.58
794.042	260.95
794.223	346.96
794.404	260.95
794.584	301.9
794.765	293.71
794.945	265.04
795.126	228.18
795.306	312.14
795.487	291.66
795.667	230.23
795.848	293.71
796.028	213.84
796.209	244.56
796.389	299.86
796.57	271.19
796.75	236.37
796.93	279.38
797.111	271.19
797.291	279.38
797.471	269.14
797.652	310.1
797.832	228.18
798.012	306
798.192	211.79
798.373	164.69
798.553	224.08
798.733	262.99
798.913	269.14
799.093	207.7
799.274	262.99
799.454	252.75
799.634	185.17
799.814	246.61
799.994	222.03
800.174	203.6
800.354	205.65
800.534	154.45
800.714	228.18
800.894	191.31
801.074	203.6
801.254	170.83
801.434	172.88
801.614	199.51
801.794	215.89
801.974	809.8
802.154	150.36
802.334	318.29
802.514	142.16
802.693	215.89
802.873	203.6
803.053	187.22
803.233	234.32
803.413	299.86
803.592	197.46
803.772	228.18
803.952	154.45
804.131	181.07
804.311	238.42
804.491	240.47
804.67	174.93
804.85	187.22
805.03	203.6
805.209	252.75
805.389	224.08
805.568	203.6
805.748	146.26
805.928	205.65
806.107	140.12
806.287	170.83
806.466	199.51
806.646	162.64
806.825	211.79
807.004	152.4
807.184	146.26
807.363	254.8
807.543	230.23
807.722	121.68
807.901	181.07
808.081	195.41
808.26	154.45
808.439	205.65
808.619	105.3
808.798	127.83
808.977	164.69
809.156	252.75
809.336	179.03
809.515	146.26
809.694	115.54
809.873	121.68
810.052	136.02
810.231	236.37
810.411	174.93
810.59	156.5
810.769	185.17
810.948	191.31
811.127	121.68
811.306	187.22
811.485	172.88
811.664	187.22
811.843	138.07
812.022	230.23
812.201	179.03
812.38	166.74
812.559	107.35
812.737	162.64
812.916	170.83
813.095	84.82
813.274	187.22
813.453	158.55
813.632	138.07
813.811	154.45
813.989	74.58
814.168	164.69
814.347	84.82
814.526	97.11
814.704	154.45
814.883	187.22
815.062	123.73
815.24	191.31
815.419	127.83
815.598	138.07
815.776	74.58
815.955	164.69
816.133	76.63
816.312	113.49
816.49	170.83
816.669	191.31
816.847	142.16
817.026	189.27
817.204	109.4
817.383	191.31
817.561	121.68
817.74	191.31
817.918	117.59
818.097	174.93
818.275	150.36
818.453	52.05
818.632	84.82
818.81	187.22
818.988	76.63
819.167	105.3
819.345	84.82
819.523	105.3
819.701	82.77
819.879	129.88
820.058	33.62
820.236	113.49
820.414	97.11
820.592	138.07
820.77	117.59
820.948	93.01
821.127	72.53
821.305	148.31
821.483	105.3
821.661	181.07
821.839	156.5
822.017	111.44
822.195	103.25
822.373	162.64
822.551	101.2
822.729	76.63
822.907	154.45
823.085	68.44
823.262	80.72
823.44	82.77
823.618	97.11
823.796	103.25
823.974	113.49
824.152	138.07
824.329	84.82
824.507	72.53
824.685	47.96
824.863	109.4
825.04	52.05
825.218	146.26
825.396	56.15
825.574	56.15
825.751	121.68
825.929	131.92
826.107	33.62
826.284	121.68
826.462	125.78
826.639	88.92
826.817	76.63
826.994	64.34
827.172	2.9
827.349	58.2
827.527	117.59
827.704	101.2
827.882	88.92
828.059	150.36
828.237	27.48
828.414	60.24
828.591	-9.39
828.769	58.2
828.946	31.57
829.124	133.97
829.301	52.05
829.478	113.49
829.655	-5.29
829.833	47.96
830.01	60.24
830.187	121.68
830.364	80.72
830.542	9.05
830.719	47.96
830.896	121.68
831.073	64.34
831.25	131.92
831.427	97.11
831.604	129.88
831.782	72.53
831.959	2.9
832.136	105.3
832.313	95.06
832.49	99.16
832.667	93.01
832.844	97.11
833.021	68.44
833.198	93.01
833.374	54.1
833.551	11.09
833.728	115.54
833.905	105.3
834.082	82.77
834.259	54.1
834.436	54.1
834.612	80.72
834.789	107.35
834.966	129.88
835.143	50
835.319	117.59
835.496	107.35
835.673	127.83
835.85	93.01
836.026	107.35
836.203	74.58
836.38	88.92
836.556	93.01
836.733	105.3
836.909	93.01
837.086	78.68
837.262	11.09
837.439	64.34
837.616	113.49
837.792	109.4
837.968	54.1
838.145	17.24
838.321	64.34
838.498	64.34
838.674	64.34
838.851	39.76
839.027	56.15
839.203	17.24
839.38	27.48
839.556	-52.39
839.732	35.67
839.909	62.29
840.085	39.76
840.261	99.16
840.437	80.72
840.614	90.96
840.79	72.53
840.966	31.57
841.142	140.12
841.318	2.9
841.494	43.86
841.671	97.11
841.847	37.72
842.023	33.62
842.199	27.48
842.375	127.83
842.551	-29.87
842.727	50
842.903	60.24
843.079	93.01
843.255	121.68
843.431	68.44
843.607	154.45
843.783	19.29
843.959	58.2
844.134	13.14
844.31	64.34
844.486	66.39
844.662	50
844.838	33.62
845.013	29.52
845.189	64.34
845.365	82.77
845.541	88.92
845.716	56.15
845.892	50
846.068	39.76
846.244	60.24
846.419	15.19
846.595	-7.34
846.77	-13.48
846.946	99.16
847.122	31.57
847.297	41.81
847.473	76.63
847.648	17.24
847.824	-50.35
847.999	-17.58
848.175	23.38
848.35	39.76
848.526	80.72
848.701	52.05
848.876	33.62
849.052	105.3
849.227	35.67
849.403	52.05
849.578	-54.44
849.753	90.96
849.929	93.01
850.104	23.38
850.279	101.2
850.454	115.54
850.63	-9.39
850.805	-17.58
850.98	66.39
851.155	72.53
851.33	-11.43
851.505	2.9
851.681	66.39
851.856	103.25
852.031	105.3
852.206	7
852.381	80.72
852.556	72.53
852.731	7
852.906	35.67
853.081	27.48
853.256	56.15
853.431	23.38
853.606	23.38
853.781	47.96
853.956	-13.48
854.131	43.86
854.305	11.09
854.48	60.24
854.655	15.19
854.83	37.72
855.005	39.76
855.18	-1.19
855.354	-7.34
855.529	84.82
855.704	47.96
855.879	88.92
856.053	47.96
856.228	117.59
856.403	-17.58
856.577	9.05
856.752	-31.91
856.926	72.53
857.101	31.57
857.276	-13.48
857.45	82.77
857.625	127.83
857.799	105.3
857.974	31.57
858.148	7
858.323	68.44
858.497	-38.06
858.672	80.72
858.846	19.29
859.02	15.19
859.195	27.48
859.369	35.67
859.543	29.52
859.718	25.43
859.892	52.05
860.066	-7.34
860.241	37.72
860.415	72.53
860.589	-1.19
860.763	15.19
860.938	37.72
861.112	27.48
861.286	27.48
861.46	88.92
861.634	-1.19
861.808	146.26
861.982	19.29
862.157	43.86
862.331	43.86
862.505	-33.96
862.679	-60.59
862.853	31.57
863.027	27.48
863.201	39.76
863.375	-9.39
863.549	21.33
863.722	-29.87
863.896	50
864.07	-9.39
864.244	29.52
864.418	27.48
864.592	31.57
864.766	33.62
864.939	2.9
865.113	54.1
865.287	97.11
865.461	-1.19
865.634	50
865.808	-13.48
865.982	47.96
866.156	-64.68
866.329	31.57
866.503	19.29
866.676	33.62
866.85	-5.29
867.024	-25.77
867.197	21.33
867.371	72.53
867.544	25.43
867.718	-9.39
867.891	74.58
868.065	-48.3
868.238	11.09
868.412	17.24
868.585	9.05
868.759	60.24
868.932	23.38
869.105	39.76
869.279	-9.39
869.452	68.44
869.625	15.19
869.799	101.2
869.972	31.57
870.145	-13.48
870.319	88.92
870.492	-17.58
870.665	-31.91
870.838	25.43
871.011	-9.39
871.185	11.09
871.358	-9.39
871.531	-1.19
871.704	50
871.877	7
872.05	-9.39
872.223	-25.77
872.396	11.09
872.569	15.19
872.742	7
872.915	-17.58
873.088	25.43
873.261	33.62
873.434	-25.77
873.607	97.11
873.78	23.38
873.953	-54.44
874.126	-25.77
874.299	39.76
874.471	-1.19
874.644	25.43
874.817	0.85
874.99	88.92
875.163	-21.67
875.335	105.3
875.508	17.24
875.681	39.76
875.853	25.43
876.026	-42.15
876.199	33.62
876.371	25.43
876.544	23.38
876.717	68.44
876.889	56.15
877.062	13.14
877.234	43.86
877.407	33.62
877.579	-21.67
877.752	7
877.924	58.2
878.097	15.19
878.269	56.15
878.442	47.96
878.614	-11.43
878.786	-15.53
878.959	41.81
879.131	54.1
879.303	-9.39
879.476	9.05
879.648	-1.19
879.82	31.57
879.993	-21.67
880.165	-7.34
880.337	-25.77
880.509	-31.91
880.681	-7.34
880.854	0.85
881.026	41.81
881.198	84.82
881.37	74.58
881.542	25.43
881.714	-3.24
881.886	7
882.058	7
882.23	41.81
882.402	-23.72
882.574	56.15
882.746	68.44
882.918	25.43
883.09	107.35
883.262	-87.21
883.434	82.77
883.606	56.15
883.778	52.05
883.95	66.39
884.122	33.62
884.293	50
884.465	-54.44
884.637	0.85
884.809	-23.72
884.98	-7.34
885.152	64.34
885.324	-9.39
885.496	-7.34
885.667	15.19
885.839	-15.53
886.011	23.38
886.182	11.09
886.354	88.92
886.525	-9.39
886.697	-9.39
886.869	43.86
887.04	17.24
887.212	27.48
887.383	68.44
887.555	56.15
887.726	58.2
887.897	-54.44
888.069	-89.26
888.24	7
888.412	41.81
888.583	43.86
888.754	17.24
888.926	-42.15
889.097	74.58
889.268	-9.39
889.44	9.05
889.611	-36.01
889.782	-38.06
889.953	-1.19
890.125	80.72
890.296	-17.58
890.467	11.09
890.638	-31.91
890.809	17.24
890.98	-7.34
891.151	56.15
891.323	-42.15
891.494	43.86
891.665	13.14
891.836	2.9
892.007	72.53
892.178	90.96
892.349	62.29
892.52	-48.3
892.691	17.24
892.862	19.29
893.032	-15.53
893.203	15.19
893.374	27.48
893.545	88.92
893.716	4.95
893.887	-5.29
894.057	0.85
894.228	39.76
894.399	-23.72
894.57	64.34
894.74	-38.06
894.911	-23.72
895.082	-31.91
895.253	-5.29
895.423	-54.44
895.594	56.15
895.764	47.96
895.935	-15.53
896.106	39.76
896.276	-27.82
896.447	35.67
896.617	-5.29
896.788	19.29
896.958	-31.91
897.129	60.24
897.299	-25.77
897.47	33.62
897.64	88.92
897.81	15.19
897.981	43.86
898.151	31.57
898.322	121.68
898.492	35.67
898.662	7
898.832	-21.67
899.003	25.43
899.173	23.38
899.343	-5.29
899.513	-40.11
