Data from USB4F104151__236__14-45-44-084.txt Node

Date: Thu Mar 13 14:45:44 EDT 2025
User: louis
Spectrometer: USB4F10415
Trigger mode: 4
Integration Time (sec): 2.000000E-2
Scans to average: 1
Electric dark correction enabled: true
Nonlinearity correction enabled: false
Boxcar width: 0
XAxis mode: Wavelengths
Number of Pixels in Spectrum: 3648
>>>>>Begin Spectral Data<<<<<
178.204	-188.75
178.424	-188.75
178.644	-188.75
178.864	-133.46
179.084	-108.88
179.304	-59.73
179.524	11.95
179.744	-37.2
179.964	46.76
180.184	46.76
180.404	-26.96
180.624	-10.58
180.844	7.85
181.064	-6.49
181.283	-2.39
181.503	-18.77
181.723	48.81
181.943	-16.73
182.163	30.38
182.383	13.99
182.602	67.24
182.822	50.86
183.042	38.57
183.262	-33.11
183.482	5.8
183.701	-22.87
183.921	-26.96
184.141	46.76
184.361	42.67
184.58	-2.39
184.8	7.85
185.02	-49.49
185.239	63.15
185.459	-8.53
185.679	75.43
185.898	13.99
186.118	24.23
186.338	13.99
186.557	-26.96
186.777	13.99
186.997	-10.58
187.216	-16.73
187.436	65.19
187.655	54.95
187.875	63.15
188.095	-37.2
188.314	16.04
188.534	83.63
188.753	26.28
188.973	54.95
189.192	87.72
189.412	3.75
189.631	16.04
189.851	-33.11
190.07	48.81
190.29	-2.39
190.509	5.8
190.729	7.85
190.948	-35.16
191.168	93.87
191.387	97.96
191.607	38.57
191.826	59.05
192.045	-26.96
192.265	95.91
192.484	5.8
192.704	-2.39
192.923	38.57
193.142	79.53
193.362	-51.54
193.581	-10.58
193.8	-0.34
194.02	20.14
194.239	52.91
194.458	36.52
194.678	5.8
194.897	7.85
195.116	46.76
195.335	128.68
195.555	104.11
195.774	-57.68
195.993	91.82
196.212	54.95
196.432	-6.49
196.651	-57.68
196.87	-59.73
197.089	54.95
197.308	81.58
197.528	57
197.747	-39.25
197.966	11.95
198.185	24.23
198.404	7.85
198.623	16.04
198.842	-24.92
199.062	79.53
199.281	108.2
199.5	-6.49
199.719	79.53
199.938	22.19
200.157	13.99
200.376	18.09
200.595	104.11
200.814	104.11
201.033	9.9
201.252	48.81
201.471	-0.34
201.69	38.57
201.909	42.67
202.128	54.95
202.347	22.19
202.566	-24.92
202.785	-18.77
203.004	-16.73
203.223	52.91
203.442	-2.39
203.661	-2.39
203.879	-20.82
204.098	16.04
204.317	-51.54
204.536	104.11
204.755	22.19
204.974	71.34
205.193	67.24
205.411	57
205.63	38.57
205.849	18.09
206.068	22.19
206.287	-10.58
206.505	44.71
206.724	-18.77
206.943	18.09
207.162	59.05
207.381	7.85
207.599	-4.44
207.818	54.95
208.037	28.33
208.255	-49.49
208.474	77.48
208.693	-14.68
208.911	13.99
209.13	-18.77
209.349	9.9
209.567	-41.3
209.786	5.8
210.005	75.43
210.223	5.8
210.442	22.19
210.661	57
210.879	13.99
211.098	46.76
211.316	18.09
211.535	38.57
211.753	46.76
211.972	36.52
212.191	9.9
212.409	16.04
212.628	7.85
212.846	30.38
213.065	42.67
213.283	48.81
213.502	-22.87
213.72	-2.39
213.938	59.05
214.157	38.57
214.375	87.72
214.594	-18.77
214.812	13.99
215.031	26.28
215.249	40.62
215.467	24.23
215.686	50.86
215.904	63.15
216.122	-2.39
216.341	54.95
216.559	79.53
216.778	38.57
216.996	-8.53
217.214	120.49
217.432	-76.12
217.651	-35.16
217.869	30.38
218.087	54.95
218.306	9.9
218.524	42.67
218.742	-41.3
218.96	-29.01
219.179	-33.11
219.397	5.8
219.615	63.15
219.833	59.05
220.051	16.04
220.27	75.43
220.488	38.57
220.706	5.8
220.924	-31.06
221.142	-26.96
221.36	22.19
221.578	9.9
221.796	38.57
222.015	81.58
222.233	40.62
222.451	13.99
222.669	26.28
222.887	42.67
223.105	-2.39
223.323	32.43
223.541	13.99
223.759	46.76
223.977	18.09
224.195	57
224.413	122.54
224.631	-10.58
224.849	81.58
225.067	65.19
225.285	-29.01
225.503	38.57
225.721	-47.44
225.939	1.71
226.157	75.43
226.375	95.91
226.592	-35.16
226.81	-65.88
227.028	30.38
227.246	40.62
227.464	63.15
227.682	106.15
227.9	81.58
228.117	3.75
228.335	-84.31
228.553	46.76
228.771	38.57
228.989	46.76
229.206	61.1
229.424	-82.26
229.642	-43.35
229.86	-47.44
230.077	-2.39
230.295	-2.39
230.513	-12.63
230.731	-33.11
230.948	38.57
231.166	104.11
231.384	59.05
231.601	38.57
231.819	46.76
232.037	65.19
232.254	-2.39
232.472	42.67
232.689	-16.73
232.907	50.86
233.125	1.71
233.342	-8.53
233.56	77.48
233.777	42.67
233.995	30.38
234.213	-0.34
234.43	59.05
234.648	71.34
234.865	-10.58
235.083	9.9
235.3	-2.39
235.518	1.71
235.735	67.24
235.953	5.8
236.17	5.8
236.388	24.23
236.605	-0.34
236.822	-6.49
237.04	42.67
237.257	24.23
237.475	38.57
237.692	106.15
237.909	71.34
238.127	46.76
238.344	-10.58
238.562	95.91
238.779	5.8
238.996	-69.97
239.214	79.53
239.431	38.57
239.648	-26.96
239.865	59.05
240.083	13.99
240.3	36.52
240.517	95.91
240.735	71.34
240.952	-0.34
241.169	106.15
241.386	71.34
241.603	-8.53
241.821	-18.77
242.038	95.91
242.255	-24.92
242.472	-47.44
242.689	38.57
242.907	-8.53
243.124	1.71
243.341	71.34
243.558	-59.73
243.775	11.95
243.992	-55.64
244.209	-10.58
244.426	54.95
244.643	38.57
244.86	46.76
245.078	48.81
245.295	44.71
245.512	65.19
245.729	28.33
245.946	34.47
246.163	22.19
246.38	32.43
246.597	52.91
246.814	-2.39
247.031	3.75
247.248	-18.77
247.464	63.15
247.681	34.47
247.898	13.99
248.115	24.23
248.332	36.52
248.549	75.43
248.766	54.95
248.983	16.04
249.2	73.39
249.417	-18.77
249.633	108.2
249.85	54.95
250.067	28.33
250.284	122.54
250.501	54.95
250.717	46.76
250.934	-41.3
251.151	18.09
251.368	79.53
251.585	46.76
251.801	38.57
252.018	-33.11
252.235	79.53
252.451	54.95
252.668	-6.49
252.885	59.05
253.102	13.99
253.318	-41.3
253.535	40.62
253.752	73.39
253.968	34.47
254.185	-26.96
254.401	26.28
254.618	30.38
254.835	42.67
255.051	73.39
255.268	104.11
255.484	52.91
255.701	-18.77
255.917	11.95
256.134	-49.49
256.351	57
256.567	-8.53
256.784	38.57
257	-35.16
257.217	48.81
257.433	1.71
257.65	106.15
257.866	30.38
258.082	28.33
258.299	-80.21
258.515	65.19
258.732	89.77
258.948	7.85
259.165	7.85
259.381	-2.39
259.597	5.8
259.814	91.82
260.03	22.19
260.246	32.43
260.463	97.96
260.679	44.71
260.895	-6.49
261.112	71.34
261.328	54.95
261.544	-2.39
261.761	100.01
261.977	75.43
262.193	-24.92
262.409	40.62
262.626	73.39
262.842	38.57
263.058	50.86
263.274	22.19
263.49	-18.77
263.707	11.95
263.923	-2.39
264.139	16.04
264.355	-0.34
264.571	63.15
264.787	59.05
265.004	13.99
265.22	38.57
265.436	-10.58
265.652	18.09
265.868	54.95
266.084	-63.83
266.3	-8.53
266.516	46.76
266.732	-33.11
266.948	24.23
267.164	26.28
267.38	75.43
267.596	38.57
267.812	63.15
268.028	36.52
268.244	13.99
268.46	48.81
268.676	38.57
268.892	59.05
269.108	7.85
269.324	1.71
269.54	54.95
269.756	24.23
269.972	-18.77
270.188	24.23
270.403	28.33
270.619	30.38
270.835	26.28
271.051	73.39
271.267	38.57
271.483	13.99
271.698	5.8
271.914	59.05
272.13	22.19
272.346	32.43
272.562	-47.44
272.777	7.85
272.993	104.11
273.209	13.99
273.425	26.28
273.64	-67.92
273.856	-26.96
274.072	13.99
274.287	7.85
274.503	1.71
274.719	30.38
274.934	-35.16
275.15	59.05
275.366	46.76
275.581	7.85
275.797	57
276.012	46.76
276.228	26.28
276.444	-20.82
276.659	50.86
276.875	38.57
277.09	81.58
277.306	-10.58
277.521	54.95
277.737	5.8
277.952	50.86
278.168	-29.01
278.383	59.05
278.599	34.47
278.814	40.62
279.03	24.23
279.245	-8.53
279.461	7.85
279.676	50.86
279.892	1.71
280.107	22.19
280.322	-0.34
280.538	-37.2
280.753	16.04
280.969	3.75
281.184	40.62
281.399	83.63
281.615	5.8
281.83	59.05
282.045	-35.16
282.26	-16.73
282.476	13.99
282.691	50.86
282.906	69.29
283.122	73.39
283.337	-12.63
283.552	63.15
283.767	1.71
283.983	-16.73
284.198	-43.35
284.413	93.87
284.628	-22.87
284.843	-0.34
285.058	40.62
285.274	26.28
285.489	-18.77
285.704	40.62
285.919	22.19
286.134	-6.49
286.349	-43.35
286.564	-10.58
286.779	20.14
286.995	69.29
287.21	-72.02
287.425	32.43
287.64	-51.54
287.855	-24.92
288.07	-31.06
288.285	57
288.5	57
288.715	-2.39
288.93	-10.58
289.145	40.62
289.36	-47.44
289.575	-8.53
289.79	7.85
290.004	46.76
290.219	18.09
290.434	46.76
290.649	81.58
290.864	32.43
291.079	-33.11
291.294	32.43
291.509	81.58
291.724	38.57
291.938	5.8
292.153	46.76
292.368	46.76
292.583	50.86
292.798	-4.44
293.012	46.76
293.227	7.85
293.442	20.14
293.657	57
293.871	-14.68
294.086	5.8
294.301	73.39
294.516	89.77
294.73	13.99
294.945	-51.54
295.16	18.09
295.374	48.81
295.589	34.47
295.804	-33.11
296.018	28.33
296.233	13.99
296.447	30.38
296.662	93.87
296.877	93.87
297.091	-24.92
297.306	18.09
297.52	79.53
297.735	-2.39
297.949	34.47
298.164	71.34
298.378	22.19
298.593	-20.82
298.807	30.38
299.022	16.04
299.236	40.62
299.451	-29.01
299.665	54.95
299.88	79.53
300.094	18.09
300.309	24.23
300.523	-80.21
300.737	7.85
300.952	-8.53
301.166	54.95
301.381	-37.2
301.595	-24.92
301.809	-12.63
302.024	63.15
302.238	22.19
302.452	32.43
302.667	5.8
302.881	114.34
303.095	-6.49
303.309	5.8
303.524	67.24
303.738	22.19
303.952	36.52
304.166	67.24
304.381	22.19
304.595	67.24
304.809	42.67
305.023	48.81
305.237	-18.77
305.452	79.53
305.666	52.91
305.88	46.76
306.094	54.95
306.308	40.62
306.522	149.16
306.736	7.85
306.95	79.53
307.164	-8.53
307.379	-0.34
307.593	97.96
307.807	46.76
308.021	5.8
308.235	54.95
308.449	-63.83
308.663	5.8
308.877	5.8
309.091	-6.49
309.305	24.23
309.519	28.33
309.733	42.67
309.947	-10.58
310.161	87.72
310.374	79.53
310.588	67.24
310.802	-18.77
311.016	7.85
311.23	83.63
311.444	-18.77
311.658	24.23
311.872	24.23
312.085	140.97
312.299	52.91
312.513	26.28
312.727	22.19
312.941	30.38
313.154	18.09
313.368	22.19
313.582	13.99
313.796	34.47
314.009	-2.39
314.223	71.34
314.437	-12.63
314.651	-2.39
314.864	22.19
315.078	38.57
315.292	-12.63
315.505	54.95
315.719	87.72
315.933	71.34
316.146	30.38
316.36	46.76
316.573	-2.39
316.787	108.2
317.001	87.72
317.214	30.38
317.428	38.57
317.641	46.76
317.855	91.82
318.068	-10.58
318.282	54.95
318.495	30.38
318.709	-12.63
318.922	-74.07
319.136	100.01
319.349	87.72
319.563	-35.16
319.776	-41.3
319.99	-10.58
320.203	28.33
320.417	63.15
320.63	-10.58
320.843	48.81
321.057	77.48
321.27	-57.68
321.483	61.1
321.697	63.15
321.91	59.05
322.124	71.34
322.337	28.33
322.55	87.72
322.763	-22.87
322.977	-14.68
323.19	59.05
323.403	40.62
323.617	34.47
323.83	32.43
324.043	1.71
324.256	73.39
324.469	-2.39
324.683	61.1
324.896	42.67
325.109	42.67
325.322	-29.01
325.535	-6.49
325.748	34.47
325.962	38.57
326.175	5.8
326.388	-2.39
326.601	22.19
326.814	65.19
327.027	-16.73
327.24	145.06
327.453	50.86
327.666	30.38
327.879	-10.58
328.092	1.71
328.305	-2.39
328.518	-2.39
328.731	65.19
328.944	73.39
329.157	-20.82
329.37	91.82
329.583	93.87
329.796	-0.34
330.009	54.95
330.222	16.04
330.435	59.05
330.648	30.38
330.861	67.24
331.073	7.85
331.286	16.04
331.499	38.57
331.712	-35.16
331.925	-6.49
332.138	46.76
332.35	38.57
332.563	-6.49
332.776	46.76
332.989	-8.53
333.202	71.34
333.414	-6.49
333.627	48.81
333.84	18.09
334.053	24.23
334.265	-4.44
334.478	32.43
334.691	7.85
334.903	34.47
335.116	24.23
335.329	26.28
335.541	54.95
335.754	93.87
335.966	9.9
336.179	-16.73
336.392	63.15
336.604	40.62
336.817	40.62
337.029	5.8
337.242	42.67
337.454	7.85
337.667	38.57
337.88	22.19
338.092	24.23
338.305	13.99
338.517	20.14
338.729	38.57
338.942	83.63
339.154	-37.2
339.367	-41.3
339.579	-2.39
339.792	-31.06
340.004	48.81
340.217	-41.3
340.429	20.14
340.641	-31.06
340.854	-55.64
341.066	-8.53
341.278	91.82
341.491	112.3
341.703	77.48
341.915	57
342.128	50.86
342.34	50.86
342.552	1.71
342.764	75.43
342.977	30.38
343.189	63.15
343.401	-6.49
343.613	-16.73
343.826	-16.73
344.038	73.39
344.25	71.34
344.462	52.91
344.674	16.04
344.886	63.15
345.099	67.24
345.311	34.47
345.523	63.15
345.735	42.67
345.947	77.48
346.159	50.86
346.371	48.81
346.583	-0.34
346.795	145.06
347.007	-18.77
347.219	-35.16
347.431	22.19
347.643	-6.49
347.855	34.47
348.067	79.53
348.279	18.09
348.491	42.67
348.703	54.95
348.915	63.15
349.127	1.71
349.339	79.53
349.551	30.38
349.763	44.71
349.975	38.57
350.187	87.72
350.399	67.24
350.61	30.38
350.822	54.95
351.034	54.95
351.246	-26.96
351.458	63.15
351.669	-0.34
351.881	-33.11
352.093	30.38
352.305	63.15
352.517	40.62
352.728	50.86
352.94	59.05
353.152	13.99
353.363	1.71
353.575	18.09
353.787	120.49
353.999	100.01
354.21	-0.34
354.422	5.8
354.633	32.43
354.845	20.14
355.057	5.8
355.268	38.57
355.48	30.38
355.692	-10.58
355.903	61.1
356.115	-2.39
356.326	-63.83
356.538	132.78
356.749	91.82
356.961	75.43
357.172	-8.53
357.384	-18.77
357.595	-10.58
357.807	-14.68
358.018	73.39
358.23	112.3
358.441	22.19
358.653	79.53
358.864	32.43
359.075	-18.77
359.287	85.67
359.498	-6.49
359.709	32.43
359.921	22.19
360.132	106.15
360.344	24.23
360.555	24.23
360.766	5.8
360.977	-2.39
361.189	122.54
361.4	30.38
361.611	120.49
361.823	91.82
362.034	85.67
362.245	-47.44
362.456	-10.58
362.667	46.76
362.879	-16.73
363.09	89.77
363.301	122.54
363.512	20.14
363.723	1.71
363.935	83.63
364.146	57
364.357	7.85
364.568	40.62
364.779	1.71
364.99	67.24
365.201	-20.82
365.412	79.53
365.623	1.71
365.834	-2.39
366.045	34.47
366.256	-0.34
366.467	42.67
366.678	46.76
366.889	38.57
367.1	-51.54
367.311	5.8
367.522	22.19
367.733	9.9
367.944	104.11
368.155	46.76
368.366	59.05
368.577	48.81
368.788	89.77
368.999	-10.58
369.209	-35.16
369.42	81.58
369.631	42.67
369.842	63.15
370.053	-55.64
370.264	126.63
370.474	38.57
370.685	20.14
370.896	73.39
371.107	79.53
371.317	116.39
371.528	13.99
371.739	95.91
371.95	-31.06
372.16	59.05
372.371	-8.53
372.582	13.99
372.792	69.29
373.003	22.19
373.214	61.1
373.424	9.9
373.635	-51.54
373.846	104.11
374.056	16.04
374.267	128.68
374.477	22.19
374.688	18.09
374.898	38.57
375.109	46.76
375.319	-22.87
375.53	59.05
375.74	50.86
375.951	-4.44
376.161	-6.49
376.372	-26.96
376.582	16.04
376.793	26.28
377.003	-10.58
377.214	-24.92
377.424	63.15
377.635	-14.68
377.845	46.76
378.055	89.77
378.266	26.28
378.476	-47.44
378.686	100.01
378.897	63.15
379.107	24.23
379.317	89.77
379.528	40.62
379.738	77.48
379.948	32.43
380.158	54.95
380.369	-18.77
380.579	54.95
380.789	32.43
380.999	59.05
381.21	85.67
381.42	-0.34
381.63	-4.44
381.84	42.67
382.05	100.01
382.261	89.77
382.471	24.23
382.681	36.52
382.891	83.63
383.101	79.53
383.311	57
383.521	32.43
383.731	42.67
383.941	48.81
384.151	112.3
384.361	75.43
384.571	140.97
384.781	52.91
384.991	16.04
385.201	81.58
385.411	22.19
385.621	95.91
385.831	30.38
386.041	7.85
386.251	95.91
386.461	136.87
386.671	30.38
386.881	69.29
387.091	-26.96
387.301	106.15
387.511	-86.36
387.72	63.15
387.93	40.62
388.14	46.76
388.35	57
388.56	140.97
388.769	106.15
388.979	46.76
389.189	-41.3
389.399	-2.39
389.609	104.11
389.818	5.8
390.028	67.24
390.238	26.28
390.447	42.67
390.657	3.75
390.867	34.47
391.076	71.34
391.286	28.33
391.496	-2.39
391.705	-63.83
391.915	63.15
392.125	63.15
392.334	32.43
392.544	34.47
392.753	73.39
392.963	57
393.172	42.67
393.382	46.76
393.591	120.49
393.801	63.15
394.01	114.34
394.22	-51.54
394.429	79.53
394.639	116.39
394.848	22.19
395.058	147.11
395.267	-18.77
395.477	67.24
395.686	40.62
395.895	134.82
396.105	169.64
396.314	75.43
396.524	7.85
396.733	65.19
396.942	100.01
397.152	104.11
397.361	100.01
397.57	57
397.78	79.53
397.989	134.82
398.198	186.02
398.407	128.68
398.617	71.34
398.826	46.76
399.035	13.99
399.244	1.71
399.453	100.01
399.663	89.77
399.872	138.92
400.081	13.99
400.29	208.55
400.499	3.75
400.708	138.92
400.917	46.76
401.127	40.62
401.336	5.8
401.545	91.82
401.754	71.34
401.963	-45.4
402.172	102.06
402.381	40.62
402.59	71.34
402.799	46.76
403.008	128.68
403.217	130.73
403.426	128.68
403.635	44.71
403.844	100.01
404.053	153.26
404.262	116.39
404.471	136.87
404.68	93.87
404.888	145.06
405.097	112.3
405.306	235.18
405.515	87.72
405.724	83.63
405.933	95.91
406.142	145.06
406.35	202.41
406.559	97.96
406.768	95.91
406.977	218.79
407.185	126.63
407.394	181.93
407.603	95.91
407.812	171.69
408.02	210.6
408.229	202.41
408.438	204.46
408.646	161.45
408.855	181.93
409.064	251.56
409.272	222.89
409.481	194.22
409.69	243.37
409.898	220.84
410.107	288.42
410.315	251.56
410.524	214.7
410.733	284.33
410.941	351.91
411.15	337.57
411.358	310.95
411.567	325.29
411.775	265.89
411.984	253.61
412.192	310.95
412.401	321.19
412.609	411.3
412.818	394.92
413.026	435.88
413.234	411.3
413.443	378.53
413.651	401.06
413.86	401.06
414.068	534.18
414.276	480.93
414.485	431.78
414.693	464.55
414.901	671.39
415.11	638.62
415.318	534.18
415.526	605.86
415.734	599.71
415.943	562.85
416.151	720.54
416.359	644.77
416.567	669.34
416.776	704.16
416.984	859.81
417.192	835.23
417.4	814.75
417.608	833.18
417.817	822.94
418.025	923.29
418.233	974.49
418.441	908.96
418.649	882.33
418.857	1035.93
419.065	1134.23
419.273	1025.69
419.481	1150.62
419.689	1074.84
419.897	1095.32
420.105	1148.57
420.313	1263.26
420.521	1349.27
420.729	1324.69
420.937	1406.61
421.145	1339.03
421.353	1445.52
421.561	1603.22
421.769	1445.52
421.977	1580.69
422.185	1535.64
422.393	1760.91
422.601	1742.48
422.809	1701.52
423.017	1779.34
423.224	1857.17
423.432	1996.43
423.64	1957.52
423.848	2205.32
424.056	2107.02
424.263	2246.28
424.471	2299.53
424.679	2383.49
424.887	2457.22
425.094	2631.3
425.302	2514.56
425.51	2545.28
425.718	2700.93
425.925	2711.17
426.133	2799.23
426.341	2979.45
426.548	3135.1
426.756	3120.76
426.964	3092.09
427.171	3307.13
427.379	3462.77
427.586	3440.25
427.794	3569.27
428.001	3761.78
428.209	3880.56
428.417	3864.18
428.624	4083.31
428.832	4095.6
429.039	4068.97
429.247	4060.78
429.454	4476.52
429.662	4699.75
429.869	4494.95
430.076	4785.76
430.284	4494.95
430.491	4931.17
430.699	5135.96
430.906	5088.86
431.114	5355.1
431.321	5588.57
431.528	5588.57
431.736	5910.1
431.943	6235.72
432.15	6051.41
432.358	6102.61
432.565	6381.13
432.772	6317.64
432.979	6676.04
433.187	6825.54
433.394	6690.37
433.601	7239.23
433.808	7370.3
434.016	7370.3
434.223	7519.8
434.43	7966.26
434.637	7847.47
434.844	8281.64
435.052	8549.93
435.259	8508.97
435.466	8332.84
435.673	8320.56
435.88	9047.58
436.087	9258.53
436.294	9483.8
436.501	9111.07
436.708	9377.31
436.915	9766.42
437.122	10057.23
437.329	10065.43
437.537	10534.41
437.743	10544.65
437.95	10604.04
438.157	11019.78
438.364	11306.49
438.571	11527.67
438.778	11539.96
438.985	12565.99
439.192	12150.26
439.399	12314.09
439.606	12199.41
439.813	13016.55
440.02	13778.39
440.227	13290.98
440.433	13114.85
440.64	13833.69
440.847	13577.69
441.054	13940.18
441.261	14855.62
441.467	14802.38
441.674	15152.58
441.881	15463.87
442.088	15558.08
442.294	15175.11
442.501	15619.52
442.708	16090.55
442.914	16672.17
443.121	17538.46
443.328	17005.99
443.534	17956.25
443.741	17671.58
443.948	17538.46
444.154	18306.45
444.361	18529.68
444.568	18709.9
444.774	18718.09
444.981	18642.32
445.187	19271.04
445.394	20149.62
445.6	19723.65
445.807	22084.95
446.013	20915.56
446.22	21312.87
446.426	22113.63
446.633	22455.64
446.839	23029.07
447.046	22115.67
447.252	23588.16
447.459	23375.17
447.665	23037.26
447.871	24450.36
448.078	25435.43
448.284	24268.09
448.491	25115.95
448.697	25990.43
448.903	26301.72
449.11	26436.89
449.316	25955.61
449.522	26600.72
449.728	27010.32
449.935	27196.68
450.141	27346.19
450.347	28103.93
450.553	27575.56
450.76	27731.2
450.966	28286.2
451.172	28220.67
451.378	28900.59
451.584	28310.78
451.791	28902.64
451.997	28802.29
452.203	29592.81
452.409	29334.76
452.615	29265.13
452.821	28259.58
453.027	28118.27
453.233	29426.92
453.44	28329.21
453.646	28697.84
453.852	28583.16
454.058	29275.37
454.264	28462.33
454.47	29093.1
454.676	28378.36
454.882	29256.94
455.088	26742.03
455.294	27399.43
455.5	27313.42
455.705	27589.89
455.911	26725.65
456.117	26453.27
456.323	26191.13
456.529	24507.7
456.735	26064.16
456.941	24948.01
457.147	24821.04
457.352	23919.93
457.558	23817.54
457.764	23725.38
457.97	23113.03
458.176	23354.69
458.381	22904.14
458.587	21601.63
458.793	21841.25
458.999	20682.1
459.204	22074.71
459.41	21607.78
459.616	20391.28
459.821	20135.29
460.027	20067.7
460.233	19705.21
460.438	18791.82
460.644	19301.76
460.85	17792.41
461.055	17911.19
461.261	17667.49
461.466	16565.68
461.672	15961.53
461.878	17092.01
462.083	16016.82
462.289	15685.05
462.494	15629.76
462.7	14740.94
462.905	14515.66
463.111	15103.43
463.316	15144.39
463.522	14765.51
463.727	14603.72
463.932	14996.93
464.138	14618.06
464.343	14599.63
464.549	14005.72
464.754	14876.1
464.959	14368.21
465.165	14515.66
465.37	13895.13
465.575	13506.01
465.781	13903.32
465.986	14138.83
466.191	13426.14
466.397	13301.22
466.602	12809.7
466.807	13278.69
467.012	13147.62
467.218	12944.87
467.423	12717.54
467.628	12955.11
467.833	13579.74
468.038	12938.73
468.244	12713.45
468.449	13133.28
468.654	12649.96
468.859	12500.46
469.064	12639.72
469.269	12238.32
469.474	12240.37
469.679	12459.5
469.885	12019.19
470.09	12191.22
470.295	12205.55
470.5	11855.35
470.705	12066.29
470.91	11746.81
471.115	11761.14
471.32	11757.05
471.525	11687.42
471.73	11417.08
471.935	11142.66
472.139	11050.5
472.344	10958.34
472.549	11097.6
472.754	10886.66
472.959	10591.75
473.164	10526.22
473.369	10503.69
473.574	10841.61
473.778	10759.69
473.983	10546.7
474.188	10458.64
474.393	10130.96
474.598	10241.55
474.802	10057.23
475.007	9829.91
475.212	9895.44
475.417	9592.34
475.621	9569.82
475.826	9541.15
476.031	9414.17
476.235	9178.65
476.44	9375.26
476.645	9123.36
476.849	9217.57
477.054	9047.58
477.259	9051.68
477.463	8908.32
477.668	8721.96
477.872	8814.12
478.077	8597.03
478.282	8394.28
478.486	8515.11
478.691	8369.71
478.895	8422.95
479.1	8431.15
479.304	8308.27
479.509	8054.32
479.713	8560.17
479.918	7915.06
480.122	8060.46
480.326	7861.81
480.531	8111.66
480.735	7839.28
480.94	7910.96
481.144	8044.08
481.348	7665.21
481.553	7710.26
481.757	7601.72
481.961	7904.82
482.166	7902.77
482.37	7663.16
482.574	7714.36
482.778	7790.13
482.983	7953.97
483.187	7587.38
483.391	7837.24
483.595	7654.97
483.8	7677.49
484.004	7573.05
484.208	7786.04
484.412	7781.94
484.616	7792.18
484.821	7740.98
485.025	7534.14
485.229	7810.61
485.433	7833.14
485.637	7730.74
485.841	7556.66
486.045	7786.04
486.249	7886.39
486.453	7591.48
486.657	7616.05
486.861	7734.84
487.065	7611.96
487.269	7687.73
487.473	7628.34
487.677	7740.98
487.881	7857.71
488.085	7724.6
488.289	7669.3
488.493	7818.8
488.697	8001.07
488.901	7839.28
489.105	7915.06
489.309	7943.73
489.512	7921.2
489.716	7953.97
489.92	7921.2
490.124	7872.05
490.328	7870
490.531	8005.17
490.735	7992.88
490.939	7886.39
491.143	7908.91
491.346	7779.89
491.55	8087.09
491.754	8244.78
491.958	8046.13
492.161	8093.23
492.365	8257.07
492.569	8195.63
492.772	8203.82
492.976	8457.77
493.18	8226.35
493.383	8310.32
493.587	8412.71
493.79	8427.05
493.994	8502.82
494.197	8627.75
494.401	8523.3
494.605	8701.48
494.808	8635.94
495.012	8871.46
495.215	8807.97
495.419	9045.54
495.622	8764.96
495.825	8998.43
496.029	8957.47
496.232	9092.64
496.436	9188.89
496.639	9549.34
496.843	9365.02
497.046	9504.28
497.249	9721.37
497.453	9866.77
497.656	9661.98
497.859	9754.13
498.063	9993.75
498.266	10069.52
498.469	9985.55
498.673	10153.49
498.876	10434.06
499.079	10536.46
499.282	10595.85
499.485	10819.08
499.689	10800.65
499.892	10931.72
500.095	11253.25
500.298	11271.68
500.501	11030.02
500.705	11650.55
500.908	11515.39
501.111	11654.65
501.314	11693.56
501.517	11755
501.72	11984.37
501.923	11898.36
502.126	12404.21
502.329	12639.72
502.532	12430.83
502.735	12561.9
502.938	12936.68
503.141	12858.85
503.344	13194.72
503.547	13217.25
503.75	13407.71
503.953	13964.76
504.156	13852.12
504.359	13802.97
504.562	14300.62
504.765	14327.25
504.968	14386.64
505.17	14532.04
505.373	14622.16
505.576	14738.89
505.779	14808.52
505.982	15181.25
506.185	15463.87
506.387	15502.78
506.59	15662.52
506.793	16022.97
506.996	15855.03
507.198	16293.3
507.401	16061.88
507.604	16430.51
507.807	16713.13
508.009	16709.04
508.212	16842.15
508.415	17141.16
508.617	17135.01
508.82	17606.05
509.022	17331.62
509.225	18175.38
509.428	18118.04
509.63	18361.75
509.833	18216.34
510.035	18636.17
510.238	18546.06
510.44	19139.97
510.643	19006.86
510.845	19533.18
511.048	19266.95
511.25	19424.64
511.453	19436.93
511.655	20563.31
511.858	20249.97
512.06	20354.42
512.262	20585.84
512.465	20614.51
512.667	21239.14
512.87	20948.33
513.072	21173.61
513.274	21800.29
513.477	21601.63
513.679	22013.27
513.881	22451.54
514.084	22289.75
514.286	22420.82
514.488	22723.92
514.69	23354.69
514.893	23493.96
515.095	23512.39
515.297	23491.91
515.499	23665.99
515.701	24108.35
515.904	24325.43
516.106	24612.15
516.308	25046.32
516.51	25083.18
516.712	25142.57
516.914	25550.12
517.116	25756.96
517.318	25951.52
517.52	26172.7
517.722	26248.47
517.925	26422.55
518.127	27071.76
518.329	27354.38
518.531	26873.1
518.733	27526.41
518.935	27634.95
519.136	27714.82
519.338	27886.85
519.54	27942.14
519.742	28345.59
519.944	28310.78
520.146	29041.9
520.348	29209.84
520.55	29086.96
520.752	29349.1
520.954	29873.38
521.155	29777.12
521.357	30026.98
521.559	30459.1
521.761	30962.9
521.963	30416.09
522.164	31100.11
522.366	31222.99
522.568	31360.2
522.77	31845.57
522.971	31939.78
523.173	31659.21
523.375	31947.97
523.576	32265.41
523.778	32292.03
523.98	32556.22
524.181	32808.12
524.383	32300.22
524.584	33107.12
524.786	32918.71
524.988	33109.17
525.189	33393.84
525.391	33881.25
525.592	33938.6
525.794	33719.46
525.995	34094.24
526.197	34153.63
526.398	33952.93
526.6	34419.87
526.801	34763.93
527.003	34854.04
527.204	34540.7
527.406	35140.75
527.607	35359.89
527.808	35417.23
528.01	35026.07
528.211	35224.72
528.412	36082.82
528.614	35611.79
528.815	36027.52
529.016	35964.04
529.218	35611.79
529.419	35855.5
529.62	35867.78
529.822	35761.29
530.023	36220.03
530.224	35970.18
530.425	36050.05
530.626	35982.47
530.828	35794.06
531.029	36990.07
531.23	36424.83
531.431	36005
531.632	36899.96
531.833	36625.53
532.035	36529.28
532.236	36570.24
532.437	37037.17
532.638	36535.42
532.839	36891.77
533.04	37004.41
533.241	36670.59
533.442	37411.95
533.643	37098.61
533.844	36535.42
534.045	37219.44
534.246	36807.8
534.447	37065.85
534.648	36652.16
534.849	37108.85
535.05	36488.32
535.251	36889.72
535.451	36748.41
535.652	36779.13
535.853	36699.26
536.054	36965.49
536.255	37033.08
536.456	36756.6
536.657	37338.22
536.857	37133.43
537.058	36848.76
537.259	37201.01
537.46	36682.87
537.66	36861.05
537.861	37024.89
538.062	36598.91
538.263	36983.93
538.463	37063.8
538.664	36947.06
538.865	37446.77
539.065	37115
539.266	36840.57
539.466	37110.9
539.667	36449.41
539.868	37528.69
540.068	36908.15
540.269	37233.78
540.469	36938.87
540.67	36742.27
540.87	36760.7
541.071	36830.33
541.271	36959.35
541.472	37158
541.672	37121.14
541.873	36820.09
542.073	36551.8
542.274	36918.39
542.474	36691.07
542.675	36787.32
542.875	36975.73
543.075	36494.46
543.276	36439.17
543.476	37139.57
543.676	36865.14
543.877	36914.3
544.077	37205.11
544.277	36560
544.478	36727.93
544.678	36854.9
544.878	36830.33
545.078	36736.12
545.279	36709.5
545.479	36508.8
545.679	37010.55
545.879	36631.68
546.079	36433.02
546.28	36801.66
546.48	36066.44
546.68	36531.33
546.88	36777.08
547.08	36689.02
547.28	36430.97
547.48	36543.61
547.68	36600.96
547.88	36459.65
548.081	36777.08
548.281	36578.43
548.481	36365.44
548.681	37012.6
548.881	36582.52
549.081	36420.73
549.28	36111.49
549.48	36797.56
549.68	36258.95
549.88	36994.17
550.08	36615.29
550.28	36424.83
550.48	36586.62
550.68	36781.18
550.88	36680.83
551.08	36650.11
551.279	36510.85
551.479	36025.48
551.679	36498.56
551.879	36582.52
552.079	36498.56
552.278	36256.9
552.478	36473.98
552.678	36793.47
552.878	36701.31
553.077	36375.68
553.277	36093.06
553.477	36613.24
553.676	36097.16
553.876	36181.12
554.076	36119.68
554.275	36197.51
554.475	35853.45
554.674	36109.44
554.874	36134.02
555.074	35968.13
555.273	36338.82
555.473	36611.2
555.672	35982.47
555.872	36099.2
556.071	35716.23
556.271	35857.54
556.47	35728.52
556.67	35450
556.869	35579.02
557.068	36056.2
557.268	35480.72
557.467	35716.23
557.667	36000.9
557.866	35450
558.065	35964.04
558.265	35660.94
558.464	35128.47
558.663	35370.13
558.863	34786.46
559.062	35732.62
559.261	35218.58
559.461	35839.11
559.66	34960.53
559.859	35177.62
560.058	34737.3
560.258	35271.82
560.457	35130.51
560.656	35077.27
560.855	34981.01
561.054	35249.3
561.253	34897.05
561.453	35189.91
561.652	35069.08
561.851	35107.99
562.05	35024.02
562.249	34583.71
562.448	35208.34
562.647	34686.11
562.846	34753.69
563.045	34866.33
563.244	34407.58
563.443	34811.03
563.642	33832.1
563.841	34706.59
564.04	34208.93
564.239	34221.22
564.438	34065.57
564.637	34278.56
564.836	34041
565.035	33762.47
565.234	33799.33
565.432	33750.18
565.631	33752.23
565.83	33744.04
566.029	33479.85
566.228	33680.55
566.427	33580.2
566.625	33295.53
566.824	33062.07
567.023	33428.65
567.222	32844.98
567.42	33410.22
567.619	33336.49
567.818	33344.69
568.016	33252.53
568.215	33348.78
568.414	33076.4
568.612	33223.86
568.811	32599.23
569.01	32918.71
569.208	32451.77
569.407	33041.59
569.605	32193.73
569.804	32648.38
570.002	32210.11
570.201	32502.97
570.4	32068.8
570.598	31986.88
570.797	32160.96
570.995	32113.86
571.193	31927.49
571.392	32167.1
571.59	31773.89
571.789	31884.48
571.987	31904.96
572.186	31814.85
572.384	31632.58
572.582	31491.27
572.781	31464.65
572.979	31053.01
573.177	31749.32
573.376	31368.4
573.574	31159.5
573.772	31184.08
573.971	30913.75
574.169	30854.36
574.367	30639.32
574.565	31098.06
574.763	30958.8
574.962	30725.33
575.16	30297.31
575.358	30364.89
575.556	30188.77
575.754	30616.79
575.952	30086.37
576.151	30526.68
576.349	30147.81
576.547	29955.3
576.745	30244.06
576.943	29977.83
577.141	30086.37
577.339	29844.71
577.537	29836.52
577.735	29859.04
577.933	29375.72
578.131	29689.06
578.329	29416.68
578.527	29379.82
578.725	29695.21
578.923	29525.22
579.121	29390.06
579.319	29295.85
579.516	29228.27
579.714	29297.9
579.912	28927.22
580.11	28847.35
580.308	28699.89
580.506	28914.93
580.704	28314.87
580.901	28413.18
581.099	28777.72
581.297	28351.74
581.495	28572.92
581.692	28308.73
581.89	28091.65
582.088	28546.3
582.285	27841.79
582.483	28128.51
582.681	27833.6
582.878	27729.16
583.076	27856.13
583.274	28054.78
583.471	27561.22
583.669	27792.64
583.866	27161.87
584.064	27626.76
584.262	26805.52
584.459	27211.02
584.657	27229.45
584.854	27383.05
585.052	26768.66
585.249	27067.66
585.447	27188.49
585.644	26686.74
585.841	26895.63
586.039	26856.72
586.236	26586.39
586.434	26412.31
586.631	26373.4
586.828	26529.05
587.026	26520.85
587.223	26400.02
587.42	26199.32
587.618	26412.31
587.815	26080.54
588.012	26168.6
588.21	25888.03
588.407	25933.09
588.604	25937.18
588.801	25689.38
588.999	25574.69
589.196	25644.32
589.393	25716
589.59	25447.72
589.787	25349.42
589.984	25462.05
590.182	25175.34
590.379	25417
590.576	24778.03
590.773	24821.04
590.97	24880.43
591.167	25099.56
591.364	24941.87
591.561	24767.79
591.758	24728.88
591.955	24763.7
592.152	24872.24
592.349	24397.11
592.546	24583.48
592.743	24442.17
592.94	24077.63
593.137	24444.21
593.334	24405.3
593.531	23706.94
593.727	23842.11
593.924	24220.99
594.121	23733.57
594.318	24089.92
594.515	23348.55
594.712	23768.38
594.908	23549.25
595.105	23801.15
595.302	23362.89
595.499	23500.1
595.696	23217.48
595.892	22981.96
596.089	23264.58
596.286	23135.56
596.482	23125.32
596.679	22705.49
596.876	23090.51
597.072	22992.2
597.269	23170.38
597.466	22814.03
597.662	22674.77
597.859	23006.54
598.055	22687.06
598.252	22535.51
598.448	22238.55
598.645	22422.87
598.841	22183.26
599.038	22410.58
599.234	22209.88
599.431	22035.8
599.627	21876.06
599.824	21796.19
600.02	21857.63
600.217	22115.67
600.413	21939.55
600.609	21890.4
600.806	21579.11
601.002	21583.2
601.198	21781.85
601.395	21400.93
601.591	21269.86
601.787	21329.25
601.984	21126.5
602.18	21552.48
602.376	21044.59
602.572	21005.67
602.769	20991.34
602.965	20882.8
603.161	20993.39
603.357	20692.33
603.553	20880.75
603.75	20770.16
603.946	20751.73
604.142	20698.48
604.338	20391.28
604.534	20716.91
604.73	20329.84
604.926	20094.33
605.122	20303.22
605.318	19975.55
605.514	20133.24
605.71	19963.26
605.906	19899.77
606.102	20016.51
606.298	19862.91
606.494	19856.76
606.69	19699.07
606.886	19891.58
607.082	19371.4
607.278	19973.5
607.474	19453.31
607.67	19654.01
607.866	19312
608.062	19688.83
608.257	19228.04
608.453	19481.99
608.649	19420.55
608.845	19086.73
609.041	19395.97
609.236	19185.03
609.432	19158.41
609.628	18912.65
609.824	18900.36
610.019	18951.56
610.215	19096.97
610.411	19125.64
610.606	18656.65
610.802	18830.73
610.998	18748.81
611.193	18980.23
611.389	18787.72
611.584	18605.45
611.78	18822.54
611.976	18681.23
612.171	18529.68
612.367	18443.67
612.562	18382.23
612.758	18259.35
612.953	18398.61
613.149	18554.26
613.344	18089.37
613.539	18388.37
613.735	18163.09
613.93	18115.99
614.126	18019.74
614.321	18224.53
614.517	18173.33
614.712	18210.2
614.907	18075.03
615.103	18226.58
615.298	17995.16
615.493	18230.68
615.688	17974.68
615.884	18062.74
616.079	17808.79
616.274	17878.43
616.47	17876.38
616.665	17659.29
616.86	17335.71
617.055	17556.89
617.25	17560.99
617.445	17737.12
617.641	17257.89
617.836	17714.59
618.031	17137.06
618.226	17647.01
618.421	17208.74
618.616	17364.39
618.811	17049
619.006	17309.09
619.201	16852.39
619.396	17071.53
619.591	16745.9
619.786	17153.44
619.981	16848.3
620.176	16960.94
620.371	16530.86
620.566	16758.19
620.761	16530.86
620.956	16719.28
621.151	16305.59
621.346	16539.05
621.541	16158.13
621.735	16250.29
621.93	15904.18
622.125	15998.39
622.32	15777.21
622.515	15977.91
622.709	15740.35
622.904	15709.63
623.099	15814.07
623.294	15551.93
623.488	15259.07
623.683	15553.98
623.878	15173.06
624.072	15373.76
624.267	15203.78
624.462	15228.35
624.656	14759.37
624.851	15138.24
625.046	14833.1
625.24	14939.59
625.435	14515.66
625.629	14515.66
625.824	14591.44
626.018	14394.83
626.213	14095.83
626.407	14237.14
626.602	13950.42
626.796	14097.88
626.991	13878.74
627.185	14181.84
627.38	13821.4
627.574	13811.16
627.768	13512.16
627.963	13643.23
628.157	13456.86
628.352	13506.01
628.546	13370.85
628.74	13092.32
628.935	13153.76
629.129	13233.63
629.323	13039.08
629.517	13227.49
629.712	13104.61
629.906	12916.2
630.1	12903.91
630.294	12948.97
630.489	12758.5
630.683	12789.22
630.877	12662.25
631.071	12600.81
631.265	12692.97
631.459	12621.29
631.653	12346.86
631.848	12420.59
632.042	12049.91
632.236	12230.13
632.43	12215.79
632.624	12088.82
632.818	11957.75
633.012	11947.51
633.206	11765.24
633.4	11720.18
633.594	11468.28
633.788	11777.53
633.982	11728.38
634.176	11611.64
634.369	11494.91
634.563	11343.36
634.757	11466.24
634.951	11441.66
635.145	11417.08
635.339	11363.84
635.533	11208.19
635.726	11265.53
635.92	11097.6
636.114	10995.2
636.308	10925.57
636.501	10839.56
636.695	10853.89
636.889	10690.06
637.083	10597.9
637.276	10640.9
637.47	10331.66
637.664	10530.31
637.857	10427.92
638.051	10487.31
638.244	10319.37
638.438	10182.16
638.632	10395.15
638.825	10167.82
639.019	10262.03
639.212	9899.54
639.406	10155.54
639.599	9907.73
639.793	10087.95
639.986	9735.7
640.18	9840.15
640.373	10028.56
640.567	9641.5
640.76	9733.65
640.954	9666.07
641.147	9715.22
641.34	9524.76
641.534	9438.75
641.727	9520.67
641.92	9504.28
642.114	9272.86
642.307	9162.27
642.5	9213.47
642.694	9037.34
642.887	8883.75
643.08	9172.51
643.273	8906.27
643.467	8857.12
643.66	9008.67
643.853	8752.68
644.046	8848.93
644.239	8746.53
644.432	8730.15
644.626	8910.37
644.819	8537.64
645.012	8502.82
645.205	8541.74
645.398	8443.43
645.591	8390.19
645.784	8384.04
645.977	8379.95
646.17	8109.61
646.363	8183.34
646.556	8132.14
646.749	8173.1
646.942	8107.57
647.135	8044.08
647.328	8259.12
647.521	8019.5
647.714	8011.31
647.907	7945.78
648.099	7896.63
648.292	7849.52
648.485	7798.32
648.678	7743.03
648.871	7634.49
649.064	7634.49
649.256	7689.78
649.449	7624.25
649.642	7595.57
649.835	7319.1
650.027	7419.45
650.22	7353.91
650.413	7323.19
650.605	7167.55
650.798	7284.28
650.991	7220.8
651.183	7210.56
651.376	7028.29
651.568	7112.25
651.761	7140.93
651.954	7075.39
652.146	6968.9
652.339	7036.48
652.531	6825.54
652.724	6964.8
652.916	6866.5
653.109	6630.98
653.301	6790.72
653.494	6727.24
653.686	6704.71
653.879	6827.59
654.071	6717
654.263	6436.42
654.456	6551.11
654.648	6397.51
654.84	6350.41
655.033	6485.58
655.225	6325.83
655.417	6194.76
655.61	6424.14
655.802	6327.88
655.994	6194.76
656.186	6174.28
656.379	6227.53
656.571	6362.7
656.763	5916.24
656.955	5953.1
657.148	5992.02
657.34	6182.48
657.532	5895.76
657.724	5858.9
657.916	5908.05
658.108	5828.18
658.3	5824.08
658.492	5717.59
658.684	5742.16
658.876	5619.28
659.068	5723.73
659.26	5658.2
659.452	5576.28
659.644	5600.85
659.836	5437.02
660.028	5627.48
660.22	5512.79
660.412	5613.14
660.604	5430.87
660.796	5424.73
660.988	5346.91
661.18	5439.06
661.372	5371.48
661.563	5412.44
661.755	5297.75
661.947	5322.33
662.139	5281.37
662.331	5236.31
662.522	5090.91
662.714	5160.54
662.906	5088.86
663.097	5076.57
663.289	5084.77
663.481	4894.3
663.673	5076.57
663.864	4955.74
664.056	4970.08
664.247	4963.93
664.439	4697.7
664.631	4961.89
664.822	4920.93
665.014	4912.74
665.205	4714.08
665.397	4677.22
665.588	4808.29
665.78	4691.56
665.971	4720.23
666.163	4646.5
666.354	4693.6
666.546	4458.09
666.737	4617.83
666.929	4519.53
667.12	4503.14
667.311	4515.43
667.503	4486.76
667.694	4466.28
667.885	4453.99
668.077	4460.13
668.268	4331.11
668.459	4273.77
668.651	4331.11
668.842	4443.75
669.033	4210.28
669.224	4224.62
669.416	4417.13
669.607	4245.1
669.798	4109.93
669.989	4171.37
670.18	4146.8
670.371	4118.12
670.563	4152.94
670.754	4019.82
670.945	4052.59
671.136	4077.16
671.327	4038.25
671.518	4154.99
671.709	4003.44
671.9	3980.91
672.091	3888.75
672.282	4038.25
672.473	3835.5
672.664	3864.18
672.855	3788.4
673.046	3913.33
673.237	3901.04
673.428	3810.93
673.619	3858.03
673.809	3718.77
674	3679.86
674.191	3735.15
674.382	3745.39
674.573	3782.26
674.764	3704.43
674.954	3712.63
675.145	3630.71
675.336	3692.15
675.527	3585.65
675.717	3677.81
675.908	3628.66
676.099	3577.46
676.289	3638.9
676.48	3563.12
676.671	3554.93
676.861	3575.41
677.052	3694.19
677.243	3571.32
677.433	3573.36
677.624	3573.36
677.814	3403.38
678.005	3436.15
678.195	3636.85
678.386	3458.68
678.576	3470.97
678.767	3352.18
678.957	3307.13
679.148	3643
679.338	3468.92
679.529	3343.99
679.719	3249.79
679.909	3430.01
680.1	3372.66
680.29	3358.33
680.481	3239.55
680.671	3358.33
680.861	3384.95
681.052	3389.05
681.242	3233.4
681.432	3358.33
681.622	3266.17
681.813	3139.19
682.003	3307.13
682.193	3280.5
682.383	3343.99
682.573	3294.84
682.764	3053.18
682.954	3286.65
683.144	3161.72
683.334	3200.63
683.524	3094.14
683.714	3176.06
683.904	3300.98
684.094	3251.83
684.284	3147.39
684.474	3257.98
684.664	3055.23
684.854	3241.59
685.044	2973.31
685.234	3085.95
685.424	2973.31
685.614	3020.41
685.804	3020.41
685.994	3006.08
686.184	3063.42
686.374	2971.26
686.564	2979.45
686.753	3016.32
686.943	2956.93
687.133	2852.48
687.323	2893.44
687.513	2991.74
687.702	2807.42
687.892	3016.32
688.082	2938.49
688.272	2868.86
688.461	2938.49
688.651	2881.15
688.841	2809.47
689.03	2776.7
689.22	2817.66
689.41	2801.28
689.599	2731.65
689.789	2852.48
689.979	2813.57
690.168	2791.04
690.358	2657.92
690.547	2727.55
690.737	2760.32
690.926	2614.91
691.116	2645.63
691.305	2662.02
691.495	2743.94
691.684	2692.74
691.874	2588.29
692.063	2557.57
692.252	2627.2
692.442	2647.68
692.631	2625.15
692.82	2584.2
693.01	2565.76
693.199	2563.72
693.388	2533
693.578	2657.92
693.767	2541.19
693.956	2545.28
694.146	2473.6
694.335	2471.56
694.524	2547.33
694.713	2483.84
694.902	2467.46
695.092	2489.99
695.281	2537.09
695.47	2340.49
695.659	2424.45
695.848	2387.59
696.037	2395.78
696.226	2520.71
696.415	2414.21
696.604	2424.45
696.793	2430.6
696.982	2389.64
697.171	2492.04
697.36	2455.17
697.549	2440.84
697.738	2389.64
697.927	2309.77
698.116	2399.88
698.305	2408.07
698.494	2414.21
698.683	2295.43
698.872	2350.73
699.061	2250.38
699.25	2379.4
699.438	2254.47
699.627	2293.38
699.816	2338.44
700.005	2332.3
700.193	2221.7
700.382	2389.64
700.571	2266.76
700.76	2160.27
700.948	2258.57
701.137	2326.15
701.326	2336.39
701.514	2381.45
701.703	2315.91
701.892	2301.58
702.08	2264.71
702.269	2260.62
702.457	2180.75
702.646	2236.04
702.834	2250.38
703.023	2209.42
703.212	2184.84
703.4	2225.8
703.589	2268.81
703.777	2363.01
703.965	2201.23
704.154	2160.27
704.342	2213.51
704.531	2193.03
704.719	2229.9
704.907	2221.7
705.096	2147.98
705.284	2072.2
705.472	2100.87
705.661	2147.98
705.849	2197.13
706.037	2119.31
706.226	2203.27
706.414	2279.05
706.602	2121.35
706.79	2246.28
706.979	2174.6
707.167	2102.92
707.355	2104.97
707.543	2156.17
707.731	2041.48
707.919	2111.11
708.107	2174.6
708.296	2061.96
708.484	2004.62
708.672	2094.73
708.86	2119.31
709.048	2053.77
709.236	2162.31
709.424	2131.59
709.612	2078.35
709.8	2012.81
709.988	2045.58
710.176	1980.04
710.364	2008.72
710.551	2143.88
710.739	2068.11
710.927	2039.44
711.115	2016.91
711.303	2000.52
711.491	2012.81
711.679	2018.96
711.866	1992.33
712.054	2082.44
712.242	2014.86
712.43	1947.28
712.617	2014.86
712.805	1988.24
712.993	1986.19
713.181	2012.81
713.368	2064.01
713.556	2053.77
713.744	1881.74
713.931	2072.2
714.119	1992.33
714.306	2057.87
714.494	1941.13
714.682	1967.76
714.869	1967.76
715.057	1918.61
715.244	1910.41
715.432	2078.35
715.619	1996.43
715.807	2000.52
715.994	1943.18
716.182	1937.04
716.369	2012.81
716.556	1961.61
716.744	1873.55
716.931	1951.37
717.119	1930.89
717.306	1898.13
717.493	1963.66
717.681	2012.81
717.868	1916.56
718.055	1955.47
718.242	1980.04
718.43	1988.24
718.617	1912.46
718.804	1873.55
718.991	1898.13
719.179	1973.9
719.366	1865.36
719.553	1943.18
719.74	1877.65
719.927	2037.39
720.114	1920.65
720.301	1922.7
720.488	1867.41
720.676	1910.41
720.863	1883.79
721.05	1939.09
721.237	1863.31
721.424	1883.79
721.611	1939.09
721.798	1826.45
721.985	1797.78
722.172	1906.32
722.358	1957.52
722.545	1910.41
722.732	1914.51
722.919	1857.17
723.106	1803.92
723.293	1918.61
723.48	1898.13
723.667	1932.94
723.853	1875.6
724.04	1906.32
724.227	1965.71
724.414	1898.13
724.6	1955.47
724.787	1844.88
724.974	1971.85
725.161	1812.11
725.347	1869.45
725.534	1908.37
725.72	1834.64
725.907	1832.59
726.094	1840.78
726.28	1781.39
726.467	1869.45
726.653	1810.06
726.84	1877.65
727.027	1869.45
727.213	1840.78
727.4	1828.49
727.586	1910.41
727.773	1863.31
727.959	1773.2
728.145	1820.3
728.332	1808.02
728.518	1814.16
728.705	1830.54
728.891	1746.58
729.077	1824.4
729.264	1791.63
729.45	1767.06
729.636	1844.88
729.823	1775.25
730.009	1873.55
730.195	1902.22
730.382	1906.32
730.568	1857.17
730.754	1808.02
730.94	1906.32
731.126	1887.89
731.313	1799.82
731.499	1703.57
731.685	1717.9
731.871	1705.62
732.057	1820.3
732.243	1799.82
732.429	1820.3
732.615	1857.17
732.801	1777.3
732.987	1795.73
733.173	1793.68
733.359	1820.3
733.545	1742.48
733.731	1705.62
733.917	1779.34
734.103	1685.14
734.289	1691.28
734.475	1736.34
734.661	1797.78
734.847	1760.91
735.033	1703.57
735.219	1750.67
735.404	1670.8
735.59	1722
735.776	1691.28
735.962	1732.24
736.148	1769.1
736.333	1771.15
736.519	1750.67
736.705	1726.1
736.89	1648.27
737.076	1752.72
737.262	1674.9
737.447	1746.58
737.633	1701.52
737.819	1672.85
738.004	1734.29
738.19	1762.96
738.375	1578.64
738.561	1664.66
738.747	1590.93
738.932	1666.71
739.118	1705.62
739.303	1662.61
739.489	1619.6
739.674	1656.47
739.859	1603.22
740.045	1674.9
740.23	1570.45
740.416	1629.84
740.601	1644.18
740.786	1558.16
740.972	1539.73
741.157	1652.37
741.342	1586.83
741.528	1480.34
741.713	1572.5
741.898	1525.4
742.084	1705.62
742.269	1595.03
742.454	1621.65
742.639	1570.45
742.824	1488.53
743.01	1523.35
743.195	1701.52
743.38	1644.18
743.565	1502.87
743.75	1476.24
743.935	1535.64
744.12	1601.17
744.305	1531.54
744.49	1513.11
744.675	1496.72
744.86	1506.96
745.045	1543.83
745.23	1517.2
745.415	1447.57
745.6	1474.2
745.785	1304.21
745.97	1482.39
746.155	1455.76
746.34	1509.01
746.525	1427.09
746.71	1472.15
746.895	1398.42
747.079	1394.33
747.264	1386.13
747.449	1447.57
747.634	1433.24
747.819	1468.05
748.003	1341.08
748.188	1308.31
748.373	1474.2
748.557	1437.33
748.742	1308.31
748.927	1357.46
749.111	1287.83
749.296	1259.16
749.481	1293.97
749.665	1400.47
749.85	1351.32
750.034	1267.35
750.219	1250.97
750.404	1250.97
750.588	1179.29
750.773	1201.82
750.957	1287.83
751.141	1236.63
751.326	1224.34
751.51	1142.43
751.695	1152.67
751.879	1242.78
752.064	1250.97
752.248	1189.53
752.432	1171.1
752.617	1169.05
752.801	1154.71
752.985	1050.27
753.17	1179.29
753.354	1128.09
753.538	1177.24
753.722	1140.38
753.907	1224.34
754.091	1205.91
754.275	1107.61
754.459	1054.36
754.643	999.07
754.828	1113.75
755.012	1138.33
755.196	1095.32
755.38	1162.9
755.564	1066.65
755.748	1062.55
755.932	1115.8
756.116	1091.23
756.3	1007.26
756.484	1013.4
756.668	1095.32
756.852	1011.36
757.036	931.48
757.22	956.06
757.404	992.92
757.588	1005.21
757.772	960.16
757.956	1060.51
758.14	1050.27
758.323	972.44
758.507	1021.6
758.691	960.16
758.875	1007.26
759.059	976.54
759.242	820.89
759.426	1029.79
759.61	900.76
759.794	986.78
759.977	980.64
760.161	974.49
760.345	898.72
760.528	890.53
760.712	855.71
760.895	904.86
761.079	849.57
761.263	833.18
761.446	853.66
761.63	892.57
761.813	884.38
761.997	859.81
762.18	822.94
762.364	814.75
762.547	927.39
762.731	777.89
762.914	837.28
763.098	849.57
763.281	710.3
763.464	806.56
763.648	720.54
763.831	743.07
764.015	784.03
764.198	951.96
764.381	802.46
764.564	784.03
764.748	814.75
764.931	861.85
765.114	827.04
765.297	788.13
765.481	784.03
765.664	775.84
765.847	792.22
766.03	816.8
766.213	804.51
766.397	810.65
766.58	759.46
766.763	738.98
766.946	779.93
767.129	718.5
767.312	743.07
767.495	784.03
767.678	730.78
767.861	706.21
768.044	831.13
768.227	757.41
768.41	691.87
768.593	704.16
768.776	587.43
768.959	784.03
769.142	734.88
769.324	710.3
769.507	685.73
769.69	734.88
769.873	669.34
770.056	720.54
770.239	708.26
770.421	689.82
770.604	673.44
770.787	652.96
770.97	775.84
771.152	792.22
771.335	767.65
771.518	581.28
771.7	708.26
771.883	671.39
772.066	769.69
772.248	587.43
772.431	657.06
772.613	605.86
772.796	693.92
772.978	712.35
773.161	728.74
773.343	603.81
773.526	607.91
773.708	601.76
773.891	605.86
774.073	673.44
774.256	628.39
774.438	638.62
774.621	556.71
774.803	669.34
774.985	607.91
775.168	693.92
775.35	624.29
775.532	612
775.715	560.8
775.897	622.24
776.079	575.14
776.261	587.43
776.444	573.09
776.626	583.33
776.808	628.39
776.99	622.24
777.173	472.74
777.355	587.43
777.537	542.37
777.719	640.67
777.901	542.37
778.083	538.27
778.265	538.27
778.447	550.56
778.629	548.51
778.811	466.6
778.993	591.52
779.175	439.97
779.357	497.32
779.539	519.84
779.721	538.27
779.903	480.93
780.085	482.98
780.267	554.66
780.449	499.36
780.631	515.75
780.812	448.16
780.994	554.66
781.176	521.89
781.358	476.84
781.54	425.64
781.721	374.44
781.903	442.02
782.085	431.78
782.267	442.02
782.448	509.6
782.63	374.44
782.812	425.64
782.993	489.12
783.175	444.07
783.357	407.2
783.538	407.2
783.72	456.36
783.901	532.13
784.083	399.01
784.264	386.72
784.446	351.91
784.627	413.35
784.809	476.84
784.99	380.58
785.172	394.92
785.353	370.34
785.535	409.25
785.716	368.29
785.897	325.29
786.079	425.64
786.26	351.91
786.441	382.63
786.623	337.57
786.804	337.57
786.985	253.61
787.167	399.01
787.348	345.77
787.529	341.67
787.71	401.06
787.891	296.61
788.073	399.01
788.254	257.7
788.435	292.52
788.616	315.05
788.797	284.33
788.978	325.29
789.159	343.72
789.34	272.04
789.522	292.52
789.703	358.05
789.884	319.14
790.065	263.85
790.246	313
790.427	286.37
790.607	292.52
790.788	341.67
790.969	267.94
791.15	337.57
791.331	276.13
791.512	315.05
791.693	296.61
791.874	251.56
792.054	360.1
792.235	353.96
792.416	284.33
792.597	276.13
792.778	362.15
792.958	261.8
793.139	267.94
793.32	259.75
793.5	251.56
793.681	323.24
793.862	222.89
794.042	308.9
794.223	204.46
794.404	181.93
794.584	138.92
794.765	247.46
794.945	243.37
795.126	288.42
795.306	335.53
795.487	208.55
795.667	210.6
795.848	263.85
796.028	210.6
796.209	269.99
796.389	300.71
796.57	267.94
796.75	173.74
796.93	247.46
797.111	259.75
797.291	220.84
797.471	306.85
797.652	194.22
797.832	294.57
798.012	378.53
798.192	198.31
798.373	222.89
798.553	253.61
798.733	327.33
798.913	190.12
799.093	286.37
799.274	179.88
799.454	171.69
799.634	206.5
799.814	181.93
799.994	257.7
800.174	212.65
800.354	186.02
800.534	210.6
800.714	202.41
800.894	136.87
801.074	153.26
801.254	169.64
801.434	241.32
801.614	192.17
801.794	87.72
801.974	734.88
802.154	169.64
802.334	216.74
802.514	186.02
802.693	233.13
802.873	216.74
803.053	177.83
803.233	140.97
803.413	259.75
803.592	171.69
803.772	147.11
803.952	169.64
804.131	155.3
804.311	278.18
804.491	161.45
804.67	102.06
804.85	97.96
805.03	212.65
805.209	186.02
805.389	210.6
805.568	226.98
805.748	128.68
805.928	153.26
806.107	83.63
806.287	71.34
806.466	175.78
806.646	138.92
806.825	136.87
807.004	151.21
807.184	190.12
807.363	122.54
807.543	208.55
807.722	210.6
807.901	208.55
808.081	163.5
808.26	114.34
808.439	149.16
808.619	128.68
808.798	198.31
808.977	149.16
809.156	106.15
809.336	140.97
809.515	159.4
809.694	116.39
809.873	120.49
810.052	106.15
810.231	204.46
810.411	83.63
810.59	95.91
810.769	138.92
810.948	169.64
811.127	100.01
811.306	130.73
811.485	54.95
811.664	167.59
811.843	128.68
812.022	169.64
812.201	116.39
812.38	120.49
812.559	110.25
812.737	226.98
812.916	108.2
813.095	159.4
813.274	153.26
813.453	89.77
813.632	194.22
813.811	161.45
813.989	63.15
814.168	106.15
814.347	75.43
814.526	122.54
814.704	136.87
814.883	171.69
815.062	106.15
815.24	89.77
815.419	77.48
815.598	169.64
815.776	95.91
815.955	63.15
816.133	89.77
816.312	126.63
816.49	91.82
816.669	206.5
816.847	155.3
817.026	81.58
817.204	81.58
817.383	83.63
817.561	153.26
817.74	155.3
817.918	77.48
818.097	130.73
818.275	126.63
818.453	95.91
818.632	128.68
818.81	97.96
818.988	112.3
819.167	63.15
819.345	128.68
819.523	71.34
819.701	46.76
819.879	151.21
820.058	186.02
820.236	116.39
820.414	91.82
820.592	67.24
820.77	124.58
820.948	130.73
821.127	155.3
821.305	132.78
821.483	114.34
821.661	87.72
821.839	136.87
822.017	79.53
822.195	71.34
822.373	177.83
822.551	120.49
822.729	79.53
822.907	177.83
823.085	67.24
823.262	149.16
823.44	132.78
823.618	97.96
823.796	97.96
823.974	104.11
824.152	50.86
824.329	126.63
824.507	114.34
824.685	100.01
824.863	100.01
825.04	50.86
825.218	134.82
825.396	138.92
825.574	128.68
825.751	81.58
825.929	79.53
826.107	20.14
826.284	63.15
826.462	38.57
826.639	46.76
826.817	26.28
826.994	95.91
827.172	50.86
827.349	95.91
827.527	89.77
827.704	22.19
827.882	75.43
828.059	87.72
828.237	63.15
828.414	50.86
828.591	-14.68
828.769	75.43
828.946	89.77
829.124	134.82
829.301	93.87
829.478	-2.39
829.655	120.49
829.833	79.53
830.01	30.38
830.187	145.06
830.364	44.71
830.542	106.15
830.719	136.87
830.896	104.11
831.073	79.53
831.25	54.95
831.427	79.53
831.604	63.15
831.782	-33.11
831.959	73.39
832.136	95.91
832.313	71.34
832.49	30.38
832.667	-14.68
832.844	87.72
833.021	108.2
833.198	46.76
833.374	26.28
833.551	157.35
833.728	97.96
833.905	26.28
834.082	3.75
834.259	32.43
834.436	130.73
834.612	24.23
834.789	71.34
834.966	13.99
835.143	32.43
835.319	18.09
835.496	85.67
835.673	95.91
835.85	97.96
836.026	81.58
836.203	46.76
836.38	91.82
836.556	71.34
836.733	-26.96
836.909	175.78
837.086	69.29
837.262	30.38
837.439	114.34
837.616	71.34
837.792	46.76
837.968	26.28
838.145	16.04
838.321	-18.77
838.498	30.38
838.674	48.81
838.851	95.91
839.027	54.95
839.203	20.14
839.38	136.87
839.556	75.43
839.732	34.47
839.909	38.57
840.085	130.73
840.261	54.95
840.437	16.04
840.614	22.19
840.79	24.23
840.966	-24.92
841.142	48.81
841.318	44.71
841.494	73.39
841.671	73.39
841.847	46.76
842.023	22.19
842.199	36.52
842.375	20.14
842.551	5.8
842.727	42.67
842.903	112.3
843.079	-35.16
843.255	44.71
843.431	132.78
843.607	65.19
843.783	-4.44
843.959	38.57
844.134	28.33
844.31	63.15
844.486	-16.73
844.662	7.85
844.838	-22.87
845.013	59.05
845.189	40.62
845.365	30.38
845.541	26.28
845.716	9.9
845.892	91.82
846.068	30.38
846.244	42.67
846.419	122.54
846.595	26.28
846.77	-47.44
846.946	59.05
847.122	-39.25
847.297	-26.96
847.473	32.43
847.648	-4.44
847.824	13.99
847.999	-67.92
848.175	32.43
848.35	28.33
848.526	-2.39
848.701	67.24
848.876	-24.92
849.052	46.76
849.227	22.19
849.403	-16.73
849.578	-0.34
849.753	81.58
849.929	50.86
850.104	-53.59
850.279	-0.34
850.454	5.8
850.63	-43.35
850.805	-26.96
850.98	57
851.155	13.99
851.33	54.95
851.505	89.77
851.681	46.76
851.856	-47.44
852.031	87.72
852.206	-2.39
852.381	13.99
852.556	73.39
852.731	32.43
852.906	20.14
853.081	-10.58
853.256	9.9
853.431	7.85
853.606	54.95
853.781	30.38
853.956	-65.88
854.131	46.76
854.305	-22.87
854.48	-0.34
854.655	-16.73
854.83	26.28
855.005	32.43
855.18	50.86
855.354	-63.83
855.529	26.28
855.704	50.86
855.879	28.33
856.053	-18.77
856.228	-2.39
856.403	-35.16
856.577	85.67
856.752	-18.77
856.926	32.43
857.101	38.57
857.276	5.8
857.45	-24.92
857.625	67.24
857.799	46.76
857.974	24.23
858.148	-35.16
858.323	38.57
858.497	13.99
858.672	22.19
858.846	-45.4
859.02	42.67
859.195	-51.54
859.369	50.86
859.543	1.71
859.718	-55.64
859.892	16.04
860.066	1.71
860.241	-22.87
860.415	32.43
860.589	-18.77
860.763	61.1
860.938	-6.49
861.112	57
861.286	-18.77
861.46	54.95
861.634	54.95
861.808	104.11
861.982	9.9
862.157	22.19
862.331	57
862.505	30.38
862.679	65.19
862.853	65.19
863.027	-8.53
863.201	73.39
863.375	5.8
863.549	-43.35
863.722	69.29
863.896	42.67
864.07	-29.01
864.244	79.53
864.418	32.43
864.592	1.71
864.766	-26.96
864.939	71.34
865.113	26.28
865.287	145.06
865.461	-59.73
865.634	-18.77
865.808	-39.25
865.982	3.75
866.156	-39.25
866.329	-45.4
866.503	-8.53
866.676	-20.82
866.85	63.15
867.024	13.99
867.197	79.53
867.371	13.99
867.544	-18.77
867.718	-2.39
867.891	30.38
868.065	-26.96
868.238	69.29
868.412	-10.58
868.585	42.67
868.759	34.47
868.932	26.28
869.105	1.71
869.279	24.23
869.452	13.99
869.625	9.9
869.799	48.81
869.972	-43.35
870.145	77.48
870.319	65.19
870.492	73.39
870.665	18.09
870.838	-35.16
871.011	-8.53
871.185	28.33
871.358	48.81
871.531	71.34
871.704	-0.34
871.877	54.95
872.05	-61.78
872.223	-31.06
872.396	30.38
872.569	-18.77
872.742	-59.73
872.915	-65.88
873.088	7.85
873.261	-90.45
873.434	52.91
873.607	20.14
873.78	61.1
873.953	-22.87
874.126	-0.34
874.299	57
874.471	-92.5
874.644	38.57
874.817	54.95
874.99	-2.39
875.163	-10.58
875.335	11.95
875.508	24.23
875.681	1.71
875.853	54.95
876.026	-8.53
876.199	-72.02
876.371	30.38
876.544	-59.73
876.717	5.8
876.889	34.47
877.062	22.19
877.234	-67.92
877.407	-8.53
877.579	13.99
877.752	59.05
877.924	93.87
878.097	13.99
878.269	-8.53
878.442	91.82
878.614	34.47
878.786	36.52
878.959	-24.92
879.131	-10.58
879.303	-76.12
879.476	38.57
879.648	-51.54
879.82	-26.96
879.993	-49.49
880.165	85.67
880.337	-92.5
880.509	20.14
880.681	-53.59
880.854	95.91
881.026	-20.82
881.198	87.72
881.37	-92.5
881.542	54.95
881.714	124.58
881.886	1.71
882.058	22.19
882.23	54.95
882.402	-12.63
882.574	11.95
882.746	-16.73
882.918	-49.49
883.09	13.99
883.262	-14.68
883.434	32.43
883.606	-55.64
883.778	-104.79
883.95	18.09
884.122	22.19
884.293	38.57
884.465	-4.44
884.637	5.8
884.809	71.34
884.98	-69.97
885.152	-2.39
885.324	71.34
885.496	7.85
885.667	-2.39
885.839	22.19
886.011	-2.39
886.182	50.86
886.354	54.95
886.525	38.57
886.697	38.57
886.869	-47.44
887.04	16.04
887.212	-6.49
887.383	112.3
887.555	-43.35
887.726	-2.39
887.897	-47.44
888.069	-10.58
888.24	-16.73
888.412	-59.73
888.583	-63.83
888.754	-24.92
888.926	-29.01
889.097	9.9
889.268	-8.53
889.44	24.23
889.611	-51.54
889.782	-88.4
889.953	-22.87
890.125	71.34
890.296	-63.83
890.467	48.81
890.638	9.9
890.809	48.81
890.98	-14.68
891.151	38.57
891.323	48.81
891.494	18.09
891.665	7.85
891.836	24.23
892.007	-26.96
892.178	63.15
892.349	22.19
892.52	-49.49
892.691	26.28
892.862	-94.55
893.032	38.57
893.203	-43.35
893.374	42.67
893.545	-43.35
893.716	-65.88
893.887	-20.82
894.057	1.71
894.228	40.62
894.399	5.8
894.57	22.19
894.74	11.95
894.911	7.85
895.082	13.99
895.253	-47.44
895.423	-43.35
895.594	38.57
895.764	-10.58
895.935	-57.68
896.106	-0.34
896.276	3.75
896.447	1.71
896.617	1.71
896.788	-43.35
896.958	5.8
897.129	26.28
897.299	-35.16
897.47	-35.16
897.64	46.76
897.81	-10.58
897.981	-14.68
898.151	-35.16
898.322	-10.58
898.492	30.38
898.662	-47.44
898.832	-65.88
899.003	22.19
899.173	-43.35
899.343	-51.54
899.513	-0.34
