Data from USB4F104151__213__14-45-27-488.txt Node

Date: Thu Mar 13 14:45:27 EDT 2025
User: louis
Spectrometer: USB4F10415
Trigger mode: 4
Integration Time (sec): 2.000000E-2
Scans to average: 1
Electric dark correction enabled: true
Nonlinearity correction enabled: false
Boxcar width: 0
XAxis mode: Wavelengths
Number of Pixels in Spectrum: 3648
>>>>>Begin Spectral Data<<<<<
178.204	-138.92
178.424	-138.92
178.644	-138.92
178.864	-157.35
179.084	-138.92
179.304	-3.75
179.524	0.34
179.744	-59.05
179.964	100.69
180.184	76.12
180.404	-20.14
180.624	10.58
180.844	2.39
181.064	-9.9
181.283	-11.95
181.503	-63.15
181.723	-22.19
181.943	-75.43
182.163	76.12
182.383	29.01
182.602	55.64
182.822	6.49
183.042	88.4
183.262	10.58
183.482	-36.52
183.701	-1.71
183.921	12.63
184.141	61.78
184.361	39.25
184.58	-13.99
184.8	26.96
185.02	-102.06
185.239	-1.71
185.459	43.35
185.679	43.35
185.898	-9.9
186.118	31.06
186.338	8.53
186.557	-1.71
186.777	-22.19
186.997	51.54
187.216	35.16
187.436	26.96
187.655	84.31
187.875	-38.57
188.095	29.01
188.314	-22.19
188.534	18.77
188.753	24.92
188.973	59.73
189.192	35.16
189.412	-3.75
189.631	26.96
189.851	-46.76
190.07	20.82
190.29	39.25
190.509	-40.62
190.729	-71.34
190.948	2.39
191.168	63.83
191.387	98.64
191.607	35.16
191.826	-11.95
192.045	2.39
192.265	43.35
192.484	12.63
192.704	-26.28
192.923	10.58
193.142	10.58
193.362	33.11
193.581	43.35
193.8	10.58
194.02	29.01
194.239	-34.47
194.458	10.58
194.678	12.63
194.897	16.73
195.116	43.35
195.335	-3.75
195.555	-28.33
195.774	51.54
195.993	-50.86
196.212	-22.19
196.432	26.96
196.651	-7.85
196.87	-34.47
197.089	12.63
197.308	43.35
197.528	104.79
197.747	-67.24
197.966	26.96
198.185	96.6
198.404	8.53
198.623	-36.52
198.842	100.69
199.062	18.77
199.281	-3.75
199.5	12.63
199.719	18.77
199.938	84.31
200.157	-5.8
200.376	76.12
200.595	92.5
200.814	39.25
201.033	-1.71
201.252	76.12
201.471	-36.52
201.69	45.4
201.909	-24.23
202.128	47.44
202.347	6.49
202.566	6.49
202.785	29.01
203.004	-16.04
203.223	94.55
203.442	-22.19
203.661	-5.8
203.879	35.16
204.098	59.73
204.317	-63.15
204.536	117.08
204.755	67.92
204.974	137.56
205.193	49.49
205.411	37.2
205.63	74.07
205.849	18.77
206.068	31.06
206.287	4.44
206.505	69.97
206.724	76.12
206.943	69.97
207.162	10.58
207.381	57.68
207.599	-3.75
207.818	26.96
208.037	22.87
208.255	12.63
208.474	112.98
208.693	63.83
208.911	22.87
209.13	76.12
209.349	80.21
209.567	33.11
209.786	94.55
210.005	26.96
210.223	43.35
210.442	72.02
210.661	-3.75
210.879	45.4
211.098	78.16
211.316	-3.75
211.535	104.79
211.753	29.01
211.972	35.16
212.191	-26.28
212.409	-18.09
212.628	41.3
212.846	29.01
213.065	61.78
213.283	94.55
213.502	-36.52
213.72	29.01
213.938	47.44
214.157	22.87
214.375	-52.91
214.594	55.64
214.812	55.64
215.031	-1.71
215.249	51.54
215.467	80.21
215.686	4.44
215.904	72.02
216.122	2.39
216.341	59.73
216.559	39.25
216.778	72.02
216.996	76.12
217.214	45.4
217.432	26.96
217.651	-24.23
217.869	63.83
218.087	63.83
218.306	43.35
218.524	49.49
218.742	-7.85
218.96	47.44
219.179	51.54
219.397	88.4
219.615	102.74
219.833	59.73
220.051	-38.57
220.27	78.16
220.488	-3.75
220.706	76.12
220.924	72.02
221.142	24.92
221.36	14.68
221.578	10.58
221.796	18.77
222.015	-22.19
222.233	2.39
222.451	57.68
222.669	84.31
222.887	20.82
223.105	-1.71
223.323	43.35
223.541	8.53
223.759	67.92
223.977	10.58
224.195	26.96
224.413	84.31
224.631	100.69
224.849	76.12
225.067	51.54
225.285	45.4
225.503	55.64
225.721	-28.33
225.939	-9.9
226.157	-46.76
226.375	59.73
226.592	-13.99
226.81	-5.8
227.028	100.69
227.246	92.5
227.464	59.73
227.682	-5.8
227.9	45.4
228.117	37.2
228.335	65.88
228.553	-3.75
228.771	72.02
228.989	59.73
229.206	29.01
229.424	-3.75
229.642	-44.71
229.86	6.49
230.077	16.73
230.295	39.25
230.513	41.3
230.731	80.21
230.948	47.44
231.166	100.69
231.384	55.64
231.601	12.63
231.819	53.59
232.037	31.06
232.254	-3.75
232.472	59.73
232.689	-1.71
232.907	63.83
233.125	-9.9
233.342	47.44
233.56	-3.75
233.777	51.54
233.995	35.16
234.213	133.46
234.43	24.92
234.648	59.73
234.865	10.58
235.083	31.06
235.3	31.06
235.518	-59.05
235.735	-18.09
235.953	51.54
236.17	57.68
236.388	10.58
236.605	31.06
236.822	94.55
237.04	76.12
237.257	-3.75
237.475	82.26
237.692	-5.8
237.909	43.35
238.127	29.01
238.344	82.26
238.562	43.35
238.779	-67.24
238.996	29.01
239.214	41.3
239.431	51.54
239.648	-9.9
239.865	-46.76
240.083	43.35
240.3	6.49
240.517	-13.99
240.735	10.58
240.952	72.02
241.169	84.31
241.386	31.06
241.603	39.25
241.821	2.39
242.038	39.25
242.255	16.73
242.472	-34.47
242.689	-30.38
242.907	78.16
243.124	10.58
243.341	-83.63
243.558	53.59
243.775	2.39
243.992	4.44
244.209	-11.95
244.426	67.92
244.643	26.96
244.86	98.64
245.078	92.5
245.295	74.07
245.512	47.44
245.729	47.44
245.946	-42.67
246.163	51.54
246.38	72.02
246.597	-13.99
246.814	43.35
247.031	31.06
247.248	31.06
247.464	31.06
247.681	45.4
247.898	2.39
248.115	63.83
248.332	2.39
248.549	55.64
248.766	98.64
248.983	33.11
249.2	-65.19
249.417	74.07
249.633	33.11
249.85	55.64
250.067	-7.85
250.284	43.35
250.501	18.77
250.717	104.79
250.934	-1.71
251.151	31.06
251.368	-13.99
251.585	55.64
251.801	39.25
252.018	-36.52
252.235	55.64
252.451	26.96
252.668	49.49
252.885	16.73
253.102	-1.71
253.318	47.44
253.535	-1.71
253.752	-46.76
253.968	43.35
254.185	45.4
254.401	-11.95
254.618	61.78
254.835	51.54
255.051	31.06
255.268	39.25
255.484	24.92
255.701	47.44
255.917	-20.14
256.134	45.4
256.351	39.25
256.567	-18.09
256.784	41.3
257	4.44
257.217	8.53
257.433	80.21
257.65	29.01
257.866	29.01
258.082	-22.19
258.299	-28.33
258.515	-22.19
258.732	16.73
258.948	-20.14
259.165	6.49
259.381	10.58
259.597	26.96
259.814	104.79
260.03	-3.75
260.246	-13.99
260.463	43.35
260.679	67.92
260.895	31.06
261.112	35.16
261.328	63.83
261.544	14.68
261.761	35.16
261.977	20.82
262.193	22.87
262.409	51.54
262.626	-28.33
262.842	39.25
263.058	-26.28
263.274	4.44
263.49	55.64
263.707	67.92
263.923	102.74
264.139	-5.8
264.355	29.01
264.571	39.25
264.787	29.01
265.004	26.96
265.22	-1.71
265.436	47.44
265.652	8.53
265.868	35.16
266.084	33.11
266.3	-50.86
266.516	-11.95
266.732	92.5
266.948	133.46
267.164	24.92
267.38	-7.85
267.596	-26.28
267.812	67.92
268.028	-42.67
268.244	-13.99
268.46	-18.09
268.676	29.01
268.892	35.16
269.108	-75.43
269.324	67.92
269.54	-5.8
269.756	18.77
269.972	14.68
270.188	78.16
270.403	59.73
270.619	67.92
270.835	47.44
271.051	76.12
271.267	-54.95
271.483	-5.8
271.698	51.54
271.914	72.02
272.13	0.34
272.346	-13.99
272.562	18.77
272.777	67.92
272.993	-7.85
273.209	61.78
273.425	6.49
273.64	92.5
273.856	121.17
274.072	10.58
274.287	-57
274.503	43.35
274.719	49.49
274.934	35.16
275.15	2.39
275.366	65.88
275.581	41.3
275.797	-20.14
276.012	112.98
276.228	2.39
276.444	31.06
276.659	90.45
276.875	51.54
277.09	24.92
277.306	-7.85
277.521	43.35
277.737	2.39
277.952	45.4
278.168	10.58
278.383	-1.71
278.599	24.92
278.814	51.54
279.03	108.88
279.245	160.08
279.461	59.73
279.676	117.08
279.892	10.58
280.107	-71.34
280.322	2.39
280.538	49.49
280.753	-3.75
280.969	63.83
281.184	2.39
281.399	84.31
281.615	0.34
281.83	59.73
282.045	29.01
282.26	-3.75
282.476	53.59
282.691	-3.75
282.906	-16.04
283.122	18.77
283.337	47.44
283.552	10.58
283.767	-26.28
283.983	-22.19
284.198	-22.19
284.413	18.77
284.628	-11.95
284.843	14.68
285.058	59.73
285.274	43.35
285.489	-13.99
285.704	49.49
285.919	-24.23
286.134	37.2
286.349	37.2
286.564	84.31
286.779	53.59
286.995	22.87
287.21	6.49
287.425	45.4
287.64	-46.76
287.855	-20.14
288.07	65.88
288.285	55.64
288.5	43.35
288.715	78.16
288.93	-11.95
289.145	12.63
289.36	-20.14
289.575	26.96
289.79	53.59
290.004	35.16
290.219	76.12
290.434	55.64
290.649	-28.33
290.864	-52.91
291.079	-9.9
291.294	67.92
291.509	78.16
291.724	12.63
291.938	82.26
292.153	102.74
292.368	10.58
292.583	78.16
292.798	4.44
293.012	37.2
293.227	63.83
293.442	-1.71
293.657	35.16
293.871	57.68
294.086	-46.76
294.301	69.97
294.516	51.54
294.73	29.01
294.945	41.3
295.16	18.77
295.374	-9.9
295.589	84.31
295.804	63.83
296.018	47.44
296.233	4.44
296.447	10.58
296.662	43.35
296.877	43.35
297.091	47.44
297.306	76.12
297.52	-28.33
297.735	10.58
297.949	35.16
298.164	-22.19
298.378	-9.9
298.593	4.44
298.807	-38.57
299.022	-38.57
299.236	37.2
299.451	78.16
299.665	45.4
299.88	39.25
300.094	10.58
300.309	6.49
300.523	12.63
300.737	-9.9
300.952	55.64
301.166	94.55
301.381	2.39
301.595	108.88
301.809	51.54
302.024	-67.24
302.238	14.68
302.452	72.02
302.667	10.58
302.881	51.54
303.095	2.39
303.309	55.64
303.524	67.92
303.738	47.44
303.952	-5.8
304.166	8.53
304.381	-34.47
304.595	33.11
304.809	-3.75
305.023	35.16
305.237	2.39
305.452	6.49
305.666	39.25
305.88	59.73
306.094	47.44
306.308	43.35
306.522	-1.71
306.736	67.92
306.95	0.34
307.164	41.3
307.379	86.36
307.593	100.69
307.807	-9.9
308.021	59.73
308.235	39.25
308.449	-42.67
308.663	41.3
308.877	59.73
309.091	59.73
309.305	74.07
309.519	35.16
309.733	86.36
309.947	-5.8
310.161	33.11
310.374	51.54
310.588	43.35
310.802	-75.43
311.016	-13.99
311.23	92.5
311.444	-9.9
311.658	-36.52
311.872	84.31
312.085	67.92
312.299	2.39
312.513	35.16
312.727	72.02
312.941	53.59
313.154	59.73
313.368	2.39
313.582	14.68
313.796	-22.19
314.009	45.4
314.223	100.69
314.437	67.92
314.651	143.7
314.864	104.79
315.078	45.4
315.292	63.83
315.505	10.58
315.719	55.64
315.933	45.4
316.146	10.58
316.36	67.92
316.573	26.96
316.787	59.73
317.001	86.36
317.214	45.4
317.428	31.06
317.641	24.92
317.855	10.58
318.068	14.68
318.282	131.41
318.495	84.31
318.709	51.54
318.922	61.78
319.136	51.54
319.349	10.58
319.563	63.83
319.776	31.06
319.99	-46.76
320.203	8.53
320.417	-20.14
320.63	76.12
320.843	104.79
321.057	12.63
321.27	100.69
321.483	39.25
321.697	12.63
321.91	14.68
322.124	49.49
322.337	43.35
322.55	37.2
322.763	59.73
322.977	-1.71
323.19	-65.19
323.403	80.21
323.617	106.84
323.83	108.88
324.043	-1.71
324.256	59.73
324.469	-3.75
324.683	43.35
324.896	61.78
325.109	125.27
325.322	-52.91
325.535	67.92
325.748	20.82
325.962	108.88
326.175	51.54
326.388	92.5
326.601	22.87
326.814	4.44
327.027	20.82
327.24	63.83
327.453	51.54
327.666	24.92
327.879	121.17
328.092	59.73
328.305	45.4
328.518	18.77
328.731	10.58
328.944	69.97
329.157	-26.28
329.37	84.31
329.583	74.07
329.796	180.56
330.009	55.64
330.222	43.35
330.435	35.16
330.648	26.96
330.861	74.07
331.073	51.54
331.286	65.88
331.499	31.06
331.712	26.96
331.925	39.25
332.138	43.35
332.35	69.97
332.563	10.58
332.776	43.35
332.989	-28.33
333.202	20.82
333.414	12.63
333.627	133.46
333.84	53.59
334.053	63.83
334.265	39.25
334.478	2.39
334.691	29.01
334.903	39.25
335.116	-5.8
335.329	45.4
335.541	20.82
335.754	78.16
335.966	31.06
336.179	59.73
336.392	-20.14
336.604	110.93
336.817	94.55
337.029	53.59
337.242	129.36
337.454	63.83
337.667	-38.57
337.88	104.79
338.092	29.01
338.305	37.2
338.517	-36.52
338.729	61.78
338.942	43.35
339.154	-59.05
339.367	26.96
339.579	47.44
339.792	39.25
340.004	12.63
340.217	22.87
340.429	94.55
340.641	-1.71
340.854	-75.43
341.066	-22.19
341.278	12.63
341.491	76.12
341.703	18.77
341.915	37.2
342.128	80.21
342.34	14.68
342.552	26.96
342.764	43.35
342.977	78.16
343.189	-65.19
343.401	26.96
343.613	-59.05
343.826	47.44
344.038	-28.33
344.25	45.4
344.462	6.49
344.674	37.2
344.886	8.53
345.099	67.92
345.311	-28.33
345.523	26.96
345.735	-77.48
345.947	65.88
346.159	-16.04
346.371	2.39
346.583	16.73
346.795	127.32
347.007	20.82
347.219	26.96
347.431	0.34
347.643	35.16
347.855	-54.95
348.067	51.54
348.279	-11.95
348.491	35.16
348.703	63.83
348.915	29.01
349.127	10.58
349.339	51.54
349.551	39.25
349.763	100.69
349.975	-5.8
350.187	51.54
350.399	76.12
350.61	90.45
350.822	-3.75
351.034	104.79
351.246	-13.99
351.458	10.58
351.669	92.5
351.881	26.96
352.093	80.21
352.305	53.59
352.517	61.78
352.728	67.92
352.94	112.98
353.152	37.2
353.363	-13.99
353.575	10.58
353.787	72.02
353.999	76.12
354.21	2.39
354.422	61.78
354.633	-1.71
354.845	-9.9
355.057	55.64
355.268	51.54
355.48	4.44
355.692	26.96
355.903	-20.14
356.115	39.25
356.326	-26.28
356.538	37.2
356.749	47.44
356.961	76.12
357.172	-22.19
357.384	76.12
357.595	125.27
357.807	29.01
358.018	-5.8
358.23	72.02
358.441	112.98
358.653	121.17
358.864	45.4
359.075	67.92
359.287	14.68
359.498	72.02
359.709	-3.75
359.921	43.35
360.132	63.83
360.344	2.39
360.555	31.06
360.766	72.02
360.977	-42.67
361.189	65.88
361.4	26.96
361.611	-3.75
361.823	20.82
362.034	39.25
362.245	47.44
362.456	35.16
362.667	18.77
362.879	67.92
363.09	90.45
363.301	35.16
363.512	67.92
363.723	61.78
363.935	35.16
364.146	24.92
364.357	10.58
364.568	67.92
364.779	-30.38
364.99	133.46
365.201	-22.19
365.412	84.31
365.623	22.87
365.834	65.88
366.045	74.07
366.256	88.4
366.467	35.16
366.678	24.92
366.889	51.54
367.1	10.58
367.311	59.73
367.522	49.49
367.733	80.21
367.944	29.01
368.155	31.06
368.366	4.44
368.577	59.73
368.788	106.84
368.999	100.69
369.209	51.54
369.42	151.89
369.631	104.79
369.842	14.68
370.053	-3.75
370.264	67.92
370.474	-46.76
370.685	41.3
370.896	86.36
371.107	12.63
371.317	29.01
371.528	39.25
371.739	63.83
371.95	74.07
372.16	26.96
372.371	22.87
372.582	47.44
372.792	22.87
373.003	96.6
373.214	26.96
373.424	51.54
373.635	67.92
373.846	110.93
374.056	47.44
374.267	-28.33
374.477	63.83
374.688	108.88
374.898	10.58
375.109	35.16
375.319	18.77
375.53	80.21
375.74	18.77
375.951	53.59
376.161	12.63
376.372	12.63
376.582	12.63
376.793	-13.99
377.003	-30.38
377.214	-3.75
377.424	33.11
377.635	88.4
377.845	76.12
378.055	51.54
378.266	-22.19
378.476	84.31
378.686	98.64
378.897	86.36
379.107	51.54
379.317	88.4
379.528	16.73
379.738	108.88
379.948	2.39
380.158	67.92
380.369	72.02
380.579	74.07
380.789	-30.38
380.999	78.16
381.21	51.54
381.42	61.78
381.63	12.63
381.84	63.83
382.05	45.4
382.261	69.97
382.471	96.6
382.681	72.02
382.891	26.96
383.101	76.12
383.311	-11.95
383.521	104.79
383.731	51.54
383.941	26.96
384.151	45.4
384.361	26.96
384.571	35.16
384.781	69.97
384.991	84.31
385.201	94.55
385.411	67.92
385.621	63.83
385.831	24.92
386.041	106.84
386.251	45.4
386.461	100.69
386.671	43.35
386.881	102.74
387.091	102.74
387.301	74.07
387.511	72.02
387.72	55.64
387.93	18.77
388.14	61.78
388.35	106.84
388.56	78.16
388.769	63.83
388.979	84.31
389.189	-18.09
389.399	80.21
389.609	72.02
389.818	72.02
390.028	78.16
390.238	153.94
390.447	22.87
390.657	-5.8
390.867	35.16
391.076	18.77
391.286	8.53
391.496	29.01
391.705	67.92
391.915	112.98
392.125	82.26
392.334	51.54
392.544	12.63
392.753	61.78
392.963	86.36
393.172	47.44
393.382	98.64
393.591	117.08
393.801	22.87
394.01	92.5
394.22	117.08
394.429	72.02
394.639	-5.8
394.848	59.73
395.058	141.65
395.267	86.36
395.477	84.31
395.686	35.16
395.895	110.93
396.105	129.36
396.314	59.73
396.524	76.12
396.733	43.35
396.942	100.69
397.152	125.27
397.361	192.85
397.57	26.96
397.78	84.31
397.989	65.88
398.198	133.46
398.407	43.35
398.617	57.68
398.826	35.16
399.035	104.79
399.244	82.26
399.453	84.31
399.663	96.6
399.872	121.17
400.081	108.88
400.29	121.17
400.499	53.59
400.708	158.03
400.917	110.93
401.127	170.32
401.336	18.77
401.545	184.66
401.754	149.84
401.963	123.22
402.172	102.74
402.381	45.4
402.59	90.45
402.799	100.69
403.008	147.8
403.217	141.65
403.426	8.53
403.635	33.11
403.844	133.46
404.053	117.08
404.262	94.55
404.471	178.51
404.68	117.08
404.888	94.55
405.097	51.54
405.306	100.69
405.515	125.27
405.724	125.27
405.933	209.23
406.142	141.65
406.35	141.65
406.559	121.17
406.768	170.32
406.977	215.38
407.185	215.38
407.394	184.66
407.603	51.54
407.812	215.38
408.02	166.23
408.229	108.88
408.438	186.71
408.646	219.47
408.855	145.75
409.064	274.77
409.272	227.67
409.481	209.23
409.69	158.03
409.898	184.66
410.107	237.91
410.315	350.54
410.524	207.19
410.733	268.63
410.941	274.77
411.15	381.26
411.358	307.54
411.567	364.88
411.775	330.06
411.984	354.64
412.192	371.02
412.401	338.26
412.609	432.46
412.818	436.56
413.026	411.98
413.234	411.98
413.443	409.94
413.651	383.31
413.86	510.29
414.068	498
414.276	592.2
414.485	569.68
414.693	510.29
414.901	596.3
415.11	567.63
415.318	534.86
415.526	655.69
415.734	706.89
415.943	696.65
416.151	602.44
416.359	665.93
416.567	682.31
416.776	815.43
416.984	770.38
417.192	817.48
417.4	756.04
417.608	819.53
417.817	858.44
418.025	928.07
418.233	977.22
418.441	948.55
418.649	1009.99
418.857	1046.85
419.065	1100.1
419.273	1036.61
419.481	1149.25
419.689	1251.65
419.897	1313.09
420.105	1196.36
420.313	1229.12
420.521	1347.9
420.729	1362.24
420.937	1397.06
421.145	1405.25
421.353	1417.54
421.561	1624.38
421.769	1595.71
421.977	1636.67
422.185	1755.45
422.393	1765.69
422.601	1796.41
422.809	1831.23
423.017	1837.37
423.224	1907
423.432	2005.3
423.64	2033.97
423.848	2197.81
424.056	2230.58
424.263	2314.55
424.471	2396.46
424.679	2375.99
424.887	2502.96
425.094	2541.87
425.302	2445.62
425.51	2734.38
425.718	2763.05
425.925	2697.52
426.133	2859.31
426.341	3010.86
426.548	3158.31
426.756	3033.38
426.964	3369.25
427.171	3412.26
427.379	3432.74
427.586	3553.57
427.794	3533.09
428.001	3780.89
428.209	4106.52
428.417	3977.5
428.624	4213.01
428.832	4155.67
429.039	4221.2
429.247	4223.25
429.454	4589.84
429.662	4655.37
429.869	4448.53
430.076	4876.55
430.284	4733.2
430.491	4921.61
430.699	5171.46
430.906	5241.09
431.114	5146.89
431.321	5503.23
431.528	5632.26
431.736	6025.47
431.943	6211.83
432.15	6023.42
432.358	5982.46
432.565	6363.38
432.772	6420.72
432.979	6873.32
433.187	6721.77
433.394	6803.69
433.601	7385.32
433.808	7422.18
434.016	7094.51
434.223	7512.29
434.43	8030.43
434.637	8007.9
434.844	8386.77
435.052	8386.77
435.259	8243.42
435.466	8589.52
435.673	8317.14
435.88	9119.95
436.087	9500.87
436.294	9482.44
436.501	9423.05
436.708	9439.43
436.915	9912.51
437.122	10647.73
437.329	10231.99
437.537	10713.27
437.743	10752.18
437.95	10793.14
438.157	11137.2
438.364	11481.25
438.571	11593.89
438.778	11540.65
438.985	12576.92
439.192	12216.47
439.399	12650.64
439.606	12128.41
439.813	13043.85
440.02	13553.8
440.227	13480.07
440.433	13371.53
440.64	13940.86
440.847	13660.29
441.054	14055.55
441.261	15016.05
441.467	14653.56
441.674	14940.27
441.881	15566.95
442.088	15485.03
442.294	15267.95
442.501	15972.45
442.708	16083.04
442.914	16783.45
443.121	17573.96
443.328	17041.49
443.534	18053.19
443.741	17463.37
443.948	17215.57
444.154	18767.93
444.361	18587.71
444.568	18569.27
444.774	18626.62
444.981	18714.68
445.187	19593.26
445.394	20264.99
445.6	20238.37
445.807	21862.41
446.013	20981.78
446.22	21450.77
446.426	22247.43
446.633	22611.96
446.839	23404.53
447.046	22329.34
447.252	23586.8
447.459	23605.23
447.665	23373.81
447.871	24289.25
448.078	25360.34
448.284	24125.41
448.491	25122.77
448.697	25898.95
448.903	26236.87
449.11	26247.11
449.316	26036.17
449.522	26400.71
449.728	27166.65
449.935	27387.83
450.141	27275.19
450.347	28002.22
450.553	27103.16
450.76	27379.64
450.966	28389.28
451.172	27961.26
451.378	29022.11
451.584	28198.82
451.791	29018.01
451.997	28934.04
452.203	29327.25
452.409	29470.61
452.615	29403.03
452.821	28190.63
453.027	27596.72
453.233	29400.98
453.44	28112.81
453.646	28403.62
453.852	28719.01
454.058	29140.89
454.264	28366.76
454.47	29091.74
454.676	28061.61
454.882	29343.64
455.088	26779.58
455.294	27135.93
455.5	27344.82
455.705	27801.52
455.911	26836.92
456.117	26625.98
456.323	25966.54
456.529	24850.39
456.735	25688.01
456.941	24948.7
457.147	24653.79
457.352	23891.94
457.558	23707.63
457.764	23789.55
457.97	23295.99
458.176	22927.35
458.381	23107.57
458.587	21641.23
458.793	21710.86
458.999	20660.25
459.204	22147.08
459.41	21403.66
459.616	19890.21
459.821	20031.52
460.027	19853.35
460.233	19556.39
460.438	18663.48
460.644	18972.72
460.85	17883.2
461.055	17715.27
461.261	17440.84
461.466	16386.14
461.672	16109.66
461.878	16781.4
462.083	15880.29
462.289	15495.27
462.494	15343.72
462.7	14973.04
462.905	14430.33
463.111	15175.79
463.316	15067.25
463.522	14639.22
463.727	14585.97
463.932	14561.4
464.138	14456.95
464.343	14512.25
464.549	14080.13
464.754	14653.56
464.959	14323.83
465.165	14166.14
465.37	13648.01
465.575	13385.87
465.781	13740.16
465.986	13987.97
466.191	13443.21
466.397	13133.96
466.602	12495
466.807	13066.38
467.012	12871.82
467.218	12849.3
467.423	12597.4
467.628	12941.46
467.833	13488.26
468.038	12867.73
468.244	12554.39
468.449	13185.16
468.654	12740.75
468.859	12544.15
469.064	12462.23
469.269	12013.73
469.474	12109.98
469.679	12269.72
469.885	12023.97
470.09	12273.82
470.295	12101.79
470.5	11677.86
470.705	11868.32
470.91	11575.46
471.115	11620.52
471.32	11681.96
471.525	11380.9
471.73	11399.34
471.935	11243.69
472.139	10924.21
472.344	11260.07
472.549	10782.9
472.754	10791.09
472.959	10641.59
473.164	10496.18
473.369	10250.42
473.574	10635.44
473.778	10455.22
473.983	10320.06
474.188	10399.93
474.393	9842.88
474.598	9851.07
474.802	9922.75
475.007	9795.78
475.212	9717.95
475.417	9509.06
475.621	9586.88
475.826	9693.38
476.031	9380.04
476.235	9119.95
476.44	9128.14
476.645	8933.58
476.849	9160.91
477.054	9042.12
477.259	8925.39
477.463	8845.52
477.668	8706.26
477.872	8767.7
478.077	8753.36
478.282	8460.5
478.486	8329.43
478.691	8186.07
478.895	8294.61
479.1	8343.77
479.304	8333.53
479.509	8075.48
479.713	8116.44
479.918	7858.4
480.122	7899.36
480.326	8016.09
480.531	8014.04
480.735	7751.9
480.94	7715.04
481.144	7923.93
481.348	7647.46
481.553	7747.81
481.757	7538.91
481.961	7833.82
482.166	7629.02
482.37	7637.22
482.574	7651.55
482.778	7522.53
482.983	7917.79
483.187	7571.68
483.391	7635.17
483.595	7528.67
483.8	7493.86
484.004	7590.11
484.208	7702.75
484.412	7448.8
484.616	7629.02
484.821	7557.35
485.025	7514.34
485.229	7608.55
485.433	7586.02
485.637	7647.46
485.841	7473.38
486.045	7506.15
486.249	7633.12
486.453	7471.33
486.657	7489.76
486.861	7489.76
487.065	7319.78
487.269	7631.07
487.473	7477.48
487.677	7600.35
487.881	7778.53
488.085	7481.57
488.289	7743.71
488.493	7381.22
488.697	7647.46
488.901	7446.76
489.105	7483.62
489.309	7543.01
489.512	7850.21
489.716	7495.91
489.92	7616.74
490.124	7725.28
490.328	7608.55
490.531	7688.42
490.735	7725.28
490.939	7854.3
491.143	7721.18
491.346	7639.26
491.55	7952.6
491.754	7801.05
491.958	7899.36
492.161	7915.74
492.365	8055
492.569	7821.53
492.772	7997.66
492.976	7991.52
493.18	8003.8
493.383	8032.47
493.587	8202.46
493.79	8196.31
493.994	8009.95
494.197	8243.42
494.401	8466.64
494.605	8327.38
494.808	8440.02
495.012	8628.43
495.215	8706.26
495.419	8730.83
495.622	8591.57
495.825	8653.01
496.029	8771.79
496.232	8939.72
496.436	8925.39
496.639	9173.19
496.843	8913.1
497.046	9195.72
497.249	9365.7
497.453	9500.87
497.656	9607.36
497.859	9496.77
498.063	9457.86
498.266	9726.14
498.469	9640.13
498.673	9932.99
498.876	9939.13
499.079	10184.89
499.282	10166.46
499.485	10203.32
499.689	10326.2
499.892	10602.68
500.095	10670.26
500.298	10930.35
500.501	10752.18
500.705	11047.08
500.908	11278.51
501.111	11491.49
501.314	11378.86
501.517	11464.87
501.72	11536.55
501.923	11675.81
502.126	11659.43
502.329	12040.35
502.532	11995.29
502.735	12122.27
502.938	12468.38
503.141	12413.08
503.344	12597.4
503.547	12603.54
503.75	12843.15
503.953	12929.17
504.156	12900.5
504.359	13285.51
504.562	13240.46
504.765	13691.01
504.968	13791.36
505.17	13944.96
505.373	14059.65
505.576	14067.84
505.779	14334.07
505.982	14299.26
506.185	14841.97
506.387	14755.96
506.59	14676.09
506.793	15192.17
506.996	15165.55
507.198	15538.28
507.401	15597.67
507.604	15612.01
507.807	15771.75
508.009	15941.73
508.212	16164.96
508.415	16330.84
508.617	16605.27
508.82	16580.7
509.022	16461.91
509.225	17066.06
509.428	17045.59
509.63	17428.56
509.833	17139.79
510.035	17713.22
510.238	17807.43
510.44	17936.45
510.643	18198.59
510.845	18171.97
511.048	18333.76
511.25	18630.71
511.453	18993.2
511.655	19195.95
511.858	19169.33
512.06	19433.52
512.262	19648.55
512.465	19728.42
512.667	20023.33
512.87	20123.68
513.072	20224.03
513.274	20561.95
513.477	20981.78
513.679	21000.21
513.881	21137.43
514.084	21231.63
514.286	21217.3
514.488	21518.35
514.69	22263.81
514.893	22173.7
515.095	22364.16
515.297	22179.84
515.499	22581.24
515.701	23269.36
515.904	23119.86
516.106	23142.39
516.308	23461.87
516.51	23857.13
516.712	23724.01
516.914	23937
517.116	24342.5
517.318	24514.53
517.52	24621.02
517.722	24795.1
517.925	25102.29
518.127	25276.37
518.329	25583.57
518.531	25391.06
518.733	25894.86
518.935	26347.46
519.136	26142.66
519.338	26519.49
519.54	26863.55
519.742	26849.21
519.944	27383.73
520.146	27353.01
520.348	27381.68
520.55	27785.13
520.752	27746.22
520.954	28067.75
521.155	28223.4
521.357	28528.55
521.559	28643.23
521.761	29407.12
521.963	28899.23
522.164	29335.45
522.366	29532.05
522.568	29863.82
522.77	29667.22
522.971	30117.77
523.173	30103.43
523.375	30441.35
523.576	30390.15
523.778	30713.73
523.98	31213.43
524.181	31113.08
524.383	31362.93
524.584	31645.55
524.786	31356.79
524.988	31508.34
525.189	31848.3
525.391	31987.57
525.592	32276.33
525.794	31999.85
525.995	32491.37
526.197	32485.22
526.398	32606.05
526.6	32896.86
526.801	32825.18
527.003	32849.76
527.204	33062.75
527.406	33265.5
527.607	33167.2
527.808	33716.05
528.01	32733.03
528.211	33711.95
528.412	34205.52
528.614	33929.04
528.815	33808.21
529.016	34199.37
529.218	33879.89
529.419	34008.91
529.62	34451.27
529.822	34676.55
530.023	34176.84
530.224	34256.71
530.425	34568.01
530.626	34019.15
530.828	34293.58
531.029	35172.16
531.23	34449.22
531.431	34686.79
531.632	34635.59
531.833	34537.29
532.035	34801.47
532.236	35348.28
532.437	35086.14
532.638	34373.45
532.839	34959.17
533.04	34821.95
533.241	34842.43
533.442	35301.18
533.643	35333.95
533.844	34967.36
534.045	35157.82
534.246	34713.41
534.447	35209.02
534.648	34989.89
534.849	35456.82
535.05	34793.28
535.251	34742.08
535.451	34899.78
535.652	35364.67
535.853	34740.04
536.054	35520.31
536.255	35135.29
536.456	35002.18
536.657	35391.29
536.857	35116.86
537.058	34731.84
537.259	35252.03
537.46	34930.5
537.66	35063.61
537.861	35196.73
538.062	34641.73
538.263	35241.79
538.463	34676.55
538.664	34742.08
538.865	35239.74
539.065	35501.88
539.266	34930.5
539.466	35209.02
539.667	35045.18
539.868	35721.01
540.068	35233.6
540.269	35000.13
540.469	35446.58
540.67	35108.67
540.87	34723.65
541.071	35211.07
541.271	35145.53
541.472	34907.97
541.672	34971.46
541.873	34729.8
542.073	34668.36
542.274	35516.22
542.474	34950.98
542.675	34664.26
542.875	34977.6
543.075	34875.2
543.276	34725.7
543.476	35127.1
543.676	34873.15
543.877	35080
544.077	35391.29
544.277	34916.16
544.478	34852.67
544.678	34914.11
544.878	34744.13
545.078	35004.22
545.279	34627.4
545.479	34762.56
545.679	35049.28
545.879	34733.89
546.079	34940.74
546.28	34723.65
546.48	34584.39
546.68	34754.37
546.88	34760.51
547.08	34590.53
547.28	34815.81
547.48	34441.03
547.68	34766.66
547.88	34916.16
548.081	34611.01
548.281	34496.33
548.481	34371.4
548.681	34756.42
548.881	34668.36
549.081	34506.57
549.28	34697.03
549.48	34678.6
549.68	34438.98
549.88	35280.7
550.08	34418.5
550.28	34611.01
550.48	34422.6
550.68	34955.07
550.88	34430.79
551.08	34232.14
551.279	34246.47
551.479	34211.66
551.679	34379.59
551.879	34250.57
552.079	34836.29
552.278	34344.78
552.478	34322.25
552.678	34496.33
552.878	34373.45
553.077	34187.08
553.277	34219.85
553.477	34680.64
553.676	34586.44
553.876	34185.04
554.076	34201.42
554.275	34096.97
554.475	33883.98
554.674	34139.98
554.874	34174.8
555.074	34117.45
555.273	34090.83
555.473	34129.74
555.672	34123.6
555.872	33820.5
556.071	34076.49
556.271	34088.78
556.47	33888.08
556.67	33849.17
556.869	33830.74
557.068	33855.31
557.268	33662.8
557.467	33570.65
557.667	33331.03
557.866	33906.51
558.065	33980.24
558.265	33281.88
558.464	33398.62
558.663	33648.47
558.863	33310.55
559.062	33822.55
559.261	33298.27
559.461	33582.93
559.66	33017.69
559.859	33015.65
560.058	32935.77
560.258	33220.44
560.457	33046.37
560.656	33218.39
560.855	32671.59
561.054	32790.37
561.253	32614.24
561.453	32747.36
561.652	33009.5
561.851	33118.04
562.05	32593.76
562.249	32397.16
562.448	32857.95
562.647	32442.21
562.846	32851.81
563.045	32491.37
563.244	32274.28
563.443	32577.38
563.642	31899.5
563.841	32233.32
564.04	32069.48
564.239	32505.7
564.438	31709.04
564.637	32169.83
564.836	31911.79
565.035	32034.67
565.234	31762.29
565.432	31833.97
565.631	31750
565.83	31811.44
566.029	31758.19
566.228	31549.3
566.427	31537.01
566.625	31262.58
566.824	30902.14
567.023	31580.02
567.222	31068.03
567.42	31528.82
567.619	31094.65
567.818	31037.31
568.016	31221.62
568.215	31618.93
568.414	30773.12
568.612	31369.08
568.811	30410.63
569.01	31045.5
569.208	30179.21
569.407	30377.86
569.605	30261.13
569.804	30752.64
570.002	29978.51
570.201	30472.07
570.4	30066.57
570.598	29847.44
570.797	29804.43
570.995	29886.35
571.193	29867.92
571.392	30027.66
571.59	29626.26
571.789	29564.82
571.987	29503.38
572.186	29564.82
572.384	29370.26
572.582	29210.52
572.781	29376.41
572.979	29329.3
573.177	29210.52
573.376	29394.84
573.574	28884.89
573.772	29179.8
573.971	28970.91
574.169	28800.93
574.367	28700.58
574.565	28827.55
574.763	28499.87
574.962	28555.17
575.16	28245.93
575.358	28530.59
575.556	28084.14
575.754	28358.56
575.952	27822
576.151	28624.8
576.349	27731.89
576.547	27940.78
576.745	28039.08
576.943	27928.49
577.141	27801.52
577.339	27830.19
577.537	27475.89
577.735	27412.4
577.933	27656.11
578.131	27310
578.329	27160.5
578.527	27168.69
578.725	27299.76
578.923	27465.65
579.121	27080.63
579.319	26734.53
579.516	26920.89
579.714	26955.71
579.912	26593.22
580.11	26810.3
580.308	26697.66
580.506	26744.77
580.704	26259.4
580.901	26404.8
581.099	26732.48
581.297	26263.49
581.495	26040.26
581.692	26630.08
581.89	26130.37
582.088	26355.65
582.285	25767.88
582.483	25987.02
582.681	26175.43
582.878	25743.31
583.076	25806.8
583.274	26027.98
583.471	25413.59
583.669	25632.72
583.866	25624.53
584.064	25419.73
584.262	25331.67
584.459	25642.96
584.657	25051.1
584.854	25597.9
585.052	25092.05
585.249	25180.12
585.447	25055.19
585.644	24907.74
585.841	25049.05
586.039	24852.44
586.236	24586.21
586.434	24584.16
586.631	24381.41
586.828	24397.79
587.026	24475.62
587.223	24436.7
587.42	24438.75
587.618	24559.58
587.815	24104.93
588.012	24193
588.21	23848.94
588.407	24018.92
588.604	23832.55
588.801	23617.52
588.999	23666.67
589.196	23754.73
589.393	23361.52
589.59	23453.68
589.787	23740.4
589.984	23414.77
590.182	23336.95
590.379	23320.56
590.576	23091.19
590.773	23431.15
590.97	23093.24
591.167	23093.24
591.364	22919.16
591.561	22992.89
591.758	22827
591.955	22431.74
592.152	22861.82
592.349	22558.72
592.546	22818.81
592.743	22798.33
592.94	22315.01
593.137	22388.74
593.334	22562.81
593.531	21999.62
593.727	22284.29
593.924	22054.92
594.121	21884.94
594.318	22134.79
594.515	21870.6
594.712	22126.6
594.908	21760.01
595.105	21921.8
595.302	21731.34
595.499	21592.08
595.696	21825.54
595.892	21364.75
596.089	21571.6
596.286	21418
596.482	21149.71
596.679	21188.63
596.876	21442.57
597.072	20910.1
597.269	21110.8
597.466	20891.67
597.662	21051.41
597.859	20922.39
598.055	20924.44
598.252	20645.91
598.448	20686.87
598.645	20908.05
598.841	20484.12
599.038	20527.13
599.234	20789.27
599.431	20426.78
599.627	20324.38
599.824	20293.66
600.02	20312.1
600.217	20469.79
600.413	20127.78
600.609	19879.97
600.806	19902.5
601.002	20013.09
601.198	19820.58
601.395	19707.94
601.591	19591.21
601.787	19671.08
601.984	19673.13
602.18	19890.21
602.376	19449.9
602.572	19415.09
602.769	19568.68
602.965	19157.04
603.161	19179.57
603.357	19171.38
603.553	19157.04
603.75	19310.64
603.946	18952.24
604.142	19062.83
604.338	18614.33
604.534	18712.63
604.73	18513.98
604.926	18757.69
605.122	18874.42
605.318	18815.03
605.514	18516.03
605.71	18516.03
605.906	18485.31
606.102	18323.52
606.298	18526.27
606.494	18427.96
606.69	18608.19
606.886	18292.8
607.082	17983.55
607.278	18190.4
607.474	17991.75
607.67	18350.14
607.866	17879.11
608.062	18040.9
608.257	18067.52
608.453	18018.37
608.649	17836.1
608.845	17629.26
609.041	17741.89
609.236	17737.8
609.432	17752.13
609.628	17782.85
609.824	17627.21
610.019	17565.77
610.215	17678.41
610.411	17662.02
610.606	17205.33
610.802	17363.02
610.998	17524.81
611.193	17426.51
611.389	17197.13
611.584	17369.16
611.78	17317.97
611.976	17133.65
612.171	17272.91
612.367	17018.96
612.562	17190.99
612.758	16990.29
612.953	16953.43
613.149	17033.3
613.344	16711.77
613.539	17205.33
613.735	16969.81
613.93	16695.38
614.126	16838.74
614.321	16738.39
614.517	16814.16
614.712	16681.05
614.907	16894.04
615.103	16844.88
615.298	16558.17
615.493	16732.25
615.688	16271.45
615.884	16891.99
616.079	16193.63
616.274	16357.47
616.47	16500.83
616.665	16461.91
616.86	16308.32
617.055	16529.5
617.25	15988.83
617.445	16015.46
617.641	16205.92
617.836	16291.93
618.031	15880.29
618.226	16132.19
618.421	15845.48
618.616	16087.14
618.811	15698.02
619.006	16244.83
619.201	15761.51
619.396	15919.2
619.591	15388.78
619.786	15890.53
619.981	15300.72
620.176	15528.04
620.371	15605.86
620.566	15319.15
620.761	15302.76
620.956	15487.08
621.151	15173.74
621.346	15018.1
621.541	14860.4
621.735	15014
621.93	14616.69
622.125	14856.31
622.32	14583.93
622.515	14499.96
622.709	14491.77
622.904	14401.66
623.099	14258.3
623.294	14434.43
623.488	14178.43
623.683	14192.76
623.878	13971.58
624.072	14278.78
624.267	14006.4
624.462	13846.66
624.656	13652.1
624.851	13762.69
625.046	13510.79
625.24	13588.61
625.435	13508.74
625.629	13527.17
625.824	13367.43
626.018	13289.61
626.213	13260.94
626.407	13080.72
626.602	12900.5
626.796	13252.75
626.991	13021.33
627.185	12927.12
627.38	12890.26
627.574	12880.02
627.768	12689.56
627.963	12437.66
628.157	12402.84
628.352	12617.88
628.546	12298.39
628.74	12456.09
628.935	12103.84
629.129	12363.93
629.323	12034.21
629.517	12030.11
629.712	12077.21
629.906	12011.68
630.1	11604.13
630.294	11894.94
630.489	11849.89
630.683	11862.18
630.877	11636.9
631.071	11487.4
631.265	11628.71
631.459	11346.09
631.653	11534.5
631.848	11421.86
632.042	11290.79
632.236	11448.49
632.43	11012.27
632.624	11088.04
632.818	11120.81
633.012	10942.64
633.206	10768.56
633.4	10967.21
633.594	10766.51
633.788	10799.28
633.982	10690.74
634.176	10631.35
634.369	10442.93
634.563	10455.22
634.757	10332.34
634.951	10526.9
635.145	10479.8
635.339	10381.49
635.533	10244.28
635.726	10227.9
635.92	10139.83
636.114	10307.77
636.308	10164.41
636.501	10195.13
636.695	9957.57
636.889	9889.98
637.083	9932.99
637.276	9812.16
637.47	9771.2
637.664	9734.34
637.857	9605.31
638.051	9564.36
638.244	9656.51
638.438	9394.37
638.632	9525.44
638.825	9564.36
639.019	9382.09
639.212	9404.61
639.406	9212.1
639.599	9103.56
639.793	9144.52
639.986	9330.89
640.18	9029.84
640.373	8968.4
640.567	8755.41
640.76	8884.43
640.954	8909.01
641.147	8825.04
641.34	8765.65
641.534	8954.06
641.727	8833.23
641.92	8646.87
642.114	8702.16
642.307	8675.54
642.5	8401.11
642.694	8366.29
642.887	8446.16
643.08	8503.51
643.273	8245.46
643.467	8005.85
643.66	8153.3
643.853	8247.51
644.046	8052.95
644.239	8159.45
644.432	8003.8
644.626	8040.67
644.819	7844.06
645.012	8083.67
645.205	7999.71
645.398	7878.88
645.591	7756
645.784	7596.26
645.977	7694.56
646.17	7610.59
646.363	7729.38
646.556	7553.25
646.749	7375.08
646.942	7366.88
647.135	7420.13
647.328	7495.91
647.521	7395.56
647.714	7370.98
647.907	7217.38
648.099	7383.27
648.292	7295.21
648.485	7123.18
648.678	7248.1
648.871	7106.79
649.064	7155.94
649.256	7016.68
649.449	7098.6
649.642	6990.06
649.835	6818.03
650.027	6861.04
650.22	6879.47
650.413	6795.5
650.605	6934.76
650.798	6719.73
650.991	6598.9
651.183	6744.3
651.376	6703.34
651.568	6721.77
651.761	6582.51
651.954	6494.45
652.146	6359.28
652.339	6467.83
652.531	6449.39
652.724	6349.04
652.916	6256.89
653.109	6328.56
653.301	6375.67
653.494	6256.89
653.686	6125.82
653.879	6052.09
654.071	6179.06
654.263	6064.38
654.456	6113.53
654.648	6156.54
654.84	6015.23
655.033	5896.44
655.225	6047.99
655.417	5755.13
655.61	5818.62
655.802	5777.66
655.994	5851.39
656.186	5820.67
656.379	5728.51
656.571	5742.85
656.763	5607.68
656.955	5595.39
657.148	5699.84
657.34	5665.02
657.532	5583.1
657.724	5456.13
657.916	5531.9
658.108	5384.45
658.3	5347.59
658.492	5435.65
658.684	5447.94
658.876	5458.18
659.068	5376.26
659.26	5370.12
659.452	5323.01
659.644	5355.78
659.836	5171.46
660.028	5212.42
660.22	5126.41
660.412	5091.59
660.604	5026.06
660.796	5175.56
660.988	5179.65
661.18	5015.82
661.372	4813.07
661.563	5038.34
661.755	4954.38
661.947	4843.79
662.139	4827.4
662.331	4700.43
662.522	4823.31
662.714	4739.34
662.906	4751.63
663.097	4704.53
663.289	4645.13
663.481	4731.15
663.673	4698.38
663.864	4647.18
664.056	4622.61
664.247	4673.81
664.439	4618.51
664.631	4561.17
664.822	4524.3
665.014	4696.33
665.205	4442.39
665.397	4507.92
665.588	4501.78
665.78	4401.43
665.971	4536.59
666.163	4399.38
666.354	4471.06
666.546	4352.27
666.737	4266.26
666.929	4145.43
667.12	4229.4
667.311	4337.94
667.503	4210.97
667.694	4290.84
667.885	4145.43
668.077	4303.12
668.268	4157.72
668.459	4192.53
668.651	4100.37
668.842	3983.64
669.033	3957.02
669.224	4151.57
669.416	4098.33
669.607	3981.59
669.798	3846.43
669.989	3969.3
670.18	3930.39
670.371	3950.87
670.563	4034.84
670.754	3952.92
670.945	3823.9
671.136	3875.1
671.327	3914.01
671.518	3807.52
671.709	3877.15
671.9	3903.77
672.091	3887.39
672.282	3780.89
672.473	3758.36
672.664	3827.99
672.855	3686.69
673.046	3787.04
673.237	3713.31
673.428	3553.57
673.619	3649.82
673.809	3588.38
674	3688.73
674.191	3713.31
674.382	3543.33
674.573	3524.9
674.764	3447.07
674.954	3737.88
675.145	3461.41
675.336	3565.85
675.527	3442.98
675.717	3535.14
675.908	3504.42
676.099	3541.28
676.289	3531.04
676.48	3391.78
676.671	3414.31
676.861	3483.94
677.052	3326.24
677.243	3422.5
677.433	3369.25
677.624	3344.67
677.814	3516.7
678.005	3365.15
678.195	3438.88
678.386	3242.28
678.576	3391.78
678.767	3250.47
678.957	3246.37
679.148	3363.11
679.338	3313.95
679.529	3201.32
679.719	3281.19
679.909	3221.8
680.1	3445.02
680.29	3289.38
680.481	3217.7
680.671	3297.57
680.861	3207.46
681.052	3152.17
681.242	3291.43
681.432	3234.08
681.622	3123.49
681.813	3201.32
682.003	3215.65
682.193	3162.41
682.383	3219.75
682.573	3166.5
682.764	3139.88
682.954	3229.99
683.144	3229.99
683.334	3004.71
683.524	3287.33
683.714	3039.53
683.904	3100.97
684.094	3100.97
684.284	3060.01
684.474	3082.53
684.664	3127.59
684.854	3017
685.044	3107.11
685.234	2861.35
685.424	3000.62
685.614	2951.46
685.804	2967.85
685.994	2928.94
686.184	3006.76
686.374	2900.27
686.564	2896.17
686.753	2971.94
686.943	2916.65
687.133	2849.07
687.323	2930.98
687.513	2865.45
687.702	2953.51
687.892	2801.96
688.082	2777.39
688.272	2838.83
688.461	2847.02
688.651	2863.4
688.841	2879.79
689.03	2804.01
689.22	2758.96
689.41	2644.27
689.599	2693.42
689.789	2740.52
689.979	2791.72
690.168	2730.28
690.358	2726.19
690.547	2550.06
690.737	2580.78
690.926	2625.84
691.116	2631.98
691.305	2689.32
691.495	2578.73
691.684	2476.34
691.874	2521.39
692.063	2623.79
692.252	2574.64
692.442	2648.36
692.631	2509.1
692.82	2509.1
693.01	2560.3
693.199	2484.53
693.388	2537.77
693.578	2355.51
693.767	2519.34
693.956	2492.72
694.146	2576.69
694.335	2437.42
694.524	2437.42
694.713	2427.18
694.902	2404.66
695.092	2394.42
695.281	2427.18
695.47	2206
695.659	2459.95
695.848	2429.23
696.037	2304.31
696.226	2300.21
696.415	2298.16
696.604	2455.86
696.793	2314.55
696.982	2359.6
697.171	2363.7
697.36	2359.6
697.549	2287.92
697.738	2302.26
697.927	2265.39
698.116	2306.35
698.305	2312.5
698.494	2236.72
698.683	2275.63
698.872	2326.83
699.061	2251.06
699.25	2230.58
699.438	2312.5
699.627	2173.24
699.816	2281.78
700.005	2253.11
700.193	2169.14
700.382	2296.11
700.571	2246.96
700.76	2242.87
700.948	2230.58
701.137	2115.89
701.326	2230.58
701.514	2115.89
701.703	2115.89
701.892	2169.14
702.08	2226.48
702.269	2095.41
702.457	2191.67
702.646	2212.15
702.834	2099.51
703.023	2136.37
703.212	2306.35
703.4	2081.08
703.589	2126.13
703.777	2185.52
703.965	2052.41
704.154	2089.27
704.342	2136.37
704.531	2181.43
704.719	2197.81
704.907	2181.43
705.096	2083.13
705.284	2095.41
705.472	2038.07
705.661	2193.72
705.849	2169.14
706.037	2189.62
706.226	2222.39
706.414	2117.94
706.602	2132.28
706.79	2113.85
706.979	2189.62
707.167	2169.14
707.355	2115.89
707.543	2140.47
707.731	2115.89
707.919	2074.93
708.107	2093.37
708.296	2083.13
708.484	2099.51
708.672	2060.6
708.86	2163
709.048	2036.02
709.236	2058.55
709.424	2060.6
709.612	2214.2
709.8	2033.97
709.988	2050.36
710.176	2029.88
710.364	2142.52
710.551	2072.89
710.739	2142.52
710.927	2095.41
711.115	2068.79
711.303	2070.84
711.491	2146.61
711.679	2148.66
711.866	2060.6
712.054	2103.61
712.242	2021.69
712.43	2181.43
712.617	2099.51
712.805	2105.65
712.993	2105.65
713.181	1986.87
713.368	2111.8
713.556	2119.99
713.744	2134.32
713.931	2167.09
714.119	2183.48
714.306	1974.58
714.494	1984.82
714.682	2066.74
714.869	2085.17
715.057	2042.17
715.244	1997.11
715.432	2099.51
715.619	2021.69
715.807	2087.22
715.994	2091.32
716.182	2019.64
716.369	2017.59
716.556	2023.73
716.744	1997.11
716.931	2027.83
717.119	1995.06
717.306	1972.54
717.493	2079.03
717.681	2087.22
717.868	1927.48
718.055	2126.13
718.242	2003.25
718.43	2158.9
718.617	2009.4
718.804	1993.01
718.991	2056.5
719.179	2119.99
719.366	2146.61
719.553	2140.47
719.74	1978.68
719.927	2185.52
720.114	2103.61
720.301	2099.51
720.488	1943.86
720.676	2081.08
720.863	2038.07
721.05	2201.91
721.237	2050.36
721.424	2128.18
721.611	1974.58
721.798	1956.15
721.985	2072.89
722.172	2017.59
722.358	1931.58
722.545	2068.79
722.732	2060.6
722.919	2060.6
723.106	2066.74
723.293	2091.32
723.48	2054.45
723.667	2134.32
723.853	1976.63
724.04	2165.04
724.227	2017.59
724.414	2113.85
724.6	2027.83
724.787	2066.74
724.974	2070.84
725.161	2013.49
725.347	1997.11
725.534	2076.98
725.72	2107.7
725.907	2058.55
726.094	2085.17
726.28	1988.92
726.467	2048.31
726.653	2038.07
726.84	2058.55
727.027	2142.52
727.213	2058.55
727.4	2068.79
727.586	2150.71
727.773	1964.34
727.959	2148.66
728.145	2050.36
728.332	1997.11
728.518	2066.74
728.705	2132.28
728.891	2025.78
729.077	2038.07
729.264	2025.78
729.45	1945.91
729.636	2050.36
729.823	1993.01
730.009	2001.21
730.195	2095.41
730.382	2068.79
730.568	2003.25
730.754	1968.44
730.94	2042.17
731.126	1945.91
731.313	2042.17
731.499	2119.99
731.685	2093.37
731.871	1935.67
732.057	2117.94
732.243	2089.27
732.429	2001.21
732.615	2124.08
732.801	2029.88
732.987	2023.73
733.173	1964.34
733.359	2031.93
733.545	2009.4
733.731	2060.6
733.917	2091.32
734.103	2013.49
734.289	2027.83
734.475	2025.78
734.661	2070.84
734.847	2081.08
735.033	2105.65
735.219	1937.72
735.404	1909.05
735.59	1993.01
735.776	2009.4
735.962	1909.05
736.148	2132.28
736.333	1968.44
736.519	2085.17
736.705	2025.78
736.89	2036.02
737.076	1984.82
737.262	1923.38
737.447	1986.87
737.633	1990.97
737.819	2017.59
738.004	1935.67
738.19	1982.78
738.375	2001.21
738.561	2011.45
738.747	2081.08
738.932	1911.1
739.118	2036.02
739.303	1958.2
739.489	2021.69
739.674	1956.15
739.859	1913.14
740.045	1888.57
740.23	1986.87
740.416	1884.47
740.601	1970.49
740.786	2029.88
740.972	1898.81
741.157	1853.75
741.342	1960.25
741.528	1890.62
741.713	1941.82
741.898	1904.95
742.084	1741.11
742.269	1829.18
742.454	1892.66
742.639	1968.44
742.824	1902.9
743.01	1931.58
743.195	1868.09
743.38	1939.77
743.565	1792.31
743.75	1816.89
743.935	1773.88
744.12	1831.23
744.305	1663.29
744.49	1759.55
744.675	1767.74
744.86	1800.51
745.045	1937.72
745.23	1792.31
745.415	1757.5
745.6	1812.79
745.785	1675.58
745.97	1640.76
746.155	1698.11
746.34	1780.03
746.525	1593.66
746.71	1718.59
746.895	1773.88
747.079	1696.06
747.264	1739.07
747.449	1718.59
747.634	1694.01
747.819	1700.16
748.003	1681.72
748.188	1610.04
748.373	1640.76
748.557	1681.72
748.742	1673.53
748.927	1589.57
749.111	1608
749.296	1513.79
749.481	1534.27
749.665	1526.08
749.85	1583.42
750.034	1634.62
750.219	1493.31
750.404	1497.41
750.588	1532.22
750.773	1501.5
750.957	1499.45
751.141	1349.95
751.326	1487.17
751.51	1505.6
751.695	1454.4
751.879	1435.97
752.064	1419.58
752.248	1347.9
752.432	1444.16
752.617	1366.34
752.801	1323.33
752.985	1417.54
753.17	1366.34
753.354	1454.4
753.538	1386.82
753.722	1345.86
753.907	1313.09
754.091	1304.9
754.275	1261.89
754.459	1349.95
754.643	1380.67
754.828	1315.14
755.012	1231.17
755.196	1247.55
755.38	1345.86
755.564	1265.99
755.748	1321.28
755.932	1272.13
756.116	1239.36
756.3	1190.21
756.484	1239.36
756.668	1255.75
756.852	1184.07
757.036	1225.03
757.22	1210.69
757.404	1147.2
757.588	1145.16
757.772	1276.23
757.956	1182.02
758.14	1202.5
758.323	1100.1
758.507	1108.29
758.691	1237.31
758.875	1167.68
759.059	1116.48
759.242	1091.91
759.426	1128.77
759.61	1182.02
759.794	1093.96
759.977	1077.57
760.161	1079.62
760.345	1112.39
760.528	1149.25
760.712	1108.29
760.895	1071.43
761.079	973.13
761.263	1134.92
761.446	1014.09
761.63	1034.57
761.813	973.13
761.997	954.69
762.18	1093.96
762.364	991.56
762.547	1053
762.731	1018.18
762.914	966.98
763.098	962.89
763.281	993.61
763.464	1009.99
763.648	923.98
763.831	956.74
764.015	958.79
764.198	1044.81
764.381	983.37
764.564	1098.05
764.748	936.26
764.931	915.78
765.114	1036.61
765.297	1003.85
765.481	911.69
765.664	993.61
765.847	995.65
766.03	1018.18
766.213	928.07
766.397	917.83
766.58	977.22
766.763	966.98
766.946	903.5
767.129	985.41
767.312	979.27
767.495	831.82
767.678	874.82
767.861	872.78
768.044	891.21
768.227	895.3
768.41	887.11
768.593	821.58
768.776	874.82
768.959	899.4
769.142	831.82
769.324	813.38
769.507	903.5
769.69	850.25
769.873	878.92
770.056	805.19
770.239	880.97
770.421	934.22
770.604	870.73
770.787	821.58
770.97	821.58
771.152	840.01
771.335	760.14
771.518	813.38
771.7	903.5
771.883	837.96
772.066	764.23
772.248	762.19
772.431	788.81
772.613	821.58
772.796	739.66
772.978	768.33
773.161	756.04
773.343	813.38
773.526	790.86
773.708	633.16
773.891	715.08
774.073	840.01
774.256	790.86
774.438	735.56
774.621	651.6
774.803	840.01
774.985	729.42
775.168	797
775.35	667.98
775.532	788.81
775.715	766.28
775.897	692.55
776.079	682.31
776.261	756.04
776.444	766.28
776.626	690.51
776.808	649.55
776.99	725.32
777.173	719.18
777.355	688.46
777.537	682.31
777.719	659.79
777.901	651.6
778.083	538.96
778.265	657.74
778.447	592.2
778.629	612.68
778.811	592.2
778.993	622.92
779.175	637.26
779.357	629.07
779.539	590.16
779.721	530.77
779.903	665.93
780.085	616.78
780.267	608.59
780.449	606.54
780.631	532.81
780.812	594.25
780.994	598.35
781.176	543.05
781.358	594.25
781.54	485.71
781.721	551.24
781.903	520.53
782.085	586.06
782.267	463.18
782.448	481.61
782.63	438.61
782.812	598.35
782.993	557.39
783.175	598.35
783.357	495.95
783.538	545.1
783.72	420.17
783.901	495.95
784.083	536.91
784.264	461.13
784.446	487.76
784.627	461.13
784.809	457.04
784.99	444.75
785.172	495.95
785.353	530.77
785.535	454.99
785.716	440.65
785.897	375.12
786.079	436.56
786.26	487.76
786.441	512.33
786.623	334.16
786.804	452.94
786.985	498
787.167	383.31
787.348	366.93
787.529	391.5
787.71	510.29
787.891	287.06
788.073	461.13
788.254	403.79
788.435	401.74
788.616	330.06
788.797	338.26
788.978	422.22
789.159	401.74
789.34	446.8
789.522	362.83
789.703	354.64
789.884	422.22
790.065	323.92
790.246	315.73
790.427	276.82
790.607	434.51
790.788	307.54
790.969	371.02
791.15	405.84
791.331	323.92
791.512	364.88
791.693	266.58
791.874	379.22
792.054	346.45
792.235	399.7
792.416	379.22
792.597	305.49
792.778	332.11
792.958	338.26
793.139	358.74
793.32	311.63
793.5	184.66
793.681	405.84
793.862	256.34
794.042	317.78
794.223	256.34
794.404	321.87
794.584	215.38
794.765	330.06
794.945	321.87
795.126	338.26
795.306	305.49
795.487	295.25
795.667	282.96
795.848	334.16
796.028	239.95
796.209	321.87
796.389	293.2
796.57	268.63
796.75	274.77
796.93	291.15
797.111	242
797.291	348.5
797.471	264.53
797.652	239.95
797.832	272.72
798.012	309.58
798.192	305.49
798.373	235.86
798.553	264.53
798.733	291.15
798.913	215.38
799.093	225.62
799.274	256.34
799.454	301.39
799.634	301.39
799.814	229.71
799.994	242
800.174	258.39
800.354	256.34
800.534	225.62
800.714	248.15
800.894	231.76
801.074	225.62
801.254	201.04
801.434	252.24
801.614	174.42
801.794	221.52
801.974	837.96
802.154	215.38
802.334	250.19
802.514	244.05
802.693	244.05
802.873	231.76
803.053	250.19
803.233	184.66
803.413	264.53
803.592	246.1
803.772	233.81
803.952	174.42
804.131	158.03
804.311	237.91
804.491	239.95
804.67	215.38
804.85	203.09
805.03	203.09
805.209	223.57
805.389	209.23
805.568	166.23
805.748	305.49
805.928	252.24
806.107	121.17
806.287	174.42
806.466	198.99
806.646	223.57
806.825	182.61
807.004	227.67
807.184	198.99
807.363	172.37
807.543	198.99
807.722	166.23
807.901	225.62
808.081	166.23
808.26	129.36
808.439	168.27
808.619	211.28
808.798	94.55
808.977	198.99
809.156	235.86
809.336	166.23
809.515	176.47
809.694	141.65
809.873	160.08
810.052	244.05
810.231	170.32
810.411	198.99
810.59	209.23
810.769	98.64
810.948	207.19
811.127	151.89
811.306	172.37
811.485	203.09
811.664	196.95
811.843	198.99
812.022	176.47
812.201	100.69
812.38	170.32
812.559	158.03
812.737	174.42
812.916	176.47
813.095	170.32
813.274	143.7
813.453	131.41
813.632	170.32
813.811	198.99
813.989	145.75
814.168	203.09
814.347	119.12
814.526	153.94
814.704	207.19
814.883	207.19
815.062	98.64
815.24	170.32
815.419	149.84
815.598	125.27
815.776	139.6
815.955	135.51
816.133	37.2
816.312	96.6
816.49	51.54
816.669	133.46
816.847	47.44
817.026	76.12
817.204	129.36
817.383	149.84
817.561	147.8
817.74	121.17
817.918	231.76
818.097	215.38
818.275	121.17
818.453	166.23
818.632	176.47
818.81	84.31
818.988	76.12
819.167	141.65
819.345	84.31
819.523	57.68
819.701	117.08
819.879	141.65
820.058	86.36
820.236	139.6
820.414	112.98
820.592	74.07
820.77	158.03
820.948	86.36
821.127	-13.99
821.305	125.27
821.483	59.73
821.661	110.93
821.839	125.27
822.017	145.75
822.195	166.23
822.373	158.03
822.551	117.08
822.729	18.77
822.907	86.36
823.085	129.36
823.262	92.5
823.44	76.12
823.618	80.21
823.796	82.26
823.974	110.93
824.152	20.82
824.329	145.75
824.507	22.87
824.685	125.27
824.863	108.88
825.04	84.31
825.218	133.46
825.396	108.88
825.574	45.4
825.751	69.97
825.929	125.27
826.107	110.93
826.284	67.92
826.462	121.17
826.639	63.83
826.817	6.49
826.994	110.93
827.172	31.06
827.349	186.71
827.527	127.32
827.704	121.17
827.882	112.98
828.059	45.4
828.237	129.36
828.414	145.75
828.591	-48.81
828.769	76.12
828.946	72.02
829.124	127.32
829.301	86.36
829.478	59.73
829.655	92.5
829.833	121.17
830.01	49.49
830.187	24.92
830.364	129.36
830.542	76.12
830.719	94.55
830.896	106.84
831.073	80.21
831.25	94.55
831.427	106.84
831.604	43.35
831.782	61.78
831.959	110.93
832.136	86.36
832.313	133.46
832.49	31.06
832.667	74.07
832.844	69.97
833.021	190.8
833.198	117.08
833.374	92.5
833.551	29.01
833.728	174.42
833.905	51.54
834.082	-1.71
834.259	82.26
834.436	125.27
834.612	12.63
834.789	121.17
834.966	59.73
835.143	117.08
835.319	94.55
835.496	84.31
835.673	59.73
835.85	100.69
836.026	104.79
836.203	47.44
836.38	2.39
836.556	55.64
836.733	-11.95
836.909	151.89
837.086	135.51
837.262	26.96
837.439	-20.14
837.616	61.78
837.792	72.02
837.968	26.96
838.145	24.92
838.321	18.77
838.498	94.55
838.674	59.73
838.851	67.92
839.027	4.44
839.203	35.16
839.38	86.36
839.556	86.36
839.732	92.5
839.909	18.77
840.085	53.59
840.261	31.06
840.437	78.16
840.614	49.49
840.79	100.69
840.966	63.83
841.142	41.3
841.318	31.06
841.494	123.22
841.671	86.36
841.847	158.03
842.023	55.64
842.199	102.74
842.375	127.32
842.551	-3.75
842.727	55.64
842.903	102.74
843.079	-13.99
843.255	119.12
843.431	59.73
843.607	69.97
843.783	2.39
843.959	147.8
844.134	2.39
844.31	76.12
844.486	6.49
844.662	29.01
844.838	84.31
845.013	57.68
845.189	18.77
845.365	84.31
845.541	94.55
845.716	119.12
845.892	108.88
846.068	55.64
846.244	39.25
846.419	55.64
846.595	31.06
846.77	53.59
846.946	43.35
847.122	-5.8
847.297	-3.75
847.473	135.51
847.648	-63.15
847.824	76.12
847.999	39.25
848.175	-44.71
848.35	72.02
848.526	119.12
848.701	59.73
848.876	108.88
849.052	55.64
849.227	53.59
849.403	29.01
849.578	86.36
849.753	69.97
849.929	57.68
850.104	31.06
850.279	26.96
850.454	-79.53
850.63	69.97
850.805	67.92
850.98	37.2
851.155	-20.14
851.33	-13.99
851.505	-26.28
851.681	96.6
851.856	80.21
852.031	55.64
852.206	-13.99
852.381	59.73
852.556	72.02
852.731	45.4
852.906	51.54
853.081	18.77
853.256	100.69
853.431	51.54
853.606	-28.33
853.781	4.44
853.956	-28.33
854.131	61.78
854.305	72.02
854.48	-13.99
854.655	-36.52
854.83	45.4
855.005	-54.95
855.18	67.92
855.354	12.63
855.529	76.12
855.704	4.44
855.879	59.73
856.053	63.83
856.228	26.96
856.403	-16.04
856.577	49.49
856.752	-28.33
856.926	18.77
857.101	26.96
857.276	-34.47
857.45	-28.33
857.625	100.69
857.799	20.82
857.974	-7.85
858.148	88.4
858.323	69.97
858.497	26.96
858.672	20.82
858.846	18.77
859.02	10.58
859.195	69.97
859.369	92.5
859.543	6.49
859.718	-42.67
859.892	14.68
860.066	14.68
860.241	49.49
860.415	69.97
860.589	55.64
860.763	43.35
860.938	88.4
861.112	18.77
861.286	-5.8
861.46	4.44
861.634	6.49
861.808	51.54
861.982	6.49
862.157	45.4
862.331	10.58
862.505	-61.1
862.679	2.39
862.853	112.98
863.027	12.63
863.201	10.58
863.375	10.58
863.549	26.96
863.722	-42.67
863.896	26.96
864.07	-11.95
864.244	-3.75
864.418	20.82
864.592	-9.9
864.766	-44.71
864.939	-1.71
865.113	26.96
865.287	37.2
865.461	55.64
865.634	39.25
865.808	69.97
865.982	78.16
866.156	14.68
866.329	-13.99
866.503	72.02
866.676	39.25
866.85	4.44
867.024	4.44
867.197	69.97
867.371	78.16
867.544	14.68
867.718	-1.71
867.891	29.01
868.065	-67.24
868.238	-24.23
868.412	53.59
868.585	39.25
868.759	20.82
868.932	-34.47
869.105	88.4
869.279	18.77
869.452	4.44
869.625	16.73
869.799	29.01
869.972	22.87
870.145	6.49
870.319	37.2
870.492	-24.23
870.665	26.96
870.838	72.02
871.011	37.2
871.185	53.59
871.358	-44.71
871.531	61.78
871.704	69.97
871.877	10.58
872.05	26.96
872.223	-28.33
872.396	10.58
872.569	35.16
872.742	-1.71
872.915	-13.99
873.088	-30.38
873.261	20.82
873.434	-13.99
873.607	12.63
873.78	41.3
873.953	-26.28
874.126	108.88
874.299	-3.75
874.471	26.96
874.644	88.4
874.817	-1.71
874.99	10.58
875.163	-28.33
875.335	-22.19
875.508	86.36
875.681	47.44
875.853	43.35
876.026	-34.47
876.199	55.64
876.371	6.49
876.544	72.02
876.717	10.58
876.889	10.58
877.062	117.08
877.234	-34.47
877.407	35.16
877.579	10.58
877.752	80.21
877.924	51.54
878.097	4.44
878.269	29.01
878.442	-22.19
878.614	10.58
878.786	76.12
878.959	-13.99
879.131	35.16
879.303	-42.67
879.476	-44.71
879.648	55.64
879.82	78.16
879.993	-5.8
880.165	88.4
880.337	10.58
880.509	67.92
880.681	-54.95
880.854	55.64
881.026	96.6
881.198	108.88
881.37	-9.9
881.542	12.63
881.714	2.39
881.886	45.4
882.058	-9.9
882.23	20.82
882.402	53.59
882.574	-5.8
882.746	45.4
882.918	41.3
883.09	-28.33
883.262	37.2
883.434	26.96
883.606	0.34
883.778	41.3
883.95	37.2
884.122	-38.57
884.293	51.54
884.465	-57
884.637	37.2
884.809	63.83
884.98	-59.05
885.152	-18.09
885.324	22.87
885.496	-42.67
885.667	12.63
885.839	-1.71
886.011	6.49
886.182	53.59
886.354	10.58
886.525	-1.71
886.697	-22.19
886.869	18.77
887.04	45.4
887.212	104.79
887.383	2.39
887.555	10.58
887.726	-13.99
887.897	-44.71
888.069	20.82
888.24	51.54
888.412	59.73
888.583	-13.99
888.754	-13.99
888.926	20.82
889.097	-54.95
889.268	-59.05
889.44	10.58
889.611	-38.57
889.782	-26.28
889.953	-22.19
890.125	92.5
890.296	-63.15
890.467	26.96
890.638	-40.62
890.809	29.01
890.98	6.49
891.151	59.73
891.323	61.78
891.494	24.92
891.665	-16.04
891.836	-24.23
892.007	-52.91
892.178	43.35
892.349	12.63
892.52	76.12
892.691	35.16
892.862	72.02
893.032	12.63
893.203	53.59
893.374	-38.57
893.545	47.44
893.716	78.16
893.887	39.25
894.057	-67.24
894.228	26.96
894.399	-1.71
894.57	18.77
894.74	-46.76
894.911	47.44
895.082	-20.14
895.253	-83.63
895.423	18.77
895.594	22.87
895.764	-1.71
895.935	-34.47
896.106	100.69
896.276	47.44
896.447	29.01
896.617	26.96
896.788	2.39
896.958	-13.99
897.129	31.06
897.299	-34.47
897.47	0.34
897.64	92.5
897.81	-38.57
897.981	2.39
898.151	20.82
898.322	2.39
898.492	4.44
898.662	96.6
898.832	-22.19
899.003	-54.95
899.173	-69.29
899.343	-54.95
899.513	2.39
