Data from USB4F104151__232__14-45-39-269.txt Node

Date: Thu Mar 13 14:45:39 EDT 2025
User: louis
Spectrometer: USB4F10415
Trigger mode: 4
Integration Time (sec): 2.000000E-2
Scans to average: 1
Electric dark correction enabled: true
Nonlinearity correction enabled: false
Boxcar width: 0
XAxis mode: Wavelengths
Number of Pixels in Spectrum: 3648
>>>>>Begin Spectral Data<<<<<
178.204	-85.33
178.424	-85.33
178.644	-85.33
178.864	-148.82
179.084	-140.63
179.304	25.26
179.524	31.4
179.744	-91.48
179.964	33.45
180.184	8.87
180.404	-3.41
180.624	4.78
180.844	53.93
181.064	-48.47
181.283	-11.61
181.503	-71
181.723	68.27
181.943	-23.89
182.163	49.83
182.383	-19.8
182.602	76.46
182.822	47.79
183.042	4.78
183.262	-19.8
183.482	12.97
183.701	6.83
183.921	-15.7
184.141	-44.37
184.361	70.31
184.58	4.78
184.8	45.74
185.02	-11.61
185.239	25.26
185.459	-27.99
185.679	-32.08
185.898	-7.51
186.118	74.41
186.338	43.69
186.557	55.98
186.777	10.92
186.997	51.88
187.216	25.26
187.436	70.31
187.655	33.45
187.875	15.02
188.095	12.97
188.314	-13.65
188.534	74.41
188.753	12.97
188.973	12.97
189.192	70.31
189.412	-17.75
189.631	-34.13
189.851	21.16
190.07	35.5
190.29	-11.61
190.509	-44.37
190.729	4.78
190.948	74.41
191.168	105.13
191.387	135.85
191.607	-23.89
191.826	4.78
192.045	-27.99
192.265	58.03
192.484	12.97
192.704	31.4
192.923	-19.8
193.142	62.12
193.362	45.74
193.581	105.13
193.8	29.35
194.02	-3.41
194.239	15.02
194.458	21.16
194.678	8.87
194.897	29.35
195.116	64.17
195.335	25.26
195.555	21.16
195.774	-36.18
195.993	45.74
196.212	-1.37
196.432	-13.65
196.651	-15.7
196.87	33.45
197.089	119.46
197.308	-68.95
197.528	45.74
197.747	-77.14
197.966	-79.19
198.185	-1.37
198.404	-9.56
198.623	-25.94
198.842	21.16
199.062	15.02
199.281	105.13
199.5	78.51
199.719	78.51
199.938	47.79
200.157	-7.51
200.376	27.31
200.595	80.55
200.814	103.08
201.033	21.16
201.252	-52.56
201.471	2.73
201.69	37.55
201.909	29.35
202.128	-23.89
202.347	-11.61
202.566	-34.13
202.785	-11.61
203.004	21.16
203.223	131.75
203.442	72.36
203.661	49.83
203.879	39.59
204.098	31.4
204.317	0.68
204.536	4.78
204.755	23.21
204.974	-77.14
205.193	33.45
205.411	90.79
205.63	-1.37
205.849	-21.85
206.068	-34.13
206.287	21.16
206.505	82.6
206.724	-48.47
206.943	-44.37
207.162	-17.75
207.381	21.16
207.599	10.92
207.818	17.07
208.037	-56.66
208.255	86.7
208.474	-9.56
208.693	10.92
208.911	23.21
209.13	25.26
209.349	39.59
209.567	-34.13
209.786	88.75
210.005	19.11
210.223	31.4
210.442	-27.99
210.661	43.69
210.879	41.64
211.098	23.21
211.316	23.21
211.535	70.31
211.753	-27.99
211.972	37.55
212.191	39.59
212.409	53.93
212.628	39.59
212.846	-13.65
213.065	27.31
213.283	33.45
213.502	37.55
213.72	0.68
213.938	-36.18
214.157	49.83
214.375	53.93
214.594	-17.75
214.812	109.22
215.031	25.26
215.249	6.83
215.467	-36.18
215.686	37.55
215.904	41.64
216.122	17.07
216.341	74.41
216.559	37.55
216.778	8.87
216.996	4.78
217.214	25.26
217.432	25.26
217.651	-9.56
217.869	27.31
218.087	21.16
218.306	-44.37
218.524	-25.94
218.742	-36.18
218.96	-9.56
219.179	-3.41
219.397	39.59
219.615	41.64
219.833	6.83
220.051	17.07
220.27	64.17
220.488	94.89
220.706	39.59
220.924	2.73
221.142	-3.41
221.36	-1.37
221.578	58.03
221.796	29.35
222.015	21.16
222.233	53.93
222.451	58.03
222.669	-21.85
222.887	39.59
223.105	-7.51
223.323	31.4
223.541	4.78
223.759	66.22
223.977	47.79
224.195	49.83
224.413	-34.13
224.631	55.98
224.849	62.12
225.067	111.27
225.285	-68.95
225.503	96.94
225.721	-114
225.939	37.55
226.157	29.35
226.375	86.7
226.592	-42.32
226.81	-27.99
227.028	74.41
227.246	53.93
227.464	-66.9
227.682	-11.61
227.9	-1.37
228.117	47.79
228.335	-23.89
228.553	45.74
228.771	68.27
228.989	45.74
229.206	-1.37
229.424	53.93
229.642	-27.99
229.86	-17.75
230.077	29.35
230.295	25.26
230.513	37.55
230.731	35.5
230.948	70.31
231.166	-7.51
231.384	-3.41
231.601	45.74
231.819	88.75
232.037	-66.9
232.254	-15.7
232.472	53.93
232.689	39.59
232.907	58.03
233.125	0.68
233.342	53.93
233.56	-34.13
233.777	23.21
233.995	-11.61
234.213	90.79
234.43	-54.61
234.648	0.68
234.865	45.74
235.083	29.35
235.3	35.5
235.518	98.99
235.735	94.89
235.953	-15.7
236.17	-17.75
236.388	-23.89
236.605	31.4
236.822	27.31
237.04	47.79
237.257	74.41
237.475	41.64
237.692	-9.56
237.909	29.35
238.127	29.35
238.344	-7.51
238.562	-30.04
238.779	-68.95
238.996	-15.7
239.214	53.93
239.431	-7.51
239.648	-30.04
239.865	21.16
240.083	53.93
240.3	-3.41
240.517	-17.75
240.735	23.21
240.952	68.27
241.169	72.36
241.386	31.4
241.603	41.64
241.821	-36.18
242.038	0.68
242.255	6.83
242.472	-60.76
242.689	66.22
242.907	82.6
243.124	98.99
243.341	37.55
243.558	33.45
243.775	-52.56
243.992	53.93
244.209	-19.8
244.426	41.64
244.643	43.69
244.86	-3.41
245.078	37.55
245.295	43.69
245.512	-5.46
245.729	12.97
245.946	-15.7
246.163	-11.61
246.38	-25.94
246.597	-50.52
246.814	31.4
247.031	-25.94
247.248	125.61
247.464	-13.65
247.681	-36.18
247.898	-19.8
248.115	-27.99
248.332	-23.89
248.549	45.74
248.766	72.36
248.983	74.41
249.2	-13.65
249.417	72.36
249.633	-25.94
249.85	-32.08
250.067	-13.65
250.284	23.21
250.501	-7.51
250.717	25.26
250.934	-27.99
251.151	37.55
251.368	6.83
251.585	-27.99
251.801	47.79
252.018	-1.37
252.235	-21.85
252.451	19.11
252.668	64.17
252.885	-44.37
253.102	17.07
253.318	6.83
253.535	-15.7
253.752	0.68
253.968	107.18
254.185	-85.33
254.401	-34.13
254.618	-23.89
254.835	29.35
255.051	88.75
255.268	82.6
255.484	37.55
255.701	-1.37
255.917	-27.99
256.134	-44.37
256.351	17.07
256.567	-66.9
256.784	-7.51
257	96.94
257.217	98.99
257.433	-19.8
257.65	39.59
257.866	12.97
258.082	-15.7
258.299	-58.71
258.515	86.7
258.732	-9.56
258.948	37.55
259.165	53.93
259.381	-17.75
259.597	86.7
259.814	8.87
260.03	4.78
260.246	45.74
260.463	15.02
260.679	39.59
260.895	29.35
261.112	15.02
261.328	37.55
261.544	-11.61
261.761	94.89
261.977	-38.23
262.193	-11.61
262.409	55.98
262.626	78.51
262.842	2.73
263.058	-107.86
263.274	23.21
263.49	-19.8
263.707	-5.46
263.923	78.51
264.139	-36.18
264.355	-44.37
264.571	94.89
264.787	-50.52
265.004	55.98
265.22	-11.61
265.436	53.93
265.652	58.03
265.868	29.35
266.084	62.12
266.3	78.51
266.516	-3.41
266.732	41.64
266.948	-17.75
267.164	29.35
267.38	31.4
267.596	80.55
267.812	94.89
268.028	15.02
268.244	-5.46
268.46	45.74
268.676	17.07
268.892	80.55
269.108	-19.8
269.324	-79.19
269.54	-38.23
269.756	62.12
269.972	-44.37
270.188	17.07
270.403	-44.37
270.619	39.59
270.835	39.59
271.051	-54.61
271.267	6.83
271.483	-44.37
271.698	-7.51
271.914	12.97
272.13	41.64
272.346	70.31
272.562	53.93
272.777	70.31
272.993	8.87
273.209	4.78
273.425	31.4
273.64	-48.47
273.856	8.87
274.072	12.97
274.287	8.87
274.503	4.78
274.719	12.97
274.934	15.02
275.15	-36.18
275.366	19.11
275.581	33.45
275.797	12.97
276.012	29.35
276.228	-7.51
276.444	-73.04
276.659	45.74
276.875	-23.89
277.09	41.64
277.306	37.55
277.521	39.59
277.737	-60.76
277.952	-27.99
278.168	37.55
278.383	21.16
278.599	6.83
278.814	51.88
279.03	-23.89
279.245	23.21
279.461	-3.41
279.676	53.93
279.892	4.78
280.107	0.68
280.322	-32.08
280.538	-5.46
280.753	-7.51
280.969	39.59
281.184	-58.71
281.399	4.78
281.615	0.68
281.83	-27.99
282.045	37.55
282.26	15.02
282.476	15.02
282.691	31.4
282.906	96.94
283.122	23.21
283.337	8.87
283.552	10.92
283.767	41.64
283.983	23.21
284.198	-3.41
284.413	64.17
284.628	-68.95
284.843	23.21
285.058	103.08
285.274	-21.85
285.489	-44.37
285.704	8.87
285.919	-3.41
286.134	29.35
286.349	4.78
286.564	70.31
286.779	10.92
286.995	15.02
287.21	-19.8
287.425	19.11
287.64	86.7
287.855	-5.46
288.07	-77.14
288.285	86.7
288.5	111.27
288.715	78.51
288.93	62.12
289.145	33.45
289.36	74.41
289.575	8.87
289.79	43.69
290.004	-17.75
290.219	58.03
290.434	-56.66
290.649	53.93
290.864	45.74
291.079	23.21
291.294	94.89
291.509	47.79
291.724	45.74
291.938	4.78
292.153	45.74
292.368	12.97
292.583	82.6
292.798	47.79
293.012	62.12
293.227	49.83
293.442	-34.13
293.657	-15.7
293.871	12.97
294.086	12.97
294.301	86.7
294.516	-1.37
294.73	19.11
294.945	43.69
295.16	6.83
295.374	29.35
295.589	-1.37
295.804	-11.61
296.018	4.78
296.233	4.78
296.447	-19.8
296.662	-81.24
296.877	78.51
297.091	-19.8
297.306	-1.37
297.52	17.07
297.735	49.83
297.949	0.68
298.164	21.16
298.378	78.51
298.593	-23.89
298.807	23.21
299.022	70.31
299.236	37.55
299.451	-1.37
299.665	-27.99
299.88	-27.99
300.094	12.97
300.309	-27.99
300.523	53.93
300.737	10.92
300.952	60.07
301.166	45.74
301.381	31.4
301.595	29.35
301.809	-34.13
302.024	-27.99
302.238	-11.61
302.452	86.7
302.667	-1.37
302.881	8.87
303.095	45.74
303.309	70.31
303.524	-30.04
303.738	29.35
303.952	45.74
304.166	94.89
304.381	29.35
304.595	137.9
304.809	-9.56
305.023	-60.76
305.237	-7.51
305.452	39.59
305.666	60.07
305.88	45.74
306.094	12.97
306.308	10.92
306.522	127.66
306.736	29.35
306.95	41.64
307.164	17.07
307.379	-11.61
307.593	-25.94
307.807	101.03
308.021	25.26
308.235	0.68
308.449	-17.75
308.663	-11.61
308.877	121.51
309.091	0.68
309.305	96.94
309.519	-32.08
309.733	-11.61
309.947	37.55
310.161	-3.41
310.374	-13.65
310.588	29.35
310.802	-68.95
311.016	33.45
311.23	25.26
311.444	-3.41
311.658	-25.94
311.872	33.45
312.085	25.26
312.299	0.68
312.513	58.03
312.727	86.7
312.941	15.02
313.154	94.89
313.368	111.27
313.582	15.02
313.796	43.69
314.009	-25.94
314.223	41.64
314.437	27.31
314.651	70.31
314.864	53.93
315.078	-68.95
315.292	-44.37
315.505	8.87
315.719	39.59
315.933	51.88
316.146	47.79
316.36	33.45
316.573	29.35
316.787	-5.46
317.001	45.74
317.214	-17.75
317.428	35.5
317.641	58.03
317.855	-9.56
318.068	37.55
318.282	41.64
318.495	105.13
318.709	-36.18
318.922	70.31
319.136	127.66
319.349	-25.94
319.563	-3.41
319.776	4.78
319.99	37.55
320.203	4.78
320.417	4.78
320.63	0.68
320.843	121.51
321.057	0.68
321.27	-1.37
321.483	111.27
321.697	113.32
321.91	-42.32
322.124	-58.71
322.337	21.16
322.55	21.16
322.763	47.79
322.977	12.97
323.19	41.64
323.403	148.14
323.617	29.35
323.83	37.55
324.043	12.97
324.256	-44.37
324.469	-25.94
324.683	70.31
324.896	-48.47
325.109	27.31
325.322	-11.61
325.535	19.11
325.748	49.83
325.962	-40.28
326.175	21.16
326.388	55.98
326.601	17.07
326.814	4.78
327.027	58.03
327.24	-11.61
327.453	-64.85
327.666	45.74
327.879	-9.56
328.092	21.16
328.305	23.21
328.518	62.12
328.731	-32.08
328.944	76.46
329.157	4.78
329.37	43.69
329.583	90.79
329.796	29.35
330.009	90.79
330.222	70.31
330.435	17.07
330.648	19.11
330.861	23.21
331.073	4.78
331.286	43.69
331.499	29.35
331.712	-19.8
331.925	21.16
332.138	6.83
332.35	74.41
332.563	-36.18
332.776	64.17
332.989	19.11
333.202	45.74
333.414	37.55
333.627	33.45
333.84	31.4
334.053	49.83
334.265	-23.89
334.478	41.64
334.691	6.83
334.903	8.87
335.116	21.16
335.329	43.69
335.541	49.83
335.754	37.55
335.966	4.78
336.179	45.74
336.392	-68.95
336.604	17.07
336.817	-1.37
337.029	31.4
337.242	78.51
337.454	-13.65
337.667	45.74
337.88	39.59
338.092	39.59
338.305	55.98
338.517	4.78
338.729	64.17
338.942	-1.37
339.154	-25.94
339.367	12.97
339.579	55.98
339.792	-46.42
340.004	23.21
340.217	-9.56
340.429	72.36
340.641	-21.85
340.854	6.83
341.066	4.78
341.278	45.74
341.491	98.99
341.703	2.73
341.915	-15.7
342.128	47.79
342.34	135.85
342.552	58.03
342.764	25.26
342.977	4.78
343.189	39.59
343.401	15.02
343.613	-27.99
343.826	41.64
344.038	-68.95
344.25	12.97
344.462	-23.89
344.674	-9.56
344.886	-3.41
345.099	19.11
345.311	29.35
345.523	15.02
345.735	-13.65
345.947	23.21
346.159	-56.66
346.371	127.66
346.583	-34.13
346.795	103.08
347.007	15.02
347.219	-30.04
347.431	12.97
347.643	150.18
347.855	70.31
348.067	72.36
348.279	62.12
348.491	-11.61
348.703	88.75
348.915	37.55
349.127	58.03
349.339	37.55
349.551	58.03
349.763	12.97
349.975	-15.7
350.187	64.17
350.399	49.83
350.61	62.12
350.822	62.12
351.034	47.79
351.246	107.18
351.458	4.78
351.669	84.65
351.881	17.07
352.093	47.79
352.305	72.36
352.517	10.92
352.728	-1.37
352.94	2.73
353.152	74.41
353.363	29.35
353.575	86.7
353.787	103.08
353.999	-27.99
354.21	111.27
354.422	-17.75
354.633	10.92
354.845	2.73
355.057	12.97
355.268	-40.28
355.48	58.03
355.692	55.98
355.903	53.93
356.115	66.22
356.326	-40.28
356.538	64.17
356.749	103.08
356.961	53.93
357.172	-3.41
357.384	-1.37
357.595	125.61
357.807	53.93
358.018	21.16
358.23	96.94
358.441	90.79
358.653	-1.37
358.864	4.78
359.075	-3.41
359.287	39.59
359.498	4.78
359.709	12.97
359.921	0.68
360.132	8.87
360.344	-11.61
360.555	29.35
360.766	60.07
360.977	15.02
361.189	21.16
361.4	29.35
361.611	31.4
361.823	92.84
362.034	23.21
362.245	41.64
362.456	25.26
362.667	17.07
362.879	-7.51
363.09	45.74
363.301	72.36
363.512	62.12
363.723	-32.08
363.935	-7.51
364.146	12.97
364.357	-19.8
364.568	37.55
364.779	-85.33
364.99	-1.37
365.201	12.97
365.412	-7.51
365.623	4.78
365.834	37.55
366.045	33.45
366.256	55.98
366.467	94.89
366.678	74.41
366.889	45.74
367.1	10.92
367.311	25.26
367.522	86.7
367.733	21.16
367.944	37.55
368.155	45.74
368.366	76.46
368.577	90.79
368.788	94.89
368.999	4.78
369.209	12.97
369.42	64.17
369.631	127.66
369.842	-34.13
370.053	29.35
370.264	55.98
370.474	-11.61
370.685	49.83
370.896	82.6
371.107	41.64
371.317	66.22
371.528	-7.51
371.739	72.36
371.95	-36.18
372.16	60.07
372.371	-27.99
372.582	21.16
372.792	33.45
373.003	47.79
373.214	0.68
373.424	45.74
373.635	6.83
373.846	66.22
374.056	45.74
374.267	25.26
374.477	45.74
374.688	-9.56
374.898	23.21
375.109	-9.56
375.319	37.55
375.53	98.99
375.74	-1.37
375.951	-3.41
376.161	37.55
376.372	43.69
376.582	33.45
376.793	53.93
377.003	49.83
377.214	70.31
377.424	21.16
377.635	53.93
377.845	62.12
378.055	68.27
378.266	39.59
378.476	70.31
378.686	21.16
378.897	49.83
379.107	78.51
379.317	105.13
379.528	4.78
379.738	39.59
379.948	47.79
380.158	64.17
380.369	15.02
380.579	117.42
380.789	49.83
380.999	86.7
381.21	-23.89
381.42	86.7
381.63	-19.8
381.84	37.55
382.05	29.35
382.261	139.94
382.471	53.93
382.681	72.36
382.891	58.03
383.101	53.93
383.311	-3.41
383.521	-30.04
383.731	119.46
383.941	19.11
384.151	-25.94
384.361	-23.89
384.571	19.11
384.781	70.31
384.991	111.27
385.201	70.31
385.411	45.74
385.621	-23.89
385.831	27.31
386.041	23.21
386.251	-11.61
386.461	-1.37
386.671	33.45
386.881	-9.56
387.091	74.41
387.301	-19.8
387.511	76.46
387.72	45.74
387.93	62.12
388.14	0.68
388.35	33.45
388.56	113.32
388.769	131.75
388.979	27.31
389.189	15.02
389.399	60.07
389.609	-7.51
389.818	86.7
390.028	47.79
390.238	4.78
390.447	33.45
390.657	21.16
390.867	12.97
391.076	2.73
391.286	0.68
391.496	-7.51
391.705	33.45
391.915	19.11
392.125	78.51
392.334	12.97
392.544	68.27
392.753	49.83
392.963	90.79
393.172	8.87
393.382	-9.56
393.591	25.26
393.801	88.75
394.01	4.78
394.22	111.27
394.429	19.11
394.639	-36.18
394.848	23.21
395.058	66.22
395.267	-17.75
395.477	4.78
395.686	107.18
395.895	182.95
396.105	139.94
396.314	35.5
396.524	60.07
396.733	47.79
396.942	94.89
397.152	68.27
397.361	70.31
397.57	29.35
397.78	115.37
397.989	74.41
398.198	148.14
398.407	86.7
398.617	115.37
398.826	90.79
399.035	39.59
399.244	80.55
399.453	49.83
399.663	88.75
399.872	66.22
400.081	53.93
400.29	131.75
400.499	-7.51
400.708	121.51
400.917	113.32
401.127	86.7
401.336	-3.41
401.545	191.14
401.754	144.04
401.963	88.75
402.172	45.74
402.381	98.99
402.59	68.27
402.799	125.61
403.008	0.68
403.217	88.75
403.426	82.6
403.635	103.08
403.844	55.98
404.053	178.86
404.262	119.46
404.471	168.62
404.68	144.04
404.888	94.89
405.097	94.89
405.306	131.75
405.515	66.22
405.724	113.32
405.933	94.89
406.142	53.93
406.35	96.94
406.559	141.99
406.768	144.04
406.977	236.2
407.185	164.52
407.394	176.81
407.603	164.52
407.812	166.57
408.02	180.9
408.229	180.9
408.438	168.62
408.646	176.81
408.855	193.19
409.064	242.34
409.272	219.82
409.481	209.58
409.69	303.78
409.898	291.49
410.107	289.45
410.315	211.62
410.524	203.43
410.733	273.06
410.941	221.86
411.15	316.07
411.358	230.06
411.567	348.84
411.775	303.78
411.984	340.65
412.192	365.22
412.401	375.46
412.609	359.08
412.818	469.67
413.026	397.99
413.234	412.32
413.443	389.8
413.651	475.81
413.86	432.8
414.068	524.96
414.276	488.1
414.485	438.95
414.693	557.73
414.901	578.21
415.11	506.53
415.318	539.3
415.526	567.97
415.734	660.13
415.943	588.45
416.151	641.7
416.359	615.07
416.567	692.9
416.776	660.13
416.984	864.93
417.192	748.19
417.4	762.53
417.608	686.75
417.817	752.29
418.025	934.56
418.233	887.45
418.441	907.93
418.649	918.17
418.857	1149.59
419.065	1061.53
419.273	996
419.481	1065.63
419.689	1094.3
419.897	1196.7
420.105	1159.83
420.313	1165.98
420.521	1276.57
420.729	1309.33
420.937	1391.25
421.145	1325.72
421.353	1417.88
421.561	1577.62
421.769	1520.28
421.977	1553.04
422.185	1616.53
422.393	1741.46
422.601	1710.74
422.809	1843.85
423.017	1741.46
423.224	1905.29
423.432	1948.3
423.64	2028.17
423.848	2245.26
424.056	1987.21
424.263	2286.22
424.471	2300.55
424.679	2255.5
424.887	2527.88
425.094	2470.53
425.302	2370.18
425.51	2648.71
425.718	2595.46
425.925	2644.61
426.133	2855.55
426.341	3021.44
426.548	3052.16
426.756	3119.74
426.964	3177.08
427.171	3220.09
427.379	3379.83
427.586	3471.99
427.794	3609.2
428.001	3803.76
428.209	3928.69
428.417	3910.26
428.624	4237.93
428.832	4190.83
429.039	3838.58
429.247	4174.44
429.454	4391.53
429.662	4776.55
429.869	4446.82
430.076	4903.52
430.284	4731.49
430.491	4874.85
430.699	5061.21
430.906	5134.94
431.114	5177.95
431.321	5405.27
431.528	5489.24
431.736	5769.81
431.943	6152.78
432.15	5970.51
432.358	5939.79
432.565	6390.35
432.772	6167.12
432.979	6640.2
433.187	6722.12
433.394	6828.61
433.601	7221.82
433.808	7189.05
434.016	7123.52
434.223	7412.28
434.43	7963.19
434.637	7930.42
434.844	8340.01
435.052	8559.14
435.259	8348.2
435.466	8509.99
435.673	8272.43
435.88	8948.26
436.087	9343.52
436.294	9378.33
436.501	9118.24
436.708	9484.83
436.915	9736.73
437.122	10218
437.329	10228.24
437.537	10396.17
437.743	10564.11
437.95	10500.62
438.157	11147.78
438.364	11268.61
438.571	11344.38
438.778	11588.09
438.985	12495.34
439.192	12112.37
439.399	12546.54
439.606	12048.88
439.813	12902.89
440.02	13740.5
440.227	13212.13
440.433	13390.3
440.64	13529.56
440.847	13760.98
441.054	13973.97
441.261	14827.98
441.467	14676.43
441.674	14862.79
441.881	15573.44
442.088	15352.26
442.294	15276.48
442.501	15593.92
442.708	16077.24
442.914	16816.55
443.121	17367.46
443.328	16816.55
443.534	17944.98
443.741	17584.54
443.948	17125.8
444.154	18643.34
444.361	18583.95
444.568	18614.67
444.774	18504.08
444.981	18868.62
445.187	19267.97
445.394	20087.16
445.6	19976.57
445.807	22061.4
446.013	20746.61
446.22	21254.5
446.426	22188.38
446.633	22468.95
446.839	23329.09
447.046	21985.63
447.252	23417.16
447.459	23595.33
447.665	23484.74
447.871	24265.02
448.078	25229.61
448.284	24168.76
448.491	24869.17
448.697	25772.32
448.903	26214.68
449.11	26597.65
449.316	26159.39
449.522	26405.14
449.728	27363.59
449.935	27339.02
450.141	27625.73
450.347	28211.45
450.553	27392.26
450.76	27783.43
450.966	28666.1
451.172	28336.38
451.378	28735.73
451.584	28170.49
451.791	29171.95
451.997	28879.09
452.203	29518.06
452.409	29749.48
452.615	29626.6
452.821	28508.41
453.027	28180.73
453.233	29612.26
453.44	28473.59
453.646	28616.95
453.852	29116.65
454.058	29237.48
454.264	28500.22
454.47	29360.36
454.676	28610.81
454.882	29698.28
455.088	26925.33
455.294	27646.21
455.5	28006.66
455.705	28061.95
455.911	26931.47
456.117	26626.32
456.323	26487.06
456.529	24850.74
456.735	26024.22
456.941	25272.62
457.147	25190.7
457.352	24355.13
457.558	24086.84
457.764	23755.07
457.97	23298.38
458.176	23173.45
458.381	23165.26
458.587	22278.49
458.793	22016.35
458.999	21166.44
459.204	22571.35
459.41	21731.68
459.616	20455.79
459.821	20523.38
460.027	20705.65
460.233	20103.54
460.438	19067.27
460.644	19028.36
460.85	18233.75
461.055	17996.18
461.261	18203.03
461.466	16470.45
461.672	16384.43
461.878	17267.11
462.083	16218.55
462.289	15880.63
462.494	15790.52
462.7	15126.98
462.905	14881.22
463.111	15143.36
463.316	15313.34
463.522	14946.76
463.727	15038.92
463.932	14873.03
464.138	14764.49
464.343	14731.72
464.549	14338.51
464.754	14608.84
464.959	14672.33
465.165	14537.16
465.37	13900.25
465.575	13652.44
465.781	14090.71
465.986	14019.03
466.191	13744.6
466.397	13433.31
466.602	12691.94
466.807	13009.38
467.012	13238.75
467.218	13310.43
467.423	12939.75
467.628	13224.42
467.833	13744.6
468.038	13214.18
468.244	12646.89
468.449	13466.08
468.654	12847.59
468.859	12786.15
469.064	12440.04
469.269	12007.92
469.474	12261.87
469.679	12413.42
469.885	12188.14
470.09	12274.16
470.295	12112.37
470.5	11932.15
470.705	12145.14
470.91	11702.78
471.115	11758.07
471.32	11883
471.525	11833.85
471.73	11442.68
471.935	11407.87
472.139	11139.58
472.344	11102.72
472.549	10963.46
472.754	10945.03
472.959	10783.24
473.164	10625.54
473.369	10369.55
473.574	11014.66
473.778	10795.53
473.983	10568.2
474.188	10832.39
474.393	10121.74
474.598	10471.95
474.802	10121.74
475.007	9886.23
475.212	9927.19
475.417	9681.43
475.621	9716.25
475.826	9886.23
476.031	9650.71
476.235	9300.51
476.44	9484.83
476.645	9179.68
476.849	9425.43
477.054	9425.43
477.259	9048.61
477.463	8940.07
477.668	8772.13
477.872	9017.89
478.077	8837.67
478.282	8512.04
478.486	8677.93
478.691	8616.49
478.895	8415.79
479.1	8223.28
479.304	8421.93
479.509	8131.12
479.713	8370.73
479.918	8176.17
480.122	7883.31
480.326	8229.42
480.531	8167.98
480.735	8057.39
480.94	7881.27
481.144	8284.72
481.348	7977.52
481.553	7926.32
481.757	7854.64
481.961	7770.68
482.166	8014.38
482.37	7868.98
482.574	7582.26
482.778	7895.6
482.983	7807.54
483.187	7731.76
483.391	7690.81
483.595	7680.57
483.8	7731.76
484.004	7817.78
484.208	7899.7
484.412	7791.16
484.616	7871.03
484.821	7770.68
485.025	7684.66
485.229	7699
485.433	7631.41
485.637	7739.96
485.841	7748.15
486.045	7631.41
486.249	7651.89
486.453	7676.47
486.657	7696.95
486.861	7707.19
487.065	7803.44
487.269	7696.95
487.473	7717.43
487.677	7813.68
487.881	7778.87
488.085	7696.95
488.289	7776.82
488.493	7813.68
488.697	7780.92
488.901	7696.95
489.105	7672.37
489.309	7897.65
489.512	7922.23
489.716	7823.92
489.92	7782.96
490.124	7723.57
490.328	8102.45
490.531	7828.02
490.735	8047.15
490.939	8028.72
491.143	7934.51
491.346	8051.25
491.55	8073.78
491.754	8237.61
491.958	8292.91
492.161	8133.17
492.365	8370.73
492.569	8200.75
492.772	8241.71
492.976	8124.97
493.18	8352.3
493.383	8487.47
493.587	8546.86
493.79	8516.14
493.994	8616.49
494.197	8499.75
494.401	8659.49
494.605	8516.14
494.808	8909.35
495.012	9048.61
495.215	8694.31
495.419	8958.5
495.622	8876.58
495.825	8925.73
496.029	9019.94
496.232	9161.25
496.436	9257.5
496.639	9525.79
496.843	9478.68
497.046	9634.33
497.249	9599.51
497.453	9822.74
497.656	9863.7
497.859	10050.07
498.063	10129.94
498.266	10234.38
498.469	10242.57
498.673	10127.89
498.876	10539.53
499.079	10574.35
499.282	10531.34
499.485	10639.88
499.689	10883.59
499.892	11141.63
500.095	11018.75
500.298	11284.99
500.501	11035.14
500.705	11524.6
500.908	11598.33
501.111	11477.5
501.314	11870.71
501.517	12012.02
501.72	12038.64
501.923	12276.21
502.126	12341.74
502.329	12417.52
502.532	12456.43
502.735	12673.51
502.938	13058.53
503.141	12816.87
503.344	13220.32
503.547	13320.67
503.75	13427.17
503.953	13732.31
504.156	13783.51
504.359	13994.45
504.562	14121.43
504.765	14399.95
504.968	14379.47
505.17	14588.36
505.373	14610.89
505.576	15083.97
505.779	15425.98
505.982	15196.61
506.185	15354.3
506.387	15466.94
506.59	15567.29
506.793	16118.2
506.996	15999.41
507.198	16372.14
507.401	16290.23
507.604	16533.93
507.807	16888.23
508.009	17097.13
508.212	16785.83
508.415	17584.54
508.617	17410.46
508.82	17924.51
509.022	17617.31
509.225	18387.35
509.428	18342.29
509.63	18465.17
509.833	18667.92
510.035	19057.03
510.238	18858.38
510.44	19190.15
510.643	19599.74
510.845	19767.68
511.048	19585.41
511.25	20011.39
511.453	19788.16
511.655	20732.27
511.858	20533.62
512.06	20658.54
512.262	20869.48
512.465	21107.05
512.667	21285.22
512.87	21612.9
513.072	21959
513.274	21795.17
513.477	22477.14
513.679	22571.35
513.881	22733.14
514.084	22620.5
514.286	22755.66
514.488	23136.59
514.69	23650.63
514.893	23755.07
515.095	23824.7
515.297	24062.27
515.499	24181.05
515.701	24621.36
515.904	24834.35
516.106	25028.91
516.308	25063.72
516.51	25649.44
516.712	25479.46
516.914	25755.94
517.116	26292.51
517.318	26444.06
517.52	26626.32
517.722	26867.98
517.925	27148.56
518.127	27310.35
518.329	27476.23
518.531	27687.17
518.733	28379.39
518.935	28276.99
519.136	28569.85
519.338	28686.58
519.54	28938.48
519.742	29237.48
519.944	29305.07
520.146	29864.16
520.348	29778.15
520.55	30054.62
520.752	30064.86
520.954	30662.87
521.155	30652.63
521.357	30836.95
521.559	31156.43
521.761	31903.94
521.963	31658.18
522.164	31881.41
522.366	31893.7
522.568	32387.26
522.77	32557.24
522.971	32690.36
523.173	32866.49
523.375	33104.05
523.576	32893.11
523.778	33239.22
523.98	33124.53
524.181	33779.88
524.383	33812.65
524.584	34121.89
524.786	34166.95
524.988	34119.84
525.189	34910.36
525.391	34523.29
525.592	34826.39
525.794	35055.76
525.995	35242.13
526.197	35270.8
526.398	35500.17
526.6	35293.33
526.801	35360.91
527.003	35877
527.204	36124.8
527.406	36399.23
527.607	36235.39
527.808	36393.09
528.01	35854.47
528.211	36227.2
528.412	37439.6
528.614	36692.09
528.815	36860.02
529.016	36964.47
529.218	36737.15
529.419	36769.91
529.62	37531.76
529.822	37531.76
530.023	37509.23
530.224	37365.87
530.425	37615.72
530.626	36962.42
530.828	37331.06
531.029	37990.5
531.23	37814.38
531.431	37736.55
531.632	37861.48
531.833	37922.92
532.035	37738.6
532.236	37668.97
532.437	38250.6
532.638	37781.61
532.839	38004.84
533.04	38236.26
533.241	37933.16
533.442	38705.24
533.643	38451.3
533.844	38152.29
534.045	38295.65
534.246	37673.07
534.447	38359.14
534.648	38060.13
534.849	37992.55
535.05	38183.01
535.251	38297.7
535.451	38004.84
535.652	38469.73
535.853	38549.6
536.054	38328.42
536.255	38346.85
536.456	38154.34
536.657	38709.34
536.857	38178.92
537.058	38144.1
537.259	38076.52
537.46	38361.19
537.66	38412.38
537.861	38406.24
538.062	37812.33
538.263	38178.92
538.463	38221.92
538.664	38406.24
538.865	38594.65
539.065	38824.03
539.266	38262.88
539.466	38383.71
539.667	37752.94
539.868	38928.47
540.068	38285.41
540.269	38406.24
540.469	38561.89
540.67	38125.67
540.87	38529.12
541.071	38303.84
541.271	38662.24
541.472	38467.68
541.672	38246.5
541.873	38101.09
542.073	37714.03
542.274	38662.24
542.474	38072.42
542.675	37728.36
542.875	38441.06
543.075	38336.61
543.276	37677.16
543.476	38289.51
543.676	38088.81
543.877	38371.43
544.077	38645.85
544.277	37998.69
544.478	38111.33
544.678	38119.53
544.878	38084.71
545.078	38013.03
545.279	37795.95
545.479	38000.74
545.679	38258.79
545.879	38121.57
546.079	38342.75
546.28	37767.27
546.48	37582.96
546.68	38357.09
546.88	38436.96
547.08	38043.75
547.28	37927.02
547.48	37478.51
547.68	38119.53
547.88	37679.21
548.081	37707.88
548.281	37918.82
548.481	37490.8
548.681	37963.88
548.881	37945.45
549.081	37992.55
549.28	37638.25
549.48	37841
549.68	37890.15
549.88	38221.92
550.08	37664.88
550.28	38178.92
550.48	37601.39
550.68	38305.89
550.88	37838.95
551.08	37658.73
551.279	37900.39
551.479	37644.4
551.679	37642.35
551.879	37838.95
552.079	38004.84
552.278	37544.05
552.478	37869.67
552.678	38068.33
552.878	37613.68
553.077	37531.76
553.277	37308.53
553.477	37822.57
553.676	37220.47
553.876	37564.53
554.076	37204.08
554.275	37292.15
554.475	36917.37
554.674	37632.11
554.874	37777.51
555.074	37294.19
555.273	37589.1
555.473	37853.29
555.672	37376.11
555.872	37363.82
556.071	37044.34
556.271	37482.61
556.47	37050.49
556.67	36628.6
556.869	37218.42
557.068	37105.78
557.268	36888.7
557.467	36739.19
557.667	36876.41
557.866	36911.22
558.065	36841.59
558.265	36780.15
558.464	36538.49
558.663	36970.61
558.863	36307.07
559.062	37204.08
559.261	36227.2
559.461	36659.32
559.66	36450.43
559.859	37077.11
560.058	36413.57
560.258	36696.19
560.457	36292.74
560.656	36495.49
560.855	36087.94
561.054	36122.76
561.253	35913.86
561.453	36059.27
561.652	36135.04
561.851	36339.84
562.05	36147.33
562.249	36001.93
562.448	36087.94
562.647	35909.77
562.846	35793.03
563.045	35889.29
563.244	35410.06
563.443	35983.49
563.642	35410.06
563.841	35518.6
564.04	35494.03
564.239	35201.17
564.438	35170.45
564.637	35526.8
564.836	35504.27
565.035	35448.97
565.234	35342.48
565.432	35158.16
565.631	34414.75
565.83	35045.52
566.029	34746.52
566.228	34668.7
566.427	34787.48
566.625	34678.94
566.824	34154.66
567.023	35045.52
567.222	34031.78
567.42	34564.25
567.619	34263.2
567.818	34521.24
568.016	34142.37
568.215	34424.99
568.414	33945.76
568.612	34463.9
568.811	33804.45
569.01	33919.14
569.208	33726.63
569.407	33804.45
569.605	33233.07
569.804	33802.41
570.002	33372.33
570.201	33327.28
570.4	33353.9
570.598	32850.1
570.797	32909.49
570.995	33052.85
571.193	32743.61
571.392	33130.67
571.59	32907.44
571.789	32923.83
571.987	32891.06
572.186	32833.72
572.384	32520.38
572.582	32493.75
572.781	32653.5
572.979	32104.64
573.177	32305.34
573.376	32299.2
573.574	32100.54
573.772	32348.35
573.971	31852.74
574.169	32301.25
574.367	31830.21
574.565	32137.41
574.763	31580.36
574.962	31570.12
575.16	31097.04
575.358	31633.61
575.556	31264.97
575.754	31391.95
575.952	31332.56
576.151	31613.13
576.349	30894.29
576.547	30937.3
576.745	30918.87
576.943	31187.15
577.141	30646.49
577.339	30474.46
577.537	30529.75
577.735	30335.2
577.933	30349.53
578.131	30765.27
578.329	30267.61
578.527	30245.09
578.725	30011.62
578.923	30583
579.121	29901.03
579.319	29765.86
579.516	29849.83
579.714	29935.84
579.912	29702.37
580.11	29599.97
580.308	29941.99
580.506	29542.63
580.704	29004.02
580.901	29550.82
581.099	29608.17
581.297	29198.57
581.495	28995.82
581.692	28969.2
581.89	28752.12
582.088	29264.11
582.285	28780.79
582.483	29114.61
582.681	28633.33
582.878	28788.98
583.076	28637.43
583.274	28778.74
583.471	28309.75
583.669	28307.71
583.866	28383.48
584.064	28334.33
584.262	27988.22
584.459	28385.53
584.657	28168.44
584.854	27988.22
585.052	27693.32
585.249	27492.62
585.447	27742.47
585.644	27576.58
585.841	27613.45
586.039	27842.82
586.236	27220.24
586.434	27191.56
586.631	27504.9
586.828	27078.93
587.026	27048.21
587.223	27021.58
587.42	26718.48
587.618	26908.94
587.815	26386.71
588.012	26622.23
588.21	26456.34
588.407	26831.12
588.604	26446.1
588.801	26020.13
588.999	26568.98
589.196	26442.01
589.393	26595.6
589.59	25999.65
589.787	26206.49
589.984	25880.86
590.182	25649.44
590.379	26116.38
590.576	25440.55
590.773	25825.57
590.97	25352.49
591.167	25991.45
591.364	25104.68
591.561	25440.55
591.758	25346.34
591.955	25094.44
592.152	24983.85
592.349	24951.09
592.546	25159.98
592.743	24883.5
592.94	24670.51
593.137	24826.16
593.334	24715.57
593.531	24666.42
593.727	24688.95
593.924	24826.16
594.121	24127.8
594.318	24486.2
594.515	23802.18
594.712	24488.24
594.908	23945.53
595.105	24101.18
595.302	23791.94
595.499	24232.25
595.696	23722.3
595.892	23804.22
596.089	23796.03
596.286	24041.79
596.482	23619.91
596.679	23798.08
596.876	23525.7
597.072	23355.72
597.269	23576.9
597.466	23279.94
597.662	23345.48
597.859	23247.18
598.055	23335.24
598.252	22790.48
598.448	22980.94
598.645	22899.02
598.841	22710.61
599.038	23253.32
599.234	22823.25
599.431	22217.05
599.627	22643.03
599.824	22548.82
600.02	22290.77
600.217	22436.18
600.413	22149.46
600.609	22202.71
600.806	22024.54
601.002	22266.2
601.198	22141.27
601.395	21926.24
601.591	21944.67
601.787	22008.15
601.984	21512.55
602.18	21932.38
602.376	21578.08
602.572	21311.85
602.769	21436.77
602.965	21178.73
603.161	21281.13
603.357	21254.5
603.553	21256.55
603.75	21311.85
603.946	20867.44
604.142	20951.4
604.338	20580.72
604.534	20818.28
604.73	20658.54
604.926	20517.23
605.122	20945.26
605.318	20633.97
605.514	20361.59
605.71	20459.89
605.906	20453.75
606.102	20365.68
606.298	20701.55
606.494	20275.57
606.69	20271.48
606.886	20271.48
607.082	19974.52
607.278	19894.65
607.474	19665.28
607.67	20283.77
607.866	19648.89
608.062	20078.97
608.257	19927.42
608.453	19595.65
608.649	19702.14
608.845	19417.47
609.041	19712.38
609.236	19503.49
609.432	19376.51
609.628	19497.35
609.824	19429.76
610.019	19253.64
610.215	19097.99
610.411	19392.9
610.606	19349.89
610.802	19206.53
610.998	19224.97
611.193	19106.18
611.389	19149.19
611.584	19104.14
611.78	19079.56
611.976	18930.06
612.171	18878.86
612.367	18680.21
612.562	18981.26
612.758	18489.74
612.953	18608.53
613.149	18647.44
613.344	18581.9
613.539	18688.4
613.735	18885
613.93	18803.08
614.126	18483.6
614.321	18684.3
614.517	18561.42
614.712	18616.72
614.907	18264.47
615.103	18395.54
615.298	18268.56
615.493	18454.93
615.688	17981.85
615.884	18555.28
616.079	18170.26
616.274	18092.44
616.47	18182.55
616.665	17908.12
616.86	17885.59
617.055	17914.27
617.25	17779.1
617.445	18004.38
617.641	17975.7
617.836	18100.63
618.031	17478.05
618.226	18051.48
618.421	17463.71
618.616	17768.86
618.811	17277.35
619.006	17594.78
619.201	17125.8
619.396	17007.02
619.591	16810.41
619.786	17097.13
619.981	16873.9
620.176	17281.44
620.371	16640.43
620.566	16892.33
620.761	16529.84
620.956	16761.26
621.151	16634.28
621.346	16742.83
621.541	16392.62
621.735	16566.7
621.93	16402.86
622.125	16277.94
622.32	16071.09
622.515	16198.07
622.709	15987.13
622.904	15825.34
623.099	15450.56
623.294	15811
623.488	15751.61
623.683	15653.31
623.878	15321.54
624.072	15563.2
624.267	15491.52
624.462	15307.2
624.656	15047.11
624.851	15282.63
625.046	15079.88
625.24	14760.39
625.435	14758.35
625.629	14899.66
625.824	14856.65
626.018	14551.5
626.213	14557.64
626.407	14711.24
626.602	14358.99
626.796	14422.48
626.991	14250.45
627.185	14191.06
627.38	14201.3
627.574	14107.09
627.768	13926.87
627.963	13801.94
628.157	13548
628.352	13599.2
628.546	13570.52
628.74	13695.45
628.935	13316.58
629.129	13398.49
629.323	13269.47
629.517	13195.75
629.712	13261.28
629.906	13205.99
630.1	12767.72
630.294	13119.97
630.489	12972.52
630.683	13154.79
630.877	12710.38
631.071	12638.7
631.265	12796.39
631.459	12716.52
631.653	12497.39
631.848	12368.37
632.042	12321.26
632.236	12554.73
632.43	12325.36
632.624	12210.67
632.818	12186.1
633.012	11999.73
633.206	11792.89
633.4	11905.52
633.594	11880.95
633.788	11659.77
633.982	11555.32
634.176	11854.33
634.369	11786.74
634.563	11651.58
634.757	11567.61
634.951	11633.15
635.145	11383.29
635.339	11426.3
635.533	11305.47
635.726	11186.69
635.92	11055.62
636.114	11207.17
636.308	11272.7
636.501	11049.47
636.695	11024.9
636.889	10883.59
637.083	10824.2
637.276	10744.33
637.47	10779.14
637.664	10580.49
637.857	10590.73
638.051	10433.04
638.244	10564.11
638.438	10336.78
638.632	10191.38
638.825	10179.09
639.019	10293.77
639.212	10078.74
639.406	10279.44
639.599	10082.83
639.793	10107.41
639.986	9982.48
640.18	9964.05
640.373	9769.49
640.567	9806.36
640.76	9663
640.954	9794.07
641.147	9652.76
641.34	9548.31
641.534	9585.18
641.727	9531.93
641.92	9407
642.114	9503.26
642.307	9409.05
642.5	9298.46
642.694	9105.95
642.887	9108
643.08	9130.53
643.273	9173.53
643.467	8876.58
643.66	8917.54
643.853	8874.53
644.046	8772.13
644.239	8804.9
644.432	8870.44
644.626	8641.06
644.819	8600.1
645.012	8632.87
645.205	8675.88
645.398	8688.17
645.591	8415.79
645.784	8475.18
645.977	8335.92
646.17	8438.31
646.363	8352.3
646.556	8303.15
646.749	8110.64
646.942	8204.85
647.135	8100.4
647.328	8100.4
647.521	7940.66
647.714	7911.99
647.907	8010.29
648.099	7772.72
648.292	7860.79
648.485	7871.03
648.678	7838.26
648.871	7692.85
649.064	7655.99
649.256	7696.95
649.449	7617.08
649.642	7658.04
649.835	7459.38
650.027	7256.64
650.22	7543.35
650.413	7299.64
650.605	7199.29
650.798	7262.78
650.991	7174.72
651.183	7326.27
651.376	7246.4
651.568	7170.62
651.761	7070.27
651.954	7182.91
652.146	7176.77
652.339	7113.28
652.531	6912.58
652.724	6939.2
652.916	6883.91
653.109	6849.09
653.301	6836.8
653.494	7019.07
653.686	6634.05
653.879	6797.89
654.071	6558.28
654.263	6502.98
654.456	6466.12
654.648	6611.53
654.84	6539.85
655.033	6400.59
655.225	6468.17
655.417	6474.31
655.61	6347.34
655.802	6275.66
655.994	6294.09
656.186	6267.47
656.379	6214.22
656.571	6255.18
656.763	6148.68
656.955	6091.34
657.148	6103.63
657.34	6007.38
657.532	5966.42
657.724	6009.42
657.916	5927.5
658.108	5847.63
658.3	5972.56
658.492	5833.3
658.684	6011.47
658.876	5775.95
659.068	5657.17
659.26	5749.33
659.452	5710.42
659.644	5853.78
659.836	5575.25
660.028	5747.28
660.22	5601.88
660.412	5575.25
660.604	5536.34
660.796	5263.96
660.988	5546.58
661.18	5292.63
661.372	5405.27
661.563	5261.91
661.755	5347.93
661.947	5261.91
662.139	5249.63
662.331	5182.04
662.522	5208.67
662.714	5089.89
662.906	5198.43
663.097	5010.01
663.289	5030.49
663.481	4876.9
663.673	4993.63
663.864	5001.82
664.056	4878.94
664.247	4807.27
664.439	4829.79
664.631	4774.5
664.822	4708.96
665.014	4870.75
665.205	4717.15
665.397	4682.34
665.588	4751.97
665.78	4633.19
665.971	4604.52
666.163	4727.39
666.354	4647.52
666.546	4600.42
666.737	4344.42
666.929	4579.94
667.12	4457.06
667.311	4461.16
667.503	4526.69
667.694	4471.4
667.885	4412.01
668.077	4485.73
668.268	4199.02
668.459	4358.76
668.651	4264.55
668.842	4330.09
669.033	4248.17
669.224	4258.41
669.416	4260.46
669.607	4160.11
669.798	4070
669.989	4303.47
670.18	4358.76
670.371	4080.24
670.563	3902.06
670.754	4125.29
670.945	4043.37
671.136	4016.75
671.327	4012.65
671.518	4053.61
671.709	3990.13
671.9	3977.84
672.091	3822.19
672.282	3920.49
672.473	3906.16
672.664	3711.6
672.855	3900.02
673.046	3900.02
673.237	3830.38
673.428	3807.86
673.619	3707.51
673.809	3777.14
674	3709.55
674.191	3764.85
674.382	3666.55
674.573	3703.41
674.764	3603.06
674.954	3705.46
675.145	3568.24
675.336	3668.59
675.527	3498.61
675.717	3660.4
675.908	3615.35
676.099	3564.15
676.289	3609.2
676.48	3578.48
676.671	3465.85
676.861	3693.17
677.052	3510.9
677.243	3582.58
677.433	3594.87
677.624	3627.64
677.814	3474.04
678.005	3416.69
678.195	3525.24
678.386	3502.71
678.576	3492.47
678.767	3351.16
678.957	3385.98
679.148	3428.98
679.338	3437.17
679.529	3566.2
679.719	3394.17
679.909	3471.99
680.1	3515
680.29	3408.5
680.481	3383.93
680.671	3521.14
680.861	3330.68
681.052	3281.53
681.242	3332.73
681.432	3527.28
681.622	3244.67
681.813	3265.14
682.003	3314.3
682.193	3158.65
682.383	3412.6
682.573	3170.94
682.764	3269.24
682.954	3248.76
683.144	3275.38
683.334	3142.27
683.524	3215.99
683.714	3193.47
683.904	3125.88
684.094	3232.38
684.284	3213.95
684.474	3048.06
684.664	3218.04
684.854	3215.99
685.044	3162.75
685.234	3191.42
685.424	3117.69
685.614	3193.47
685.804	3109.5
685.994	3070.59
686.184	3062.4
686.374	3091.07
686.564	2998.91
686.753	2992.77
686.943	2882.17
687.133	2990.72
687.323	3064.44
687.513	2972.29
687.702	2994.81
687.892	2937.47
688.082	2943.61
688.272	3156.6
688.461	2888.32
688.651	2996.86
688.841	2833.02
689.03	2871.93
689.22	2671.23
689.41	2751.1
689.599	2787.97
689.789	2953.85
689.979	2796.16
690.168	2822.78
690.358	2822.78
690.547	2853.5
690.737	2841.22
690.926	2683.52
691.116	2851.46
691.305	2859.65
691.495	2773.63
691.684	2658.95
691.874	2710.15
692.063	2853.5
692.252	2808.45
692.442	2728.58
692.631	2677.38
692.82	2732.67
693.01	2595.46
693.199	2554.5
693.388	2679.43
693.578	2773.63
693.767	2644.61
693.956	2697.86
694.146	2706.05
694.335	2626.18
694.524	2525.83
694.713	2695.81
694.902	2626.18
695.092	2704
695.281	2527.88
695.47	2579.08
695.659	2630.27
695.848	2589.32
696.037	2497.16
696.226	2474.63
696.415	2554.5
696.604	2638.47
696.793	2548.36
696.982	2521.73
697.171	2497.16
697.36	2511.49
697.549	2478.72
697.738	2421.38
697.927	2513.54
698.116	2478.72
698.305	2425.48
698.494	2497.16
698.683	2378.37
698.872	2480.77
699.061	2445.96
699.25	2425.48
699.438	2339.46
699.627	2409.09
699.816	2495.11
700.005	2372.23
700.193	2462.34
700.382	2474.63
700.571	2396.81
700.76	2458.25
700.948	2370.18
701.137	2292.36
701.326	2347.65
701.514	2454.15
701.703	2380.42
701.892	2261.64
702.08	2462.34
702.269	2316.94
702.457	2327.18
702.646	2296.46
702.834	2292.36
703.023	2396.81
703.212	2314.89
703.4	2226.82
703.589	2247.3
703.777	2458.25
703.965	2204.3
704.154	2364.04
704.342	2284.17
704.531	2308.74
704.719	2275.98
704.907	2335.37
705.096	2235.02
705.284	2343.56
705.472	2286.22
705.661	2325.13
705.849	2237.06
706.037	2308.74
706.226	2210.44
706.414	2333.32
706.602	2177.67
706.79	2232.97
706.979	2169.48
707.167	2183.82
707.355	2275.98
707.543	2390.66
707.731	2306.7
707.919	2167.43
708.107	2282.12
708.296	2224.78
708.484	2046.6
708.672	2177.67
708.86	2220.68
709.048	2241.16
709.236	2232.97
709.424	2212.49
709.612	2128.52
709.8	2142.86
709.988	2157.19
710.176	2187.91
710.364	2237.06
710.551	2249.35
710.739	2220.68
710.927	2194.06
711.115	2249.35
711.303	2151.05
711.491	2179.72
711.679	2077.32
711.866	2134.67
712.054	2110.09
712.242	2202.25
712.43	2208.39
712.617	2140.81
712.805	2226.82
712.993	2200.2
713.181	2200.2
713.368	2112.14
713.556	2048.65
713.744	2085.51
713.931	2265.74
714.119	2140.81
714.306	2220.68
714.494	2089.61
714.682	2093.71
714.869	2011.79
715.057	2056.84
715.244	2056.84
715.432	2167.43
715.619	2155.15
715.807	2167.43
715.994	2275.98
716.182	2155.15
716.369	2126.47
716.556	1979.02
716.744	2060.94
716.931	2065.04
717.119	2120.33
717.306	2085.51
717.493	2026.12
717.681	2071.18
717.868	2085.51
718.055	2052.75
718.242	2126.47
718.43	2058.89
718.617	2052.75
718.804	1987.21
718.991	2112.14
719.179	2140.81
719.366	2003.6
719.553	2036.36
719.74	2110.09
719.927	2144.91
720.114	2026.12
720.301	2026.12
720.488	2009.74
720.676	2060.94
720.863	2030.22
721.05	1921.68
721.237	2069.13
721.424	2019.98
721.611	2046.6
721.798	2062.99
721.985	1938.06
722.172	1976.97
722.358	2003.6
722.545	2044.56
722.732	1940.11
722.919	2048.65
723.106	2065.04
723.293	1981.07
723.48	2044.56
723.667	1938.06
723.853	2024.08
724.04	2081.42
724.227	1905.29
724.414	1927.82
724.6	1964.68
724.787	2015.88
724.974	2032.27
725.161	1933.97
725.347	1897.1
725.534	2136.71
725.72	1981.07
725.907	1952.4
726.094	1972.88
726.28	1962.64
726.467	1999.5
726.653	1946.25
726.84	2065.04
727.027	2052.75
727.213	1956.49
727.4	2040.46
727.586	1907.34
727.773	2026.12
727.959	1897.1
728.145	1987.21
728.332	1897.1
728.518	1956.49
728.705	1905.29
728.891	1899.15
729.077	2036.36
729.264	1921.68
729.45	1876.62
729.636	2003.6
729.823	1938.06
730.009	2024.08
730.195	1948.3
730.382	1979.02
730.568	2054.8
730.754	1835.66
730.94	1833.61
731.126	1893.01
731.313	1938.06
731.499	1966.73
731.685	1970.83
731.871	1952.4
732.057	1815.18
732.243	1968.78
732.429	1970.83
732.615	1864.33
732.801	1917.58
732.987	1946.25
733.173	1811.09
733.359	1933.97
733.545	1913.49
733.731	1800.85
733.917	1897.1
734.103	2007.69
734.289	1942.16
734.475	1893.01
734.661	1929.87
734.847	1917.58
735.033	1872.53
735.219	1831.57
735.404	1850
735.59	1856.14
735.776	1864.33
735.962	1794.7
736.148	1933.97
736.333	1798.8
736.519	1831.57
736.705	1761.94
736.89	1858.19
737.076	1897.1
737.262	1831.57
737.447	1725.07
737.633	1823.37
737.819	1831.57
738.004	1768.08
738.19	1753.74
738.375	1780.37
738.561	1768.08
738.747	1856.14
738.932	1761.94
739.118	1766.03
739.303	1790.61
739.489	1790.61
739.674	1755.79
739.859	1753.74
740.045	1690.26
740.23	1751.7
740.416	1737.36
740.601	1757.84
740.786	1702.54
740.972	1657.49
741.157	1651.35
741.342	1684.11
741.528	1610.39
741.713	1759.89
741.898	1612.43
742.084	1671.83
742.269	1673.87
742.454	1780.37
742.639	1745.55
742.824	1690.26
743.01	1700.5
743.195	1782.42
743.38	1620.63
743.565	1606.29
743.75	1637.01
743.935	1651.35
744.12	1755.79
744.305	1634.96
744.49	1653.39
744.675	1561.23
744.86	1473.17
745.045	1651.35
745.23	1471.12
745.415	1610.39
745.6	1497.75
745.785	1497.75
745.97	1550.99
746.155	1485.46
746.34	1561.23
746.525	1555.09
746.71	1528.47
746.895	1448.6
747.079	1469.08
747.264	1520.28
747.449	1503.89
747.634	1491.6
747.819	1505.94
748.003	1354.39
748.188	1503.89
748.373	1454.74
748.557	1391.25
748.742	1491.6
748.927	1421.97
749.111	1413.78
749.296	1399.45
749.481	1385.11
749.665	1454.74
749.85	1325.72
750.034	1323.67
750.219	1331.86
750.404	1225.37
750.588	1235.61
750.773	1348.25
750.957	1272.47
751.141	1258.14
751.326	1315.48
751.51	1366.68
751.695	1258.14
751.879	1192.6
752.064	1292.95
752.248	1319.57
752.432	1383.06
752.617	1290.9
752.801	1356.44
752.985	1315.48
753.17	1340.05
753.354	1196.7
753.538	1251.99
753.722	1239.7
753.907	1084.06
754.091	1157.78
754.275	1114.78
754.459	1266.33
754.643	1098.39
754.828	1221.27
755.012	1098.39
755.196	1184.41
755.38	1178.26
755.564	1073.82
755.748	1075.87
755.932	1143.45
756.116	1137.31
756.3	1149.59
756.484	1086.11
756.668	1116.83
756.852	1127.07
757.036	1077.91
757.22	1053.34
757.404	987.8
757.588	1088.15
757.772	1059.48
757.956	1012.38
758.14	1084.06
758.323	932.51
758.507	1006.24
758.691	1020.57
758.875	981.66
759.059	1061.53
759.242	975.52
759.426	938.65
759.61	940.7
759.794	871.07
759.977	971.42
760.161	1106.59
760.345	955.04
760.528	1086.11
760.712	914.08
760.895	971.42
761.079	881.31
761.263	909.98
761.446	875.17
761.63	944.8
761.813	889.5
761.997	885.41
762.18	815.77
762.364	883.36
762.547	815.77
762.731	869.02
762.914	897.69
763.098	909.98
763.281	965.28
763.464	873.12
763.648	809.63
763.831	897.69
764.015	840.35
764.198	948.89
764.381	805.53
764.564	836.25
764.748	819.87
764.931	840.35
765.114	823.97
765.297	916.12
765.481	711.33
765.664	852.64
765.847	840.35
766.03	813.73
766.213	887.45
766.397	848.54
766.58	811.68
766.763	783.01
766.946	834.21
767.129	815.77
767.312	768.67
767.495	793.25
767.678	791.2
767.861	815.77
768.044	858.78
768.227	748.19
768.41	727.71
768.593	801.44
768.776	680.61
768.959	750.24
769.142	750.24
769.324	770.72
769.507	766.62
769.69	758.43
769.873	744.1
770.056	807.58
770.239	707.23
770.421	776.86
770.604	760.48
770.787	664.22
770.97	742.05
771.152	678.56
771.335	750.24
771.518	770.72
771.7	694.94
771.883	754.34
772.066	660.13
772.248	758.43
772.431	666.27
772.613	737.95
772.796	729.76
772.978	711.33
773.161	729.76
773.343	717.47
773.526	670.37
773.708	676.51
773.891	610.98
774.073	647.84
774.256	721.57
774.438	711.33
774.621	647.84
774.803	635.55
774.985	639.65
775.168	596.64
775.35	705.18
775.532	686.75
775.715	651.94
775.897	725.66
776.079	602.79
776.261	586.4
776.444	647.84
776.626	678.56
776.808	604.83
776.99	608.93
777.173	602.79
777.355	606.88
777.537	594.59
777.719	600.74
777.901	584.35
778.083	539.3
778.265	594.59
778.447	539.3
778.629	481.96
778.811	610.98
778.993	516.77
779.175	500.39
779.357	584.35
779.539	453.28
779.721	457.38
779.903	541.35
780.085	547.49
780.267	506.53
780.449	553.63
780.631	533.15
780.812	496.29
780.994	479.91
781.176	582.31
781.358	449.19
781.54	475.81
781.721	520.87
781.903	594.59
782.085	404.13
782.267	496.29
782.448	383.65
782.63	488.1
782.812	430.76
782.993	471.72
783.175	455.33
783.357	455.33
783.538	428.71
783.72	367.27
783.901	416.42
784.083	453.28
784.264	436.9
784.446	397.99
784.627	422.56
784.809	393.89
784.99	379.56
785.172	373.41
785.353	406.18
785.535	430.76
785.716	449.19
785.897	393.89
786.079	402.08
786.26	424.61
786.441	471.72
786.623	379.56
786.804	350.89
786.985	346.79
787.167	406.18
787.348	473.76
787.529	434.85
787.71	451.24
787.891	377.51
788.073	369.32
788.254	352.93
788.435	463.52
788.616	318.12
788.797	320.17
788.978	381.6
789.159	348.84
789.34	318.12
789.522	397.99
789.703	228.01
789.884	320.17
790.065	258.73
790.246	436.9
790.427	275.11
790.607	287.4
790.788	291.49
790.969	279.21
791.15	324.26
791.331	244.39
791.512	348.84
791.693	238.25
791.874	311.97
792.054	307.88
792.235	332.45
792.416	260.77
792.597	187.05
792.778	352.93
792.958	297.64
793.139	258.73
793.32	266.92
793.5	254.63
793.681	307.88
793.862	193.19
794.042	244.39
794.223	209.58
794.404	311.97
794.584	244.39
794.765	211.62
794.945	219.82
795.126	295.59
795.306	234.15
795.487	309.93
795.667	213.67
795.848	234.15
796.028	273.06
796.209	238.25
796.389	271.01
796.57	275.11
796.75	232.1
796.93	197.29
797.111	344.74
797.291	191.14
797.471	262.82
797.652	195.24
797.832	266.92
798.012	252.58
798.192	240.29
798.373	205.48
798.553	174.76
798.733	209.58
798.913	168.62
799.093	215.72
799.274	232.1
799.454	279.21
799.634	193.19
799.814	211.62
799.994	160.42
800.174	234.15
800.354	287.4
800.534	168.62
800.714	185
800.894	193.19
801.074	205.48
801.254	250.53
801.434	291.49
801.614	244.39
801.794	250.53
801.974	809.63
802.154	209.58
802.334	189.1
802.514	213.67
802.693	209.58
802.873	197.29
803.053	178.86
803.233	180.9
803.413	207.53
803.592	156.33
803.772	187.05
803.952	164.52
804.131	139.94
804.311	258.73
804.491	244.39
804.67	160.42
804.85	135.85
805.03	236.2
805.209	219.82
805.389	113.32
805.568	185
805.748	94.89
805.928	193.19
806.107	213.67
806.287	185
806.466	121.51
806.646	195.24
806.825	182.95
807.004	144.04
807.184	129.7
807.363	182.95
807.543	162.47
807.722	178.86
807.901	201.38
808.081	111.27
808.26	193.19
808.439	195.24
808.619	160.42
808.798	160.42
808.977	160.42
809.156	144.04
809.336	193.19
809.515	137.9
809.694	146.09
809.873	45.74
810.052	137.9
810.231	137.9
810.411	103.08
810.59	121.51
810.769	82.6
810.948	162.47
811.127	137.9
811.306	178.86
811.485	103.08
811.664	168.62
811.843	185
812.022	121.51
812.201	82.6
812.38	64.17
812.559	129.7
812.737	111.27
812.916	119.46
813.095	109.22
813.274	115.37
813.453	53.93
813.632	113.32
813.811	152.23
813.989	72.36
814.168	119.46
814.347	119.46
814.526	156.33
814.704	141.99
814.883	144.04
815.062	113.32
815.24	105.13
815.419	121.51
815.598	90.79
815.776	12.97
815.955	58.03
816.133	17.07
816.312	137.9
816.49	176.81
816.669	127.66
816.847	107.18
817.026	139.94
817.204	47.79
817.383	49.83
817.561	119.46
817.74	74.41
817.918	90.79
818.097	141.99
818.275	21.16
818.453	137.9
818.632	98.99
818.81	98.99
818.988	45.74
819.167	74.41
819.345	146.09
819.523	96.94
819.701	37.55
819.879	86.7
820.058	152.23
820.236	139.94
820.414	162.47
820.592	23.21
820.77	80.55
820.948	146.09
821.127	94.89
821.305	35.5
821.483	129.7
821.661	111.27
821.839	156.33
822.017	109.22
822.195	123.56
822.373	144.04
822.551	66.22
822.729	119.46
822.907	68.27
823.085	78.51
823.262	148.14
823.44	107.18
823.618	107.18
823.796	178.86
823.974	-9.56
824.152	21.16
824.329	45.74
824.507	10.92
824.685	96.94
824.863	43.69
825.04	70.31
825.218	141.99
825.396	76.46
825.574	127.66
825.751	111.27
825.929	96.94
826.107	15.02
826.284	29.35
826.462	135.85
826.639	86.7
826.817	53.93
826.994	64.17
827.172	-25.94
827.349	107.18
827.527	94.89
827.704	37.55
827.882	127.66
828.059	58.03
828.237	23.21
828.414	144.04
828.591	29.35
828.769	66.22
828.946	55.98
829.124	70.31
829.301	47.79
829.478	23.21
829.655	31.4
829.833	82.6
830.01	-19.8
830.187	33.45
830.364	107.18
830.542	127.66
830.719	76.46
830.896	33.45
831.073	70.31
831.25	8.87
831.427	8.87
831.604	88.75
831.782	31.4
831.959	-1.37
832.136	43.69
832.313	96.94
832.49	55.98
832.667	45.74
832.844	111.27
833.021	72.36
833.198	66.22
833.374	17.07
833.551	129.7
833.728	21.16
833.905	115.37
834.082	72.36
834.259	66.22
834.436	78.51
834.612	37.55
834.789	129.7
834.966	41.64
835.143	60.07
835.319	62.12
835.496	62.12
835.673	98.99
835.85	88.75
836.026	115.37
836.203	-11.61
836.38	0.68
836.556	-17.75
836.733	103.08
836.909	98.99
837.086	-7.51
837.262	2.73
837.439	25.26
837.616	-15.7
837.792	17.07
837.968	4.78
838.145	21.16
838.321	33.45
838.498	31.4
838.674	105.13
838.851	31.4
839.027	8.87
839.203	12.97
839.38	17.07
839.556	-81.24
839.732	98.99
839.909	25.26
840.085	103.08
840.261	-38.23
840.437	86.7
840.614	47.79
840.79	47.79
840.966	25.26
841.142	-19.8
841.318	-11.61
841.494	12.97
841.671	55.98
841.847	-1.37
842.023	-54.61
842.199	33.45
842.375	45.74
842.551	12.97
842.727	37.55
842.903	113.32
843.079	70.31
843.255	66.22
843.431	-3.41
843.607	-7.51
843.783	-3.41
843.959	53.93
844.134	37.55
844.31	-11.61
844.486	-15.7
844.662	17.07
844.838	55.98
845.013	80.55
845.189	82.6
845.365	-25.94
845.541	15.02
845.716	17.07
845.892	55.98
846.068	4.78
846.244	64.17
846.419	55.98
846.595	-15.7
846.77	-21.85
846.946	37.55
847.122	23.21
847.297	-21.85
847.473	51.88
847.648	37.55
847.824	29.35
847.999	-5.46
848.175	47.79
848.35	-23.89
848.526	86.7
848.701	103.08
848.876	17.07
849.052	107.18
849.227	25.26
849.403	-15.7
849.578	31.4
849.753	70.31
849.929	-19.8
850.104	-68.95
850.279	66.22
850.454	-17.75
850.63	23.21
850.805	12.97
850.98	31.4
851.155	15.02
851.33	-9.56
851.505	8.87
851.681	53.93
851.856	-1.37
852.031	45.74
852.206	-30.04
852.381	2.73
852.556	4.78
852.731	19.11
852.906	58.03
853.081	45.74
853.256	21.16
853.431	17.07
853.606	0.68
853.781	62.12
853.956	-5.46
854.131	23.21
854.305	-11.61
854.48	0.68
854.655	-58.71
854.83	-52.56
855.005	-1.37
855.18	23.21
855.354	-60.76
855.529	15.02
855.704	19.11
855.879	29.35
856.053	-75.09
856.228	62.12
856.403	0.68
856.577	15.02
856.752	-44.37
856.926	21.16
857.101	15.02
857.276	-9.56
857.45	135.85
857.625	70.31
857.799	25.26
857.974	-17.75
858.148	-34.13
858.323	33.45
858.497	25.26
858.672	64.17
858.846	-17.75
859.02	49.83
859.195	21.16
859.369	-46.42
859.543	19.11
859.718	49.83
859.892	31.4
860.066	15.02
860.241	58.03
860.415	4.78
860.589	-23.89
860.763	6.83
860.938	29.35
861.112	29.35
861.286	-34.13
861.46	21.16
861.634	23.21
861.808	2.73
861.982	25.26
862.157	25.26
862.331	35.5
862.505	-30.04
862.679	-3.41
862.853	-19.8
863.027	31.4
863.201	31.4
863.375	-1.37
863.549	-13.65
863.722	21.16
863.896	45.74
864.07	-68.95
864.244	-11.61
864.418	-9.56
864.592	53.93
864.766	-48.47
864.939	6.83
865.113	-23.89
865.287	66.22
865.461	-19.8
865.634	21.16
865.808	-5.46
865.982	8.87
866.156	4.78
866.329	-56.66
866.503	-19.8
866.676	72.36
866.85	-68.95
867.024	-27.99
867.197	66.22
867.371	31.4
867.544	17.07
867.718	-21.85
867.891	-11.61
868.065	53.93
868.238	25.26
868.412	96.94
868.585	17.07
868.759	-27.99
868.932	-52.56
869.105	12.97
869.279	53.93
869.452	-7.51
869.625	8.87
869.799	-32.08
869.972	-3.41
870.145	4.78
870.319	4.78
870.492	58.03
870.665	53.93
870.838	-50.52
871.011	-1.37
871.185	45.74
871.358	45.74
871.531	21.16
871.704	-9.56
871.877	33.45
872.05	45.74
872.223	6.83
872.396	-15.7
872.569	29.35
872.742	-58.71
872.915	-23.89
873.088	-9.56
873.261	-13.65
873.434	37.55
873.607	-68.95
873.78	43.69
873.953	-44.37
874.126	21.16
874.299	-44.37
874.471	-11.61
874.644	4.78
874.817	25.26
874.99	113.32
875.163	-64.85
875.335	17.07
875.508	33.45
875.681	33.45
875.853	-19.8
876.026	21.16
876.199	39.59
876.371	21.16
876.544	29.35
876.717	47.79
876.889	-1.37
877.062	6.83
877.234	31.4
877.407	17.07
877.579	-60.76
877.752	-1.37
877.924	-40.28
878.097	49.83
878.269	-50.52
878.442	-36.18
878.614	0.68
878.786	6.83
878.959	-44.37
879.131	58.03
879.303	-42.32
879.476	-15.7
879.648	-17.75
879.82	37.55
879.993	-17.75
880.165	-25.94
880.337	12.97
880.509	-60.76
880.681	41.64
880.854	4.78
881.026	17.07
881.198	109.22
881.37	-44.37
881.542	19.11
881.714	-5.46
881.886	-38.23
882.058	21.16
882.23	23.21
882.402	15.02
882.574	72.36
882.746	49.83
882.918	31.4
883.09	12.97
883.262	-3.41
883.434	37.55
883.606	31.4
883.778	4.78
883.95	-15.7
884.122	-17.75
884.293	23.21
884.465	49.83
884.637	15.02
884.809	-23.89
884.98	70.31
885.152	21.16
885.324	64.17
885.496	-11.61
885.667	-15.7
885.839	19.11
886.011	23.21
886.182	-23.89
886.354	33.45
886.525	-5.46
886.697	39.59
886.869	-66.9
887.04	-44.37
887.212	119.46
887.383	45.74
887.555	-36.18
887.726	19.11
887.897	-25.94
888.069	29.35
888.24	6.83
888.412	-36.18
888.583	49.83
888.754	-11.61
888.926	-52.56
889.097	10.92
889.268	-1.37
889.44	-19.8
889.611	-1.37
889.782	-32.08
889.953	2.73
890.125	37.55
890.296	-27.99
890.467	12.97
890.638	-34.13
890.809	64.17
890.98	62.12
891.151	25.26
891.323	74.41
891.494	53.93
891.665	-11.61
891.836	15.02
892.007	4.78
892.178	-17.75
892.349	37.55
892.52	-13.65
892.691	6.83
892.862	21.16
893.032	-19.8
893.203	25.26
893.374	25.26
893.545	0.68
893.716	-27.99
893.887	-73.04
894.057	31.4
894.228	86.7
894.399	-23.89
894.57	43.69
894.74	-15.7
894.911	-56.66
895.082	-19.8
895.253	4.78
895.423	0.68
895.594	70.31
895.764	-19.8
895.935	-68.95
896.106	-5.46
896.276	-126.29
896.447	-11.61
896.617	12.97
896.788	-77.14
896.958	29.35
897.129	-17.75
897.299	17.07
897.47	37.55
897.64	53.93
897.81	-3.41
897.981	-71
898.151	-48.47
898.322	33.45
898.492	21.16
898.662	-58.71
898.832	62.12
899.003	-27.99
899.173	62.12
899.343	88.75
899.513	25.26
