Data from USB4F104151__88__14-43-31-615.txt Node

Date: Thu Mar 13 14:43:31 EDT 2025
User: louis
Spectrometer: USB4F10415
Trigger mode: 4
Integration Time (sec): 2.000000E-2
Scans to average: 1
Electric dark correction enabled: true
Nonlinearity correction enabled: false
Boxcar width: 0
XAxis mode: Wavelengths
Number of Pixels in Spectrum: 3648
>>>>>Begin Spectral Data<<<<<
178.204	-121.34
178.424	-121.34
178.644	-121.34
178.864	-78.33
179.084	-154.11
179.304	-98.81
179.524	-14.85
179.744	22.02
179.964	101.89
180.184	13.82
180.404	-29.18
180.624	-20.99
180.844	17.92
181.064	-12.8
181.283	19.97
181.503	-23.04
181.723	24.06
181.943	-72.19
182.163	34.3
182.383	-31.23
182.602	17.92
182.822	-45.57
183.042	28.16
183.262	-27.14
183.482	17.92
183.701	77.31
183.921	-14.85
184.141	24.06
184.361	19.97
184.58	-55.81
184.8	52.74
185.02	-23.04
185.239	67.07
185.459	-35.33
185.679	62.98
185.898	-10.75
186.118	54.78
186.338	24.06
186.557	58.88
186.777	-31.23
186.997	13.82
187.216	-14.85
187.436	54.78
187.655	13.82
187.875	34.3
188.095	22.02
188.314	36.35
188.534	97.79
188.753	-6.66
188.973	-0.51
189.192	34.3
189.412	-29.18
189.631	-12.8
189.851	-25.09
190.07	26.11
190.29	26.11
190.509	26.11
190.729	-20.99
190.948	60.93
191.168	132.61
191.387	56.83
191.607	-76.29
191.826	-10.75
192.045	17.92
192.265	-25.09
192.484	52.74
192.704	34.3
192.923	-12.8
193.142	46.59
193.362	-72.19
193.581	19.97
193.8	75.26
194.02	-6.66
194.239	17.92
194.458	9.73
194.678	-49.66
194.897	36.35
195.116	15.87
195.335	-6.66
195.555	42.5
195.774	60.93
195.993	36.35
196.212	15.87
196.432	34.3
196.651	-20.99
196.87	26.11
197.089	91.65
197.308	112.13
197.528	44.54
197.747	71.17
197.966	85.5
198.185	108.03
198.404	-31.23
198.623	34.3
198.842	85.5
199.062	26.11
199.281	79.36
199.5	42.5
199.719	28.16
199.938	42.5
200.157	148.99
200.376	42.5
200.595	30.21
200.814	50.69
201.033	-31.23
201.252	34.3
201.471	65.02
201.69	157.18
201.909	62.98
202.128	89.6
202.347	132.61
202.566	46.59
202.785	77.31
203.004	7.68
203.223	112.13
203.442	60.93
203.661	-2.56
203.879	-8.7
204.098	34.3
204.317	50.69
204.536	3.58
204.755	85.5
204.974	69.12
205.193	-29.18
205.411	71.17
205.63	40.45
205.849	42.5
206.068	9.73
206.287	1.54
206.505	69.12
206.724	-59.9
206.943	-18.94
207.162	-12.8
207.381	19.97
207.599	15.87
207.818	11.78
208.037	81.41
208.255	52.74
208.474	42.5
208.693	34.3
208.911	-16.9
209.13	36.35
209.349	120.32
209.567	17.92
209.786	157.18
210.005	75.26
210.223	42.5
210.442	-14.85
210.661	-31.23
210.879	28.16
211.098	9.73
211.316	19.97
211.535	120.32
211.753	-6.66
211.972	34.3
212.191	9.73
212.409	-2.56
212.628	9.73
212.846	-59.9
213.065	26.11
213.283	28.16
213.502	9.73
213.72	58.88
213.938	11.78
214.157	91.65
214.375	28.16
214.594	42.5
214.812	52.74
215.031	-23.04
215.249	-20.99
215.467	105.98
215.686	17.92
215.904	28.16
216.122	42.5
216.341	34.3
216.559	30.21
216.778	73.21
216.996	67.07
217.214	-6.66
217.432	36.35
217.651	93.69
217.869	95.74
218.087	9.73
218.306	50.69
218.524	97.79
218.742	-20.99
218.96	95.74
219.179	75.26
219.397	36.35
219.615	32.26
219.833	44.54
220.051	13.82
220.27	60.93
220.488	81.41
220.706	116.22
220.924	67.07
221.142	-41.47
221.36	-14.85
221.578	34.3
221.796	34.3
222.015	-66.05
222.233	13.82
222.451	9.73
222.669	44.54
222.887	97.79
223.105	1.54
223.323	44.54
223.541	93.69
223.759	75.26
223.977	38.4
224.195	71.17
224.413	46.59
224.631	22.02
224.849	85.5
225.067	58.88
225.285	-37.38
225.503	1.54
225.721	-23.04
225.939	22.02
226.157	81.41
226.375	95.74
226.592	50.69
226.81	-25.09
227.028	62.98
227.246	67.07
227.464	42.5
227.682	60.93
227.9	52.74
228.117	124.41
228.335	-6.66
228.553	99.84
228.771	-0.51
228.989	44.54
229.206	60.93
229.424	85.5
229.642	67.07
229.86	-16.9
230.077	44.54
230.295	75.26
230.513	36.35
230.731	54.78
230.948	60.93
231.166	17.92
231.384	-14.85
231.601	-43.52
231.819	77.31
232.037	38.4
232.254	-64
232.472	-31.23
232.689	-45.57
232.907	36.35
233.125	-61.95
233.342	42.5
233.56	13.82
233.777	17.92
233.995	77.31
234.213	15.87
234.43	1.54
234.648	30.21
234.865	26.11
235.083	22.02
235.3	108.03
235.518	24.06
235.735	50.69
235.953	108.03
236.17	-47.62
236.388	19.97
236.605	32.26
236.822	34.3
237.04	17.92
237.257	36.35
237.475	13.82
237.692	71.17
237.909	-6.66
238.127	42.5
238.344	-45.57
238.562	-4.61
238.779	48.64
238.996	-2.56
239.214	15.87
239.431	71.17
239.648	36.35
239.865	50.69
240.083	105.98
240.3	15.87
240.517	50.69
240.735	71.17
240.952	67.07
241.169	73.21
241.386	22.02
241.603	42.5
241.821	-6.66
242.038	83.45
242.255	67.07
242.472	-0.51
242.689	108.03
242.907	58.88
243.124	105.98
243.341	75.26
243.558	9.73
243.775	60.93
243.992	9.73
244.209	24.06
244.426	130.56
244.643	79.36
244.86	1.54
245.078	-12.8
245.295	83.45
245.512	75.26
245.729	-45.57
245.946	30.21
246.163	130.56
246.38	-6.66
246.597	91.65
246.814	-39.42
247.031	5.63
247.248	62.98
247.464	5.63
247.681	-31.23
247.898	67.07
248.115	67.07
248.332	-12.8
248.549	62.98
248.766	32.26
248.983	30.21
249.2	-33.28
249.417	83.45
249.633	19.97
249.85	71.17
250.067	9.73
250.284	67.07
250.501	93.69
250.717	17.92
250.934	77.31
251.151	26.11
251.368	-23.04
251.585	19.97
251.801	58.88
252.018	9.73
252.235	1.54
252.451	71.17
252.668	-51.71
252.885	116.22
253.102	67.07
253.318	120.32
253.535	9.73
253.752	42.5
253.968	22.02
254.185	83.45
254.401	67.07
254.618	-2.56
254.835	58.88
255.051	108.03
255.268	5.63
255.484	75.26
255.701	71.17
255.917	42.5
256.134	-43.52
256.351	26.11
256.567	-27.14
256.784	44.54
257	60.93
257.217	-10.75
257.433	77.31
257.65	-43.52
257.866	126.46
258.082	26.11
258.299	56.83
258.515	42.5
258.732	42.5
258.948	54.78
259.165	69.12
259.381	13.82
259.597	52.74
259.814	28.16
260.03	19.97
260.246	-8.7
260.463	13.82
260.679	42.5
260.895	69.12
261.112	67.07
261.328	17.92
261.544	34.3
261.761	58.88
261.977	91.65
262.193	24.06
262.409	91.65
262.626	42.5
262.842	67.07
263.058	-25.09
263.274	99.84
263.49	83.45
263.707	101.89
263.923	54.78
264.139	-41.47
264.355	1.54
264.571	69.12
264.787	-6.66
265.004	56.83
265.22	30.21
265.436	-29.18
265.652	26.11
265.868	95.74
266.084	-8.7
266.3	5.63
266.516	17.92
266.732	56.83
266.948	30.21
267.164	1.54
267.38	42.5
267.596	67.07
267.812	17.92
268.028	34.3
268.244	44.54
268.46	87.55
268.676	75.26
268.892	69.12
269.108	52.74
269.324	42.5
269.54	-27.14
269.756	30.21
269.972	17.92
270.188	54.78
270.403	34.3
270.619	52.74
270.835	-2.56
271.051	30.21
271.267	50.69
271.483	-6.66
271.698	67.07
271.914	26.11
272.13	-2.56
272.346	95.74
272.562	5.63
272.777	62.98
272.993	-49.66
273.209	13.82
273.425	26.11
273.64	1.54
273.856	124.41
274.072	77.31
274.287	-4.61
274.503	-27.14
274.719	136.7
274.934	30.21
275.15	-16.9
275.366	-31.23
275.581	-2.56
275.797	-55.81
276.012	-37.38
276.228	-10.75
276.444	77.31
276.659	50.69
276.875	42.5
277.09	17.92
277.306	5.63
277.521	34.3
277.737	22.02
277.952	32.26
278.168	19.97
278.383	60.93
278.599	44.54
278.814	99.84
279.03	5.63
279.245	11.78
279.461	42.5
279.676	87.55
279.892	3.58
280.107	52.74
280.322	-33.28
280.538	30.21
280.753	79.36
280.969	67.07
281.184	42.5
281.399	44.54
281.615	-37.38
281.83	9.73
282.045	-59.9
282.26	9.73
282.476	22.02
282.691	-14.85
282.906	-0.51
283.122	9.73
283.337	-6.66
283.552	11.78
283.767	-45.57
283.983	108.03
284.198	95.74
284.413	32.26
284.628	75.26
284.843	28.16
285.058	24.06
285.274	-12.8
285.489	75.26
285.704	118.27
285.919	48.64
286.134	50.69
286.349	40.45
286.564	24.06
286.779	54.78
286.995	67.07
287.21	-59.9
287.425	17.92
287.64	3.58
287.855	19.97
288.07	-29.18
288.285	67.07
288.5	9.73
288.715	112.13
288.93	9.73
289.145	75.26
289.36	28.16
289.575	67.07
289.79	54.78
290.004	38.4
290.219	89.6
290.434	-53.76
290.649	-10.75
290.864	91.65
291.079	19.97
291.294	28.16
291.509	71.17
291.724	58.88
291.938	-20.99
292.153	-45.57
292.368	48.64
292.583	85.5
292.798	34.3
293.012	138.75
293.227	9.73
293.442	-35.33
293.657	128.51
293.871	17.92
294.086	11.78
294.301	71.17
294.516	9.73
294.73	26.11
294.945	1.54
295.16	-51.71
295.374	28.16
295.589	26.11
295.804	-37.38
296.018	91.65
296.233	-2.56
296.447	36.35
296.662	44.54
296.877	52.74
297.091	99.84
297.306	22.02
297.52	50.69
297.735	19.97
297.949	26.11
298.164	5.63
298.378	38.4
298.593	-29.18
298.807	60.93
299.022	42.5
299.236	91.65
299.451	34.3
299.665	38.4
299.88	71.17
300.094	30.21
300.309	-20.99
300.523	19.97
300.737	24.06
300.952	15.87
301.166	58.88
301.381	-23.04
301.595	101.89
301.809	44.54
302.024	42.5
302.238	26.11
302.452	46.59
302.667	36.35
302.881	99.84
303.095	75.26
303.309	75.26
303.524	62.98
303.738	5.63
303.952	58.88
304.166	44.54
304.381	9.73
304.595	89.6
304.809	44.54
305.023	34.3
305.237	-14.85
305.452	83.45
305.666	60.93
305.88	-27.14
306.094	87.55
306.308	93.69
306.522	26.11
306.736	9.73
306.95	40.45
307.164	1.54
307.379	-12.8
307.593	54.78
307.807	-27.14
308.021	58.88
308.235	9.73
308.449	9.73
308.663	50.69
308.877	144.89
309.091	40.45
309.305	1.54
309.519	11.78
309.733	99.84
309.947	-64
310.161	22.02
310.374	60.93
310.588	112.13
310.802	-18.94
311.016	58.88
311.23	28.16
311.444	67.07
311.658	58.88
311.872	22.02
312.085	-27.14
312.299	58.88
312.513	36.35
312.727	36.35
312.941	17.92
313.154	-4.61
313.368	60.93
313.582	28.16
313.796	95.74
314.009	1.54
314.223	71.17
314.437	26.11
314.651	28.16
314.864	-10.75
315.078	36.35
315.292	28.16
315.505	3.58
315.719	28.16
315.933	50.69
316.146	40.45
316.36	-29.18
316.573	134.65
316.787	-4.61
317.001	36.35
317.214	46.59
317.428	-14.85
317.641	142.85
317.855	17.92
318.068	81.41
318.282	9.73
318.495	13.82
318.709	9.73
318.922	-0.51
319.136	3.58
319.349	114.17
319.563	28.16
319.776	42.5
319.99	13.82
320.203	46.59
320.417	44.54
320.63	118.27
320.843	75.26
321.057	73.21
321.27	50.69
321.483	75.26
321.697	114.17
321.91	93.69
322.124	71.17
322.337	11.78
322.55	38.4
322.763	58.88
322.977	69.12
323.19	17.92
323.403	9.73
323.617	15.87
323.83	17.92
324.043	26.11
324.256	60.93
324.469	9.73
324.683	118.27
324.896	60.93
325.109	77.31
325.322	60.93
325.535	17.92
325.748	17.92
325.962	19.97
326.175	67.07
326.388	28.16
326.601	81.41
326.814	44.54
327.027	50.69
327.24	77.31
327.453	-2.56
327.666	134.65
327.879	50.69
328.092	108.03
328.305	54.78
328.518	75.26
328.731	30.21
328.944	1.54
329.157	67.07
329.37	30.21
329.583	132.61
329.796	75.26
330.009	52.74
330.222	13.82
330.435	-16.9
330.648	19.97
330.861	52.74
331.073	50.69
331.286	60.93
331.499	81.41
331.712	-51.71
331.925	60.93
332.138	58.88
332.35	75.26
332.563	62.98
332.776	75.26
332.989	-4.61
333.202	3.58
333.414	50.69
333.627	58.88
333.84	85.5
334.053	26.11
334.265	19.97
334.478	71.17
334.691	71.17
334.903	42.5
335.116	9.73
335.329	103.93
335.541	-20.99
335.754	126.46
335.966	38.4
336.179	124.41
336.392	75.26
336.604	99.84
336.817	42.5
337.029	69.12
337.242	19.97
337.454	85.5
337.667	-23.04
337.88	75.26
338.092	110.08
338.305	99.84
338.517	-6.66
338.729	42.5
338.942	-35.33
339.154	34.3
339.367	30.21
339.579	22.02
339.792	34.3
340.004	22.02
340.217	48.64
340.429	77.31
340.641	26.11
340.854	19.97
341.066	19.97
341.278	71.17
341.491	132.61
341.703	17.92
341.915	38.4
342.128	60.93
342.34	28.16
342.552	32.26
342.764	71.17
342.977	17.92
343.189	91.65
343.401	-25.09
343.613	58.88
343.826	28.16
344.038	11.78
344.25	-6.66
344.462	17.92
344.674	34.3
344.886	38.4
345.099	26.11
345.311	58.88
345.523	-55.81
345.735	7.68
345.947	17.92
346.159	3.58
346.371	79.36
346.583	75.26
346.795	58.88
347.007	15.87
347.219	3.58
347.431	-51.71
347.643	28.16
347.855	58.88
348.067	62.98
348.279	9.73
348.491	7.68
348.703	58.88
348.915	15.87
349.127	42.5
349.339	17.92
349.551	1.54
349.763	110.08
349.975	71.17
350.187	67.07
350.399	62.98
350.61	7.68
350.822	9.73
351.034	62.98
351.246	-20.99
351.458	-12.8
351.669	73.21
351.881	32.26
352.093	124.41
352.305	108.03
352.517	91.65
352.728	52.74
352.94	67.07
353.152	134.65
353.363	40.45
353.575	9.73
353.787	32.26
353.999	-4.61
354.21	132.61
354.422	67.07
354.633	1.54
354.845	97.79
355.057	124.41
355.268	50.69
355.48	24.06
355.692	75.26
355.903	30.21
356.115	91.65
356.326	-2.56
356.538	85.5
356.749	1.54
356.961	52.74
357.172	38.4
357.384	69.12
357.595	124.41
357.807	124.41
358.018	-27.14
358.23	34.3
358.441	19.97
358.653	11.78
358.864	7.68
359.075	-6.66
359.287	65.02
359.498	22.02
359.709	75.26
359.921	11.78
360.132	3.58
360.344	50.69
360.555	19.97
360.766	67.07
360.977	77.31
361.189	46.59
361.4	36.35
361.611	91.65
361.823	-2.56
362.034	-51.71
362.245	3.58
362.456	95.74
362.667	50.69
362.879	108.03
363.09	9.73
363.301	85.5
363.512	3.58
363.723	89.6
363.935	83.45
364.146	46.59
364.357	19.97
364.568	85.5
364.779	32.26
364.99	75.26
365.201	30.21
365.412	62.98
365.623	52.74
365.834	60.93
366.045	77.31
366.256	58.88
366.467	38.4
366.678	81.41
366.889	7.68
367.1	-23.04
367.311	34.3
367.522	62.98
367.733	36.35
367.944	108.03
368.155	-12.8
368.366	71.17
368.577	75.26
368.788	42.5
368.999	54.78
369.209	13.82
369.42	67.07
369.631	85.5
369.842	52.74
370.053	60.93
370.264	128.51
370.474	-47.62
370.685	122.37
370.896	22.02
371.107	108.03
371.317	36.35
371.528	-29.18
371.739	108.03
371.95	42.5
372.16	87.55
372.371	50.69
372.582	52.74
372.792	54.78
373.003	1.54
373.214	69.12
373.424	75.26
373.635	40.45
373.846	108.03
374.056	17.92
374.267	75.26
374.477	-6.66
374.688	46.59
374.898	24.06
375.109	42.5
375.319	17.92
375.53	95.74
375.74	11.78
375.951	-57.86
376.161	81.41
376.372	161.28
376.582	-23.04
376.793	34.3
377.003	30.21
377.214	13.82
377.424	17.92
377.635	67.07
377.845	67.07
378.055	36.35
378.266	83.45
378.476	62.98
378.686	22.02
378.897	-23.04
379.107	67.07
379.317	93.69
379.528	42.5
379.738	75.26
379.948	11.78
380.158	36.35
380.369	34.3
380.579	34.3
380.789	19.97
380.999	22.02
381.21	19.97
381.42	44.54
381.63	110.08
381.84	52.74
382.05	5.63
382.261	75.26
382.471	71.17
382.681	-27.14
382.891	26.11
383.101	62.98
383.311	-39.42
383.521	60.93
383.731	75.26
383.941	62.98
384.151	36.35
384.361	26.11
384.571	69.12
384.781	101.89
384.991	50.69
385.201	69.12
385.411	62.98
385.621	85.5
385.831	34.3
386.041	38.4
386.251	13.82
386.461	97.79
386.671	79.36
386.881	83.45
387.091	75.26
387.301	38.4
387.511	17.92
387.72	22.02
387.93	110.08
388.14	60.93
388.35	13.82
388.56	75.26
388.769	101.89
388.979	40.45
389.189	26.11
389.399	75.26
389.609	30.21
389.818	73.21
390.028	-2.56
390.238	75.26
390.447	79.36
390.657	159.23
390.867	42.5
391.076	13.82
391.286	58.88
391.496	85.5
391.705	38.4
391.915	91.65
392.125	83.45
392.334	17.92
392.544	67.07
392.753	44.54
392.963	60.93
393.172	54.78
393.382	69.12
393.591	99.84
393.801	60.93
394.01	95.74
394.22	1.54
394.429	112.13
394.639	13.82
394.848	83.45
395.058	128.51
395.267	28.16
395.477	108.03
395.686	91.65
395.895	128.51
396.105	134.65
396.314	83.45
396.524	99.84
396.733	56.83
396.942	83.45
397.152	69.12
397.361	108.03
397.57	124.41
397.78	67.07
397.989	130.56
398.198	153.09
398.407	132.61
398.617	110.08
398.826	101.89
399.035	58.88
399.244	116.22
399.453	140.8
399.663	99.84
399.872	198.14
400.081	71.17
400.29	169.47
400.499	71.17
400.708	87.55
400.917	144.89
401.127	83.45
401.336	171.52
401.545	173.57
401.754	134.65
401.963	183.81
402.172	132.61
402.381	-6.66
402.59	159.23
402.799	126.46
403.008	155.13
403.217	157.18
403.426	153.09
403.635	167.42
403.844	136.7
404.053	83.45
404.262	91.65
404.471	173.57
404.68	204.28
404.888	105.98
405.097	138.75
405.306	165.37
405.515	257.53
405.724	206.33
405.933	200.19
406.142	173.57
406.35	134.65
406.559	208.38
406.768	173.57
406.977	222.72
407.185	126.46
407.394	249.34
407.603	206.33
407.812	206.33
408.02	230.91
408.229	192
408.438	194.05
408.646	206.33
408.855	189.95
409.064	314.88
409.272	263.68
409.481	304.64
409.69	275.96
409.898	278.01
410.107	288.25
410.315	249.34
410.524	263.68
410.733	333.31
410.941	323.07
411.15	329.21
411.358	388.6
411.567	419.32
411.775	409.08
411.984	394.75
412.192	429.56
412.401	460.28
412.609	503.29
412.818	525.82
413.026	493.05
413.234	527.86
413.443	517.62
413.651	550.39
413.86	570.87
414.068	615.93
414.276	673.27
414.485	609.78
414.693	724.47
414.901	716.28
415.11	677.37
415.318	685.56
415.526	730.61
415.734	693.75
415.943	781.81
416.151	820.72
416.359	792.05
416.567	880.11
416.776	833.01
416.984	937.46
417.192	992.75
417.4	939.51
417.608	972.27
417.817	937.46
418.025	1017.33
418.233	1162.73
418.441	1193.45
418.649	1125.87
418.857	1195.5
419.065	1328.62
419.273	1218.03
419.481	1365.48
419.689	1388.01
419.897	1508.84
420.105	1435.11
420.313	1533.42
420.521	1631.72
420.729	1660.39
420.937	1609.19
421.145	1633.77
421.353	1844.71
421.561	1889.76
421.769	1828.32
421.977	2192.86
422.185	2102.75
422.393	2172.38
422.601	2270.69
422.809	2231.77
423.017	2205.15
423.224	2250.21
423.432	2483.67
423.64	2362.84
423.848	2661.85
424.056	2524.63
424.263	2887.12
424.471	2829.78
424.679	2885.08
424.887	3007.95
425.094	3177.94
425.302	3098.06
425.51	3302.86
425.718	3286.48
425.925	3329.49
426.133	3442.12
426.341	3745.22
426.548	3716.55
426.756	3761.61
426.964	3853.77
427.171	4097.47
427.379	4140.48
427.586	4281.79
427.794	4449.72
428.001	4523.45
428.209	4892.09
428.417	4728.25
428.624	5121.46
428.832	5051.83
429.039	5088.69
429.247	5109.17
429.454	5524.91
429.662	5997.99
429.869	5596.59
430.076	5928.36
430.284	5803.43
430.491	6055.33
430.699	6417.82
430.906	6325.66
431.114	6319.52
431.321	6489.5
431.528	6856.09
431.736	7052.69
431.943	7533.97
432.15	7255.44
432.358	7398.8
432.565	7880.07
432.772	7712.14
432.979	8107.4
433.187	8347.01
433.394	8318.34
433.601	8979.83
433.808	8697.21
434.016	8899.96
434.223	9256.31
434.43	9751.92
434.637	9676.14
434.844	10239.33
435.052	10472.8
435.259	10440.03
435.466	10427.74
435.673	10423.65
435.88	11068.76
436.087	11535.7
436.294	11425.11
436.501	11087.19
436.708	11521.36
436.915	11889.99
437.122	12465.47
437.329	12401.99
437.537	12789.05
437.743	13002.04
437.95	12686.65
438.157	13436.21
438.364	13983.02
438.571	13995.31
438.778	14038.31
438.985	15252.76
439.192	14716.19
439.399	15306.01
439.606	14673.18
439.813	15953.16
440.02	16766.21
440.227	16168.2
440.433	16420.1
440.64	16643.33
440.847	16426.25
441.054	16968.96
441.261	18167.02
441.467	17769.71
441.674	18132.2
441.881	18846.94
442.088	19014.88
442.294	18461.93
442.501	19453.14
442.708	19354.84
442.914	20378.83
443.121	21040.32
443.328	20317.39
443.534	21970.1
443.741	21474.49
443.948	20946.11
444.154	22678.69
444.361	22150.32
444.568	22701.22
444.774	22588.58
444.981	22910.11
445.187	23487.64
445.394	24450.19
445.6	24147.09
445.807	26668.14
446.013	25355.39
446.22	25777.27
446.426	27047.01
446.633	27008.1
446.839	28003.41
447.046	26643.56
447.252	28427.34
447.459	28615.76
447.665	28296.27
447.871	29359.17
448.078	30704.68
448.284	29457.47
448.491	30153.78
448.697	31560.73
448.903	31681.56
449.11	31736.86
449.316	31710.24
449.522	32062.49
449.728	32920.59
449.935	33180.68
450.141	33053.7
450.347	34124.79
450.553	32654.35
450.76	33377.28
450.966	34403.32
451.172	34008.06
451.378	35015.66
451.584	34329.59
451.791	35253.22
451.997	34903.02
452.203	35634.14
452.409	35650.53
452.615	35634.14
452.821	34096.12
453.027	33903.61
453.233	35648.48
453.44	34081.78
453.646	34513.91
453.852	35001.32
454.058	35011.56
454.264	34628.59
454.47	34993.13
454.676	34126.84
454.882	35374.05
455.088	32179.22
455.294	32992.26
455.5	33360.9
455.705	33881.08
455.911	32289.81
456.117	32023.58
456.323	31417.38
456.529	29989.94
456.735	31325.22
456.941	30141.49
457.147	29662.27
457.352	28986.44
457.558	28529.74
457.764	28728.39
457.97	28210.26
458.176	27763.8
458.381	27716.7
458.587	26309.74
458.793	26360.94
458.999	25056.39
459.204	27159.65
459.41	26158.19
459.616	24714.37
459.821	24179.86
460.027	24433.8
460.233	24181.9
460.438	22650.02
460.644	23110.82
460.85	21777.59
461.055	21505.21
461.261	21466.3
461.466	19885.26
461.672	19172.57
461.878	20741.32
462.083	19227.87
462.289	18920.67
462.494	18945.25
462.7	17943.79
462.905	17566.96
463.111	18027.76
463.316	17755.38
463.522	17605.88
463.727	17718.51
463.932	17859.82
464.138	17360.12
464.343	17607.92
464.549	16839.94
464.754	17616.12
464.959	17470.71
465.165	17396.98
465.37	16835.84
465.575	16069.9
465.781	16983.29
465.986	16786.69
466.191	16239.88
466.397	15881.49
466.602	14978.33
466.807	15754.51
467.012	15996.17
467.218	15721.74
467.423	15482.13
467.628	15676.69
467.833	16254.22
468.038	15662.35
468.244	15111.45
468.449	15885.58
468.654	15191.32
468.859	15303.96
469.064	15043.87
469.269	14572.83
469.474	14611.75
469.679	14990.62
469.885	14632.22
470.09	14972.19
470.295	14388.52
470.5	14347.56
470.705	14447.91
470.91	14001.45
471.115	13995.31
471.32	13995.31
471.525	13880.62
471.73	13747.5
471.935	13432.12
472.139	13190.45
472.344	13409.59
472.549	13251.89
472.754	13114.68
472.959	12854.59
473.164	12361.03
473.369	12502.34
473.574	12959.03
473.778	12567.87
473.983	12717.37
474.188	12670.27
474.393	12082.5
474.598	12109.13
474.802	11836.75
475.007	11920.71
475.212	11875.66
475.417	11500.88
475.621	11378
475.826	11629.9
476.031	11062.62
476.235	11136.34
476.44	11199.83
476.645	10970.46
476.849	11064.66
477.054	10669.41
477.259	10667.36
477.463	10528.1
477.668	10433.89
477.872	10581.34
478.077	10331.49
478.282	10018.15
478.486	10036.58
478.691	9973.1
478.895	9964.9
479.1	10093.93
479.304	9794.92
479.509	9475.44
479.713	9885.03
479.918	9489.78
480.122	9471.34
480.326	9655.66
480.531	9553.26
480.735	9592.17
480.94	9319.79
481.144	9745.77
481.348	9213.3
481.553	9117.04
481.757	8979.83
481.961	9233.78
482.166	9448.82
482.37	9393.52
482.574	9110.9
482.778	9219.44
482.983	9246.07
483.187	9139.57
483.391	9391.47
483.595	9135.48
483.8	9041.27
484.004	9018.74
484.208	9319.79
484.412	9100.66
484.616	9067.89
484.821	9170.29
485.025	9020.79
485.229	9096.57
485.433	9209.2
485.637	9278.83
485.841	9033.08
486.045	9020.79
486.249	9033.08
486.453	9074.04
486.657	9174.39
486.861	9022.84
487.065	9074.04
487.269	8971.64
487.473	8897.91
487.677	9121.14
487.881	9207.16
488.085	9069.94
488.289	9194.87
488.493	9104.76
488.697	9274.74
488.901	9178.48
489.105	8996.21
489.309	9250.16
489.512	8977.78
489.716	9094.52
489.92	9186.68
490.124	9256.31
490.328	9379.18
490.531	9250.16
490.735	9493.87
490.939	9377.14
491.143	9211.25
491.346	9399.66
491.55	9446.77
491.754	9446.77
491.958	9620.85
492.161	9602.41
492.365	9631.09
492.569	9489.78
492.772	9524.59
492.976	9762.16
493.18	9678.19
493.383	9889.13
493.587	9932.14
493.79	10007.91
493.994	9725.29
494.197	9919.85
494.401	10077.54
494.605	10118.5
494.808	10290.53
495.012	10317.15
495.215	10286.44
495.419	10407.27
495.622	10255.72
495.825	10448.22
496.029	10468.7
496.232	10839.39
496.436	10661.21
496.639	11103.57
496.843	10954.07
497.046	11048.28
497.249	11244.88
497.453	11265.36
497.656	11310.42
497.859	11412.82
498.063	11416.91
498.266	11816.27
498.469	11617.61
498.673	12076.36
498.876	12127.56
499.079	12035.4
499.282	12086.6
499.485	12455.23
499.689	12498.24
499.892	12780.86
500.095	12649.79
500.298	13038.91
500.501	12780.86
500.705	13305.14
500.908	13446.45
501.111	13563.19
501.314	13608.24
501.517	13782.32
501.72	14026.03
501.923	13882.67
502.126	14058.79
502.329	14527.78
502.532	14232.87
502.735	14468.39
502.938	14865.69
503.141	14865.69
503.344	15115.55
503.547	15107.35
503.75	15314.2
503.953	15668.5
504.156	15713.55
504.359	15623.44
504.562	15793.42
504.765	16581.89
504.968	16364.81
505.17	16704.77
505.373	16487.68
505.576	16948.48
505.779	17061.12
505.982	16960.77
506.185	17548.53
506.387	17523.96
506.59	17683.7
506.793	18230.51
506.996	18126.06
507.198	18285.8
507.401	18580.71
507.604	18719.97
507.807	19051.74
508.009	19117.28
508.212	19184.86
508.415	19614.93
508.617	19645.65
508.82	19819.73
509.022	19735.76
509.225	20100.3
509.428	20272.33
509.63	20405.45
509.833	20669.64
510.035	20933.82
510.238	20794.56
510.44	21103.81
510.643	21497.02
510.845	21800.12
511.048	21800.12
511.25	22148.27
511.453	21978.29
511.655	22901.92
511.858	22842.53
512.06	22699.17
512.262	23346.33
512.465	23364.76
512.667	23272.6
512.87	23792.79
513.072	23735.45
513.274	24024.21
513.477	24581.26
513.679	24700.04
513.881	24980.61
514.084	25207.94
514.286	25166.98
514.488	25412.73
514.69	26039.41
514.893	26287.21
515.095	26352.75
515.297	26346.61
515.499	26680.42
515.701	26952.8
515.904	27321.44
516.106	27395.17
516.308	27544.67
516.51	27939.93
516.712	28226.64
516.914	28025.94
517.116	28828.74
517.318	28392.53
517.52	28765.26
517.722	28945.48
517.925	29832.25
518.127	29776.95
518.329	29744.19
518.531	29649.98
518.733	30559.28
518.935	30714.92
519.136	30891.05
519.338	31214.63
519.54	31501.34
519.742	31419.42
519.944	31691.8
520.146	32011.29
520.348	32267.28
520.55	32330.77
520.752	32201.75
520.954	32887.82
521.155	33010.7
521.357	33242.12
521.559	33375.23
521.761	33737.73
521.963	33788.92
522.164	34489.33
522.366	34546.67
522.568	34460.66
522.77	34972.65
522.971	35159.02
523.173	34989.03
523.375	35492.83
523.576	34817
523.778	35490.79
523.98	35929.05
524.181	36219.86
524.383	36221.91
524.584	36522.96
524.786	36381.65
524.988	36965.32
525.189	36879.31
525.391	36991.95
525.592	36977.61
525.794	37415.88
525.995	37176.26
526.197	37004.24
526.398	37508.04
526.6	37927.87
526.801	38087.61
527.003	38147
527.204	38157.24
527.406	38468.53
527.607	38282.17
527.808	38579.12
528.01	38085.56
528.211	38632.37
528.412	39252.91
528.614	38894.51
528.815	39273.38
529.016	39594.92
529.218	39162.79
529.419	39392.17
529.62	39238.57
529.822	39136.17
530.023	39680.93
530.224	39500.71
530.425	39533.48
530.626	39123.88
530.828	39156.65
531.029	40586.13
531.23	39525.28
531.431	40010.65
531.632	40002.46
531.833	39838.62
532.035	39578.53
532.236	40068
532.437	40104.86
532.638	40012.7
532.839	39979.93
533.04	40434.58
533.241	39728.03
533.442	40657.81
533.643	40272.79
533.844	40205.21
534.045	40145.82
534.246	39551.91
534.447	40623
534.648	40446.87
534.849	40342.42
535.05	39977.89
535.251	39781.28
535.451	40231.83
535.652	40393.62
535.853	40502.17
536.054	40268.7
536.255	40299.42
536.456	40104.86
536.657	40377.24
536.857	40055.71
537.058	40078.24
537.259	40633.24
537.46	40473.49
537.66	40340.38
537.861	40485.78
538.062	40203.16
538.263	40276.89
538.463	40418.2
538.664	40416.15
538.865	40319.9
539.065	40623
539.266	39818.14
539.466	40459.16
539.667	39848.86
539.868	40557.46
540.068	40080.28
540.269	40231.83
540.469	40258.46
540.67	39738.27
540.87	40260.51
541.071	40029.09
541.271	40158.11
541.472	40565.65
541.672	39916.45
541.873	40055.71
542.073	39574.44
542.274	40463.25
542.474	40166.3
542.675	39873.44
542.875	40369.05
543.075	40072.09
543.276	39658.4
543.476	40393.62
543.676	39787.42
543.877	40215.45
544.077	39799.71
544.277	39902.11
544.478	39900.06
544.678	39840.67
544.878	39652.26
545.078	39742.37
545.279	39928.73
545.479	39943.07
545.679	40061.85
545.879	39887.78
546.079	39689.12
546.28	39611.3
546.48	39553.96
546.68	39785.38
546.88	39916.45
547.08	39918.49
547.28	39586.72
547.48	39521.19
547.68	39676.83
547.88	39263.14
548.081	39646.12
548.281	39465.89
548.481	39822.24
548.681	40135.58
548.881	39744.42
549.081	39228.33
549.28	39588.77
549.48	39875.49
549.68	39678.88
549.88	39869.34
550.08	39277.48
550.28	39306.15
550.48	39570.34
550.68	39607.2
550.88	39551.91
551.08	39318.44
551.279	39181.23
551.479	39396.26
551.679	39388.07
551.879	39394.21
552.079	39580.58
552.278	39353.26
552.478	39537.57
552.678	39150.51
552.878	39844.77
553.077	39068.59
553.277	38759.34
553.477	39406.5
553.676	39050.16
553.876	39412.65
554.076	38876.08
554.275	38841.26
554.475	38691.76
554.674	38867.89
554.874	39164.84
555.074	38812.59
555.273	38841.26
555.473	38949.81
555.672	38620.08
555.872	38919.09
556.071	38878.13
556.271	39242.67
556.47	38857.65
556.67	38359.99
556.869	38529.97
557.068	38765.49
557.268	38144.95
557.467	38368.18
557.667	38638.51
557.866	38489.01
558.065	38558.64
558.265	38497.2
558.464	38335.42
558.663	39044.01
558.863	37964.73
559.062	38493.11
559.261	38093.75
559.461	38626.23
559.66	37919.68
559.859	37983.16
560.058	37610.43
560.258	37678.02
560.457	37837.76
560.656	38136.76
560.855	37667.78
561.054	38003.64
561.253	37411.78
561.453	37581.76
561.652	38058.94
561.851	37336.01
562.05	37518.28
562.249	37045.19
562.448	37559.23
562.647	37768.13
562.846	37293
563.045	37034.95
563.244	37342.15
563.443	37530.56
563.642	37026.76
563.841	37272.52
564.04	36879.31
564.239	37147.59
564.438	36854.73
564.637	36924.36
564.836	37018.57
565.035	36676.56
565.234	36932.56
565.432	36731.86
565.631	36266.97
565.83	36553.68
566.029	36455.38
566.228	36101.08
566.427	36207.58
566.625	36240.34
566.824	35754.97
567.023	36447.19
567.222	35521.51
567.42	36096.99
567.619	35615.71
567.818	35775.45
568.016	35795.93
568.215	35965.92
568.414	35378.15
568.612	35746.78
568.811	35265.51
569.01	35595.23
569.208	34749.42
569.407	35281.89
569.605	34890.73
569.804	35132.39
570.002	34622.45
570.201	34921.45
570.4	34862.06
570.598	34812.91
570.797	34710.51
570.995	34835.44
571.193	34604.02
571.392	34943.98
571.59	33991.67
571.789	34612.21
571.987	34665.46
572.186	34079.74
572.384	33813.5
572.582	34145.27
572.781	34388.98
572.979	33815.55
573.177	33895.42
573.376	33821.69
573.574	33743.87
573.772	34194.42
573.971	33465.35
574.169	33430.53
574.367	33188.87
574.565	33502.21
574.763	33469.44
574.962	33428.48
575.16	32883.72
575.358	33045.51
575.556	32633.87
575.754	33068.04
575.952	32437.27
576.151	33104.9
576.349	32570.38
576.547	32660.49
576.745	32584.72
576.943	32449.55
577.141	32631.82
577.339	32287.76
577.537	32005.14
577.735	32338.96
577.933	32035.86
578.131	32056.34
578.329	32074.77
578.527	31894.55
578.725	31712.28
578.923	31464.48
579.121	31704.09
579.319	31480.86
579.516	31851.55
579.714	31497.25
579.912	31372.32
580.11	30919.72
580.308	31458.34
580.506	31415.33
580.704	30645.29
580.901	31118.37
581.099	31009.83
581.297	30936.1
581.495	30766.12
581.692	30788.65
581.89	30460.98
582.088	30977.06
582.285	30506.03
582.483	30252.08
582.681	30514.22
582.878	30106.68
583.076	30055.48
583.274	30090.29
583.471	29811.77
583.669	30067.77
583.866	29666.36
584.064	29875.26
584.262	29557.82
584.459	30000.18
584.657	29518.91
584.854	29897.78
585.052	29148.23
585.249	29307.97
585.447	29221.95
585.644	29275.2
585.841	29195.33
586.039	29459.52
586.236	29107.27
586.434	28906.57
586.631	28660.81
586.828	29140.04
587.026	28568.65
587.223	28748.87
587.42	28763.21
587.618	28460.11
587.815	28370
588.012	28445.77
588.21	28171.35
588.407	28628.04
588.604	28234.83
588.801	27761.75
588.999	27958.36
589.196	28062.8
589.393	27980.89
589.59	27886.68
589.787	27642.97
589.984	27690.07
590.182	27241.57
590.379	27311.2
590.576	27405.41
590.773	27583.58
590.97	27124.83
591.167	27225.18
591.364	27075.68
591.561	26754.15
591.758	26838.12
591.955	26625.13
592.152	26993.76
592.349	26174.58
592.546	26522.73
592.743	26422.38
592.94	25851
593.137	26227.82
593.334	26465.39
593.531	26150
593.727	26037.36
593.924	26043.51
594.121	25760.89
594.318	25896.05
594.515	25756.79
594.712	26002.55
594.908	25881.72
595.105	25412.73
595.302	25420.92
595.499	25625.72
595.696	25398.4
595.892	25015.43
596.089	25173.12
596.286	25261.18
596.482	25085.06
596.679	25136.26
596.876	25158.78
597.072	24736.9
597.269	24859.78
597.466	24685.7
597.662	24728.71
597.859	24423.56
598.055	24272.01
598.252	24358.03
598.448	24491.15
598.645	24718.47
598.841	24169.62
599.038	24155.28
599.234	24284.3
599.431	23628.95
599.627	23895.19
599.824	23887
600.02	23663.77
600.217	23706.77
600.413	23671.96
600.609	24016.02
600.806	23393.44
601.002	23592.09
601.198	23551.13
601.395	23465.11
601.591	23293.08
601.787	23229.6
601.984	23078.05
602.18	23200.93
602.376	22805.67
602.572	22969.51
602.769	22752.42
602.965	22922.4
603.161	22650.02
603.357	22686.89
603.553	22420.65
603.75	22752.42
603.946	22217.9
604.142	22607.02
604.338	22240.43
604.534	22344.88
604.73	22240.43
604.926	21990.58
605.122	22060.21
605.318	22150.32
605.514	22039.73
605.71	21679.29
605.906	21720.24
606.102	22021.3
606.298	21882.03
606.494	21730.48
606.69	21867.7
606.886	21595.32
607.082	21419.19
607.278	21351.61
607.474	21200.06
607.67	21408.95
607.866	21103.81
608.062	21337.27
608.257	21255.36
608.453	21216.44
608.649	21238.97
608.845	20698.31
609.041	20972.74
609.236	20806.85
609.432	20593.86
609.628	20894.91
609.824	21050.56
610.019	20853.95
610.215	20602.05
610.411	20618.44
610.606	20657.35
610.802	20634.82
610.998	20511.94
611.193	20667.59
611.389	20370.63
611.584	20153.55
611.78	20331.72
611.976	20499.66
612.171	20368.59
612.367	20194.51
612.562	20296.91
612.758	20004.05
612.953	20298.95
613.149	20253.9
613.344	19905.74
613.539	20298.95
613.735	20282.57
613.93	20036.81
614.126	20108.49
614.321	19948.75
614.517	20065.49
614.712	19518.68
614.907	19926.22
615.103	19768.53
615.298	19705.04
615.493	20004.05
615.688	19375.32
615.884	19922.13
616.079	19588.31
616.274	19606.74
616.47	19387.61
616.665	19289.31
616.86	19338.46
617.055	19104.99
617.25	19125.47
617.445	19459.29
617.641	19248.35
617.836	19186.91
618.031	19180.76
618.226	19084.51
618.421	18826.46
618.616	19129.56
618.811	18629.86
619.006	18951.39
619.201	18535.65
619.396	18930.91
619.591	18296.04
619.786	18625.76
619.981	18099.44
620.176	18310.38
620.371	18130.16
620.566	18164.97
620.761	18124.01
620.956	18353.38
621.151	18013.42
621.346	18040.04
621.541	17532.15
621.735	17888.5
621.93	17726.71
622.125	17403.13
622.32	17560.82
622.515	17429.75
622.709	17569.01
622.904	17149.18
623.099	17192.19
623.294	16950.53
623.488	16946.43
623.683	17183.99
623.878	16821.5
624.072	16520.45
624.267	16631.04
624.462	16620.8
624.656	16549.12
624.851	16518.4
625.046	16065.8
625.24	16264.46
625.435	15918.35
625.629	16203.02
625.824	15977.74
626.018	15846.67
626.213	15578.39
626.407	15596.82
626.602	15500.56
626.796	15545.62
626.991	15523.09
627.185	15138.07
627.38	15275.29
627.574	15215.9
627.768	14994.72
627.963	14947.61
628.157	14810.4
628.352	15084.83
628.546	14636.32
628.74	14691.62
628.935	14736.67
629.129	14605.6
629.323	14325.03
629.517	14112.04
629.712	14157.1
629.906	14249.25
630.1	14073.13
630.294	14085.42
630.489	13827.37
630.683	13985.07
630.877	13876.52
631.071	13862.19
631.265	13665.58
631.459	13645.1
631.653	13657.39
631.848	13522.23
632.042	13452.59
632.236	13516.08
632.43	13305.14
632.624	13329.72
632.818	13264.18
633.012	13124.92
633.206	13114.68
633.4	12961.08
633.594	13036.86
633.788	12946.75
633.982	12911.93
634.176	12879.16
634.369	12578.11
634.563	12438.85
634.757	12561.73
634.951	12588.35
635.145	12363.08
635.339	12514.63
635.533	12100.94
635.726	12365.12
635.92	11912.52
636.114	12133.7
636.308	12105.03
636.501	11906.38
636.695	11949.39
636.889	11840.84
637.083	11705.68
637.276	11703.63
637.47	11605.33
637.664	11658.57
637.857	11644.24
638.051	11373.91
638.244	11259.22
638.438	11195.73
638.632	11461.97
638.825	11001.18
639.019	11208.02
639.212	10642.78
639.406	11234.64
639.599	11068.76
639.793	10896.73
639.986	10677.6
640.18	10859.87
640.373	10741.08
640.567	10528.1
640.76	10634.59
640.954	10712.41
641.147	10644.83
641.34	10339.68
641.534	10546.53
641.727	10347.87
641.92	10454.37
642.114	10147.17
642.307	10487.14
642.5	10376.55
642.694	9987.43
642.887	9954.66
643.08	9819.5
643.273	9997.67
643.467	9829.74
643.66	9749.87
643.853	9690.48
644.046	9577.84
644.239	9708.91
644.432	9713
644.626	9573.74
644.819	9366.9
645.012	9452.91
645.205	9461.1
645.398	9422.19
645.591	9360.75
645.784	9315.7
645.977	9348.47
646.17	9080.18
646.363	9153.91
646.556	9045.37
646.749	8899.96
646.942	9004.41
647.135	8914.3
647.328	9053.56
647.521	8832.38
647.714	8719.74
647.907	8830.33
648.099	8842.62
648.292	8842.62
648.485	8594.81
648.678	8375.68
648.871	8377.73
649.064	8422.78
649.256	8590.72
649.449	8394.11
649.642	8334.72
649.835	8273.28
650.027	8121.73
650.22	8250.75
650.413	8203.65
650.605	8295.81
650.798	8019.33
650.991	8086.92
651.183	7998.85
651.376	7859.59
651.568	7802.25
651.761	7816.58
651.954	7787.91
652.146	7769.48
652.339	7521.68
652.531	7779.72
652.724	7677.32
652.916	7523.73
653.109	7409.04
653.301	7650.7
653.494	7562.64
653.686	7343.5
653.879	7654.8
654.071	7447.95
654.263	7187.86
654.456	7222.67
654.648	7390.61
654.84	7200.15
655.033	7122.32
655.225	7177.62
655.417	7013.78
655.61	7239.06
655.802	7116.18
655.994	6897.05
656.186	7144.85
656.379	6909.33
656.571	6917.53
656.763	6794.65
656.955	6747.55
657.148	6823.32
657.34	6559.13
657.532	6655.39
657.724	6639
657.916	6725.02
658.108	6428.06
658.3	6704.54
658.492	6573.47
658.684	6598.04
658.876	6542.75
659.068	6415.77
659.26	6571.42
659.452	6253.98
659.644	6391.2
659.836	6446.49
660.028	6432.16
660.22	6086.05
660.412	6256.03
660.604	6235.55
660.796	6299.04
660.988	5844.39
661.18	6122.91
661.372	5875.11
661.563	6073.76
661.755	5942.69
661.947	5932.45
662.139	5901.73
662.331	5901.73
662.522	5893.54
662.714	5942.69
662.906	5719.46
663.097	5561.77
663.289	5696.94
663.481	5795.24
663.673	5600.68
663.864	5637.55
664.056	5567.92
664.247	5533.1
664.439	5473.71
664.631	5483.95
664.822	5547.44
665.014	5440.94
665.205	5303.73
665.397	5426.61
665.588	5483.95
665.78	5244.34
665.971	5395.89
666.163	5277.1
666.354	5197.23
666.546	5074.35
666.737	5248.43
666.929	5113.27
667.12	5103.03
667.311	5227.95
667.503	5137.84
667.694	4945.33
667.885	5045.68
668.077	4922.8
668.268	5019.06
668.459	4881.85
668.651	4945.33
668.842	4791.73
669.033	4797.88
669.224	4887.99
669.416	4812.21
669.607	4752.82
669.798	4834.74
669.989	4638.14
670.18	4736.44
670.371	4744.63
670.563	4638.14
670.754	4664.76
670.945	4558.27
671.136	4609.47
671.327	4658.62
671.518	4509.12
671.709	4631.99
671.9	4564.41
672.091	4566.46
672.282	4427.2
672.473	4380.09
672.664	4320.7
672.855	4402.62
673.046	4568.51
673.237	4462.01
673.428	4359.61
673.619	4292.03
673.809	4347.33
674	4269.5
674.191	4265.41
674.382	4244.93
674.573	4312.51
674.764	4376
674.954	4302.27
675.145	4177.34
675.336	4228.54
675.527	4052.42
675.717	4189.63
675.908	4109.76
676.099	4206.02
676.289	4142.53
676.48	4007.36
676.671	4015.55
676.861	4113.86
677.052	3941.83
677.243	3982.79
677.433	4017.6
677.624	4081.09
677.814	3972.55
678.005	3925.44
678.195	3859.91
678.386	3933.64
678.576	3712.46
678.767	3874.24
678.957	3933.64
679.148	3841.48
679.338	3728.84
679.529	3870.15
679.719	3640.78
679.909	3788.23
680.1	3734.98
680.29	3861.96
680.481	3741.13
680.671	3769.8
680.861	3769.8
681.052	3829.19
681.242	3567.05
681.432	3665.35
681.622	3700.17
681.813	3739.08
682.003	3722.7
682.193	3550.67
682.383	3685.83
682.573	3548.62
682.764	3497.42
682.954	3509.71
683.144	3550.67
683.334	3610.06
683.524	3493.32
683.714	3540.43
683.904	3481.03
684.094	3493.32
684.284	3519.95
684.474	3493.32
684.664	3472.84
684.854	3470.8
685.044	3483.08
685.234	3452.36
685.424	3515.85
685.614	3499.47
685.804	3386.83
685.994	3294.67
686.184	3341.77
686.374	3349.96
686.564	3401.16
686.753	3415.5
686.943	3360.2
687.133	3212.75
687.323	3266
687.513	3323.34
687.702	3165.65
687.892	3206.61
688.082	3313.1
688.272	3339.73
688.461	3118.54
688.651	3200.46
688.841	3165.65
689.03	3112.4
689.22	3100.11
689.41	3139.02
689.599	3087.82
689.789	3089.87
689.979	3001.81
690.168	3053.01
690.358	3073.49
690.547	3114.45
690.737	3106.26
690.926	3038.67
691.116	2973.14
691.305	3044.82
691.495	2960.85
691.684	2905.56
691.874	2893.27
692.063	2946.52
692.252	3024.34
692.442	2966.99
692.631	2780.63
692.82	2913.75
693.01	2786.77
693.199	2868.69
693.388	2868.69
693.578	2778.58
693.767	2846.16
693.956	2868.69
694.146	2780.63
694.335	2856.4
694.524	2772.44
694.713	2811.35
694.902	2715.09
695.092	2659.8
695.281	2647.51
695.47	2704.85
695.659	2680.28
695.848	2657.75
696.037	2682.33
696.226	2694.61
696.415	2680.28
696.604	2602.46
696.793	2657.75
696.982	2584.02
697.171	2676.18
697.36	2729.43
697.549	2663.9
697.738	2651.61
697.927	2571.74
698.116	2655.7
698.305	2592.22
698.494	2545.11
698.683	2506.2
698.872	2557.4
699.061	2485.72
699.25	2622.94
699.438	2606.55
699.627	2455
699.816	2592.22
700.005	2586.07
700.193	2471.39
700.382	2459.1
700.571	2473.43
700.76	2510.3
700.948	2450.91
701.137	2436.57
701.326	2516.44
701.514	2444.76
701.703	2393.56
701.892	2426.33
702.08	2604.5
702.269	2426.33
702.457	2614.74
702.646	2385.37
702.834	2510.3
703.023	2332.12
703.212	2389.47
703.4	2368.99
703.589	2368.99
703.777	2428.38
703.965	2356.7
704.154	2282.97
704.342	2409.95
704.531	2264.54
704.719	2409.95
704.907	2371.04
705.096	2321.88
705.284	2385.37
705.472	2387.42
705.661	2368.99
705.849	2434.52
706.037	2428.38
706.226	2250.21
706.414	2346.46
706.602	2209.25
706.79	2321.88
706.979	2340.32
707.167	2303.45
707.355	2237.92
707.543	2338.27
707.731	2401.76
707.919	2303.45
708.107	2264.54
708.296	2246.11
708.484	2315.74
708.672	2274.78
708.86	2321.88
709.048	2231.77
709.236	2196.96
709.424	2311.64
709.612	2368.99
709.8	2203.1
709.988	2307.55
710.176	2196.96
710.364	2360.8
710.551	2246.11
710.739	2371.04
710.927	2317.79
711.115	2270.69
711.303	2196.96
711.491	2201.05
711.679	2340.32
711.866	2287.07
712.054	2237.92
712.242	2196.96
712.43	2246.11
712.617	2309.6
712.805	2049.5
712.993	2270.69
713.181	2094.56
713.368	2311.64
713.556	2215.39
713.744	2192.86
713.931	2313.69
714.119	2174.43
714.306	2190.81
714.494	2258.4
714.682	2213.34
714.869	2158.05
715.057	2194.91
715.244	2135.52
715.432	2313.69
715.619	2270.69
715.807	2242.01
715.994	2231.77
716.182	2135.52
716.369	2160.1
716.556	2246.11
716.744	2184.67
716.931	2217.44
717.119	2313.69
717.306	2270.69
717.493	2254.3
717.681	2250.21
717.868	2174.43
718.055	2186.72
718.242	2297.31
718.43	2164.19
718.617	2264.54
718.804	2205.15
718.991	2256.35
719.179	2192.86
719.366	2149.86
719.553	2180.57
719.74	2153.95
719.927	2125.28
720.114	2141.66
720.301	2141.66
720.488	2213.34
720.676	2199.01
720.863	2231.77
721.05	2125.28
721.237	2170.33
721.424	2237.92
721.611	2143.71
721.798	2145.76
721.985	2156
722.172	2129.38
722.358	2098.66
722.545	2213.34
722.732	2217.44
722.919	2135.52
723.106	2256.35
723.293	2170.33
723.48	2248.16
723.667	2115.04
723.853	2139.62
724.04	2162.14
724.227	2278.88
724.414	2151.9
724.6	2049.5
724.787	2182.62
724.974	2164.19
725.161	2125.28
725.347	2115.04
725.534	2196.96
725.72	2102.75
725.907	2270.69
726.094	2246.11
726.28	2123.23
726.467	2131.42
726.653	2139.62
726.84	2053.6
727.027	2217.44
727.213	2063.84
727.4	2215.39
727.586	2125.28
727.773	2213.34
727.959	2078.18
728.145	2076.13
728.332	2065.89
728.518	2164.19
728.705	2272.73
728.891	2000.35
729.077	2156
729.264	2024.93
729.45	2008.55
729.636	2143.71
729.823	2078.18
730.009	2119.14
730.195	2225.63
730.382	2158.05
730.568	2139.62
730.754	2153.95
730.94	2131.42
731.126	2164.19
731.313	2156
731.499	2049.5
731.685	2139.62
731.871	2170.33
732.057	2108.9
732.243	2166.24
732.429	2125.28
732.615	2264.54
732.801	2094.56
732.987	2043.36
733.173	2098.66
733.359	2084.32
733.545	2035.17
733.731	2035.17
733.917	2199.01
734.103	1992.16
734.289	2123.23
734.475	1930.72
734.661	2225.63
734.847	2086.37
735.033	2205.15
735.219	2035.17
735.404	2000.35
735.59	2156
735.776	2106.85
735.962	2112.99
736.148	2221.53
736.333	2041.31
736.519	1971.68
736.705	2139.62
736.89	2004.45
737.076	1977.83
737.262	2053.6
737.447	2010.59
737.633	2035.17
737.819	2057.7
738.004	2035.17
738.19	2045.41
738.375	2209.25
738.561	2160.1
738.747	2012.64
738.932	1951.2
739.118	2061.79
739.303	2094.56
739.489	2078.18
739.674	1893.86
739.859	2031.07
740.045	2022.88
740.23	1904.1
740.416	1893.86
740.601	1977.83
740.786	1951.2
740.972	2043.36
741.157	1887.72
741.342	1918.43
741.528	2008.55
741.713	1992.16
741.898	1789.41
742.084	2014.69
742.269	1881.57
742.454	1936.87
742.639	1969.63
742.824	1934.82
743.01	1906.15
743.195	2080.22
743.38	1762.79
743.565	1811.94
743.75	1873.38
743.935	1914.34
744.12	1893.86
744.305	1813.99
744.49	1871.33
744.675	1873.38
744.86	1752.55
745.045	1781.22
745.23	1805.8
745.415	1762.79
745.6	1820.13
745.785	1795.56
745.97	1828.32
746.155	1811.94
746.34	1857
746.525	1672.68
746.71	1799.65
746.895	1762.79
747.079	1623.53
747.264	1830.37
747.449	1775.08
747.634	1701.35
747.819	1773.03
748.003	1672.68
748.188	1615.34
748.373	1644.01
748.557	1658.34
748.742	1590.76
748.927	1746.41
749.111	1615.34
749.296	1551.85
749.481	1746.41
749.665	1644.01
749.85	1607.14
750.034	1570.28
750.219	1576.42
750.404	1603.05
750.588	1641.96
750.773	1410.54
750.957	1562.09
751.141	1447.4
751.326	1576.42
751.51	1508.84
751.695	1535.46
751.879	1557.99
752.064	1562.09
752.248	1486.31
752.432	1545.7
752.617	1504.75
752.801	1512.94
752.985	1439.21
753.17	1418.73
753.354	1373.68
753.538	1435.11
753.722	1449.45
753.907	1385.96
754.091	1299.95
754.275	1404.39
754.459	1287.66
754.643	1330.67
754.828	1330.67
755.012	1449.45
755.196	1314.28
755.38	1349.1
755.564	1215.98
755.748	1267.18
755.932	1283.56
756.116	1310.19
756.3	1342.96
756.484	1332.72
756.668	1197.55
756.852	1168.88
757.036	1299.95
757.22	1205.74
757.404	1156.59
757.588	1238.51
757.772	1148.4
757.956	1281.52
758.14	1287.66
758.323	1107.44
758.507	1136.11
758.691	1103.34
758.875	1234.41
759.059	1156.59
759.242	1224.17
759.426	1107.44
759.61	1132.01
759.794	1148.4
759.977	1140.21
760.161	1254.89
760.345	1119.73
760.528	1084.91
760.712	1058.29
760.895	1166.83
761.079	1091.06
761.263	1019.38
761.446	1105.39
761.63	980.47
761.813	1117.68
761.997	968.18
762.18	968.18
762.364	1025.52
762.547	1000.94
762.731	1050.1
762.914	1095.15
763.098	1107.44
763.281	1027.57
763.464	931.31
763.648	888.31
763.831	992.75
764.015	978.42
764.198	1041.9
764.381	984.56
764.564	945.65
764.748	972.27
764.931	968.18
765.114	1029.62
765.297	1019.38
765.481	878.07
765.664	1070.58
765.847	902.64
766.03	955.89
766.213	931.31
766.397	959.99
766.58	878.07
766.763	1033.71
766.946	972.27
767.129	984.56
767.312	939.51
767.495	978.42
767.678	900.59
767.861	912.88
768.044	919.03
768.227	931.31
768.41	992.75
768.593	886.26
768.776	937.46
768.959	865.78
769.142	970.23
769.324	787.96
769.507	929.27
769.69	912.88
769.873	835.06
770.056	927.22
770.239	886.26
770.421	802.29
770.604	853.49
770.787	826.87
770.97	888.31
771.152	814.58
771.335	894.45
771.518	820.72
771.7	886.26
771.883	847.35
772.066	790
772.248	845.3
772.431	837.11
772.613	894.45
772.796	871.92
772.978	845.3
773.161	849.4
773.343	839.16
773.526	779.76
773.708	763.38
773.891	779.76
774.073	763.38
774.256	722.42
774.438	765.43
774.621	779.76
774.803	722.42
774.985	716.28
775.168	806.39
775.35	708.09
775.532	640.5
775.715	679.41
775.897	763.38
776.079	685.56
776.261	796.15
776.444	736.76
776.626	706.04
776.808	763.38
776.99	691.7
777.173	628.21
777.355	708.09
777.537	599.54
777.719	691.7
777.901	695.8
778.083	636.41
778.265	628.21
778.447	765.43
778.629	673.27
778.811	591.35
778.993	667.13
779.175	609.78
779.357	591.35
779.539	626.17
779.721	601.59
779.903	589.3
780.085	669.17
780.267	689.65
780.449	554.49
780.631	640.5
780.812	624.12
780.994	611.83
781.176	648.69
781.358	550.39
781.54	607.73
781.721	544.25
781.903	624.12
782.085	517.62
782.267	599.54
782.448	544.25
782.63	431.61
782.812	615.93
782.993	556.54
783.175	597.49
783.357	493.05
783.538	556.54
783.72	525.82
783.901	472.57
784.083	554.49
784.264	513.53
784.446	495.1
784.627	423.42
784.809	497.14
784.99	476.66
785.172	558.58
785.353	486.9
785.535	517.62
785.716	441.85
785.897	468.47
786.079	423.42
786.26	421.37
786.441	464.38
786.623	499.19
786.804	519.67
786.985	398.84
787.167	435.71
787.348	380.41
787.529	456.19
787.71	437.75
787.891	474.62
788.073	419.32
788.254	345.59
788.435	415.23
788.616	394.75
788.797	423.42
788.978	368.12
789.159	353.79
789.34	400.89
789.522	349.69
789.703	345.59
789.884	404.99
790.065	386.55
790.246	402.94
790.427	419.32
790.607	427.51
790.788	427.51
790.969	329.21
791.15	402.94
791.331	437.75
791.512	304.64
791.693	288.25
791.874	296.44
792.054	353.79
792.235	353.79
792.416	208.38
792.597	370.17
792.778	402.94
792.958	372.22
793.139	404.99
793.32	357.88
793.5	267.77
793.681	402.94
793.862	325.12
794.042	267.77
794.223	251.39
794.404	386.55
794.584	308.73
794.765	290.3
794.945	382.46
795.126	304.64
795.306	343.55
795.487	251.39
795.667	173.57
795.848	306.68
796.028	280.06
796.209	292.35
796.389	296.44
796.57	259.58
796.75	228.86
796.93	329.21
797.111	230.91
797.291	280.06
797.471	304.64
797.652	353.79
797.832	257.53
798.012	312.83
798.192	122.37
798.373	167.42
798.553	261.63
798.733	306.68
798.913	241.15
799.093	296.44
799.274	275.96
799.454	331.26
799.634	230.91
799.814	314.88
799.994	239.1
800.174	257.53
800.354	206.33
800.534	208.38
800.714	325.12
800.894	239.1
801.074	169.47
801.254	216.57
801.434	296.44
801.614	257.53
801.794	148.99
801.974	882.16
802.154	214.52
802.334	267.77
802.514	226.81
802.693	148.99
802.873	192
803.053	271.87
803.233	306.68
803.413	181.76
803.592	214.52
803.772	173.57
803.952	171.52
804.131	157.18
804.311	189.95
804.491	235
804.67	216.57
804.85	290.3
805.03	300.54
805.209	251.39
805.389	267.77
805.568	214.52
805.748	122.37
805.928	216.57
806.107	144.89
806.287	243.2
806.466	235
806.646	226.81
806.825	177.66
807.004	173.57
807.184	226.81
807.363	222.72
807.543	220.67
807.722	181.76
807.901	214.52
808.081	157.18
808.26	214.52
808.439	212.48
808.619	165.37
808.798	222.72
808.977	189.95
809.156	173.57
809.336	134.65
809.515	259.58
809.694	165.37
809.873	187.9
810.052	148.99
810.231	210.43
810.411	140.8
810.59	169.47
810.769	112.13
810.948	192
811.127	79.36
811.306	224.76
811.485	134.65
811.664	200.19
811.843	232.96
812.022	136.7
812.201	89.6
812.38	175.61
812.559	169.47
812.737	173.57
812.916	126.46
813.095	151.04
813.274	192
813.453	144.89
813.632	202.24
813.811	183.81
813.989	214.52
814.168	200.19
814.347	144.89
814.526	163.33
814.704	157.18
814.883	222.72
815.062	177.66
815.24	230.91
815.419	97.79
815.598	157.18
815.776	48.64
815.955	60.93
816.133	50.69
816.312	159.23
816.49	108.03
816.669	189.95
816.847	179.71
817.026	239.1
817.204	99.84
817.383	130.56
817.561	105.98
817.74	148.99
817.918	167.42
818.097	148.99
818.275	148.99
818.453	159.23
818.632	50.69
818.81	142.85
818.988	108.03
819.167	77.31
819.345	202.24
819.523	101.89
819.701	101.89
819.879	95.74
820.058	124.41
820.236	136.7
820.414	169.47
820.592	93.69
820.77	62.98
820.948	157.18
821.127	85.5
821.305	165.37
821.483	22.02
821.661	132.61
821.839	75.26
822.017	77.31
822.195	157.18
822.373	208.38
822.551	124.41
822.729	128.51
822.907	132.61
823.085	91.65
823.262	118.27
823.44	103.93
823.618	67.07
823.796	99.84
823.974	9.73
824.152	69.12
824.329	99.84
824.507	157.18
824.685	85.5
824.863	105.98
825.04	91.65
825.218	62.98
825.396	189.95
825.574	118.27
825.751	34.3
825.929	134.65
826.107	161.28
826.284	134.65
826.462	126.46
826.639	108.03
826.817	128.51
826.994	85.5
827.172	60.93
827.349	101.89
827.527	87.55
827.704	126.46
827.882	50.69
828.059	60.93
828.237	58.88
828.414	93.69
828.591	46.59
828.769	87.55
828.946	62.98
829.124	75.26
829.301	62.98
829.478	26.11
829.655	85.5
829.833	116.22
830.01	1.54
830.187	118.27
830.364	116.22
830.542	60.93
830.719	44.54
830.896	75.26
831.073	128.51
831.25	108.03
831.427	58.88
831.604	1.54
831.782	67.07
831.959	99.84
832.136	50.69
832.313	54.78
832.49	75.26
832.667	46.59
832.844	83.45
833.021	24.06
833.198	101.89
833.374	67.07
833.551	62.98
833.728	62.98
833.905	148.99
834.082	-12.8
834.259	138.75
834.436	116.22
834.612	58.88
834.789	128.51
834.966	52.74
835.143	62.98
835.319	65.02
835.496	142.85
835.673	75.26
835.85	77.31
836.026	77.31
836.203	110.08
836.38	75.26
836.556	181.76
836.733	19.97
836.909	36.35
837.086	22.02
837.262	75.26
837.439	-6.66
837.616	124.41
837.792	7.68
837.968	28.16
838.145	38.4
838.321	19.97
838.498	87.55
838.674	67.07
838.851	54.78
839.027	65.02
839.203	89.6
839.38	116.22
839.556	58.88
839.732	91.65
839.909	101.89
840.085	58.88
840.261	77.31
840.437	13.82
840.614	28.16
840.79	144.89
840.966	46.59
841.142	103.93
841.318	26.11
841.494	108.03
841.671	77.31
841.847	79.36
842.023	108.03
842.199	42.5
842.375	151.04
842.551	1.54
842.727	-4.61
842.903	198.14
843.079	28.16
843.255	60.93
843.431	69.12
843.607	120.32
843.783	36.35
843.959	67.07
844.134	87.55
844.31	85.5
844.486	42.5
844.662	34.3
844.838	99.84
845.013	89.6
845.189	99.84
845.365	3.58
845.541	54.78
845.716	-55.81
845.892	28.16
846.068	58.88
846.244	22.02
846.419	58.88
846.595	69.12
846.77	83.45
846.946	67.07
847.122	79.36
847.297	-16.9
847.473	140.8
847.648	-23.04
847.824	42.5
847.999	11.78
848.175	67.07
848.35	34.3
848.526	46.59
848.701	36.35
848.876	36.35
849.052	9.73
849.227	1.54
849.403	67.07
849.578	-33.28
849.753	-12.8
849.929	77.31
850.104	5.63
850.279	58.88
850.454	19.97
850.63	54.78
850.805	79.36
850.98	26.11
851.155	-10.75
851.33	54.78
851.505	34.3
851.681	83.45
851.856	-59.9
852.031	46.59
852.206	-6.66
852.381	36.35
852.556	26.11
852.731	17.92
852.906	101.89
853.081	24.06
853.256	60.93
853.431	-31.23
853.606	19.97
853.781	54.78
853.956	11.78
854.131	9.73
854.305	11.78
854.48	-23.04
854.655	-39.42
854.83	40.45
855.005	40.45
855.18	-20.99
855.354	15.87
855.529	28.16
855.704	3.58
855.879	87.55
856.053	24.06
856.228	-6.66
856.403	91.65
856.577	108.03
856.752	9.73
856.926	3.58
857.101	62.98
857.276	-10.75
857.45	62.98
857.625	34.3
857.799	9.73
857.974	69.12
858.148	-23.04
858.323	60.93
858.497	-37.38
858.672	34.3
858.846	-2.56
859.02	52.74
859.195	26.11
859.369	1.54
859.543	69.12
859.718	9.73
859.892	48.64
860.066	17.92
860.241	40.45
860.415	-64
860.589	22.02
860.763	-23.04
860.938	24.06
861.112	93.69
861.286	-14.85
861.46	65.02
861.634	1.54
861.808	91.65
861.982	36.35
862.157	-76.29
862.331	-6.66
862.505	13.82
862.679	38.4
862.853	-55.81
863.027	-10.75
863.201	112.13
863.375	-35.33
863.549	-10.75
863.722	65.02
863.896	26.11
864.07	50.69
864.244	99.84
864.418	13.82
864.592	-76.29
864.766	-18.94
864.939	7.68
865.113	19.97
865.287	17.92
865.461	17.92
865.634	3.58
865.808	62.98
865.982	9.73
866.156	-23.04
866.329	-55.81
866.503	91.65
866.676	101.89
866.85	44.54
867.024	46.59
867.197	67.07
867.371	34.3
867.544	3.58
867.718	-39.42
867.891	17.92
868.065	62.98
868.238	-31.23
868.412	11.78
868.585	60.93
868.759	19.97
868.932	50.69
869.105	-27.14
869.279	-2.56
869.452	-78.33
869.625	134.65
869.799	-45.57
869.972	22.02
870.145	30.21
870.319	9.73
870.492	58.88
870.665	-2.56
870.838	67.07
871.011	26.11
871.185	-23.04
871.358	52.74
871.531	9.73
871.704	-37.38
871.877	34.3
872.05	-6.66
872.223	-23.04
872.396	30.21
872.569	9.73
872.742	-47.62
872.915	108.03
873.088	67.07
873.261	50.69
873.434	58.88
873.607	34.3
873.78	-27.14
873.953	28.16
874.126	-4.61
874.299	42.5
874.471	-14.85
874.644	19.97
874.817	34.3
874.99	50.69
875.163	-14.85
875.335	22.02
875.508	9.73
875.681	52.74
875.853	22.02
876.026	46.59
876.199	62.98
876.371	77.31
876.544	-16.9
876.717	77.31
876.889	42.5
877.062	17.92
877.234	1.54
877.407	11.78
877.579	-39.42
877.752	-14.85
877.924	44.54
878.097	79.36
878.269	34.3
878.442	-10.75
878.614	32.26
878.786	-47.62
878.959	-55.81
879.131	17.92
879.303	-23.04
879.476	62.98
879.648	11.78
879.82	34.3
879.993	-53.76
880.165	28.16
880.337	-10.75
880.509	3.58
880.681	-14.85
880.854	58.88
881.026	5.63
881.198	3.58
881.37	28.16
881.542	-29.18
881.714	-2.56
881.886	56.83
882.058	56.83
882.23	67.07
882.402	9.73
882.574	75.26
882.746	32.26
882.918	-31.23
883.09	24.06
883.262	58.88
883.434	28.16
883.606	17.92
883.778	-12.8
883.95	69.12
884.122	-6.66
884.293	3.58
884.465	-57.86
884.637	36.35
884.809	-10.75
884.98	-6.66
885.152	44.54
885.324	112.13
885.496	-68.09
885.667	1.54
885.839	-10.75
886.011	99.84
886.182	22.02
886.354	-59.9
886.525	44.54
886.697	3.58
886.869	-20.99
887.04	-55.81
887.212	67.07
887.383	75.26
887.555	-20.99
887.726	-23.04
887.897	1.54
888.069	26.11
888.24	15.87
888.412	83.45
888.583	-12.8
888.754	58.88
888.926	-10.75
889.097	-74.24
889.268	9.73
889.44	77.31
889.611	-61.95
889.782	-18.94
889.953	1.54
890.125	60.93
890.296	9.73
890.467	58.88
890.638	-12.8
890.809	95.74
890.98	-4.61
891.151	50.69
891.323	30.21
891.494	36.35
891.665	91.65
891.836	52.74
892.007	-20.99
892.178	65.02
892.349	-0.51
892.52	9.73
892.691	26.11
892.862	-45.57
893.032	-31.23
893.203	-51.71
893.374	26.11
893.545	52.74
893.716	17.92
893.887	52.74
894.057	-6.66
894.228	30.21
894.399	-25.09
894.57	83.45
894.74	17.92
894.911	101.89
895.082	-6.66
895.253	-45.57
895.423	-72.19
895.594	30.21
895.764	52.74
895.935	-94.72
896.106	-8.7
896.276	26.11
896.447	32.26
896.617	-12.8
896.788	-72.19
896.958	-45.57
897.129	77.31
897.299	-16.9
897.47	58.88
897.64	52.74
897.81	-37.38
897.981	-12.8
898.151	-12.8
898.322	11.78
898.492	-10.75
898.662	-2.56
898.832	-64
899.003	-35.33
899.173	38.4
899.343	1.54
899.513	-35.33
