Data from USB4F104151__109__14-43-48-951.txt Node

Date: Thu Mar 13 14:43:48 EDT 2025
User: louis
Spectrometer: USB4F10415
Trigger mode: 4
Integration Time (sec): 2.000000E-2
Scans to average: 1
Electric dark correction enabled: true
Nonlinearity correction enabled: false
Boxcar width: 0
XAxis mode: Wavelengths
Number of Pixels in Spectrum: 3648
>>>>>Begin Spectral Data<<<<<
178.204	-78.85
178.424	-78.85
178.644	-78.85
178.864	-91.13
179.084	-156.67
179.304	9.22
179.524	52.22
179.744	-33.79
179.964	9.22
180.184	21.5
180.404	44.03
180.624	19.46
180.844	3.07
181.064	-66.56
181.283	-76.8
181.503	-46.08
181.723	64.51
181.943	-41.98
182.163	41.98
182.383	-3.07
182.602	52.22
182.822	-25.6
183.042	60.42
183.262	-70.65
183.482	29.7
183.701	-37.89
183.921	52.22
184.141	-1.02
184.361	82.94
184.58	27.65
184.8	19.46
185.02	-29.7
185.239	29.7
185.459	3.07
185.679	27.65
185.898	9.22
186.118	23.55
186.338	21.5
186.557	-1.02
186.777	29.7
186.997	5.12
187.216	-78.85
187.436	72.7
187.655	19.46
187.875	68.61
188.095	-5.12
188.314	68.61
188.534	101.37
188.753	27.65
188.973	-9.22
189.192	84.99
189.412	46.08
189.631	58.37
189.851	9.22
190.07	44.03
190.29	-50.18
190.509	-27.65
190.729	-3.07
190.948	56.32
191.168	80.89
191.387	-13.31
191.607	-31.74
191.826	56.32
192.045	-11.26
192.265	21.5
192.484	11.26
192.704	-13.31
192.923	-21.5
193.142	109.57
193.362	27.65
193.581	41.98
193.8	39.94
194.02	80.89
194.239	-31.74
194.458	-27.65
194.678	-1.02
194.897	78.85
195.116	37.89
195.335	-21.5
195.555	74.75
195.774	19.46
195.993	56.32
196.212	19.46
196.432	-60.42
196.651	25.6
196.87	-29.7
197.089	76.8
197.308	-5.12
197.528	19.46
197.747	3.07
197.966	-1.02
198.185	27.65
198.404	-3.07
198.623	64.51
198.842	46.08
199.062	-33.79
199.281	50.18
199.5	31.74
199.719	84.99
199.938	37.89
200.157	111.61
200.376	54.27
200.595	-35.84
200.814	-44.03
201.033	23.55
201.252	7.17
201.471	70.65
201.69	60.42
201.909	29.7
202.128	84.99
202.347	21.5
202.566	15.36
202.785	-13.31
203.004	7.17
203.223	60.42
203.442	9.22
203.661	-13.31
203.879	84.99
204.098	9.22
204.317	39.94
204.536	46.08
204.755	11.26
204.974	44.03
205.193	35.84
205.411	99.33
205.63	84.99
205.849	-21.5
206.068	-19.46
206.287	60.42
206.505	41.98
206.724	7.17
206.943	35.84
207.162	-37.89
207.381	-54.27
207.599	11.26
207.818	64.51
208.037	3.07
208.255	41.98
208.474	11.26
208.693	52.22
208.911	13.31
209.13	52.22
209.349	5.12
209.567	-17.41
209.786	27.65
210.005	13.31
210.223	93.18
210.442	-29.7
210.661	15.36
210.879	48.13
211.098	15.36
211.316	15.36
211.535	48.13
211.753	-41.98
211.972	97.28
212.191	-9.22
212.409	15.36
212.628	15.36
212.846	-3.07
213.065	7.17
213.283	64.51
213.502	-17.41
213.72	5.12
213.938	37.89
214.157	33.79
214.375	21.5
214.594	78.85
214.812	125.95
215.031	52.22
215.249	48.13
215.467	-21.5
215.686	-19.46
215.904	97.28
216.122	52.22
216.341	-9.22
216.559	103.42
216.778	70.65
216.996	44.03
217.214	-64.51
217.432	35.84
217.651	66.56
217.869	37.89
218.087	103.42
218.306	-27.65
218.524	29.7
218.742	-29.7
218.96	68.61
219.179	21.5
219.397	9.22
219.615	44.03
219.833	64.51
220.051	64.51
220.27	60.42
220.488	23.55
220.706	29.7
220.924	-25.6
221.142	19.46
221.36	11.26
221.578	23.55
221.796	-19.46
222.015	60.42
222.233	37.89
222.451	144.38
222.669	-41.98
222.887	74.75
223.105	46.08
223.323	46.08
223.541	27.65
223.759	21.5
223.977	37.89
224.195	62.46
224.413	19.46
224.631	35.84
224.849	29.7
225.067	46.08
225.285	-62.46
225.503	31.74
225.721	-95.23
225.939	54.27
226.157	21.5
226.375	128
226.592	13.31
226.81	19.46
227.028	93.18
227.246	19.46
227.464	-23.55
227.682	48.13
227.9	39.94
228.117	33.79
228.335	21.5
228.553	11.26
228.771	-29.7
228.989	60.42
229.206	60.42
229.424	-1.02
229.642	60.42
229.86	-13.31
230.077	39.94
230.295	60.42
230.513	-11.26
230.731	15.36
230.948	89.09
231.166	154.62
231.384	11.26
231.601	3.07
231.819	-33.79
232.037	27.65
232.254	5.12
232.472	41.98
232.689	-48.13
232.907	60.42
233.125	3.07
233.342	23.55
233.56	-13.31
233.777	31.74
233.995	19.46
234.213	52.22
234.43	29.7
234.648	48.13
234.865	5.12
235.083	64.51
235.3	54.27
235.518	19.46
235.735	72.7
235.953	142.33
236.17	44.03
236.388	11.26
236.605	-5.12
236.822	19.46
237.04	125.95
237.257	62.46
237.475	13.31
237.692	-9.22
237.909	27.65
238.127	46.08
238.344	46.08
238.562	13.31
238.779	-13.31
238.996	33.79
239.214	-19.46
239.431	101.37
239.648	54.27
239.865	-46.08
240.083	23.55
240.3	11.26
240.517	-5.12
240.735	-21.5
240.952	109.57
241.169	3.07
241.386	44.03
241.603	31.74
241.821	23.55
242.038	78.85
242.255	101.37
242.472	52.22
242.689	19.46
242.907	117.76
243.124	15.36
243.341	-23.55
243.558	23.55
243.775	25.6
243.992	29.7
244.209	37.89
244.426	76.8
244.643	87.04
244.86	80.89
245.078	-17.41
245.295	101.37
245.512	-37.89
245.729	33.79
245.946	-5.12
246.163	-37.89
246.38	-19.46
246.597	-5.12
246.814	-15.36
247.031	-1.02
247.248	41.98
247.464	78.85
247.681	60.42
247.898	-21.5
248.115	72.7
248.332	21.5
248.549	5.12
248.766	95.23
248.983	46.08
249.2	93.18
249.417	68.61
249.633	5.12
249.85	-15.36
250.067	17.41
250.284	50.18
250.501	29.7
250.717	93.18
250.934	5.12
251.151	19.46
251.368	-19.46
251.585	91.13
251.801	23.55
252.018	-76.8
252.235	-29.7
252.451	39.94
252.668	74.75
252.885	84.99
253.102	74.75
253.318	-3.07
253.535	-21.5
253.752	93.18
253.968	21.5
254.185	39.94
254.401	11.26
254.618	46.08
254.835	-21.5
255.051	76.8
255.268	-33.79
255.484	52.22
255.701	46.08
255.917	3.07
256.134	17.41
256.351	46.08
256.567	27.65
256.784	46.08
257	-35.84
257.217	9.22
257.433	-9.22
257.65	11.26
257.866	3.07
258.082	-70.65
258.299	-19.46
258.515	-5.12
258.732	-27.65
258.948	35.84
259.165	64.51
259.381	-52.22
259.597	64.51
259.814	76.8
260.03	-19.46
260.246	68.61
260.463	-62.46
260.679	44.03
260.895	44.03
261.112	39.94
261.328	87.04
261.544	52.22
261.761	128
261.977	-27.65
262.193	-21.5
262.409	-3.07
262.626	35.84
262.842	60.42
263.058	-39.94
263.274	-11.26
263.49	46.08
263.707	-50.18
263.923	56.32
264.139	-68.61
264.355	56.32
264.571	109.57
264.787	35.84
265.004	-29.7
265.22	37.89
265.436	56.32
265.652	19.46
265.868	13.31
266.084	68.61
266.3	29.7
266.516	-13.31
266.732	37.89
266.948	29.7
267.164	136.19
267.38	21.5
267.596	7.17
267.812	144.38
268.028	80.89
268.244	5.12
268.46	19.46
268.676	-37.89
268.892	62.46
269.108	-9.22
269.324	-29.7
269.54	-52.22
269.756	60.42
269.972	-13.31
270.188	1.02
270.403	-64.51
270.619	-5.12
270.835	15.36
271.051	1.02
271.267	27.65
271.483	64.51
271.698	11.26
271.914	-1.02
272.13	17.41
272.346	-11.26
272.562	25.6
272.777	119.81
272.993	-35.84
273.209	44.03
273.425	11.26
273.64	44.03
273.856	78.85
274.072	37.89
274.287	54.27
274.503	-9.22
274.719	-37.89
274.934	29.7
275.15	-74.75
275.366	31.74
275.581	11.26
275.797	50.18
276.012	-3.07
276.228	62.46
276.444	9.22
276.659	54.27
276.875	27.65
277.09	37.89
277.306	31.74
277.521	3.07
277.737	5.12
277.952	-13.31
278.168	15.36
278.383	5.12
278.599	29.7
278.814	-27.65
279.03	-3.07
279.245	70.65
279.461	27.65
279.676	27.65
279.892	19.46
280.107	-1.02
280.322	41.98
280.538	68.61
280.753	52.22
280.969	-25.6
281.184	48.13
281.399	60.42
281.615	-11.26
281.83	13.31
282.045	-11.26
282.26	80.89
282.476	-15.36
282.691	78.85
282.906	11.26
283.122	46.08
283.337	-52.22
283.552	52.22
283.767	-7.17
283.983	109.57
284.198	11.26
284.413	21.5
284.628	-11.26
284.843	39.94
285.058	44.03
285.274	5.12
285.489	54.27
285.704	78.85
285.919	15.36
286.134	103.42
286.349	-68.61
286.564	11.26
286.779	76.8
286.995	-25.6
287.21	60.42
287.425	52.22
287.64	41.98
287.855	-11.26
288.07	-29.7
288.285	33.79
288.5	-17.41
288.715	17.41
288.93	-52.22
289.145	-7.17
289.36	15.36
289.575	5.12
289.79	35.84
290.004	52.22
290.219	60.42
290.434	80.89
290.649	70.65
290.864	19.46
291.079	19.46
291.294	76.8
291.509	64.51
291.724	15.36
291.938	17.41
292.153	-1.02
292.368	60.42
292.583	62.46
292.798	74.75
293.012	52.22
293.227	111.61
293.442	37.89
293.657	44.03
293.871	76.8
294.086	39.94
294.301	84.99
294.516	29.7
294.73	62.46
294.945	-25.6
295.16	97.28
295.374	87.04
295.589	23.55
295.804	76.8
296.018	44.03
296.233	74.75
296.447	-37.89
296.662	62.46
296.877	70.65
297.091	80.89
297.306	-5.12
297.52	21.5
297.735	41.98
297.949	-35.84
298.164	70.65
298.378	-11.26
298.593	27.65
298.807	76.8
299.022	-5.12
299.236	25.6
299.451	-13.31
299.665	58.37
299.88	80.89
300.094	3.07
300.309	35.84
300.523	21.5
300.737	-1.02
300.952	7.17
301.166	58.37
301.381	-93.18
301.595	95.23
301.809	105.47
302.024	54.27
302.238	-9.22
302.452	62.46
302.667	9.22
302.881	52.22
303.095	33.79
303.309	44.03
303.524	93.18
303.738	-62.46
303.952	-58.37
304.166	101.37
304.381	-33.79
304.595	13.31
304.809	-17.41
305.023	-5.12
305.237	19.46
305.452	3.07
305.666	-29.7
305.88	84.99
306.094	52.22
306.308	82.94
306.522	105.47
306.736	-17.41
306.95	54.27
307.164	-19.46
307.379	54.27
307.593	50.18
307.807	-11.26
308.021	87.04
308.235	-13.31
308.449	-15.36
308.663	87.04
308.877	101.37
309.091	48.13
309.305	87.04
309.519	-23.55
309.733	60.42
309.947	-11.26
310.161	52.22
310.374	3.07
310.588	64.51
310.802	5.12
311.016	31.74
311.23	1.02
311.444	27.65
311.658	39.94
311.872	68.61
312.085	27.65
312.299	3.07
312.513	84.99
312.727	66.56
312.941	7.17
313.154	-5.12
313.368	13.31
313.582	35.84
313.796	62.46
314.009	-37.89
314.223	27.65
314.437	-21.5
314.651	31.74
314.864	-27.65
315.078	78.85
315.292	62.46
315.505	-19.46
315.719	37.89
315.933	60.42
316.146	44.03
316.36	-3.07
316.573	35.84
316.787	15.36
317.001	44.03
317.214	27.65
317.428	19.46
317.641	-11.26
317.855	-13.31
318.068	64.51
318.282	35.84
318.495	78.85
318.709	44.03
318.922	7.17
319.136	52.22
319.349	15.36
319.563	-15.36
319.776	138.24
319.99	37.89
320.203	29.7
320.417	62.46
320.63	70.65
320.843	68.61
321.057	80.89
321.27	3.07
321.483	21.5
321.697	68.61
321.91	72.7
322.124	66.56
322.337	-17.41
322.55	62.46
322.763	68.61
322.977	27.65
323.19	15.36
323.403	-5.12
323.617	19.46
323.83	27.65
324.043	68.61
324.256	-1.02
324.469	25.6
324.683	27.65
324.896	-33.79
325.109	-9.22
325.322	-27.65
325.535	-27.65
325.748	46.08
325.962	5.12
326.175	15.36
326.388	37.89
326.601	76.8
326.814	27.65
327.027	50.18
327.24	27.65
327.453	50.18
327.666	11.26
327.879	74.75
328.092	44.03
328.305	19.46
328.518	-5.12
328.731	-11.26
328.944	44.03
329.157	60.42
329.37	-3.07
329.583	19.46
329.796	46.08
330.009	-46.08
330.222	19.46
330.435	52.22
330.648	-1.02
330.861	3.07
331.073	52.22
331.286	52.22
331.499	21.5
331.712	35.84
331.925	76.8
332.138	35.84
332.35	46.08
332.563	-29.7
332.776	29.7
332.989	13.31
333.202	35.84
333.414	95.23
333.627	11.26
333.84	-27.65
334.053	48.13
334.265	44.03
334.478	19.46
334.691	13.31
334.903	-5.12
335.116	68.61
335.329	107.52
335.541	27.65
335.754	78.85
335.966	11.26
336.179	27.65
336.392	37.89
336.604	58.37
336.817	48.13
337.029	68.61
337.242	60.42
337.454	3.07
337.667	46.08
337.88	95.23
338.092	-5.12
338.305	13.31
338.517	27.65
338.729	-46.08
338.942	35.84
339.154	35.84
339.367	-3.07
339.579	68.61
339.792	-44.03
340.004	54.27
340.217	27.65
340.429	70.65
340.641	-46.08
340.854	48.13
341.066	27.65
341.278	64.51
341.491	11.26
341.703	41.98
341.915	37.89
342.128	33.79
342.34	3.07
342.552	64.51
342.764	103.42
342.977	60.42
343.189	23.55
343.401	-46.08
343.613	39.94
343.826	54.27
344.038	-70.65
344.25	21.5
344.462	7.17
344.674	35.84
344.886	7.17
345.099	97.28
345.311	62.46
345.523	44.03
345.735	23.55
345.947	76.8
346.159	76.8
346.371	7.17
346.583	23.55
346.795	91.13
347.007	-17.41
347.219	50.18
347.431	5.12
347.643	-17.41
347.855	3.07
348.067	23.55
348.279	-29.7
348.491	31.74
348.703	52.22
348.915	23.55
349.127	54.27
349.339	117.76
349.551	19.46
349.763	23.55
349.975	13.31
350.187	35.84
350.399	7.17
350.61	35.84
350.822	1.02
351.034	29.7
351.246	64.51
351.458	82.94
351.669	93.18
351.881	91.13
352.093	25.6
352.305	68.61
352.517	64.51
352.728	39.94
352.94	-31.74
353.152	44.03
353.363	11.26
353.575	87.04
353.787	7.17
353.999	50.18
354.21	87.04
354.422	-29.7
354.633	74.75
354.845	19.46
355.057	-13.31
355.268	62.46
355.48	121.85
355.692	-17.41
355.903	64.51
356.115	52.22
356.326	11.26
356.538	101.37
356.749	27.65
356.961	19.46
357.172	39.94
357.384	46.08
357.595	130.05
357.807	-27.65
358.018	-19.46
358.23	27.65
358.441	76.8
358.653	68.61
358.864	78.85
359.075	-3.07
359.287	68.61
359.498	95.23
359.709	39.94
359.921	125.95
360.132	29.7
360.344	44.03
360.555	11.26
360.766	46.08
360.977	101.37
361.189	48.13
361.4	54.27
361.611	5.12
361.823	31.74
362.034	91.13
362.245	31.74
362.456	15.36
362.667	76.8
362.879	-5.12
363.09	19.46
363.301	68.61
363.512	-25.6
363.723	37.89
363.935	-9.22
364.146	76.8
364.357	27.65
364.568	64.51
364.779	-5.12
364.99	19.46
365.201	11.26
365.412	41.98
365.623	-37.89
365.834	31.74
366.045	35.84
366.256	15.36
366.467	7.17
366.678	1.02
366.889	76.8
367.1	13.31
367.311	87.04
367.522	27.65
367.733	-56.32
367.944	101.37
368.155	27.65
368.366	60.42
368.577	-9.22
368.788	101.37
368.999	3.07
369.209	52.22
369.42	44.03
369.631	93.18
369.842	39.94
370.053	60.42
370.264	33.79
370.474	11.26
370.685	19.46
370.896	-17.41
371.107	23.55
371.317	72.7
371.528	64.51
371.739	109.57
371.95	39.94
372.16	128
372.371	15.36
372.582	-11.26
372.792	44.03
373.003	48.13
373.214	50.18
373.424	125.95
373.635	-31.74
373.846	72.7
374.056	-9.22
374.267	60.42
374.477	-13.31
374.688	37.89
374.898	68.61
375.109	54.27
375.319	62.46
375.53	70.65
375.74	93.18
375.951	19.46
376.161	-15.36
376.372	87.04
376.582	93.18
376.793	60.42
377.003	52.22
377.214	78.85
377.424	52.22
377.635	44.03
377.845	27.65
378.055	68.61
378.266	-15.36
378.476	44.03
378.686	19.46
378.897	60.42
379.107	19.46
379.317	70.65
379.528	-5.12
379.738	101.37
379.948	-27.65
380.158	95.23
380.369	11.26
380.579	35.84
380.789	80.89
380.999	80.89
381.21	91.13
381.42	134.14
381.63	-66.56
381.84	52.22
382.05	70.65
382.261	54.27
382.471	31.74
382.681	15.36
382.891	37.89
383.101	117.76
383.311	-68.61
383.521	37.89
383.731	109.57
383.941	44.03
384.151	15.36
384.361	35.84
384.571	-25.6
384.781	7.17
384.991	44.03
385.201	134.14
385.411	105.47
385.621	93.18
385.831	35.84
386.041	89.09
386.251	31.74
386.461	76.8
386.671	48.13
386.881	-5.12
387.091	46.08
387.301	84.99
387.511	-3.07
387.72	46.08
387.93	25.6
388.14	101.37
388.35	3.07
388.56	52.22
388.769	41.98
388.979	101.37
389.189	56.32
389.399	39.94
389.609	-17.41
389.818	68.61
390.028	60.42
390.238	101.37
390.447	80.89
390.657	50.18
390.867	3.07
391.076	27.65
391.286	89.09
391.496	52.22
391.705	-3.07
391.915	44.03
392.125	84.99
392.334	56.32
392.544	152.57
392.753	68.61
392.963	21.5
393.172	33.79
393.382	25.6
393.591	60.42
393.801	48.13
394.01	72.7
394.22	52.22
394.429	84.99
394.639	76.8
394.848	60.42
395.058	68.61
395.267	5.12
395.477	56.32
395.686	-3.07
395.895	117.76
396.105	60.42
396.314	5.12
396.524	125.95
396.733	68.61
396.942	152.57
397.152	54.27
397.361	125.95
397.57	113.66
397.78	44.03
397.989	132.09
398.198	152.57
398.407	3.07
398.617	15.36
398.826	70.65
399.035	109.57
399.244	60.42
399.453	48.13
399.663	130.05
399.872	89.09
400.081	87.04
400.29	111.61
400.499	68.61
400.708	103.42
400.917	13.31
401.127	66.56
401.336	48.13
401.545	199.68
401.754	76.8
401.963	101.37
402.172	101.37
402.381	44.03
402.59	101.37
402.799	76.8
403.008	152.57
403.217	87.04
403.426	152.57
403.635	128
403.844	103.42
404.053	101.37
404.262	84.99
404.471	142.33
404.68	93.18
404.888	152.57
405.097	158.72
405.306	70.65
405.515	84.99
405.724	158.72
405.933	89.09
406.142	99.33
406.35	203.77
406.559	117.76
406.768	119.81
406.977	164.86
407.185	173.05
407.394	175.1
407.603	168.96
407.812	175.1
408.02	199.68
408.229	209.92
408.438	195.58
408.646	154.62
408.855	183.29
409.064	175.1
409.272	230.4
409.481	244.73
409.69	187.39
409.898	224.25
410.107	265.21
410.315	281.6
410.524	201.72
410.733	185.34
410.941	257.02
411.15	281.6
411.358	287.74
411.567	396.28
411.775	308.22
411.984	187.39
412.192	318.46
412.401	347.13
412.609	447.48
412.818	308.22
413.026	322.56
413.234	359.42
413.443	349.18
413.651	289.79
413.86	361.47
414.068	406.52
414.276	441.34
414.485	494.58
414.693	453.63
414.901	496.63
415.11	500.73
415.318	568.31
415.526	535.54
415.734	568.31
415.943	617.46
416.151	611.32
416.359	691.19
416.567	611.32
416.776	699.38
416.984	670.71
417.192	687.09
417.4	672.76
417.608	658.42
417.817	723.96
418.025	793.59
418.233	863.22
418.441	787.44
418.649	822.26
418.857	947.19
419.065	902.13
419.273	930.8
419.481	941.04
419.689	984.05
419.897	1068.02
420.105	1027.06
420.313	1070.06
420.521	1160.17
420.729	1151.98
420.937	1201.13
421.145	1145.84
421.353	1350.64
421.561	1354.73
421.769	1389.55
421.977	1475.56
422.185	1524.71
422.393	1518.57
422.601	1545.19
422.809	1575.91
423.017	1694.69
423.224	1555.43
423.432	1749.99
423.64	1711.08
423.848	1924.07
424.056	1879.01
424.263	2040.8
424.471	2026.47
424.679	2051.04
424.887	2169.82
425.094	2282.46
425.302	2223.07
425.51	2292.7
425.718	2395.1
425.925	2337.76
426.133	2446.3
426.341	2624.47
426.548	2708.44
426.756	2649.05
426.964	2755.54
427.171	2872.28
427.379	3158.99
427.586	2941.91
427.794	3111.89
428.001	3275.73
428.209	3570.63
428.417	3292.11
428.624	3648.46
428.832	3558.35
429.039	3410.89
429.247	3591.11
429.454	3912.64
429.662	4074.43
429.869	3935.17
430.076	4334.53
430.284	4160.45
430.491	4260.8
430.699	4459.45
430.906	4402.11
431.114	4731.83
431.321	4733.88
431.528	4762.55
431.736	5088.18
431.943	5317.55
432.15	5163.95
432.358	5342.13
432.565	5483.44
432.772	5565.36
432.979	5899.17
433.187	5821.35
433.394	5938.09
433.601	6261.66
433.808	6353.82
434.016	6247.33
434.223	6615.96
434.43	6970.26
434.637	6931.35
434.844	7119.76
435.052	7367.57
435.259	7373.71
435.466	7269.27
435.673	7187.35
435.88	7824.26
436.087	8127.36
436.294	8260.48
436.501	7875.46
436.708	8358.78
436.915	8536.96
437.122	8795
437.329	8784.76
437.537	9169.78
437.743	9098.1
437.95	9102.2
438.157	9681.77
438.364	9919.34
438.571	9866.09
438.778	10040.17
438.985	10734.43
439.192	10447.71
439.399	10603.36
439.606	10445.66
439.813	11121.49
440.02	11668.3
440.227	11469.65
440.433	11594.58
440.64	11959.11
440.847	11623.25
441.054	12028.74
441.261	12733.25
441.467	12680
441.674	12907.32
441.881	13429.56
442.088	13298.49
442.294	13191.99
442.501	13599.54
442.708	13900.59
442.914	14310.18
443.121	15080.22
443.328	14340.9
443.534	15653.65
443.741	14867.23
443.948	14947.1
444.154	15997.71
444.361	15891.21
444.568	16014.09
444.774	15903.5
444.981	16059.15
445.187	16591.62
445.394	17406.71
445.6	16972.54
445.807	18594.53
446.013	17887.98
446.22	18031.34
446.426	18891.49
446.633	19180.25
446.839	19888.85
447.046	19020.51
447.252	20218.57
447.459	20052.69
447.665	19774.16
447.871	20859.59
448.078	21691.06
448.284	21007.04
448.491	21379.77
448.697	22047.41
448.903	22543.02
449.11	22579.88
449.316	22418.09
449.522	22577.83
449.728	23143.07
449.935	23575.19
450.141	23339.68
450.347	23628.44
450.553	23335.58
450.76	23636.63
450.966	24359.56
451.172	24035.99
451.378	24631.94
451.584	24126.1
451.791	24470.15
451.997	24758.92
452.203	25047.68
452.409	25182.85
452.615	24980.1
452.821	24124.05
453.027	23818.9
453.233	25281.15
453.44	23972.5
453.646	24232.59
453.852	24339.08
454.058	24873.6
454.264	24277.65
454.47	24748.68
454.676	23827.09
454.882	24734.34
455.088	23118.5
455.294	22913.7
455.5	23632.54
455.705	23755.41
455.911	22852.26
456.117	22411.95
456.323	22069.94
456.529	20996.8
456.735	22071.98
456.941	21441.21
457.147	20896.45
457.352	20576.97
457.558	20056.78
457.764	20347.59
457.97	19829.46
458.176	19409.62
458.381	19530.45
458.587	18402.02
458.793	18617.06
458.999	17572.6
459.204	18762.47
459.41	18475.75
459.616	17128.19
459.821	16988.92
460.027	16894.72
460.233	16818.94
460.438	16239.37
460.644	15977.23
460.85	15475.48
461.055	15084.31
461.261	15174.42
461.466	13738.8
461.672	13499.19
461.878	14551.84
462.083	13564.72
462.289	13241.14
462.494	13210.42
462.7	12630.85
462.905	12331.84
463.111	12659.52
463.316	12741.44
463.522	12585.79
463.727	12456.77
463.932	12563.26
464.138	12280.64
464.343	12290.88
464.549	12061.51
464.754	12239.69
464.959	12471.11
465.165	12100.42
465.37	11754.32
465.575	11346.77
465.781	11756.36
465.986	11694.93
466.191	11418.45
466.397	11215.7
466.602	10761.05
466.807	11250.52
467.012	11051.86
467.218	10869.59
467.423	10834.78
467.628	11004.76
467.833	11561.81
468.038	10908.51
468.244	10601.31
468.449	11019.1
468.654	10867.55
468.859	10648.41
469.064	10636.13
469.269	10300.26
469.474	10414.95
469.679	10558.3
469.885	10228.58
470.09	10322.79
470.295	10373.99
470.5	9976.68
470.705	10128.23
470.91	10087.27
471.115	9837.42
471.32	9902.95
471.525	9794.41
471.73	10021.74
471.935	9612.14
472.139	9407.34
472.344	9433.97
472.549	9192.31
472.754	9212.79
472.959	9038.71
473.164	8909.69
473.369	8811.39
473.574	8989.56
473.778	8969.08
473.983	8786.81
474.188	8842.11
474.393	8455.04
474.598	8276.87
474.802	8424.32
475.007	8182.66
475.212	8514.43
475.417	8051.59
475.621	8123.27
475.826	8039.3
476.031	7883.66
476.235	7687.05
476.44	7998.34
476.645	7779.21
476.849	7607.18
477.054	7558.03
477.259	7539.6
477.463	7519.12
477.668	7306.13
477.872	7492.49
478.077	7261.07
478.282	7091.09
478.486	7041.94
478.691	7089.04
478.895	7017.36
479.1	6990.74
479.304	7064.47
479.509	6865.82
479.713	7050.13
479.918	6607.77
480.122	6771.61
480.326	6712.22
480.531	6744.99
480.735	6607.77
480.94	6466.46
481.144	6828.95
481.348	6482.85
481.553	6736.79
481.757	6304.67
481.961	6523.8
482.166	6697.88
482.37	6538.14
482.574	6302.62
482.778	6529.95
482.983	6542.24
483.187	6693.79
483.391	6552.48
483.595	6491.04
483.8	6527.9
484.004	6534.04
484.208	6425.5
484.412	6435.74
484.616	6556.57
484.821	6499.23
485.025	6286.24
485.229	6532
485.433	6511.52
485.637	6409.12
485.841	6384.54
486.045	6450.08
486.249	6384.54
486.453	6319.01
486.657	6501.28
486.861	6382.49
487.065	6273.95
487.269	6390.69
487.473	6421.41
487.677	6515.61
487.881	6511.52
488.085	6329.25
488.289	6486.94
488.493	6570.91
488.697	6615.96
488.901	6622.11
489.105	6605.72
489.309	6484.89
489.512	6493.08
489.716	6388.64
489.92	6704.03
490.124	6558.62
490.328	6554.52
490.531	6626.2
490.735	6689.69
490.939	6732.7
491.143	6658.97
491.346	6624.15
491.55	6761.37
491.754	6640.54
491.958	6654.87
492.161	6818.71
492.365	6923.16
492.569	6841.24
492.772	6734.75
492.976	6843.29
493.18	7025.56
493.383	7054.23
493.587	7058.32
493.79	7060.37
493.994	7084.95
494.197	7089.04
494.401	7291.79
494.605	7043.99
494.808	7312.27
495.012	7238.55
495.215	7308.18
495.419	7515.02
495.622	7467.92
495.825	7531.41
496.029	7500.69
496.232	7699.34
496.436	7670.67
496.639	7941
496.843	7785.35
497.046	7992.2
497.249	7941
497.453	8119.17
497.656	7967.62
497.859	8086.4
498.063	8121.22
498.266	8332.16
498.469	8418.18
498.673	8285.06
498.876	8590.2
499.079	8713.08
499.282	8706.94
499.485	8872.82
499.689	8721.27
499.892	9038.71
500.095	9077.62
500.298	9218.93
500.501	8971.13
500.705	9266.03
500.908	9366.39
501.111	9661.29
501.314	9792.36
501.517	9950.06
501.72	10025.83
501.923	9890.67
502.126	10136.42
502.329	10267.49
502.532	10259.3
502.735	10363.75
502.938	10681.18
503.141	10570.59
503.344	10939.23
503.547	10838.87
503.75	10898.27
503.953	11117.4
504.156	11424.59
504.359	11359.06
504.562	11424.59
504.765	11565.9
504.968	11684.69
505.17	11746.12
505.373	11873.1
505.576	12147.53
505.779	12163.91
505.982	12315.46
506.185	12503.87
506.387	12649.28
506.59	12729.15
506.793	12866.36
506.996	12979
507.198	13214.52
507.401	13191.99
507.604	13413.17
507.807	13548.34
508.009	13675.31
508.212	13689.65
508.415	13732.65
508.617	14207.78
508.82	14271.27
509.022	14056.23
509.225	14474.02
509.428	14566.18
509.63	14687.01
509.833	14584.61
510.035	15119.13
510.238	15061.79
510.44	15145.75
510.643	15530.77
510.845	15502.1
511.048	15639.31
511.25	15897.36
511.453	15676.18
511.655	16216.84
511.858	16231.18
512.06	16407.3
512.262	16634.63
512.465	16605.95
512.667	16724.74
512.87	17105.66
513.072	17187.58
513.274	17453.81
513.477	17380.09
513.679	17492.73
513.881	18143.98
514.084	17969.9
514.286	17615.6
514.488	18338.54
514.69	18752.23
514.893	18565.86
515.095	18565.86
515.297	18856.67
515.499	18922.21
515.701	19303.13
515.904	19548.89
516.106	19639
516.308	19911.38
516.51	20374.22
516.712	20232.91
516.914	20198.09
517.116	20617.93
517.318	20624.07
517.52	20861.63
517.722	20957.89
517.925	20925.12
518.127	21347
518.329	21303.99
518.531	21285.56
518.733	21641.91
518.935	21781.17
519.136	22223.53
519.338	22276.78
519.54	22270.64
519.742	22487.72
519.944	22626.98
520.146	22966.95
520.348	23317.15
520.55	23048.86
520.752	23196.32
520.954	23999.12
521.155	23685.78
521.357	24138.38
521.559	24167.06
521.761	24615.56
521.963	24406.67
522.164	24412.81
522.366	24642.18
522.568	24926.85
522.77	25123.46
522.971	25633.4
523.173	25105.02
523.375	25584.25
523.576	25717.37
523.778	25514.62
523.98	25836.15
524.181	26030.71
524.383	26102.39
524.584	26448.49
524.786	26251.89
524.988	26307.18
525.189	26780.26
525.391	26770.02
525.592	26956.39
525.794	26919.53
525.995	27312.74
526.197	27005.54
526.398	27245.15
526.6	27406.94
526.801	27306.59
527.003	27738.71
527.204	27439.71
527.406	27781.72
527.607	27497.05
527.808	28045.91
528.01	27533.92
528.211	28240.47
528.412	28676.68
528.614	28392.01
528.815	28189.27
529.016	28635.72
529.218	28590.67
529.419	28607.05
529.62	28660.3
529.822	28385.87
530.023	28516.94
530.224	28623.44
530.425	28641.87
530.626	28172.88
530.828	28539.47
531.029	29344.32
531.23	28598.86
531.431	28635.72
531.632	29221.44
531.833	28957.25
532.035	28779.08
532.236	29084.23
532.437	29209.15
532.638	28883.53
532.839	29219.39
533.04	29168.19
533.241	28994.12
533.442	29469.25
533.643	29016.65
533.844	28977.73
534.045	29506.11
534.246	29061.7
534.447	28924.49
534.648	29076.04
534.849	29284.93
535.05	29129.28
535.251	29354.56
535.451	29268.55
535.652	29332.03
535.853	29278.79
536.054	29203.01
536.255	29160
536.456	29129.28
536.657	29129.28
536.857	29108.8
537.058	29059.65
537.259	28973.64
537.46	29205.06
537.66	29151.81
537.861	29243.97
538.062	29235.78
538.263	29133.38
538.463	29057.6
538.664	29127.24
538.865	29223.49
539.065	29114.95
539.266	28889.67
539.466	29176.39
539.667	29030.98
539.868	29026.89
540.068	29084.23
540.269	29076.04
540.469	29751.87
540.67	28809.8
540.87	29239.87
541.071	29088.32
541.271	29188.67
541.472	28609.1
541.672	29041.22
541.873	28836.42
542.073	28805.7
542.274	29504.06
542.474	28871.24
542.675	28848.71
542.875	29360.7
543.075	28799.56
543.276	28674.63
543.476	29073.99
543.676	28686.92
543.877	29002.31
544.077	28957.25
544.277	28918.34
544.478	28686.92
544.678	28979.78
544.878	28777.03
545.078	28465.74
545.279	28609.1
545.479	28650.06
545.679	28811.85
545.879	28928.58
546.079	28645.96
546.28	28678.73
546.48	28461.65
546.68	28439.12
546.88	28787.27
547.08	28762.7
547.28	28332.62
547.48	28279.38
547.68	29127.24
547.88	28074.58
548.081	28738.12
548.281	28172.88
548.481	28488.27
548.681	28772.94
548.881	28785.22
549.081	28482.13
549.28	28543.56
549.48	28953.16
549.68	28574.28
549.88	28963.4
550.08	28262.99
550.28	28564.04
550.48	28418.64
550.68	28748.36
550.88	28592.72
551.08	28244.56
551.279	28410.45
551.479	28277.33
551.679	28807.75
551.879	28162.64
552.079	28432.97
552.278	28455.5
552.478	28478.03
552.678	28113.49
552.878	28289.62
553.077	28295.76
553.277	28088.92
553.477	28504.65
553.676	28463.69
553.876	28160.59
554.076	28322.38
554.275	28525.13
554.475	27814.49
554.674	28383.82
554.874	28150.35
555.074	28140.11
555.273	28226.13
555.473	28361.3
555.672	27937.37
555.872	28238.42
556.071	28025.43
556.271	28205.65
556.47	28207.7
556.67	28060.24
556.869	27705.95
557.068	27787.86
557.268	27695.71
557.467	27705.95
557.667	27638.36
557.866	27826.78
558.065	27867.73
558.265	27566.68
558.464	27429.47
558.663	28062.29
558.863	27087.46
559.062	28062.29
559.261	27413.09
559.461	27914.84
559.66	27474.52
559.859	27603.55
560.058	27282.02
560.258	27396.7
560.457	27224.67
560.656	27296.35
560.855	27355.74
561.054	27392.61
561.253	26858.09
561.453	27497.05
561.652	27239.01
561.851	27273.82
562.05	27155.04
562.249	26727.02
562.448	26948.2
562.647	26847.85
562.846	26841.7
563.045	26884.71
563.244	26690.15
563.443	26935.91
563.642	26657.39
563.841	26409.58
564.04	26479.21
564.239	26845.8
564.438	26479.21
564.637	26358.38
564.836	26753.64
565.035	26311.28
565.234	26651.24
565.432	25946.74
565.631	25934.45
565.83	26190.45
566.029	25887.35
566.228	25987.7
566.427	26159.73
566.625	25963.12
566.824	25817.72
567.023	25940.6
567.222	25535.1
567.42	25889.4
567.619	25598.59
567.818	25461.37
568.016	25520.76
568.215	25832.05
568.414	25463.42
568.612	25836.15
568.811	25414.27
569.01	25567.87
569.208	25023.11
569.407	25571.96
569.605	25096.83
569.804	25447.04
570.002	25023.11
570.201	25088.64
570.4	24892.04
570.598	24908.42
570.797	24949.38
570.995	24961.67
571.193	24883.84
571.392	24679.05
571.59	24556.17
571.789	24437.39
571.987	24431.24
572.186	24418.96
572.384	24134.29
572.582	24523.4
572.781	24236.69
572.979	23823
573.177	24580.74
573.376	24334.99
573.574	24261.26
573.772	24244.88
573.971	24117.9
574.169	23849.62
574.367	23704.21
574.565	24015.51
574.763	23726.74
574.962	23827.09
575.16	23429.79
575.358	23648.92
575.556	23351.96
575.754	23757.46
575.952	23081.63
576.151	23272.09
576.349	23220.89
576.547	23067.3
576.745	23485.08
576.943	23376.54
577.141	23192.22
577.339	23149.21
577.537	22880.93
577.735	22905.51
577.933	23030.43
578.131	22938.27
578.329	22719.14
578.527	22612.65
578.725	22567.59
578.923	22645.41
579.121	22635.17
579.319	22231.72
579.516	22729.38
579.714	22442.67
579.912	22403.75
580.11	22334.12
580.308	22053.55
580.506	22090.41
580.704	21971.63
580.901	22057.65
581.099	22291.12
581.297	21746.36
581.495	21969.58
581.692	21748.4
581.89	21797.56
582.088	21957.3
582.285	21533.37
582.483	21660.34
582.681	21777.08
582.878	21596.85
583.076	21449.4
583.274	21603
583.471	21269.18
583.669	21375.67
583.866	21097.15
584.064	21324.47
584.262	21127.87
584.459	21234.36
584.657	21156.54
584.854	21093.05
585.052	20878.02
585.249	20970.18
585.447	20705.99
585.644	20843.2
585.841	20755.14
586.039	20787.91
586.236	20675.27
586.434	20654.79
586.631	20531.91
586.828	20769.48
587.026	20615.88
587.223	20343.5
587.42	20347.59
587.618	20335.31
587.815	20073.17
588.012	19976.91
588.21	19718.87
588.407	20263.63
588.604	19794.64
588.801	19851.99
588.999	19843.79
589.196	19706.58
589.393	19923.66
589.59	19700.44
589.787	19727.06
589.984	19499.73
590.182	19151.58
590.379	19561.17
590.576	19229.4
590.773	19133.15
590.97	19167.96
591.167	19346.14
591.364	19118.81
591.561	19012.32
591.758	19147.48
591.955	19282.65
592.152	19184.35
592.349	18911.97
592.546	19026.65
592.743	18944.73
592.94	18582.24
593.137	18496.23
593.334	18737.89
593.531	18277.1
593.727	18526.95
593.924	18477.8
594.121	18359.02
594.318	18598.63
594.515	18244.33
594.712	18682.59
594.908	18131.69
595.105	18180.84
595.302	18168.55
595.499	18254.57
595.696	18191.08
595.892	17994.48
596.089	18041.58
596.286	17894.13
596.482	17730.29
596.679	17748.72
596.876	17584.88
597.072	17535.73
597.269	17488.63
597.466	17505.01
597.662	17525.49
597.859	17455.86
598.055	17726.19
598.252	17292.02
598.448	17419
598.645	17412.85
598.841	17218.3
599.038	17388.28
599.234	17267.45
599.431	17152.76
599.627	17132.28
599.824	16849.66
600.02	16970.49
600.217	16704.26
600.413	16626.43
600.609	16687.87
600.806	16386.82
601.002	16470.79
601.198	16763.65
601.395	16423.69
601.591	16407.3
601.787	16382.73
601.984	16448.26
602.18	16698.11
602.376	16218.89
602.572	16151.31
602.769	16104.2
602.965	16014.09
603.161	16329.48
603.357	16028.43
603.553	15866.64
603.75	15885.07
603.946	16034.57
604.142	15899.41
604.338	15772.43
604.534	15678.22
604.73	15520.53
604.926	15559.44
605.122	15598.35
605.318	15502.1
605.514	15498
605.71	15551.25
605.906	15538.96
606.102	15280.92
606.298	15362.84
606.494	15221.53
606.69	15545.11
606.886	15231.77
607.082	15250.2
607.278	15416.08
607.474	15059.74
607.67	14879.52
607.866	14801.69
608.062	15129.37
608.257	14938.91
608.453	14932.76
608.649	15063.83
608.845	14625.57
609.041	14697.25
609.236	14996.25
609.432	14732.06
609.628	14611.23
609.824	14588.71
610.019	14791.45
610.215	14551.84
610.411	14566.18
610.606	14770.97
610.802	14637.86
610.998	14678.82
611.193	14625.57
611.389	14385.96
611.584	14379.81
611.78	14125.86
611.976	14453.54
612.171	14349.09
612.367	14342.95
612.562	14336.81
612.758	14089
612.953	14109.48
613.149	14363.43
613.344	14160.68
613.539	14201.64
613.735	14080.81
613.93	14170.92
614.126	14191.4
614.321	14355.24
614.517	14121.77
614.712	13923.12
614.907	14129.96
615.103	14080.81
615.298	13839.15
615.493	13908.78
615.688	13546.29
615.884	13925.16
616.079	13529.91
616.274	13861.68
616.47	13824.81
616.665	13622.06
616.86	13593.39
617.055	13447.99
617.25	13437.75
617.445	13650.74
617.641	13347.64
617.836	13581.1
618.031	13273.91
618.226	13646.64
618.421	13239.09
618.616	13267.77
618.811	13103.93
619.006	13456.18
619.201	13294.39
619.396	13261.62
619.591	12864.32
619.786	13259.57
619.981	12792.64
620.176	13060.92
620.371	12784.44
620.566	12735.29
620.761	12749.63
620.956	12708.67
621.151	12620.61
621.346	12741.44
621.541	12616.51
621.735	12702.53
621.93	12421.95
622.125	12569.41
622.32	12407.62
622.515	12559.17
622.709	12139.33
622.904	12352.32
623.099	12149.57
623.294	11916.11
623.488	12038.98
623.683	12194.63
623.878	11766.6
624.072	11875.15
624.267	12000.07
624.462	11570
624.656	11703.12
624.851	11443.03
625.046	11617.1
625.24	11504.46
625.435	11266.9
625.629	11389.78
625.824	11275.09
626.018	11320.15
626.213	10980.18
626.407	11072.34
626.602	11000.66
626.796	10713.95
626.991	10904.41
627.185	10857.31
627.38	10582.88
627.574	10591.07
627.768	10648.41
627.963	10490.72
628.157	10472.29
628.352	10541.92
628.546	10279.78
628.74	10402.66
628.935	10183.52
629.129	10185.57
629.323	10079.08
629.517	9986.92
629.712	10185.57
629.906	10095.46
630.1	9890.67
630.294	10005.35
630.489	10007.4
630.683	9735.02
630.877	9784.17
631.071	9941.86
631.265	9882.47
631.459	9714.54
631.653	9483.12
631.848	9524.08
632.042	9591.66
632.236	9358.19
632.43	9081.72
632.624	9474.93
632.818	9472.88
633.012	9063.29
633.206	9280.37
633.4	9059.19
633.594	9048.95
633.788	9182.07
633.982	8911.74
634.176	9022.33
634.369	8944.5
634.563	8913.78
634.757	8932.22
634.951	8797.05
635.145	8878.97
635.339	8737.66
635.533	8668.03
635.726	8491.9
635.92	8690.56
636.114	8250.24
636.308	8442.75
636.501	8305.54
636.695	8399.74
636.889	8283.01
637.083	8254.34
637.276	8278.91
637.47	8178.56
637.664	8186.76
637.857	8029.06
638.051	8000.39
638.244	8055.69
638.438	8072.07
638.632	8084.36
638.825	7908.23
639.019	7846.79
639.212	7771.02
639.406	7760.78
639.599	7525.26
639.793	7699.34
639.986	7678.86
640.18	7801.74
640.373	7717.77
640.567	7463.82
640.76	7410.57
640.954	7498.64
641.147	7386
641.34	7328.66
641.534	7410.57
641.727	7265.17
641.92	7279.5
642.114	7299.98
642.307	7269.27
642.5	7146.39
642.694	6998.93
642.887	7154.58
643.08	7173.01
643.273	7115.67
643.467	6894.49
643.66	7007.13
643.853	6816.66
644.046	6693.79
644.239	6704.03
644.432	6620.06
644.626	6701.98
644.819	6826.9
645.012	6624.15
645.205	6532
645.398	6540.19
645.591	6482.85
645.784	6568.86
645.977	6347.68
646.17	6417.31
646.363	6431.65
646.556	6282.14
646.749	6460.32
646.942	6409.12
647.135	6331.3
647.328	6343.58
647.521	6179.75
647.714	6276
647.907	6263.71
648.099	6034.34
648.292	6138.79
648.485	6017.96
648.678	6030.24
648.871	5895.08
649.064	6015.91
649.256	5944.23
649.449	5868.45
649.642	5843.88
649.835	5864.36
650.027	5845.93
650.22	5835.69
650.413	5770.15
650.605	5647.27
650.798	5813.16
650.991	5835.69
651.183	5594.03
651.376	5616.55
651.568	5491.63
651.761	5440.43
651.954	5440.43
652.146	5454.76
652.339	5487.53
652.531	5553.07
652.724	5364.65
652.916	5395.37
653.109	5327.79
653.301	5376.94
653.494	5401.52
653.686	5383.09
653.879	5297.07
654.071	5147.57
654.263	5256.11
654.456	5215.15
654.648	5368.75
654.84	5098.42
655.033	5137.33
655.225	5055.41
655.417	4932.53
655.61	5106.61
655.802	5018.55
655.994	4871.09
656.186	4807.61
656.379	4928.44
656.571	4672.44
656.763	4959.16
656.955	4811.7
657.148	4918.2
657.34	4748.22
657.532	4774.84
657.724	4623.29
657.916	4727.74
658.108	4697.02
658.3	4535.23
658.492	4574.14
658.684	4438.97
658.876	4535.23
659.068	4570.04
659.26	4522.94
659.452	4615.1
659.644	4545.47
659.836	4555.71
660.028	4520.89
660.22	4510.65
660.412	4387.77
660.604	4279.23
660.796	4338.62
660.988	4307.9
661.18	4342.72
661.372	4283.33
661.563	4268.99
661.755	4262.85
661.947	4236.22
662.139	4197.31
662.331	4117.44
662.522	4193.22
662.714	3972.04
662.906	4144.06
663.097	4074.43
663.289	4133.82
663.481	4074.43
663.673	4174.78
663.864	3992.52
664.056	4023.23
664.247	4174.78
664.439	3916.74
664.631	3906.5
664.822	3926.98
665.014	3871.68
665.205	3861.45
665.397	3791.81
665.588	3863.49
665.78	3740.61
665.971	3898.31
666.163	3945.41
666.354	3828.68
666.546	3730.38
666.737	3750.85
666.929	3709.9
667.12	3797.96
667.311	3503.05
667.503	3705.8
667.694	3685.32
667.885	3611.59
668.077	3544.01
668.268	3558.35
668.459	3623.88
668.651	3754.95
668.842	3529.67
669.033	3488.71
669.224	3496.91
669.416	3544.01
669.607	3408.84
669.798	3484.62
669.989	3490.76
670.18	3417.04
670.371	3347.4
670.563	3242.96
670.754	3412.94
670.945	3402.7
671.136	3406.8
671.327	3421.13
671.518	3451.85
671.709	3290.06
671.9	3412.94
672.091	3314.64
672.282	3263.44
672.473	3365.84
672.664	3306.45
672.855	3181.52
673.046	3345.36
673.237	3380.17
673.428	3259.34
673.619	3374.03
673.809	3238.86
674	3304.4
674.191	3298.25
674.382	3107.79
674.573	3197.9
674.764	3187.66
674.954	3263.44
675.145	3210.19
675.336	3277.77
675.527	3179.47
675.717	3130.32
675.908	3124.18
676.099	3140.56
676.289	3161.04
676.48	3167.18
676.671	3220.43
676.861	3036.11
677.052	3144.66
677.243	3136.46
677.433	3144.66
677.624	3025.87
677.814	3001.3
678.005	2968.53
678.195	3195.86
678.386	2925.52
678.576	3062.74
678.767	2931.67
678.957	2984.91
679.148	2978.77
679.338	3027.92
679.529	3007.44
679.719	3095.5
679.909	3103.7
680.1	3044.31
680.29	3032.02
680.481	2870.23
680.671	3101.65
680.861	2892.76
681.052	2870.23
681.242	2888.66
681.432	2909.14
681.622	2870.23
681.813	2859.99
682.003	2882.52
682.193	2845.65
682.383	2925.52
682.573	2941.91
682.764	2950.1
682.954	2862.04
683.144	3001.3
683.334	2825.17
683.524	2886.61
683.714	2972.63
683.904	2913.24
684.094	2835.41
684.284	2888.66
684.474	2976.72
684.664	2872.28
684.854	2784.21
685.044	2812.89
685.234	2853.84
685.424	2808.79
685.614	2847.7
685.804	2771.93
685.994	2690.01
686.184	2780.12
686.374	2851.8
686.564	2796.5
686.753	2794.45
686.943	2704.34
687.133	2632.66
687.323	2741.21
687.513	2733.01
687.702	2681.82
687.892	2653.14
688.082	2640.86
688.272	2485.21
688.461	2642.9
688.651	2552.79
688.841	2636.76
689.03	2624.47
689.22	2665.43
689.41	2503.64
689.599	2616.28
689.789	2575.32
689.979	2616.28
690.168	2452.44
690.358	2517.98
690.547	2495.45
690.737	2534.36
690.926	2462.68
691.116	2391
691.305	2481.11
691.495	2378.72
691.684	2513.88
691.874	2573.27
692.063	2425.82
692.252	2517.98
692.442	2362.33
692.631	2380.76
692.82	2395.1
693.01	2350.04
693.199	2214.88
693.388	2282.46
693.578	2323.42
693.767	2284.51
693.956	2294.75
694.146	2276.32
694.335	2233.31
694.524	2200.54
694.713	2194.4
694.902	2296.8
695.092	2255.84
695.281	2223.07
695.47	2178.01
695.659	2190.3
695.848	2274.27
696.037	2206.69
696.226	2253.79
696.415	2130.91
696.604	2231.26
696.793	2155.49
696.982	2257.89
697.171	2145.25
697.36	2014.18
697.549	2061.28
697.738	2038.75
697.927	2120.67
698.116	2067.42
698.305	2075.62
698.494	2167.77
698.683	2139.1
698.872	2010.08
699.061	2092
699.25	2137.06
699.438	2042.85
699.627	1956.83
699.816	2143.2
700.005	2026.47
700.193	1985.51
700.382	1997.79
700.571	2034.66
700.76	2026.47
700.948	1981.41
701.137	1938.4
701.326	2096.1
701.514	2051.04
701.703	2012.13
701.892	2067.42
702.08	2065.38
702.269	2059.23
702.457	1944.55
702.646	1993.7
702.834	1928.16
703.023	1919.97
703.212	1997.79
703.4	2069.47
703.589	1850.34
703.777	1919.97
703.965	2024.42
704.154	1870.82
704.342	1887.2
704.531	1995.75
704.719	1977.31
704.907	2012.13
705.096	2005.99
705.284	1899.49
705.472	1979.36
705.661	1997.79
705.849	1897.44
706.037	1989.6
706.226	1930.21
706.414	1889.25
706.602	1956.83
706.79	1891.3
706.979	1932.26
707.167	1897.44
707.355	1846.24
707.543	2001.89
707.731	1952.74
707.919	1932.26
708.107	1936.35
708.296	1833.96
708.484	1749.99
708.672	1973.22
708.86	1979.36
709.048	1950.69
709.236	1856.48
709.424	2073.57
709.612	1944.55
709.8	1870.82
709.988	1952.74
710.176	1809.38
710.364	1944.55
710.551	1870.82
710.739	1870.82
710.927	1919.97
711.115	1852.39
711.303	1985.51
711.491	1938.4
711.679	1854.44
711.866	1909.73
712.054	1905.63
712.242	1928.16
712.43	1860.58
712.617	1946.59
712.805	1950.69
712.993	1829.86
713.181	1977.31
713.368	1924.07
713.556	1977.31
713.744	1815.52
713.931	2024.42
714.119	1954.79
714.306	1965.03
714.494	1993.7
714.682	2001.89
714.869	1895.4
715.057	1975.27
715.244	2005.99
715.432	1864.68
715.619	1952.74
715.807	1928.16
715.994	1926.11
716.182	1836
716.369	1981.41
716.556	1946.59
716.744	1838.05
716.931	1868.77
717.119	1907.68
717.306	1917.92
717.493	1891.3
717.681	1936.35
717.868	1956.83
718.055	1960.93
718.242	2014.18
718.43	1928.16
718.617	2020.32
718.804	1887.2
718.991	2005.99
719.179	1879.01
719.366	1922.02
719.553	1887.2
719.74	1952.74
719.927	1936.35
720.114	1854.44
720.301	1991.65
720.488	1868.77
720.676	1840.1
720.863	2014.18
721.05	2106.34
721.237	1971.17
721.424	2085.86
721.611	1870.82
721.798	1827.81
721.985	1954.79
722.172	1960.93
722.358	2003.94
722.545	1985.51
722.732	2001.89
722.919	1899.49
723.106	1879.01
723.293	1967.07
723.48	1936.35
723.667	1977.31
723.853	1973.22
724.04	2020.32
724.227	2018.27
724.414	2042.85
724.6	1840.1
724.787	2026.47
724.974	1915.87
725.161	2001.89
725.347	1938.4
725.534	1946.59
725.72	2071.52
725.907	1917.92
726.094	2053.09
726.28	2005.99
726.467	1965.03
726.653	1985.51
726.84	2063.33
727.027	2034.66
727.213	1977.31
727.4	2102.24
727.586	2010.08
727.773	1928.16
727.959	2048.99
728.145	2059.23
728.332	2010.08
728.518	1989.6
728.705	2092
728.891	2018.27
729.077	1969.12
729.264	2071.52
729.45	1989.6
729.636	2147.3
729.823	2075.62
730.009	1977.31
730.195	1977.31
730.382	2065.38
730.568	2145.25
730.754	2169.82
730.94	1944.55
731.126	2067.42
731.313	2053.09
731.499	1969.12
731.685	2012.13
731.871	2098.14
732.057	2116.58
732.243	2040.8
732.429	2147.3
732.615	1967.07
732.801	2069.47
732.987	2135.01
733.173	1866.72
733.359	2053.09
733.545	2098.14
733.731	2071.52
733.917	2079.71
734.103	2003.94
734.289	2053.09
734.475	2145.25
734.661	2069.47
734.847	2059.23
735.033	2112.48
735.219	2100.19
735.404	2051.04
735.59	2124.77
735.776	2149.34
735.962	2040.8
736.148	2169.82
736.333	2030.56
736.519	2120.67
736.705	2135.01
736.89	2198.49
737.076	2063.33
737.262	1969.12
737.447	1919.97
737.633	1903.59
737.819	2067.42
738.004	2069.47
738.19	2018.27
738.375	2010.08
738.561	2063.33
738.747	2089.95
738.932	2026.47
739.118	2075.62
739.303	2061.28
739.489	1969.12
739.674	2028.51
739.859	2042.85
740.045	2038.75
740.23	2026.47
740.416	1909.73
740.601	2132.96
740.786	1965.03
740.972	1952.74
741.157	1989.6
741.342	2089.95
741.528	1944.55
741.713	1887.2
741.898	1960.93
742.084	2026.47
742.269	1991.65
742.454	1946.59
742.639	2059.23
742.824	1979.36
743.01	1977.31
743.195	1944.55
743.38	2038.75
743.565	2059.23
743.75	1885.16
743.935	1805.28
744.12	2073.57
744.305	1866.72
744.49	1907.68
744.675	1889.25
744.86	1907.68
745.045	1885.16
745.23	1895.4
745.415	1895.4
745.6	1825.76
745.785	1848.29
745.97	1889.25
746.155	1848.29
746.34	1788.9
746.525	1784.8
746.71	1756.13
746.895	1825.76
747.079	1846.24
747.264	1821.67
747.449	1745.89
747.634	1725.41
747.819	1831.91
748.003	1725.41
748.188	1659.88
748.373	1676.26
748.557	1827.81
748.742	1790.95
748.927	1659.88
749.111	1674.21
749.296	1690.6
749.481	1702.89
749.665	1616.87
749.85	1709.03
750.034	1629.16
750.219	1620.97
750.404	1655.78
750.588	1657.83
750.773	1563.62
750.957	1694.69
751.141	1659.88
751.326	1510.38
751.51	1510.38
751.695	1610.73
751.879	1545.19
752.064	1575.91
752.248	1571.82
752.432	1504.23
752.617	1545.19
752.801	1453.03
752.985	1485.8
753.17	1485.8
753.354	1463.27
753.538	1461.23
753.722	1387.5
753.907	1471.47
754.091	1453.03
754.275	1424.36
754.459	1395.69
754.643	1348.59
754.828	1407.98
755.012	1315.82
755.196	1410.03
755.38	1422.31
755.564	1358.83
755.748	1252.33
755.932	1272.81
756.116	1356.78
756.3	1383.4
756.484	1313.77
756.668	1246.19
756.852	1272.81
757.036	1217.52
757.22	1252.33
757.404	1289.2
757.588	1252.33
757.772	1281
757.956	1217.52
758.14	1326.06
758.323	1215.47
758.507	1250.28
758.691	1133.55
758.875	1264.62
759.059	1256.43
759.242	1115.12
759.426	1211.37
759.61	1213.42
759.794	1207.28
759.977	1080.3
760.161	1217.52
760.345	1168.37
760.528	1205.23
760.712	1229.81
760.895	1119.21
761.079	1174.51
761.263	1051.63
761.446	1131.5
761.63	1006.58
761.813	1092.59
761.997	961.52
762.18	1108.98
762.364	1117.17
762.547	1070.06
762.731	1092.59
762.914	1070.06
763.098	994.29
763.281	1051.63
763.464	1053.68
763.648	1090.54
763.831	984.05
764.015	986.1
764.198	1158.13
764.381	996.34
764.564	1043.44
764.748	1035.25
764.931	969.71
765.114	904.18
765.297	1025.01
765.481	875.51
765.664	912.37
765.847	1082.35
766.03	914.42
766.213	926.71
766.397	863.22
766.58	875.51
766.763	1006.58
766.946	920.56
767.129	973.81
767.312	926.71
767.495	887.79
767.678	898.03
767.861	906.23
768.044	881.65
768.227	945.14
768.41	1016.82
768.593	891.89
768.776	904.18
768.959	900.08
769.142	908.27
769.324	822.26
769.507	842.74
769.69	863.22
769.873	912.37
770.056	924.66
770.239	881.65
770.421	920.56
770.604	834.55
770.787	807.92
770.97	818.16
771.152	769.01
771.335	830.45
771.518	791.54
771.7	785.4
771.883	842.74
772.066	769.01
772.248	777.2
772.431	916.47
772.613	828.4
772.796	797.68
772.978	807.92
773.161	838.64
773.343	822.26
773.526	717.81
773.708	799.73
773.891	740.34
774.073	791.54
774.256	715.77
774.438	855.03
774.621	777.2
774.803	715.77
774.985	773.11
775.168	748.53
775.35	826.36
775.532	752.63
775.715	699.38
775.897	750.58
776.079	683
776.261	830.45
776.444	646.13
776.626	658.42
776.808	644.09
776.99	648.18
777.173	658.42
777.355	742.39
777.537	683
777.719	666.61
777.901	711.67
778.083	609.27
778.265	719.86
778.447	517.11
778.629	644.09
778.811	629.75
778.993	687.09
779.175	601.08
779.357	603.13
779.539	627.7
779.721	613.37
779.903	580.6
780.085	642.04
780.267	619.51
780.449	592.89
780.631	633.85
780.812	553.98
780.994	588.79
781.176	594.93
781.358	582.65
781.54	513.02
781.721	594.93
781.903	572.41
782.085	627.7
782.267	578.55
782.448	513.02
782.63	470.01
782.812	572.41
782.993	494.58
783.175	584.7
783.357	486.39
783.538	525.3
783.72	496.63
783.901	519.16
784.083	447.48
784.264	470.01
784.446	441.34
784.627	398.33
784.809	537.59
784.99	461.82
785.172	478.2
785.353	480.25
785.535	431.1
785.716	480.25
785.897	429.05
786.079	455.67
786.26	388.09
786.441	457.72
786.623	416.76
786.804	396.28
786.985	498.68
787.167	437.24
787.348	416.76
787.529	404.47
787.71	408.57
787.891	490.49
788.073	322.56
788.254	322.56
788.435	445.43
788.616	435.19
788.797	349.18
788.978	386.04
789.159	392.19
789.34	476.15
789.522	349.18
789.703	361.47
789.884	340.99
790.065	371.71
790.246	453.63
790.427	373.75
790.607	351.23
790.788	265.21
790.969	338.94
791.15	404.47
791.331	263.16
791.512	273.4
791.693	347.13
791.874	375.8
792.054	371.71
792.235	406.52
792.416	334.84
792.597	283.64
792.778	240.64
792.958	355.32
793.139	304.12
793.32	295.93
793.5	289.79
793.681	334.84
793.862	265.21
794.042	322.56
794.223	314.36
794.404	269.31
794.584	324.6
794.765	252.92
794.945	246.78
795.126	283.64
795.306	232.44
795.487	265.21
795.667	191.49
795.848	297.98
796.028	259.07
796.209	308.22
796.389	277.5
796.57	248.83
796.75	248.83
796.93	314.36
797.111	304.12
797.291	291.84
797.471	252.92
797.652	300.03
797.832	232.44
798.012	318.46
798.192	207.87
798.373	224.25
798.553	205.82
798.733	281.6
798.913	279.55
799.093	273.4
799.274	216.06
799.454	250.88
799.634	306.17
799.814	277.5
799.994	220.16
800.174	289.79
800.354	297.98
800.534	232.44
800.714	207.87
800.894	269.31
801.074	244.73
801.254	228.35
801.434	261.12
801.614	257.02
801.794	177.15
801.974	723.96
802.154	197.63
802.334	322.56
802.514	134.14
802.693	257.02
802.873	197.63
803.053	211.96
803.233	273.4
803.413	207.87
803.592	214.01
803.772	207.87
803.952	191.49
804.131	226.3
804.311	164.86
804.491	240.64
804.67	265.21
804.85	211.96
805.03	185.34
805.209	209.92
805.389	171.01
805.568	168.96
805.748	175.1
805.928	277.5
806.107	211.96
806.287	187.39
806.466	189.44
806.646	189.44
806.825	199.68
807.004	234.49
807.184	175.1
807.363	218.11
807.543	158.72
807.722	185.34
807.901	148.48
808.081	244.73
808.26	187.39
808.439	195.58
808.619	209.92
808.798	138.24
808.977	125.95
809.156	273.4
809.336	216.06
809.515	152.57
809.694	158.72
809.873	230.4
810.052	177.15
810.231	173.05
810.411	203.77
810.59	179.2
810.769	162.81
810.948	201.72
811.127	142.33
811.306	181.25
811.485	93.18
811.664	211.96
811.843	166.91
812.022	91.13
812.201	177.15
812.38	207.87
812.559	158.72
812.737	230.4
812.916	113.66
813.095	148.48
813.274	211.96
813.453	209.92
813.632	146.43
813.811	189.44
813.989	113.66
814.168	179.2
814.347	226.3
814.526	103.42
814.704	166.91
814.883	216.06
815.062	179.2
815.24	150.53
815.419	99.33
815.598	162.81
815.776	152.57
815.955	154.62
816.133	185.34
816.312	109.57
816.49	138.24
816.669	132.09
816.847	168.96
817.026	150.53
817.204	136.19
817.383	166.91
817.561	150.53
817.74	125.95
817.918	181.25
818.097	125.95
818.275	101.37
818.453	201.72
818.632	101.37
818.81	84.99
818.988	125.95
819.167	105.47
819.345	76.8
819.523	156.67
819.701	62.46
819.879	164.86
820.058	68.61
820.236	138.24
820.414	125.95
820.592	97.28
820.77	121.85
820.948	117.76
821.127	119.81
821.305	60.42
821.483	119.81
821.661	158.72
821.839	91.13
822.017	97.28
822.195	27.65
822.373	134.14
822.551	41.98
822.729	140.29
822.907	134.14
823.085	128
823.262	111.61
823.44	87.04
823.618	84.99
823.796	160.77
823.974	103.42
824.152	109.57
824.329	117.76
824.507	35.84
824.685	101.37
824.863	121.85
825.04	130.05
825.218	125.95
825.396	44.03
825.574	80.89
825.751	39.94
825.929	78.85
826.107	64.51
826.284	80.89
826.462	111.61
826.639	166.91
826.817	48.13
826.994	19.46
827.172	46.08
827.349	82.94
827.527	101.37
827.704	76.8
827.882	144.38
828.059	76.8
828.237	103.42
828.414	132.09
828.591	31.74
828.769	113.66
828.946	52.22
829.124	121.85
829.301	117.76
829.478	33.79
829.655	80.89
829.833	48.13
830.01	-3.07
830.187	66.56
830.364	84.99
830.542	52.22
830.719	72.7
830.896	70.65
831.073	78.85
831.25	78.85
831.427	52.22
831.604	84.99
831.782	87.04
831.959	166.91
832.136	41.98
832.313	44.03
832.49	5.12
832.667	105.47
832.844	39.94
833.021	136.19
833.198	19.46
833.374	87.04
833.551	125.95
833.728	89.09
833.905	95.23
834.082	3.07
834.259	87.04
834.436	107.52
834.612	70.65
834.789	234.49
834.966	35.84
835.143	117.76
835.319	60.42
835.496	109.57
835.673	76.8
835.85	119.81
836.026	84.99
836.203	117.76
836.38	89.09
836.556	117.76
836.733	27.65
836.909	93.18
837.086	-46.08
837.262	54.27
837.439	-5.12
837.616	87.04
837.792	68.61
837.968	93.18
838.145	-9.22
838.321	5.12
838.498	99.33
838.674	76.8
838.851	35.84
839.027	103.42
839.203	60.42
839.38	76.8
839.556	97.28
839.732	68.61
839.909	56.32
840.085	95.23
840.261	52.22
840.437	48.13
840.614	5.12
840.79	109.57
840.966	97.28
841.142	84.99
841.318	-5.12
841.494	46.08
841.671	-37.89
841.847	25.6
842.023	25.6
842.199	60.42
842.375	76.8
842.551	107.52
842.727	-39.94
842.903	130.05
843.079	37.89
843.255	87.04
843.431	31.74
843.607	101.37
843.783	56.32
843.959	123.9
844.134	80.89
844.31	93.18
844.486	19.46
844.662	5.12
844.838	101.37
845.013	89.09
845.189	-1.02
845.365	-46.08
845.541	-5.12
845.716	29.7
845.892	99.33
846.068	7.17
846.244	19.46
846.419	54.27
846.595	-19.46
846.77	17.41
846.946	99.33
847.122	27.65
847.297	25.6
847.473	39.94
847.648	-1.02
847.824	89.09
847.999	-52.22
848.175	56.32
848.35	95.23
848.526	84.99
848.701	74.75
848.876	19.46
849.052	-7.17
849.227	27.65
849.403	64.51
849.578	48.13
849.753	56.32
849.929	66.56
850.104	15.36
850.279	54.27
850.454	60.42
850.63	80.89
850.805	44.03
850.98	39.94
851.155	23.55
851.33	27.65
851.505	48.13
851.681	97.28
851.856	37.89
852.031	119.81
852.206	33.79
852.381	35.84
852.556	44.03
852.731	46.08
852.906	31.74
853.081	134.14
853.256	58.37
853.431	-27.65
853.606	1.02
853.781	78.85
853.956	-5.12
854.131	60.42
854.305	60.42
854.48	-9.22
854.655	-5.12
854.83	11.26
855.005	11.26
855.18	84.99
855.354	35.84
855.529	33.79
855.704	64.51
855.879	82.94
856.053	84.99
856.228	50.18
856.403	-11.26
856.577	44.03
856.752	-72.7
856.926	56.32
857.101	-5.12
857.276	-37.89
857.45	27.65
857.625	54.27
857.799	39.94
857.974	-21.5
858.148	-27.65
858.323	7.17
858.497	35.84
858.672	-5.12
858.846	13.31
859.02	-21.5
859.195	-21.5
859.369	-21.5
859.543	72.7
859.718	44.03
859.892	31.74
860.066	13.31
860.241	15.36
860.415	66.56
860.589	97.28
860.763	15.36
860.938	11.26
861.112	109.57
861.286	25.6
861.46	27.65
861.634	52.22
861.808	76.8
861.982	35.84
862.157	19.46
862.331	19.46
862.505	-19.46
862.679	5.12
862.853	27.65
863.027	27.65
863.201	136.19
863.375	-44.03
863.549	19.46
863.722	29.7
863.896	76.8
864.07	-76.8
864.244	60.42
864.418	60.42
864.592	46.08
864.766	56.32
864.939	121.85
865.113	62.46
865.287	46.08
865.461	-5.12
865.634	60.42
865.808	-29.7
865.982	11.26
866.156	44.03
866.329	19.46
866.503	-5.12
866.676	78.85
866.85	-54.27
867.024	-37.89
867.197	37.89
867.371	97.28
867.544	-66.56
867.718	3.07
867.891	29.7
868.065	27.65
868.238	-17.41
868.412	17.41
868.585	-39.94
868.759	-68.61
868.932	66.56
869.105	-58.37
869.279	-15.36
869.452	-31.74
869.625	125.95
869.799	-5.12
869.972	9.22
870.145	29.7
870.319	80.89
870.492	-1.02
870.665	35.84
870.838	41.98
871.011	-13.31
871.185	-66.56
871.358	72.7
871.531	-54.27
871.704	39.94
871.877	11.26
872.05	-15.36
872.223	35.84
872.396	76.8
872.569	3.07
872.742	-13.31
872.915	-37.89
873.088	-7.17
873.261	44.03
873.434	60.42
873.607	-9.22
873.78	27.65
873.953	-54.27
874.126	-60.42
874.299	5.12
874.471	54.27
874.644	11.26
874.817	50.18
874.99	78.85
875.163	37.89
875.335	3.07
875.508	66.56
875.681	91.13
875.853	1.02
876.026	-1.02
876.199	15.36
876.371	23.55
876.544	-29.7
876.717	68.61
876.889	-15.36
877.062	15.36
877.234	-60.42
877.407	-64.51
877.579	-35.84
877.752	31.74
877.924	107.52
878.097	23.55
878.269	-13.31
878.442	60.42
878.614	-7.17
878.786	-15.36
878.959	-9.22
879.131	-13.31
879.303	27.65
879.476	37.89
879.648	-9.22
879.82	-11.26
879.993	1.02
880.165	29.7
880.337	-62.46
880.509	-25.6
880.681	-19.46
880.854	7.17
881.026	17.41
881.198	84.99
881.37	54.27
881.542	27.65
881.714	-56.32
881.886	107.52
882.058	29.7
882.23	-17.41
882.402	25.6
882.574	3.07
882.746	-72.7
882.918	48.13
883.09	-52.22
883.262	37.89
883.434	93.18
883.606	-70.65
883.778	-44.03
883.95	95.23
884.122	27.65
884.293	68.61
884.465	15.36
884.637	-46.08
884.809	5.12
884.98	23.55
885.152	5.12
885.324	60.42
885.496	-27.65
885.667	-13.31
885.839	11.26
886.011	15.36
886.182	37.89
886.354	39.94
886.525	-35.84
886.697	39.94
886.869	19.46
887.04	3.07
887.212	-11.26
887.383	52.22
887.555	-5.12
887.726	-13.31
887.897	1.02
888.069	11.26
888.24	72.7
888.412	25.6
888.583	-31.74
888.754	80.89
888.926	19.46
889.097	11.26
889.268	31.74
889.44	9.22
889.611	-21.5
889.782	44.03
889.953	-27.65
890.125	60.42
890.296	19.46
890.467	48.13
890.638	-54.27
890.809	-5.12
890.98	56.32
891.151	-62.46
891.323	-21.5
891.494	74.75
891.665	23.55
891.836	13.31
892.007	37.89
892.178	19.46
892.349	72.7
892.52	82.94
892.691	3.07
892.862	68.61
893.032	-70.65
893.203	11.26
893.374	29.7
893.545	35.84
893.716	-31.74
893.887	74.75
894.057	-3.07
894.228	-9.22
894.399	27.65
894.57	101.37
894.74	3.07
894.911	-3.07
895.082	1.02
895.253	-21.5
895.423	15.36
895.594	50.18
895.764	11.26
895.935	50.18
896.106	101.37
896.276	21.5
896.447	7.17
896.617	-1.02
896.788	-37.89
896.958	-13.31
897.129	-58.37
897.299	5.12
897.47	3.07
897.64	-35.84
897.81	-19.46
897.981	19.46
898.151	-74.75
898.322	-13.31
898.492	3.07
898.662	-19.46
898.832	27.65
899.003	-5.12
899.173	-29.7
899.343	13.31
899.513	23.55
