Data from USB4F104151__306__14-46-41-790.txt Node

Date: Thu Mar 13 14:46:41 EDT 2025
User: louis
Spectrometer: USB4F10415
Trigger mode: 4
Integration Time (sec): 2.000000E-2
Scans to average: 1
Electric dark correction enabled: true
Nonlinearity correction enabled: false
Boxcar width: 0
XAxis mode: Wavelengths
Number of Pixels in Spectrum: 3648
>>>>>Begin Spectral Data<<<<<
178.204	-113.66
178.424	-113.66
178.644	-113.66
178.864	-160.77
179.084	-44.03
179.304	-82.94
179.524	17.41
179.744	29.7
179.964	-1.02
180.184	-27.65
180.404	35.84
180.624	52.22
180.844	-5.12
181.064	-33.79
181.283	19.46
181.503	-41.98
181.723	37.89
181.943	-70.65
182.163	74.75
182.383	-35.84
182.602	-5.12
182.822	50.18
183.042	11.26
183.262	21.5
183.482	46.08
183.701	60.42
183.921	5.12
184.141	15.36
184.361	-13.31
184.58	35.84
184.8	5.12
185.02	19.46
185.239	29.7
185.459	-3.07
185.679	5.12
185.898	-19.46
186.118	56.32
186.338	-1.02
186.557	115.71
186.777	1.02
186.997	21.5
187.216	52.22
187.436	-25.6
187.655	-58.37
187.875	41.98
188.095	-78.85
188.314	3.07
188.534	11.26
188.753	-74.75
188.973	-27.65
189.192	60.42
189.412	29.7
189.631	44.03
189.851	11.26
190.07	11.26
190.29	11.26
190.509	21.5
190.729	11.26
190.948	80.89
191.168	128
191.387	91.13
191.607	-46.08
191.826	1.02
192.045	-11.26
192.265	62.46
192.484	7.17
192.704	60.42
192.923	11.26
193.142	11.26
193.362	64.51
193.581	54.27
193.8	52.22
194.02	76.8
194.239	60.42
194.458	56.32
194.678	-13.31
194.897	50.18
195.116	-19.46
195.335	15.36
195.555	84.99
195.774	25.6
195.993	-29.7
196.212	70.65
196.432	-60.42
196.651	-37.89
196.87	68.61
197.089	27.65
197.308	48.13
197.528	44.03
197.747	-25.6
197.966	29.7
198.185	80.89
198.404	-1.02
198.623	-17.41
198.842	60.42
199.062	64.51
199.281	27.65
199.5	113.66
199.719	-70.65
199.938	39.94
200.157	19.46
200.376	48.13
200.595	11.26
200.814	-13.31
201.033	15.36
201.252	15.36
201.471	21.5
201.69	3.07
201.909	-1.02
202.128	-7.17
202.347	87.04
202.566	37.89
202.785	-29.7
203.004	35.84
203.223	72.7
203.442	19.46
203.661	3.07
203.879	52.22
204.098	17.41
204.317	3.07
204.536	-5.12
204.755	-41.98
204.974	9.22
205.193	46.08
205.411	54.27
205.63	17.41
205.849	11.26
206.068	21.5
206.287	48.13
206.505	68.61
206.724	44.03
206.943	-52.22
207.162	87.04
207.381	29.7
207.599	-13.31
207.818	37.89
208.037	52.22
208.255	5.12
208.474	93.18
208.693	1.02
208.911	13.31
209.13	82.94
209.349	23.55
209.567	29.7
209.786	19.46
210.005	50.18
210.223	-3.07
210.442	-62.46
210.661	-44.03
210.879	-50.18
211.098	60.42
211.316	-56.32
211.535	11.26
211.753	-31.74
211.972	25.6
212.191	44.03
212.409	48.13
212.628	-68.61
212.846	-19.46
213.065	19.46
213.283	72.7
213.502	-68.61
213.72	11.26
213.938	-15.36
214.157	-5.12
214.375	3.07
214.594	46.08
214.812	46.08
215.031	41.98
215.249	-11.26
215.467	37.89
215.686	11.26
215.904	-66.56
216.122	-54.27
216.341	84.99
216.559	31.74
216.778	52.22
216.996	70.65
217.214	44.03
217.432	-66.56
217.651	39.94
217.869	-54.27
218.087	-37.89
218.306	-21.5
218.524	80.89
218.742	29.7
218.96	-17.41
219.179	19.46
219.397	7.17
219.615	138.24
219.833	60.42
220.051	13.31
220.27	15.36
220.488	27.65
220.706	-27.65
220.924	52.22
221.142	21.5
221.36	21.5
221.578	37.89
221.796	-13.31
222.015	19.46
222.233	-35.84
222.451	48.13
222.669	78.85
222.887	-13.31
223.105	-29.7
223.323	-91.13
223.541	11.26
223.759	-3.07
223.977	-52.22
224.195	-9.22
224.413	35.84
224.631	72.7
224.849	1.02
225.067	-62.46
225.285	46.08
225.503	21.5
225.721	-15.36
225.939	-11.26
226.157	66.56
226.375	62.46
226.592	1.02
226.81	58.37
227.028	17.41
227.246	-21.5
227.464	-17.41
227.682	21.5
227.9	35.84
228.117	23.55
228.335	78.85
228.553	15.36
228.771	41.98
228.989	23.55
229.206	21.5
229.424	11.26
229.642	15.36
229.86	-29.7
230.077	21.5
230.295	5.12
230.513	-31.74
230.731	35.84
230.948	31.74
231.166	54.27
231.384	-11.26
231.601	-17.41
231.819	31.74
232.037	3.07
232.254	-29.7
232.472	44.03
232.689	-5.12
232.907	27.65
233.125	35.84
233.342	80.89
233.56	-1.02
233.777	35.84
233.995	-21.5
234.213	-11.26
234.43	48.13
234.648	13.31
234.865	9.22
235.083	35.84
235.3	21.5
235.518	-1.02
235.735	62.46
235.953	52.22
236.17	23.55
236.388	15.36
236.605	87.04
236.822	76.8
237.04	-13.31
237.257	-13.31
237.475	-11.26
237.692	27.65
237.909	-37.89
238.127	-29.7
238.344	35.84
238.562	-35.84
238.779	-117.76
238.996	19.46
239.214	62.46
239.431	31.74
239.648	5.12
239.865	35.84
240.083	27.65
240.3	5.12
240.517	-25.6
240.735	-1.02
240.952	93.18
241.169	76.8
241.386	60.42
241.603	11.26
241.821	-35.84
242.038	17.41
242.255	-62.46
242.472	11.26
242.689	68.61
242.907	48.13
243.124	-17.41
243.341	-25.6
243.558	21.5
243.775	-44.03
243.992	-41.98
244.209	3.07
244.426	93.18
244.643	39.94
244.86	-25.6
245.078	62.46
245.295	52.22
245.512	31.74
245.729	-29.7
245.946	52.22
246.163	52.22
246.38	66.56
246.597	80.89
246.814	-54.27
247.031	21.5
247.248	11.26
247.464	-9.22
247.681	56.32
247.898	130.05
248.115	27.65
248.332	7.17
248.549	54.27
248.766	-35.84
248.983	54.27
249.2	3.07
249.417	13.31
249.633	-11.26
249.85	89.09
250.067	-37.89
250.284	35.84
250.501	-33.79
250.717	15.36
250.934	58.37
251.151	31.74
251.368	7.17
251.585	84.99
251.801	35.84
252.018	11.26
252.235	7.17
252.451	-68.61
252.668	-3.07
252.885	15.36
253.102	41.98
253.318	-54.27
253.535	17.41
253.752	44.03
253.968	-37.89
254.185	-29.7
254.401	56.32
254.618	93.18
254.835	-29.7
255.051	35.84
255.268	66.56
255.484	76.8
255.701	-29.7
255.917	48.13
256.134	11.26
256.351	-21.5
256.567	5.12
256.784	117.76
257	13.31
257.217	50.18
257.433	60.42
257.65	76.8
257.866	-11.26
258.082	27.65
258.299	23.55
258.515	21.5
258.732	48.13
258.948	-1.02
259.165	-50.18
259.381	-29.7
259.597	-17.41
259.814	15.36
260.03	5.12
260.246	39.94
260.463	44.03
260.679	37.89
260.895	-27.65
261.112	-9.22
261.328	11.26
261.544	-29.7
261.761	62.46
261.977	64.51
262.193	37.89
262.409	58.37
262.626	35.84
262.842	80.89
263.058	44.03
263.274	62.46
263.49	11.26
263.707	-37.89
263.923	-21.5
264.139	-58.37
264.355	62.46
264.571	31.74
264.787	-58.37
265.004	-25.6
265.22	48.13
265.436	19.46
265.652	-9.22
265.868	-29.7
266.084	-15.36
266.3	23.55
266.516	31.74
266.732	-58.37
266.948	117.76
267.164	15.36
267.38	-25.6
267.596	-19.46
267.812	56.32
268.028	-13.31
268.244	-33.79
268.46	84.99
268.676	21.5
268.892	41.98
269.108	72.7
269.324	60.42
269.54	27.65
269.756	58.37
269.972	-37.89
270.188	-19.46
270.403	-62.46
270.619	35.84
270.835	11.26
271.051	27.65
271.267	-1.02
271.483	-29.7
271.698	31.74
271.914	-54.27
272.13	-29.7
272.346	41.98
272.562	27.65
272.777	68.61
272.993	15.36
273.209	-3.07
273.425	31.74
273.64	52.22
273.856	7.17
274.072	-13.31
274.287	1.02
274.503	11.26
274.719	-1.02
274.934	56.32
275.15	-78.85
275.366	-33.79
275.581	-37.89
275.797	25.6
276.012	33.79
276.228	82.94
276.444	33.79
276.659	-1.02
276.875	13.31
277.09	-5.12
277.306	15.36
277.521	-5.12
277.737	-52.22
277.952	-23.55
278.168	5.12
278.383	-48.13
278.599	25.6
278.814	44.03
279.03	17.41
279.245	56.32
279.461	46.08
279.676	-11.26
279.892	-7.17
280.107	23.55
280.322	-1.02
280.538	-17.41
280.753	-54.27
280.969	68.61
281.184	48.13
281.399	-19.46
281.615	35.84
281.83	64.51
282.045	-44.03
282.26	-11.26
282.476	23.55
282.691	46.08
282.906	48.13
283.122	-1.02
283.337	-44.03
283.552	117.76
283.767	-19.46
283.983	31.74
284.198	-33.79
284.413	11.26
284.628	1.02
284.843	44.03
285.058	44.03
285.274	-13.31
285.489	5.12
285.704	89.09
285.919	37.89
286.134	-11.26
286.349	-39.94
286.564	-39.94
286.779	-1.02
286.995	-50.18
287.21	-11.26
287.425	37.89
287.64	37.89
287.855	15.36
288.07	-41.98
288.285	80.89
288.5	-1.02
288.715	29.7
288.93	11.26
289.145	15.36
289.36	29.7
289.575	-29.7
289.79	89.09
290.004	19.46
290.219	54.27
290.434	52.22
290.649	19.46
290.864	21.5
291.079	13.31
291.294	64.51
291.509	19.46
291.724	-37.89
291.938	-9.22
292.153	54.27
292.368	-13.31
292.583	-78.85
292.798	48.13
293.012	35.84
293.227	-54.27
293.442	48.13
293.657	35.84
293.871	31.74
294.086	76.8
294.301	52.22
294.516	11.26
294.73	-44.03
294.945	78.85
295.16	-13.31
295.374	-44.03
295.589	117.76
295.804	35.84
296.018	-27.65
296.233	-11.26
296.447	78.85
296.662	-25.6
296.877	56.32
297.091	-27.65
297.306	44.03
297.52	5.12
297.735	19.46
297.949	62.46
298.164	93.18
298.378	84.99
298.593	62.46
298.807	7.17
299.022	25.6
299.236	-78.85
299.451	-17.41
299.665	-11.26
299.88	84.99
300.094	29.7
300.309	25.6
300.523	15.36
300.737	50.18
300.952	-3.07
301.166	87.04
301.381	-41.98
301.595	93.18
301.809	-11.26
302.024	19.46
302.238	11.26
302.452	11.26
302.667	19.46
302.881	35.84
303.095	-25.6
303.309	27.65
303.524	19.46
303.738	62.46
303.952	-33.79
304.166	44.03
304.381	-29.7
304.595	5.12
304.809	132.09
305.023	7.17
305.237	-21.5
305.452	23.55
305.666	31.74
305.88	44.03
306.094	-27.65
306.308	39.94
306.522	19.46
306.736	48.13
306.95	37.89
307.164	-3.07
307.379	72.7
307.593	52.22
307.807	23.55
308.021	44.03
308.235	27.65
308.449	-25.6
308.663	44.03
308.877	76.8
309.091	35.84
309.305	54.27
309.519	23.55
309.733	84.99
309.947	84.99
310.161	60.42
310.374	7.17
310.588	31.74
310.802	-48.13
311.016	35.84
311.23	78.85
311.444	-52.22
311.658	-64.51
311.872	-11.26
312.085	21.5
312.299	105.47
312.513	-3.07
312.727	3.07
312.941	80.89
313.154	35.84
313.368	-5.12
313.582	-29.7
313.796	72.7
314.009	31.74
314.223	27.65
314.437	27.65
314.651	13.31
314.864	3.07
315.078	-121.85
315.292	27.65
315.505	-5.12
315.719	54.27
315.933	5.12
316.146	15.36
316.36	60.42
316.573	80.89
316.787	-52.22
317.001	35.84
317.214	23.55
317.428	-41.98
317.641	-3.07
317.855	-25.6
318.068	-62.46
318.282	-35.84
318.495	3.07
318.709	78.85
318.922	48.13
319.136	60.42
319.349	15.36
319.563	-29.7
319.776	11.26
319.99	1.02
320.203	35.84
320.417	15.36
320.63	48.13
320.843	56.32
321.057	60.42
321.27	-46.08
321.483	-54.27
321.697	19.46
321.91	60.42
322.124	52.22
322.337	46.08
322.55	41.98
322.763	21.5
322.977	35.84
323.19	-41.98
323.403	-44.03
323.617	3.07
323.83	111.61
324.043	48.13
324.256	60.42
324.469	-44.03
324.683	33.79
324.896	29.7
325.109	-17.41
325.322	11.26
325.535	64.51
325.748	64.51
325.962	-25.6
326.175	21.5
326.388	80.89
326.601	113.66
326.814	48.13
327.027	37.89
327.24	72.7
327.453	-11.26
327.666	-17.41
327.879	-15.36
328.092	50.18
328.305	9.22
328.518	29.7
328.731	-13.31
328.944	-13.31
329.157	-1.02
329.37	-64.51
329.583	84.99
329.796	37.89
330.009	-35.84
330.222	44.03
330.435	-33.79
330.648	60.42
330.861	3.07
331.073	15.36
331.286	44.03
331.499	19.46
331.712	-29.7
331.925	52.22
332.138	27.65
332.35	78.85
332.563	-9.22
332.776	-3.07
332.989	-52.22
333.202	-5.12
333.414	-15.36
333.627	41.98
333.84	13.31
334.053	5.12
334.265	-41.98
334.478	58.37
334.691	37.89
334.903	-46.08
335.116	66.56
335.329	58.37
335.541	19.46
335.754	62.46
335.966	-44.03
336.179	-29.7
336.392	23.55
336.604	-5.12
336.817	3.07
337.029	13.31
337.242	-3.07
337.454	93.18
337.667	-3.07
337.88	-1.02
338.092	-23.55
338.305	13.31
338.517	29.7
338.729	13.31
338.942	-11.26
339.154	-17.41
339.367	68.61
339.579	46.08
339.792	15.36
340.004	-17.41
340.217	31.74
340.429	41.98
340.641	19.46
340.854	82.94
341.066	-15.36
341.278	125.95
341.491	-13.31
341.703	13.31
341.915	-1.02
342.128	7.17
342.34	52.22
342.552	11.26
342.764	7.17
342.977	-11.26
343.189	-37.89
343.401	-29.7
343.613	-76.8
343.826	15.36
344.038	84.99
344.25	11.26
344.462	41.98
344.674	11.26
344.886	41.98
345.099	52.22
345.311	76.8
345.523	48.13
345.735	-39.94
345.947	-5.12
346.159	-11.26
346.371	19.46
346.583	27.65
346.795	93.18
347.007	19.46
347.219	19.46
347.431	-48.13
347.643	58.37
347.855	-19.46
348.067	23.55
348.279	21.5
348.491	23.55
348.703	35.84
348.915	54.27
349.127	13.31
349.339	3.07
349.551	-52.22
349.763	-54.27
349.975	5.12
350.187	89.09
350.399	109.57
350.61	5.12
350.822	33.79
351.034	52.22
351.246	-13.31
351.458	97.28
351.669	21.5
351.881	76.8
352.093	56.32
352.305	48.13
352.517	91.13
352.728	97.28
352.94	39.94
353.152	5.12
353.363	-21.5
353.575	5.12
353.787	44.03
353.999	-5.12
354.21	89.09
354.422	134.14
354.633	-3.07
354.845	-15.36
355.057	21.5
355.268	-21.5
355.48	13.31
355.692	-29.7
355.903	23.55
356.115	76.8
356.326	44.03
356.538	21.5
356.749	48.13
356.961	35.84
357.172	3.07
357.384	11.26
357.595	44.03
357.807	52.22
358.018	46.08
358.23	-17.41
358.441	109.57
358.653	27.65
358.864	3.07
359.075	-5.12
359.287	64.51
359.498	74.75
359.709	52.22
359.921	-7.17
360.132	11.26
360.344	-13.31
360.555	19.46
360.766	50.18
360.977	-11.26
361.189	117.76
361.4	-50.18
361.611	91.13
361.823	52.22
362.034	1.02
362.245	-17.41
362.456	48.13
362.667	72.7
362.879	15.36
363.09	-7.17
363.301	-21.5
363.512	17.41
363.723	89.09
363.935	9.22
364.146	91.13
364.357	52.22
364.568	72.7
364.779	-66.56
364.99	35.84
365.201	50.18
365.412	89.09
365.623	15.36
365.834	46.08
366.045	37.89
366.256	44.03
366.467	27.65
366.678	103.42
366.889	52.22
367.1	97.28
367.311	-13.31
367.522	93.18
367.733	35.84
367.944	52.22
368.155	27.65
368.366	-21.5
368.577	72.7
368.788	87.04
368.999	-13.31
369.209	19.46
369.42	1.02
369.631	103.42
369.842	44.03
370.053	13.31
370.264	46.08
370.474	-37.89
370.685	7.17
370.896	31.74
371.107	74.75
371.317	-5.12
371.528	27.65
371.739	52.22
371.95	60.42
372.16	21.5
372.371	-46.08
372.582	13.31
372.792	72.7
373.003	52.22
373.214	3.07
373.424	-35.84
373.635	9.22
373.846	52.22
374.056	33.79
374.267	93.18
374.477	52.22
374.688	3.07
374.898	13.31
375.109	52.22
375.319	-7.17
375.53	46.08
375.74	21.5
375.951	39.94
376.161	68.61
376.372	37.89
376.582	101.37
376.793	-15.36
377.003	-1.02
377.214	-11.26
377.424	56.32
377.635	44.03
377.845	60.42
378.055	37.89
378.266	-9.22
378.476	62.46
378.686	-27.65
378.897	60.42
379.107	89.09
379.317	44.03
379.528	-21.5
379.738	52.22
379.948	17.41
380.158	62.46
380.369	46.08
380.579	31.74
380.789	62.46
380.999	-3.07
381.21	64.51
381.42	66.56
381.63	9.22
381.84	105.47
382.05	-19.46
382.261	37.89
382.471	95.23
382.681	17.41
382.891	48.13
383.101	70.65
383.311	-21.5
383.521	-5.12
383.731	-13.31
383.941	35.84
384.151	23.55
384.361	25.6
384.571	121.85
384.781	15.36
384.991	103.42
385.201	60.42
385.411	93.18
385.621	-11.26
385.831	54.27
386.041	78.85
386.251	64.51
386.461	72.7
386.671	78.85
386.881	78.85
387.091	-1.02
387.301	56.32
387.511	66.56
387.72	109.57
387.93	84.99
388.14	39.94
388.35	46.08
388.56	48.13
388.769	48.13
388.979	60.42
389.189	-19.46
389.399	76.8
389.609	35.84
389.818	101.37
390.028	84.99
390.238	60.42
390.447	11.26
390.657	15.36
390.867	54.27
391.076	-56.32
391.286	125.95
391.496	48.13
391.705	11.26
391.915	-37.89
392.125	44.03
392.334	3.07
392.544	91.13
392.753	101.37
392.963	-46.08
393.172	9.22
393.382	-17.41
393.591	72.7
393.801	23.55
394.01	95.23
394.22	111.61
394.429	11.26
394.639	56.32
394.848	76.8
395.058	31.74
395.267	39.94
395.477	91.13
395.686	68.61
395.895	144.38
396.105	95.23
396.314	19.46
396.524	11.26
396.733	70.65
396.942	128
397.152	105.47
397.361	101.37
397.57	62.46
397.78	70.65
397.989	160.77
398.198	175.1
398.407	-21.5
398.617	117.76
398.826	76.8
399.035	136.19
399.244	99.33
399.453	19.46
399.663	44.03
399.872	121.85
400.081	21.5
400.29	23.55
400.499	111.61
400.708	37.89
400.917	72.7
401.127	136.19
401.336	99.33
401.545	99.33
401.754	109.57
401.963	111.61
402.172	39.94
402.381	119.81
402.59	91.13
402.799	91.13
403.008	103.42
403.217	89.09
403.426	60.42
403.635	144.38
403.844	140.29
404.053	144.38
404.262	87.04
404.471	191.49
404.68	78.85
404.888	119.81
405.097	64.51
405.306	84.99
405.515	191.49
405.724	50.18
405.933	166.91
406.142	136.19
406.35	216.06
406.559	162.81
406.768	187.39
406.977	177.15
407.185	134.14
407.394	199.68
407.603	87.04
407.812	166.91
408.02	248.83
408.229	136.19
408.438	236.54
408.646	175.1
408.855	211.96
409.064	283.64
409.272	201.72
409.481	320.51
409.69	236.54
409.898	297.98
410.107	332.79
410.315	330.75
410.524	193.53
410.733	244.73
410.941	297.98
411.15	291.84
411.358	371.71
411.567	338.94
411.775	324.6
411.984	379.9
412.192	398.33
412.401	330.75
412.609	375.8
412.818	427
413.026	386.04
413.234	478.2
413.443	396.28
413.651	472.06
413.86	519.16
414.068	558.07
414.276	527.35
414.485	537.59
414.693	617.46
414.901	476.15
415.11	623.61
415.318	578.55
415.526	535.54
415.734	644.09
415.943	707.57
416.151	705.53
416.359	691.19
416.567	834.55
416.776	791.54
416.984	848.88
417.192	838.64
417.4	855.03
417.608	834.55
417.817	916.47
418.025	973.81
418.233	996.34
418.441	1020.91
418.649	1059.82
418.857	1096.69
419.065	1190.89
419.273	1137.65
419.481	1233.9
419.689	1229.81
419.897	1262.57
420.105	1350.64
420.313	1301.48
420.521	1338.35
420.729	1534.95
420.937	1403.88
421.145	1616.87
421.353	1565.67
421.561	1706.98
421.769	1678.31
421.977	1833.96
422.185	1846.24
422.393	1893.35
422.601	1919.97
422.809	2036.7
423.017	1952.74
423.224	2272.22
423.432	2259.93
423.64	2186.21
423.848	2268.13
424.056	2233.31
424.263	2442.2
424.471	2452.44
424.679	2657.24
424.887	2651.1
425.094	2802.65
425.302	2806.74
425.51	2796.5
425.718	2919.38
425.925	3115.98
426.133	3058.64
426.341	3271.63
426.548	3363.79
426.756	3349.45
426.964	3445.71
427.171	3662.79
427.379	3779.53
427.586	3765.19
427.794	3888.07
428.001	4092.87
428.209	4316.09
428.417	4139.97
428.624	4402.11
428.832	4391.87
429.039	4363.2
429.247	4393.92
429.454	4826.04
429.662	5149.62
429.869	4885.43
430.076	5016.5
430.284	5032.88
430.491	5360.56
430.699	5452.72
430.906	5569.45
431.114	5598.12
431.321	5745.58
431.528	5909.41
431.736	6298.53
431.943	6376.35
432.15	6503.32
432.358	6523.8
432.565	6982.55
432.772	6753.18
432.979	7119.76
433.187	7381.9
433.394	7275.41
433.601	7875.46
433.808	8018.82
434.016	7789.45
434.223	8246.15
434.43	8661.88
434.637	8409.98
434.844	8754.04
435.052	9239.41
435.259	9067.38
435.466	9153.4
435.673	8907.64
435.88	9644.91
436.087	10161
436.294	10150.76
436.501	9786.22
436.708	9982.82
436.915	10335.07
437.122	10920.79
437.329	11117.4
437.537	11092.82
437.743	11391.83
437.95	11287.38
438.157	12016.46
438.364	12348.23
438.571	12286.79
438.778	12243.78
438.985	13263.67
439.192	12976.95
439.399	13396.79
439.606	13079.35
439.813	13804.33
440.02	14709.54
440.227	14471.97
440.433	14209.83
440.64	14633.76
440.847	14674.72
441.054	14832.41
441.261	16083.72
441.467	15766.29
441.674	15903.5
441.881	16706.31
442.088	16646.91
442.294	16378.63
442.501	16798.46
442.708	17187.58
442.914	17855.22
443.121	18393.83
443.328	18146.03
443.534	19374.81
443.741	18627.3
443.948	18285.29
444.154	19761.87
444.361	19661.52
444.568	19860.18
444.774	19632.85
444.981	20282.06
445.187	20460.23
445.394	21643.96
445.6	21189.31
445.807	23517.85
446.013	22385.32
446.22	22733.48
446.426	23620.25
446.633	23728.79
446.839	24474.25
447.046	23513.75
447.252	24865.41
447.459	24871.56
447.665	25211.52
447.871	25690.74
448.078	27241.06
448.284	25510.52
448.491	26544.75
448.697	27193.95
448.903	28232.27
449.11	28412.49
449.316	27662.94
449.522	28021.33
449.728	28729.93
449.935	29325.89
450.141	29026.89
450.347	29747.77
450.553	28719.69
450.76	29387.33
450.966	30085.68
451.172	29766.2
451.378	30704.17
451.584	29991.48
451.791	30730.8
451.997	30630.44
452.203	31070.76
452.409	31293.99
452.615	31013.41
452.821	30040.63
453.027	29764.15
453.233	31306.27
453.44	30102.07
453.646	30548.53
453.852	30581.29
454.058	30888.49
454.264	30040.63
454.47	30775.85
454.676	30003.77
454.882	31175.2
455.088	28834.38
455.294	29006.41
455.5	29588.03
455.705	29780.54
455.911	28144.21
456.117	27714.14
456.323	27677.27
456.529	26255.98
456.735	27073.12
456.941	26804.84
457.147	26432.11
457.352	25549.43
457.558	25420.41
457.764	25246.33
457.97	24883.84
458.176	24421
458.381	24504.97
458.587	23186.08
458.793	23274.14
458.999	22088.37
459.204	23673.49
459.41	22813.35
459.616	21373.63
459.821	21174.97
460.027	21336.76
460.233	20966.08
460.438	20198.09
460.644	20280.01
460.85	19233.5
461.055	18809.57
461.261	18963.17
461.466	17378.04
461.672	16919.29
461.878	18189.03
462.083	17085.18
462.289	16683.78
462.494	16468.74
462.7	15909.65
462.905	15354.65
463.111	15747.86
463.316	15870.73
463.522	15600.4
463.727	15627.03
463.932	15672.08
464.138	15110.94
464.343	15190.81
464.549	14897.95
464.754	15528.72
464.959	15510.29
465.165	15043.35
465.37	14457.64
465.575	14226.21
465.781	14816.03
465.986	14856.99
466.191	14168.87
466.397	14068.52
466.602	13284.15
466.807	14027.56
467.012	13955.88
467.218	13738.8
467.423	13525.81
467.628	13599.54
467.833	14099.24
468.038	13820.72
468.244	13089.59
468.449	13859.63
468.654	13466.42
468.859	13191.99
469.064	13194.04
469.269	12690.24
469.474	12800.83
469.679	12864.32
469.885	12743.49
470.09	12946.23
470.295	12960.57
470.5	12309.32
470.705	12677.95
470.91	12254.02
471.115	12157.77
471.32	12510.02
471.525	12200.77
471.73	12069.7
471.935	11782.99
472.139	11635.53
472.344	11866.95
472.549	11653.97
472.754	11629.39
472.959	11230.04
473.164	10773.34
473.369	10957.66
473.574	11391.83
473.778	11029.34
473.983	11029.34
474.188	10875.74
474.393	10468.19
474.598	10570.59
474.802	10513.25
475.007	10529.63
475.212	10324.83
475.417	9917.29
475.621	10113.89
475.826	10099.56
476.031	10054.5
476.235	9536.37
476.44	9780.07
476.645	9556.85
476.849	9677.68
477.054	9735.02
477.259	9382.77
477.463	9278.32
477.668	9182.07
477.872	9270.13
478.077	8924.02
478.282	8981.37
478.486	9040.76
478.691	8741.75
478.895	8735.61
479.1	8674.17
479.304	8948.6
479.509	8295.3
479.713	8743.8
479.918	8393.6
480.122	8342.4
480.326	8346.5
480.531	8319.87
480.735	8182.66
480.94	8274.82
481.144	8409.98
481.348	8115.08
481.553	8369.02
481.757	7994.25
481.961	8080.26
482.166	8334.21
482.37	8293.25
482.574	7875.46
482.778	7971.72
482.983	8020.87
483.187	8008.58
483.391	7949.19
483.595	8039.3
483.8	7945.09
484.004	8006.53
484.208	8149.89
484.412	8051.59
484.616	8059.78
484.821	8168.32
485.025	7916.42
485.229	8272.77
485.433	8145.8
485.637	8123.27
485.841	8014.73
486.045	8080.26
486.249	7930.76
486.453	7924.62
486.657	7971.72
486.861	8149.89
487.065	7830.41
487.269	7859.08
487.473	7807.88
487.677	8072.07
487.881	8074.12
488.085	7803.78
488.289	7906.18
488.493	7850.89
488.697	8090.5
488.901	8088.45
489.105	8022.92
489.309	8016.77
489.512	8256.39
489.716	8031.11
489.92	8139.65
490.124	8031.11
490.328	8217.47
490.531	8240
490.735	8291.2
490.939	8070.02
491.143	7932.81
491.346	8158.08
491.55	8577.92
491.754	8338.3
491.958	8455.04
492.161	8299.39
492.365	8366.98
492.569	8362.88
492.772	8385.41
492.976	8498.05
493.18	8561.53
493.383	8696.7
493.587	8539.01
493.79	8706.94
493.994	8731.51
494.197	8629.12
494.401	8858.49
494.605	8698.75
494.808	9096.05
495.012	9014.13
495.215	9038.71
495.419	8883.06
495.622	9005.94
495.825	9261.94
496.029	9304.95
496.232	9663.34
496.436	9366.39
496.639	9698.16
496.843	9556.85
497.046	9706.35
497.249	9720.68
497.453	9913.19
497.656	9872.23
497.859	9909.1
498.063	10048.36
498.266	10357.6
498.469	10140.52
498.673	10316.64
498.876	10460
499.079	10533.73
499.282	10605.41
499.485	10900.31
499.689	10816.35
499.892	10935.13
500.095	11121.49
500.298	11361.11
500.501	11193.17
500.705	11533.14
500.908	11973.45
501.111	11684.69
501.314	11891.53
501.517	11920.2
501.72	12249.93
501.923	12073.8
502.126	12426.05
502.329	12266.31
502.532	12512.07
502.735	12544.83
502.938	13015.87
503.141	13011.77
503.344	13140.79
503.547	13224.76
503.75	13396.79
503.953	13472.56
504.156	13718.32
504.359	13548.34
504.562	13929.26
504.765	14314.28
504.968	14291.75
505.17	14390.05
505.373	14381.86
505.576	14854.94
505.779	14936.86
505.982	14879.52
506.185	15262.49
506.387	15115.03
506.59	15446.8
506.793	15563.54
506.996	15794.96
507.198	16132.87
507.401	15932.17
507.604	16345.86
507.807	16556.8
508.009	16618.24
508.212	16708.35
508.415	16808.7
508.617	17052.41
508.82	17079.04
509.022	17287.93
509.225	17689.33
509.428	17732.34
509.63	17908.46
509.833	17709.81
510.035	18549.48
510.238	18223.85
510.44	18576.1
510.643	18586.34
510.845	18838.24
511.048	18932.45
511.25	19307.23
511.453	19423.96
511.655	19831.51
511.858	19802.83
512.06	19923.66
512.262	20173.52
512.465	20378.31
512.667	20581.06
512.87	20689.6
513.072	21064.38
513.274	21271.23
513.477	21394.11
513.679	21463.74
513.881	21758.64
514.084	22164.14
514.286	21709.49
514.488	22039.22
514.69	22573.74
514.893	22842.02
515.095	22696.61
515.297	23022.24
515.499	23120.54
515.701	23351.96
515.904	23577.24
516.106	23784.09
516.308	24013.46
516.51	24607.37
516.712	24216.21
516.914	24836.74
517.116	24887.94
517.318	25307.77
517.52	25123.46
517.722	25617.02
517.925	25700.98
518.127	25756.28
518.329	26255.98
518.531	26063.47
518.733	26514.03
518.935	26755.69
519.136	26778.22
519.338	27163.23
519.54	27490.91
519.742	27552.35
519.944	27607.64
520.146	28084.82
520.348	28152.4
520.55	28447.31
520.752	28402.25
520.954	28797.51
521.155	28934.73
521.357	29186.63
521.559	29577.79
521.761	29635.13
521.963	29596.22
522.164	30024.25
522.366	30120.5
522.568	30151.22
522.77	30536.24
522.971	31013.41
523.173	30908.97
523.375	30816.81
523.576	30939.69
523.778	31400.48
523.98	31762.97
524.181	31408.67
524.383	31783.45
524.584	32289.3
524.786	32293.4
524.988	32115.22
525.189	32496.14
525.391	32651.79
525.592	32387.6
525.794	32801.29
525.995	32987.66
526.197	32858.63
526.398	33380.87
526.6	33509.89
526.801	33726.97
527.003	33911.29
527.204	33710.59
527.406	34120.18
527.607	33843.71
527.808	34361.84
528.01	33673.73
528.211	34390.52
528.412	35082.73
528.614	34658.8
528.815	34636.27
529.016	34929.13
529.218	34623.98
529.419	35052.01
529.62	35348.96
529.822	34984.43
530.023	35168.74
530.224	34953.71
530.425	35299.81
530.626	35125.74
530.828	34746.86
531.029	35807.71
531.23	35457.51
531.431	35205.61
531.632	35371.49
531.833	35486.18
532.035	35498.47
532.236	35543.52
532.437	35752.41
532.638	35385.83
532.839	35754.46
533.04	35820
533.241	35598.82
533.442	36418
533.643	35740.13
533.844	35940.83
534.045	36217.3
534.246	35744.22
534.447	35906.01
534.648	36123.1
534.849	35856.86
535.05	35672.54
535.251	35969.5
535.451	35887.58
535.652	36055.51
535.853	36078.04
536.054	35926.49
536.255	36309.46
536.456	35400.16
536.657	36071.9
536.857	36243.93
537.058	35809.76
537.259	36024.79
537.46	35887.58
537.66	35852.76
537.861	35965.4
538.062	35799.52
538.263	35987.93
538.463	35848.67
538.664	35772.89
538.865	35705.31
539.065	36166.1
539.266	35277.29
539.466	35860.96
539.667	35394.02
539.868	36323.8
540.068	36112.86
540.269	36098.52
540.469	35928.54
540.67	35914.2
540.87	35987.93
541.071	36141.53
541.271	36020.7
541.472	35824.09
541.672	35961.31
541.873	35926.49
542.073	35215.85
542.274	36059.61
542.474	36119
542.675	35760.61
542.875	36319.7
543.075	35772.89
543.276	35488.23
543.476	36327.89
543.676	35273.19
543.877	36080.09
544.077	35826.14
544.277	35541.47
544.478	35779.04
544.678	35998.17
544.878	35584.48
545.078	35594.72
545.279	35742.17
545.479	35611.1
545.679	35688.93
545.879	35570.15
546.079	35621.34
546.28	35641.82
546.48	35506.66
546.68	35768.8
546.88	35815.9
547.08	35916.25
547.28	35774.94
547.48	35484.13
547.68	35748.32
547.88	35375.59
548.081	35670.5
548.281	35822.05
548.481	35256.81
548.681	35510.75
548.881	35414.5
549.081	35432.93
549.28	34955.75
549.48	35768.8
549.68	35586.53
549.88	35723.74
550.08	35119.59
550.28	35451.36
550.48	35359.2
550.68	35367.4
550.88	35344.87
551.08	35338.72
551.279	35805.66
551.479	35342.82
551.679	35496.42
551.879	35127.78
552.079	35660.26
552.278	35183.08
552.478	35414.5
552.678	35099.11
552.878	35256.81
553.077	34892.27
553.277	35232.23
553.477	35529.19
553.676	35240.42
553.876	34982.38
554.076	35004.91
554.275	35054.06
554.475	34761.2
554.674	34963.95
554.874	35111.4
555.074	34644.46
555.273	35019.24
555.473	35240.42
555.672	34943.47
555.872	34849.26
556.071	34949.61
556.271	35052.01
556.47	34771.44
556.67	34331.12
556.869	34525.68
557.068	34779.63
557.268	34431.47
557.467	35131.88
557.667	34574.83
557.866	34456.05
558.065	34417.14
558.265	34365.94
558.464	34494.96
558.663	34365.94
558.863	33962.49
559.062	34767.34
559.261	34185.72
559.461	34433.52
559.66	33612.29
559.859	34007.55
560.058	34019.83
560.258	34228.73
560.457	33610.24
560.656	33968.63
560.855	33569.28
561.054	34263.54
561.253	33534.46
561.453	33659.39
561.652	34136.57
561.851	33763.84
562.05	33563.14
562.249	33139.21
562.448	33950.2
562.647	33497.6
562.846	33532.42
563.045	33417.73
563.244	33180.17
563.443	33563.14
563.642	32799.24
563.841	33167.88
564.04	33241.6
564.239	33169.93
564.438	32692.75
564.637	32930.31
564.836	32823.82
565.035	32563.73
565.234	32729.61
565.432	32776.72
565.631	32426.51
565.83	32789
566.029	32619.02
566.228	32287.25
566.427	32653.84
566.625	32107.03
566.824	31699.48
567.023	32453.14
567.222	31631.9
567.42	32133.65
567.619	32139.8
567.818	31947.29
568.016	31896.09
568.215	31906.33
568.414	31277.6
568.612	31894.04
568.811	31445.54
569.01	31330.85
569.208	31420.96
569.407	31539.74
569.605	31078.95
569.804	31269.41
570.002	30908.97
570.201	31193.64
570.4	30911.02
570.598	30657.07
570.797	30603.82
570.995	31035.94
571.193	30468.66
571.392	30388.78
571.59	30212.66
571.789	30607.92
571.987	30444.08
572.186	30306.87
572.384	30427.7
572.582	30151.22
572.781	30349.87
572.979	29801.02
573.177	30069.3
573.376	30140.98
573.574	29770.3
573.772	29723.19
573.971	29565.5
574.169	29469.25
574.367	29450.81
574.565	29653.56
574.763	29147.72
574.962	29282.88
575.16	28979.78
575.358	28799.56
575.556	28805.7
575.754	29241.92
575.952	28660.3
576.151	29057.6
576.349	28930.63
576.547	28674.63
576.745	28920.39
576.943	28467.79
577.141	28598.86
577.339	28615.24
577.537	28043.86
577.735	28207.7
577.933	28172.88
578.131	28291.66
578.329	27855.45
578.527	27888.21
578.725	28078.68
578.923	27908.69
579.121	27746.9
579.319	27849.3
579.516	27902.55
579.714	27652.7
579.912	27535.96
580.11	27503.2
580.308	27396.7
580.506	27347.55
580.704	26948.2
580.901	27163.23
581.099	27617.88
581.297	27105.89
581.495	26866.28
581.692	27114.08
581.89	26624.62
582.088	27032.16
582.285	26614.38
582.483	27105.89
582.681	26591.85
582.878	26745.45
583.076	26694.25
583.274	26743.4
583.471	25893.49
583.669	26372.72
583.866	25889.4
584.064	26286.7
584.262	25666.17
584.459	26245.74
584.657	25963.12
584.854	26124.91
585.052	25455.23
585.249	25836.15
585.447	25981.56
585.644	25430.65
585.841	25961.08
586.039	25395.84
586.236	25346.69
586.434	25223.81
586.631	25217.66
586.828	25186.94
587.026	25379.45
587.223	25125.5
587.42	24896.13
587.618	24873.6
587.815	24476.3
588.012	24748.68
588.21	24693.38
588.407	24922.76
588.604	24619.66
588.801	24502.92
588.999	24533.64
589.196	24279.69
589.393	24232.59
589.59	24337.04
589.787	23968.4
589.984	24347.28
590.182	23798.42
590.379	24025.75
590.576	23724.69
590.773	23857.81
590.97	23997.07
591.167	23845.52
591.364	23376.54
591.561	23683.73
591.758	23556.76
591.955	23474.84
592.152	23534.23
592.349	23163.55
592.546	23245.47
592.743	23294.62
592.94	22925.99
593.137	22975.14
593.334	23294.62
593.531	22753.96
593.727	22938.27
593.924	22753.96
594.121	22209.2
594.318	22561.45
594.515	22491.82
594.712	22727.33
594.908	22409.9
595.105	22622.89
595.302	22110.89
595.499	22209.2
595.696	22293.16
595.892	21928.63
596.089	21867.19
596.286	21957.3
596.482	22125.23
596.679	21783.22
596.876	21961.39
597.072	21963.44
597.269	21846.71
597.466	21424.83
597.662	21537.46
597.859	21486.26
598.055	21594.81
598.252	21234.36
598.448	21162.69
598.645	21189.31
598.841	21136.06
599.038	21170.88
599.234	21150.4
599.431	20884.16
599.627	20888.26
599.824	21048
600.02	20789.95
600.217	20972.22
600.413	20923.07
600.609	20476.62
600.806	20656.84
601.002	20499.14
601.198	20394.7
601.395	20423.37
601.591	20398.79
601.787	20007.63
601.984	19888.85
602.18	20218.57
602.376	19856.08
602.572	19964.62
602.769	19866.32
602.965	19679.96
603.161	19862.22
603.357	19690.2
603.553	19624.66
603.75	19745.49
603.946	19585.75
604.142	19409.62
604.338	19317.47
604.534	19860.18
604.73	19344.09
604.926	19180.25
605.122	19151.58
605.318	19139.29
605.514	19063.52
605.71	19155.68
605.906	18926.3
606.102	19038.94
606.298	18778.85
606.494	18692.83
606.69	18770.66
606.886	18932.45
607.082	18424.55
607.278	18950.88
607.474	18422.5
607.67	18590.44
607.866	18430.69
608.062	18375.4
608.257	18268.91
608.453	18447.08
608.649	18322.15
608.845	18105.07
609.041	18285.29
609.236	18361.06
609.432	18150.12
609.628	18459.37
609.824	17834.74
610.019	17978.09
610.215	18008.81
610.411	17926.89
610.606	18019.05
610.802	17828.59
610.998	17844.98
611.193	17795.82
611.389	17777.39
611.584	17500.92
611.78	17591.03
611.976	17572.6
612.171	17732.34
612.367	17521.4
612.562	17806.06
612.758	17537.78
612.953	17339.13
613.149	17371.89
613.344	17408.76
613.539	17883.89
613.735	17388.28
613.93	17496.82
614.126	17238.78
614.321	17568.5
614.517	17339.13
614.712	17195.77
614.907	17228.54
615.103	17167.1
615.298	17163
615.493	17394.42
615.688	17027.84
615.884	17257.21
616.079	17181.43
616.274	17197.82
616.47	17146.62
616.665	16847.61
616.86	16796.42
617.055	16909.05
617.25	16554.76
617.445	16847.61
617.641	16583.43
617.836	16659.2
618.031	16562.95
618.226	16608
618.421	16476.93
618.616	16653.06
618.811	16192.26
619.006	16548.61
619.201	16177.93
619.396	16583.43
619.591	16204.55
619.786	16028.43
619.981	16093.96
620.176	15952.65
620.371	15862.54
620.566	16020.24
620.761	15641.36
620.956	16159.5
621.151	15360.79
621.346	15690.51
621.541	15418.13
621.735	15549.2
621.93	15565.59
622.125	15362.84
622.32	15307.54
622.515	15184.66
622.709	15215.38
622.904	14885.66
623.099	14838.56
623.294	15026.97
623.488	14717.73
623.683	14844.7
623.878	14635.81
624.072	14484.26
624.267	14433.06
624.462	14359.33
624.656	14379.81
624.851	14291.75
625.046	13990.7
625.24	14175.02
625.435	13921.07
625.629	14134.06
625.824	13828.91
626.018	13777.71
626.213	13568.82
626.407	13689.65
626.602	13542.19
626.796	13534
626.991	13740.85
627.185	13470.51
627.38	13302.58
627.574	13095.74
627.768	13032.25
627.963	13042.49
628.157	12954.43
628.352	13091.64
628.546	12673.85
628.74	12876.6
628.935	12747.58
629.129	12618.56
629.323	12755.77
629.517	12401.47
629.712	12505.92
629.906	12522.3
630.1	12159.81
630.294	12403.52
630.489	12010.31
630.683	12335.94
630.877	11897.67
631.071	12200.77
631.265	11903.82
631.459	11877.19
631.653	11957.07
631.848	11934.54
632.042	11750.22
632.236	11727.69
632.43	11586.38
632.624	11766.6
632.818	11592.53
633.012	11432.79
633.206	11430.74
633.4	11340.63
633.594	11139.93
633.788	11195.22
633.982	11088.73
634.176	11129.69
634.369	11053.91
634.563	11006.81
634.757	10742.62
634.951	10976.09
635.145	10775.39
635.339	10910.55
635.533	10638.17
635.726	10742.62
635.92	10384.23
636.114	10451.81
636.308	10482.53
636.501	10525.54
636.695	10408.8
636.889	10357.6
637.083	10290.02
637.276	10099.56
637.47	10218.34
637.664	10027.88
637.857	10048.36
638.051	9902.95
638.244	9878.38
638.438	9978.73
638.632	9966.44
638.825	9784.17
639.019	9775.98
639.212	9646.96
639.406	9833.32
639.599	9562.99
639.793	9530.22
639.986	9399.15
640.18	9440.11
640.373	9364.34
640.567	9198.45
640.76	9341.81
640.954	9192.31
641.147	9155.44
641.34	9184.12
641.534	9051
641.727	9182.07
641.92	9134.96
642.114	8934.26
642.307	8958.84
642.5	8760.19
642.694	8661.88
642.887	8534.91
643.08	8727.42
643.273	8661.88
643.467	8596.35
643.66	8678.27
643.853	8448.9
644.046	8225.67
644.239	8485.76
644.432	8356.74
644.626	8262.53
644.819	8397.7
645.012	8313.73
645.205	8123.27
645.398	8164.23
645.591	8209.28
645.784	8129.41
645.977	7918.47
646.17	8151.94
646.363	8014.73
646.556	7957.38
646.749	7732.11
646.942	7762.83
647.135	7703.43
647.328	7676.81
647.521	7744.39
647.714	7736.2
647.907	7598.99
648.099	7562.12
648.292	7461.77
648.485	7465.87
648.678	7388.05
648.871	7359.38
649.064	7386
649.256	7472.01
649.449	7453.58
649.642	7246.74
649.835	7046.04
650.027	7191.44
650.22	7066.52
650.413	7005.08
650.605	7211.92
650.798	6953.88
650.991	6851.48
651.183	6884.25
651.376	6896.53
651.568	6818.71
651.761	6878.1
651.954	6876.06
652.146	6822.81
652.339	6722.46
652.531	6699.93
652.724	6558.62
652.916	6595.48
653.109	6632.35
653.301	6591.39
653.494	6603.68
653.686	6507.42
653.879	6566.81
654.071	6456.22
654.263	6413.21
654.456	6548.38
654.648	6462.37
654.84	6187.94
655.033	6255.52
655.225	6298.53
655.417	6146.98
655.61	6015.91
655.802	6095.78
655.994	6163.36
656.186	6110.11
656.379	5993.38
656.571	5950.37
656.763	5788.58
656.955	5813.16
657.148	5856.17
657.34	5921.7
657.532	5919.65
657.724	5739.43
657.916	5778.34
658.108	5882.79
658.3	5815.21
658.492	5811.11
658.684	5540.78
658.876	5647.27
659.068	5598.12
659.26	5721
659.452	5499.82
659.644	5428.14
659.836	5518.25
660.028	5460.91
660.22	5424.05
660.412	5475.24
660.604	5338.03
660.796	5385.13
660.988	5264.3
661.18	5252.02
661.372	5329.84
661.563	5313.45
661.755	5155.76
661.947	5112.75
662.139	5213.1
662.331	5049.27
662.522	4918.2
662.714	5065.65
662.906	5194.67
663.097	5000.12
663.289	4983.73
663.481	4942.77
663.673	5018.55
663.864	4858.81
664.056	4819.89
664.247	4836.28
664.439	4635.58
664.631	4797.37
664.822	4766.65
665.014	4600.76
665.205	4635.58
665.397	4680.63
665.588	4662.2
665.78	4615.1
665.971	4635.58
666.163	4684.73
666.354	4484.03
666.546	4492.22
666.737	4572.09
666.929	4508.6
667.12	4576.19
667.311	4436.92
667.503	4361.15
667.694	4424.64
667.885	4406.2
668.077	4393.92
668.268	4324.29
668.459	4336.57
668.651	4271.04
668.842	4299.71
669.033	4207.55
669.224	4172.74
669.416	4295.61
669.607	4240.32
669.798	4096.96
669.989	4180.93
670.18	4256.7
670.371	4088.77
670.563	4078.53
670.754	4142.02
670.945	4084.67
671.136	4168.64
671.327	4002.75
671.518	4012.99
671.709	4107.2
671.9	4066.24
672.091	3863.49
672.282	3982.28
672.473	3906.5
672.664	3959.75
672.855	3830.73
673.046	3840.97
673.237	3967.94
673.428	3812.29
673.619	3810.25
673.809	3800.01
674	3634.12
674.191	3879.88
674.382	3705.8
674.573	3664.84
674.764	3660.74
674.954	3722.18
675.145	3656.65
675.336	3742.66
675.527	3511.24
675.717	3623.88
675.908	3654.6
676.099	3679.18
676.289	3640.26
676.48	3603.4
676.671	3445.71
676.861	3533.77
677.052	3544.01
677.243	3398.6
677.433	3535.82
677.624	3509.19
677.814	3484.62
678.005	3509.19
678.195	3423.18
678.386	3294.16
678.576	3363.79
678.767	3363.79
678.957	3410.89
679.148	3343.31
679.338	3214.29
679.529	3251.15
679.719	3199.95
679.909	3337.17
680.1	3271.63
680.29	3175.38
680.481	3249.1
680.671	3247.05
680.861	3251.15
681.052	3255.25
681.242	3206.1
681.432	3103.7
681.622	3238.86
681.813	3015.63
682.003	3191.76
682.193	3095.5
682.383	3175.38
682.573	3075.03
682.764	3019.73
682.954	3075.03
683.144	3056.59
683.334	3126.22
683.524	3099.6
683.714	3017.68
683.904	2921.43
684.094	2927.57
684.284	2929.62
684.474	2989.01
684.664	3040.21
684.854	2948.05
685.044	2984.91
685.234	2905.04
685.424	2872.28
685.614	2935.76
685.804	2829.27
685.994	2905.04
686.184	2925.52
686.374	2816.98
686.564	2798.55
686.753	2788.31
686.943	2792.41
687.133	2837.46
687.323	2780.12
687.513	2810.84
687.702	2784.21
687.892	2771.93
688.082	2763.73
688.272	2837.46
688.461	2798.55
688.651	2821.08
688.841	2683.86
689.03	2749.4
689.22	2675.67
689.41	2698.2
689.599	2663.38
689.789	2571.22
689.979	2816.98
690.168	2722.77
690.358	2634.71
690.547	2468.83
690.737	2517.98
690.926	2560.98
691.116	2593.75
691.305	2544.6
691.495	2542.55
691.684	2511.83
691.874	2577.37
692.063	2464.73
692.252	2591.7
692.442	2456.54
692.631	2348
692.82	2470.87
693.01	2425.82
693.199	2493.4
693.388	2468.83
693.578	2462.68
693.767	2444.25
693.956	2460.63
694.146	2427.87
694.335	2354.14
694.524	2460.63
694.713	2493.4
694.902	2427.87
695.092	2384.86
695.281	2483.16
695.47	2456.54
695.659	2329.56
695.848	2411.48
696.037	2413.53
696.226	2423.77
696.415	2329.56
696.604	2348
696.793	2339.8
696.982	2403.29
697.171	2345.95
697.36	2274.27
697.549	2216.93
697.738	2241.5
697.927	2276.32
698.116	2315.23
698.305	2362.33
698.494	2231.26
698.683	2178.01
698.872	2325.47
699.061	2169.82
699.25	2370.52
699.438	2190.3
699.627	2171.87
699.816	2284.51
700.005	2169.82
700.193	2231.26
700.382	2288.61
700.571	2223.07
700.76	2216.93
700.948	2239.45
701.137	2237.41
701.326	2178.01
701.514	2151.39
701.703	2212.83
701.892	2178.01
702.08	2200.54
702.269	2167.77
702.457	2225.12
702.646	2159.58
702.834	2083.81
703.023	2255.84
703.212	2175.97
703.4	2132.96
703.589	2218.97
703.777	2180.06
703.965	2100.19
704.154	2223.07
704.342	2204.64
704.531	2167.77
704.719	2128.86
704.907	2151.39
705.096	2173.92
705.284	2124.77
705.472	2206.69
705.661	2218.97
705.849	2085.86
706.037	2083.81
706.226	2141.15
706.414	2153.44
706.602	2165.73
706.79	2167.77
706.979	2065.38
707.167	2135.01
707.355	2202.59
707.543	2221.02
707.731	2108.38
707.919	2192.35
708.107	2059.23
708.296	2163.68
708.484	2122.72
708.672	2198.49
708.86	2184.16
709.048	2161.63
709.236	2128.86
709.424	2188.25
709.612	2116.58
709.8	2079.71
709.988	2223.07
710.176	2077.66
710.364	2108.38
710.551	2046.94
710.739	2034.66
710.927	2046.94
711.115	2020.32
711.303	2149.34
711.491	2055.14
711.679	2055.14
711.866	2085.86
712.054	2026.47
712.242	2026.47
712.43	2120.67
712.617	2042.85
712.805	2102.24
712.993	2012.13
713.181	2055.14
713.368	2198.49
713.556	1989.6
713.744	2059.23
713.931	2053.09
714.119	2075.62
714.306	2034.66
714.494	2071.52
714.682	2030.56
714.869	1987.55
715.057	1985.51
715.244	2112.48
715.432	2155.49
715.619	2022.37
715.807	2118.62
715.994	2106.34
716.182	1981.41
716.369	2018.27
716.556	2042.85
716.744	2059.23
716.931	2071.52
717.119	2051.04
717.306	2055.14
717.493	2018.27
717.681	1928.16
717.868	2120.67
718.055	2100.19
718.242	2069.47
718.43	2022.37
718.617	2108.38
718.804	1981.41
718.991	1952.74
719.179	2038.75
719.366	2083.81
719.553	2141.15
719.74	2020.32
719.927	2057.18
720.114	1954.79
720.301	1952.74
720.488	2005.99
720.676	2048.99
720.863	2053.09
721.05	2180.06
721.237	1879.01
721.424	2036.7
721.611	2083.81
721.798	1995.75
721.985	1954.79
722.172	1903.59
722.358	2010.08
722.545	1977.31
722.732	1960.93
722.919	2077.66
723.106	1981.41
723.293	1995.75
723.48	2067.42
723.667	1995.75
723.853	1969.12
724.04	2042.85
724.227	1985.51
724.414	2018.27
724.6	2083.81
724.787	2059.23
724.974	2016.23
725.161	1950.69
725.347	1903.59
725.534	1975.27
725.72	1928.16
725.907	1909.73
726.094	2012.13
726.28	1954.79
726.467	1977.31
726.653	1919.97
726.84	1932.26
727.027	2042.85
727.213	1911.78
727.4	1965.03
727.586	2063.33
727.773	2001.89
727.959	1905.63
728.145	1977.31
728.332	1862.63
728.518	1952.74
728.705	1952.74
728.891	1917.92
729.077	1930.21
729.264	1831.91
729.45	1995.75
729.636	1993.7
729.823	1879.01
730.009	2042.85
730.195	1928.16
730.382	1944.55
730.568	1969.12
730.754	1932.26
730.94	1930.21
731.126	1952.74
731.313	1946.59
731.499	2003.94
731.685	1891.3
731.871	1872.87
732.057	2014.18
732.243	1909.73
732.429	1926.11
732.615	1952.74
732.801	2003.94
732.987	1922.02
733.173	1846.24
733.359	1876.96
733.545	1907.68
733.731	1848.29
733.917	1917.92
734.103	1962.98
734.289	1897.44
734.475	1801.19
734.661	2028.51
734.847	1897.44
735.033	1811.43
735.219	1854.44
735.404	1848.29
735.59	1854.44
735.776	1956.83
735.962	1924.07
736.148	1846.24
736.333	1913.83
736.519	1872.87
736.705	1870.82
736.89	1813.48
737.076	1805.28
737.262	1827.81
737.447	1842.15
737.633	1874.92
737.819	1778.66
738.004	1780.71
738.19	1854.44
738.375	1770.47
738.561	1930.21
738.747	1876.96
738.932	1790.95
739.118	1739.75
739.303	1809.38
739.489	1899.49
739.674	1713.13
739.859	1733.61
740.045	1801.19
740.23	1788.9
740.416	1692.65
740.601	1817.57
740.786	1805.28
740.972	1629.16
741.157	1686.5
741.342	1706.98
741.528	1704.93
741.713	1764.33
741.898	1645.54
742.084	1772.52
742.269	1762.28
742.454	1674.21
742.639	1709.03
742.824	1700.84
743.01	1672.17
743.195	1780.71
743.38	1666.02
743.565	1596.39
743.75	1690.6
743.935	1641.45
744.12	1604.58
744.305	1534.95
744.49	1645.54
744.675	1547.24
744.86	1534.95
745.045	1594.34
745.23	1561.58
745.415	1537
745.6	1592.3
745.785	1604.58
745.97	1545.19
746.155	1625.06
746.34	1623.02
746.525	1504.23
746.71	1483.75
746.895	1498.09
747.079	1459.18
747.264	1428.46
747.449	1539.05
747.634	1534.95
747.819	1553.38
748.003	1444.84
748.188	1567.72
748.373	1422.31
748.557	1432.55
748.742	1457.13
748.927	1586.15
749.111	1487.85
749.296	1481.71
749.481	1393.64
749.665	1397.74
749.85	1289.2
750.034	1311.72
750.219	1436.65
750.404	1334.25
750.588	1354.73
750.773	1330.16
750.957	1403.88
751.141	1309.68
751.326	1274.86
751.51	1330.16
751.695	1354.73
751.879	1381.35
752.064	1258.48
752.248	1354.73
752.432	1305.58
752.617	1274.86
752.801	1268.72
752.985	1166.32
753.17	1215.47
753.354	1299.44
753.538	1260.52
753.722	1158.13
753.907	1270.76
754.091	1201.13
754.275	1207.28
754.459	1166.32
754.643	1207.28
754.828	1168.37
755.012	1141.74
755.196	1209.33
755.38	1199.09
755.564	1102.83
755.748	1100.78
755.932	1254.38
756.116	1182.7
756.3	1068.02
756.484	1094.64
756.668	1086.45
756.852	1004.53
757.036	1135.6
757.22	1162.22
757.404	1022.96
757.588	1059.82
757.772	1117.17
757.956	1063.92
758.14	1059.82
758.323	1006.58
758.507	1111.02
758.691	967.67
758.875	1059.82
759.059	936.95
759.242	1020.91
759.426	1039.34
759.61	936.95
759.794	912.37
759.977	936.95
760.161	1182.7
760.345	984.05
760.528	988.14
760.712	928.75
760.895	953.33
761.079	963.57
761.263	943.09
761.446	900.08
761.63	979.95
761.813	947.19
761.997	871.41
762.18	1000.43
762.364	912.37
762.547	881.65
762.731	869.36
762.914	908.27
763.098	877.55
763.281	900.08
763.464	867.31
763.648	863.22
763.831	881.65
764.015	814.07
764.198	889.84
764.381	904.18
764.564	824.31
764.748	857.07
764.931	855.03
765.114	863.22
765.297	904.18
765.481	809.97
765.664	848.88
765.847	764.92
766.03	912.37
766.213	752.63
766.397	805.88
766.58	721.91
766.763	809.97
766.946	865.27
767.129	801.78
767.312	717.81
767.495	781.3
767.678	801.78
767.861	785.4
768.044	789.49
768.227	758.77
768.41	719.86
768.593	699.38
768.776	764.92
768.959	748.53
769.142	748.53
769.324	732.15
769.507	832.5
769.69	789.49
769.873	717.81
770.056	756.72
770.239	740.34
770.421	789.49
770.604	680.95
770.787	658.42
770.97	764.92
771.152	736.24
771.335	695.29
771.518	711.67
771.7	726
771.883	650.23
772.066	756.72
772.248	687.09
772.431	769.01
772.613	732.15
772.796	693.24
772.978	750.58
773.161	642.04
773.343	721.91
773.526	674.81
773.708	723.96
773.891	617.46
774.073	713.72
774.256	613.37
774.438	656.37
774.621	635.89
774.803	687.09
774.985	676.85
775.168	625.65
775.35	609.27
775.532	625.65
775.715	654.33
775.897	674.81
776.079	584.7
776.261	568.31
776.444	617.46
776.626	660.47
776.808	580.6
776.99	510.97
777.173	596.98
777.355	564.22
777.537	611.32
777.719	592.89
777.901	596.98
778.083	584.7
778.265	470.01
778.447	515.06
778.629	494.58
778.811	588.79
778.993	613.37
779.175	537.59
779.357	551.93
779.539	500.73
779.721	502.78
779.903	490.49
780.085	478.2
780.267	488.44
780.449	621.56
780.631	568.31
780.812	529.4
780.994	527.35
781.176	576.5
781.358	576.5
781.54	543.74
781.721	476.15
781.903	543.74
782.085	586.74
782.267	461.82
782.448	478.2
782.63	500.73
782.812	392.19
782.993	443.39
783.175	494.58
783.357	486.39
783.538	490.49
783.72	435.19
783.901	447.48
784.083	455.67
784.264	404.47
784.446	373.75
784.627	441.34
784.809	482.3
784.99	412.67
785.172	355.32
785.353	406.52
785.535	406.52
785.716	363.51
785.897	383.99
786.079	355.32
786.26	437.24
786.441	457.72
786.623	375.8
786.804	441.34
786.985	486.39
787.167	396.28
787.348	369.66
787.529	357.37
787.71	340.99
787.891	414.71
788.073	287.74
788.254	289.79
788.435	359.42
788.616	379.9
788.797	338.94
788.978	386.04
789.159	371.71
789.34	383.99
789.522	293.88
789.703	416.76
789.884	277.5
790.065	349.18
790.246	377.85
790.427	267.26
790.607	220.16
790.788	340.99
790.969	232.44
791.15	281.6
791.331	257.02
791.512	238.59
791.693	261.12
791.874	338.94
792.054	338.94
792.235	308.22
792.416	291.84
792.597	381.95
792.778	306.17
792.958	334.84
793.139	287.74
793.32	297.98
793.5	265.21
793.681	308.22
793.862	293.88
794.042	310.27
794.223	273.4
794.404	269.31
794.584	300.03
794.765	306.17
794.945	211.96
795.126	308.22
795.306	324.6
795.487	291.84
795.667	250.88
795.848	297.98
796.028	166.91
796.209	281.6
796.389	261.12
796.57	240.64
796.75	205.82
796.93	257.02
797.111	193.53
797.291	203.77
797.471	246.78
797.652	289.79
797.832	261.12
798.012	265.21
798.192	248.83
798.373	209.92
798.553	236.54
798.733	289.79
798.913	334.84
799.093	273.4
799.274	203.77
799.454	297.98
799.634	234.49
799.814	244.73
799.994	220.16
800.174	203.77
800.354	209.92
800.534	168.96
800.714	162.81
800.894	134.14
801.074	216.06
801.254	166.91
801.434	265.21
801.614	257.02
801.794	187.39
801.974	820.21
802.154	142.33
802.334	162.81
802.514	171.01
802.693	281.6
802.873	224.25
803.053	216.06
803.233	207.87
803.413	181.25
803.592	191.49
803.772	166.91
803.952	166.91
804.131	158.72
804.311	179.2
804.491	187.39
804.67	199.68
804.85	121.85
805.03	185.34
805.209	191.49
805.389	113.66
805.568	201.72
805.748	199.68
805.928	220.16
806.107	144.38
806.287	197.63
806.466	168.96
806.646	125.95
806.825	109.57
807.004	105.47
807.184	193.53
807.363	140.29
807.543	123.9
807.722	115.71
807.901	175.1
808.081	199.68
808.26	117.76
808.439	179.2
808.619	150.53
808.798	136.19
808.977	113.66
809.156	261.12
809.336	115.71
809.515	78.85
809.694	171.01
809.873	119.81
810.052	136.19
810.231	119.81
810.411	193.53
810.59	117.76
810.769	134.14
810.948	107.52
811.127	125.95
811.306	201.72
811.485	109.57
811.664	193.53
811.843	179.2
812.022	138.24
812.201	72.7
812.38	158.72
812.559	113.66
812.737	136.19
812.916	158.72
813.095	140.29
813.274	144.38
813.453	68.61
813.632	84.99
813.811	128
813.989	87.04
814.168	72.7
814.347	134.14
814.526	148.48
814.704	136.19
814.883	152.57
815.062	138.24
815.24	84.99
815.419	46.08
815.598	117.76
815.776	89.09
815.955	91.13
816.133	84.99
816.312	111.61
816.49	35.84
816.669	84.99
816.847	109.57
817.026	150.53
817.204	144.38
817.383	46.08
817.561	101.37
817.74	125.95
817.918	54.27
818.097	76.8
818.275	125.95
818.453	80.89
818.632	109.57
818.81	134.14
818.988	115.71
819.167	35.84
819.345	113.66
819.523	93.18
819.701	136.19
819.879	76.8
820.058	109.57
820.236	107.52
820.414	52.22
820.592	91.13
820.77	95.23
820.948	76.8
821.127	60.42
821.305	89.09
821.483	68.61
821.661	109.57
821.839	134.14
822.017	78.85
822.195	121.85
822.373	173.05
822.551	78.85
822.729	109.57
822.907	64.51
823.085	162.81
823.262	54.27
823.44	109.57
823.618	82.94
823.796	84.99
823.974	11.26
824.152	72.7
824.329	119.81
824.507	54.27
824.685	76.8
824.863	64.51
825.04	89.09
825.218	107.52
825.396	37.89
825.574	35.84
825.751	44.03
825.929	60.42
826.107	68.61
826.284	125.95
826.462	70.65
826.639	107.52
826.817	21.5
826.994	64.51
827.172	35.84
827.349	58.37
827.527	125.95
827.704	31.74
827.882	97.28
828.059	82.94
828.237	56.32
828.414	27.65
828.591	31.74
828.769	97.28
828.946	56.32
829.124	158.72
829.301	150.53
829.478	35.84
829.655	15.36
829.833	54.27
830.01	101.37
830.187	35.84
830.364	125.95
830.542	11.26
830.719	95.23
830.896	134.14
831.073	70.65
831.25	48.13
831.427	7.17
831.604	44.03
831.782	76.8
831.959	125.95
832.136	11.26
832.313	82.94
832.49	76.8
832.667	72.7
832.844	66.56
833.021	101.37
833.198	54.27
833.374	58.37
833.551	74.75
833.728	60.42
833.905	54.27
834.082	84.99
834.259	50.18
834.436	93.18
834.612	33.79
834.789	76.8
834.966	68.61
835.143	117.76
835.319	3.07
835.496	-5.12
835.673	60.42
835.85	60.42
836.026	31.74
836.203	60.42
836.38	39.94
836.556	3.07
836.733	33.79
836.909	76.8
837.086	48.13
837.262	13.31
837.439	1.02
837.616	44.03
837.792	72.7
837.968	37.89
838.145	-50.18
838.321	44.03
838.498	35.84
838.674	-17.41
838.851	48.13
839.027	11.26
839.203	-33.79
839.38	103.42
839.556	-17.41
839.732	54.27
839.909	3.07
840.085	80.89
840.261	15.36
840.437	130.05
840.614	-41.98
840.79	3.07
840.966	109.57
841.142	35.84
841.318	-25.6
841.494	64.51
841.671	46.08
841.847	46.08
842.023	-9.22
842.199	39.94
842.375	52.22
842.551	7.17
842.727	-1.02
842.903	37.89
843.079	39.94
843.255	64.51
843.431	44.03
843.607	62.46
843.783	15.36
843.959	35.84
844.134	37.89
844.31	3.07
844.486	27.65
844.662	-7.17
844.838	52.22
845.013	46.08
845.189	11.26
845.365	39.94
845.541	31.74
845.716	-5.12
845.892	25.6
846.068	103.42
846.244	41.98
846.419	-103.42
846.595	29.7
846.77	54.27
846.946	54.27
847.122	76.8
847.297	93.18
847.473	60.42
847.648	-13.31
847.824	11.26
847.999	-27.65
848.175	-13.31
848.35	-7.17
848.526	19.46
848.701	66.56
848.876	-5.12
849.052	46.08
849.227	13.31
849.403	-66.56
849.578	29.7
849.753	37.89
849.929	37.89
850.104	17.41
850.279	15.36
850.454	80.89
850.63	5.12
850.805	64.51
850.98	84.99
851.155	-62.46
851.33	35.84
851.505	3.07
851.681	31.74
851.856	-35.84
852.031	35.84
852.206	-5.12
852.381	-21.5
852.556	-11.26
852.731	5.12
852.906	35.84
853.081	76.8
853.256	-5.12
853.431	56.32
853.606	-21.5
853.781	-17.41
853.956	21.5
854.131	-11.26
854.305	19.46
854.48	37.89
854.655	-60.42
854.83	68.61
855.005	19.46
855.18	19.46
855.354	23.55
855.529	15.36
855.704	15.36
855.879	21.5
856.053	-21.5
856.228	78.85
856.403	19.46
856.577	-27.65
856.752	-60.42
856.926	46.08
857.101	15.36
857.276	-62.46
857.45	-5.12
857.625	60.42
857.799	44.03
857.974	-23.55
858.148	5.12
858.323	25.6
858.497	68.61
858.672	-17.41
858.846	3.07
859.02	21.5
859.195	-37.89
859.369	46.08
859.543	-33.79
859.718	27.65
859.892	29.7
860.066	-19.46
860.241	5.12
860.415	-13.31
860.589	-21.5
860.763	35.84
860.938	11.26
861.112	-13.31
861.286	-17.41
861.46	35.84
861.634	-21.5
861.808	19.46
861.982	-82.94
862.157	17.41
862.331	-70.65
862.505	-72.7
862.679	31.74
862.853	5.12
863.027	23.55
863.201	80.89
863.375	-37.89
863.549	-1.02
863.722	62.46
863.896	46.08
864.07	-31.74
864.244	-23.55
864.418	-41.98
864.592	19.46
864.766	60.42
864.939	15.36
865.113	1.02
865.287	-35.84
865.461	13.31
865.634	5.12
865.808	-5.12
865.982	5.12
866.156	52.22
866.329	-37.89
866.503	50.18
866.676	33.79
866.85	-19.46
867.024	-46.08
867.197	54.27
867.371	5.12
867.544	-13.31
867.718	44.03
867.891	-5.12
868.065	-21.5
868.238	15.36
868.412	3.07
868.585	-5.12
868.759	3.07
868.932	27.65
869.105	-11.26
869.279	-3.07
869.452	11.26
869.625	-58.37
869.799	35.84
869.972	15.36
870.145	-15.36
870.319	-50.18
870.492	1.02
870.665	5.12
870.838	-11.26
871.011	-52.22
871.185	-3.07
871.358	-27.65
871.531	44.03
871.704	-13.31
871.877	-11.26
872.05	60.42
872.223	23.55
872.396	56.32
872.569	21.5
872.742	-97.28
872.915	3.07
873.088	3.07
873.261	-76.8
873.434	-35.84
873.607	-41.98
873.78	19.46
873.953	-3.07
874.126	17.41
874.299	-33.79
874.471	7.17
874.644	-29.7
874.817	3.07
874.99	52.22
875.163	-3.07
875.335	27.65
875.508	-17.41
875.681	58.37
875.853	-19.46
876.026	-60.42
876.199	-3.07
876.371	54.27
876.544	19.46
876.717	-54.27
876.889	-37.89
877.062	39.94
877.234	76.8
877.407	-52.22
877.579	-5.12
877.752	27.65
877.924	95.23
878.097	27.65
878.269	-52.22
878.442	-62.46
878.614	-44.03
878.786	-21.5
878.959	-41.98
879.131	31.74
879.303	-17.41
879.476	5.12
879.648	35.84
879.82	-54.27
879.993	-25.6
880.165	35.84
880.337	-5.12
880.509	52.22
880.681	-54.27
880.854	-17.41
881.026	23.55
881.198	117.76
881.37	-29.7
881.542	25.6
881.714	-5.12
881.886	15.36
882.058	11.26
882.23	29.7
882.402	17.41
882.574	-29.7
882.746	-76.8
882.918	54.27
883.09	68.61
883.262	52.22
883.434	17.41
883.606	-78.85
883.778	-29.7
883.95	37.89
884.122	27.65
884.293	27.65
884.465	-9.22
884.637	35.84
884.809	13.31
884.98	-33.79
885.152	-54.27
885.324	-37.89
885.496	-29.7
885.667	-33.79
885.839	5.12
886.011	15.36
886.182	48.13
886.354	-1.02
886.525	-13.31
886.697	-50.18
886.869	-37.89
887.04	7.17
887.212	44.03
887.383	31.74
887.555	-39.94
887.726	-17.41
887.897	-74.75
888.069	-74.75
888.24	31.74
888.412	-11.26
888.583	48.13
888.754	-29.7
888.926	-54.27
889.097	3.07
889.268	-15.36
889.44	-54.27
889.611	-62.46
889.782	-29.7
889.953	-19.46
890.125	-5.12
890.296	9.22
890.467	7.17
890.638	21.5
890.809	-44.03
890.98	1.02
891.151	-3.07
891.323	37.89
891.494	3.07
891.665	-19.46
891.836	-21.5
892.007	15.36
892.178	19.46
892.349	-66.56
892.52	-37.89
892.691	46.08
892.862	17.41
893.032	-44.03
893.203	1.02
893.374	-17.41
893.545	41.98
893.716	-52.22
893.887	68.61
894.057	-9.22
894.228	25.6
894.399	-115.71
894.57	21.5
894.74	11.26
894.911	35.84
895.082	1.02
895.253	29.7
895.423	-37.89
895.594	52.22
895.764	5.12
895.935	-5.12
896.106	19.46
896.276	-11.26
896.447	3.07
896.617	15.36
896.788	-33.79
896.958	13.31
897.129	13.31
897.299	-84.99
897.47	-21.5
897.64	-5.12
897.81	37.89
897.981	-41.98
898.151	-78.85
898.322	-1.02
898.492	-1.02
898.662	-46.08
898.832	25.6
899.003	52.22
899.173	3.07
899.343	-25.6
899.513	-31.74
