Data from USB4F104151__197__14-45-16-771.txt Node

Date: Thu Mar 13 14:45:16 EDT 2025
User: louis
Spectrometer: USB4F10415
Trigger mode: 4
Integration Time (sec): 2.000000E-2
Scans to average: 1
Electric dark correction enabled: true
Nonlinearity correction enabled: false
Boxcar width: 0
XAxis mode: Wavelengths
Number of Pixels in Spectrum: 3648
>>>>>Begin Spectral Data<<<<<
178.204	-109.57
178.424	-109.57
178.644	-109.57
178.864	-119.81
179.084	-132.09
179.304	19.46
179.524	13.31
179.744	-27.65
179.964	52.22
180.184	-68.61
180.404	3.07
180.624	19.46
180.844	-37.89
181.064	7.17
181.283	11.26
181.503	-15.36
181.723	23.55
181.943	-111.61
182.163	64.51
182.383	60.42
182.602	44.03
182.822	-13.31
183.042	-13.31
183.262	-33.79
183.482	80.89
183.701	46.08
183.921	11.26
184.141	-17.41
184.361	113.66
184.58	31.74
184.8	41.98
185.02	23.55
185.239	62.46
185.459	5.12
185.679	48.13
185.898	-21.5
186.118	60.42
186.338	-19.46
186.557	21.5
186.777	21.5
186.997	-13.31
187.216	-7.17
187.436	78.85
187.655	-5.12
187.875	35.84
188.095	7.17
188.314	11.26
188.534	46.08
188.753	-5.12
188.973	84.99
189.192	101.37
189.412	52.22
189.631	101.37
189.851	7.17
190.07	52.22
190.29	1.02
190.509	21.5
190.729	-29.7
190.948	-66.56
191.168	119.81
191.387	109.57
191.607	-33.79
191.826	11.26
192.045	9.22
192.265	19.46
192.484	23.55
192.704	-5.12
192.923	-3.07
193.142	64.51
193.362	48.13
193.581	60.42
193.8	35.84
194.02	27.65
194.239	35.84
194.458	-37.89
194.678	13.31
194.897	-87.04
195.116	52.22
195.335	15.36
195.555	52.22
195.774	46.08
195.993	-11.26
196.212	-17.41
196.432	-5.12
196.651	15.36
196.87	11.26
197.089	93.18
197.308	76.8
197.528	27.65
197.747	-54.27
197.966	-19.46
198.185	19.46
198.404	-5.12
198.623	-52.22
198.842	64.51
199.062	-11.26
199.281	19.46
199.5	68.61
199.719	7.17
199.938	31.74
200.157	-27.65
200.376	52.22
200.595	-15.36
200.814	35.84
201.033	41.98
201.252	-35.84
201.471	44.03
201.69	109.57
201.909	72.7
202.128	95.23
202.347	-19.46
202.566	-37.89
202.785	37.89
203.004	-46.08
203.223	39.94
203.442	103.42
203.661	39.94
203.879	60.42
204.098	5.12
204.317	3.07
204.536	-54.27
204.755	29.7
204.974	-1.02
205.193	68.61
205.411	93.18
205.63	-17.41
205.849	44.03
206.068	-64.51
206.287	-37.89
206.505	-5.12
206.724	-25.6
206.943	-11.26
207.162	-23.55
207.381	3.07
207.599	25.6
207.818	52.22
208.037	21.5
208.255	27.65
208.474	21.5
208.693	-13.31
208.911	15.36
209.13	-13.31
209.349	39.94
209.567	121.85
209.786	76.8
210.005	1.02
210.223	23.55
210.442	-41.98
210.661	-74.75
210.879	-19.46
211.098	-1.02
211.316	37.89
211.535	44.03
211.753	21.5
211.972	35.84
212.191	-70.65
212.409	7.17
212.628	11.26
212.846	-11.26
213.065	84.99
213.283	58.37
213.502	-9.22
213.72	-21.5
213.938	-1.02
214.157	93.18
214.375	60.42
214.594	-27.65
214.812	19.46
215.031	46.08
215.249	-37.89
215.467	74.75
215.686	-5.12
215.904	-3.07
216.122	11.26
216.341	7.17
216.559	15.36
216.778	-5.12
216.996	58.37
217.214	11.26
217.432	87.04
217.651	-44.03
217.869	29.7
218.087	-29.7
218.306	5.12
218.524	-54.27
218.742	37.89
218.96	44.03
219.179	-29.7
219.397	-19.46
219.615	87.04
219.833	33.79
220.051	-25.6
220.27	-3.07
220.488	-5.12
220.706	23.55
220.924	11.26
221.142	84.99
221.36	-13.31
221.578	-13.31
221.796	-3.07
222.015	27.65
222.233	46.08
222.451	60.42
222.669	54.27
222.887	37.89
223.105	-13.31
223.323	15.36
223.541	-3.07
223.759	-29.7
223.977	72.7
224.195	33.79
224.413	44.03
224.631	-5.12
224.849	-1.02
225.067	39.94
225.285	-46.08
225.503	-84.99
225.721	-35.84
225.939	1.02
226.157	62.46
226.375	19.46
226.592	35.84
226.81	48.13
227.028	48.13
227.246	37.89
227.464	-37.89
227.682	103.42
227.9	9.22
228.117	29.7
228.335	-27.65
228.553	17.41
228.771	5.12
228.989	-13.31
229.206	-5.12
229.424	19.46
229.642	-58.37
229.86	19.46
230.077	11.26
230.295	78.85
230.513	15.36
230.731	29.7
230.948	150.53
231.166	37.89
231.384	3.07
231.601	31.74
231.819	3.07
232.037	27.65
232.254	84.99
232.472	35.84
232.689	-48.13
232.907	35.84
233.125	-35.84
233.342	-60.42
233.56	-17.41
233.777	48.13
233.995	48.13
234.213	21.5
234.43	-25.6
234.648	-1.02
234.865	27.65
235.083	52.22
235.3	23.55
235.518	3.07
235.735	39.94
235.953	93.18
236.17	3.07
236.388	-11.26
236.605	11.26
236.822	15.36
237.04	64.51
237.257	-72.7
237.475	-97.28
237.692	5.12
237.909	19.46
238.127	27.65
238.344	107.52
238.562	44.03
238.779	-29.7
238.996	37.89
239.214	-21.5
239.431	66.56
239.648	-44.03
239.865	-29.7
240.083	-33.79
240.3	39.94
240.517	-9.22
240.735	-13.31
240.952	-29.7
241.169	39.94
241.386	27.65
241.603	23.55
241.821	68.61
242.038	52.22
242.255	35.84
242.472	-35.84
242.689	99.33
242.907	19.46
243.124	-31.74
243.341	-13.31
243.558	-13.31
243.775	-1.02
243.992	44.03
244.209	44.03
244.426	37.89
244.643	-5.12
244.86	52.22
245.078	76.8
245.295	103.42
245.512	-1.02
245.729	76.8
245.946	46.08
246.163	44.03
246.38	-29.7
246.597	-5.12
246.814	-13.31
247.031	29.7
247.248	66.56
247.464	44.03
247.681	48.13
247.898	7.17
248.115	68.61
248.332	37.89
248.549	60.42
248.766	21.5
248.983	113.66
249.2	-33.79
249.417	62.46
249.633	52.22
249.85	64.51
250.067	19.46
250.284	19.46
250.501	-19.46
250.717	35.84
250.934	-21.5
251.151	27.65
251.368	-39.94
251.585	13.31
251.801	93.18
252.018	60.42
252.235	-17.41
252.451	29.7
252.668	-27.65
252.885	17.41
253.102	31.74
253.318	-5.12
253.535	-5.12
253.752	7.17
253.968	31.74
254.185	-41.98
254.401	-19.46
254.618	-78.85
254.835	-19.46
255.051	37.89
255.268	13.31
255.484	29.7
255.701	-21.5
255.917	52.22
256.134	-17.41
256.351	5.12
256.567	-54.27
256.784	-33.79
257	-5.12
257.217	54.27
257.433	-25.6
257.65	9.22
257.866	62.46
258.082	41.98
258.299	-44.03
258.515	19.46
258.732	60.42
258.948	-54.27
259.165	15.36
259.381	58.37
259.597	-5.12
259.814	21.5
260.03	89.09
260.246	-15.36
260.463	31.74
260.679	74.75
260.895	27.65
261.112	-46.08
261.328	-5.12
261.544	31.74
261.761	68.61
261.977	29.7
262.193	19.46
262.409	58.37
262.626	-5.12
262.842	35.84
263.058	1.02
263.274	23.55
263.49	-25.6
263.707	44.03
263.923	119.81
264.139	37.89
264.355	-27.65
264.571	35.84
264.787	41.98
265.004	68.61
265.22	-1.02
265.436	19.46
265.652	23.55
265.868	-5.12
266.084	27.65
266.3	-33.79
266.516	52.22
266.732	21.5
266.948	29.7
267.164	27.65
267.38	15.36
267.596	31.74
267.812	70.65
268.028	27.65
268.244	97.28
268.46	91.13
268.676	-13.31
268.892	31.74
269.108	-33.79
269.324	41.98
269.54	-3.07
269.756	105.47
269.972	23.55
270.188	52.22
270.403	11.26
270.619	-17.41
270.835	17.41
271.051	29.7
271.267	-3.07
271.483	68.61
271.698	66.56
271.914	66.56
272.13	80.89
272.346	-60.42
272.562	64.51
272.777	93.18
272.993	-60.42
273.209	23.55
273.425	68.61
273.64	-52.22
273.856	101.37
274.072	66.56
274.287	1.02
274.503	39.94
274.719	-5.12
274.934	1.02
275.15	46.08
275.366	27.65
275.581	-46.08
275.797	13.31
276.012	-9.22
276.228	21.5
276.444	25.6
276.659	60.42
276.875	21.5
277.09	3.07
277.306	29.7
277.521	-21.5
277.737	37.89
277.952	3.07
278.168	46.08
278.383	-29.7
278.599	-7.17
278.814	62.46
279.03	13.31
279.245	60.42
279.461	27.65
279.676	23.55
279.892	37.89
280.107	-37.89
280.322	-70.65
280.538	35.84
280.753	-54.27
280.969	60.42
281.184	80.89
281.399	48.13
281.615	46.08
281.83	76.8
282.045	-99.33
282.26	-5.12
282.476	-1.02
282.691	58.37
282.906	-29.7
283.122	76.8
283.337	23.55
283.552	-17.41
283.767	13.31
283.983	-62.46
284.198	9.22
284.413	60.42
284.628	1.02
284.843	-5.12
285.058	107.52
285.274	-29.7
285.489	27.65
285.704	144.38
285.919	60.42
286.134	7.17
286.349	-46.08
286.564	-37.89
286.779	54.27
286.995	-5.12
287.21	-50.18
287.425	60.42
287.64	48.13
287.855	37.89
288.07	-78.85
288.285	-29.7
288.5	111.61
288.715	56.32
288.93	41.98
289.145	27.65
289.36	27.65
289.575	11.26
289.79	76.8
290.004	19.46
290.219	84.99
290.434	19.46
290.649	23.55
290.864	-33.79
291.079	84.99
291.294	76.8
291.509	3.07
291.724	39.94
291.938	68.61
292.153	58.37
292.368	44.03
292.583	60.42
292.798	31.74
293.012	-13.31
293.227	78.85
293.442	-11.26
293.657	-11.26
293.871	13.31
294.086	-13.31
294.301	119.81
294.516	64.51
294.73	27.65
294.945	-17.41
295.16	-13.31
295.374	68.61
295.589	64.51
295.804	-9.22
296.018	19.46
296.233	35.84
296.447	80.89
296.662	13.31
296.877	29.7
297.091	84.99
297.306	72.7
297.52	19.46
297.735	68.61
297.949	-33.79
298.164	31.74
298.378	-31.74
298.593	64.51
298.807	-54.27
299.022	44.03
299.236	64.51
299.451	23.55
299.665	-123.9
299.88	11.26
300.094	23.55
300.309	31.74
300.523	-66.56
300.737	84.99
300.952	9.22
301.166	27.65
301.381	-39.94
301.595	-46.08
301.809	-21.5
302.024	48.13
302.238	9.22
302.452	17.41
302.667	44.03
302.881	58.37
303.095	91.13
303.309	35.84
303.524	29.7
303.738	11.26
303.952	-9.22
304.166	13.31
304.381	-15.36
304.595	84.99
304.809	13.31
305.023	56.32
305.237	62.46
305.452	-19.46
305.666	13.31
305.88	31.74
306.094	44.03
306.308	31.74
306.522	23.55
306.736	54.27
306.95	60.42
307.164	-1.02
307.379	-11.26
307.593	111.61
307.807	19.46
308.021	150.53
308.235	-19.46
308.449	46.08
308.663	-25.6
308.877	117.76
309.091	7.17
309.305	103.42
309.519	-7.17
309.733	95.23
309.947	37.89
310.161	29.7
310.374	52.22
310.588	29.7
310.802	-5.12
311.016	37.89
311.23	5.12
311.444	5.12
311.658	15.36
311.872	60.42
312.085	78.85
312.299	7.17
312.513	27.65
312.727	35.84
312.941	-41.98
313.154	52.22
313.368	44.03
313.582	60.42
313.796	-25.6
314.009	-17.41
314.223	91.13
314.437	-5.12
314.651	48.13
314.864	-17.41
315.078	-29.7
315.292	-11.26
315.505	23.55
315.719	3.07
315.933	41.98
316.146	72.7
316.36	62.46
316.573	93.18
316.787	19.46
317.001	64.51
317.214	-3.07
317.428	35.84
317.641	-19.46
317.855	27.65
318.068	19.46
318.282	72.7
318.495	70.65
318.709	80.89
318.922	68.61
319.136	74.75
319.349	150.53
319.563	64.51
319.776	-1.02
319.99	-9.22
320.203	33.79
320.417	-9.22
320.63	60.42
320.843	68.61
321.057	44.03
321.27	27.65
321.483	-7.17
321.697	44.03
321.91	39.94
322.124	33.79
322.337	21.5
322.55	-35.84
322.763	7.17
322.977	1.02
323.19	27.65
323.403	62.46
323.617	46.08
323.83	117.76
324.043	21.5
324.256	44.03
324.469	-13.31
324.683	7.17
324.896	33.79
325.109	-33.79
325.322	31.74
325.535	9.22
325.748	68.61
325.962	-5.12
326.175	-3.07
326.388	-3.07
326.601	80.89
326.814	5.12
327.027	46.08
327.24	-3.07
327.453	-7.17
327.666	80.89
327.879	11.26
328.092	27.65
328.305	9.22
328.518	3.07
328.731	35.84
328.944	11.26
329.157	50.18
329.37	-13.31
329.583	84.99
329.796	78.85
330.009	23.55
330.222	23.55
330.435	-17.41
330.648	52.22
330.861	15.36
331.073	15.36
331.286	35.84
331.499	44.03
331.712	3.07
331.925	-11.26
332.138	-13.31
332.35	-17.41
332.563	25.6
332.776	5.12
332.989	44.03
333.202	-1.02
333.414	64.51
333.627	3.07
333.84	50.18
334.053	19.46
334.265	68.61
334.478	-21.5
334.691	60.42
334.903	3.07
335.116	19.46
335.329	35.84
335.541	68.61
335.754	97.28
335.966	68.61
336.179	72.7
336.392	3.07
336.604	-5.12
336.817	35.84
337.029	19.46
337.242	60.42
337.454	101.37
337.667	9.22
337.88	37.89
338.092	3.07
338.305	39.94
338.517	-33.79
338.729	27.65
338.942	76.8
339.154	39.94
339.367	52.22
339.579	60.42
339.792	-58.37
340.004	19.46
340.217	9.22
340.429	-7.17
340.641	-1.02
340.854	37.89
341.066	7.17
341.278	37.89
341.491	117.76
341.703	-37.89
341.915	44.03
342.128	33.79
342.34	48.13
342.552	-78.85
342.764	-33.79
342.977	21.5
343.189	76.8
343.401	-13.31
343.613	9.22
343.826	9.22
344.038	54.27
344.25	1.02
344.462	52.22
344.674	-70.65
344.886	74.75
345.099	62.46
345.311	-1.02
345.523	-27.65
345.735	27.65
345.947	5.12
346.159	15.36
346.371	27.65
346.583	54.27
346.795	-3.07
347.007	48.13
347.219	35.84
347.431	-17.41
347.643	93.18
347.855	-3.07
348.067	84.99
348.279	35.84
348.491	62.46
348.703	46.08
348.915	52.22
349.127	44.03
349.339	150.53
349.551	-13.31
349.763	134.14
349.975	27.65
350.187	97.28
350.399	68.61
350.61	41.98
350.822	7.17
351.034	60.42
351.246	39.94
351.458	-3.07
351.669	11.26
351.881	117.76
352.093	89.09
352.305	25.6
352.517	134.14
352.728	68.61
352.94	37.89
353.152	11.26
353.363	-50.18
353.575	52.22
353.787	70.65
353.999	-5.12
354.21	80.89
354.422	113.66
354.633	31.74
354.845	39.94
355.057	-68.61
355.268	-5.12
355.48	142.33
355.692	37.89
355.903	15.36
356.115	44.03
356.326	-21.5
356.538	68.61
356.749	54.27
356.961	105.47
357.172	33.79
357.384	15.36
357.595	134.14
357.807	21.5
358.018	-19.46
358.23	52.22
358.441	37.89
358.653	76.8
358.864	39.94
359.075	27.65
359.287	35.84
359.498	91.13
359.709	11.26
359.921	84.99
360.132	48.13
360.344	37.89
360.555	13.31
360.766	44.03
360.977	5.12
361.189	60.42
361.4	35.84
361.611	52.22
361.823	117.76
362.034	13.31
362.245	-17.41
362.456	52.22
362.667	68.61
362.879	11.26
363.09	60.42
363.301	97.28
363.512	27.65
363.723	31.74
363.935	60.42
364.146	39.94
364.357	31.74
364.568	68.61
364.779	7.17
364.99	60.42
365.201	35.84
365.412	84.99
365.623	-5.12
365.834	27.65
366.045	84.99
366.256	130.05
366.467	84.99
366.678	11.26
366.889	21.5
367.1	5.12
367.311	52.22
367.522	37.89
367.733	19.46
367.944	35.84
368.155	-9.22
368.366	17.41
368.577	60.42
368.788	41.98
368.999	-15.36
369.209	72.7
369.42	27.65
369.631	150.53
369.842	60.42
370.053	3.07
370.264	66.56
370.474	-23.55
370.685	-5.12
370.896	21.5
371.107	52.22
371.317	93.18
371.528	50.18
371.739	132.09
371.95	60.42
372.16	101.37
372.371	19.46
372.582	31.74
372.792	64.51
373.003	70.65
373.214	17.41
373.424	150.53
373.635	97.28
373.846	89.09
374.056	19.46
374.267	46.08
374.477	80.89
374.688	21.5
374.898	23.55
375.109	39.94
375.319	48.13
375.53	144.38
375.74	-35.84
375.951	31.74
376.161	37.89
376.372	39.94
376.582	19.46
376.793	48.13
377.003	31.74
377.214	19.46
377.424	70.65
377.635	56.32
377.845	70.65
378.055	56.32
378.266	21.5
378.476	-46.08
378.686	1.02
378.897	-7.17
379.107	95.23
379.317	136.19
379.528	-37.89
379.738	23.55
379.948	70.65
380.158	101.37
380.369	52.22
380.579	29.7
380.789	-54.27
380.999	-5.12
381.21	62.46
381.42	62.46
381.63	48.13
381.84	35.84
382.05	84.99
382.261	64.51
382.471	97.28
382.681	48.13
382.891	66.56
383.101	70.65
383.311	39.94
383.521	54.27
383.731	68.61
383.941	3.07
384.151	97.28
384.361	62.46
384.571	17.41
384.781	11.26
384.991	125.95
385.201	101.37
385.411	58.37
385.621	52.22
385.831	89.09
386.041	101.37
386.251	76.8
386.461	78.85
386.671	76.8
386.881	70.65
387.091	113.66
387.301	119.81
387.511	11.26
387.72	68.61
387.93	97.28
388.14	-7.17
388.35	87.04
388.56	150.53
388.769	123.9
388.979	109.57
389.189	-29.7
389.399	64.51
389.609	97.28
389.818	97.28
390.028	31.74
390.238	99.33
390.447	54.27
390.657	105.47
390.867	41.98
391.076	97.28
391.286	68.61
391.496	-1.02
391.705	87.04
391.915	109.57
392.125	144.38
392.334	27.65
392.544	52.22
392.753	39.94
392.963	-3.07
393.172	27.65
393.382	27.65
393.591	60.42
393.801	3.07
394.01	95.23
394.22	7.17
394.429	50.18
394.639	11.26
394.848	52.22
395.058	46.08
395.267	48.13
395.477	109.57
395.686	105.47
395.895	142.33
396.105	152.57
396.314	105.47
396.524	3.07
396.733	93.18
396.942	76.8
397.152	109.57
397.361	93.18
397.57	93.18
397.78	162.81
397.989	31.74
398.198	37.89
398.407	109.57
398.617	82.94
398.826	136.19
399.035	41.98
399.244	168.96
399.453	70.65
399.663	68.61
399.872	54.27
400.081	156.67
400.29	134.14
400.499	44.03
400.708	150.53
400.917	103.42
401.127	68.61
401.336	52.22
401.545	142.33
401.754	119.81
401.963	154.62
402.172	89.09
402.381	109.57
402.59	109.57
402.799	142.33
403.008	70.65
403.217	76.8
403.426	54.27
403.635	52.22
403.844	154.62
404.053	150.53
404.262	125.95
404.471	187.39
404.68	115.71
404.888	125.95
405.097	175.1
405.306	150.53
405.515	91.13
405.724	101.37
405.933	183.29
406.142	181.25
406.35	218.11
406.559	173.05
406.768	158.72
406.977	240.64
407.185	130.05
407.394	150.53
407.603	166.91
407.812	183.29
408.02	240.64
408.229	216.06
408.438	220.16
408.646	232.44
408.855	216.06
409.064	240.64
409.272	216.06
409.481	273.4
409.69	257.02
409.898	177.15
410.107	416.76
410.315	349.18
410.524	211.96
410.733	388.09
410.941	310.27
411.15	369.66
411.358	355.32
411.567	412.67
411.775	332.79
411.984	429.05
412.192	498.68
412.401	412.67
412.609	441.34
412.818	486.39
413.026	424.95
413.234	463.86
413.443	519.16
413.651	486.39
413.86	545.78
414.068	564.22
414.276	680.95
414.485	617.46
414.693	723.96
414.901	668.66
415.11	660.47
415.318	650.23
415.526	683
415.734	760.82
415.943	683
416.151	803.83
416.359	826.36
416.567	793.59
416.776	848.88
416.984	932.85
417.192	986.1
417.4	994.29
417.608	967.67
417.817	1020.91
418.025	1088.5
418.233	1100.78
418.441	1162.22
418.649	1158.13
418.857	1244.14
419.065	1213.42
419.273	1172.46
419.481	1313.77
419.689	1453.03
419.897	1465.32
420.105	1526.76
420.313	1471.47
420.521	1547.24
420.729	1602.54
420.937	1651.69
421.145	1696.74
421.353	1829.86
421.561	1866.72
421.769	1903.59
421.977	1932.26
422.185	2110.43
422.393	2120.67
422.601	2257.89
422.809	2188.25
423.017	2362.33
423.224	2268.13
423.432	2329.56
423.64	2362.33
423.848	2632.66
424.056	2577.37
424.263	2806.74
424.471	2784.21
424.679	2878.42
424.887	2929.62
425.094	3142.61
425.302	3128.27
425.51	3234.77
425.718	3419.08
425.925	3304.4
426.133	3584.97
426.341	3689.42
426.548	3838.92
426.756	3830.73
426.964	3906.5
427.171	4117.44
427.379	4123.59
427.586	4225.98
427.794	4412.35
428.001	4676.54
428.209	4819.89
428.417	4725.69
428.624	5049.27
428.832	5180.34
429.039	5049.27
429.247	5102.51
429.454	5565.36
429.662	6079.4
429.869	5413.81
430.076	5942.18
430.284	5827.5
430.491	6179.75
430.699	6362.01
430.906	6462.37
431.114	6566.81
431.321	6814.62
431.528	6863.77
431.736	7197.59
431.943	7586.7
432.15	7281.55
432.358	7588.75
432.565	8004.49
432.772	7897.99
432.979	8115.08
433.187	8235.91
433.394	8401.79
433.601	9161.59
433.808	9194.36
434.016	8876.92
434.223	9335.67
434.43	9845.61
434.637	9735.02
434.844	10263.4
435.052	10451.81
435.259	10443.62
435.466	10488.67
435.673	10562.4
435.88	11352.91
436.087	11735.88
436.294	11885.39
436.501	11432.79
436.708	11629.39
436.915	11998.02
437.122	12628.8
437.329	12540.74
437.537	12981.05
437.743	13144.89
437.95	13267.77
438.157	14005.03
438.364	14070.57
438.571	14203.69
438.778	14205.74
438.985	15692.56
439.192	15059.74
439.399	15760.14
439.606	15344.41
439.813	16167.69
440.02	16966.4
440.227	16898.81
440.433	16714.5
440.64	17083.13
440.847	17007.36
441.054	17486.58
441.261	18582.24
441.467	18572
441.674	18744.03
441.881	19501.78
442.088	19491.54
442.294	19487.45
442.501	19903.18
442.708	20003.53
442.914	20888.26
443.121	21654.2
443.328	21220.03
443.534	23102.11
443.741	21908.15
443.948	21938.87
444.154	23300.76
444.361	23356.06
444.568	23196.32
444.774	23282.33
444.981	23431.83
445.187	24371.85
445.394	25432.7
445.6	24828.55
445.807	27740.76
446.013	26251.89
446.22	26720.87
446.426	27972.18
446.633	27783.77
446.839	29090.37
447.046	27865.69
447.252	29717.05
447.459	29221.44
447.665	29461.05
447.871	30640.68
448.078	31959.58
448.284	30630.44
448.491	31265.31
448.697	32406.03
448.903	32868.87
449.11	33352.2
449.316	32500.24
449.522	33290.76
449.728	33880.57
449.935	34378.23
450.141	34298.36
450.347	35389.92
450.553	34187.77
450.76	34597.36
450.966	35983.83
451.172	35555.81
451.378	36266.45
451.584	35658.21
451.791	36288.98
451.997	36768.21
452.203	37077.45
452.409	37161.42
452.615	37210.57
452.821	35516.9
453.027	35494.37
453.233	37220.81
453.44	36055.51
453.646	36389.33
453.852	36162.01
454.058	36899.28
454.264	36098.52
454.47	36874.7
454.676	35815.9
454.882	37054.92
455.088	33841.66
455.294	34210.29
455.5	34714.09
455.705	35019.24
455.911	33686.01
456.117	32891.4
456.323	32946.7
456.529	31187.49
456.735	32668.17
456.941	31762.97
457.147	31255.08
457.352	30595.63
457.558	29934.14
457.764	29856.31
457.97	29117
458.176	28820.04
458.381	29065.8
458.587	27497.05
458.793	27308.64
458.999	26370.67
459.204	27701.85
459.41	27460.19
459.616	25442.94
459.821	25436.8
460.027	25432.7
460.233	25082.5
460.438	23650.97
460.644	24021.65
460.85	22809.25
461.055	22602.41
461.261	22446.76
461.466	20775.62
461.672	20136.65
461.878	21973.68
462.083	20327.11
462.289	19917.52
462.494	19692.24
462.7	18920.16
462.905	18320.1
463.111	19210.97
463.316	19106.52
463.522	18748.13
463.727	18643.68
463.932	18877.15
464.138	18455.27
464.343	18789.09
464.549	18148.08
464.754	18668.26
464.959	18420.45
465.165	18434.79
465.37	17660.66
465.575	17279.74
465.781	17777.39
465.986	17980.14
466.191	17580.79
466.397	16872.19
466.602	16290.57
466.807	16857.85
467.012	16642.82
467.218	16544.52
467.423	16331.53
467.628	16466.69
467.833	17292.02
468.038	16591.62
468.244	16210.7
468.449	16818.94
468.654	16401.16
468.859	16087.82
469.064	16222.98
469.269	15665.94
469.474	15872.78
469.679	15702.8
469.885	15305.49
470.09	15770.38
470.295	15483.67
470.5	15067.93
470.705	15248.15
470.91	15002.4
471.115	14654.24
471.32	15256.34
471.525	15168.28
471.73	14596.9
471.935	14564.13
472.139	13959.98
472.344	14283.56
472.549	13945.64
472.754	13957.93
472.959	13591.34
473.164	13427.51
473.369	13488.95
473.574	13933.36
473.778	13544.24
473.983	13361.97
474.188	13566.77
474.393	12774.21
474.598	12882.75
474.802	12776.25
475.007	12755.77
475.212	12731.2
475.417	12348.23
475.621	12327.75
475.826	12270.4
476.031	12288.84
476.235	11717.45
476.44	12143.43
476.645	11817.8
476.849	11817.8
477.054	11684.69
477.259	11379.54
477.463	11682.64
477.668	11201.37
477.872	11440.98
478.077	11139.93
478.282	10943.32
478.486	10855.26
478.691	10941.27
478.895	10840.92
479.1	10695.52
479.304	10853.21
479.509	10343.27
479.713	10525.54
479.918	10226.53
480.122	10072.93
480.326	10392.42
480.531	10445.66
480.735	10216.29
480.94	9958.25
481.144	10568.54
481.348	10038.12
481.553	10173.28
481.757	9857.9
481.961	10206.05
482.166	10201.96
482.37	10146.66
482.574	9816.94
482.778	9933.67
482.983	9960.3
483.187	9991.02
483.391	9902.95
483.595	9892.71
483.8	9841.51
484.004	9808.75
484.208	9968.49
484.412	9964.39
484.616	9898.86
484.821	9892.71
485.025	9757.55
485.229	10001.26
485.433	10048.36
485.637	10117.99
485.841	9911.14
486.045	9767.79
486.249	9857.9
486.453	9784.17
486.657	10099.56
486.861	10091.37
487.065	9608.05
487.269	9931.62
487.473	9902.95
487.677	10021.74
487.881	10089.32
488.085	9937.77
488.289	9874.28
488.493	10036.07
488.697	10183.52
488.901	10007.4
489.105	10003.3
489.309	9993.06
489.512	10072.93
489.716	10228.58
489.92	10099.56
490.124	9933.67
490.328	10357.6
490.531	10214.24
490.735	10316.64
490.939	10388.32
491.143	10152.81
491.346	10228.58
491.55	10398.56
491.754	10355.55
491.958	10423.14
492.161	10705.76
492.365	10476.38
492.569	10347.36
492.772	10464.1
492.976	10726.24
493.18	10935.13
493.383	10759
493.587	10935.13
493.79	10928.99
493.994	10824.54
494.197	11187.03
494.401	10965.85
494.605	11146.07
494.808	11438.93
495.012	11250.52
495.215	11631.44
495.419	11502.42
495.622	11447.12
495.825	11756.36
496.029	11782.99
496.232	12176.2
496.436	11875.15
496.639	12266.31
496.843	12168.01
497.046	12311.36
497.249	12604.22
497.453	12473.15
497.656	12735.29
497.859	13005.63
498.063	13126.46
498.266	13437.75
498.469	13323.06
498.673	13441.84
498.876	13585.2
499.079	13837.1
499.282	13941.55
499.485	14224.17
499.689	14017.32
499.892	14207.78
500.095	14590.75
500.298	14723.87
500.501	14439.2
500.705	15112.99
500.908	15342.36
501.111	15430.42
501.314	15530.77
501.517	15702.8
501.72	16007.95
501.923	15905.55
502.126	16519.94
502.329	16702.21
502.532	16614.15
502.735	16673.54
502.938	17117.95
503.141	16999.16
503.344	17425.14
503.547	17201.91
503.75	17867.5
503.953	18174.7
504.156	18252.52
504.359	18547.43
504.562	18301.67
504.765	18911.97
504.968	18914.02
505.17	19073.76
505.373	18993.89
505.576	19770.07
505.779	19829.46
505.982	19712.72
506.185	20372.17
506.387	20550.34
506.59	20832.96
506.793	21215.93
506.996	20990.66
507.198	21576.37
507.401	21451.45
507.604	22022.83
507.807	22467.24
508.009	22596.26
508.212	22528.68
508.415	22809.25
508.617	23093.92
508.82	23106.21
509.022	23237.28
509.225	23808.66
509.428	24005.27
509.63	24289.93
509.833	24232.59
510.035	24963.72
510.238	24908.42
510.44	25348.73
510.643	25657.98
510.845	25926.26
511.048	25619.07
511.25	26471.02
511.453	26473.07
511.655	27478.62
511.858	27040.36
512.06	27306.59
512.262	27447.9
512.465	27501.15
512.667	28090.96
512.87	28211.79
513.072	28424.78
513.274	29082.18
513.477	29344.32
513.679	29512.25
513.881	29927.99
514.084	30298.67
514.286	29966.9
514.488	30366.26
514.69	31293.99
514.893	31216.16
515.095	31304.23
515.297	32182.8
515.499	31638.05
515.701	32490
515.904	32481.81
516.106	32766.48
516.308	33051.14
516.51	33643.01
516.712	33726.97
516.914	34382.32
517.116	34142.71
517.318	34753.01
517.52	35172.84
517.722	35283.43
517.925	35369.44
518.127	35813.85
518.329	36061.66
518.531	35977.69
518.733	36602.32
518.935	37548.48
519.136	36872.65
519.338	37765.57
519.54	37888.45
519.742	37917.12
519.944	38420.92
520.146	39068.08
520.348	39156.14
520.55	39223.72
520.752	39432.61
520.954	40065.44
521.155	39930.27
521.357	40069.53
521.559	40866.19
521.761	41087.37
521.963	41009.55
522.164	41050.51
522.366	41591.17
522.568	41892.22
522.77	41843.07
522.971	43069.81
523.173	41996.67
523.375	42461.56
523.576	42723.7
523.778	42877.3
523.98	43518.31
524.181	43925.86
524.383	43288.94
524.584	44409.18
524.786	44360.03
524.988	44179.81
525.189	44597.59
525.391	44816.72
525.592	45054.29
525.794	45766.98
525.995	45367.63
526.197	45408.59
526.398	45441.35
526.6	45719.88
526.801	46080.32
527.003	46311.74
527.204	46063.94
527.406	46680.38
527.607	46606.65
527.808	46874.93
528.01	46211.39
528.211	46518.59
528.412	48372
528.614	47685.93
528.815	47415.6
529.016	47702.31
529.218	47489.32
529.419	47814.95
529.62	47601.96
529.822	47456.56
530.023	47866.15
530.224	48183.58
530.425	47847.72
530.626	47817
530.828	47759.66
531.029	48685.34
531.23	47892.77
531.431	48470.3
531.632	48398.62
531.833	48601.37
532.035	48079.14
532.236	48738.58
532.437	48726.3
532.638	47851.81
532.839	49058.07
533.04	48873.75
533.241	48251.17
533.442	49338.64
533.643	48642.33
533.844	48781.59
534.045	48978.2
534.246	48554.27
534.447	49013.01
534.648	48619.8
534.849	49103.12
535.05	48568.6
535.251	48724.25
535.451	48660.76
535.652	49174.8
535.853	49287.44
536.054	48904.47
536.255	49215.76
536.456	48322.85
536.657	49531.15
536.857	48795.93
537.058	48537.88
537.259	49072.4
537.46	49293.58
537.66	48724.25
537.861	49125.65
538.062	48994.58
538.263	48992.53
538.463	48955.67
538.664	48716.06
538.865	49119.51
539.065	49221.9
539.266	48789.78
539.466	49144.08
539.667	48830.74
539.868	49291.54
540.068	48656.67
540.269	48638.23
540.469	49289.49
540.67	48902.42
540.87	48947.48
541.071	48652.57
541.271	49062.16
541.472	48777.5
541.672	48374.05
541.873	48527.64
542.073	48513.31
542.274	49109.27
542.474	48732.44
542.675	48224.54
542.875	48980.24
543.075	48615.71
543.276	48107.81
543.476	49258.77
543.676	48480.54
543.877	48527.64
544.077	48802.07
544.277	48871.7
544.478	48587.03
544.678	48840.98
544.878	48642.33
545.078	48472.35
545.279	48269.6
545.479	48189.73
545.679	48742.68
545.879	48484.64
546.079	48357.66
546.28	48406.81
546.48	48472.35
546.68	48353.57
546.88	48777.5
547.08	48748.82
547.28	48234.78
547.48	48470.3
547.68	48419.1
547.88	48089.38
548.081	48621.85
548.281	48128.29
548.481	48458.01
548.681	48865.56
548.881	48630.04
549.081	48199.97
549.28	48238.88
549.48	48435.48
549.68	48378.14
549.88	48759.06
550.08	48560.41
550.28	48365.85
550.48	48277.79
550.68	48638.23
550.88	48388.38
551.08	48367.9
551.279	48386.33
551.479	47898.92
551.679	48437.53
551.879	48275.74
552.079	48447.77
552.278	48265.5
552.478	48083.23
552.678	48351.52
552.878	48072.99
553.077	48185.63
553.277	48066.85
553.477	48398.62
553.676	48292.13
553.876	47841.57
554.076	47890.73
554.275	47692.07
554.475	47251.76
554.674	47866.15
554.874	47821.09
555.074	47601.96
555.273	47800.61
555.473	47931.68
555.672	46948.66
555.872	47939.88
556.071	47501.61
556.271	48032.04
556.47	47771.94
556.67	47243.57
556.869	47505.71
557.068	47585.58
557.268	46965.04
557.467	47003.95
557.667	47120.69
557.866	47386.92
558.065	47368.49
558.265	47444.27
558.464	47083.83
558.663	47374.64
558.863	46647.61
559.062	47282.48
559.261	46819.64
559.461	47167.79
559.66	46586.17
559.859	47153.46
560.058	46588.22
560.258	46661.94
560.457	46399.8
560.656	46602.55
560.855	46166.34
561.054	47225.14
561.253	46053.7
561.453	46569.79
561.652	46270.78
561.851	46555.45
562.05	46166.34
562.249	45908.29
562.448	46405.95
562.647	46221.63
562.846	46125.38
563.045	46053.7
563.244	45789.51
563.443	46342.46
563.642	45689.16
563.841	45883.72
564.04	45865.28
564.239	46172.48
564.438	45230.41
564.637	45840.71
564.836	45787.46
565.035	45125.97
565.234	45406.54
565.432	45285.71
565.631	45316.43
565.83	45480.27
566.029	45455.69
566.228	44523.86
566.427	44753.24
566.625	44773.72
566.824	44581.21
567.023	44640.6
567.222	44413.27
567.42	44710.23
567.619	44478.81
567.818	44323.16
568.016	44134.75
568.215	44415.32
568.414	44194.14
568.612	44392.79
568.811	44018.02
569.01	44482.91
569.208	43633
569.407	44073.31
569.605	43092.33
569.804	44124.51
570.002	43663.72
570.201	43805.03
570.4	43499.88
570.598	43301.23
570.797	42735.99
570.995	43409.77
571.193	42756.47
571.392	43555.18
571.59	43123.05
571.789	42994.03
571.987	42969.46
572.186	42881.39
572.384	42678.64
572.582	42529.14
572.781	42635.64
572.979	41908.61
573.177	42156.41
573.376	42529.14
573.574	42135.93
573.772	42037.63
573.971	41886.08
574.169	41763.2
574.367	41349.51
574.565	42328.44
574.763	41707.91
574.962	41521.54
575.16	41353.61
575.358	41607.56
575.556	40647.06
575.754	41687.43
575.952	40425.88
576.151	41193.87
576.349	40196.51
576.547	41062.8
576.745	40722.83
576.943	40753.55
577.141	40896.91
577.339	40548.76
577.537	40325.53
577.735	40528.28
577.933	39801.25
578.131	40141.21
578.329	39743.91
578.527	39537.06
578.725	39551.4
578.923	39614.88
579.121	39057.84
579.319	39248.3
579.516	39373.22
579.714	39174.57
579.912	39121.32
580.11	38754.74
580.308	39072.17
580.506	38955.44
580.704	38394.29
580.901	38891.95
581.099	38900.14
581.297	38312.38
581.495	38418.87
581.692	38627.76
581.89	38234.55
582.088	38697.39
582.285	38095.29
582.483	38238.65
582.681	37939.65
582.878	37874.11
583.076	37261.77
583.274	38037.95
583.471	37257.67
583.669	37734.85
583.866	37403.08
584.064	37349.83
584.262	37274.06
584.459	36970.96
584.657	37278.15
584.854	37429.7
585.052	36362.71
585.249	36696.53
585.447	36727.25
585.644	36542.93
585.841	36440.53
586.039	36794.83
586.236	36366.81
586.434	35926.49
586.631	35746.27
586.828	36114.9
587.026	35779.04
587.223	35938.78
587.42	36032.99
587.618	35615.2
587.815	35355.11
588.012	35570.15
588.21	34939.37
588.407	35199.46
588.604	35252.71
588.801	34787.82
588.999	35160.55
589.196	34742.77
589.393	34763.25
589.59	34611.7
589.787	34529.78
589.984	34400.76
590.182	34060.79
590.379	34464.24
590.576	34365.94
590.773	34490.87
590.97	33939.96
591.167	34370.04
591.364	33772.03
591.561	34077.18
591.758	33759.74
591.955	33442.31
592.152	33542.66
592.349	33278.47
592.546	33516.03
592.743	33393.15
592.94	32791.05
593.137	33126.92
593.334	33032.71
593.531	32733.71
593.727	32729.61
593.924	32848.39
594.121	32330.26
594.318	32430.61
594.515	32328.21
594.712	32635.41
594.908	32139.8
595.105	32025.11
595.302	32152.09
595.499	31685.15
595.696	31885.85
595.892	31412.77
596.089	31928.86
596.286	31611.42
596.482	31404.58
596.679	31453.73
596.876	31191.59
597.072	31140.39
597.269	31218.21
597.466	30640.68
597.662	30765.61
597.859	31066.66
598.055	30964.26
598.252	30601.77
598.448	30859.82
598.645	30108.21
598.841	30018.1
599.038	30243.38
599.234	30310.96
599.431	29835.83
599.627	29764.15
599.824	29915.7
600.02	29854.26
600.217	29968.95
600.413	29741.63
600.609	29495.87
600.806	29557.31
601.002	29561.4
601.198	29256.26
601.395	28893.77
601.591	29207.11
601.787	29231.68
601.984	28893.77
602.18	29319.74
602.376	28482.13
602.572	28912.2
602.769	28607.05
602.965	28731.98
603.161	28478.03
603.357	28318.29
603.553	28336.72
603.75	28428.88
603.946	28164.69
604.142	28262.99
604.338	27464.28
604.534	27968.09
604.73	27656.79
604.926	27615.83
605.122	27714.14
605.318	27533.92
605.514	27460.19
605.71	27460.19
605.906	27226.72
606.102	26985.06
606.298	27380.32
606.494	27077.22
606.69	27449.95
606.886	27120.23
607.082	26751.59
607.278	26841.7
607.474	26571.37
607.67	26759.78
607.866	26600.04
608.062	26714.73
608.257	26290.8
608.453	26491.5
608.649	26290.8
608.845	26296.94
609.041	26182.26
609.236	26223.22
609.432	26395.25
609.628	26276.46
609.824	25940.6
610.019	25834.1
610.215	25991.8
610.411	26081.91
610.606	25991.8
610.802	25356.93
610.998	25770.61
611.193	25975.41
611.389	25354.88
611.584	25430.65
611.78	25553.53
611.976	25526.91
612.171	25608.83
612.367	25551.48
612.562	25350.78
612.758	25072.26
612.953	25109.12
613.149	25213.57
613.344	24865.41
613.539	25520.76
613.735	25078.4
613.93	24818.31
614.126	24724.1
614.321	24955.52
614.517	24738.44
614.712	24801.93
614.907	24633.99
615.103	24378
615.298	24439.44
615.493	24529.55
615.688	24138.38
615.884	24611.46
616.079	24130.19
616.274	24457.87
616.47	24529.55
616.665	24218.25
616.86	24128.14
617.055	24230.54
617.25	23779.99
617.445	24109.71
617.641	23909.01
617.836	24007.31
618.031	23425.69
618.226	23769.75
618.421	23407.26
618.616	23741.08
618.811	23394.97
619.006	23653.02
619.201	23444.12
619.396	23433.88
619.591	22792.87
619.786	23079.58
619.981	22772.39
620.176	22774.44
620.371	22669.99
620.566	22473.39
620.761	22348.46
620.956	22764.2
621.151	22063.79
621.346	22080.18
621.541	21869.23
621.735	22182.57
621.93	21643.96
622.125	21525.18
622.32	21738.16
622.515	21476.02
622.709	21330.62
622.904	21400.25
623.099	20912.83
623.294	21265.08
623.488	20910.78
623.683	21250.75
623.878	20556.49
624.072	20732.61
624.267	20538.05
624.462	20662.98
624.656	20222.67
624.851	20196.04
625.046	20406.98
625.24	19978.96
625.435	20026.06
625.629	19974.86
625.824	19815.12
626.018	19696.34
626.213	19552.98
626.407	19477.21
626.602	19262.17
626.796	19223.26
626.991	19167.96
627.185	19153.63
627.38	18770.66
627.574	18987.74
627.768	18576.1
627.963	18817.76
628.157	18453.22
628.352	18455.27
628.546	18244.33
628.74	18397.93
628.935	17994.48
629.129	18166.51
629.323	17656.56
629.517	17777.39
629.712	17726.19
629.906	17648.37
630.1	17525.49
630.294	17591.03
630.489	17539.83
630.683	17578.74
630.877	17044.22
631.071	17175.29
631.265	17187.58
631.459	16747.26
631.653	16902.91
631.848	16823.04
632.042	16665.35
632.236	16763.65
632.43	16362.25
632.624	16560.9
632.818	16200.46
633.012	16059.15
633.206	16153.35
633.4	16034.57
633.594	16108.3
633.788	15966.99
633.982	15782.67
634.176	15618.83
634.369	15323.93
634.563	15686.42
634.757	15667.98
634.951	15522.58
635.145	15424.28
635.339	15520.53
635.533	15299.35
635.726	15002.4
635.92	14807.84
636.114	15162.14
636.308	14773.02
636.501	14912.28
636.695	14936.86
636.889	14750.49
637.083	14543.65
637.276	14367.52
637.47	14273.32
637.664	14265.13
637.857	14310.18
638.051	14043.95
638.244	13953.84
638.438	14107.43
638.632	13937.45
638.825	13781.81
639.019	13751.09
639.212	13589.3
639.406	13853.48
639.599	13607.73
639.793	13552.43
639.986	13472.56
640.18	13372.21
640.373	13292.34
640.567	13058.87
640.76	13179.7
640.954	13065.02
641.147	12856.12
641.34	12925.75
641.534	12897.08
641.727	12798.78
641.92	12770.11
642.114	12653.37
642.307	12735.29
642.5	12424
642.694	12290.88
642.887	12303.17
643.08	12444.48
643.273	12268.36
643.467	12200.77
643.66	12088.14
643.853	11848.52
644.046	11881.29
644.239	11981.64
644.432	11787.08
644.626	11842.38
644.819	11770.7
645.012	11498.32
645.205	11563.86
645.398	11582.29
645.591	11336.53
645.784	11383.63
645.977	11162.45
646.17	11189.08
646.363	11299.67
646.556	10988.38
646.749	11240.28
646.942	10861.4
647.135	10941.27
647.328	11086.68
647.521	10759
647.714	10685.28
647.907	10619.74
648.099	10634.08
648.292	10701.66
648.485	10632.03
648.678	10279.78
648.871	10308.45
649.064	9997.16
649.256	10115.94
649.449	10251.11
649.642	10261.35
649.835	10105.7
650.027	9952.1
650.22	9849.71
650.413	9829.23
650.605	9849.71
650.798	10013.54
650.991	9728.88
651.183	9784.17
651.376	9624.43
651.568	9757.55
651.761	9483.12
651.954	9550.7
652.146	9347.95
652.339	9311.09
652.531	9479.02
652.724	9210.74
652.916	9218.93
653.109	9218.93
653.301	8969.08
653.494	9089.91
653.686	9020.28
653.879	8942.46
654.071	8901.5
654.263	8719.23
654.456	8784.76
654.648	8852.34
654.84	8700.8
655.033	8768.38
655.225	8596.35
655.417	8526.72
655.61	8516.48
655.802	8633.21
655.994	8440.7
656.186	8420.22
656.379	8289.15
656.571	8303.49
656.763	8244.1
656.955	8106.88
657.148	8072.07
657.34	8090.5
657.532	7990.15
657.724	7910.28
657.916	7938.95
658.108	7838.6
658.3	7842.7
658.492	7930.76
658.684	7672.71
658.876	7867.27
659.068	7797.64
659.26	7576.46
659.452	7646.09
659.644	7746.44
659.836	7662.48
660.028	7580.56
660.22	7304.08
660.412	7490.45
660.604	7441.29
660.796	7445.39
660.988	7351.18
661.18	7213.97
661.372	7213.97
661.563	7357.33
661.755	7222.16
661.947	7068.56
662.139	7097.24
662.331	6982.55
662.522	6970.26
662.714	7019.41
662.906	6681.5
663.097	6953.88
663.289	6787.99
663.481	6704.03
663.673	6583.2
663.864	6564.76
664.056	6671.26
664.247	6525.85
664.439	6484.89
664.631	6425.5
664.822	6249.38
665.014	6644.63
665.205	6286.24
665.397	6288.29
665.588	6335.39
665.78	6396.83
665.971	6134.69
666.163	6228.9
666.354	6097.83
666.546	6122.4
666.737	6069.16
666.929	6042.53
667.12	6179.75
667.311	6040.48
667.503	5977
667.694	5966.76
667.885	5821.35
668.077	5911.46
668.268	5755.82
668.459	5737.38
668.651	5813.16
668.842	5571.5
669.033	5698.47
669.224	5524.4
669.416	5802.92
669.607	5583.79
669.798	5493.68
669.989	5565.36
670.18	5512.11
670.371	5503.92
670.563	5618.6
670.754	5540.78
670.945	5247.92
671.136	5501.87
671.327	5387.18
671.518	5389.23
671.709	5413.81
671.9	5325.74
672.091	5258.16
672.282	5254.06
672.473	5170.1
672.664	5104.56
672.855	5131.19
673.046	5237.68
673.237	5116.85
673.428	5053.36
673.619	4942.77
673.809	4967.35
674	5100.47
674.191	5012.4
674.382	5020.6
674.573	4854.71
674.764	4819.89
674.954	4907.96
675.145	4772.79
675.336	4897.72
675.527	4754.36
675.717	4791.22
675.908	4717.5
676.099	4805.56
676.289	4754.36
676.48	4713.4
676.671	4766.65
676.861	4672.44
677.052	4682.68
677.243	4379.58
677.433	4666.3
677.624	4563.9
677.814	4606.91
678.005	4709.3
678.195	4615.1
678.386	4416.44
678.576	4320.19
678.767	4512.7
678.957	4451.26
679.148	4467.64
679.338	4469.69
679.529	4338.62
679.719	4338.62
679.909	4168.64
680.1	4299.71
680.29	4283.33
680.481	4119.49
680.671	4273.09
680.861	4258.75
681.052	4176.83
681.242	4099.01
681.432	4262.85
681.622	4287.42
681.813	4230.08
682.003	4246.46
682.193	4142.02
682.383	4275.13
682.573	4129.73
682.764	4139.97
682.954	4029.38
683.144	4094.91
683.334	4035.52
683.524	4137.92
683.714	4090.82
683.904	3894.21
684.094	3947.46
684.284	4010.95
684.474	4127.68
684.664	4037.57
684.854	4015.04
685.044	3992.52
685.234	3902.4
685.424	3926.98
685.614	3910.6
685.804	3896.26
685.994	3879.88
686.184	3863.49
686.374	3804.1
686.564	3961.8
686.753	3902.4
686.943	3888.07
687.133	3775.43
687.323	3820.49
687.513	3757
687.702	3867.59
687.892	3855.3
688.082	3820.49
688.272	3705.8
688.461	3634.12
688.651	3783.62
688.841	3578.83
689.03	3609.54
689.22	3613.64
689.41	3664.84
689.599	3638.22
689.789	3648.46
689.979	3625.93
690.168	3683.27
690.358	3689.42
690.547	3566.54
690.737	3607.5
690.926	3630.02
691.116	3486.67
691.305	3576.78
691.495	3417.04
691.684	3501
691.874	3464.14
692.063	3550.15
692.252	3494.86
692.442	3527.63
692.631	3396.56
692.82	3398.6
693.01	3494.86
693.199	3429.32
693.388	3224.53
693.578	3412.94
693.767	3421.13
693.956	3355.6
694.146	3472.33
694.335	3288.01
694.524	3292.11
694.713	3349.45
694.902	3226.57
695.092	3388.36
695.281	3263.44
695.47	3240.91
695.659	3218.38
695.848	3247.05
696.037	3269.58
696.226	3175.38
696.415	3230.67
696.604	3300.3
696.793	3152.85
696.982	3202
697.171	3214.29
697.36	3167.18
697.549	3091.41
697.738	3138.51
697.927	3101.65
698.116	3079.12
698.305	3189.71
698.494	3191.76
698.683	3083.22
698.872	3107.79
699.061	3093.46
699.25	3025.87
699.438	3140.56
699.627	3017.68
699.816	3132.37
700.005	3007.44
700.193	3001.3
700.382	2995.15
700.571	3034.07
700.76	3115.98
700.948	3007.44
701.137	3001.3
701.326	3120.08
701.514	2958.29
701.703	3007.44
701.892	2864.08
702.08	2999.25
702.269	2788.31
702.457	2882.52
702.646	2909.14
702.834	2956.24
703.023	2903
703.212	2950.1
703.4	2931.67
703.589	2837.46
703.777	2919.38
703.965	2829.27
704.154	2921.43
704.342	2706.39
704.531	2821.08
704.719	2730.97
704.907	2812.89
705.096	2741.21
705.284	2757.59
705.472	2872.28
705.661	2821.08
705.849	2765.78
706.037	2763.73
706.226	2784.21
706.414	2700.25
706.602	2714.58
706.79	2829.27
706.979	2751.45
707.167	2640.86
707.355	2730.97
707.543	2712.53
707.731	2651.1
707.919	2583.51
708.107	2771.93
708.296	2608.09
708.484	2542.55
708.672	2587.61
708.86	2655.19
709.048	2575.32
709.236	2659.29
709.424	2511.83
709.612	2698.2
709.8	2618.33
709.988	2599.9
710.176	2612.18
710.364	2657.24
710.551	2706.39
710.739	2601.94
710.927	2632.66
711.115	2608.09
711.303	2546.65
711.491	2505.69
711.679	2520.03
711.866	2554.84
712.054	2577.37
712.242	2458.59
712.43	2513.88
712.617	2542.55
712.805	2452.44
712.993	2368.48
713.181	2421.72
713.368	2411.48
713.556	2452.44
713.744	2313.18
713.931	2434.01
714.119	2366.43
714.306	2358.24
714.494	2345.95
714.682	2423.77
714.869	2327.52
715.057	2456.54
715.244	2370.52
715.432	2429.91
715.619	2278.37
715.807	2206.69
715.994	2241.5
716.182	2405.34
716.369	2513.88
716.556	2372.57
716.744	2329.56
716.931	2227.17
717.119	2456.54
717.306	2208.73
717.493	2302.94
717.681	2182.11
717.868	2304.99
718.055	2288.61
718.242	2208.73
718.43	2372.57
718.617	2302.94
718.804	2141.15
718.991	2221.02
719.179	2282.46
719.366	2317.28
719.553	2249.69
719.74	2165.73
719.927	2247.65
720.114	2194.4
720.301	2087.9
720.488	2171.87
720.676	2059.23
720.863	2073.57
721.05	2184.16
721.237	2122.72
721.424	2100.19
721.611	2180.06
721.798	2110.43
721.985	2104.29
722.172	2030.56
722.358	2116.58
722.545	2071.52
722.732	2024.42
722.919	2157.54
723.106	2030.56
723.293	2087.9
723.48	2175.97
723.667	2048.99
723.853	2151.39
724.04	2202.59
724.227	2024.42
724.414	1948.64
724.6	2051.04
724.787	2038.75
724.974	2132.96
725.161	1960.93
725.347	2022.37
725.534	1967.07
725.72	1993.7
725.907	1911.78
726.094	2001.89
726.28	2057.18
726.467	1987.55
726.653	1889.25
726.84	2124.77
727.027	2124.77
727.213	2075.62
727.4	2069.47
727.586	1924.07
727.773	1969.12
727.959	1977.31
728.145	1885.16
728.332	1922.02
728.518	1844.2
728.705	1938.4
728.891	1948.64
729.077	1858.53
729.264	1944.55
729.45	1971.17
729.636	1862.63
729.823	1879.01
730.009	1913.83
730.195	1780.71
730.382	2010.08
730.568	1823.72
730.754	1956.83
730.94	1899.49
731.126	1924.07
731.313	1967.07
731.499	1833.96
731.685	1776.61
731.871	1862.63
732.057	1838.05
732.243	1799.14
732.429	1827.81
732.615	1897.44
732.801	1772.52
732.987	1770.47
733.173	1741.8
733.359	1805.28
733.545	1772.52
733.731	1688.55
733.917	1846.24
734.103	1850.34
734.289	1813.48
734.475	1694.69
734.661	1936.35
734.847	1883.11
735.033	1713.13
735.219	1625.06
735.404	1715.17
735.59	1735.65
735.776	1776.61
735.962	1833.96
736.148	1706.98
736.333	1799.14
736.519	1725.41
736.705	1641.45
736.89	1670.12
737.076	1747.94
737.262	1625.06
737.447	1747.94
737.633	1649.64
737.819	1772.52
738.004	1749.99
738.19	1633.26
738.375	1680.36
738.561	1700.84
738.747	1657.83
738.932	1666.02
739.118	1575.91
739.303	1666.02
739.489	1678.31
739.674	1625.06
739.859	1547.24
740.045	1672.17
740.23	1657.83
740.416	1657.83
740.601	1575.91
740.786	1602.54
740.972	1534.95
741.157	1553.38
741.342	1477.61
741.528	1580.01
741.713	1608.68
741.898	1584.1
742.084	1551.34
742.269	1510.38
742.454	1518.57
742.639	1625.06
742.824	1487.85
743.01	1526.76
743.195	1479.66
743.38	1504.23
743.565	1543.14
743.75	1547.24
743.935	1498.09
744.12	1586.15
744.305	1412.07
744.49	1510.38
744.675	1481.71
744.86	1444.84
745.045	1403.88
745.23	1426.41
745.415	1399.79
745.6	1420.27
745.785	1395.69
745.97	1481.71
746.155	1350.64
746.34	1395.69
746.525	1250.28
746.71	1403.88
746.895	1297.39
747.079	1428.46
747.264	1338.35
747.449	1369.07
747.634	1305.58
747.819	1352.68
748.003	1315.82
748.188	1244.14
748.373	1281
748.557	1256.43
748.742	1211.37
748.927	1272.81
749.111	1274.86
749.296	1213.42
749.481	1207.28
749.665	1340.4
749.85	1295.34
750.034	1184.75
750.219	1203.18
750.404	1137.65
750.588	1215.47
750.773	1180.65
750.957	1158.13
751.141	1139.69
751.326	1225.71
751.51	1092.59
751.695	1137.65
751.879	1160.17
752.064	1199.09
752.248	1035.25
752.432	1215.47
752.617	1141.74
752.801	1145.84
752.985	1117.17
753.17	1207.28
753.354	1018.86
753.538	1154.03
753.722	1166.32
753.907	986.1
754.091	988.14
754.275	1147.89
754.459	986.1
754.643	1104.88
754.828	1078.26
755.012	1068.02
755.196	1037.3
755.38	975.86
755.564	1117.17
755.748	1041.39
755.932	994.29
756.116	961.52
756.3	982
756.484	961.52
756.668	898.03
756.852	984.05
757.036	996.34
757.22	920.56
757.404	965.62
757.588	889.84
757.772	957.43
757.956	1053.68
758.14	965.62
758.323	883.7
758.507	910.32
758.691	908.27
758.875	926.71
759.059	945.14
759.242	857.07
759.426	910.32
759.61	834.55
759.794	914.42
759.977	936.95
760.161	891.89
760.345	930.8
760.528	795.64
760.712	824.31
760.895	900.08
761.079	769.01
761.263	781.3
761.446	775.16
761.63	785.4
761.813	857.07
761.997	801.78
762.18	807.92
762.364	777.2
762.547	715.77
762.731	801.78
762.914	799.73
763.098	793.59
763.281	740.34
763.464	775.16
763.648	744.44
763.831	805.88
764.015	814.07
764.198	879.6
764.381	744.44
764.564	748.53
764.748	769.01
764.931	728.05
765.114	711.67
765.297	717.81
765.481	711.67
765.664	760.82
765.847	728.05
766.03	723.96
766.213	670.71
766.397	752.63
766.58	664.57
766.763	816.12
766.946	760.82
767.129	674.81
767.312	685.05
767.495	701.43
767.678	779.25
767.861	781.3
768.044	719.86
768.227	713.72
768.41	707.57
768.593	750.58
768.776	664.57
768.959	658.42
769.142	689.14
769.324	631.8
769.507	648.18
769.69	689.14
769.873	687.09
770.056	732.15
770.239	658.42
770.421	728.05
770.604	627.7
770.787	781.3
770.97	629.75
771.152	676.85
771.335	642.04
771.518	691.19
771.7	766.96
771.883	658.42
772.066	666.61
772.248	590.84
772.431	719.86
772.613	642.04
772.796	594.93
772.978	621.56
773.161	596.98
773.343	599.03
773.526	646.13
773.708	572.41
773.891	609.27
774.073	625.65
774.256	572.41
774.438	674.81
774.621	556.02
774.803	560.12
774.985	650.23
775.168	592.89
775.35	599.03
775.532	578.55
775.715	584.7
775.897	668.66
776.079	527.35
776.261	592.89
776.444	551.93
776.626	582.65
776.808	574.46
776.99	531.45
777.173	535.54
777.355	492.54
777.537	508.92
777.719	551.93
777.901	564.22
778.083	472.06
778.265	562.17
778.447	486.39
778.629	560.12
778.811	519.16
778.993	556.02
779.175	494.58
779.357	498.68
779.539	422.91
779.721	488.44
779.903	494.58
780.085	427
780.267	445.43
780.449	441.34
780.631	535.54
780.812	482.3
780.994	433.15
781.176	486.39
781.358	453.63
781.54	441.34
781.721	439.29
781.903	400.38
782.085	429.05
782.267	406.52
782.448	400.38
782.63	408.57
782.812	396.28
782.993	412.67
783.175	455.67
783.357	455.67
783.538	437.24
783.72	334.84
783.901	375.8
784.083	383.99
784.264	365.56
784.446	363.51
784.627	429.05
784.809	332.79
784.99	371.71
785.172	373.75
785.353	422.91
785.535	363.51
785.716	365.56
785.897	375.8
786.079	330.75
786.26	396.28
786.441	367.61
786.623	308.22
786.804	388.09
786.985	373.75
787.167	326.65
787.348	330.75
787.529	316.41
787.71	318.46
787.891	340.99
788.073	420.86
788.254	220.16
788.435	357.37
788.616	322.56
788.797	289.79
788.978	330.75
789.159	345.08
789.34	349.18
789.522	338.94
789.703	363.51
789.884	283.64
790.065	257.02
790.246	240.64
790.427	261.12
790.607	254.97
790.788	195.58
790.969	281.6
791.15	302.08
791.331	257.02
791.512	291.84
791.693	281.6
791.874	279.55
792.054	269.31
792.235	273.4
792.416	310.27
792.597	281.6
792.778	300.03
792.958	238.59
793.139	340.99
793.32	232.44
793.5	285.69
793.681	371.71
793.862	252.92
794.042	263.16
794.223	152.57
794.404	273.4
794.584	168.96
794.765	226.3
794.945	273.4
795.126	295.93
795.306	304.12
795.487	345.08
795.667	193.53
795.848	265.21
796.028	199.68
796.209	263.16
796.389	257.02
796.57	265.21
796.75	179.2
796.93	201.72
797.111	136.19
797.291	171.01
797.471	175.1
797.652	166.91
797.832	209.92
798.012	207.87
798.192	201.72
798.373	199.68
798.553	175.1
798.733	181.25
798.913	191.49
799.093	138.24
799.274	224.25
799.454	197.63
799.634	166.91
799.814	193.53
799.994	261.12
800.174	228.35
800.354	191.49
800.534	195.58
800.714	134.14
800.894	183.29
801.074	205.82
801.254	199.68
801.434	220.16
801.614	203.77
801.794	166.91
801.974	846.84
802.154	183.29
802.334	183.29
802.514	125.95
802.693	154.62
802.873	226.3
803.053	134.14
803.233	80.89
803.413	121.85
803.592	142.33
803.772	136.19
803.952	166.91
804.131	175.1
804.311	177.15
804.491	259.07
804.67	211.96
804.85	154.62
805.03	216.06
805.209	209.92
805.389	150.53
805.568	183.29
805.748	119.81
805.928	183.29
806.107	191.49
806.287	189.44
806.466	84.99
806.646	166.91
806.825	121.85
807.004	160.77
807.184	111.61
807.363	191.49
807.543	103.42
807.722	134.14
807.901	156.67
808.081	111.61
808.26	70.65
808.439	138.24
808.619	152.57
808.798	150.53
808.977	142.33
809.156	179.2
809.336	146.43
809.515	125.95
809.694	78.85
809.873	128
810.052	259.07
810.231	101.37
810.411	152.57
810.59	95.23
810.769	91.13
810.948	148.48
811.127	72.7
811.306	109.57
811.485	84.99
811.664	158.72
811.843	171.01
812.022	136.19
812.201	97.28
812.38	91.13
812.559	134.14
812.737	93.18
812.916	93.18
813.095	95.23
813.274	113.66
813.453	142.33
813.632	70.65
813.811	125.95
813.989	37.89
814.168	107.52
814.347	105.47
814.526	160.77
814.704	80.89
814.883	91.13
815.062	84.99
815.24	125.95
815.419	52.22
815.598	46.08
815.776	74.75
815.955	130.05
816.133	35.84
816.312	113.66
816.49	125.95
816.669	68.61
816.847	93.18
817.026	109.57
817.204	93.18
817.383	52.22
817.561	-21.5
817.74	95.23
817.918	111.61
818.097	97.28
818.275	31.74
818.453	103.42
818.632	121.85
818.81	93.18
818.988	41.98
819.167	87.04
819.345	113.66
819.523	103.42
819.701	35.84
819.879	84.99
820.058	15.36
820.236	107.52
820.414	76.8
820.592	109.57
820.77	25.6
820.948	60.42
821.127	70.65
821.305	113.66
821.483	35.84
821.661	150.53
821.839	46.08
822.017	82.94
822.195	70.65
822.373	97.28
822.551	19.46
822.729	21.5
822.907	117.76
823.085	101.37
823.262	95.23
823.44	60.42
823.618	70.65
823.796	44.03
823.974	19.46
824.152	60.42
824.329	3.07
824.507	138.24
824.685	89.09
824.863	84.99
825.04	-19.46
825.218	113.66
825.396	95.23
825.574	84.99
825.751	64.51
825.929	68.61
826.107	87.04
826.284	62.46
826.462	46.08
826.639	19.46
826.817	76.8
826.994	74.75
827.172	31.74
827.349	70.65
827.527	70.65
827.704	150.53
827.882	9.22
828.059	101.37
828.237	52.22
828.414	101.37
828.591	64.51
828.769	130.05
828.946	-9.22
829.124	-25.6
829.301	101.37
829.478	70.65
829.655	31.74
829.833	84.99
830.01	-29.7
830.187	46.08
830.364	3.07
830.542	66.56
830.719	-9.22
830.896	76.8
831.073	68.61
831.25	99.33
831.427	54.27
831.604	78.85
831.782	-33.79
831.959	44.03
832.136	35.84
832.313	39.94
832.49	27.65
832.667	91.13
832.844	33.79
833.021	37.89
833.198	1.02
833.374	48.13
833.551	84.99
833.728	19.46
833.905	44.03
834.082	52.22
834.259	76.8
834.436	93.18
834.612	46.08
834.789	46.08
834.966	5.12
835.143	48.13
835.319	-9.22
835.496	117.76
835.673	41.98
835.85	48.13
836.026	21.5
836.203	68.61
836.38	-1.02
836.556	89.09
836.733	37.89
836.909	72.7
837.086	48.13
837.262	19.46
837.439	15.36
837.616	48.13
837.792	87.04
837.968	46.08
838.145	60.42
838.321	35.84
838.498	5.12
838.674	99.33
838.851	-11.26
839.027	27.65
839.203	23.55
839.38	78.85
839.556	76.8
839.732	-29.7
839.909	44.03
840.085	128
840.261	-1.02
840.437	84.99
840.614	44.03
840.79	-25.6
840.966	48.13
841.142	68.61
841.318	-41.98
841.494	44.03
841.671	17.41
841.847	-13.31
842.023	35.84
842.199	44.03
842.375	70.65
842.551	-5.12
842.727	11.26
842.903	-3.07
843.079	-58.37
843.255	13.31
843.431	-11.26
843.607	76.8
843.783	3.07
843.959	39.94
844.134	9.22
844.31	27.65
844.486	13.31
844.662	37.89
844.838	-11.26
845.013	-17.41
845.189	3.07
845.365	74.75
845.541	-11.26
845.716	11.26
845.892	-37.89
846.068	-19.46
846.244	27.65
846.419	52.22
846.595	-11.26
846.77	56.32
846.946	15.36
847.122	-5.12
847.297	-95.23
847.473	70.65
847.648	54.27
847.824	70.65
847.999	3.07
848.175	13.31
848.35	41.98
848.526	64.51
848.701	27.65
848.876	-11.26
849.052	134.14
849.227	37.89
849.403	-56.32
849.578	62.46
849.753	35.84
849.929	15.36
850.104	-37.89
850.279	70.65
850.454	54.27
850.63	35.84
850.805	-5.12
850.98	17.41
851.155	-3.07
851.33	-9.22
851.505	-37.89
851.681	56.32
851.856	60.42
852.031	39.94
852.206	-41.98
852.381	44.03
852.556	-7.17
852.731	41.98
852.906	64.51
853.081	7.17
853.256	5.12
853.431	-11.26
853.606	105.47
853.781	-21.5
853.956	-84.99
854.131	13.31
854.305	-35.84
854.48	-5.12
854.655	-11.26
854.83	44.03
855.005	56.32
855.18	72.7
855.354	23.55
855.529	13.31
855.704	-9.22
855.879	31.74
856.053	-21.5
856.228	-52.22
856.403	-52.22
856.577	93.18
856.752	-27.65
856.926	3.07
857.101	19.46
857.276	44.03
857.45	44.03
857.625	76.8
857.799	-1.02
857.974	-19.46
858.148	-60.42
858.323	56.32
858.497	-21.5
858.672	19.46
858.846	-74.75
859.02	-13.31
859.195	-3.07
859.369	5.12
859.543	11.26
859.718	46.08
859.892	5.12
860.066	-5.12
860.241	-29.7
860.415	44.03
860.589	-9.22
860.763	15.36
860.938	-27.65
861.112	-15.36
861.286	-84.99
861.46	3.07
861.634	48.13
861.808	-17.41
861.982	29.7
862.157	78.85
862.331	31.74
862.505	31.74
862.679	-58.37
862.853	-9.22
863.027	-35.84
863.201	21.5
863.375	-29.7
863.549	-3.07
863.722	46.08
863.896	-54.27
864.07	-78.85
864.244	15.36
864.418	-21.5
864.592	-13.31
864.766	23.55
864.939	5.12
865.113	-1.02
865.287	54.27
865.461	-74.75
865.634	-37.89
865.808	-35.84
865.982	-13.31
866.156	50.18
866.329	-62.46
866.503	-1.02
866.676	-17.41
866.85	3.07
867.024	52.22
867.197	-35.84
867.371	68.61
867.544	44.03
867.718	35.84
867.891	44.03
868.065	-17.41
868.238	3.07
868.412	23.55
868.585	-27.65
868.759	-68.61
868.932	27.65
869.105	-9.22
869.279	-76.8
869.452	41.98
869.625	-41.98
869.799	-3.07
869.972	-35.84
870.145	13.31
870.319	60.42
870.492	44.03
870.665	11.26
870.838	52.22
871.011	7.17
871.185	-48.13
871.358	11.26
871.531	66.56
871.704	-1.02
871.877	-56.32
872.05	-9.22
872.223	-44.03
872.396	44.03
872.569	60.42
872.742	-91.13
872.915	33.79
873.088	-13.31
873.261	-44.03
873.434	-41.98
873.607	-60.42
873.78	-21.5
873.953	-37.89
874.126	-62.46
874.299	-17.41
874.471	78.85
874.644	17.41
874.817	-17.41
874.99	-19.46
875.163	17.41
875.335	-23.55
875.508	-70.65
875.681	44.03
875.853	-78.85
876.026	17.41
876.199	-13.31
876.371	31.74
876.544	5.12
876.717	-44.03
876.889	-111.61
877.062	21.5
877.234	-64.51
877.407	-17.41
877.579	56.32
877.752	-70.65
877.924	-3.07
878.097	-13.31
878.269	48.13
878.442	11.26
878.614	-60.42
878.786	13.31
878.959	27.65
879.131	27.65
879.303	-78.85
879.476	-3.07
879.648	60.42
879.82	46.08
879.993	-13.31
880.165	-70.65
880.337	44.03
880.509	35.84
880.681	9.22
880.854	-29.7
881.026	39.94
881.198	56.32
881.37	-9.22
881.542	3.07
881.714	13.31
881.886	23.55
882.058	-11.26
882.23	62.46
882.402	-21.5
882.574	5.12
882.746	-3.07
882.918	3.07
883.09	29.7
883.262	3.07
883.434	1.02
883.606	13.31
883.778	-46.08
883.95	101.37
884.122	-23.55
884.293	-54.27
884.465	-11.26
884.637	44.03
884.809	-19.46
884.98	23.55
885.152	-33.79
885.324	23.55
885.496	-25.6
885.667	-29.7
885.839	-84.99
886.011	23.55
886.182	-37.89
886.354	-44.03
886.525	27.65
886.697	35.84
886.869	66.56
887.04	-11.26
887.212	27.65
887.383	64.51
887.555	-5.12
887.726	-29.7
887.897	-15.36
888.069	-46.08
888.24	-29.7
888.412	44.03
888.583	60.42
888.754	52.22
888.926	-37.89
889.097	27.65
889.268	-62.46
889.44	13.31
889.611	-31.74
889.782	-44.03
889.953	-19.46
890.125	23.55
890.296	-113.66
890.467	-37.89
890.638	-54.27
890.809	21.5
890.98	-13.31
891.151	21.5
891.323	52.22
891.494	-31.74
891.665	70.65
891.836	-27.65
892.007	-19.46
892.178	3.07
892.349	-37.89
892.52	-15.36
892.691	19.46
892.862	-44.03
893.032	-52.22
893.203	-31.74
893.374	9.22
893.545	13.31
893.716	29.7
893.887	-11.26
894.057	-54.27
894.228	-25.6
894.399	-46.08
894.57	27.65
894.74	-13.31
894.911	68.61
895.082	-37.89
895.253	37.89
895.423	-17.41
895.594	93.18
895.764	-27.65
895.935	-52.22
896.106	13.31
896.276	-21.5
896.447	-17.41
896.617	-76.8
896.788	-64.51
896.958	70.65
897.129	-15.36
897.299	35.84
897.47	-31.74
897.64	23.55
897.81	-46.08
897.981	27.65
898.151	11.26
898.322	-50.18
898.492	27.65
898.662	-37.89
898.832	-64.51
899.003	7.17
899.173	-13.31
899.343	-62.46
899.513	-44.03
