Data from USB4F104151__188__14-45-10-972.txt Node

Date: Thu Mar 13 14:45:10 EDT 2025
User: louis
Spectrometer: USB4F10415
Trigger mode: 4
Integration Time (sec): 2.000000E-2
Scans to average: 1
Electric dark correction enabled: true
Nonlinearity correction enabled: false
Boxcar width: 0
XAxis mode: Wavelengths
Number of Pixels in Spectrum: 3648
>>>>>Begin Spectral Data<<<<<
178.204	-62.8
178.424	-62.8
178.644	-62.8
178.864	-128.34
179.084	-138.58
179.304	-7.51
179.524	-56.66
179.744	-13.65
179.964	90.79
180.184	19.11
180.404	58.03
180.624	-52.56
180.844	25.26
181.064	-107.86
181.283	17.07
181.503	10.92
181.723	17.07
181.943	-89.43
182.163	60.07
182.383	-5.46
182.602	0.68
182.822	37.55
183.042	-5.46
183.262	-7.51
183.482	0.68
183.701	23.21
183.921	107.18
184.141	-25.94
184.361	-23.89
184.58	17.07
184.8	84.65
185.02	2.73
185.239	35.5
185.459	2.73
185.679	117.42
185.898	2.73
186.118	58.03
186.338	31.4
186.557	117.42
186.777	-5.46
186.997	45.74
187.216	4.78
187.436	51.88
187.655	4.78
187.875	68.27
188.095	0.68
188.314	55.98
188.534	66.22
188.753	33.45
188.973	101.03
189.192	131.75
189.412	27.31
189.631	-46.42
189.851	2.73
190.07	66.22
190.29	35.5
190.509	29.35
190.729	-40.28
190.948	29.35
191.168	185
191.387	43.69
191.607	12.97
191.826	-7.51
192.045	-21.84
192.265	-9.56
192.484	-32.08
192.704	25.26
192.923	15.02
193.142	117.42
193.362	-23.89
193.581	-5.46
193.8	-32.08
194.02	41.64
194.239	-32.08
194.458	51.88
194.678	2.73
194.897	60.07
195.116	-19.8
195.335	19.11
195.555	98.99
195.774	-40.28
195.993	68.27
196.212	-21.84
196.432	-38.23
196.651	0.68
196.87	2.73
197.089	133.8
197.308	29.35
197.528	10.92
197.747	-17.75
197.966	21.16
198.185	94.89
198.404	55.98
198.623	-30.04
198.842	-23.89
199.062	17.07
199.281	74.41
199.5	-73.04
199.719	25.26
199.938	8.87
200.157	60.07
200.376	98.99
200.595	17.07
200.814	39.59
201.033	35.5
201.252	2.73
201.471	-11.61
201.69	55.98
201.909	37.55
202.128	29.35
202.347	25.26
202.566	-46.42
202.785	-85.33
203.004	-36.18
203.223	129.7
203.442	17.07
203.661	-3.41
203.879	123.56
204.098	49.83
204.317	-15.7
204.536	84.65
204.755	107.18
204.974	-3.41
205.193	60.07
205.411	82.6
205.63	-56.66
205.849	53.93
206.068	47.79
206.287	-46.42
206.505	8.87
206.724	86.7
206.943	39.59
207.162	4.78
207.381	0.68
207.599	76.46
207.818	0.68
208.037	-9.56
208.255	-36.18
208.474	17.07
208.693	70.31
208.911	12.97
209.13	6.83
209.349	66.22
209.567	15.02
209.786	86.7
210.005	-5.46
210.223	27.31
210.442	0.68
210.661	-36.18
210.879	-46.42
211.098	-3.41
211.316	41.64
211.535	41.64
211.753	-23.89
211.972	43.69
212.191	-36.18
212.409	2.73
212.628	35.5
212.846	66.22
213.065	39.59
213.283	-3.41
213.502	43.69
213.72	0.68
213.938	-3.41
214.157	-21.84
214.375	60.07
214.594	-15.7
214.812	27.31
215.031	-13.65
215.249	55.98
215.467	25.26
215.686	74.41
215.904	19.11
216.122	51.88
216.341	-7.51
216.559	-3.41
216.778	0.68
216.996	2.73
217.214	45.74
217.432	31.4
217.651	-17.75
217.869	17.07
218.087	4.78
218.306	49.83
218.524	41.64
218.742	-56.66
218.96	90.79
219.179	17.07
219.397	-30.04
219.615	17.07
219.833	115.37
220.051	-54.61
220.27	101.03
220.488	-19.8
220.706	-13.65
220.924	-15.7
221.142	-34.13
221.36	-46.42
221.578	-56.66
221.796	-13.65
222.015	33.45
222.233	105.13
222.451	39.59
222.669	19.11
222.887	101.03
223.105	35.5
223.323	60.07
223.541	-34.13
223.759	-5.46
223.977	10.92
224.195	0.68
224.413	-13.65
224.631	-27.99
224.849	8.87
225.067	68.27
225.285	82.6
225.503	10.92
225.721	15.02
225.939	49.83
226.157	62.12
226.375	111.27
226.592	-56.66
226.81	-48.47
227.028	-15.7
227.246	74.41
227.464	-21.84
227.682	58.03
227.9	15.02
228.117	-23.89
228.335	-13.65
228.553	-38.23
228.771	60.07
228.989	49.83
229.206	27.31
229.424	41.64
229.642	-36.18
229.86	-7.51
230.077	41.64
230.295	-34.13
230.513	49.83
230.731	66.22
230.948	19.11
231.166	66.22
231.384	-40.28
231.601	-27.99
231.819	90.79
232.037	-5.46
232.254	-23.89
232.472	25.26
232.689	62.12
232.907	62.12
233.125	-5.46
233.342	76.46
233.56	49.83
233.777	17.07
233.995	51.88
234.213	82.6
234.43	58.03
234.648	49.83
234.865	49.83
235.083	8.87
235.3	-81.24
235.518	8.87
235.735	92.84
235.953	-36.18
236.17	58.03
236.388	-7.51
236.605	6.83
236.822	31.4
237.04	8.87
237.257	-7.51
237.475	49.83
237.692	41.64
237.909	-30.04
238.127	2.73
238.344	17.07
238.562	58.03
238.779	19.11
238.996	39.59
239.214	17.07
239.431	2.73
239.648	0.68
239.865	66.22
240.083	-66.9
240.3	70.31
240.517	8.87
240.735	33.45
240.952	62.12
241.169	82.6
241.386	27.31
241.603	8.87
241.821	-27.99
242.038	117.42
242.255	25.26
242.472	-13.65
242.689	66.22
242.907	60.07
243.124	-23.89
243.341	45.74
243.558	-5.46
243.775	4.78
243.992	-56.66
244.209	45.74
244.426	86.7
244.643	37.55
244.86	17.07
245.078	-7.51
245.295	47.79
245.512	-34.13
245.729	-5.46
245.946	53.93
246.163	45.74
246.38	33.45
246.597	58.03
246.814	115.37
247.031	12.97
247.248	58.03
247.464	84.65
247.681	17.07
247.898	-13.65
248.115	41.64
248.332	-7.51
248.549	82.6
248.766	98.99
248.983	78.51
249.2	17.07
249.417	66.22
249.633	41.64
249.85	103.08
250.067	66.22
250.284	27.31
250.501	35.5
250.717	45.74
250.934	-101.72
251.151	-32.08
251.368	51.88
251.585	19.11
251.801	4.78
252.018	-48.47
252.235	103.08
252.451	-27.99
252.668	62.12
252.885	45.74
253.102	53.93
253.318	17.07
253.535	-40.28
253.752	-7.51
253.968	-62.8
254.185	-27.99
254.401	-38.23
254.618	17.07
254.835	80.55
255.051	74.41
255.268	12.97
255.484	17.07
255.701	-25.94
255.917	47.79
256.134	74.41
256.351	25.26
256.567	27.31
256.784	41.64
257	17.07
257.217	-64.85
257.433	62.12
257.65	70.31
257.866	55.98
258.082	33.45
258.299	8.87
258.515	70.31
258.732	-19.8
258.948	-7.51
259.165	35.5
259.381	-40.28
259.597	107.18
259.814	76.46
260.03	35.5
260.246	17.07
260.463	58.03
260.679	101.03
260.895	-5.46
261.112	-15.7
261.328	2.73
261.544	72.36
261.761	141.99
261.977	92.84
262.193	-3.41
262.409	58.03
262.626	64.17
262.842	-30.04
263.058	-5.46
263.274	33.45
263.49	60.07
263.707	0.68
263.923	8.87
264.139	-15.7
264.355	0.68
264.571	41.64
264.787	78.51
265.004	84.65
265.22	12.97
265.436	43.69
265.652	35.5
265.868	-7.51
266.084	-46.42
266.3	-13.65
266.516	-56.66
266.732	27.31
266.948	53.93
267.164	-1.37
267.38	17.07
267.596	33.45
267.812	0.68
268.028	35.5
268.244	74.41
268.46	66.22
268.676	45.74
268.892	47.79
269.108	2.73
269.324	12.97
269.54	-27.99
269.756	101.03
269.972	8.87
270.188	62.12
270.403	8.87
270.619	12.97
270.835	17.07
271.051	33.45
271.267	53.93
271.483	-5.46
271.698	29.35
271.914	39.59
272.13	66.22
272.346	43.69
272.562	78.51
272.777	49.83
272.993	80.55
273.209	39.59
273.425	41.64
273.64	-30.04
273.856	35.5
274.072	58.03
274.287	115.37
274.503	25.26
274.719	37.55
274.934	29.35
275.15	12.97
275.366	-13.65
275.581	-34.13
275.797	31.4
276.012	49.83
276.228	-32.08
276.444	0.68
276.659	15.02
276.875	-17.75
277.09	-30.04
277.306	94.89
277.521	-13.65
277.737	23.21
277.952	51.88
278.168	35.5
278.383	35.5
278.599	-11.61
278.814	45.74
279.03	58.03
279.245	125.61
279.461	78.51
279.676	29.35
279.892	-79.19
280.107	-40.28
280.322	17.07
280.538	35.5
280.753	-48.47
280.969	19.11
281.184	2.73
281.399	37.55
281.615	60.07
281.83	53.93
282.045	-9.56
282.26	19.11
282.476	33.45
282.691	68.27
282.906	10.92
283.122	49.83
283.337	49.83
283.552	10.92
283.767	-15.7
283.983	66.22
284.198	43.69
284.413	82.6
284.628	-13.65
284.843	49.83
285.058	-15.7
285.274	43.69
285.489	-40.28
285.704	64.17
285.919	12.97
286.134	17.07
286.349	15.02
286.564	-19.8
286.779	58.03
286.995	70.31
287.21	62.12
287.425	49.83
287.64	33.45
287.855	17.07
288.07	8.87
288.285	-13.65
288.5	43.69
288.715	8.87
288.93	8.87
289.145	15.02
289.36	41.64
289.575	47.79
289.79	90.79
290.004	49.83
290.219	62.12
290.434	10.92
290.649	-81.24
290.864	25.26
291.079	64.17
291.294	31.4
291.509	27.31
291.724	25.26
291.938	51.88
292.153	58.03
292.368	68.27
292.583	-7.51
292.798	17.07
293.012	37.55
293.227	-40.28
293.442	60.07
293.657	19.11
293.871	-21.84
294.086	-19.8
294.301	139.94
294.516	29.35
294.73	86.7
294.945	-13.65
295.16	-15.7
295.374	41.64
295.589	58.03
295.804	25.26
296.018	-5.46
296.233	0.68
296.447	29.35
296.662	23.21
296.877	33.45
297.091	29.35
297.306	58.03
297.52	-46.42
297.735	-36.18
297.949	41.64
298.164	115.37
298.378	66.22
298.593	6.83
298.807	-7.51
299.022	84.65
299.236	66.22
299.451	29.35
299.665	-7.51
299.88	-32.08
300.094	43.69
300.309	74.41
300.523	49.83
300.737	-44.37
300.952	37.55
301.166	82.6
301.381	-11.61
301.595	-27.99
301.809	64.17
302.024	-7.51
302.238	8.87
302.452	33.45
302.667	17.07
302.881	60.07
303.095	103.08
303.309	53.93
303.524	-60.76
303.738	25.26
303.952	15.02
304.166	10.92
304.381	15.02
304.595	2.73
304.809	-7.51
305.023	72.36
305.237	68.27
305.452	12.97
305.666	68.27
305.88	2.73
306.094	62.12
306.308	37.55
306.522	-9.56
306.736	25.26
306.95	84.65
307.164	90.79
307.379	6.83
307.593	-40.28
307.807	-36.18
308.021	19.11
308.235	53.93
308.449	-7.51
308.663	35.5
308.877	66.22
309.091	53.93
309.305	-42.32
309.519	-19.8
309.733	-9.56
309.947	12.97
310.161	66.22
310.374	49.83
310.588	76.46
310.802	70.31
311.016	51.88
311.23	66.22
311.444	21.16
311.658	-7.51
311.872	98.99
312.085	94.89
312.299	43.69
312.513	4.78
312.727	45.74
312.941	31.4
313.154	39.59
313.368	88.75
313.582	92.84
313.796	-21.84
314.009	-11.61
314.223	29.35
314.437	23.21
314.651	39.59
314.864	66.22
315.078	-3.41
315.292	-40.28
315.505	74.41
315.719	29.35
315.933	41.64
316.146	23.21
316.36	12.97
316.573	43.69
316.787	62.12
317.001	27.31
317.214	43.69
317.428	62.12
317.641	19.11
317.855	8.87
318.068	12.97
318.282	58.03
318.495	49.83
318.709	131.75
318.922	41.64
319.136	45.74
319.349	60.07
319.563	19.11
319.776	51.88
319.99	19.11
320.203	41.64
320.417	-1.37
320.63	53.93
320.843	35.5
321.057	-19.8
321.27	8.87
321.483	55.98
321.697	19.11
321.91	66.22
322.124	19.11
322.337	2.73
322.55	-15.7
322.763	94.89
322.977	27.31
323.19	8.87
323.403	17.07
323.617	66.22
323.83	25.26
324.043	35.5
324.256	-36.18
324.469	-68.95
324.683	103.08
324.896	25.26
325.109	49.83
325.322	0.68
325.535	66.22
325.748	139.94
325.962	-23.89
326.175	-19.8
326.388	29.35
326.601	-7.51
326.814	66.22
327.027	78.51
327.24	8.87
327.453	-30.04
327.666	-7.51
327.879	25.26
328.092	90.79
328.305	0.68
328.518	51.88
328.731	25.26
328.944	-32.08
329.157	35.5
329.37	-21.84
329.583	170.66
329.796	37.55
330.009	66.22
330.222	-48.47
330.435	109.23
330.648	33.45
330.861	-40.28
331.073	82.6
331.286	64.17
331.499	76.46
331.712	-15.7
331.925	10.92
332.138	-7.51
332.35	66.22
332.563	115.37
332.776	25.26
332.989	-40.28
333.202	25.26
333.414	37.55
333.627	62.12
333.84	-5.46
334.053	86.7
334.265	8.87
334.478	-13.65
334.691	0.68
334.903	41.64
335.116	60.07
335.329	41.64
335.541	33.45
335.754	23.21
335.966	-7.51
336.179	49.83
336.392	49.83
336.604	-1.37
336.817	90.79
337.029	10.92
337.242	35.5
337.454	4.78
337.667	0.68
337.88	109.23
338.092	82.6
338.305	39.59
338.517	4.78
338.729	29.35
338.942	90.79
339.154	0.68
339.367	-25.94
339.579	121.51
339.792	-32.08
340.004	66.22
340.217	58.03
340.429	53.93
340.641	-54.61
340.854	33.45
341.066	27.31
341.278	25.26
341.491	98.99
341.703	12.97
341.915	-9.56
342.128	8.87
342.34	19.11
342.552	29.35
342.764	51.88
342.977	6.83
343.189	8.87
343.401	-5.46
343.613	-64.85
343.826	82.6
344.038	-56.66
344.25	131.75
344.462	19.11
344.674	35.5
344.886	0.68
345.099	66.22
345.311	8.87
345.523	21.16
345.735	-30.04
345.947	92.84
346.159	15.02
346.371	4.78
346.583	17.07
346.795	123.56
347.007	-30.04
347.219	49.83
347.431	-30.04
347.643	92.84
347.855	-46.42
348.067	37.55
348.279	49.83
348.491	35.5
348.703	82.6
348.915	33.45
349.127	86.7
349.339	-48.47
349.551	80.55
349.763	60.07
349.975	-7.51
350.187	72.36
350.399	60.07
350.61	84.65
350.822	8.87
351.034	4.78
351.246	25.26
351.458	80.55
351.669	103.08
351.881	80.55
352.093	92.84
352.305	60.07
352.517	0.68
352.728	41.64
352.94	66.22
353.152	70.31
353.363	-7.51
353.575	-42.32
353.787	92.84
353.999	-13.65
354.21	58.03
354.422	53.93
354.633	4.78
354.845	84.65
355.057	39.59
355.268	35.5
355.48	123.56
355.692	-38.23
355.903	103.08
356.115	55.98
356.326	-5.46
356.538	92.84
356.749	84.65
356.961	115.37
357.172	68.27
357.384	60.07
357.595	55.98
357.807	33.45
358.018	27.31
358.23	82.6
358.441	125.61
358.653	53.93
358.864	10.92
359.075	-3.41
359.287	51.88
359.498	-21.84
359.709	103.08
359.921	86.7
360.132	64.17
360.344	109.23
360.555	-25.94
360.766	12.97
360.977	49.83
361.189	70.31
361.4	27.31
361.611	82.6
361.823	-7.51
362.034	31.4
362.245	-52.56
362.456	82.6
362.667	72.36
362.879	8.87
363.09	8.87
363.301	25.26
363.512	66.22
363.723	-30.04
363.935	41.64
364.146	17.07
364.357	92.84
364.568	51.88
364.779	-11.61
364.99	66.22
365.201	19.11
365.412	88.75
365.623	60.07
365.834	37.55
366.045	-38.23
366.256	25.26
366.467	49.83
366.678	25.26
366.889	-44.37
367.1	51.88
367.311	8.87
367.522	90.79
367.733	111.27
367.944	41.64
368.155	25.26
368.366	82.6
368.577	41.64
368.788	29.35
368.999	117.42
369.209	33.45
369.42	103.08
369.631	98.99
369.842	0.68
370.053	60.07
370.264	-5.46
370.474	27.31
370.685	27.31
370.896	27.31
371.107	49.83
371.317	84.65
371.528	58.03
371.739	45.74
371.95	19.11
372.16	41.64
372.371	74.41
372.582	90.79
372.792	25.26
373.003	-1.37
373.214	144.04
373.424	74.41
373.635	4.78
373.846	80.55
374.056	-30.04
374.267	90.79
374.477	41.64
374.688	58.03
374.898	10.92
375.109	19.11
375.319	84.65
375.53	101.03
375.74	60.07
375.951	47.79
376.161	29.35
376.372	68.27
376.582	-23.89
376.793	98.99
377.003	78.51
377.214	27.31
377.424	58.03
377.635	66.22
377.845	-3.41
378.055	139.94
378.266	41.64
378.476	33.45
378.686	96.94
378.897	-34.13
379.107	4.78
379.317	115.37
379.528	0.68
379.738	49.83
379.948	8.87
380.158	64.17
380.369	68.27
380.579	33.45
380.789	35.5
380.999	19.11
381.21	53.93
381.42	92.84
381.63	49.83
381.84	105.13
382.05	86.7
382.261	72.36
382.471	17.07
382.681	84.65
382.891	103.08
383.101	-9.56
383.311	-46.42
383.521	-7.51
383.731	25.26
383.941	2.73
384.151	94.89
384.361	-23.89
384.571	21.16
384.781	74.41
384.991	96.94
385.201	139.94
385.411	84.65
385.621	78.51
385.831	66.22
386.041	58.03
386.251	41.64
386.461	62.12
386.671	58.03
386.881	51.88
387.091	33.45
387.301	53.93
387.511	74.41
387.72	94.89
387.93	60.07
388.14	98.99
388.35	29.35
388.56	84.65
388.769	82.6
388.979	58.03
389.189	-77.14
389.399	51.88
389.609	78.51
389.818	72.36
390.028	21.16
390.238	92.84
390.447	45.74
390.657	37.55
390.867	58.03
391.076	27.31
391.286	49.83
391.496	0.68
391.705	105.13
391.915	131.75
392.125	133.8
392.334	53.93
392.544	70.31
392.753	2.73
392.963	49.83
393.172	12.97
393.382	41.64
393.591	84.65
393.801	29.35
394.01	121.51
394.22	-15.7
394.429	82.6
394.639	68.27
394.848	115.37
395.058	131.75
395.267	58.03
395.477	-32.08
395.686	98.99
395.895	133.8
396.105	182.95
396.314	150.18
396.524	92.84
396.733	90.79
396.942	90.79
397.152	109.23
397.361	144.04
397.57	115.37
397.78	123.56
397.989	119.46
398.198	189.1
398.407	109.23
398.617	35.5
398.826	45.74
399.035	98.99
399.244	115.37
399.453	-3.41
399.663	74.41
399.872	158.38
400.081	-17.75
400.29	144.04
400.499	29.35
400.708	189.1
400.917	82.6
401.127	115.37
401.336	119.46
401.545	152.23
401.754	74.41
401.963	141.99
402.172	-3.41
402.381	25.26
402.59	27.31
402.799	92.84
403.008	166.57
403.217	60.07
403.426	148.14
403.635	139.94
403.844	115.37
404.053	66.22
404.262	19.11
404.471	262.82
404.68	166.57
404.888	166.57
405.097	74.41
405.306	90.79
405.515	176.81
405.724	117.42
405.933	123.56
406.142	127.66
406.35	156.33
406.559	150.18
406.768	98.99
406.977	248.49
407.185	125.61
407.394	223.91
407.603	156.33
407.812	131.75
408.02	201.38
408.229	166.57
408.438	111.27
408.646	209.58
408.855	193.19
409.064	205.48
409.272	215.72
409.481	264.87
409.69	207.53
409.898	182.95
410.107	197.29
410.315	254.63
410.524	260.77
410.733	322.21
410.941	346.79
411.15	223.91
411.358	279.21
411.567	334.5
411.775	307.88
411.984	273.06
412.192	346.79
412.401	365.22
412.609	387.75
412.818	369.32
413.026	352.93
413.234	324.26
413.443	412.32
413.651	438.95
413.86	508.58
414.068	541.35
414.276	484
414.485	459.43
414.693	524.96
414.901	592.55
415.11	590.5
415.318	590.5
415.526	572.07
415.734	531.11
415.943	594.59
416.151	662.18
416.359	680.61
416.567	586.4
416.776	705.18
416.984	766.62
417.192	795.29
417.4	756.38
417.608	762.53
417.817	823.97
418.025	959.13
418.233	1102.49
418.441	920.22
418.649	985.76
418.857	1043.1
419.065	1067.67
419.273	1008.28
419.481	1059.48
419.689	1139.35
419.897	1174.17
420.105	1223.32
420.313	1206.94
420.521	1342.1
420.729	1303.19
420.937	1231.51
421.145	1458.84
421.353	1393.3
421.561	1569.43
421.769	1651.35
421.977	1700.5
422.185	1649.3
422.393	1901.2
422.601	1802.9
422.809	1747.6
423.017	1858.19
423.224	1915.53
423.432	2067.08
423.64	2015.88
423.848	2255.5
424.056	2134.67
424.263	2265.74
424.471	2386.57
424.679	2294.41
424.887	2476.68
425.094	2581.12
425.302	2583.17
425.51	2607.75
425.718	2701.95
425.925	2843.26
426.133	2839.17
426.341	3052.16
426.548	3185.27
426.756	3127.93
426.964	3164.79
427.171	3443.32
427.379	3467.89
427.586	3570.29
427.794	3646.07
428.001	3768.95
428.209	3967.6
428.417	3940.97
428.624	4301.42
428.832	4074.09
429.039	4184.68
429.247	4067.95
429.454	4629.09
429.662	4704.87
429.869	4465.25
430.076	4858.46
430.284	4704.87
430.491	5061.21
430.699	5251.67
430.906	5180
431.114	5235.29
431.321	5567.06
431.528	5646.93
431.736	5935.7
431.943	6054.48
432.15	6044.24
432.358	6062.67
432.565	6410.82
432.772	6328.91
432.979	6619.72
433.187	6761.03
433.394	6814.27
433.601	7219.77
433.808	7447.1
434.016	7354.94
434.223	7660.09
434.43	8024.62
434.637	8063.54
434.844	8403.5
435.052	8495.66
435.259	8456.75
435.466	8469.03
435.673	8645.16
435.88	9015.84
436.087	9335.32
436.294	9701.91
436.501	9355.8
436.708	9478.68
436.915	9908.76
437.122	10459.66
437.329	10146.32
437.537	10539.53
437.743	10746.37
437.95	10674.7
438.157	11268.61
438.364	11528.7
438.571	11670.01
438.778	11860.47
438.985	12988.9
439.192	12085.75
439.399	12595.69
439.606	12237.3
439.813	13093.35
440.02	13830.62
440.227	13488.6
440.433	13281.76
440.64	14021.08
440.847	13517.28
441.054	14209.49
441.261	15159.75
441.467	14852.55
441.674	15137.22
441.881	15868.34
442.088	15598.01
442.294	15301.06
442.501	15854.01
442.708	16470.45
442.914	17035.69
443.121	17703.32
443.328	17203.62
443.534	18485.65
443.741	17863.07
443.948	17686.94
444.154	18950.54
444.361	19011.98
444.568	18930.06
444.774	18956.68
444.981	19112.33
445.187	19648.89
445.394	20676.98
445.6	20111.74
445.807	22440.28
446.013	21614.94
446.22	21909.85
446.426	22632.79
446.633	23056.71
446.839	23458.12
447.046	22597.97
447.252	23912.77
447.459	24113.47
447.665	23963.97
447.871	24807.73
448.078	26179.87
448.284	25076.01
448.491	25602.34
448.697	26429.72
448.903	27154.7
449.11	27515.14
449.316	26781.97
449.522	27222.28
449.728	27881.73
449.935	28037.37
450.141	28070.14
450.347	28889.33
450.553	27916.54
450.76	28178.68
450.966	29487.34
451.172	29051.12
451.378	29536.49
451.584	29260.01
451.791	30142.69
451.997	29984.99
452.203	30148.83
452.409	30265.56
452.615	30279.9
452.821	28985.58
453.027	28956.91
453.233	30238.94
453.44	29169.9
453.646	29448.43
453.852	29825.25
454.058	30324.96
454.264	29548.78
454.47	30355.68
454.676	29333.74
454.882	30466.27
455.088	27951.36
455.294	28281.08
455.5	28616.95
455.705	28920.05
455.911	27822.34
456.117	27332.87
456.323	27072.78
456.529	25506.09
456.735	26994.96
456.941	26052.89
457.147	25688.35
457.352	24910.13
457.558	24502.58
457.764	24990
457.97	24332.6
458.176	24019.26
458.381	23843.13
458.587	22624.59
458.793	22724.94
458.999	21242.21
459.204	23224.65
459.41	22219.1
459.616	21076.33
459.821	21258.6
460.027	20980.07
460.233	20384.12
460.438	19540.35
460.644	19898.75
460.85	18858.38
461.055	18516.37
461.261	18649.49
461.466	17105.32
461.672	16613.81
461.878	17775
462.083	16689.58
462.289	16495.02
462.494	16333.23
462.7	15456.7
462.905	15264.19
463.111	15835.58
463.316	15774.14
463.522	15331.78
463.727	15399.36
463.932	15202.75
464.138	15344.06
464.343	15272.39
464.549	14729.67
464.754	15190.47
464.959	15155.65
465.165	14920.13
465.37	14506.45
465.575	13924.82
465.781	14582.22
465.986	14528.97
466.191	13949.4
466.397	13767.13
466.602	13058.53
466.807	13654.49
467.012	13824.47
467.218	13601.24
467.423	13408.73
467.628	13554.14
467.833	14156.24
468.038	13656.54
468.244	13468.13
468.449	13777.37
468.654	13369.82
468.859	13220.32
469.064	13177.31
469.269	12796.39
469.474	12913.13
469.679	13298.14
469.885	12417.52
470.09	12630.51
470.295	12986.85
470.5	12415.47
470.705	12524.01
470.91	12243.44
471.115	12321.26
471.32	12354.03
471.525	12186.1
471.73	12065.27
471.935	11977.2
472.139	11522.55
472.344	11739.64
472.549	11596.28
472.754	11469.31
472.959	11309.57
473.164	10883.59
473.369	10879.49
473.574	11305.47
473.778	11129.34
473.983	11264.51
474.188	11125.25
474.393	10420.75
474.598	10740.23
474.802	10404.36
475.007	10433.04
475.212	10379.79
475.417	10215.95
475.621	10027.54
475.826	10285.58
476.031	10033.68
476.235	9630.23
476.44	9822.74
476.645	9636.38
476.849	9626.14
477.054	9452.06
477.259	9433.63
477.463	9628.18
477.668	9288.22
477.872	9435.67
478.077	9060.9
478.282	8874.53
478.486	8880.68
478.691	8641.06
478.895	9042.46
479.1	8819.24
479.304	8819.24
479.509	8436.27
479.713	8763.94
479.918	8495.66
480.122	8407.59
480.326	8548.9
480.531	8438.31
480.735	8299.05
480.94	8331.82
481.144	8567.34
481.348	8143.41
481.553	8383.02
481.757	8131.12
481.961	8268.33
482.166	8352.3
482.37	8274.48
482.574	7998
482.778	8213.04
482.983	8254
483.187	8243.76
483.391	8051.25
483.595	7985.71
483.8	8235.57
484.004	8143.41
484.208	8034.86
484.412	8221.23
484.616	8139.31
484.821	8145.45
485.025	8161.84
485.229	8104.5
485.433	7920.18
485.637	7897.65
485.841	8143.41
486.045	8307.24
486.249	8084.02
486.453	7991.86
486.657	8159.79
486.861	8088.11
487.065	7971.38
487.269	8098.35
487.473	8127.02
487.677	8194.61
487.881	8235.57
488.085	8118.83
488.289	8342.06
488.493	8127.02
488.697	8106.54
488.901	8049.2
489.105	8145.45
489.309	8290.86
489.512	8290.86
489.716	8274.48
489.92	8088.11
490.124	8284.72
490.328	8323.63
490.531	8260.14
490.735	8350.25
490.939	8331.82
491.143	8323.63
491.346	8419.88
491.55	8487.47
491.754	8602.15
491.958	8667.69
492.161	8548.9
492.365	8667.69
492.569	8569.38
492.772	8528.42
492.976	8866.34
493.18	8915.49
493.383	8878.63
493.587	9044.51
493.79	9108
493.994	8954.4
494.197	9009.7
494.401	9134.62
494.605	9085.47
494.808	9198.11
495.012	9351.71
495.215	9282.08
495.419	9568.79
495.622	9579.03
495.825	9722.39
496.029	9654.81
496.232	9933.33
496.436	9773.59
496.639	10099.22
496.843	10060.31
497.046	10252.81
497.249	10318.35
497.453	10328.59
497.656	10580.49
497.859	10560.01
498.063	10543.63
498.266	10926.6
498.469	10732.04
498.673	11000.32
498.876	11088.39
499.079	11289.09
499.282	11201.02
499.485	11467.26
499.689	11670.01
499.892	11663.86
500.095	11899.38
500.298	12116.47
500.501	12100.08
500.705	12313.07
500.908	12567.02
501.111	12693.99
501.314	12685.8
501.517	13105.63
501.72	13124.07
501.923	13130.21
502.126	13359.58
502.329	13552.09
502.532	13740.5
502.735	13545.95
502.938	13865.43
503.141	13971.93
503.344	14430.67
503.547	14303.7
503.75	14469.58
503.953	14803.4
504.156	14946.76
504.359	15028.68
504.562	14967.24
504.765	15657.4
504.968	15606.2
505.17	15909.3
505.373	15831.48
505.576	16417.2
505.779	16505.26
505.982	16572.85
506.185	16873.9
506.387	16763.31
506.59	17238.44
506.793	17146.28
506.996	17226.15
507.198	18039.19
507.401	17815.96
507.604	18221.46
507.807	18545.04
508.009	18471.31
508.212	18858.38
508.415	18948.49
508.617	19091.85
508.82	19136.9
509.022	19345.8
509.225	19734.91
509.428	19810.68
509.63	20044.15
509.833	20246.9
510.035	20619.63
510.238	20584.82
510.44	21025.13
510.643	21154.15
510.845	21119.34
511.048	21227.88
511.25	21631.33
511.453	21909.85
511.655	22765.9
511.858	22288.73
512.06	22892.88
512.262	23124.3
512.465	22935.88
512.667	23355.72
512.87	23429.45
513.072	23908.67
513.274	24078.65
513.477	24394.04
513.679	24729.91
513.881	24680.75
514.084	24985.9
514.286	24906.03
514.488	25254.19
514.69	26169.63
514.893	26052.89
515.095	26583.32
515.297	26550.55
515.499	26861.84
515.701	27058.45
515.904	27341.07
516.106	27726.08
516.308	27736.32
516.51	28072.19
516.712	28168.44
516.914	28612.85
517.116	29087.98
517.318	28756.21
517.52	29350.12
517.722	29059.31
517.925	29923.55
518.127	30130.4
518.329	30367.96
518.531	30304.48
518.733	31094.99
518.935	31367.37
519.136	30988.5
519.338	31600.84
519.54	31822.02
519.742	31844.55
519.944	32291.01
520.146	32833.72
520.348	33036.47
520.55	33112.24
520.752	33255.6
520.954	33759.4
521.155	33392.81
521.357	34205.86
521.559	34328.73
521.761	34961.56
521.963	34476.19
522.164	34695.32
522.366	34836.63
522.568	35444.88
522.77	35678.35
522.971	36309.12
523.173	36026.5
523.375	36380.8
523.576	36348.03
523.778	36911.22
523.98	36960.37
524.181	37218.42
524.383	37005.43
524.584	37703.79
524.786	37644.4
524.988	37625.96
525.189	38240.36
525.391	38738.01
525.592	38674.52
525.794	38430.82
525.995	38951
526.197	38783.07
526.398	38758.49
526.6	39563.34
526.801	39383.12
527.003	39391.31
527.204	39651.41
527.406	39753.8
527.607	39827.53
527.808	40149.06
528.01	39530.58
528.211	40273.99
528.412	40728.64
528.614	40650.81
528.815	40577.09
529.016	40980.54
529.218	40245.32
529.419	41160.76
529.62	41295.92
529.822	41179.19
530.023	40855.61
530.224	40947.77
530.425	41052.22
530.626	40661.05
530.828	40890.43
531.029	42176.55
531.23	41220.15
531.431	40818.75
531.632	41441.33
531.833	41750.57
532.035	41773.1
532.236	41553.97
532.437	41988.14
532.638	41672.75
532.839	41642.03
533.04	41908.27
533.241	41781.29
533.442	42215.46
533.643	42100.78
533.844	42211.37
534.045	42158.12
534.246	41605.17
534.447	42356.77
534.648	41898.03
534.849	42086.44
535.05	41470
535.251	41668.65
535.451	41818.16
535.652	42295.33
535.853	42354.72
536.054	41867.31
536.255	41981.99
536.456	41642.03
536.657	42414.12
536.857	41986.09
537.058	42016.81
537.259	42438.69
537.46	42246.18
537.66	42219.56
537.861	42348.58
538.062	42166.31
538.263	42469.41
538.463	41744.43
538.664	41916.46
538.865	42332.2
539.065	42324
539.266	42035.24
539.466	42293.29
539.667	41685.04
539.868	42457.12
540.068	42000.43
540.269	42047.53
540.469	42457.12
540.67	41848.88
540.87	42082.34
541.071	42217.51
541.271	42356.77
541.472	41902.12
541.672	42065.96
541.873	42086.44
542.073	41820.2
542.274	42164.26
542.474	42328.1
542.675	41642.03
542.875	42235.94
543.075	41771.05
543.276	41580.59
543.476	42260.52
543.676	41719.85
543.877	42096.68
544.077	41871.4
544.277	41797.68
544.478	41953.32
544.678	42113.06
544.878	41769.01
545.078	41603.12
545.279	41703.47
545.479	41627.7
545.679	42184.74
545.879	42258.47
546.079	41957.42
546.28	42008.62
546.48	41332.79
546.68	42041.39
546.88	42227.75
547.08	41787.44
547.28	41783.34
547.48	41529.39
547.68	42258.47
547.88	41603.12
548.081	42174.5
548.281	41861.16
548.481	41343.03
548.681	41785.39
548.881	41965.61
549.081	41343.03
549.28	41625.65
549.48	42256.42
549.68	41736.24
549.88	42133.54
550.08	41439.28
550.28	41842.73
550.48	41463.86
550.68	41965.61
550.88	41383.99
551.08	41486.39
551.279	41562.16
551.479	41220.15
551.679	41703.47
551.879	41670.7
552.079	41881.64
552.278	41613.36
552.478	41822.25
552.678	41588.78
552.878	41971.75
553.077	41486.39
553.277	41054.26
553.477	41969.71
553.676	41474.1
553.876	41508.91
554.076	41439.28
554.275	41334.84
554.475	40917.05
554.674	41359.41
554.874	41056.31
555.074	41095.22
555.273	41564.21
555.473	41601.07
555.672	40851.52
555.872	41367.6
556.071	41103.42
556.271	41248.82
556.47	41183.29
556.67	40517.7
556.869	40822.84
557.068	41058.36
557.268	40384.58
557.467	40794.17
557.667	40808.51
557.866	40912.95
558.065	40601.66
558.265	40702.01
558.464	40351.81
558.663	40753.21
558.863	40437.83
559.062	40908.86
559.261	40357.95
559.461	40769.6
559.66	40216.64
559.859	40679.49
560.058	40280.13
560.258	40378.43
560.457	39864.39
560.656	40423.49
560.855	40345.67
561.054	40063.05
561.253	39835.72
561.453	40421.44
561.652	39934.03
561.851	40278.08
562.05	39647.31
562.249	39770.19
562.448	39854.15
562.647	40024.14
562.846	39684.17
563.045	39843.91
563.244	39352.4
563.443	39657.55
563.642	39303.25
563.841	39229.52
564.04	39186.52
564.239	39571.53
564.438	38885.47
564.637	39370.83
564.836	39317.59
565.035	39135.32
565.234	39022.68
565.432	38832.22
565.631	38717.53
565.83	38996.06
566.029	38692.96
566.228	38760.54
566.427	38742.11
566.625	38541.41
566.824	38352.99
567.023	38547.55
567.222	38006.89
567.42	38342.75
567.619	38113.38
567.818	38105.19
568.016	37935.21
568.215	38215.78
568.414	37927.02
568.612	38051.94
568.811	37394.54
569.01	37703.79
569.208	37533.81
569.407	37734.51
569.605	37281.91
569.804	37668.97
570.002	37199.99
570.201	37658.73
570.4	37103.73
570.598	37251.19
570.797	36886.65
570.995	37015.67
571.193	36685.95
571.392	36796.54
571.59	36255.87
571.789	36581.5
571.987	36044.93
572.186	36290.69
572.384	36438.14
572.582	36706.43
572.781	36624.51
572.979	36251.78
573.177	35983.49
573.376	36608.12
573.574	35645.58
573.772	36274.31
573.971	35580.04
574.169	36128.9
574.367	35625.1
574.565	35680.39
574.763	35453.07
574.962	35426.45
575.16	34930.84
575.358	35217.55
575.556	34945.17
575.754	35332.24
575.952	35006.61
576.151	35055.76
576.349	34662.55
576.547	34810.01
576.745	34605.21
576.943	34810.01
577.141	34388.13
577.339	34511
577.537	34295.97
577.735	34121.89
577.933	34060.45
578.131	34355.36
578.329	34068.64
578.527	33603.75
578.725	33726.63
578.923	33718.44
579.121	33921.19
579.319	33546.41
579.516	33628.33
579.714	33527.98
579.912	33505.45
580.11	33245.36
580.308	33261.74
580.506	33067.19
580.704	32579.77
580.901	33013.94
581.099	33104.05
581.297	32778.42
581.495	32620.73
581.692	32514.23
581.89	32264.38
582.088	32723.13
582.285	32180.42
582.483	32444.6
582.681	32350.4
582.878	32215.23
583.076	31799.49
583.274	32325.82
583.471	31422.67
583.669	31961.28
583.866	31508.68
584.064	31719.62
584.262	31385.8
584.459	31676.62
584.657	31303.88
584.854	31658.18
585.052	31293.65
585.249	31197.39
585.447	31152.34
585.644	30779.6
585.841	30884.05
586.039	30882
586.236	30636.25
586.434	30691.54
586.631	30597.34
586.828	30486.75
587.026	30470.36
587.223	30312.67
587.42	30206.17
587.618	30335.2
587.815	29894.88
588.012	30130.4
588.21	30025.95
588.407	30185.69
588.604	29761.76
588.801	29530.34
588.999	29700.33
589.196	29706.47
589.393	29415.66
589.59	29653.22
589.787	29126.89
589.984	29454.57
590.182	28590.33
590.379	28995.82
590.576	28702.96
590.773	28770.55
590.97	28399.87
591.167	28795.12
591.364	28352.76
591.561	28803.32
591.758	28236.03
591.955	28416.25
592.152	28352.76
592.349	28375.29
592.546	28225.79
592.743	28092.67
592.94	27912.45
593.137	27973.89
593.334	28147.97
593.531	27230.48
593.727	27910.4
593.924	27652.36
594.121	27324.68
594.318	27537.67
594.515	27406.6
594.712	27449.61
594.908	27324.68
595.105	27529.48
595.302	27037.97
595.499	27402.5
595.696	27187.47
595.892	26294.55
596.089	26636.56
596.286	26880.27
596.482	26763.54
596.679	26650.9
596.876	26499.35
597.072	26601.75
597.269	26306.84
597.466	26079.52
597.662	26020.13
597.859	25985.31
598.055	26075.42
598.252	25717.03
598.448	26100
598.645	25780.51
598.841	25526.57
599.038	25764.13
599.234	25465.13
599.431	25164.07
599.627	25577.76
599.824	25733.41
600.02	24912.17
600.217	25389.35
600.413	25039.15
600.609	24744.24
600.806	25063.72
601.002	24897.84
601.198	24760.62
601.395	24684.85
601.591	24461.62
601.787	24607.03
601.984	24521.01
602.18	24713.52
602.376	24453.43
602.572	24209.72
602.769	24242.49
602.965	23896.38
603.161	24297.78
603.357	23769.41
603.553	24000.83
603.75	23728.45
603.946	23638.34
604.142	23791.94
604.338	23427.4
604.534	23718.21
604.73	23521.6
604.926	23198.02
605.122	23355.72
605.318	23191.88
605.514	23261.51
605.71	23034.19
605.906	23169.35
606.102	23157.07
606.298	23112.01
606.494	22645.07
606.69	22872.4
606.886	22636.88
607.082	22407.51
607.278	22788.43
607.474	22557.01
607.67	22442.32
607.866	22264.15
608.062	22626.64
608.257	22350.17
608.453	22284.63
608.649	22247.77
608.845	22051.16
609.041	22243.67
609.236	22071.64
609.432	22038.87
609.628	22196.57
609.824	22018.39
610.019	21842.27
610.215	21735.77
610.411	21768.54
610.606	21684.58
610.802	21832.03
610.998	21481.83
611.193	21698.91
611.389	21236.07
611.584	21498.21
611.78	21442.92
611.976	21289.32
612.171	21088.62
612.367	20834.67
612.562	21246.31
612.758	21008.75
612.953	20910.44
613.149	21000.55
613.344	20935.02
613.539	21170.54
613.735	20748.65
613.93	21053.8
614.126	20762.99
614.321	20834.67
614.517	20818.28
614.712	20840.81
614.907	20273.53
615.103	20834.67
615.298	20603.25
615.493	20689.26
615.688	20504.95
615.884	21029.23
616.079	20185.46
616.274	20529.52
616.47	20484.47
616.665	20568.43
616.86	20382.07
617.055	20044.15
617.25	19978.62
617.445	20169.08
617.641	19753.34
617.836	20162.93
618.031	19958.14
618.226	19933.56
618.421	19624.32
618.616	20050.3
618.811	19595.65
619.006	19661.18
619.201	19292.55
619.396	19575.17
619.591	19181.96
619.786	19452.29
619.981	19007.88
620.176	19190.15
620.371	19110.28
620.566	18891.15
620.761	18876.81
620.956	19069.32
621.151	18557.33
621.346	18631.05
621.541	18125.21
621.735	18614.67
621.93	18336.15
622.125	18282.9
622.32	18026.9
622.515	18004.38
622.709	17809.82
622.904	17887.64
623.099	17813.91
623.294	17926.55
623.488	17349.03
623.683	17621.41
623.878	17252.77
624.072	17549.73
624.267	17351.07
624.462	17334.69
624.656	16826.79
624.851	16990.63
625.046	16937.38
625.24	16884.14
625.435	16636.33
625.629	16646.57
625.824	16701.87
626.018	16470.45
626.213	15917.5
626.407	16499.12
626.602	16146.87
626.796	16007.61
626.991	15983.03
627.185	15880.63
627.38	15933.88
627.574	15671.74
627.768	15911.35
627.963	15475.13
628.157	15344.06
628.352	15571.39
628.546	15147.46
628.74	15382.98
628.935	15106.5
629.129	15372.74
629.323	15106.5
629.517	15065.54
629.712	14721.48
629.906	14684.62
630.1	14553.55
630.294	14467.53
630.489	14348.75
630.683	14762.44
630.877	14346.7
631.071	14160.34
631.265	14275.02
631.459	14148.05
631.653	14012.88
631.848	14010.84
632.042	13947.35
632.236	13922.77
632.43	13574.62
632.624	13910.49
632.818	13677.02
633.012	13519.32
633.206	13263.33
633.4	13472.22
633.594	13548
633.788	13400.54
633.982	13552.09
634.176	13005.28
634.369	13134.31
634.563	13036
634.757	12808.68
634.951	12952.04
635.145	12909.03
635.339	12868.07
635.533	12704.23
635.726	12683.75
635.92	12419.57
636.114	12769.77
636.308	12421.61
636.501	12519.92
636.695	12419.57
636.889	12216.82
637.083	12104.18
637.276	12052.98
637.47	12077.55
637.664	12067.31
637.857	11958.77
638.051	11856.37
638.244	11684.34
638.438	11772.41
638.632	11733.5
638.825	11596.28
639.019	11424.25
639.212	11321.85
639.406	11303.42
639.599	11260.41
639.793	11260.41
639.986	11147.78
640.18	11168.26
640.373	11213.31
640.567	10957.32
640.76	10826.25
640.954	10883.59
641.147	10902.02
641.34	10852.87
641.534	10848.77
641.727	10605.06
641.92	10678.79
642.114	10482.19
642.307	10494.47
642.5	10297.87
642.694	10410.51
642.887	10263.05
643.08	10297.87
643.273	10547.72
643.467	10207.76
643.66	10134.03
643.853	10215.95
644.046	9929.24
644.239	10013.2
644.432	9937.43
644.626	9703.96
644.819	9757.21
645.012	9677.33
645.205	9749.01
645.398	9523.74
645.591	9259.55
645.784	9607.7
645.977	9357.85
646.17	9310.75
646.363	9259.55
646.556	9234.97
646.749	9110.05
646.942	9216.54
647.135	9208.35
647.328	9206.3
647.521	9177.63
647.714	8909.35
647.907	9046.56
648.099	8892.96
648.292	8854.05
648.485	8733.22
648.678	8733.22
648.871	8563.24
649.064	8462.89
649.256	8647.21
649.449	8411.69
649.642	8520.23
649.835	8288.81
650.027	8311.34
650.22	8340.01
650.413	8235.57
650.605	8335.92
650.798	8262.19
650.991	7979.57
651.183	8223.28
651.376	7787.06
651.568	7991.86
651.761	7942.71
651.954	7875.12
652.146	8006.19
652.339	7733.81
652.531	7666.23
652.724	7828.02
652.916	7545.4
653.109	7668.28
653.301	7676.47
653.494	7584.31
653.686	7430.71
653.879	7443
654.071	7445.05
654.263	7334.46
654.456	7352.89
654.648	7299.64
654.84	7242.3
655.033	7223.87
655.225	7250.49
655.417	7174.72
655.61	7082.56
655.802	7203.39
655.994	7100.99
656.186	7017.02
656.379	6877.76
656.571	6777.41
656.763	6769.22
656.955	6724.16
657.148	6601.29
657.34	6742.6
657.532	6621.77
657.724	6746.69
657.916	6756.93
658.108	6568.52
658.3	6386.25
658.492	6459.98
658.684	6128.21
658.876	6330.95
659.068	6398.54
659.26	6300.23
659.452	6171.21
659.644	6347.34
659.836	6169.16
660.028	6244.94
660.22	6228.56
660.412	6054.48
660.604	6117.97
660.796	6152.78
660.988	5950.03
661.18	6025.81
661.372	5882.45
661.563	5866.07
661.755	5759.57
661.947	5769.81
662.139	5788.24
662.331	5595.73
662.522	5610.07
662.714	5567.06
662.906	5571.16
663.097	5587.54
663.289	5556.82
663.481	5509.72
663.673	5513.81
663.864	5419.61
664.056	5433.94
664.247	5319.26
664.439	5335.64
664.631	5331.55
664.822	5272.15
665.014	5261.91
665.205	5349.98
665.397	5194.33
665.588	5147.23
665.78	5096.03
665.971	5055.07
666.163	5038.69
666.354	5001.82
666.546	5065.31
666.737	4874.85
666.929	5007.97
667.12	4872.8
667.311	4876.9
667.503	4772.45
667.694	4844.13
667.885	4817.51
668.077	4821.6
668.268	4704.87
668.459	4747.87
668.651	4639.33
668.842	4647.52
669.033	4655.72
669.224	4653.67
669.416	4604.52
669.607	4551.27
669.798	4655.72
669.989	4729.44
670.18	4387.43
670.371	4532.84
670.563	4295.27
670.754	4448.87
670.945	4403.82
671.136	4487.78
671.327	4373.1
671.518	4328.04
671.709	4391.53
671.9	4405.86
672.091	4276.84
672.282	4141.68
672.473	4325.99
672.664	4211.31
672.855	4164.2
673.046	4106.86
673.237	4145.77
673.428	4182.63
673.619	4219.5
673.809	4057.71
674	4108.91
674.191	4145.77
674.382	3969.65
674.573	4014.7
674.764	4026.99
674.954	3969.65
675.145	3850.86
675.336	3924.59
675.527	4072.04
675.717	3869.3
675.908	3865.2
676.099	3875.44
676.289	3996.27
676.48	3859.06
676.671	3805.81
676.861	3834.48
677.052	3826.29
677.243	3842.67
677.433	3705.46
677.624	3809.9
677.814	3678.83
678.005	3773.04
678.195	3768.95
678.386	3570.29
678.576	3580.53
678.767	3621.49
678.957	3736.18
679.148	3691.12
679.338	3748.47
679.529	3764.85
679.719	3592.82
679.909	3619.44
680.1	3705.46
680.29	3699.31
680.481	3617.4
680.671	3558
680.861	3680.88
681.052	3625.59
681.242	3533.43
681.432	3621.49
681.622	3467.89
681.813	3502.71
682.003	3623.54
682.193	3592.82
682.383	3531.38
682.573	3553.91
682.764	3453.56
682.954	3506.81
683.144	3396.21
683.334	3410.55
683.524	3418.74
683.714	3439.22
683.904	3533.43
684.094	3455.61
684.284	3426.93
684.474	3424.89
684.664	3367.54
684.854	3385.98
685.044	3367.54
685.234	3267.19
685.424	3304.06
685.614	3422.84
685.804	3490.42
685.994	3453.56
686.184	3433.08
686.374	3371.64
686.564	3369.59
686.753	3392.12
686.943	3297.91
687.133	3322.49
687.323	3295.86
687.513	3318.39
687.702	3166.84
687.892	3121.79
688.082	3132.03
688.272	3138.17
688.461	3269.24
688.651	3211.9
688.841	3207.8
689.03	3187.32
689.22	3144.31
689.41	3207.8
689.599	3273.34
689.789	3095.16
689.979	3199.61
690.168	3080.83
690.358	2996.86
690.547	3140.22
690.737	3121.79
690.926	3156.6
691.116	2966.14
691.305	3117.69
691.495	3115.64
691.684	2912.89
691.874	3017.34
692.063	2972.29
692.252	3121.79
692.442	3076.73
692.631	3039.87
692.82	2982.53
693.01	3060.35
693.199	3066.49
693.388	2902.65
693.578	2974.33
693.767	3009.15
693.956	3017.34
694.146	2912.89
694.335	2949.76
694.524	2884.22
694.713	2927.23
694.902	2869.89
695.092	2777.73
695.281	2900.61
695.47	2859.65
695.659	2810.5
695.848	2859.65
696.037	2835.07
696.226	2839.17
696.415	2937.47
696.604	2892.41
696.793	2851.46
696.982	2755.2
697.171	2843.26
697.36	2785.92
697.549	2718.34
697.738	2765.44
697.927	2851.46
698.116	2679.43
698.305	2736.77
698.494	2802.3
698.683	2761.34
698.872	2706.05
699.061	2716.29
699.25	2812.54
699.438	2624.13
699.627	2574.98
699.816	2708.1
700.005	2613.89
700.193	2671.23
700.382	2689.67
700.571	2609.79
700.76	2593.41
700.948	2738.82
701.137	2636.42
701.326	2781.82
701.514	2564.74
701.703	2607.75
701.892	2613.89
702.08	2640.51
702.269	2558.6
702.457	2486.92
702.646	2613.89
702.834	2601.6
703.023	2548.36
703.212	2556.55
703.4	2622.08
703.589	2425.48
703.777	2609.79
703.965	2499.2
704.154	2646.66
704.342	2488.96
704.531	2501.25
704.719	2550.4
704.907	2581.12
705.096	2448.01
705.284	2632.32
705.472	2368.13
705.661	2505.35
705.849	2591.36
706.037	2599.56
706.226	2435.72
706.414	2597.51
706.602	2499.2
706.79	2509.44
706.979	2523.78
707.167	2491.01
707.355	2443.91
707.543	2405
707.731	2626.18
707.919	2454.15
708.107	2366.09
708.296	2443.91
708.484	2364.04
708.672	2411.14
708.86	2335.37
709.048	2417.29
709.236	2380.42
709.424	2443.91
709.612	2493.06
709.8	2359.94
709.988	2419.33
710.176	2361.99
710.364	2429.57
710.551	2245.26
710.739	2402.95
710.927	2366.09
711.115	2337.41
711.303	2302.6
711.491	2351.75
711.679	2278.02
711.866	2351.75
712.054	2411.14
712.242	2261.64
712.43	2286.22
712.617	2278.02
712.805	2294.41
712.993	2265.74
713.181	2259.59
713.368	2263.69
713.556	2394.76
713.744	2271.88
713.931	2198.15
714.119	2226.82
714.306	2216.58
714.494	2196.11
714.682	2235.02
714.869	2142.86
715.057	2318.98
715.244	2189.96
715.432	2157.19
715.619	2216.58
715.807	2189.96
715.994	2235.02
716.182	2187.91
716.369	2216.58
716.556	2134.67
716.744	2171.53
716.931	2183.82
717.119	2206.35
717.306	2278.02
717.493	2105.99
717.681	2069.13
717.868	2208.39
718.055	2130.57
718.242	2181.77
718.43	2269.83
718.617	2163.34
718.804	2245.26
718.991	2269.83
719.179	2142.86
719.366	2077.32
719.553	2192.01
719.74	2101.9
719.927	2212.49
720.114	2142.86
720.301	2134.67
720.488	2001.55
720.676	2155.15
720.863	2032.27
721.05	2073.23
721.237	2040.46
721.424	1989.26
721.611	2048.65
721.798	2007.69
721.985	2007.69
722.172	2058.89
722.358	2110.09
722.545	2163.34
722.732	2036.36
722.919	2130.57
723.106	1968.78
723.293	1964.68
723.48	2058.89
723.667	1950.35
723.853	2007.69
724.04	1976.97
724.227	2085.51
724.414	2046.6
724.6	2015.88
724.787	1962.64
724.974	2024.08
725.161	1983.12
725.347	1954.44
725.534	2011.79
725.72	1952.4
725.907	1956.49
726.094	2073.23
726.28	1942.16
726.467	1884.81
726.653	1929.87
726.84	2011.79
727.027	1983.12
727.213	1919.63
727.4	1933.97
727.586	1917.58
727.773	1940.11
727.959	1981.07
728.145	1893.01
728.332	1936.01
728.518	1829.52
728.705	2067.08
728.891	1974.92
729.077	1938.06
729.264	1823.37
729.45	1888.91
729.636	1921.68
729.823	1880.72
730.009	1915.53
730.195	1958.54
730.382	1974.92
730.568	1915.53
730.754	1794.7
730.94	1897.1
731.126	1733.26
731.313	1960.59
731.499	1837.71
731.685	1954.44
731.871	1991.31
732.057	1919.63
732.243	2048.65
732.429	1917.58
732.615	1940.11
732.801	1897.1
732.987	1890.96
733.173	1878.67
733.359	1913.49
733.545	1741.46
733.731	1770.13
733.917	1901.2
734.103	1839.76
734.289	1790.61
734.475	1835.66
734.661	1901.2
734.847	1819.28
735.033	1723.02
735.219	1925.77
735.404	1753.74
735.59	1821.33
735.776	1684.11
735.962	1727.12
736.148	1770.13
736.333	1727.12
736.519	1753.74
736.705	1712.78
736.89	1798.8
737.076	1882.77
737.262	1770.13
737.447	1766.03
737.633	1677.97
737.819	1772.18
738.004	1739.41
738.19	1712.78
738.375	1747.6
738.561	1659.54
738.747	1727.12
738.932	1649.3
739.118	1731.22
739.303	1639.06
739.489	1802.9
739.674	1639.06
739.859	1673.87
740.045	1671.83
740.23	1608.34
740.416	1675.92
740.601	1620.63
740.786	1669.78
740.972	1616.53
741.157	1704.59
741.342	1626.77
741.528	1587.86
741.713	1589.91
741.898	1675.92
742.084	1675.92
742.269	1581.71
742.454	1575.57
742.639	1630.87
742.824	1524.37
743.01	1540.76
743.195	1516.18
743.38	1536.66
743.565	1575.57
743.75	1542.8
743.935	1483.41
744.12	1548.95
744.305	1559.19
744.49	1548.95
744.675	1589.91
744.86	1469.08
745.045	1475.22
745.23	1444.5
745.415	1542.8
745.6	1387.16
745.785	1426.07
745.97	1452.69
746.155	1510.04
746.34	1426.07
746.525	1442.45
746.71	1454.74
746.895	1362.58
747.079	1444.5
747.264	1491.6
747.449	1405.59
747.634	1432.21
747.819	1426.07
748.003	1340.05
748.188	1462.93
748.373	1358.49
748.557	1327.77
748.742	1364.63
748.927	1237.66
749.111	1241.75
749.296	1397.4
749.481	1268.38
749.665	1338.01
749.85	1295
750.034	1221.27
750.219	1327.77
750.404	1235.61
750.588	1258.14
750.773	1270.42
750.957	1217.18
751.141	1204.89
751.326	1233.56
751.51	1270.42
751.695	1155.74
751.879	1208.98
752.064	1188.5
752.248	1239.7
752.432	1184.41
752.617	1110.68
752.801	1157.79
752.985	1159.83
753.17	1225.37
753.354	1190.55
753.538	1094.3
753.722	1079.96
753.907	1141.4
754.091	1090.2
754.275	1092.25
754.459	1102.49
754.643	1100.44
754.828	1188.5
755.012	1002.14
755.196	1016.48
755.38	1024.67
755.564	1057.43
755.748	1112.73
755.932	1086.11
756.116	1000.09
756.3	1073.82
756.484	1032.86
756.668	967.32
756.852	983.71
757.036	1018.52
757.22	932.51
757.404	971.42
757.588	961.18
757.772	961.18
757.956	907.93
758.14	979.61
758.323	971.42
758.507	924.32
758.691	961.18
758.875	1045.15
759.059	1055.39
759.242	959.13
759.426	879.26
759.61	912.03
759.794	885.41
759.977	952.99
760.161	965.28
760.345	901.79
760.528	942.75
760.712	869.02
760.895	803.49
761.079	838.3
761.263	871.07
761.446	844.45
761.63	922.27
761.813	967.32
761.997	801.44
762.18	887.45
762.364	828.06
762.547	813.73
762.731	723.62
762.914	789.15
763.098	871.07
763.281	787.1
763.464	803.49
763.648	875.17
763.831	873.12
764.015	688.8
764.198	828.06
764.381	795.29
764.564	862.88
764.748	842.4
764.931	807.58
765.114	795.29
765.297	696.99
765.481	764.58
765.664	811.68
765.847	866.97
766.03	844.45
766.213	731.81
766.397	764.58
766.58	793.25
766.763	813.73
766.946	619.17
767.129	862.88
767.312	764.58
767.495	764.58
767.678	729.76
767.861	742.05
768.044	733.86
768.227	686.75
768.41	756.38
768.593	746.14
768.776	789.15
768.959	658.08
769.142	758.43
769.324	713.38
769.507	770.72
769.69	594.59
769.873	610.98
770.056	756.38
770.239	791.2
770.421	737.95
770.604	744.1
770.787	674.46
770.97	766.62
771.152	586.4
771.335	723.62
771.518	664.22
771.7	772.77
771.883	664.22
772.066	617.12
772.248	633.5
772.431	762.53
772.613	647.84
772.796	631.46
772.978	690.85
773.161	680.61
773.343	729.76
773.526	649.89
773.708	590.5
773.891	696.99
774.073	690.85
774.256	631.46
774.438	672.42
774.621	596.64
774.803	596.64
774.985	631.46
775.168	666.27
775.35	582.31
775.532	649.89
775.715	606.88
775.897	576.16
776.079	666.27
776.261	553.63
776.444	598.69
776.626	576.16
776.808	545.44
776.99	598.69
777.173	574.11
777.355	541.35
777.537	518.82
777.719	535.2
777.901	533.15
778.083	498.34
778.265	549.54
778.447	531.11
778.629	510.63
778.811	539.3
778.993	492.2
779.175	516.77
779.357	524.96
779.539	436.9
779.721	531.11
779.903	533.15
780.085	459.43
780.267	512.67
780.449	531.11
780.631	484
780.812	502.44
780.994	520.87
781.176	496.29
781.358	449.19
781.54	504.48
781.721	459.43
781.903	475.81
782.085	373.41
782.267	498.34
782.448	352.93
782.63	445.09
782.812	496.29
782.993	377.51
783.175	498.34
783.357	512.67
783.538	443.04
783.72	410.28
783.901	537.25
784.083	420.52
784.264	455.33
784.446	393.89
784.627	328.36
784.809	381.6
784.99	434.85
785.172	346.79
785.353	443.04
785.535	352.93
785.716	348.84
785.897	309.93
786.079	377.51
786.26	443.04
786.441	389.8
786.623	303.78
786.804	361.13
786.985	393.89
787.167	410.28
787.348	328.36
787.529	352.93
787.71	414.37
787.891	318.12
788.073	336.55
788.254	357.03
788.435	393.89
788.616	324.26
788.797	291.49
788.978	346.79
789.159	344.74
789.34	295.59
789.522	295.59
789.703	242.34
789.884	348.84
790.065	299.69
790.246	297.64
790.427	268.97
790.607	404.13
790.788	293.54
790.969	330.41
791.15	311.97
791.331	273.06
791.512	344.74
791.693	303.78
791.874	283.3
792.054	357.03
792.235	428.71
792.416	299.69
792.597	258.73
792.778	281.25
792.958	268.97
793.139	234.15
793.32	250.53
793.5	248.49
793.681	211.62
793.862	238.25
794.042	256.68
794.223	305.83
794.404	246.44
794.584	221.86
794.765	150.18
794.945	230.06
795.126	291.49
795.306	289.45
795.487	238.25
795.667	225.96
795.848	244.39
796.028	271.01
796.209	260.77
796.389	248.49
796.57	242.34
796.75	268.97
796.93	185
797.111	254.63
797.291	230.06
797.471	324.26
797.652	230.06
797.832	240.3
798.012	258.73
798.192	176.81
798.373	223.91
798.553	207.53
798.733	287.4
798.913	166.57
799.093	215.72
799.274	230.06
799.454	193.19
799.634	262.82
799.814	191.14
799.994	176.81
800.174	232.1
800.354	185
800.534	123.56
800.714	225.96
800.894	148.14
801.074	166.57
801.254	117.42
801.434	289.45
801.614	225.96
801.794	191.14
801.974	787.1
802.154	125.61
802.334	185
802.514	164.52
802.693	209.58
802.873	182.95
803.053	225.96
803.233	168.62
803.413	174.76
803.592	262.82
803.772	189.1
803.952	189.1
804.131	107.18
804.311	221.86
804.491	197.29
804.67	197.29
804.85	164.52
805.03	217.77
805.209	182.95
805.389	78.51
805.568	139.94
805.748	88.75
805.928	148.14
806.107	156.33
806.287	176.81
806.466	205.48
806.646	172.71
806.825	160.42
807.004	148.14
807.184	156.33
807.363	275.11
807.543	117.42
807.722	189.1
807.901	158.38
808.081	137.9
808.26	174.76
808.439	144.04
808.619	176.81
808.798	154.28
808.977	148.14
809.156	113.32
809.336	88.75
809.515	150.18
809.694	205.48
809.873	139.94
810.052	182.95
810.231	113.32
810.411	205.48
810.59	117.42
810.769	131.75
810.948	139.94
811.127	101.03
811.306	98.99
811.485	139.94
811.664	78.51
811.843	127.66
812.022	109.23
812.201	164.52
812.38	164.52
812.559	141.99
812.737	58.03
812.916	164.52
813.095	180.9
813.274	103.08
813.453	197.29
813.632	78.51
813.811	172.71
813.989	68.27
814.168	195.24
814.347	68.27
814.526	49.83
814.704	213.67
814.883	68.27
815.062	127.66
815.24	92.84
815.419	92.84
815.598	182.95
815.776	45.74
815.955	158.38
816.133	146.09
816.312	98.99
816.49	115.37
816.669	131.75
816.847	98.99
817.026	55.98
817.204	176.81
817.383	53.93
817.561	49.83
817.74	182.95
817.918	111.27
818.097	94.89
818.275	98.99
818.453	123.56
818.632	98.99
818.81	76.46
818.988	94.89
819.167	68.27
819.345	84.65
819.523	107.18
819.701	154.28
819.879	98.99
820.058	84.65
820.236	105.13
820.414	105.13
820.592	86.7
820.77	94.89
820.948	117.42
821.127	33.45
821.305	158.38
821.483	76.46
821.661	66.22
821.839	101.03
822.017	78.51
822.195	37.55
822.373	101.03
822.551	6.83
822.729	131.75
822.907	49.83
823.085	148.14
823.262	98.99
823.44	68.27
823.618	45.74
823.796	49.83
823.974	29.35
824.152	115.37
824.329	10.92
824.507	115.37
824.685	45.74
824.863	74.41
825.04	74.41
825.218	107.18
825.396	72.36
825.574	103.08
825.751	94.89
825.929	168.62
826.107	68.27
826.284	23.21
826.462	70.31
826.639	19.11
826.817	72.36
826.994	137.9
827.172	37.55
827.349	84.65
827.527	92.84
827.704	76.46
827.882	101.03
828.059	101.03
828.237	27.31
828.414	84.65
828.591	0.68
828.769	131.75
828.946	-13.65
829.124	84.65
829.301	49.83
829.478	2.73
829.655	98.99
829.833	123.56
830.01	103.08
830.187	127.66
830.364	17.07
830.542	144.04
830.719	84.65
830.896	49.83
831.073	111.27
831.25	33.45
831.427	58.03
831.604	29.35
831.782	39.59
831.959	27.31
832.136	25.26
832.313	70.31
832.49	21.16
832.667	53.93
832.844	31.4
833.021	8.87
833.198	47.79
833.374	70.31
833.551	43.69
833.728	10.92
833.905	29.35
834.082	-27.99
834.259	-1.37
834.436	88.75
834.612	33.45
834.789	66.22
834.966	90.79
835.143	60.07
835.319	-21.84
835.496	68.27
835.673	109.23
835.85	58.03
836.026	98.99
836.203	82.6
836.38	0.68
836.556	29.35
836.733	49.83
836.909	68.27
837.086	66.22
837.262	58.03
837.439	66.22
837.616	84.65
837.792	-32.08
837.968	51.88
838.145	19.11
838.321	62.12
838.498	115.37
838.674	21.16
838.851	-19.8
839.027	33.45
839.203	60.07
839.38	33.45
839.556	-7.51
839.732	8.87
839.909	-19.8
840.085	55.98
840.261	-3.41
840.437	74.41
840.614	37.55
840.79	76.46
840.966	-27.99
841.142	25.26
841.318	37.55
841.494	35.5
841.671	41.64
841.847	17.07
842.023	43.69
842.199	23.21
842.375	94.89
842.551	-79.19
842.727	-32.08
842.903	49.83
843.079	-1.37
843.255	90.79
843.431	45.74
843.607	19.11
843.783	-21.84
843.959	84.65
844.134	25.26
844.31	60.07
844.486	-23.89
844.662	0.68
844.838	10.92
845.013	82.6
845.189	82.6
845.365	27.31
845.541	49.83
845.716	25.26
845.892	-30.04
846.068	-7.51
846.244	29.35
846.419	60.07
846.595	-32.08
846.77	58.03
846.946	121.51
847.122	68.27
847.297	43.69
847.473	27.31
847.648	12.97
847.824	68.27
847.999	17.07
848.175	19.11
848.35	84.65
848.526	68.27
848.701	-13.65
848.876	107.18
849.052	49.83
849.227	49.83
849.403	-17.75
849.578	-15.7
849.753	0.68
849.929	10.92
850.104	-7.51
850.279	43.69
850.454	33.45
850.63	88.75
850.805	0.68
850.98	21.16
851.155	58.03
851.33	-32.08
851.505	60.07
851.681	82.6
851.856	-15.7
852.031	55.98
852.206	4.78
852.381	21.16
852.556	33.45
852.731	19.11
852.906	33.45
853.081	0.68
853.256	86.7
853.431	15.02
853.606	70.31
853.781	-23.89
853.956	-23.89
854.131	4.78
854.305	25.26
854.48	-32.08
854.655	-13.65
854.83	0.68
855.005	90.79
855.18	37.55
855.354	12.97
855.529	0.68
855.704	35.5
855.879	-11.61
856.053	45.74
856.228	12.97
856.403	-9.56
856.577	119.46
856.752	25.26
856.926	62.12
857.101	43.69
857.276	0.68
857.45	33.45
857.625	-19.8
857.799	-23.89
857.974	-11.61
858.148	12.97
858.323	47.79
858.497	25.26
858.672	43.69
858.846	-21.84
859.02	58.03
859.195	27.31
859.369	21.16
859.543	-1.37
859.718	-60.76
859.892	-36.18
860.066	51.88
860.241	66.22
860.415	-5.46
860.589	41.64
860.763	35.5
860.938	8.87
861.112	82.6
861.286	8.87
861.46	53.93
861.634	-3.41
861.808	70.31
861.982	66.22
862.157	62.12
862.331	47.79
862.505	2.73
862.679	10.92
862.853	49.83
863.027	-42.32
863.201	49.83
863.375	12.97
863.549	29.35
863.722	-40.28
863.896	45.74
864.07	-62.8
864.244	29.35
864.418	-13.65
864.592	-9.56
864.766	-68.95
864.939	-7.51
865.113	-7.51
865.287	-15.7
865.461	-73.04
865.634	-15.7
865.808	17.07
865.982	-38.23
866.156	-13.65
866.329	-23.89
866.503	43.69
866.676	-32.08
866.85	62.12
867.024	10.92
867.197	6.83
867.371	45.74
867.544	4.78
867.718	25.26
867.891	43.69
868.065	-3.41
868.238	2.73
868.412	27.31
868.585	-48.47
868.759	-23.89
868.932	0.68
869.105	8.87
869.279	0.68
869.452	-23.89
869.625	17.07
869.799	-23.89
869.972	-25.94
870.145	0.68
870.319	37.55
870.492	-56.66
870.665	2.73
870.838	-13.65
871.011	15.02
871.185	-13.65
871.358	-32.08
871.531	82.6
871.704	-3.41
871.877	41.64
872.05	-19.8
872.223	19.11
872.396	8.87
872.569	25.26
872.742	-105.81
872.915	53.93
873.088	0.68
873.261	-19.8
873.434	-21.84
873.607	25.26
873.78	-30.04
873.953	8.87
874.126	-30.04
874.299	37.55
874.471	15.02
874.644	33.45
874.817	109.23
874.99	88.75
875.163	-42.32
875.335	17.07
875.508	-44.37
875.681	41.64
875.853	-15.7
876.026	33.45
876.199	-19.8
876.371	-38.23
876.544	27.31
876.717	74.41
876.889	-89.43
877.062	41.64
877.234	-3.41
877.407	-15.7
877.579	-13.65
877.752	2.73
877.924	58.03
878.097	41.64
878.269	21.16
878.442	-17.75
878.614	-17.75
878.786	25.26
878.959	8.87
879.131	84.65
879.303	-30.04
879.476	-62.8
879.648	-11.61
879.82	66.22
879.993	33.45
880.165	19.11
880.337	-11.61
880.509	15.02
880.681	25.26
880.854	94.89
881.026	12.97
881.198	2.73
881.37	-23.89
881.542	15.02
881.714	-1.37
881.886	-5.46
882.058	47.79
882.23	10.92
882.402	-52.56
882.574	-15.7
882.746	60.07
882.918	66.22
883.09	45.74
883.262	-15.7
883.434	35.5
883.606	-73.04
883.778	0.68
883.95	86.7
884.122	-23.89
884.293	51.88
884.465	-50.52
884.637	49.83
884.809	-7.51
884.98	-44.37
885.152	17.07
885.324	-13.65
885.496	-56.66
885.667	49.83
885.839	17.07
886.011	37.55
886.182	-38.23
886.354	82.6
886.525	-21.84
886.697	45.74
886.869	-38.23
887.04	4.78
887.212	0.68
887.383	31.4
887.555	-21.84
887.726	-48.47
887.897	-7.51
888.069	19.11
888.24	-7.51
888.412	-21.84
888.583	84.65
888.754	47.79
888.926	-3.41
889.097	21.16
889.268	12.97
889.44	35.5
889.611	-66.9
889.782	17.07
889.953	-21.84
890.125	68.27
890.296	4.78
890.467	-40.28
890.638	4.78
890.809	2.73
890.98	12.97
891.151	-23.89
891.323	60.07
891.494	-38.23
891.665	8.87
891.836	62.12
892.007	53.93
892.178	25.26
892.349	-77.14
892.52	17.07
892.691	-48.47
892.862	41.64
893.032	-95.57
893.203	17.07
893.374	2.73
893.545	25.26
893.716	25.26
893.887	74.41
894.057	-11.61
894.228	8.87
894.399	-40.28
894.57	25.26
894.74	-32.08
894.911	-23.89
895.082	8.87
895.253	15.02
895.423	-3.41
895.594	2.73
895.764	17.07
895.935	10.92
896.106	-13.65
896.276	-40.28
896.447	-17.75
896.617	-23.89
896.788	-21.84
896.958	2.73
897.129	-89.43
897.299	-7.51
897.47	60.07
897.64	0.68
897.81	6.83
897.981	23.21
898.151	-17.75
898.322	43.69
898.492	17.07
898.662	-11.61
898.832	0.68
899.003	25.26
899.173	29.35
899.343	-25.94
899.513	33.45
