Data from USB4F104151__59__14-43-13-399.txt Node

Date: Thu Mar 13 14:43:13 EDT 2025
User: louis
Spectrometer: USB4F10415
Trigger mode: 4
Integration Time (sec): 2.000000E-2
Scans to average: 1
Electric dark correction enabled: true
Nonlinearity correction enabled: false
Boxcar width: 0
XAxis mode: Wavelengths
Number of Pixels in Spectrum: 3648
>>>>>Begin Spectral Data<<<<<
178.204	-99.33
178.424	-99.33
178.644	-99.33
178.864	-95.23
179.084	-125.95
179.304	-13.31
179.524	-9.22
179.744	3.07
179.964	78.85
180.184	41.98
180.404	62.46
180.624	-50.18
180.844	-78.85
181.064	-9.22
181.283	23.55
181.503	-76.8
181.723	27.65
181.943	70.65
182.163	-7.17
182.383	1.02
182.602	37.89
182.822	72.7
183.042	21.5
183.262	7.17
183.482	7.17
183.701	35.84
183.921	25.6
184.141	-3.07
184.361	52.22
184.58	76.8
184.8	15.36
185.02	3.07
185.239	21.5
185.459	117.76
185.679	117.76
185.898	35.84
186.118	78.85
186.338	19.46
186.557	70.65
186.777	13.31
186.997	37.89
187.216	-11.26
187.436	162.81
187.655	117.76
187.875	97.28
188.095	-13.31
188.314	-13.31
188.534	58.37
188.753	101.37
188.973	76.8
189.192	-11.26
189.412	72.7
189.631	97.28
189.851	37.89
190.07	29.7
190.29	76.8
190.509	35.84
190.729	35.84
190.948	91.13
191.168	113.66
191.387	60.42
191.607	11.26
191.826	46.08
192.045	37.89
192.265	15.36
192.484	29.7
192.704	-29.7
192.923	1.02
193.142	113.66
193.362	84.99
193.581	125.95
193.8	52.22
194.02	37.89
194.239	37.89
194.458	97.28
194.678	54.27
194.897	-9.22
195.116	29.7
195.335	21.5
195.555	29.7
195.774	-5.12
195.993	23.55
196.212	52.22
196.432	15.36
196.651	54.27
196.87	33.79
197.089	62.46
197.308	52.22
197.528	91.13
197.747	68.61
197.966	78.85
198.185	148.48
198.404	74.75
198.623	101.37
198.842	134.14
199.062	117.76
199.281	48.13
199.5	119.81
199.719	-31.74
199.938	82.94
200.157	97.28
200.376	-29.7
200.595	46.08
200.814	35.84
201.033	54.27
201.252	25.6
201.471	76.8
201.69	52.22
201.909	37.89
202.128	84.99
202.347	19.46
202.566	121.85
202.785	48.13
203.004	13.31
203.223	84.99
203.442	54.27
203.661	109.57
203.879	68.61
204.098	60.42
204.317	19.46
204.536	97.28
204.755	19.46
204.974	60.42
205.193	19.46
205.411	76.8
205.63	80.89
205.849	97.28
206.068	23.55
206.287	37.89
206.505	68.61
206.724	48.13
206.943	-17.41
207.162	-54.27
207.381	11.26
207.599	93.18
207.818	39.94
208.037	74.75
208.255	54.27
208.474	89.09
208.693	70.65
208.911	76.8
209.13	70.65
209.349	109.57
209.567	50.18
209.786	62.46
210.005	37.89
210.223	37.89
210.442	7.17
210.661	27.65
210.879	19.46
211.098	3.07
211.316	31.74
211.535	68.61
211.753	13.31
211.972	95.23
212.191	60.42
212.409	111.61
212.628	-13.31
212.846	29.7
213.065	54.27
213.283	89.09
213.502	-41.98
213.72	-35.84
213.938	72.7
214.157	35.84
214.375	68.61
214.594	-41.98
214.812	62.46
215.031	44.03
215.249	119.81
215.467	52.22
215.686	54.27
215.904	-19.46
216.122	-7.17
216.341	76.8
216.559	109.57
216.778	5.12
216.996	76.8
217.214	103.42
217.432	64.51
217.651	5.12
217.869	60.42
218.087	58.37
218.306	31.74
218.524	76.8
218.742	-35.84
218.96	87.04
219.179	17.41
219.397	56.32
219.615	115.71
219.833	76.8
220.051	70.65
220.27	82.94
220.488	-25.6
220.706	80.89
220.924	76.8
221.142	27.65
221.36	21.5
221.578	105.47
221.796	60.42
222.015	52.22
222.233	21.5
222.451	95.23
222.669	54.27
222.887	19.46
223.105	52.22
223.323	130.05
223.541	56.32
223.759	105.47
223.977	7.17
224.195	136.19
224.413	39.94
224.631	93.18
224.849	29.7
225.067	95.23
225.285	56.32
225.503	52.22
225.721	62.46
225.939	168.96
226.157	15.36
226.375	134.14
226.592	-52.22
226.81	76.8
227.028	91.13
227.246	70.65
227.464	23.55
227.682	99.33
227.9	31.74
228.117	54.27
228.335	-41.98
228.553	-44.03
228.771	60.42
228.989	68.61
229.206	56.32
229.424	46.08
229.642	37.89
229.86	33.79
230.077	-29.7
230.295	31.74
230.513	82.94
230.731	-44.03
230.948	105.47
231.166	152.57
231.384	19.46
231.601	58.37
231.819	84.99
232.037	5.12
232.254	35.84
232.472	68.61
232.689	11.26
232.907	154.62
233.125	60.42
233.342	82.94
233.56	11.26
233.777	-7.17
233.995	62.46
234.213	29.7
234.43	33.79
234.648	-25.6
234.865	-21.5
235.083	144.38
235.3	35.84
235.518	64.51
235.735	60.42
235.953	3.07
236.17	84.99
236.388	19.46
236.605	7.17
236.822	82.94
237.04	23.55
237.257	33.79
237.475	44.03
237.692	158.72
237.909	33.79
238.127	35.84
238.344	35.84
238.562	46.08
238.779	35.84
238.996	27.65
239.214	62.46
239.431	84.99
239.648	19.46
239.865	150.53
240.083	76.8
240.3	84.99
240.517	31.74
240.735	78.85
240.952	125.95
241.169	52.22
241.386	11.26
241.603	166.91
241.821	97.28
242.038	48.13
242.255	78.85
242.472	37.89
242.689	134.14
242.907	39.94
243.124	89.09
243.341	101.37
243.558	3.07
243.775	46.08
243.992	-91.13
244.209	39.94
244.426	121.85
244.643	160.77
244.86	-37.89
245.078	60.42
245.295	76.8
245.512	19.46
245.729	60.42
245.946	44.03
246.163	-31.74
246.38	136.19
246.597	-1.02
246.814	37.89
247.031	-48.13
247.248	56.32
247.464	31.74
247.681	80.89
247.898	-1.02
248.115	76.8
248.332	-33.79
248.549	101.37
248.766	54.27
248.983	29.7
249.2	84.99
249.417	68.61
249.633	84.99
249.85	29.7
250.067	-11.26
250.284	3.07
250.501	7.17
250.717	76.8
250.934	-17.41
251.151	13.31
251.368	62.46
251.585	56.32
251.801	84.99
252.018	19.46
252.235	113.66
252.451	-5.12
252.668	-29.7
252.885	68.61
253.102	37.89
253.318	68.61
253.535	-46.08
253.752	44.03
253.968	41.98
254.185	-11.26
254.401	33.79
254.618	84.99
254.835	76.8
255.051	101.37
255.268	76.8
255.484	154.62
255.701	15.36
255.917	125.95
256.134	80.89
256.351	31.74
256.567	58.37
256.784	46.08
257	-50.18
257.217	68.61
257.433	31.74
257.65	58.37
257.866	76.8
258.082	52.22
258.299	21.5
258.515	54.27
258.732	56.32
258.948	35.84
259.165	72.7
259.381	56.32
259.597	54.27
259.814	11.26
260.03	72.7
260.246	15.36
260.463	48.13
260.679	84.99
260.895	72.7
261.112	52.22
261.328	-21.5
261.544	48.13
261.761	111.61
261.977	27.65
262.193	33.79
262.409	3.07
262.626	-11.26
262.842	66.56
263.058	82.94
263.274	33.79
263.49	74.75
263.707	93.18
263.923	21.5
264.139	-37.89
264.355	-7.17
264.571	105.47
264.787	46.08
265.004	44.03
265.22	64.51
265.436	29.7
265.652	-27.65
265.868	84.99
266.084	15.36
266.3	101.37
266.516	21.5
266.732	-7.17
266.948	82.94
267.164	25.6
267.38	103.42
267.596	78.85
267.812	76.8
268.028	11.26
268.244	-50.18
268.46	121.85
268.676	39.94
268.892	21.5
269.108	7.17
269.324	29.7
269.54	-37.89
269.756	111.61
269.972	70.65
270.188	33.79
270.403	97.28
270.619	35.84
270.835	74.75
271.051	23.55
271.267	72.7
271.483	-11.26
271.698	113.66
271.914	95.23
272.13	80.89
272.346	93.18
272.562	56.32
272.777	70.65
272.993	111.61
273.209	5.12
273.425	44.03
273.64	-5.12
273.856	78.85
274.072	29.7
274.287	21.5
274.503	68.61
274.719	41.98
274.934	93.18
275.15	15.36
275.366	27.65
275.581	74.75
275.797	66.56
276.012	68.61
276.228	17.41
276.444	87.04
276.659	101.37
276.875	11.26
277.09	-19.46
277.306	19.46
277.521	74.75
277.737	35.84
277.952	95.23
278.168	123.9
278.383	52.22
278.599	70.65
278.814	72.7
279.03	9.22
279.245	87.04
279.461	3.07
279.676	93.18
279.892	52.22
280.107	52.22
280.322	29.7
280.538	52.22
280.753	35.84
280.969	74.75
281.184	-62.46
281.399	27.65
281.615	68.61
281.83	52.22
282.045	82.94
282.26	15.36
282.476	56.32
282.691	97.28
282.906	15.36
283.122	72.7
283.337	44.03
283.552	5.12
283.767	84.99
283.983	66.56
284.198	58.37
284.413	84.99
284.628	-1.02
284.843	93.18
285.058	5.12
285.274	46.08
285.489	19.46
285.704	50.18
285.919	37.89
286.134	60.42
286.349	97.28
286.564	50.18
286.779	109.57
286.995	5.12
287.21	66.56
287.425	60.42
287.64	21.5
287.855	-13.31
288.07	46.08
288.285	54.27
288.5	142.33
288.715	80.89
288.93	84.99
289.145	-5.12
289.36	84.99
289.575	82.94
289.79	7.17
290.004	46.08
290.219	50.18
290.434	5.12
290.649	87.04
290.864	17.41
291.079	37.89
291.294	93.18
291.509	89.09
291.724	52.22
291.938	48.13
292.153	109.57
292.368	64.51
292.583	13.31
292.798	66.56
293.012	52.22
293.227	68.61
293.442	50.18
293.657	84.99
293.871	21.5
294.086	130.05
294.301	97.28
294.516	103.42
294.73	60.42
294.945	15.36
295.16	27.65
295.374	76.8
295.589	84.99
295.804	97.28
296.018	37.89
296.233	52.22
296.447	44.03
296.662	44.03
296.877	29.7
297.091	76.8
297.306	27.65
297.52	50.18
297.735	60.42
297.949	87.04
298.164	56.32
298.378	44.03
298.593	-60.42
298.807	-39.94
299.022	17.41
299.236	115.71
299.451	58.37
299.665	56.32
299.88	70.65
300.094	37.89
300.309	87.04
300.523	7.17
300.737	39.94
300.952	60.42
301.166	78.85
301.381	97.28
301.595	87.04
301.809	56.32
302.024	60.42
302.238	44.03
302.452	89.09
302.667	60.42
302.881	5.12
303.095	84.99
303.309	23.55
303.524	76.8
303.738	64.51
303.952	39.94
304.166	87.04
304.381	23.55
304.595	101.37
304.809	35.84
305.023	130.05
305.237	-1.02
305.452	-9.22
305.666	44.03
305.88	76.8
306.094	99.33
306.308	78.85
306.522	41.98
306.736	87.04
306.95	56.32
307.164	52.22
307.379	33.79
307.593	76.8
307.807	158.72
308.021	52.22
308.235	68.61
308.449	17.41
308.663	80.89
308.877	93.18
309.091	74.75
309.305	109.57
309.519	-33.79
309.733	97.28
309.947	41.98
310.161	37.89
310.374	80.89
310.588	121.85
310.802	64.51
311.016	72.7
311.23	21.5
311.444	-3.07
311.658	54.27
311.872	72.7
312.085	-13.31
312.299	80.89
312.513	95.23
312.727	44.03
312.941	5.12
313.154	84.99
313.368	48.13
313.582	29.7
313.796	35.84
314.009	35.84
314.223	44.03
314.437	95.23
314.651	68.61
314.864	64.51
315.078	21.5
315.292	76.8
315.505	52.22
315.719	44.03
315.933	154.62
316.146	-5.12
316.36	-50.18
316.573	78.85
316.787	78.85
317.001	74.75
317.214	15.36
317.428	97.28
317.641	64.51
317.855	68.61
318.068	7.17
318.282	11.26
318.495	52.22
318.709	56.32
318.922	150.53
319.136	68.61
319.349	66.56
319.563	-46.08
319.776	25.6
319.99	48.13
320.203	46.08
320.417	97.28
320.63	44.03
320.843	74.75
321.057	39.94
321.27	52.22
321.483	17.41
321.697	136.19
321.91	62.46
322.124	115.71
322.337	60.42
322.55	78.85
322.763	11.26
322.977	33.79
323.19	7.17
323.403	68.61
323.617	19.46
323.83	3.07
324.043	23.55
324.256	134.14
324.469	19.46
324.683	121.85
324.896	93.18
325.109	35.84
325.322	21.5
325.535	89.09
325.748	29.7
325.962	27.65
326.175	3.07
326.388	60.42
326.601	82.94
326.814	44.03
327.027	35.84
327.24	89.09
327.453	5.12
327.666	70.65
327.879	109.57
328.092	87.04
328.305	31.74
328.518	31.74
328.731	76.8
328.944	-17.41
329.157	78.85
329.37	37.89
329.583	109.57
329.796	109.57
330.009	5.12
330.222	-29.7
330.435	107.52
330.648	56.32
330.861	29.7
331.073	62.46
331.286	111.61
331.499	39.94
331.712	78.85
331.925	-13.31
332.138	44.03
332.35	66.56
332.563	27.65
332.776	23.55
332.989	48.13
333.202	103.42
333.414	78.85
333.627	31.74
333.84	60.42
334.053	60.42
334.265	3.07
334.478	62.46
334.691	134.14
334.903	52.22
335.116	76.8
335.329	82.94
335.541	99.33
335.754	130.05
335.966	91.13
336.179	72.7
336.392	93.18
336.604	31.74
336.817	3.07
337.029	54.27
337.242	87.04
337.454	136.19
337.667	35.84
337.88	101.37
338.092	52.22
338.305	105.47
338.517	50.18
338.729	13.31
338.942	82.94
339.154	-5.12
339.367	97.28
339.579	60.42
339.792	19.46
340.004	60.42
340.217	56.32
340.429	15.36
340.641	103.42
340.854	33.79
341.066	19.46
341.278	113.66
341.491	109.57
341.703	-21.5
341.915	29.7
342.128	54.27
342.34	25.6
342.552	68.61
342.764	46.08
342.977	35.84
343.189	21.5
343.401	-5.12
343.613	52.22
343.826	21.5
344.038	29.7
344.25	52.22
344.462	19.46
344.674	82.94
344.886	-13.31
345.099	93.18
345.311	52.22
345.523	48.13
345.735	-17.41
345.947	35.84
346.159	-68.61
346.371	68.61
346.583	109.57
346.795	99.33
347.007	119.81
347.219	134.14
347.431	-7.17
347.643	119.81
347.855	-56.32
348.067	134.14
348.279	-7.17
348.491	60.42
348.703	19.46
348.915	35.84
349.127	48.13
349.339	44.03
349.551	64.51
349.763	46.08
349.975	-9.22
350.187	64.51
350.399	84.99
350.61	99.33
350.822	76.8
351.034	84.99
351.246	103.42
351.458	37.89
351.669	62.46
351.881	117.76
352.093	119.81
352.305	60.42
352.517	44.03
352.728	95.23
352.94	95.23
353.152	52.22
353.363	25.6
353.575	162.81
353.787	101.37
353.999	101.37
354.21	123.9
354.422	46.08
354.633	72.7
354.845	62.46
355.057	23.55
355.268	52.22
355.48	84.99
355.692	27.65
355.903	52.22
356.115	121.85
356.326	52.22
356.538	48.13
356.749	125.95
356.961	109.57
357.172	62.46
357.384	25.6
357.595	115.71
357.807	9.22
358.018	107.52
358.23	44.03
358.441	95.23
358.653	46.08
358.864	27.65
359.075	44.03
359.287	128
359.498	179.2
359.709	31.74
359.921	44.03
360.132	46.08
360.344	-13.31
360.555	25.6
360.766	21.5
360.977	76.8
361.189	134.14
361.4	27.65
361.611	89.09
361.823	84.99
362.034	39.94
362.245	-9.22
362.456	66.56
362.667	80.89
362.879	33.79
363.09	109.57
363.301	41.98
363.512	35.84
363.723	15.36
363.935	25.6
364.146	60.42
364.357	46.08
364.568	72.7
364.779	-3.07
364.99	54.27
365.201	101.37
365.412	31.74
365.623	72.7
365.834	89.09
366.045	74.75
366.256	123.9
366.467	37.89
366.678	80.89
366.889	19.46
367.1	62.46
367.311	132.09
367.522	89.09
367.733	46.08
367.944	103.42
368.155	52.22
368.366	103.42
368.577	76.8
368.788	93.18
368.999	56.32
369.209	60.42
369.42	142.33
369.631	87.04
369.842	76.8
370.053	-60.42
370.264	134.14
370.474	54.27
370.685	48.13
370.896	54.27
371.107	76.8
371.317	101.37
371.528	11.26
371.739	87.04
371.95	68.61
372.16	89.09
372.371	95.23
372.582	50.18
372.792	179.2
373.003	150.53
373.214	93.18
373.424	72.7
373.635	60.42
373.846	-5.12
374.056	-9.22
374.267	93.18
374.477	101.37
374.688	17.41
374.898	27.65
375.109	68.61
375.319	44.03
375.53	60.42
375.74	138.24
375.951	58.37
376.161	35.84
376.372	138.24
376.582	-1.02
376.793	76.8
377.003	27.65
377.214	125.95
377.424	64.51
377.635	76.8
377.845	68.61
378.055	56.32
378.266	48.13
378.476	113.66
378.686	91.13
378.897	74.75
379.107	82.94
379.317	119.81
379.528	111.61
379.738	19.46
379.948	19.46
380.158	68.61
380.369	54.27
380.579	80.89
380.789	1.02
380.999	84.99
381.21	97.28
381.42	158.72
381.63	52.22
381.84	76.8
382.05	84.99
382.261	48.13
382.471	56.32
382.681	33.79
382.891	64.51
383.101	-19.46
383.311	93.18
383.521	158.72
383.731	109.57
383.941	80.89
384.151	70.65
384.361	109.57
384.571	5.12
384.781	72.7
384.991	76.8
385.201	95.23
385.411	93.18
385.621	89.09
385.831	70.65
386.041	101.37
386.251	5.12
386.461	93.18
386.671	60.42
386.881	25.6
387.091	11.26
387.301	123.9
387.511	48.13
387.72	60.42
387.93	89.09
388.14	15.36
388.35	68.61
388.56	76.8
388.769	84.99
388.979	89.09
389.189	46.08
389.399	46.08
389.609	123.9
389.818	142.33
390.028	62.46
390.238	113.66
390.447	31.74
390.657	89.09
390.867	56.32
391.076	48.13
391.286	54.27
391.496	70.65
391.705	35.84
391.915	87.04
392.125	107.52
392.334	97.28
392.544	134.14
392.753	44.03
392.963	93.18
393.172	111.61
393.382	54.27
393.591	158.72
393.801	13.31
394.01	128
394.22	70.65
394.429	46.08
394.639	64.51
394.848	27.65
395.058	52.22
395.267	111.61
395.477	66.56
395.686	95.23
395.895	144.38
396.105	148.48
396.314	31.74
396.524	68.61
396.733	68.61
396.942	89.09
397.152	160.77
397.361	101.37
397.57	76.8
397.78	125.95
397.989	87.04
398.198	142.33
398.407	103.42
398.617	97.28
398.826	105.47
399.035	76.8
399.244	117.76
399.453	175.1
399.663	181.25
399.872	134.14
400.081	93.18
400.29	171.01
400.499	64.51
400.708	93.18
400.917	121.85
401.127	160.77
401.336	80.89
401.545	140.29
401.754	93.18
401.963	117.76
402.172	109.57
402.381	103.42
402.59	105.47
402.799	152.57
403.008	105.47
403.217	152.57
403.426	158.72
403.635	128
403.844	152.57
404.053	119.81
404.262	70.65
404.471	232.44
404.68	150.53
404.888	160.77
405.097	125.95
405.306	99.33
405.515	158.72
405.724	207.87
405.933	148.48
406.142	132.09
406.35	93.18
406.559	142.33
406.768	183.29
406.977	181.25
407.185	207.87
407.394	289.79
407.603	154.62
407.812	224.25
408.02	275.45
408.229	193.53
408.438	230.4
408.646	173.05
408.855	324.6
409.064	252.92
409.272	216.06
409.481	248.83
409.69	291.84
409.898	179.2
410.107	228.35
410.315	275.45
410.524	291.84
410.733	293.88
410.941	324.6
411.15	254.97
411.358	322.56
411.567	361.47
411.775	343.03
411.984	398.33
412.192	361.47
412.401	414.71
412.609	455.67
412.818	394.23
413.026	357.37
413.234	371.71
413.443	388.09
413.651	457.72
413.86	523.26
414.068	625.65
414.276	543.74
414.485	424.95
414.693	519.16
414.901	617.46
415.11	574.46
415.318	676.85
415.526	609.27
415.734	664.57
415.943	617.46
416.151	676.85
416.359	670.71
416.567	771.06
416.776	738.29
416.984	816.12
417.192	744.44
417.4	861.17
417.608	830.45
417.817	846.84
418.025	838.64
418.233	992.24
418.441	879.6
418.649	961.52
418.857	1162.22
419.065	1010.67
419.273	986.1
419.481	1076.21
419.689	1174.51
419.897	1256.43
420.105	1250.28
420.313	1387.5
420.521	1356.78
420.729	1399.79
420.937	1399.79
421.145	1373.16
421.353	1498.09
421.561	1604.58
421.769	1661.93
421.977	1639.4
422.185	1706.98
422.393	1741.8
422.601	1807.33
422.809	1823.72
423.017	1987.55
423.224	1989.6
423.432	2122.72
423.64	2110.43
423.848	2255.84
424.056	2124.77
424.263	2282.46
424.471	2364.38
424.679	2411.48
424.887	2444.25
425.094	2546.65
425.302	2618.33
425.51	2663.38
425.718	2763.73
425.925	2708.44
426.133	2909.14
426.341	3054.55
426.548	3068.88
426.756	3165.14
426.964	3107.79
427.171	3488.71
427.379	3517.39
427.586	3576.78
427.794	3648.46
428.001	3820.49
428.209	4017.09
428.417	3924.93
428.624	4180.93
428.832	4228.03
429.039	4213.7
429.247	4144.06
429.454	4481.98
429.662	4871.09
429.869	4582.33
430.076	4924.34
430.284	4795.32
430.491	4991.92
430.699	5262.26
430.906	5249.97
431.114	5159.86
431.321	5467.05
431.528	5573.55
431.736	5970.85
431.943	6175.65
432.15	6052.77
432.358	6050.72
432.565	6394.78
432.772	6409.12
432.979	6761.37
433.187	6712.22
433.394	6951.83
433.601	7332.75
433.808	7265.17
434.016	7334.8
434.223	7764.87
434.43	8080.26
434.637	7877.51
434.844	8358.78
435.052	8545.15
435.259	8559.49
435.466	8551.29
435.673	8520.57
435.88	9173.88
436.087	9681.77
436.294	9503.6
436.501	9370.48
436.708	9562.99
436.915	9710.44
437.122	10271.59
437.329	10310.5
437.537	10681.18
437.743	10537.82
437.95	10584.93
438.157	11168.6
438.364	11453.27
438.571	11440.98
438.778	11361.11
438.985	12602.18
439.192	12079.94
439.399	12587.84
439.606	12106.57
439.813	13202.23
440.02	13691.7
440.227	13540.15
440.433	13042.49
440.64	13826.86
440.847	13570.86
441.054	14148.39
441.261	14863.13
441.467	14916.38
441.674	15041.31
441.881	15592.21
442.088	15473.43
442.294	15469.33
442.501	15809.29
442.708	16165.64
442.914	16728.83
443.121	17535.73
443.328	16849.66
443.534	18049.77
443.741	17541.88
443.948	17345.27
444.154	18639.59
444.361	18574.05
444.568	18866.91
444.774	18531.05
444.981	18920.16
445.187	19448.54
445.394	20101.84
445.6	20351.69
445.807	21951.15
446.013	21070.53
446.22	21400.25
446.426	22241.96
446.633	22538.92
446.839	23093.92
447.046	22186.67
447.252	23650.97
447.459	23657.11
447.665	23325.34
447.871	24607.37
448.078	25619.07
448.284	24081.04
448.491	25354.88
448.697	26161.78
448.903	26253.94
449.11	26731.11
449.316	26233.46
449.522	26524.27
449.728	27216.48
449.935	27812.44
450.141	27329.12
450.347	28121.68
450.553	27265.63
450.76	27615.83
450.966	28736.07
451.172	28351.06
451.378	28916.29
451.584	28492.37
451.791	28998.21
451.997	29121.09
452.203	29518.4
452.409	29569.6
452.615	29547.07
452.821	28365.39
453.027	28205.65
453.233	29440.57
453.44	28676.68
453.646	28584.52
453.852	29002.31
454.058	29393.47
454.264	28295.76
454.47	29547.07
454.676	28291.66
454.882	29317.7
455.088	26872.42
455.294	27415.13
455.5	27933.27
455.705	28103.25
455.911	26800.74
456.117	26247.79
456.323	26126.96
456.529	24556.17
456.735	25985.65
456.941	25301.63
457.147	24879.75
457.352	24074.9
457.558	23808.66
457.764	24324.75
457.97	23591.58
458.176	23263.9
458.381	23024.29
458.587	21846.71
458.793	21641.91
458.999	20648.64
459.204	22141.61
459.41	21629.62
459.616	20095.69
459.821	20333.26
460.027	20226.76
460.233	19755.73
460.438	18707.17
460.644	19163.87
460.85	18481.89
461.055	17619.7
461.261	17926.89
461.466	16487.17
461.672	15858.45
461.878	17150.71
462.083	16083.72
462.289	15829.77
462.494	15530.77
462.7	14644
462.905	14398.24
463.111	14920.48
463.316	14947.1
463.522	14723.87
463.727	14871.33
463.932	14848.8
464.138	14412.58
464.343	14402.34
464.549	14166.82
464.754	14555.94
464.959	14392.1
465.165	14379.81
465.37	13753.13
465.575	13396.79
465.781	13577.01
465.986	13962.03
466.191	13454.13
466.397	13314.87
466.602	12385.09
466.807	13083.45
467.012	13097.78
467.218	12995.39
467.423	12966.71
467.628	13073.21
467.833	13261.62
468.038	13128.5
468.244	12630.85
468.449	13036.35
468.654	12784.44
468.859	12587.84
469.064	12456.77
469.269	11930.44
469.474	12120.9
469.679	12467.01
469.885	11817.8
470.09	12268.36
470.295	12026.7
470.5	11965.26
470.705	11893.58
470.91	11662.16
471.115	11586.38
471.32	11778.89
471.525	11594.58
471.73	11090.77
471.935	11184.98
472.139	10947.42
472.344	11008.86
472.549	11078.49
472.754	11021.14
472.959	10603.36
473.164	10267.49
473.369	10453.86
473.574	10648.41
473.778	10769.24
473.983	10505.06
474.188	10345.31
474.393	10019.69
474.598	9976.68
474.802	10072.93
475.007	9911.14
475.212	9972.58
475.417	9489.26
475.621	9499.5
475.826	9548.65
476.031	9390.96
476.235	9302.9
476.44	9157.49
476.645	9397.1
476.849	9204.6
477.054	8915.83
477.259	8809.34
477.463	8790.91
477.668	8727.42
477.872	8676.22
478.077	8467.33
478.282	8346.5
478.486	8436.61
478.691	8272.77
478.895	8254.34
479.1	8264.58
479.304	8330.11
479.509	7943.05
479.713	8108.93
479.918	7973.77
480.122	7732.11
480.326	7932.81
480.531	7998.34
480.735	7934.85
480.94	7846.79
481.144	8063.88
481.348	7695.24
481.553	7846.79
481.757	7633.8
481.961	7650.19
482.166	7707.53
482.37	7658.38
482.574	7465.87
482.778	7594.89
482.983	7668.62
483.187	7740.3
483.391	7586.7
483.595	7703.43
483.8	7402.38
484.004	7637.9
484.208	7719.82
484.412	7484.3
484.616	7662.48
484.821	7685
485.025	7490.45
485.229	7580.56
485.433	7656.33
485.637	7615.37
485.841	7342.99
486.045	7424.91
486.249	7666.57
486.453	7549.84
486.657	7535.5
486.861	7627.66
487.065	7461.77
487.269	7685
487.473	7551.88
487.677	7609.23
487.881	7598.99
488.085	7347.09
488.289	7728.01
488.493	7541.64
488.697	7685
488.901	7515.02
489.105	7506.83
489.309	7635.85
489.512	7920.52
489.716	7754.63
489.92	7682.95
490.124	7580.56
490.328	7957.38
490.531	7809.93
490.735	7744.39
490.939	7760.78
491.143	7777.16
491.346	7848.84
491.55	8086.4
491.754	7771.02
491.958	7893.9
492.161	8055.69
492.365	8217.47
492.569	8088.45
492.772	7973.77
492.976	8049.54
493.18	8156.04
493.383	8174.47
493.587	8106.88
493.79	8426.37
493.994	8213.38
494.197	8360.83
494.401	8526.72
494.605	8457.09
494.808	8672.12
495.012	8360.83
495.215	8610.68
495.419	8641.4
495.622	8504.19
495.825	8698.75
496.029	8913.78
496.232	8952.7
496.436	8967.03
496.639	9098.1
496.843	9175.92
497.046	9272.18
497.249	9268.08
497.453	9421.68
497.656	9526.13
497.859	9540.46
498.063	9659.24
498.266	9759.6
498.469	9583.47
498.673	10015.59
498.876	10066.79
499.079	10062.69
499.282	10062.69
499.485	10298.21
499.689	10218.34
499.892	10472.29
500.095	10668.89
500.298	10967.9
500.501	10761.05
500.705	10894.17
500.908	11053.91
501.111	11137.88
501.314	11420.5
501.517	11457.36
501.72	11643.73
501.923	11737.93
502.126	11889.48
502.329	12030.79
502.532	12081.99
502.735	12178.25
502.938	12448.58
503.141	12415.81
503.344	12608.32
503.547	12723.01
503.75	13183.8
503.953	12950.33
504.156	13036.35
504.359	13067.06
504.562	13292.34
504.765	13630.26
504.968	13732.65
505.17	13833
505.373	13830.96
505.576	14064.43
505.779	14187.3
505.982	14412.58
506.185	14592.8
506.387	14529.31
506.59	14744.35
506.793	14957.34
506.996	15158.04
507.198	15266.58
507.401	15282.97
507.604	15768.34
507.807	16018.19
508.009	16069.39
508.212	16120.59
508.415	16354.05
508.617	16595.71
508.82	16458.5
509.022	16460.55
509.225	16724.74
509.428	17066.75
509.63	17478.39
509.833	17263.35
510.035	17783.54
510.238	17713.91
510.44	17763.06
510.643	18240.23
510.845	18199.27
511.048	18193.13
511.25	18567.91
511.453	18576.1
511.655	19503.83
511.858	19380.95
512.06	19151.58
512.262	19514.07
512.465	19557.08
512.667	19835.6
512.87	19993.29
513.072	20222.67
513.274	20327.11
513.477	20550.34
513.679	20849.35
513.881	21011.14
514.084	21197.5
514.286	21310.14
514.488	21392.06
514.69	21891.76
514.893	21713.59
515.095	22248.11
515.297	22534.82
515.499	22385.32
515.701	22809.25
515.904	22997.67
516.106	23249.57
516.308	23397.02
516.51	23431.83
516.712	23622.3
516.914	23911.06
517.116	24300.17
517.318	23947.92
517.52	24400.52
517.722	24416.91
517.925	25315.97
518.127	24959.62
518.329	25318.01
518.531	25293.44
518.733	25688.7
518.935	26049.14
519.136	26180.21
519.338	26643.05
519.54	26559.08
519.742	26909.29
519.944	26858.09
520.146	27390.56
520.348	27318.88
520.55	27468.38
520.752	27257.44
520.954	28045.91
521.155	27990.61
521.357	28396.11
521.559	28578.38
521.761	29057.6
521.963	28856.9
522.164	28936.77
522.366	29307.46
522.568	29655.61
522.77	29991.48
522.971	29919.8
523.173	29866.55
523.375	30147.12
523.576	30245.43
523.778	30646.83
523.98	30603.82
524.181	30720.56
524.383	30751.27
524.584	31310.37
524.786	31402.53
524.988	31154.72
525.189	31558.17
525.391	31885.85
525.592	31926.81
525.794	32246.29
525.995	32117.27
526.197	32211.48
526.398	32877.07
526.6	32625.17
526.801	32811.53
527.003	33024.52
527.204	32842.25
527.406	33128.97
527.607	33059.34
527.808	33659.39
528.01	32899.59
528.211	33354.24
528.412	33868.28
528.614	34120.18
528.815	33665.53
529.016	34066.94
529.218	33978.87
529.419	33681.92
529.62	33724.93
529.822	34161.14
530.023	33962.49
530.224	34357.75
530.425	34198.01
530.626	34052.6
530.828	33915.39
531.029	34857.45
531.23	34419.19
531.431	34314.74
531.632	34890.22
531.833	34738.67
532.035	34791.92
532.236	34666.99
532.437	35189.22
532.638	34730.48
532.839	34998.76
533.04	34742.77
533.241	34525.68
533.442	35623.39
533.643	34730.48
533.844	34753.01
534.045	35052.01
534.246	35019.24
534.447	35367.4
534.648	35111.4
534.849	35027.43
535.05	34873.84
535.251	35017.19
535.451	34775.53
535.652	35209.7
535.853	35262.95
536.054	35097.06
536.255	35164.65
536.456	34888.17
536.657	35486.18
536.857	35172.84
537.058	35111.4
537.259	35766.75
537.46	35340.77
537.66	34906.6
537.861	35025.39
538.062	34965.99
538.263	35092.97
538.463	35000.81
538.664	34916.84
538.865	35009
539.065	35074.54
539.266	34947.56
539.466	35267.05
539.667	34607.6
539.868	35391.97
540.068	35287.53
540.269	35086.82
540.469	35150.31
540.67	34804.2
540.87	35072.49
541.071	34623.98
541.271	34818.54
541.472	34994.67
541.672	34912.75
541.873	34615.79
542.073	34546.16
542.274	34939.37
542.474	34710
542.675	34339.32
542.875	35383.78
543.075	34873.84
543.276	34755.05
543.476	35273.19
543.676	34458.1
543.877	34927.08
544.077	34826.73
544.277	34955.75
544.478	34603.5
544.678	34914.8
544.878	34638.32
545.078	34259.45
545.279	34601.46
545.479	34701.81
545.679	35029.48
545.879	35183.08
546.079	34685.42
546.28	34886.12
546.48	34423.28
546.68	34607.6
546.88	35027.43
547.08	34710
547.28	34462.19
547.48	34531.83
547.68	34613.74
547.88	34585.07
548.081	34642.42
548.281	34595.31
548.481	34564.59
548.681	34855.4
548.881	34552.3
549.081	34589.17
549.28	34320.88
549.48	34798.06
549.68	34492.91
549.88	34963.95
550.08	34345.46
550.28	34515.44
550.48	34304.5
550.68	34943.47
550.88	34433.52
551.08	34666.99
551.279	34769.39
551.479	34443.76
551.679	34779.63
551.879	34206.2
552.079	34386.42
552.278	34568.69
552.478	34617.84
552.678	34355.7
552.878	34509.3
553.077	34374.13
553.277	34210.29
553.477	34615.79
553.676	34284.02
553.876	34454
554.076	34107.9
554.275	34298.36
554.475	33804.8
554.674	34300.4
554.874	34073.08
555.074	33683.97
555.273	34353.65
555.473	34464.24
555.672	33909.24
555.872	34179.57
556.071	34206.2
556.271	34130.42
556.47	33796.6
556.67	33585.66
556.869	33931.77
557.068	34048.5
557.268	33526.27
557.467	33790.46
557.667	33915.39
557.866	33745.41
558.065	33686.01
558.265	33212.93
558.464	33606.14
558.663	33810.94
558.863	33186.31
559.062	33915.39
559.261	33403.39
559.461	33817.08
559.66	33038.86
559.859	33317.38
560.058	32950.79
560.258	33190.41
560.457	32858.63
560.656	33055.24
560.855	32811.53
561.054	33024.52
561.253	32756.24
561.453	32858.63
561.652	33174.02
561.851	32883.21
562.05	32784.91
562.249	32059.93
562.448	32895.5
562.647	32690.7
562.846	32680.46
563.045	32750.09
563.244	32104.98
563.443	32512.53
563.642	31885.85
563.841	32248.34
564.04	32172.57
564.239	32424.47
564.438	31859.23
564.637	32191
564.836	32191
565.035	31799.83
565.234	32250.39
565.432	31754.78
565.631	31699.48
565.83	31836.7
566.029	31453.73
566.228	31562.27
566.427	31820.31
566.625	31396.38
566.824	31371.81
567.023	31515.17
567.222	31138.34
567.42	31189.54
567.619	31304.23
567.818	31345.19
568.016	30679.6
568.215	31336.99
568.414	30853.67
568.612	30847.53
568.811	30749.23
569.01	30917.16
569.208	30425.65
569.407	30775.85
569.605	30474.8
569.804	30761.51
570.002	29927.99
570.201	30366.26
570.4	30321.2
570.598	30042.68
570.797	29971
570.995	30036.53
571.193	29841.98
571.392	30001.72
571.59	29891.13
571.789	29837.88
571.987	29620.8
572.186	29585.98
572.384	29375.04
572.582	29848.12
572.781	29477.44
572.979	29172.29
573.177	29217.35
573.376	29438.53
573.574	29086.28
573.772	29282.88
573.971	28865.1
574.169	28867.14
574.367	28961.35
574.565	28770.89
574.763	28963.4
574.962	28813.9
575.16	28641.87
575.358	28494.41
575.556	28123.73
575.754	28709.45
575.952	27961.94
576.151	28244.56
576.349	27861.59
576.547	28074.58
576.745	28242.51
576.943	28226.13
577.141	27761.24
577.339	28322.38
577.537	27626.07
577.735	27773.53
577.933	27544.16
578.131	27703.9
578.329	27744.86
578.527	27347.55
578.725	27427.42
578.923	27392.61
579.121	27155.04
579.319	27034.21
579.516	27384.41
579.714	26632.81
579.912	27122.27
580.11	26897
580.308	27126.37
580.506	27034.21
580.704	26280.56
580.901	26520.17
581.099	26534.51
581.297	26180.21
581.495	26641
581.692	26479.21
581.89	26124.91
582.088	26266.22
582.285	26180.21
582.483	26436.2
582.681	26006.13
582.878	26090.1
583.076	25819.77
583.274	25827.96
583.471	25596.54
583.669	25854.58
583.866	25395.84
584.064	25647.74
584.262	25275.01
584.459	25698.94
584.657	25221.76
584.854	25741.94
585.052	24844.93
585.249	25172.61
585.447	25369.21
585.644	24988.29
585.841	24838.79
586.039	24914.56
586.236	24752.77
586.434	24666.76
586.631	24677
586.828	24715.91
587.026	24642.18
587.223	24652.42
587.42	24320.65
587.618	24306.32
587.815	24136.34
588.012	24402.57
588.21	23859.86
588.407	24234.64
588.604	23710.36
588.801	23587.48
588.999	23751.32
589.196	23519.9
589.393	23945.87
589.59	23872.15
589.787	23728.79
589.984	23329.44
590.182	23474.84
590.379	23491.23
590.576	23278.24
590.773	23214.75
590.97	23169.69
591.167	23126.69
591.364	22921.89
591.561	22827.68
591.758	22891.17
591.955	22913.7
592.152	22977.19
592.349	22549.16
592.546	22512.3
592.743	22690.47
592.94	22340.27
593.137	22475.43
593.334	22549.16
593.531	22231.72
593.727	22278.83
593.924	22422.19
594.121	21985.97
594.318	22383.27
594.515	22047.41
594.712	22160.05
594.908	22014.64
595.105	21664.44
595.302	21637.81
595.499	21576.37
595.696	21490.36
595.892	21465.78
596.089	21547.7
596.286	21736.12
596.482	21134.01
596.679	21400.25
596.876	21359.29
597.072	21091.01
597.269	21291.71
597.466	20818.63
597.662	21076.67
597.859	21015.23
598.055	21123.77
598.252	20615.88
598.448	20918.98
598.645	20597.45
598.841	20513.48
599.038	20822.72
599.234	20556.49
599.431	20458.18
599.627	20200.14
599.824	20361.93
600.02	20161.23
600.217	20503.24
600.413	20118.22
600.609	20107.98
600.806	19964.62
601.002	20021.97
601.198	19731.15
601.395	19884.75
601.591	19663.57
601.787	19720.92
601.984	19729.11
602.18	19639
602.376	19530.45
602.572	19526.36
602.769	19516.12
602.965	19215.07
603.161	19202.78
603.357	19108.57
603.553	19092.19
603.75	19127
603.946	18813.66
604.142	18885.34
604.338	18766.56
604.534	19016.41
604.73	18703.07
604.926	18539.24
605.122	18789.09
605.318	18477.8
605.514	18518.76
605.71	18445.03
605.906	18655.97
606.102	18453.22
606.298	18668.26
606.494	18488.04
606.69	18399.98
606.886	18475.75
607.082	18197.23
607.278	18213.61
607.474	18037.48
607.67	18500.33
607.866	17906.41
608.062	18416.36
608.257	17881.84
608.453	17804.02
608.649	18123.5
608.845	17662.71
609.041	17715.95
609.236	17664.75
609.432	17930.99
609.628	17718
609.824	17384.18
610.019	17609.46
610.215	17724.15
610.411	17519.35
610.606	17593.08
610.802	17586.93
610.998	17361.66
611.193	17474.29
611.389	16956.16
611.584	17091.32
611.78	17165.05
611.976	17216.25
612.171	17373.94
612.367	17087.23
612.562	17056.51
612.758	16947.97
612.953	16972.54
613.149	17036.03
613.344	16814.85
613.539	17255.16
613.735	16825.09
613.93	16982.78
614.126	16702.21
614.321	16907.01
614.517	16925.44
614.712	16769.79
614.907	16651.01
615.103	16890.62
615.298	16765.7
615.493	16679.68
615.688	16446.21
615.884	16681.73
616.079	16583.43
616.274	16370.44
616.47	16556.8
616.665	16575.24
616.86	16341.77
617.055	16272.14
617.25	16292.62
617.445	16364.29
617.641	16247.56
617.836	16284.42
618.031	16061.19
618.226	16272.14
618.421	16012.04
618.616	16442.12
618.811	15973.13
619.006	16120.59
619.201	15682.32
619.396	15797.01
619.591	15477.52
619.786	15731.47
619.981	15422.23
620.176	15471.38
620.371	15313.69
620.566	15399.7
620.761	15387.41
620.956	15461.14
621.151	15018.78
621.346	15305.49
621.541	14803.74
621.735	15184.66
621.93	14832.41
622.125	14965.53
622.32	14465.83
622.515	14656.29
622.709	14560.03
622.904	14709.54
623.099	14476.07
623.294	14488.35
623.488	14228.26
623.683	14312.23
623.878	14164.78
624.072	14060.33
624.267	14299.94
624.462	13867.82
624.656	13859.63
624.851	13589.3
625.046	13560.63
625.24	13761.33
625.435	13652.78
625.629	13282.1
625.824	13519.67
626.018	13196.09
626.213	13278.01
626.407	13306.68
626.602	13187.89
626.796	13032.25
626.991	13187.89
627.185	13026.11
627.38	12946.23
627.574	12819.26
627.768	12796.73
627.963	12733.25
628.157	12479.3
628.352	12698.43
628.546	12360.52
628.74	12397.38
628.935	12409.67
629.129	12542.78
629.323	12127.05
629.517	12098.38
629.712	11979.59
629.906	11998.02
630.1	12024.65
630.294	12049.22
630.489	11756.36
630.683	11750.22
630.877	11621.2
631.071	11631.44
631.265	11613.01
631.459	11385.68
631.653	11268.95
631.848	11352.91
632.042	11340.63
632.236	11389.78
632.43	11309.91
632.624	11203.41
632.818	11199.32
633.012	10980.18
633.206	11029.34
633.4	11021.14
633.594	10685.28
633.788	10529.63
633.982	11031.38
634.176	10709.85
634.369	10599.26
634.563	10582.88
634.757	10572.64
634.951	10689.37
635.145	10636.13
635.339	10406.75
635.533	10496.86
635.726	10261.35
635.92	10230.63
636.114	10238.82
636.308	10148.71
636.501	10185.57
636.695	10140.52
636.889	10001.26
637.083	9864.04
637.276	9661.29
637.47	9767.79
637.664	9995.11
637.857	9849.71
638.051	9659.24
638.244	9651.05
638.438	9737.07
638.632	9640.81
638.825	9438.06
639.019	9534.32
639.212	9237.36
639.406	9288.56
639.599	9087.86
639.793	9276.27
639.986	9155.44
640.18	9145.2
640.373	9073.53
640.567	8973.18
640.76	9108.34
640.954	8932.22
641.147	8721.27
641.34	8743.8
641.534	8715.13
641.727	8620.92
641.92	8838.01
642.114	8731.51
642.307	8741.75
642.5	8510.33
642.694	8434.56
642.887	8317.83
643.08	8536.96
643.273	8459.13
643.467	8268.67
643.66	8221.57
643.853	8287.11
644.046	8033.16
644.239	8201.09
644.432	8033.16
644.626	8004.49
644.819	7801.74
645.012	7885.7
645.205	7967.62
645.398	8076.16
645.591	7875.46
645.784	7764.87
645.977	7785.35
646.17	7625.61
646.363	7723.91
646.556	7441.29
646.749	7728.01
646.942	7658.38
647.135	7379.86
647.328	7484.3
647.521	7437.2
647.714	7373.71
647.907	7564.17
648.099	7265.17
648.292	7148.43
648.485	7195.54
648.678	7156.63
648.871	7068.56
649.064	7252.88
649.256	7130
649.449	6882.2
649.642	6917.01
649.835	6982.55
650.027	6831
650.22	6960.02
650.413	6900.63
650.605	6869.91
650.798	6751.13
650.991	6689.69
651.183	6568.86
651.376	6640.54
651.568	6654.87
651.761	6478.75
651.954	6437.79
652.146	6704.03
652.339	6536.09
652.531	6437.79
652.724	6448.03
652.916	6196.13
653.109	6316.96
653.301	6284.19
653.494	6237.09
653.686	6151.07
653.879	6278.05
654.071	6138.79
654.263	6239.14
654.456	6132.64
654.648	6226.85
654.84	5831.59
655.033	6130.59
655.225	6040.48
655.417	5911.46
655.61	5974.95
655.802	5964.71
655.994	5741.48
656.186	5983.14
656.379	5909.41
656.571	5651.37
656.763	5524.4
656.955	5639.08
657.148	5790.63
657.34	5675.95
657.532	5546.92
657.724	5508.01
657.916	5628.84
658.108	5569.45
658.3	5434.29
658.492	5458.86
658.684	5362.61
658.876	5368.75
659.068	5393.33
659.26	5348.27
659.452	5471.15
659.644	5495.72
659.836	5190.58
660.028	5372.85
660.22	5059.51
660.412	5053.36
660.604	5194.67
660.796	5079.99
660.988	5049.27
661.18	5065.65
661.372	5034.93
661.563	5004.21
661.755	5034.93
661.947	4963.25
662.139	4864.95
662.331	4938.68
662.522	4780.98
662.714	4789.17
662.906	4848.57
663.097	4934.58
663.289	4856.76
663.481	4819.89
663.673	4774.84
663.864	4635.58
664.056	4520.89
664.247	4664.25
664.439	4619.19
664.631	4641.72
664.822	4406.2
665.014	4518.84
665.205	4520.89
665.397	4352.96
665.588	4611
665.78	4410.3
665.971	4438.97
666.163	4549.56
666.354	4408.25
666.546	4291.52
666.737	4445.12
666.929	4471.74
667.12	4324.29
667.311	4385.73
667.503	4248.51
667.694	4322.24
667.885	4193.22
668.077	4291.52
668.268	4107.2
668.459	4117.44
668.651	4076.48
668.842	4164.54
669.033	4082.63
669.224	3908.55
669.416	4051.91
669.607	4049.86
669.798	4017.09
669.989	3992.52
670.18	4033.47
670.371	4029.38
670.563	3883.97
670.754	3947.46
670.945	3904.45
671.136	3914.69
671.327	3675.08
671.518	3863.49
671.709	3869.64
671.9	3943.36
672.091	3892.16
672.282	3511.24
672.473	3865.54
672.664	3836.87
672.855	3709.9
673.046	3617.74
673.237	3847.11
673.428	3584.97
673.619	3566.54
673.809	3568.59
674	3625.93
674.191	3623.88
674.382	3603.4
674.573	3562.44
674.764	3658.7
674.954	3566.54
675.145	3429.32
675.336	3412.94
675.527	3519.43
675.717	3537.87
675.908	3419.08
676.099	3476.43
676.289	3513.29
676.48	3478.47
676.671	3255.25
676.861	3462.09
677.052	3355.6
677.243	3335.12
677.433	3361.74
677.624	3312.59
677.814	3232.72
678.005	3261.39
678.195	3388.36
678.386	3210.19
678.576	3179.47
678.767	3253.2
678.957	3148.75
679.148	3214.29
679.338	3210.19
679.529	3156.94
679.719	3148.75
679.909	3214.29
680.1	3218.38
680.29	3249.1
680.481	3034.07
680.671	3066.83
680.861	3036.11
681.052	3124.18
681.242	3238.86
681.432	3083.22
681.622	3058.64
681.813	3089.36
682.003	3183.57
682.193	3001.3
682.383	2984.91
682.573	3011.54
682.764	2993.11
682.954	2984.91
683.144	2991.06
683.334	2804.69
683.524	2935.76
683.714	2905.04
683.904	2886.61
684.094	2868.18
684.284	2952.15
684.474	3042.26
684.664	2862.04
684.854	2812.89
685.044	2903
685.234	2853.84
685.424	2857.94
685.614	2878.42
685.804	2804.69
685.994	2796.5
686.184	2905.04
686.374	2841.56
686.564	2683.86
686.753	2628.57
686.943	2694.1
687.133	2882.52
687.323	2671.58
687.513	2851.8
687.702	2751.45
687.892	2757.59
688.082	2628.57
688.272	2653.14
688.461	2741.21
688.651	2708.44
688.841	2591.7
689.03	2702.29
689.22	2585.56
689.41	2534.36
689.599	2657.24
689.789	2481.11
689.979	2649.05
690.168	2556.89
690.358	2534.36
690.547	2587.61
690.737	2509.79
690.926	2534.36
691.116	2526.17
691.305	2458.59
691.495	2501.59
691.684	2560.98
691.874	2397.15
692.063	2444.25
692.252	2587.61
692.442	2399.2
692.631	2313.18
692.82	2477.02
693.01	2378.72
693.199	2364.38
693.388	2339.8
693.578	2356.19
693.767	2304.99
693.956	2358.24
694.146	2384.86
694.335	2378.72
694.524	2403.29
694.713	2345.95
694.902	2401.24
695.092	2399.2
695.281	2249.69
695.47	2384.86
695.659	2272.22
695.848	2264.03
696.037	2227.17
696.226	2399.2
696.415	2282.46
696.604	2331.61
696.793	2264.03
696.982	2196.45
697.171	2214.88
697.36	2208.73
697.549	2235.36
697.738	2169.82
697.927	2178.01
698.116	2311.13
698.305	2221.02
698.494	2192.35
698.683	2231.26
698.872	2143.2
699.061	2206.69
699.25	2112.48
699.438	2261.98
699.627	2169.82
699.816	2247.65
700.005	2214.88
700.193	2118.62
700.382	2167.77
700.571	2186.21
700.76	2153.44
700.948	2194.4
701.137	2153.44
701.326	2145.25
701.514	2055.14
701.703	2161.63
701.892	2069.47
702.08	2182.11
702.269	2108.38
702.457	2059.23
702.646	2059.23
702.834	2108.38
703.023	2102.24
703.212	2141.15
703.4	2165.73
703.589	2137.06
703.777	2100.19
703.965	2036.7
704.154	2092
704.342	2018.27
704.531	2149.34
704.719	2030.56
704.907	2026.47
705.096	2116.58
705.284	2069.47
705.472	2135.01
705.661	2001.89
705.849	2241.5
706.037	2042.85
706.226	2092
706.414	2059.23
706.602	2034.66
706.79	2079.71
706.979	2075.62
707.167	2100.19
707.355	2069.47
707.543	2087.9
707.731	2065.38
707.919	2016.23
708.107	2198.49
708.296	2102.24
708.484	2030.56
708.672	2079.71
708.86	2028.51
709.048	2024.42
709.236	2010.08
709.424	1997.79
709.612	2085.86
709.8	2098.14
709.988	1991.65
710.176	2012.13
710.364	2044.9
710.551	1973.22
710.739	2018.27
710.927	1903.59
711.115	2042.85
711.303	2046.94
711.491	2059.23
711.679	2018.27
711.866	2014.18
712.054	1997.79
712.242	2102.24
712.43	2094.05
712.617	2126.82
712.805	1948.64
712.993	2012.13
713.181	1936.35
713.368	2075.62
713.556	2005.99
713.744	1895.4
713.931	2075.62
714.119	1995.75
714.306	2051.04
714.494	2030.56
714.682	2087.9
714.869	1856.48
715.057	1993.7
715.244	1948.64
715.432	2075.62
715.619	1993.7
715.807	1922.02
715.994	2063.33
716.182	2028.51
716.369	2026.47
716.556	1995.75
716.744	2026.47
716.931	1919.97
717.119	2014.18
717.306	1854.44
717.493	2089.95
717.681	1950.69
717.868	2071.52
718.055	1903.59
718.242	1950.69
718.43	1973.22
718.617	1993.7
718.804	1987.55
718.991	2026.47
719.179	2042.85
719.366	2026.47
719.553	2026.47
719.74	1915.87
719.927	2057.18
720.114	2100.19
720.301	2003.94
720.488	2012.13
720.676	2067.42
720.863	2126.82
721.05	2059.23
721.237	1977.31
721.424	1950.69
721.611	1997.79
721.798	1913.83
721.985	1981.41
722.172	1981.41
722.358	1956.83
722.545	1971.17
722.732	2034.66
722.919	2030.56
723.106	1950.69
723.293	1940.45
723.48	1962.98
723.667	1907.68
723.853	1938.4
724.04	1969.12
724.227	1911.78
724.414	2077.66
724.6	1995.75
724.787	2026.47
724.974	1944.55
725.161	1883.11
725.347	2030.56
725.534	1981.41
725.72	2012.13
725.907	1901.54
726.094	1981.41
726.28	1979.36
726.467	1922.02
726.653	1979.36
726.84	1983.46
727.027	2026.47
727.213	1956.83
727.4	1993.7
727.586	1905.63
727.773	1981.41
727.959	1870.82
728.145	1997.79
728.332	2014.18
728.518	1969.12
728.705	2046.94
728.891	1846.24
729.077	1952.74
729.264	1905.63
729.45	1985.51
729.636	1983.46
729.823	1938.4
730.009	2001.89
730.195	1967.07
730.382	1827.81
730.568	1917.92
730.754	1895.4
730.94	1973.22
731.126	1874.92
731.313	1829.86
731.499	1813.48
731.685	1985.51
731.871	1903.59
732.057	1962.98
732.243	1829.86
732.429	1887.2
732.615	1846.24
732.801	1944.55
732.987	1987.55
733.173	1889.25
733.359	2003.94
733.545	1936.35
733.731	1954.79
733.917	1962.98
734.103	1907.68
734.289	1962.98
734.475	1887.2
734.661	1981.41
734.847	1772.52
735.033	1938.4
735.219	1903.59
735.404	1899.49
735.59	1960.93
735.776	1852.39
735.962	1944.55
736.148	1952.74
736.333	1879.01
736.519	1829.86
736.705	1838.05
736.89	1868.77
737.076	1813.48
737.262	1788.9
737.447	1827.81
737.633	1823.72
737.819	1825.76
738.004	1928.16
738.19	1928.16
738.375	1881.06
738.561	1780.71
738.747	1862.63
738.932	1788.9
739.118	1813.48
739.303	1772.52
739.489	1760.23
739.674	1747.94
739.859	1805.28
740.045	1883.11
740.23	1721.32
740.416	1682.41
740.601	1889.25
740.786	1709.03
740.972	1823.72
741.157	1780.71
741.342	1864.68
741.528	1700.84
741.713	1741.8
741.898	1801.19
742.084	1690.6
742.269	1758.18
742.454	1725.41
742.639	1766.37
742.824	1698.79
743.01	1805.28
743.195	1719.27
743.38	1725.41
743.565	1614.82
743.75	1674.21
743.935	1711.08
744.12	1709.03
744.305	1633.26
744.49	1688.55
744.675	1600.49
744.86	1612.78
745.045	1702.89
745.23	1657.83
745.415	1649.64
745.6	1645.54
745.785	1618.92
745.97	1610.73
746.155	1541.1
746.34	1571.82
746.525	1504.23
746.71	1674.21
746.895	1602.54
747.079	1487.85
747.264	1602.54
747.449	1479.66
747.634	1565.67
747.819	1586.15
748.003	1469.42
748.188	1575.91
748.373	1534.95
748.557	1481.71
748.742	1420.27
748.927	1510.38
749.111	1403.88
749.296	1489.9
749.481	1500.14
749.665	1483.75
749.85	1434.6
750.034	1541.1
750.219	1381.35
750.404	1360.88
750.588	1389.55
750.773	1344.49
750.957	1348.59
751.141	1428.46
751.326	1412.07
751.51	1332.2
751.695	1313.77
751.879	1430.51
752.064	1387.5
752.248	1338.35
752.432	1313.77
752.617	1364.97
752.801	1268.72
752.985	1332.2
753.17	1272.81
753.354	1260.52
753.538	1307.63
753.722	1235.95
753.907	1379.31
754.091	1272.81
754.275	1227.76
754.459	1199.09
754.643	1192.94
754.828	1190.89
755.012	1233.9
755.196	1227.76
755.38	1113.07
755.564	1162.22
755.748	1207.28
755.932	1248.24
756.116	1180.65
756.3	1125.36
756.484	1231.85
756.668	1149.93
756.852	1115.12
757.036	1121.26
757.22	1162.22
757.404	1102.83
757.588	1096.69
757.772	1092.59
757.956	1076.21
758.14	1158.13
758.323	1078.26
758.507	1088.5
758.691	994.29
758.875	1092.59
759.059	1111.02
759.242	1029.1
759.426	982
759.61	951.28
759.794	982
759.977	975.86
760.161	1035.25
760.345	1004.53
760.528	1061.87
760.712	1043.44
760.895	938.99
761.079	992.24
761.263	971.76
761.446	938.99
761.63	951.28
761.813	881.65
761.997	1068.02
762.18	975.86
762.364	961.52
762.547	936.95
762.731	914.42
762.914	955.38
763.098	971.76
763.281	932.85
763.464	906.23
763.648	953.33
763.831	891.89
764.015	938.99
764.198	881.65
764.381	855.03
764.564	904.18
764.748	887.79
764.931	971.76
765.114	836.6
765.297	943.09
765.481	859.12
765.664	961.52
765.847	846.84
766.03	938.99
766.213	922.61
766.397	742.39
766.58	822.26
766.763	838.64
766.946	769.01
767.129	840.69
767.312	752.63
767.495	816.12
767.678	818.16
767.861	838.64
768.044	865.27
768.227	893.94
768.41	734.2
768.593	830.45
768.776	777.2
768.959	869.36
769.142	816.12
769.324	734.2
769.507	898.03
769.69	781.3
769.873	760.82
770.056	891.89
770.239	787.44
770.421	895.99
770.604	912.37
770.787	670.71
770.97	832.5
771.152	719.86
771.335	863.22
771.518	773.11
771.7	721.91
771.883	807.92
772.066	670.71
772.248	764.92
772.431	887.79
772.613	785.4
772.796	713.72
772.978	773.11
773.161	758.77
773.343	726
773.526	689.14
773.708	701.43
773.891	775.16
774.073	744.44
774.256	695.29
774.438	726
774.621	619.51
774.803	766.96
774.985	707.57
775.168	744.44
775.35	666.61
775.532	646.13
775.715	662.52
775.897	711.67
776.079	783.35
776.261	766.96
776.444	668.66
776.626	599.03
776.808	617.46
776.99	611.32
777.173	648.18
777.355	596.98
777.537	535.54
777.719	545.78
777.901	551.93
778.083	617.46
778.265	609.27
778.447	625.65
778.629	574.46
778.811	568.31
778.993	642.04
779.175	603.13
779.357	576.5
779.539	496.63
779.721	568.31
779.903	551.93
780.085	558.07
780.267	601.08
780.449	560.12
780.631	562.17
780.812	584.7
780.994	556.02
781.176	564.22
781.358	549.88
781.54	478.2
781.721	508.92
781.903	629.75
782.085	478.2
782.267	533.5
782.448	461.82
782.63	422.91
782.812	496.63
782.993	535.54
783.175	510.97
783.357	457.72
783.538	500.73
783.72	478.2
783.901	525.3
784.083	490.49
784.264	560.12
784.446	502.78
784.627	424.95
784.809	508.92
784.99	510.97
785.172	447.48
785.353	361.47
785.535	482.3
785.716	500.73
785.897	453.63
786.079	396.28
786.26	414.71
786.441	408.57
786.623	390.14
786.804	478.2
786.985	551.93
787.167	437.24
787.348	424.95
787.529	408.57
787.71	390.14
787.891	420.86
788.073	422.91
788.254	453.63
788.435	418.81
788.616	371.71
788.797	334.84
788.978	424.95
789.159	314.36
789.34	414.71
789.522	351.23
789.703	445.43
789.884	388.09
790.065	269.31
790.246	343.03
790.427	273.4
790.607	334.84
790.788	252.92
790.969	353.27
791.15	386.04
791.331	404.47
791.512	310.27
791.693	300.03
791.874	314.36
792.054	367.61
792.235	355.32
792.416	330.75
792.597	351.23
792.778	330.75
792.958	414.71
793.139	316.41
793.32	408.57
793.5	328.7
793.681	273.4
793.862	388.09
794.042	349.18
794.223	345.08
794.404	293.88
794.584	220.16
794.765	312.32
794.945	322.56
795.126	383.99
795.306	355.32
795.487	304.12
795.667	297.98
795.848	330.75
796.028	330.75
796.209	291.84
796.389	248.83
796.57	211.96
796.75	230.4
796.93	334.84
797.111	240.64
797.291	310.27
797.471	230.4
797.652	277.5
797.832	257.02
798.012	232.44
798.192	293.88
798.373	273.4
798.553	242.68
798.733	257.02
798.913	257.02
799.093	226.3
799.274	201.72
799.454	248.83
799.634	257.02
799.814	314.36
799.994	252.92
800.174	265.21
800.354	224.25
800.534	218.11
800.714	365.56
800.894	248.83
801.074	259.07
801.254	248.83
801.434	232.44
801.614	179.2
801.794	248.83
801.974	830.45
802.154	289.79
802.334	289.79
802.514	207.87
802.693	273.4
802.873	152.57
803.053	218.11
803.233	183.29
803.413	214.01
803.592	152.57
803.772	216.06
803.952	199.68
804.131	207.87
804.311	240.64
804.491	259.07
804.67	187.39
804.85	209.92
805.03	338.94
805.209	252.92
805.389	181.25
805.568	125.95
805.748	259.07
805.928	236.54
806.107	216.06
806.287	150.53
806.466	179.2
806.646	236.54
806.825	205.82
807.004	193.53
807.184	175.1
807.363	250.88
807.543	183.29
807.722	146.43
807.901	222.2
808.081	191.49
808.26	113.66
808.439	134.14
808.619	160.77
808.798	162.81
808.977	259.07
809.156	125.95
809.336	175.1
809.515	207.87
809.694	146.43
809.873	101.37
810.052	160.77
810.231	209.92
810.411	232.44
810.59	224.25
810.769	150.53
810.948	150.53
811.127	140.29
811.306	220.16
811.485	121.85
811.664	191.49
811.843	177.15
812.022	125.95
812.201	160.77
812.38	125.95
812.559	203.77
812.737	128
812.916	156.67
813.095	125.95
813.274	220.16
813.453	185.34
813.632	187.39
813.811	193.53
813.989	101.37
814.168	166.91
814.347	136.19
814.526	84.99
814.704	158.72
814.883	216.06
815.062	46.08
815.24	222.2
815.419	152.57
815.598	121.85
815.776	218.11
815.955	177.15
816.133	70.65
816.312	134.14
816.49	115.71
816.669	152.57
816.847	150.53
817.026	164.86
817.204	103.42
817.383	232.44
817.561	80.89
817.74	119.81
817.918	125.95
818.097	132.09
818.275	111.61
818.453	128
818.632	175.1
818.81	146.43
818.988	78.85
819.167	101.37
819.345	158.72
819.523	74.75
819.701	156.67
819.879	142.33
820.058	162.81
820.236	166.91
820.414	146.43
820.592	138.24
820.77	103.42
820.948	125.95
821.127	93.18
821.305	109.57
821.483	70.65
821.661	125.95
821.839	166.91
822.017	134.14
822.195	128
822.373	207.87
822.551	89.09
822.729	125.95
822.907	128
823.085	164.86
823.262	125.95
823.44	76.8
823.618	103.42
823.796	125.95
823.974	78.85
824.152	72.7
824.329	91.13
824.507	84.99
824.685	140.29
824.863	134.14
825.04	105.47
825.218	168.96
825.396	76.8
825.574	60.42
825.751	134.14
825.929	97.28
826.107	84.99
826.284	97.28
826.462	107.52
826.639	93.18
826.817	62.46
826.994	97.28
827.172	128
827.349	193.53
827.527	113.66
827.704	125.95
827.882	109.57
828.059	119.81
828.237	70.65
828.414	76.8
828.591	13.31
828.769	138.24
828.946	50.18
829.124	121.85
829.301	125.95
829.478	31.74
829.655	87.04
829.833	113.66
830.01	82.94
830.187	95.23
830.364	84.99
830.542	138.24
830.719	125.95
830.896	80.89
831.073	113.66
831.25	68.61
831.427	111.61
831.604	119.81
831.782	68.61
831.959	148.48
832.136	99.33
832.313	125.95
832.49	60.42
832.667	113.66
832.844	54.27
833.021	111.61
833.198	76.8
833.374	103.42
833.551	66.56
833.728	109.57
833.905	84.99
834.082	11.26
834.259	136.19
834.436	84.99
834.612	29.7
834.789	101.37
834.966	-3.07
835.143	60.42
835.319	19.46
835.496	152.57
835.673	103.42
835.85	109.57
836.026	46.08
836.203	136.19
836.38	68.61
836.556	93.18
836.733	35.84
836.909	119.81
837.086	48.13
837.262	60.42
837.439	103.42
837.616	48.13
837.792	29.7
837.968	89.09
838.145	48.13
838.321	103.42
838.498	76.8
838.674	101.37
838.851	46.08
839.027	87.04
839.203	91.13
839.38	99.33
839.556	35.84
839.732	80.89
839.909	128
840.085	158.72
840.261	15.36
840.437	150.53
840.614	115.71
840.79	134.14
840.966	119.81
841.142	105.47
841.318	84.99
841.494	80.89
841.671	70.65
841.847	82.94
842.023	15.36
842.199	48.13
842.375	150.53
842.551	76.8
842.727	95.23
842.903	78.85
843.079	19.46
843.255	107.52
843.431	60.42
843.607	15.36
843.783	-13.31
843.959	111.61
844.134	150.53
844.31	119.81
844.486	29.7
844.662	105.47
844.838	60.42
845.013	70.65
845.189	103.42
845.365	68.61
845.541	62.46
845.716	52.22
845.892	29.7
846.068	13.31
846.244	35.84
846.419	54.27
846.595	11.26
846.77	60.42
846.946	113.66
847.122	35.84
847.297	78.85
847.473	99.33
847.648	46.08
847.824	68.61
847.999	-3.07
848.175	89.09
848.35	78.85
848.526	101.37
848.701	121.85
848.876	117.76
849.052	136.19
849.227	27.65
849.403	68.61
849.578	70.65
849.753	115.71
849.929	29.7
850.104	80.89
850.279	44.03
850.454	68.61
850.63	70.65
850.805	91.13
850.98	60.42
851.155	-5.12
851.33	113.66
851.505	27.65
851.681	158.72
851.856	-3.07
852.031	171.01
852.206	19.46
852.381	80.89
852.556	17.41
852.731	52.22
852.906	80.89
853.081	70.65
853.256	70.65
853.431	80.89
853.606	29.7
853.781	60.42
853.956	11.26
854.131	74.75
854.305	23.55
854.48	9.22
854.655	-17.41
854.83	37.89
855.005	25.6
855.18	52.22
855.354	82.94
855.529	80.89
855.704	54.27
855.879	82.94
856.053	76.8
856.228	68.61
856.403	-56.32
856.577	84.99
856.752	27.65
856.926	76.8
857.101	41.98
857.276	-1.02
857.45	68.61
857.625	95.23
857.799	15.36
857.974	54.27
858.148	21.5
858.323	48.13
858.497	-11.26
858.672	-29.7
858.846	64.51
859.02	37.89
859.195	25.6
859.369	31.74
859.543	68.61
859.718	37.89
859.892	64.51
860.066	105.47
860.241	-11.26
860.415	23.55
860.589	19.46
860.763	60.42
860.938	7.17
861.112	89.09
861.286	11.26
861.46	64.51
861.634	84.99
861.808	89.09
861.982	21.5
862.157	-13.31
862.331	48.13
862.505	76.8
862.679	52.22
862.853	21.5
863.027	19.46
863.201	125.95
863.375	21.5
863.549	78.85
863.722	62.46
863.896	101.37
864.07	44.03
864.244	62.46
864.418	142.33
864.592	-3.07
864.766	105.47
864.939	72.7
865.113	15.36
865.287	60.42
865.461	-1.02
865.634	44.03
865.808	70.65
865.982	54.27
866.156	27.65
866.329	29.7
866.503	7.17
866.676	142.33
866.85	101.37
867.024	27.65
867.197	52.22
867.371	68.61
867.544	52.22
867.718	23.55
867.891	60.42
868.065	3.07
868.238	15.36
868.412	91.13
868.585	117.76
868.759	39.94
868.932	99.33
869.105	-25.6
869.279	60.42
869.452	-35.84
869.625	70.65
869.799	-9.22
869.972	-5.12
870.145	13.31
870.319	78.85
870.492	13.31
870.665	35.84
870.838	60.42
871.011	-23.55
871.185	29.7
871.358	-37.89
871.531	103.42
871.704	13.31
871.877	60.42
872.05	29.7
872.223	-37.89
872.396	52.22
872.569	19.46
872.742	13.31
872.915	21.5
873.088	54.27
873.261	-21.5
873.434	68.61
873.607	-17.41
873.78	101.37
873.953	-5.12
874.126	-21.5
874.299	54.27
874.471	13.31
874.644	-21.5
874.817	-3.07
874.99	82.94
875.163	-21.5
875.335	97.28
875.508	3.07
875.681	54.27
875.853	-5.12
876.026	68.61
876.199	70.65
876.371	13.31
876.544	64.51
876.717	-37.89
876.889	5.12
877.062	101.37
877.234	44.03
877.407	19.46
877.579	-9.22
877.752	87.04
877.924	80.89
878.097	68.61
878.269	5.12
878.442	11.26
878.614	3.07
878.786	80.89
878.959	-13.31
879.131	44.03
879.303	-5.12
879.476	44.03
879.648	70.65
879.82	31.74
879.993	-29.7
880.165	46.08
880.337	39.94
880.509	-17.41
880.681	-15.36
880.854	27.65
881.026	25.6
881.198	41.98
881.37	3.07
881.542	-27.65
881.714	11.26
881.886	-19.46
882.058	-33.79
882.23	125.95
882.402	13.31
882.574	68.61
882.746	39.94
882.918	87.04
883.09	-5.12
883.262	29.7
883.434	46.08
883.606	76.8
883.778	35.84
883.95	60.42
884.122	-9.22
884.293	7.17
884.465	134.14
884.637	84.99
884.809	11.26
884.98	31.74
885.152	3.07
885.324	50.18
885.496	-21.5
885.667	19.46
885.839	56.32
886.011	64.51
886.182	5.12
886.354	60.42
886.525	27.65
886.697	80.89
886.869	-44.03
887.04	84.99
887.212	68.61
887.383	80.89
887.555	64.51
887.726	-9.22
887.897	11.26
888.069	119.81
888.24	35.84
888.412	39.94
888.583	39.94
888.754	7.17
888.926	-27.65
889.097	-50.18
889.268	9.22
889.44	-5.12
889.611	1.02
889.782	11.26
889.953	-1.02
890.125	78.85
890.296	64.51
890.467	3.07
890.638	17.41
890.809	41.98
890.98	11.26
891.151	39.94
891.323	52.22
891.494	46.08
891.665	-31.74
891.836	3.07
892.007	-31.74
892.178	44.03
892.349	17.41
892.52	11.26
892.691	-3.07
892.862	19.46
893.032	23.55
893.203	33.79
893.374	21.5
893.545	62.46
893.716	3.07
893.887	11.26
894.057	-29.7
894.228	35.84
894.399	27.65
894.57	46.08
894.74	48.13
894.911	48.13
895.082	66.56
895.253	-19.46
895.423	-72.7
895.594	13.31
895.764	117.76
895.935	-13.31
896.106	44.03
896.276	29.7
896.447	89.09
896.617	35.84
896.788	-9.22
896.958	35.84
897.129	-17.41
897.299	-13.31
897.47	3.07
897.64	62.46
897.81	35.84
897.981	-33.79
898.151	11.26
898.322	44.03
898.492	134.14
898.662	64.51
898.832	52.22
899.003	35.84
899.173	-23.55
899.343	11.26
899.513	-3.07
