Data from USB4F104151__112__14-43-50-091.txt Node

Date: Thu Mar 13 14:43:50 EDT 2025
User: louis
Spectrometer: USB4F10415
Trigger mode: 4
Integration Time (sec): 2.000000E-2
Scans to average: 1
Electric dark correction enabled: true
Nonlinearity correction enabled: false
Boxcar width: 0
XAxis mode: Wavelengths
Number of Pixels in Spectrum: 3648
>>>>>Begin Spectral Data<<<<<
178.204	-110.59
178.424	-110.59
178.644	-110.59
178.864	-108.54
179.084	-108.54
179.304	-53.25
179.524	-6.14
179.744	-20.48
179.964	-32.77
180.184	22.53
180.404	34.82
180.624	-16.38
180.844	4.1
181.064	36.86
181.283	20.48
181.503	-53.25
181.723	63.49
181.943	-28.67
182.163	59.39
182.383	36.86
182.602	-20.48
182.822	49.15
183.042	16.38
183.262	-4.1
183.482	-22.53
183.701	-26.62
183.921	45.06
184.141	-14.34
184.361	0
184.58	24.58
184.8	51.2
185.02	-22.53
185.239	104.45
185.459	30.72
185.679	36.86
185.898	-38.91
186.118	24.58
186.338	2.05
186.557	59.39
186.777	-20.48
186.997	-4.1
187.216	-18.43
187.436	12.29
187.655	18.43
187.875	-4.1
188.095	26.62
188.314	92.16
188.534	75.77
188.753	-14.34
188.973	-8.19
189.192	63.49
189.412	0
189.631	43.01
189.851	45.06
190.07	94.21
190.29	6.14
190.509	-10.24
190.729	26.62
190.948	28.67
191.168	139.26
191.387	10.24
191.607	-14.34
191.826	30.72
192.045	-22.53
192.265	36.86
192.484	38.91
192.704	75.77
192.923	-6.14
193.142	86.01
193.362	59.39
193.581	51.2
193.8	14.34
194.02	30.72
194.239	-57.34
194.458	59.39
194.678	14.34
194.897	-28.67
195.116	14.34
195.335	59.39
195.555	-2.05
195.774	-18.43
195.993	69.63
196.212	-36.86
196.432	55.3
196.651	-6.14
196.87	36.86
197.089	43.01
197.308	26.62
197.528	8.19
197.747	51.2
197.966	2.05
198.185	59.39
198.404	-53.25
198.623	69.63
198.842	51.2
199.062	2.05
199.281	79.87
199.5	10.24
199.719	22.53
199.938	-6.14
200.157	55.3
200.376	10.24
200.595	30.72
200.814	8.19
201.033	-2.05
201.252	14.34
201.471	32.77
201.69	45.06
201.909	26.62
202.128	75.77
202.347	69.63
202.566	-112.64
202.785	-10.24
203.004	-61.44
203.223	6.14
203.442	-10.24
203.661	26.62
203.879	45.06
204.098	88.06
204.317	24.58
204.536	18.43
204.755	28.67
204.974	-18.43
205.193	47.1
205.411	18.43
205.63	8.19
205.849	116.73
206.068	-57.34
206.287	-57.34
206.505	-14.34
206.724	-14.34
206.943	-30.72
207.162	79.87
207.381	-2.05
207.599	47.1
207.818	36.86
208.037	0
208.255	-4.1
208.474	-22.53
208.693	90.11
208.911	-55.3
209.13	14.34
209.349	75.77
209.567	36.86
209.786	34.82
210.005	36.86
210.223	26.62
210.442	-55.3
210.661	51.2
210.879	-43.01
211.098	-38.91
211.316	57.34
211.535	43.01
211.753	51.2
211.972	38.91
212.191	-55.3
212.409	86.01
212.628	18.43
212.846	28.67
213.065	28.67
213.283	63.49
213.502	-8.19
213.72	10.24
213.938	12.29
214.157	-4.1
214.375	38.91
214.594	-38.91
214.812	-24.58
215.031	28.67
215.249	-22.53
215.467	40.96
215.686	18.43
215.904	14.34
216.122	-38.91
216.341	16.38
216.559	8.19
216.778	26.62
216.996	28.67
217.214	32.77
217.432	26.62
217.651	18.43
217.869	71.68
218.087	-71.68
218.306	-14.34
218.524	-12.29
218.742	26.62
218.96	12.29
219.179	20.48
219.397	47.1
219.615	112.64
219.833	18.43
220.051	83.97
220.27	88.06
220.488	28.67
220.706	40.96
220.924	59.39
221.142	2.05
221.36	26.62
221.578	-22.53
221.796	59.39
222.015	38.91
222.233	38.91
222.451	49.15
222.669	18.43
222.887	67.58
223.105	24.58
223.323	2.05
223.541	-53.25
223.759	-22.53
223.977	-14.34
224.195	61.44
224.413	-2.05
224.631	92.16
224.849	10.24
225.067	12.29
225.285	36.86
225.503	-43.01
225.721	-22.53
225.939	34.82
226.157	-55.3
226.375	67.58
226.592	10.24
226.81	47.1
227.028	-30.72
227.246	86.01
227.464	-14.34
227.682	45.06
227.9	-47.1
228.117	100.35
228.335	79.87
228.553	45.06
228.771	-36.86
228.989	77.82
229.206	51.2
229.424	51.2
229.642	4.1
229.86	59.39
230.077	63.49
230.295	18.43
230.513	-6.14
230.731	30.72
230.948	51.2
231.166	20.48
231.384	-28.67
231.601	-6.14
231.819	83.97
232.037	2.05
232.254	-18.43
232.472	10.24
232.689	20.48
232.907	61.44
233.125	45.06
233.342	20.48
233.56	-8.19
233.777	-36.86
233.995	14.34
234.213	34.82
234.43	26.62
234.648	36.86
234.865	20.48
235.083	2.05
235.3	-22.53
235.518	2.05
235.735	18.43
235.953	51.2
236.17	-34.82
236.388	75.77
236.605	26.62
236.822	-6.14
237.04	51.2
237.257	0
237.475	10.24
237.692	26.62
237.909	59.39
238.127	-20.48
238.344	-49.15
238.562	36.86
238.779	-2.05
238.996	2.05
239.214	-22.53
239.431	67.58
239.648	53.25
239.865	20.48
240.083	2.05
240.3	38.91
240.517	-10.24
240.735	-10.24
240.952	59.39
241.169	59.39
241.386	10.24
241.603	-10.24
241.821	2.05
242.038	71.68
242.255	-40.96
242.472	-14.34
242.689	16.38
242.907	10.24
243.124	6.14
243.341	-47.1
243.558	28.67
243.775	-2.05
243.992	-71.68
244.209	45.06
244.426	-12.29
244.643	43.01
244.86	69.63
245.078	63.49
245.295	4.1
245.512	26.62
245.729	-6.14
245.946	22.53
246.163	75.77
246.38	34.82
246.597	-24.58
246.814	-47.1
247.031	-120.83
247.248	49.15
247.464	36.86
247.681	-30.72
247.898	30.72
248.115	20.48
248.332	10.24
248.549	10.24
248.766	79.87
248.983	108.54
249.2	77.82
249.417	51.2
249.633	-51.2
249.85	53.25
250.067	-2.05
250.284	16.38
250.501	51.2
250.717	43.01
250.934	2.05
251.151	47.1
251.368	-63.49
251.585	83.97
251.801	59.39
252.018	28.67
252.235	45.06
252.451	47.1
252.668	30.72
252.885	4.1
253.102	14.34
253.318	-26.62
253.535	0
253.752	-14.34
253.968	36.86
254.185	12.29
254.401	-12.29
254.618	77.82
254.835	47.1
255.051	43.01
255.268	-47.1
255.484	38.91
255.701	4.1
255.917	38.91
256.134	12.29
256.351	45.06
256.567	34.82
256.784	-65.54
257	-14.34
257.217	4.1
257.433	51.2
257.65	-36.86
257.866	61.44
258.082	-47.1
258.299	10.24
258.515	14.34
258.732	51.2
258.948	36.86
259.165	14.34
259.381	45.06
259.597	28.67
259.814	-14.34
260.03	18.43
260.246	26.62
260.463	-26.62
260.679	-47.1
260.895	83.97
261.112	51.2
261.328	2.05
261.544	6.14
261.761	30.72
261.977	-2.05
262.193	-32.77
262.409	53.25
262.626	65.54
262.842	36.86
263.058	40.96
263.274	10.24
263.49	-6.14
263.707	14.34
263.923	-34.82
264.139	77.82
264.355	34.82
264.571	108.54
264.787	55.3
265.004	18.43
265.22	4.1
265.436	28.67
265.652	-53.25
265.868	4.1
266.084	10.24
266.3	61.44
266.516	-16.38
266.732	-10.24
266.948	38.91
267.164	47.1
267.38	61.44
267.596	14.34
267.812	-71.68
268.028	28.67
268.244	-30.72
268.46	-12.29
268.676	-18.43
268.892	49.15
269.108	20.48
269.324	2.05
269.54	-51.2
269.756	63.49
269.972	12.29
270.188	45.06
270.403	4.1
270.619	-10.24
270.835	22.53
271.051	43.01
271.267	14.34
271.483	36.86
271.698	53.25
271.914	20.48
272.13	-96.25
272.346	-6.14
272.562	-14.34
272.777	77.82
272.993	0
273.209	-36.86
273.425	59.39
273.64	-20.48
273.856	75.77
274.072	67.58
274.287	-24.58
274.503	53.25
274.719	47.1
274.934	45.06
275.15	-10.24
275.366	-10.24
275.581	-30.72
275.797	2.05
276.012	22.53
276.228	6.14
276.444	-22.53
276.659	71.68
276.875	-30.72
277.09	-40.96
277.306	34.82
277.521	-4.1
277.737	-6.14
277.952	77.82
278.168	-18.43
278.383	14.34
278.599	67.58
278.814	10.24
279.03	-10.24
279.245	26.62
279.461	-22.53
279.676	18.43
279.892	34.82
280.107	-36.86
280.322	-24.58
280.538	88.06
280.753	43.01
280.969	-30.72
281.184	63.49
281.399	10.24
281.615	67.58
281.83	73.73
282.045	-45.06
282.26	-28.67
282.476	22.53
282.691	-6.14
282.906	-61.44
283.122	59.39
283.337	4.1
283.552	-14.34
283.767	-8.19
283.983	77.82
284.198	26.62
284.413	-12.29
284.628	-14.34
284.843	67.58
285.058	57.34
285.274	-4.1
285.489	59.39
285.704	30.72
285.919	-63.49
286.134	36.86
286.349	0
286.564	-6.14
286.779	55.3
286.995	-30.72
287.21	36.86
287.425	-20.48
287.64	57.34
287.855	-26.62
288.07	10.24
288.285	2.05
288.5	34.82
288.715	59.39
288.93	-26.62
289.145	36.86
289.36	57.34
289.575	-10.24
289.79	-10.24
290.004	-47.1
290.219	92.16
290.434	43.01
290.649	20.48
290.864	2.05
291.079	0
291.294	75.77
291.509	12.29
291.724	86.01
291.938	18.43
292.153	38.91
292.368	36.86
292.583	67.58
292.798	6.14
293.012	88.06
293.227	18.43
293.442	2.05
293.657	49.15
293.871	4.1
294.086	-14.34
294.301	124.93
294.516	79.87
294.73	14.34
294.945	-30.72
295.16	-6.14
295.374	-2.05
295.589	79.87
295.804	6.14
296.018	45.06
296.233	26.62
296.447	38.91
296.662	6.14
296.877	43.01
297.091	-30.72
297.306	45.06
297.52	22.53
297.735	2.05
297.949	22.53
298.164	30.72
298.378	4.1
298.593	59.39
298.807	-96.25
299.022	34.82
299.236	86.01
299.451	51.2
299.665	-59.39
299.88	-2.05
300.094	22.53
300.309	26.62
300.523	69.63
300.737	-12.29
300.952	120.83
301.166	133.12
301.381	-2.05
301.595	-6.14
301.809	-12.29
302.024	14.34
302.238	-2.05
302.452	26.62
302.667	-67.58
302.881	51.2
303.095	112.64
303.309	-12.29
303.524	6.14
303.738	-6.14
303.952	-38.91
304.166	8.19
304.381	-10.24
304.595	77.82
304.809	-6.14
305.023	53.25
305.237	26.62
305.452	20.48
305.666	-24.58
305.88	16.38
306.094	10.24
306.308	47.1
306.522	102.4
306.736	22.53
306.95	12.29
307.164	63.49
307.379	47.1
307.593	79.87
307.807	92.16
308.021	2.05
308.235	104.45
308.449	-49.15
308.663	2.05
308.877	83.97
309.091	88.06
309.305	43.01
309.519	-12.29
309.733	0
309.947	24.58
310.161	-14.34
310.374	6.14
310.588	2.05
310.802	10.24
311.016	28.67
311.23	43.01
311.444	10.24
311.658	75.77
311.872	51.2
312.085	92.16
312.299	2.05
312.513	34.82
312.727	-2.05
312.941	6.14
313.154	-22.53
313.368	-18.43
313.582	34.82
313.796	-43.01
314.009	14.34
314.223	69.63
314.437	61.44
314.651	57.34
314.864	26.62
315.078	-8.19
315.292	0
315.505	-20.48
315.719	51.2
315.933	12.29
316.146	59.39
316.36	36.86
316.573	28.67
316.787	22.53
317.001	18.43
317.214	-6.14
317.428	61.44
317.641	55.3
317.855	-47.1
318.068	28.67
318.282	22.53
318.495	34.82
318.709	63.49
318.922	-43.01
319.136	36.86
319.349	51.2
319.563	22.53
319.776	4.1
319.99	34.82
320.203	-12.29
320.417	-71.68
320.63	34.82
320.843	69.63
321.057	-30.72
321.27	-4.1
321.483	43.01
321.697	43.01
321.91	-8.19
322.124	-28.67
322.337	10.24
322.55	12.29
322.763	12.29
322.977	34.82
323.19	18.43
323.403	28.67
323.617	2.05
323.83	45.06
324.043	-22.53
324.256	-6.14
324.469	-10.24
324.683	36.86
324.896	-30.72
325.109	6.14
325.322	-8.19
325.535	61.44
325.748	-18.43
325.962	26.62
326.175	28.67
326.388	-22.53
326.601	24.58
326.814	79.87
327.027	18.43
327.24	6.14
327.453	-63.49
327.666	2.05
327.879	47.1
328.092	34.82
328.305	-24.58
328.518	45.06
328.731	-6.14
328.944	12.29
329.157	2.05
329.37	102.4
329.583	67.58
329.796	51.2
330.009	-55.3
330.222	47.1
330.435	45.06
330.648	16.38
330.861	-28.67
331.073	2.05
331.286	32.77
331.499	77.82
331.712	-88.06
331.925	36.86
332.138	16.38
332.35	51.2
332.563	45.06
332.776	57.34
332.989	-24.58
333.202	22.53
333.414	-14.34
333.627	-26.62
333.84	59.39
334.053	18.43
334.265	20.48
334.478	-4.1
334.691	-4.1
334.903	51.2
335.116	-16.38
335.329	10.24
335.541	51.2
335.754	110.59
335.966	-14.34
336.179	73.73
336.392	-63.49
336.604	26.62
336.817	47.1
337.029	77.82
337.242	86.01
337.454	88.06
337.667	-20.48
337.88	67.58
338.092	18.43
338.305	16.38
338.517	-10.24
338.729	92.16
338.942	43.01
339.154	-14.34
339.367	-22.53
339.579	57.34
339.792	30.72
340.004	16.38
340.217	-38.91
340.429	28.67
340.641	-8.19
340.854	-4.1
341.066	51.2
341.278	75.77
341.491	155.65
341.703	12.29
341.915	-38.91
342.128	45.06
342.34	110.59
342.552	12.29
342.764	92.16
342.977	43.01
343.189	6.14
343.401	-14.34
343.613	-34.82
343.826	2.05
344.038	26.62
344.25	69.63
344.462	-14.34
344.674	4.1
344.886	55.3
345.099	12.29
345.311	28.67
345.523	-34.82
345.735	-2.05
345.947	20.48
346.159	-6.14
346.371	10.24
346.583	49.15
346.795	69.63
347.007	0
347.219	53.25
347.431	36.86
347.643	-22.53
347.855	61.44
348.067	43.01
348.279	-92.16
348.491	45.06
348.703	53.25
348.915	18.43
349.127	-34.82
349.339	94.21
349.551	-26.62
349.763	34.82
349.975	43.01
350.187	34.82
350.399	43.01
350.61	12.29
350.822	-6.14
351.034	4.1
351.246	22.53
351.458	18.43
351.669	83.97
351.881	40.96
352.093	30.72
352.305	36.86
352.517	18.43
352.728	141.31
352.94	8.19
353.152	6.14
353.363	-49.15
353.575	-12.29
353.787	53.25
353.999	26.62
354.21	114.69
354.422	59.39
354.633	40.96
354.845	28.67
355.057	-38.91
355.268	61.44
355.48	45.06
355.692	24.58
355.903	-32.77
356.115	28.67
356.326	43.01
356.538	38.91
356.749	53.25
356.961	26.62
357.172	-24.58
357.384	-28.67
357.595	-22.53
357.807	53.25
358.018	10.24
358.23	18.43
358.441	57.34
358.653	2.05
358.864	75.77
359.075	-47.1
359.287	36.86
359.498	86.01
359.709	-2.05
359.921	28.67
360.132	38.91
360.344	10.24
360.555	10.24
360.766	-18.43
360.977	-20.48
361.189	114.69
361.4	-32.77
361.611	151.55
361.823	-2.05
362.034	43.01
362.245	-38.91
362.456	26.62
362.667	24.58
362.879	47.1
363.09	0
363.301	18.43
363.512	51.2
363.723	-18.43
363.935	53.25
364.146	47.1
364.357	26.62
364.568	51.2
364.779	38.91
364.99	53.25
365.201	6.14
365.412	92.16
365.623	-30.72
365.834	18.43
366.045	47.1
366.256	149.5
366.467	30.72
366.678	0
366.889	-75.77
367.1	100.35
367.311	55.3
367.522	18.43
367.733	-22.53
367.944	71.68
368.155	14.34
368.366	90.11
368.577	96.25
368.788	47.1
368.999	67.58
369.209	45.06
369.42	36.86
369.631	116.73
369.842	28.67
370.053	-6.14
370.264	61.44
370.474	2.05
370.685	20.48
370.896	26.62
371.107	67.58
371.317	51.2
371.528	75.77
371.739	88.06
371.95	36.86
372.16	51.2
372.371	-14.34
372.582	51.2
372.792	20.48
373.003	47.1
373.214	14.34
373.424	20.48
373.635	-38.91
373.846	43.01
374.056	45.06
374.267	28.67
374.477	71.68
374.688	38.91
374.898	6.14
375.109	51.2
375.319	22.53
375.53	10.24
375.74	10.24
375.951	67.58
376.161	34.82
376.372	94.21
376.582	-30.72
376.793	2.05
377.003	26.62
377.214	-14.34
377.424	6.14
377.635	67.58
377.845	-4.1
378.055	-14.34
378.266	-14.34
378.476	63.49
378.686	53.25
378.897	59.39
379.107	14.34
379.317	32.77
379.528	38.91
379.738	71.68
379.948	-6.14
380.158	55.3
380.369	30.72
380.579	-4.1
380.789	36.86
380.999	59.39
381.21	38.91
381.42	71.68
381.63	6.14
381.84	65.54
382.05	40.96
382.261	63.49
382.471	-2.05
382.681	16.38
382.891	86.01
383.101	2.05
383.311	2.05
383.521	75.77
383.731	45.06
383.941	79.87
384.151	77.82
384.361	-36.86
384.571	10.24
384.781	32.77
384.991	6.14
385.201	40.96
385.411	-10.24
385.621	83.97
385.831	12.29
386.041	26.62
386.251	63.49
386.461	83.97
386.671	-22.53
386.881	55.3
387.091	-26.62
387.301	92.16
387.511	53.25
387.72	116.73
387.93	40.96
388.14	-4.1
388.35	100.35
388.56	75.77
388.769	6.14
388.979	75.77
389.189	-14.34
389.399	67.58
389.609	67.58
389.818	51.2
390.028	20.48
390.238	77.82
390.447	63.49
390.657	88.06
390.867	61.44
391.076	26.62
391.286	-36.86
391.496	28.67
391.705	34.82
391.915	8.19
392.125	51.2
392.334	51.2
392.544	53.25
392.753	28.67
392.963	18.43
393.172	65.54
393.382	-28.67
393.591	14.34
393.801	34.82
394.01	151.55
394.22	43.01
394.429	77.82
394.639	18.43
394.848	10.24
395.058	83.97
395.267	79.87
395.477	53.25
395.686	112.64
395.895	120.83
396.105	176.13
396.314	59.39
396.524	47.1
396.733	47.1
396.942	69.63
397.152	-51.2
397.361	49.15
397.57	77.82
397.78	51.2
397.989	102.4
398.198	108.54
398.407	90.11
398.617	-38.91
398.826	81.92
399.035	108.54
399.244	75.77
399.453	-61.44
399.663	40.96
399.872	86.01
400.081	43.01
400.29	36.86
400.499	10.24
400.708	135.17
400.917	67.58
401.127	67.58
401.336	28.67
401.545	169.98
401.754	94.21
401.963	126.97
402.172	43.01
402.381	69.63
402.59	120.83
402.799	139.26
403.008	79.87
403.217	75.77
403.426	114.69
403.635	108.54
403.844	67.58
404.053	110.59
404.262	43.01
404.471	133.12
404.68	124.93
404.888	86.01
405.097	100.35
405.306	69.63
405.515	90.11
405.724	-45.06
405.933	159.74
406.142	141.31
406.35	200.7
406.559	118.78
406.768	98.3
406.977	124.93
407.185	124.93
407.394	120.83
407.603	174.08
407.812	108.54
408.02	196.61
408.229	126.97
408.438	137.21
408.646	182.27
408.855	116.73
409.064	176.13
409.272	247.8
409.481	235.52
409.69	247.8
409.898	159.74
410.107	253.95
410.315	225.28
410.524	206.84
410.733	247.8
410.941	268.28
411.15	288.76
411.358	288.76
411.567	315.39
411.775	217.08
411.984	327.68
412.192	354.3
412.401	319.48
412.609	354.3
412.818	348.15
413.026	385.02
413.234	350.2
413.443	321.53
413.651	399.35
413.86	452.6
414.068	382.97
414.276	509.94
414.485	389.11
414.693	497.66
414.901	579.58
415.11	466.94
415.318	511.99
415.526	473.08
415.734	600.05
415.943	528.38
416.151	561.14
416.359	612.34
416.567	677.88
416.776	651.25
416.984	724.98
417.192	718.84
417.4	694.26
417.608	720.88
417.817	714.74
418.025	681.97
418.233	878.58
418.441	751.6
418.649	780.28
418.857	903.15
419.065	1028.08
419.273	899.06
419.481	962.55
419.689	985.07
419.897	1060.85
420.105	1079.28
420.313	1169.39
420.521	1128.43
420.729	1144.81
420.937	1234.93
421.145	1271.79
421.353	1331.18
421.561	1394.67
421.769	1378.28
421.977	1452.01
422.185	1400.81
422.393	1468.39
422.601	1542.12
422.809	1587.18
423.017	1550.31
423.224	1609.7
423.432	1658.85
423.64	1757.16
423.848	1896.42
424.056	1832.93
424.263	2062.3
424.471	1988.58
424.679	2052.06
424.887	2146.27
425.094	2246.62
425.302	2256.86
425.51	2379.74
425.718	2396.12
425.925	2412.51
426.133	2504.67
426.341	2666.46
426.548	2789.33
426.756	2709.46
426.964	2754.52
427.171	3049.43
427.379	3035.09
427.586	3135.44
427.794	3272.65
428.001	3280.85
428.209	3397.58
428.417	3413.96
428.624	3536.84
428.832	3608.52
429.039	3598.28
429.247	3583.95
429.454	3962.82
429.662	4097.99
429.869	3917.76
430.076	4188.1
430.284	4104.13
430.491	4376.51
430.699	4433.85
430.906	4714.42
431.114	4511.68
431.321	4632.51
431.528	4605.88
431.736	5025.72
431.943	5353.39
432.15	5195.7
432.358	5224.37
432.565	5539.76
432.772	5543.85
432.979	5818.28
433.187	5918.63
433.394	5988.26
433.601	6346.66
433.808	6444.96
434.016	6301.6
434.223	6580.12
434.43	7071.64
434.637	6762.39
434.844	7219.09
435.052	7327.63
435.259	7366.54
435.466	7401.36
435.673	7292.82
435.88	7927.69
436.087	8312.71
436.294	8126.34
436.501	8062.85
436.708	8058.76
436.915	8597.37
437.122	8802.17
437.329	8771.45
437.537	9222
437.743	9187.19
437.95	9238.39
438.157	9643.88
438.364	10096.49
438.571	9979.75
438.778	9975.66
438.985	10803.04
439.192	10557.28
439.399	11071.32
439.606	10610.53
439.813	11335.51
440.02	11988.81
440.227	11734.86
440.433	11544.4
440.64	11831.12
440.847	11792.2
441.054	12117.83
441.261	13027.13
441.467	12846.91
441.674	12965.69
441.881	13387.57
442.088	13348.66
442.294	13240.12
442.501	13713.2
442.708	14124.84
442.914	14645.02
443.121	14808.86
443.328	14665.5
443.534	15607.57
443.741	15447.83
443.948	14751.52
444.154	16420.61
444.361	15986.44
444.568	15968.01
444.774	16166.67
444.981	16330.5
445.187	16525.06
445.394	17518.32
445.6	17397.49
445.807	18929.38
446.013	18106.09
446.22	18603.75
446.426	19060.45
446.633	19259.1
446.839	19793.62
447.046	19046.11
447.252	20260.55
447.459	20217.55
447.665	20066
447.871	21018.3
448.078	21909.17
448.284	20838.08
448.491	21550.78
448.697	22183.6
448.903	22613.67
449.11	22787.75
449.316	22664.87
449.522	22703.78
449.728	23262.88
449.935	23432.86
450.141	23604.89
450.347	23930.51
450.553	23213.73
450.76	23627.42
450.966	24704.65
451.172	24313.49
451.378	24970.88
451.584	24348.3
451.791	25048.71
451.997	24923.78
452.203	25419.39
452.409	25263.74
452.615	25110.14
452.821	24221.33
453.027	24037.01
453.233	25181.82
453.44	24383.12
453.646	24479.37
453.852	24725.13
454.058	25136.77
454.264	24245.9
454.47	25144.96
454.676	24604.3
454.882	25509.5
455.088	23037.6
455.294	23490.2
455.5	23711.38
455.705	23942.8
455.911	22802.08
456.117	22638.25
456.323	22458.03
456.529	21253.82
456.735	22124.21
456.941	21327.55
457.147	21370.55
457.352	20598.47
457.558	20358.86
457.764	20344.52
457.97	19930.83
458.176	19801.81
458.381	19607.25
458.587	18466.53
458.793	18540.26
458.999	17622.77
459.204	19050.21
459.41	18591.46
459.616	17016.57
459.821	17311.48
460.027	16908.03
460.233	17075.96
460.438	16082.7
460.644	16101.13
460.85	15503.12
461.055	15058.71
461.261	15292.18
461.466	13936.43
461.672	13600.56
461.878	14575.39
462.083	13594.42
462.289	13541.17
462.494	13248.31
462.7	12848.96
462.905	12445.51
463.111	12699.45
463.316	12814.14
463.522	12453.7
463.727	12554.05
463.932	12320.58
464.138	12488.51
464.343	12373.83
464.549	12351.3
464.754	12379.97
464.959	12357.44
465.165	12232.52
465.37	11691.85
465.575	11204.44
465.781	11841.36
465.986	12177.22
466.191	11495.25
466.397	11257.68
466.602	10954.58
466.807	11186.01
467.012	11261.78
467.218	11114.33
467.423	11009.88
467.628	11110.23
467.833	11454.29
468.038	10993.5
468.244	10643.29
468.449	11302.74
468.654	10899.29
468.859	10899.29
469.064	10719.07
469.269	10016.62
469.474	10291.04
469.679	10649.44
469.885	10184.55
470.09	10510.18
470.295	10229.6
470.5	10209.12
470.705	10241.89
470.91	9824.11
471.115	9860.97
471.32	10178.4
471.525	10078.05
471.73	9564.01
471.935	9572.21
472.139	9439.09
472.344	9357.17
472.549	9316.21
472.754	9232.24
472.959	9056.12
473.164	8867.7
473.369	9062.26
473.574	9037.69
473.778	9039.73
473.983	8939.38
474.188	9099.13
474.393	8488.83
474.598	8578.94
474.802	8562.56
475.007	8396.67
475.212	8316.8
475.417	7989.13
475.621	8013.7
475.826	8091.52
476.031	7862.15
476.235	7759.75
476.44	7997.32
476.645	7632.78
476.849	7710.6
477.054	7790.47
477.259	7645.07
477.463	7554.96
477.668	7391.12
477.872	7479.18
478.077	7305.1
478.282	7120.79
478.486	7235.47
478.691	7083.92
478.895	7096.21
479.1	7202.71
479.304	7032.72
479.509	6891.41
479.713	6989.72
479.918	6944.66
480.122	6866.84
480.326	6920.09
480.531	6692.76
480.735	6651.8
480.94	6594.46
481.144	6875.03
481.348	6666.14
481.553	6672.28
481.757	6303.65
481.961	6494.11
482.166	6797.21
482.37	6659.99
482.574	6559.64
482.778	6426.53
482.983	6598.56
483.187	6541.21
483.391	6672.28
483.595	6524.83
483.8	6408.09
484.004	6563.74
484.208	6547.36
484.412	6467.49
484.616	6571.93
484.821	6555.55
485.025	6264.74
485.229	6678.43
485.433	6391.71
485.637	6533.02
485.841	6500.25
486.045	6547.36
486.249	6635.42
486.453	6512.54
486.657	6399.9
486.861	6526.88
487.065	6299.55
487.269	6522.78
487.473	6432.67
487.677	6453.15
487.881	6510.49
488.085	6438.81
488.289	6608.8
488.493	6571.93
488.697	6506.4
488.901	6590.36
489.105	6467.49
489.309	6645.66
489.512	6590.36
489.716	6616.99
489.92	6707.1
490.124	6616.99
490.328	6739.87
490.531	6485.92
490.735	6801.3
490.939	6715.29
491.143	6588.32
491.346	6500.25
491.55	6772.63
491.754	6881.17
491.958	6891.41
492.161	6872.98
492.365	6934.42
492.569	6959
492.772	6997.91
492.976	6885.27
493.18	7100.31
493.383	7108.5
493.587	7268.24
493.79	7206.8
493.994	7055.25
494.197	7251.86
494.401	7190.42
494.605	7161.75
494.808	7229.33
495.012	7208.85
495.215	7309.2
495.419	7569.29
495.622	7311.25
495.825	7622.54
496.029	7606.16
496.232	7663.5
496.436	7661.45
496.639	7952.26
496.843	7882.63
497.046	8023.94
497.249	8116.1
497.453	8093.57
497.656	8150.92
497.859	8226.69
498.063	8374.14
498.266	8382.34
498.469	8374.14
498.673	8361.86
498.876	8703.87
499.079	8527.74
499.282	8894.33
499.485	8918.9
499.689	9099.13
499.892	9135.99
500.095	9158.52
500.298	9346.93
500.501	9248.63
500.705	9244.53
500.908	9430.9
501.111	9742.19
501.314	9955.18
501.517	9873.26
501.72	9973.61
501.923	9840.49
502.126	10153.83
502.329	10585.95
502.532	10372.96
502.735	10422.11
502.938	10631.01
503.141	10671.97
503.344	10860.38
503.547	10854.23
503.75	11056.98
503.953	11044.7
504.156	11472.72
504.359	11650.89
504.562	11368.27
504.765	11769.68
504.968	11851.6
505.17	11781.96
505.373	11951.95
505.576	12318.53
505.779	12177.22
505.982	12322.63
506.185	12664.64
506.387	12558.14
506.59	12994.36
506.793	12865.34
506.996	12842.81
507.198	13356.85
507.401	13242.17
507.604	13526.83
507.807	13725.49
508.009	13805.36
508.212	13889.32
508.415	13856.56
508.617	14159.66
508.82	14241.57
509.022	14053.16
509.225	14626.59
509.428	14634.78
509.63	14769.95
509.833	15025.95
510.035	15439.64
510.238	15089.43
510.44	15259.42
510.643	15669.01
510.845	15669.01
511.048	15738.64
511.25	16037.64
511.453	15959.82
511.655	16717.57
511.858	16465.67
512.06	16508.68
512.262	16793.34
512.465	16682.75
512.667	16787.2
512.87	17270.52
513.072	17340.15
513.274	17655.54
513.477	17755.89
513.679	17985.26
513.881	18116.33
514.084	18286.31
514.286	18210.54
514.488	18132.72
514.69	18923.23
514.893	18820.83
515.095	18945.76
515.297	19144.41
515.499	19240.67
515.701	19670.74
515.904	19613.4
516.106	19703.51
516.308	20045.52
516.51	20145.87
516.712	20201.16
516.914	20303.56
517.116	20510.41
517.318	20653.76
517.52	21026.5
517.722	20999.87
517.925	21384.89
518.127	21761.72
518.329	21888.69
518.531	21548.73
518.733	21794.48
518.935	22146.73
519.136	22460.07
519.338	22560.42
519.54	22787.75
519.742	23045.79
519.944	22965.92
520.146	23432.86
520.348	23549.59
520.55	23449.24
520.752	23778.97
520.954	24053.39
521.155	23910.04
521.357	24127.12
521.559	24383.12
521.761	24536.71
521.963	24561.29
522.164	24856.2
522.366	24774.28
522.568	25032.32
522.77	25376.38
522.971	25626.23
523.173	25226.88
523.375	25812.6
523.576	25544.31
523.778	25710.2
523.98	26078.83
524.181	26465.9
524.383	26265.2
524.584	26648.17
524.786	26689.13
524.988	26207.86
525.189	26891.88
525.391	27033.19
525.592	27268.7
525.794	27442.78
525.995	27410.01
526.197	27170.4
526.398	27373.15
526.6	27446.88
526.801	27991.64
527.003	27977.3
527.204	27942.49
527.406	28272.21
527.607	28257.87
527.808	28063.32
528.01	27962.97
528.211	28337.74
528.412	28794.44
528.614	28698.19
528.815	28558.92
529.016	28628.56
529.218	28724.81
529.419	28378.7
529.62	28909.13
529.822	28767.82
530.023	28917.32
530.224	28573.26
530.425	28868.17
530.626	28749.39
530.828	28714.57
531.029	29468.22
531.23	28937.8
531.431	28534.35
531.632	29144.64
531.833	29208.13
532.035	29335.1
532.236	29066.82
532.437	29435.45
532.638	28954.18
532.839	29359.68
533.04	29953.59
533.241	29386.3
533.442	29541.95
533.643	29347.39
533.844	29251.14
534.045	29578.81
534.246	29056.58
534.447	29480.51
534.648	29015.62
534.849	29546.05
535.05	28735.05
535.251	29511.23
535.451	29337.15
535.652	29363.78
535.853	29451.84
536.054	29519.42
536.255	29566.52
536.456	29279.81
536.657	30043.7
536.857	29619.77
537.058	29201.99
537.259	29451.84
537.46	29673.02
537.66	29625.92
537.861	29156.93
538.062	29386.3
538.263	29423.17
538.463	28972.61
538.664	29328.96
538.865	29605.44
539.065	29486.65
539.266	29376.06
539.466	30086.71
539.667	29072.96
539.868	29308.48
540.068	29263.43
540.269	29130.31
540.469	29306.43
540.67	29304.38
540.87	28900.93
541.071	29365.82
541.271	29376.06
541.472	29236.8
541.672	29081.16
541.873	29195.84
542.073	28950.09
542.274	29494.85
542.474	29204.03
542.675	28966.47
542.875	29279.81
543.075	29046.34
543.276	28970.57
543.476	29220.42
543.676	29103.68
543.877	29152.84
544.077	29048.39
544.277	29171.27
544.478	29107.78
544.678	29234.75
544.878	29077.06
545.078	29259.33
545.279	28722.76
545.479	29138.5
545.679	29130.31
545.879	29181.51
546.079	29009.48
546.28	28872.26
546.48	28622.41
546.68	29058.63
546.88	29283.91
547.08	28896.84
547.28	28792.39
547.48	28567.12
547.68	29298.24
547.88	28894.79
548.081	29007.43
548.281	29120.07
548.481	28874.31
548.681	29091.4
548.881	28610.12
549.081	28640.84
549.28	28417.61
549.48	28753.48
549.68	28870.22
549.88	29138.5
550.08	28546.64
550.28	28919.37
550.48	28569.16
550.68	29036.1
550.88	28495.44
551.08	28778.06
551.279	29013.57
551.479	28413.52
551.679	28878.41
551.879	28491.34
552.079	28819.02
552.278	28692.04
552.478	28560.97
552.678	28689.99
552.878	28599.88
553.077	28526.16
553.277	28452.43
553.477	28776.01
553.676	28583.5
553.876	28186.19
554.076	28747.34
554.275	28405.33
554.475	28089.94
554.674	28241.49
554.874	28728.91
555.074	28116.56
555.273	28264.02
555.473	28448.33
555.672	28206.67
555.872	28380.75
556.071	28286.54
556.271	28188.24
556.47	28247.63
556.67	27815.51
556.869	28266.06
557.068	28178
557.268	28057.17
557.467	28005.97
557.667	27797.08
557.866	27909.72
558.065	27612.76
558.265	27776.6
558.464	27782.74
558.663	28268.11
558.863	27530.84
559.062	28104.28
559.261	27049.57
559.461	27905.62
559.66	27524.7
559.859	27772.5
560.058	27530.84
560.258	27340.38
560.457	27520.6
560.656	27688.54
560.855	27266.66
561.054	27534.94
561.253	27229.79
561.453	27407.97
561.652	27600.47
561.851	27489.88
562.05	27311.71
562.249	27139.68
562.448	27373.15
562.647	26971.75
562.846	26809.96
563.045	26926.69
563.244	26791.53
563.443	27219.55
563.642	26513
563.841	26781.29
564.04	26734.18
564.239	26949.22
564.438	26707.56
564.637	26492.52
564.836	26795.62
565.035	26455.66
565.234	26558.06
565.432	26369.65
565.631	26570.35
565.83	26175.09
566.029	26275.44
566.228	26230.38
566.427	26359.41
566.625	25806.45
566.824	25945.72
567.023	26146.42
567.222	25693.82
567.42	25880.18
567.619	26449.52
567.818	25951.86
568.016	26058.35
568.215	25880.18
568.414	26021.49
568.612	25867.89
568.811	25468.54
569.01	25691.77
569.208	24952.45
569.407	25818.74
569.605	25110.14
569.804	25566.84
570.002	25329.28
570.201	25579.13
570.4	25349.76
570.598	25110.14
570.797	25073.28
570.995	25161.34
571.193	24544.91
571.392	25052.8
571.59	24551.05
571.789	24721.03
571.987	24729.22
572.186	24757.89
572.384	24389.26
572.582	24645.26
572.781	24716.93
572.979	24323.72
573.177	24108.69
573.376	24614.54
573.574	23994
573.772	24333.96
573.971	24213.13
574.169	23955.09
574.367	24010.39
574.565	24125.07
574.763	23672.47
574.962	23670.42
575.16	23439
575.358	23778.97
575.556	23746.2
575.754	23967.38
575.952	23254.69
576.151	23905.94
576.349	23514.78
576.547	23197.34
576.745	23387.8
576.943	23479.96
577.141	23248.54
577.339	23563.93
577.537	23246.49
577.735	23213.73
577.933	22865.57
578.131	23295.64
578.329	23326.36
578.527	22722.21
578.725	22986.4
578.923	22910.63
579.121	22886.05
579.319	22453.93
579.516	22810.28
579.714	22677.16
579.912	22470.31
580.11	22677.16
580.308	22546.09
580.506	22486.7
580.704	22326.96
580.901	22310.57
581.099	22576.81
581.297	22095.53
581.495	22273.71
581.692	22298.28
581.89	21880.5
582.088	22048.43
582.285	21747.38
582.483	21876.4
582.681	21821.11
582.878	21776.05
583.076	21812.92
583.274	21817.01
583.471	21536.44
583.669	21733.04
583.866	21268.16
584.064	21569.21
584.262	21104.32
584.459	21702.32
584.657	21178.04
584.854	21470.9
585.052	20940.48
585.249	20977.34
585.447	21180.09
585.644	20883.14
585.841	20864.71
586.039	21036.74
586.236	20715.2
586.434	20602.57
586.631	20393.67
586.828	20580.04
587.026	20498.12
587.223	20344.52
587.42	20418.25
587.618	20555.46
587.815	20170.44
588.012	20055.76
588.21	20244.17
588.407	20397.77
588.604	20166.35
588.801	19732.18
588.999	19955.41
589.196	19824.34
589.393	19801.81
589.59	19941.07
589.787	19871.44
589.984	19455.7
590.182	19711.7
590.379	19562.2
590.576	19527.38
590.773	19488.47
590.97	19320.54
591.167	19476.18
591.364	19097.31
591.561	19558.1
591.758	18978.53
591.955	18974.43
592.152	19314.39
592.349	19085.02
592.546	19058.4
592.743	18915.04
592.94	18652.9
593.137	18886.37
593.334	19048.16
593.531	18708.19
593.727	18673.38
593.924	18407.14
594.121	18675.43
594.318	18921.18
594.515	18470.63
594.712	18450.15
594.908	18282.22
595.105	18220.78
595.302	18157.29
595.499	18417.38
595.696	18425.57
595.892	18206.44
596.089	18034.41
596.286	17876.72
596.482	17956.59
596.679	18028.27
596.876	17983.21
597.072	17764.08
597.269	17934.06
597.466	17475.32
597.662	17626.87
597.859	17802.99
598.055	17682.16
598.252	17395.45
598.448	17469.17
598.645	17352.44
598.841	17247.99
599.038	17288.95
599.234	17295.1
599.431	17243.9
599.627	16992
599.824	17026.81
600.02	16811.78
600.217	17016.57
600.413	16948.99
600.609	16809.73
600.806	16932.61
601.002	16844.54
601.198	16686.85
601.395	16666.37
601.591	16727.81
601.787	16707.33
601.984	16586.5
602.18	16787.2
602.376	16537.35
602.572	16367.37
602.769	16205.58
602.965	16144.14
603.161	16064.27
603.357	16320.26
603.553	15933.2
603.75	15992.59
603.946	16002.83
604.142	15736.59
604.338	15918.86
604.534	16262.92
604.73	15759.12
604.926	15642.39
605.122	15728.4
605.318	15853.33
605.514	15822.61
605.71	15677.2
605.906	15447.83
606.102	15712.02
606.298	15517.46
606.494	15402.77
606.69	15503.12
606.886	15433.49
607.082	15152.92
607.278	15556.37
607.474	15154.97
607.67	15249.18
607.866	15001.37
608.062	15273.75
608.257	15304.47
608.453	15148.82
608.649	15044.38
608.845	15071
609.041	14905.12
609.236	15064.86
609.432	14872.35
609.628	14984.99
609.824	14714.66
610.019	14681.89
610.215	14683.94
610.411	14722.85
610.606	14679.84
610.802	14788.38
610.998	14657.31
611.193	14772
611.389	14667.55
611.584	14567.2
611.78	14313.25
611.976	14423.84
612.171	14249.77
612.367	14722.85
612.562	14253.86
612.758	14266.15
612.953	14169.9
613.149	14384.93
613.344	14059.31
613.539	14325.54
613.735	14155.56
613.93	14184.23
614.126	14034.73
614.321	14331.69
614.517	14239.53
614.712	13911.85
614.907	14079.79
615.103	14380.84
615.298	14120.74
615.493	14274.34
615.688	13764.4
615.884	14124.84
616.079	13887.28
616.274	13940.52
616.47	13762.35
616.665	14012.2
616.86	13854.51
617.055	13772.59
617.25	13586.22
617.445	13973.29
617.641	13543.22
617.836	13872.94
618.031	13598.51
618.226	13551.41
618.421	13371.19
618.616	13573.94
618.811	13367.09
619.006	13274.93
619.201	13150.01
619.396	13315.89
619.591	13059.9
619.786	13279.03
619.981	12949.31
620.176	13201.21
620.371	13006.65
620.566	12775.23
620.761	12951.35
620.956	13055.8
621.151	12537.66
621.346	12775.23
621.541	12635.97
621.735	12734.27
621.93	12306.24
622.125	12343.11
622.32	12255.05
622.515	12570.43
622.709	12357.44
622.904	12166.98
623.099	12089.16
623.294	12322.63
623.488	12128.07
623.683	12013.38
623.878	11937.61
624.072	12109.64
624.267	11663.18
624.462	11757.39
624.656	11732.81
624.851	11607.89
625.046	11450.19
625.24	11550.54
625.435	11401.04
625.629	11396.95
625.824	11312.98
626.018	11218.77
626.213	11032.41
626.407	11124.57
626.602	11118.42
626.796	11022.17
626.991	11020.12
627.185	10800.99
627.38	10874.71
627.574	10735.45
627.768	10567.52
627.963	10692.44
628.157	10819.42
628.352	10495.84
628.546	10407.78
628.74	10461.02
628.935	10432.35
629.129	10383.2
629.323	10258.28
629.517	10135.4
629.712	10145.64
629.906	9912.17
630.1	9955.18
630.294	9924.46
630.489	9975.66
630.683	9959.27
630.877	9817.96
631.071	9877.35
631.265	9785.19
631.459	9498.48
631.653	9607.02
631.848	9680.75
632.042	9553.77
632.236	9543.53
632.43	9326.45
632.624	9320.31
632.818	9332.59
633.012	8923
633.206	9258.87
633.4	9129.84
633.594	9066.36
633.788	9060.21
633.982	9195.38
634.176	9056.12
634.369	9160.56
634.563	9004.92
634.757	8906.62
634.951	8933.24
635.145	8701.82
635.339	8836.99
635.533	8832.89
635.726	8660.86
635.92	8621.95
636.114	8505.21
636.308	8677.24
636.501	8636.28
636.695	8494.97
636.889	8427.39
637.083	8324.99
637.276	8404.86
637.47	8148.87
637.664	8169.35
637.857	8261.51
638.051	8099.72
638.244	8169.35
638.438	8050.57
638.632	8009.61
638.825	8005.51
639.019	8007.56
639.212	7972.74
639.406	7923.59
639.599	7792.52
639.793	7776.14
639.986	7765.9
640.18	7745.42
640.373	7686.03
640.567	7497.61
640.76	7810.95
640.954	7600.01
641.147	7632.78
641.34	7401.36
641.534	7628.68
641.727	7292.82
641.92	7440.27
642.114	7309.2
642.307	7145.36
642.5	7329.68
642.694	7059.35
642.887	7198.61
643.08	7182.23
643.273	7096.21
643.467	7059.35
643.66	6942.61
643.853	7116.69
644.046	6727.58
644.239	6924.18
644.432	6866.84
644.626	6975.38
644.819	6809.5
645.012	6901.65
645.205	6829.98
645.398	6739.87
645.591	6522.78
645.784	6850.46
645.977	6549.4
646.17	6682.52
646.363	6535.07
646.556	6465.44
646.749	6434.72
646.942	6360.99
647.135	6428.57
647.328	6199.2
647.521	6344.61
647.714	6262.69
647.907	6131.62
648.099	6238.11
648.292	6096.8
648.485	6207.39
648.678	5937.06
648.871	6084.52
649.064	6115.23
649.256	5951.4
649.449	6035.36
649.642	5906.34
649.835	5883.81
650.027	5971.88
650.22	5883.81
650.413	5781.42
650.605	5785.51
650.798	5654.44
650.991	5654.44
651.183	5715.88
651.376	5621.67
651.568	5584.81
651.761	5652.39
651.954	5558.19
652.146	5435.31
652.339	5425.07
652.531	5433.26
652.724	5498.8
652.916	5291.95
653.109	5386.16
653.301	5449.64
653.494	5457.84
653.686	5277.62
653.879	5263.28
654.071	5244.85
654.263	5255.09
654.456	5183.41
654.648	5236.66
654.84	5091.25
655.033	5031.86
655.225	5212.08
655.417	5113.78
655.61	5154.74
655.802	5119.92
655.994	5144.5
656.186	4908.98
656.379	4902.84
656.571	5017.52
656.763	4951.99
656.955	4995
657.148	4841.4
657.34	4767.67
657.532	4640.7
657.724	4777.91
657.916	4605.88
658.108	4743.1
658.3	4597.69
658.492	4716.47
658.684	4550.59
658.876	4681.66
659.068	4673.46
659.26	4503.48
659.452	4736.95
659.644	4550.59
659.836	4560.83
660.028	4423.61
660.22	4370.37
660.412	4442.04
660.604	4368.32
660.796	4401.08
660.988	4378.56
661.18	4261.82
661.372	4282.3
661.563	4378.56
661.755	4204.48
661.947	4224.96
662.139	4188.1
662.331	4239.3
662.522	4149.18
662.714	4128.7
662.906	3975.11
663.097	4104.13
663.289	4067.27
663.481	3960.77
663.673	4130.75
663.864	4095.94
664.056	3846.09
664.247	4009.92
664.439	3991.49
664.631	3901.38
664.822	4024.26
665.014	3991.49
665.205	3966.92
665.397	3860.42
665.588	3813.32
665.78	3841.99
665.971	3782.6
666.163	3825.61
666.354	3880.9
666.546	3868.61
666.737	3778.5
666.929	3696.58
667.12	3674.06
667.311	3622.86
667.503	3733.45
667.694	3854.28
667.885	3581.9
668.077	3608.52
668.268	3702.73
668.459	3655.62
668.651	3727.3
668.842	3571.66
669.033	3551.18
669.224	3499.98
669.416	3553.23
669.607	3600.33
669.798	3616.71
669.989	3493.83
670.18	3516.36
670.371	3430.35
670.563	3397.58
670.754	3332.05
670.945	3350.48
671.136	3430.35
671.327	3278.8
671.518	3348.43
671.709	3391.44
671.9	3485.64
672.091	3352.52
672.282	3250.13
672.473	3295.18
672.664	3164.11
672.855	3229.65
673.046	3299.28
673.237	3338.19
673.428	3164.11
673.619	3448.78
673.809	3205.07
674	3270.61
674.191	3125.2
674.382	3225.55
674.573	3180.5
674.764	3174.35
674.954	3166.16
675.145	3262.41
675.336	3119.06
675.527	3135.44
675.717	3147.73
675.908	3026.9
676.099	3168.21
676.289	3119.06
676.48	2981.84
676.671	3248.08
676.861	3090.38
677.052	3170.26
677.243	3049.43
677.433	3096.53
677.624	3192.78
677.814	3008.47
678.005	3123.15
678.195	3092.43
678.386	3129.3
678.576	3086.29
678.767	3055.57
678.957	3096.53
679.148	3117.01
679.338	3114.96
679.529	2924.5
679.719	3000.27
679.909	2944.98
680.1	2877.4
680.29	3035.09
680.481	2983.89
680.671	2912.21
680.861	2959.31
681.052	3033.04
681.242	2850.77
681.432	2926.55
681.622	2914.26
681.813	3006.42
682.003	2869.2
682.193	2897.88
682.383	2887.64
682.573	2904.02
682.764	2799.57
682.954	3012.56
683.144	2854.87
683.334	2949.07
683.524	2861.01
683.714	2877.4
683.904	2908.12
684.094	2815.96
684.284	2838.48
684.474	2910.16
684.664	2869.2
684.854	2852.82
685.044	2789.33
685.234	2691.03
685.424	2758.61
685.614	2840.53
685.804	2836.44
685.994	2656.22
686.184	2775
686.374	2910.16
686.564	2752.47
686.753	2731.99
686.943	2592.73
687.133	2666.46
687.323	2787.29
687.513	2658.26
687.702	2611.16
687.892	2656.22
688.082	2664.41
688.272	2525.15
688.461	2672.6
688.651	2557.91
688.841	2613.21
689.03	2582.49
689.22	2623.45
689.41	2473.95
689.599	2568.15
689.789	2490.33
689.979	2598.87
690.168	2549.72
690.358	2486.23
690.547	2408.41
690.737	2492.38
690.926	2398.17
691.116	2486.23
691.305	2443.23
691.495	2396.12
691.684	2365.4
691.874	2320.35
692.063	2404.32
692.252	2344.92
692.442	2369.5
692.631	2379.74
692.82	2435.03
693.01	2340.83
693.199	2340.83
693.388	2346.97
693.578	2179.04
693.767	2230.24
693.956	2322.4
694.146	2181.09
694.335	2133.98
694.524	2224.09
694.713	2217.95
694.902	2283.49
695.092	2281.44
695.281	2158.56
695.47	2176.99
695.659	2248.67
695.848	2174.94
696.037	2148.32
696.226	2160.61
696.415	2140.13
696.604	2224.09
696.793	2025.44
696.982	2041.82
697.171	2082.78
697.36	2160.61
697.549	2150.37
697.738	2115.55
697.927	2002.91
698.116	2060.26
698.305	2133.98
698.494	2021.35
698.683	2127.84
698.872	2097.12
699.061	2045.92
699.25	2017.25
699.438	2148.32
699.627	2056.16
699.816	1939.43
700.005	2025.44
700.193	2107.36
700.382	1982.43
700.571	1996.77
700.76	2090.98
700.948	2007.01
701.137	1978.34
701.326	1998.82
701.514	1959.91
701.703	2002.91
701.892	1978.34
702.08	2070.5
702.269	2043.87
702.457	1882.08
702.646	2019.3
702.834	1949.67
703.023	1939.43
703.212	1988.58
703.4	1931.23
703.589	1945.57
703.777	1929.19
703.965	1886.18
704.154	1974.24
704.342	1861.6
704.531	1931.23
704.719	1902.56
704.907	2052.06
705.096	1976.29
705.284	2043.87
705.472	1964
705.661	2025.44
705.849	1988.58
706.037	1890.28
706.226	1918.95
706.414	1978.34
706.602	1714.15
706.79	1898.47
706.979	1988.58
707.167	1849.32
707.355	1744.87
707.543	1845.22
707.731	1939.43
707.919	1896.42
708.107	1871.84
708.296	1839.08
708.484	1902.56
708.672	1841.12
708.86	1935.33
709.048	1908.71
709.236	1888.23
709.424	1824.74
709.612	1886.18
709.8	1886.18
709.988	1920.99
710.176	1914.85
710.364	1943.52
710.551	1964
710.739	1869.8
710.927	1877.99
711.115	1871.84
711.303	1920.99
711.491	1892.32
711.679	1845.22
711.866	1806.31
712.054	1853.41
712.242	1986.53
712.43	1943.52
712.617	1832.93
712.805	2013.15
712.993	1904.61
713.181	1816.55
713.368	2009.06
713.556	1828.84
713.744	1830.88
713.931	1994.72
714.119	1994.72
714.306	1931.23
714.494	1886.18
714.682	1896.42
714.869	1857.51
715.057	1992.67
715.244	1828.84
715.432	1920.99
715.619	1933.28
715.807	1845.22
715.994	1839.08
716.182	1894.37
716.369	1886.18
716.556	1861.6
716.744	1863.65
716.931	1845.22
717.119	1918.95
717.306	1787.88
717.493	1894.37
717.681	1902.56
717.868	1871.84
718.055	1951.71
718.242	2009.06
718.43	1886.18
718.617	1953.76
718.804	1888.23
718.991	1945.57
719.179	1951.71
719.366	1918.95
719.553	2011.11
719.74	1890.28
719.927	2033.63
720.114	1875.94
720.301	1923.04
720.488	1904.61
720.676	1964
720.863	2000.87
721.05	1873.89
721.237	1929.19
721.424	1957.86
721.611	1896.42
721.798	1908.71
721.985	1877.99
722.172	2023.39
722.358	1908.71
722.545	1984.48
722.732	2011.11
722.919	1943.52
723.106	1939.43
723.293	1990.63
723.48	1906.66
723.667	1978.34
723.853	1869.8
724.04	1918.95
724.227	1978.34
724.414	2050.02
724.6	1898.47
724.787	2078.69
724.974	1955.81
725.161	2029.54
725.347	1910.75
725.534	1957.86
725.72	2017.25
725.907	1933.28
726.094	1976.29
726.28	2015.2
726.467	2037.73
726.653	2015.2
726.84	2000.87
727.027	1982.43
727.213	1923.04
727.4	1968.1
727.586	1968.1
727.773	1869.8
727.959	1918.95
728.145	2033.63
728.332	1947.62
728.518	1968.1
728.705	1951.71
728.891	1869.8
729.077	2066.4
729.264	2090.98
729.45	1992.67
729.636	2078.69
729.823	2031.59
730.009	1972.19
730.195	2054.11
730.382	1931.23
730.568	2082.78
730.754	1943.52
730.94	2000.87
731.126	1978.34
731.313	1992.67
731.499	2000.87
731.685	1937.38
731.871	2142.18
732.057	2082.78
732.243	1951.71
732.429	1996.77
732.615	2086.88
732.801	2058.21
732.987	2017.25
733.173	2027.49
733.359	2050.02
733.545	2076.64
733.731	2023.39
733.917	2000.87
734.103	2037.73
734.289	2232.29
734.475	2050.02
734.661	2078.69
734.847	2093.02
735.033	2033.63
735.219	2041.82
735.404	2093.02
735.59	2172.89
735.776	2000.87
735.962	2050.02
736.148	2052.06
736.333	2025.44
736.519	2064.35
736.705	2101.22
736.89	2099.17
737.076	1992.67
737.262	1959.91
737.447	1980.39
737.633	2002.91
737.819	2078.69
738.004	1976.29
738.19	1986.53
738.375	1978.34
738.561	2103.26
738.747	1986.53
738.932	2017.25
739.118	2090.98
739.303	2052.06
739.489	2041.82
739.674	2009.06
739.859	2011.11
740.045	1853.41
740.23	2074.59
740.416	2002.91
740.601	2099.17
740.786	1951.71
740.972	1947.62
741.157	2062.3
741.342	1947.62
741.528	2041.82
741.713	2004.96
741.898	2002.91
742.084	1945.57
742.269	2029.54
742.454	1857.51
742.639	2043.87
742.824	2041.82
743.01	1769.44
743.195	2033.63
743.38	1937.38
743.565	1894.37
743.75	1857.51
743.935	1906.66
744.12	1964
744.305	1861.6
744.49	1927.14
744.675	1861.6
744.86	1789.92
745.045	1886.18
745.23	1951.71
745.415	1902.56
745.6	1912.8
745.785	1789.92
745.97	1851.36
746.155	1787.88
746.34	1773.54
746.525	1830.88
746.71	1896.42
746.895	1789.92
747.079	1759.21
747.264	1691.62
747.449	1787.88
747.634	1714.15
747.819	1771.49
748.003	1693.67
748.188	1773.54
748.373	1767.4
748.557	1748.97
748.742	1691.62
748.927	1611.75
749.111	1730.53
749.296	1603.56
749.481	1609.7
749.665	1615.85
749.85	1648.61
750.034	1671.14
750.219	1609.7
750.404	1601.51
750.588	1665
750.773	1619.94
750.957	1591.27
751.141	1587.18
751.326	1652.71
751.51	1583.08
751.695	1452.01
751.879	1495.02
752.064	1509.35
752.248	1476.59
752.432	1521.64
752.617	1540.07
752.801	1529.83
752.985	1486.83
753.17	1509.35
753.354	1480.68
753.538	1437.67
753.722	1525.74
753.907	1374.19
754.091	1384.43
754.275	1294.32
754.459	1325.04
754.643	1341.42
754.828	1406.95
755.012	1282.03
755.196	1423.34
755.38	1427.43
755.564	1300.46
755.748	1372.14
755.932	1259.5
756.116	1298.41
756.3	1312.75
756.484	1339.37
756.668	1298.41
756.852	1177.58
757.036	1392.62
757.22	1269.74
757.404	1380.33
757.588	1206.25
757.772	1214.45
757.956	1193.97
758.14	1282.03
758.323	1202.16
758.507	1290.22
758.691	1224.69
758.875	1116.14
759.059	1140.72
759.242	1247.21
759.426	1165.29
759.61	1200.11
759.794	1132.53
759.977	1126.38
760.161	1193.97
760.345	1148.91
760.528	1083.38
760.712	1079.28
760.895	1153.01
761.079	1005.55
761.263	1038.32
761.446	1116.14
761.63	968.69
761.813	1103.86
761.997	1038.32
762.18	1077.23
762.364	1042.42
762.547	962.55
762.731	1069.04
762.914	1032.18
763.098	1044.46
763.281	1019.89
763.464	1015.79
763.648	1038.32
763.831	1050.61
764.015	1038.32
764.198	993.26
764.381	1032.18
764.564	968.69
764.748	1075.18
764.931	1034.22
765.114	897.01
765.297	1011.7
765.481	954.35
765.664	1019.89
765.847	931.83
766.03	968.69
766.213	874.48
766.397	944.11
766.58	985.07
766.763	935.92
766.946	882.67
767.129	931.83
767.312	915.44
767.495	894.96
767.678	874.48
767.861	952.31
768.044	976.88
768.227	819.19
768.41	825.33
768.593	944.11
768.776	911.35
768.959	880.63
769.142	761.84
769.324	862.19
769.507	876.53
769.69	880.63
769.873	829.43
770.056	835.57
770.239	884.72
770.421	835.57
770.604	825.33
770.787	858.1
770.97	817.14
771.152	763.89
771.335	802.8
771.518	790.52
771.7	837.62
771.883	858.1
772.066	790.52
772.248	819.19
772.431	747.51
772.613	839.67
772.796	774.13
772.978	757.75
773.161	772.08
773.343	708.6
773.526	733.17
773.708	772.08
773.891	677.88
774.073	718.84
774.256	731.12
774.438	747.51
774.621	616.44
774.803	739.32
774.985	698.36
775.168	722.93
775.35	628.73
775.532	755.7
775.715	714.74
775.897	724.98
776.079	704.5
776.261	634.87
776.444	698.36
776.626	661.49
776.808	641.01
776.99	649.21
777.173	669.69
777.355	657.4
777.537	698.36
777.719	716.79
777.901	651.25
778.083	559.1
778.265	624.63
778.447	618.49
778.629	595.96
778.811	591.86
778.993	552.95
779.175	600.05
779.357	681.97
779.539	561.14
779.721	620.53
779.903	581.62
780.085	534.52
780.267	600.05
780.449	624.63
780.631	544.76
780.812	546.81
780.994	585.72
781.176	518.14
781.358	575.48
781.54	462.84
781.721	536.57
781.903	534.52
782.085	518.14
782.267	567.29
782.448	446.46
782.63	528.38
782.812	466.94
782.993	561.14
783.175	518.14
783.357	528.38
783.538	452.6
783.72	409.59
783.901	436.22
784.083	491.51
784.264	489.46
784.446	417.79
784.627	471.03
784.809	378.87
784.99	456.7
785.172	448.51
785.353	473.08
785.535	524.28
785.716	434.17
785.897	362.49
786.079	468.98
786.26	481.27
786.441	387.07
786.623	397.31
786.804	401.4
786.985	387.07
787.167	421.88
787.348	468.98
787.529	372.73
787.71	485.37
787.891	397.31
788.073	284.67
788.254	378.87
788.435	456.7
788.616	397.31
788.797	303.1
788.978	364.54
789.159	380.92
789.34	389.11
789.522	387.07
789.703	313.34
789.884	403.45
790.065	239.61
790.246	456.7
790.427	380.92
790.607	323.58
790.788	380.92
790.969	296.96
791.15	407.55
791.331	342.01
791.512	239.61
791.693	354.3
791.874	348.15
792.054	382.97
792.235	350.2
792.416	352.25
792.597	313.34
792.778	362.49
792.958	317.44
793.139	342.01
793.32	325.63
793.5	290.81
793.681	262.14
793.862	309.24
794.042	126.97
794.223	266.24
794.404	354.3
794.584	346.11
794.765	256
794.945	256
795.126	290.81
795.306	329.72
795.487	288.76
795.667	225.28
795.848	288.76
796.028	284.67
796.209	260.09
796.389	321.53
796.57	366.59
796.75	225.28
796.93	321.53
797.111	264.19
797.291	219.13
797.471	239.61
797.652	202.75
797.832	294.91
798.012	288.76
798.192	235.52
798.373	243.71
798.553	208.89
798.733	174.08
798.913	247.8
799.093	313.34
799.274	268.28
799.454	262.14
799.634	202.75
799.814	323.58
799.994	233.47
800.174	241.66
800.354	204.8
800.534	245.76
800.714	227.32
800.894	258.04
801.074	186.37
801.254	151.55
801.434	206.84
801.614	288.76
801.794	200.7
801.974	815.09
802.154	247.8
802.334	241.66
802.514	153.6
802.693	176.13
802.873	217.08
803.053	239.61
803.233	233.47
803.413	208.89
803.592	198.65
803.772	215.04
803.952	163.84
804.131	151.55
804.311	186.37
804.491	186.37
804.67	198.65
804.85	151.55
805.03	206.84
805.209	231.42
805.389	227.32
805.568	280.57
805.748	186.37
805.928	210.94
806.107	227.32
806.287	221.18
806.466	249.85
806.646	135.17
806.825	165.89
807.004	200.7
807.184	184.32
807.363	200.7
807.543	208.89
807.722	149.5
807.901	241.66
808.081	264.19
808.26	90.11
808.439	165.89
808.619	174.08
808.798	200.7
808.977	215.04
809.156	186.37
809.336	151.55
809.515	206.84
809.694	94.21
809.873	182.27
810.052	219.13
810.231	190.46
810.411	116.73
810.59	178.17
810.769	139.26
810.948	174.08
811.127	126.97
811.306	133.12
811.485	153.6
811.664	131.07
811.843	190.46
812.022	135.17
812.201	92.16
812.38	94.21
812.559	149.5
812.737	239.61
812.916	122.88
813.095	90.11
813.274	149.5
813.453	165.89
813.632	88.06
813.811	108.54
813.989	143.36
814.168	96.25
814.347	151.55
814.526	100.35
814.704	133.12
814.883	149.5
815.062	124.93
815.24	133.12
815.419	190.46
815.598	118.78
815.776	210.94
815.955	108.54
816.133	137.21
816.312	116.73
816.49	51.2
816.669	137.21
816.847	143.36
817.026	157.69
817.204	118.78
817.383	159.74
817.561	22.53
817.74	149.5
817.918	108.54
818.097	167.93
818.275	112.64
818.453	157.69
818.632	161.79
818.81	157.69
818.988	79.87
819.167	69.63
819.345	63.49
819.523	153.6
819.701	92.16
819.879	133.12
820.058	100.35
820.236	112.64
820.414	59.39
820.592	118.78
820.77	124.93
820.948	120.83
821.127	149.5
821.305	83.97
821.483	118.78
821.661	110.59
821.839	124.93
822.017	137.21
822.195	36.86
822.373	100.35
822.551	43.01
822.729	83.97
822.907	102.4
823.085	137.21
823.262	126.97
823.44	112.64
823.618	47.1
823.796	83.97
823.974	43.01
824.152	-10.24
824.329	92.16
824.507	36.86
824.685	215.04
824.863	165.89
825.04	190.46
825.218	108.54
825.396	-6.14
825.574	51.2
825.751	100.35
825.929	71.68
826.107	92.16
826.284	67.58
826.462	100.35
826.639	59.39
826.817	55.3
826.994	79.87
827.172	4.1
827.349	118.78
827.527	88.06
827.704	143.36
827.882	83.97
828.059	96.25
828.237	59.39
828.414	92.16
828.591	20.48
828.769	106.49
828.946	51.2
829.124	96.25
829.301	129.02
829.478	63.49
829.655	45.06
829.833	34.82
830.01	-43.01
830.187	86.01
830.364	75.77
830.542	47.1
830.719	43.01
830.896	90.11
831.073	28.67
831.25	67.58
831.427	116.73
831.604	145.41
831.782	71.68
831.959	55.3
832.136	-36.86
832.313	51.2
832.49	120.83
832.667	81.92
832.844	94.21
833.021	120.83
833.198	30.72
833.374	51.2
833.551	75.77
833.728	26.62
833.905	151.55
834.082	47.1
834.259	108.54
834.436	59.39
834.612	63.49
834.789	118.78
834.966	49.15
835.143	112.64
835.319	-30.72
835.496	149.5
835.673	51.2
835.85	100.35
836.026	51.2
836.203	32.77
836.38	55.3
836.556	67.58
836.733	-10.24
836.909	34.82
837.086	77.82
837.262	-2.05
837.439	-28.67
837.616	53.25
837.792	69.63
837.968	86.01
838.145	47.1
838.321	28.67
838.498	79.87
838.674	34.82
838.851	63.49
839.027	34.82
839.203	131.07
839.38	51.2
839.556	28.67
839.732	129.02
839.909	18.43
840.085	53.25
840.261	28.67
840.437	141.31
840.614	14.34
840.79	94.21
840.966	126.97
841.142	59.39
841.318	126.97
841.494	75.77
841.671	135.17
841.847	100.35
842.023	38.91
842.199	34.82
842.375	65.54
842.551	6.14
842.727	30.72
842.903	65.54
843.079	43.01
843.255	26.62
843.431	22.53
843.607	30.72
843.783	2.05
843.959	28.67
844.134	2.05
844.31	100.35
844.486	-4.1
844.662	18.43
844.838	63.49
845.013	12.29
845.189	-47.1
845.365	-6.14
845.541	28.67
845.716	34.82
845.892	24.58
846.068	-6.14
846.244	14.34
846.419	55.3
846.595	-26.62
846.77	-2.05
846.946	4.1
847.122	30.72
847.297	-38.91
847.473	-6.14
847.648	-14.34
847.824	26.62
847.999	-20.48
848.175	-20.48
848.35	-22.53
848.526	61.44
848.701	22.53
848.876	77.82
849.052	18.43
849.227	28.67
849.403	59.39
849.578	12.29
849.753	16.38
849.929	118.78
850.104	-6.14
850.279	43.01
850.454	-18.43
850.63	43.01
850.805	20.48
850.98	53.25
851.155	-14.34
851.33	20.48
851.505	-36.86
851.681	83.97
851.856	36.86
852.031	12.29
852.206	26.62
852.381	2.05
852.556	-4.1
852.731	49.15
852.906	22.53
853.081	81.92
853.256	26.62
853.431	43.01
853.606	43.01
853.781	24.58
853.956	6.14
854.131	40.96
854.305	-2.05
854.48	-45.06
854.655	-32.77
854.83	79.87
855.005	0
855.18	8.19
855.354	51.2
855.529	16.38
855.704	-4.1
855.879	71.68
856.053	22.53
856.228	47.1
856.403	26.62
856.577	59.39
856.752	43.01
856.926	-22.53
857.101	67.58
857.276	10.24
857.45	20.48
857.625	124.93
857.799	36.86
857.974	-12.29
858.148	-6.14
858.323	53.25
858.497	-4.1
858.672	28.67
858.846	-22.53
859.02	-10.24
859.195	6.14
859.369	-61.44
859.543	28.67
859.718	55.3
859.892	63.49
860.066	51.2
860.241	-30.72
860.415	26.62
860.589	-28.67
860.763	10.24
860.938	24.58
861.112	-34.82
861.286	-26.62
861.46	51.2
861.634	34.82
861.808	6.14
861.982	-28.67
862.157	-18.43
862.331	36.86
862.505	38.91
862.679	-28.67
862.853	-6.14
863.027	14.34
863.201	79.87
863.375	-26.62
863.549	6.14
863.722	-36.86
863.896	18.43
864.07	10.24
864.244	18.43
864.418	-6.14
864.592	14.34
864.766	-12.29
864.939	-14.34
865.113	-4.1
865.287	51.2
865.461	-4.1
865.634	-4.1
865.808	28.67
865.982	-30.72
866.156	43.01
866.329	12.29
866.503	83.97
866.676	22.53
866.85	6.14
867.024	69.63
867.197	77.82
867.371	43.01
867.544	32.77
867.718	2.05
867.891	34.82
868.065	-14.34
868.238	10.24
868.412	83.97
868.585	2.05
868.759	75.77
868.932	-34.82
869.105	-55.3
869.279	-38.91
869.452	-59.39
869.625	-61.44
869.799	53.25
869.972	-4.1
870.145	18.43
870.319	22.53
870.492	-2.05
870.665	-43.01
870.838	-65.54
871.011	-22.53
871.185	-40.96
871.358	-55.3
871.531	2.05
871.704	2.05
871.877	34.82
872.05	30.72
872.223	4.1
872.396	-30.72
872.569	53.25
872.742	10.24
872.915	57.34
873.088	-14.34
873.261	20.48
873.434	22.53
873.607	-10.24
873.78	34.82
873.953	26.62
874.126	-112.64
874.299	63.49
874.471	-2.05
874.644	-10.24
874.817	75.77
874.99	114.69
875.163	-4.1
875.335	-30.72
875.508	-6.14
875.681	-4.1
875.853	-8.19
876.026	51.2
876.199	34.82
876.371	77.82
876.544	40.96
876.717	16.38
876.889	-10.24
877.062	18.43
877.234	12.29
877.407	-12.29
877.579	-40.96
877.752	51.2
877.924	-30.72
878.097	71.68
878.269	-10.24
878.442	-26.62
878.614	-34.82
878.786	-10.24
878.959	-6.14
879.131	-16.38
879.303	10.24
879.476	-22.53
879.648	45.06
879.82	30.72
879.993	-57.34
880.165	-12.29
880.337	-55.3
880.509	28.67
880.681	-96.25
880.854	-2.05
881.026	14.34
881.198	81.92
881.37	47.1
881.542	12.29
881.714	61.44
881.886	18.43
882.058	2.05
882.23	43.01
882.402	-30.72
882.574	-20.48
882.746	14.34
882.918	34.82
883.09	2.05
883.262	10.24
883.434	-30.72
883.606	34.82
883.778	16.38
883.95	59.39
884.122	0
884.293	18.43
884.465	-26.62
884.637	104.45
884.809	-94.21
884.98	-26.62
885.152	18.43
885.324	0
885.496	4.1
885.667	-6.14
885.839	-22.53
886.011	26.62
886.182	-53.25
886.354	59.39
886.525	18.43
886.697	-47.1
886.869	8.19
887.04	20.48
887.212	6.14
887.383	110.59
887.555	63.49
887.726	12.29
887.897	-57.34
888.069	10.24
888.24	-51.2
888.412	-69.63
888.583	-49.15
888.754	38.91
888.926	-14.34
889.097	20.48
889.268	-32.77
889.44	36.86
889.611	-24.58
889.782	-61.44
889.953	-38.91
890.125	34.82
890.296	-86.01
890.467	-106.49
890.638	-30.72
890.809	26.62
890.98	20.48
891.151	69.63
891.323	30.72
891.494	67.58
891.665	26.62
891.836	55.3
892.007	16.38
892.178	43.01
892.349	12.29
892.52	-71.68
892.691	-14.34
892.862	6.14
893.032	-45.06
893.203	-22.53
893.374	71.68
893.545	-40.96
893.716	38.91
893.887	20.48
894.057	4.1
894.228	6.14
894.399	-32.77
894.57	2.05
894.74	2.05
894.911	-12.29
895.082	-20.48
895.253	-28.67
895.423	-47.1
895.594	26.62
895.764	-14.34
895.935	-55.3
896.106	55.3
896.276	-14.34
896.447	0
896.617	-79.87
896.788	4.1
896.958	-47.1
897.129	-22.53
897.299	4.1
897.47	10.24
897.64	51.2
897.81	88.06
897.981	-20.48
898.151	-47.1
898.322	34.82
898.492	22.53
898.662	10.24
898.832	18.43
899.003	-47.1
899.173	-2.05
899.343	-61.44
899.513	-59.39
