Data from USB4F104151__192__14-45-13-411.txt Node

Date: Thu Mar 13 14:45:13 EDT 2025
User: louis
Spectrometer: USB4F10415
Trigger mode: 4
Integration Time (sec): 2.000000E-2
Scans to average: 1
Electric dark correction enabled: true
Nonlinearity correction enabled: false
Boxcar width: 0
XAxis mode: Wavelengths
Number of Pixels in Spectrum: 3648
>>>>>Begin Spectral Data<<<<<
178.204	-84.82
178.424	-84.82
178.644	-84.82
178.864	-148.31
179.084	-113.49
179.304	-90.96
179.524	52.39
179.744	29.87
179.964	-19.29
180.184	-31.57
180.404	7.34
180.624	-21.33
180.844	38.06
181.064	-11.09
181.283	54.44
181.503	-17.24
181.723	9.39
181.943	-31.57
182.163	38.06
182.383	-7
182.602	21.67
182.822	29.87
183.042	105.64
183.262	5.29
183.482	5.29
183.701	29.87
183.921	25.77
184.141	-17.24
184.361	29.87
184.58	-0.85
184.8	-27.48
185.02	17.58
185.239	97.45
185.459	-60.24
185.679	119.98
185.898	-31.57
186.118	87.21
186.338	-64.34
186.557	29.87
186.777	-37.72
186.997	-15.19
187.216	31.91
187.436	25.77
187.655	5.29
187.875	70.83
188.095	36.01
188.314	122.02
188.534	64.68
188.753	23.72
188.973	40.11
189.192	21.67
189.412	-23.38
189.631	46.25
189.851	7.34
190.07	97.45
190.29	-7
190.509	5.29
190.729	79.02
190.948	33.96
191.168	173.22
191.387	54.44
191.607	15.53
191.826	13.48
192.045	-21.33
192.265	40.11
192.484	40.11
192.704	21.67
192.923	54.44
193.142	140.46
193.362	-11.09
193.581	79.02
193.8	11.43
194.02	70.83
194.239	3.24
194.458	42.15
194.678	25.77
194.897	7.34
195.116	29.87
195.335	48.3
195.555	81.07
195.774	36.01
195.993	42.15
196.212	-2.9
196.432	29.87
196.651	23.72
196.87	-17.24
197.089	40.11
197.308	21.67
197.528	54.44
197.747	-25.43
197.966	33.96
198.185	66.73
198.404	19.63
198.623	74.92
198.842	89.26
199.062	68.78
199.281	74.92
199.5	5.29
199.719	21.67
199.938	13.48
200.157	48.3
200.376	21.67
200.595	64.68
200.814	48.3
201.033	-17.24
201.252	29.87
201.471	70.83
201.69	-47.96
201.909	46.25
202.128	-2.9
202.347	9.39
202.566	38.06
202.785	-0.85
203.004	-39.76
203.223	119.98
203.442	13.48
203.661	48.3
203.879	29.87
204.098	-17.24
204.317	17.58
204.536	23.72
204.755	50.35
204.974	62.63
205.193	50.35
205.411	111.78
205.63	-7
205.849	9.39
206.068	-35.67
206.287	13.48
206.505	29.87
206.724	-52.05
206.943	23.72
207.162	-31.57
207.381	15.53
207.599	21.67
207.818	74.92
208.037	44.2
208.255	11.43
208.474	7.34
208.693	38.06
208.911	23.72
209.13	9.39
209.349	46.25
209.567	9.39
209.786	11.43
210.005	25.77
210.223	103.59
210.442	62.63
210.661	97.45
210.879	-47.96
211.098	-0.85
211.316	113.83
211.535	15.53
211.753	46.25
211.972	103.59
212.191	23.72
212.409	40.11
212.628	5.29
212.846	-13.14
213.065	119.98
213.283	60.59
213.502	-23.38
213.72	-35.67
213.938	-2.9
214.157	-4.95
214.375	21.67
214.594	56.49
214.812	5.29
215.031	-35.67
215.249	15.53
215.467	27.82
215.686	38.06
215.904	48.3
216.122	21.67
216.341	64.68
216.559	-31.57
216.778	62.63
216.996	72.87
217.214	38.06
217.432	72.87
217.651	21.67
217.869	21.67
218.087	70.83
218.306	-2.9
218.524	87.21
218.742	-45.91
218.96	50.35
219.179	-31.57
219.397	23.72
219.615	103.59
219.833	19.63
220.051	-27.48
220.27	-50
220.488	36.01
220.706	5.29
220.924	-43.86
221.142	31.91
221.36	23.72
221.578	5.29
221.796	36.01
222.015	31.91
222.233	66.73
222.451	62.63
222.669	-17.24
222.887	-35.67
223.105	58.54
223.323	58.54
223.541	-33.62
223.759	58.54
223.977	103.59
224.195	27.82
224.413	-0.85
224.631	25.77
224.849	62.63
225.067	132.26
225.285	-2.9
225.503	58.54
225.721	9.39
225.939	42.15
226.157	-19.29
226.375	44.2
226.592	117.93
226.81	64.68
227.028	31.91
227.246	95.4
227.464	13.48
227.682	29.87
227.9	23.72
228.117	23.72
228.335	62.63
228.553	9.39
228.771	50.35
228.989	54.44
229.206	70.83
229.424	19.63
229.642	29.87
229.86	-39.76
230.077	42.15
230.295	19.63
230.513	56.49
230.731	56.49
230.948	62.63
231.166	107.69
231.384	21.67
231.601	25.77
231.819	99.5
232.037	70.83
232.254	-43.86
232.472	101.55
232.689	-2.9
232.907	101.55
233.125	15.53
233.342	44.2
233.56	13.48
233.777	-29.52
233.995	33.96
234.213	46.25
234.43	13.48
234.648	-39.76
234.865	-11.09
235.083	56.49
235.3	-9.05
235.518	79.02
235.735	70.83
235.953	91.31
236.17	70.83
236.388	27.82
236.605	-13.14
236.822	70.83
237.04	-35.67
237.257	70.83
237.475	25.77
237.692	-9.05
237.909	38.06
238.127	11.43
238.344	-7
238.562	64.68
238.779	-41.81
238.996	-17.24
239.214	-35.67
239.431	-23.38
239.648	5.29
239.865	48.3
240.083	85.16
240.3	48.3
240.517	25.77
240.735	107.69
240.952	27.82
241.169	87.21
241.386	-17.24
241.603	58.54
241.821	-74.58
242.038	79.02
242.255	25.77
242.472	9.39
242.689	5.29
242.907	66.73
243.124	5.29
243.341	79.02
243.558	13.48
243.775	15.53
243.992	-7
244.209	87.21
244.426	103.59
244.643	36.01
244.86	-0.85
245.078	64.68
245.295	-7
245.512	62.63
245.729	-60.24
245.946	72.87
246.163	-43.86
246.38	15.53
246.597	5.29
246.814	25.77
247.031	-35.67
247.248	15.53
247.464	27.82
247.681	29.87
247.898	62.63
248.115	50.35
248.332	103.59
248.549	-2.9
248.766	58.54
248.983	44.2
249.2	29.87
249.417	79.02
249.633	23.72
249.85	85.16
250.067	52.39
250.284	-19.29
250.501	21.67
250.717	15.53
250.934	-9.05
251.151	29.87
251.368	58.54
251.585	1.19
251.801	25.77
252.018	81.07
252.235	89.26
252.451	-11.09
252.668	33.96
252.885	9.39
253.102	38.06
253.318	46.25
253.535	38.06
253.752	-11.09
253.968	48.3
254.185	70.83
254.401	7.34
254.618	70.83
254.835	56.49
255.051	58.54
255.268	76.97
255.484	17.58
255.701	44.2
255.917	15.53
256.134	17.58
256.351	58.54
256.567	15.53
256.784	33.96
257	29.87
257.217	83.11
257.433	-19.29
257.65	-2.9
257.866	40.11
258.082	21.67
258.299	5.29
258.515	68.78
258.732	25.77
258.948	7.34
259.165	9.39
259.381	13.48
259.597	38.06
259.814	-0.85
260.03	-0.85
260.246	40.11
260.463	56.49
260.679	29.87
260.895	5.29
261.112	23.72
261.328	46.25
261.544	13.48
261.761	81.07
261.977	79.02
262.193	-47.96
262.409	3.24
262.626	72.87
262.842	-2.9
263.058	50.35
263.274	103.59
263.49	-11.09
263.707	95.4
263.923	5.29
264.139	-39.76
264.355	-43.86
264.571	54.44
264.787	15.53
265.004	109.74
265.22	42.15
265.436	7.34
265.652	-9.05
265.868	68.78
266.084	-11.09
266.3	62.63
266.516	19.63
266.732	-25.43
266.948	38.06
267.164	-0.85
267.38	74.92
267.596	140.46
267.812	79.02
268.028	119.98
268.244	-9.05
268.46	-76.63
268.676	38.06
268.892	7.34
269.108	5.29
269.324	46.25
269.54	-35.67
269.756	138.41
269.972	31.91
270.188	72.87
270.403	-15.19
270.619	25.77
270.835	-7
271.051	31.91
271.267	-11.09
271.483	1.19
271.698	33.96
271.914	29.87
272.13	11.43
272.346	62.63
272.562	58.54
272.777	58.54
272.993	-21.33
273.209	31.91
273.425	9.39
273.64	13.48
273.856	56.49
274.072	31.91
274.287	13.48
274.503	23.72
274.719	54.44
274.934	74.92
275.15	-50
275.366	48.3
275.581	19.63
275.797	46.25
276.012	21.67
276.228	-27.48
276.444	5.29
276.659	113.83
276.875	-11.09
277.09	66.73
277.306	-33.62
277.521	40.11
277.737	7.34
277.952	56.49
278.168	62.63
278.383	-27.48
278.599	-80.72
278.814	62.63
279.03	46.25
279.245	91.31
279.461	64.68
279.676	38.06
279.892	15.53
280.107	7.34
280.322	-11.09
280.538	5.29
280.753	-23.38
280.969	38.06
281.184	46.25
281.399	132.26
281.615	81.07
281.83	72.87
282.045	-13.14
282.26	36.01
282.476	48.3
282.691	40.11
282.906	70.83
283.122	40.11
283.337	15.53
283.552	31.91
283.767	25.77
283.983	-15.19
284.198	62.63
284.413	95.4
284.628	15.53
284.843	103.59
285.058	-11.09
285.274	11.43
285.489	-0.85
285.704	25.77
285.919	-21.33
286.134	101.55
286.349	21.67
286.564	25.77
286.779	89.26
286.995	70.83
287.21	13.48
287.425	21.67
287.64	-39.76
287.855	-2.9
288.07	64.68
288.285	99.5
288.5	64.68
288.715	87.21
288.93	-52.05
289.145	5.29
289.36	-27.48
289.575	81.07
289.79	111.78
290.004	27.82
290.219	33.96
290.434	-11.09
290.649	-27.48
290.864	42.15
291.079	62.63
291.294	29.87
291.509	-11.09
291.724	27.82
291.938	40.11
292.153	87.21
292.368	17.58
292.583	40.11
292.798	-2.9
293.012	23.72
293.227	70.83
293.442	66.73
293.657	66.73
293.871	33.96
294.086	33.96
294.301	72.87
294.516	-17.24
294.73	5.29
294.945	-27.48
295.16	109.74
295.374	62.63
295.589	122.02
295.804	-31.57
296.018	33.96
296.233	50.35
296.447	87.21
296.662	42.15
296.877	50.35
297.091	-11.09
297.306	48.3
297.52	38.06
297.735	25.77
297.949	19.63
298.164	-23.38
298.378	25.77
298.593	15.53
298.807	52.39
299.022	7.34
299.236	-11.09
299.451	-25.43
299.665	-7
299.88	15.53
300.094	21.67
300.309	-43.86
300.523	-66.39
300.737	-7
300.952	76.97
301.166	17.58
301.381	-68.44
301.595	-17.24
301.809	44.2
302.024	3.24
302.238	3.24
302.452	15.53
302.667	60.59
302.881	70.83
303.095	13.48
303.309	42.15
303.524	13.48
303.738	-9.05
303.952	-7
304.166	52.39
304.381	70.83
304.595	64.68
304.809	38.06
305.023	17.58
305.237	31.91
305.452	48.3
305.666	13.48
305.88	95.4
306.094	107.69
306.308	81.07
306.522	42.15
306.736	56.49
306.95	87.21
307.164	-35.67
307.379	-9.05
307.593	33.96
307.807	38.06
308.021	97.45
308.235	60.59
308.449	1.19
308.663	-29.52
308.877	103.59
309.091	40.11
309.305	-19.29
309.519	64.68
309.733	64.68
309.947	23.72
310.161	-19.29
310.374	81.07
310.588	87.21
310.802	31.91
311.016	70.83
311.23	1.19
311.444	-7
311.658	3.24
311.872	33.96
312.085	76.97
312.299	66.73
312.513	62.63
312.727	79.02
312.941	-9.05
313.154	-35.67
313.368	3.24
313.582	87.21
313.796	83.11
314.009	27.82
314.223	-2.9
314.437	-52.05
314.651	91.31
314.864	70.83
315.078	29.87
315.292	40.11
315.505	-17.24
315.719	54.44
315.933	72.87
316.146	-0.85
316.36	-33.62
316.573	122.02
316.787	42.15
317.001	15.53
317.214	-17.24
317.428	-2.9
317.641	-52.05
317.855	33.96
318.068	-56.15
318.282	52.39
318.495	-27.48
318.709	25.77
318.922	29.87
319.136	58.54
319.349	97.45
319.563	1.19
319.776	21.67
319.99	-2.9
320.203	33.96
320.417	15.53
320.63	46.25
320.843	56.49
321.057	13.48
321.27	23.72
321.483	76.97
321.697	48.3
321.91	119.98
322.124	38.06
322.337	87.21
322.55	9.39
322.763	72.87
322.977	25.77
323.19	13.48
323.403	48.3
323.617	19.63
323.83	46.25
324.043	52.39
324.256	50.35
324.469	72.87
324.683	99.5
324.896	-15.19
325.109	64.68
325.322	-27.48
325.535	81.07
325.748	111.78
325.962	40.11
326.175	46.25
326.388	27.82
326.601	46.25
326.814	38.06
327.027	21.67
327.24	66.73
327.453	-33.62
327.666	99.5
327.879	9.39
328.092	38.06
328.305	5.29
328.518	64.68
328.731	29.87
328.944	19.63
329.157	76.97
329.37	89.26
329.583	87.21
329.796	140.46
330.009	-11.09
330.222	54.44
330.435	95.4
330.648	62.63
330.861	70.83
331.073	48.3
331.286	5.29
331.499	89.26
331.712	-17.24
331.925	29.87
332.138	-25.43
332.35	15.53
332.563	1.19
332.776	72.87
332.989	13.48
333.202	13.48
333.414	5.29
333.627	87.21
333.84	19.63
334.053	128.17
334.265	72.87
334.478	17.58
334.691	87.21
334.903	13.48
335.116	21.67
335.329	83.11
335.541	68.78
335.754	5.29
335.966	136.36
336.179	87.21
336.392	48.3
336.604	58.54
336.817	13.48
337.029	42.15
337.242	58.54
337.454	7.34
337.667	103.59
337.88	-27.48
338.092	25.77
338.305	48.3
338.517	-27.48
338.729	79.02
338.942	72.87
339.154	95.4
339.367	76.97
339.579	91.31
339.792	-41.81
340.004	79.02
340.217	11.43
340.429	54.44
340.641	-7
340.854	79.02
341.066	7.34
341.278	89.26
341.491	58.54
341.703	54.44
341.915	-66.39
342.128	-7
342.34	23.72
342.552	64.68
342.764	25.77
342.977	11.43
343.189	54.44
343.401	42.15
343.613	-43.86
343.826	-11.09
344.038	-47.96
344.25	5.29
344.462	-35.67
344.674	21.67
344.886	48.3
345.099	48.3
345.311	38.06
345.523	-11.09
345.735	7.34
345.947	1.19
346.159	107.69
346.371	33.96
346.583	-31.57
346.795	187.56
347.007	13.48
347.219	-25.43
347.431	-2.9
347.643	95.4
347.855	-78.68
348.067	29.87
348.279	23.72
348.491	29.87
348.703	111.78
348.915	62.63
349.127	27.82
349.339	33.96
349.551	21.67
349.763	79.02
349.975	87.21
350.187	13.48
350.399	58.54
350.61	-9.05
350.822	48.3
351.034	31.91
351.246	97.45
351.458	66.73
351.669	-2.9
351.881	15.53
352.093	21.67
352.305	117.93
352.517	79.02
352.728	81.07
352.94	50.35
353.152	-7
353.363	17.58
353.575	72.87
353.787	64.68
353.999	62.63
354.21	31.91
354.422	13.48
354.633	23.72
354.845	23.72
355.057	21.67
355.268	7.34
355.48	107.69
355.692	29.87
355.903	23.72
356.115	33.96
356.326	40.11
356.538	169.13
356.749	5.29
356.961	70.83
357.172	38.06
357.384	72.87
357.595	95.4
357.807	21.67
358.018	9.39
358.23	-0.85
358.441	111.78
358.653	40.11
358.864	89.26
359.075	-19.29
359.287	97.45
359.498	66.73
359.709	17.58
359.921	64.68
360.132	-4.95
360.344	23.72
360.555	66.73
360.766	66.73
360.977	36.01
361.189	81.07
361.4	9.39
361.611	9.39
361.823	79.02
362.034	113.83
362.245	62.63
362.456	3.24
362.667	13.48
362.879	7.34
363.09	42.15
363.301	38.06
363.512	17.58
363.723	25.77
363.935	79.02
364.146	79.02
364.357	70.83
364.568	38.06
364.779	54.44
364.99	140.46
365.201	5.29
365.412	64.68
365.623	-17.24
365.834	62.63
366.045	40.11
366.256	132.26
366.467	21.67
366.678	64.68
366.889	46.25
367.1	97.45
367.311	50.35
367.522	5.29
367.733	74.92
367.944	19.63
368.155	-25.43
368.366	58.54
368.577	42.15
368.788	-21.33
368.999	56.49
369.209	54.44
369.42	54.44
369.631	107.69
369.842	70.83
370.053	40.11
370.264	21.67
370.474	122.02
370.685	68.78
370.896	5.29
371.107	76.97
371.317	-11.09
371.528	93.35
371.739	81.07
371.95	5.29
372.16	105.64
372.371	9.39
372.582	-0.85
372.792	91.31
373.003	56.49
373.214	115.88
373.424	99.5
373.635	58.54
373.846	150.7
374.056	17.58
374.267	62.63
374.477	54.44
374.688	29.87
374.898	54.44
375.109	122.02
375.319	95.4
375.53	38.06
375.74	17.58
375.951	29.87
376.161	79.02
376.372	15.53
376.582	40.11
376.793	5.29
377.003	-11.09
377.214	-11.09
377.424	74.92
377.635	-2.9
377.845	33.96
378.055	130.22
378.266	-13.14
378.476	95.4
378.686	122.02
378.897	72.87
379.107	42.15
379.317	54.44
379.528	85.16
379.738	56.49
379.948	38.06
380.158	58.54
380.369	62.63
380.579	50.35
380.789	54.44
380.999	33.96
381.21	23.72
381.42	91.31
381.63	87.21
381.84	87.21
382.05	7.34
382.261	103.59
382.471	54.44
382.681	81.07
382.891	111.78
383.101	33.96
383.311	15.53
383.521	15.53
383.731	56.49
383.941	107.69
384.151	-19.29
384.361	60.59
384.571	111.78
384.781	44.2
384.991	97.45
385.201	70.83
385.411	68.78
385.621	79.02
385.831	64.68
386.041	136.36
386.251	46.25
386.461	89.26
386.671	87.21
386.881	9.39
387.091	-35.67
387.301	72.87
387.511	17.58
387.72	-17.24
387.93	-31.57
388.14	31.91
388.35	11.43
388.56	91.31
388.769	38.06
388.979	122.02
389.189	38.06
389.399	64.68
389.609	89.26
389.818	46.25
390.028	38.06
390.238	11.43
390.447	25.77
390.657	-11.09
390.867	15.53
391.076	-23.38
391.286	33.96
391.496	46.25
391.705	33.96
391.915	119.98
392.125	40.11
392.334	-19.29
392.544	54.44
392.753	93.35
392.963	13.48
393.172	5.29
393.382	-11.09
393.591	95.4
393.801	33.96
394.01	119.98
394.22	74.92
394.429	-0.85
394.639	38.06
394.848	54.44
395.058	160.94
395.267	70.83
395.477	70.83
395.686	81.07
395.895	187.56
396.105	62.63
396.314	72.87
396.524	50.35
396.733	-2.9
396.942	122.02
397.152	13.48
397.361	144.55
397.57	95.4
397.78	89.26
397.989	91.31
398.198	152.74
398.407	56.49
398.617	81.07
398.826	107.69
399.035	-7
399.244	95.4
399.453	111.78
399.663	93.35
399.872	70.83
400.081	56.49
400.29	126.12
400.499	79.02
400.708	124.07
400.917	52.39
401.127	74.92
401.336	95.4
401.545	119.98
401.754	142.5
401.963	74.92
402.172	76.97
402.381	70.83
402.59	111.78
402.799	111.78
403.008	136.36
403.217	46.25
403.426	103.59
403.635	95.4
403.844	124.07
404.053	91.31
404.262	122.02
404.471	162.98
404.68	105.64
404.888	169.13
405.097	103.59
405.306	25.77
405.515	146.6
405.724	95.4
405.933	101.55
406.142	187.56
406.35	201.9
406.559	226.47
406.768	175.27
406.977	193.7
407.185	111.78
407.394	99.5
407.603	134.31
407.812	128.17
408.02	203.94
408.229	242.85
408.438	150.7
408.646	193.7
408.855	185.51
409.064	152.74
409.272	203.94
409.481	226.47
409.69	175.27
409.898	148.65
410.107	162.98
410.315	244.9
410.524	218.28
410.733	230.57
410.941	265.38
411.15	218.28
411.358	236.71
411.567	357.54
411.775	341.16
411.984	277.67
412.192	367.78
412.401	308.39
412.609	373.92
412.818	400.55
413.026	373.92
413.234	423.08
413.443	443.56
413.651	357.54
413.86	410.79
414.068	459.94
414.276	435.36
414.485	378.02
414.693	474.28
414.901	541.86
415.11	627.87
415.318	498.85
415.526	507.04
415.734	531.62
415.943	570.53
416.151	617.63
416.359	636.06
416.567	642.21
416.776	615.59
416.984	699.55
417.192	709.79
417.4	654.5
417.608	619.68
417.817	767.13
418.025	842.91
418.233	857.25
418.441	873.63
418.649	922.78
418.857	906.4
419.065	973.98
419.273	900.25
419.481	930.97
419.689	1057.95
419.897	1029.27
420.105	1070.23
420.313	1111.19
420.521	1098.91
420.729	1191.06
420.937	1232.02
421.145	1268.89
421.353	1291.41
421.561	1328.28
421.769	1365.14
421.977	1590.42
422.185	1463.44
422.393	1592.47
422.601	1701.01
422.809	1555.6
423.017	1643.67
423.224	1729.68
423.432	1889.42
423.64	1655.95
423.848	1901.71
424.056	1823.89
424.263	1963.15
424.471	2020.49
424.679	2114.7
424.887	2405.51
425.094	2221.19
425.302	2274.44
425.51	2301.06
425.718	2438.28
425.925	2333.83
426.133	2397.32
426.341	2671.75
426.548	2643.07
426.756	2913.41
426.964	2649.22
427.171	3036.28
427.379	3046.52
427.586	3138.68
427.794	3110.01
428.001	3386.49
428.209	3431.54
428.417	3316.86
428.624	3673.2
428.832	3701.87
429.039	3695.73
429.247	3601.52
429.454	3904.62
429.662	4213.87
429.869	4007.02
430.076	4308.07
430.284	4056.17
430.491	4306.02
430.699	4609.12
430.906	4543.59
431.114	4594.79
431.321	4799.59
431.528	4875.36
431.736	5250.14
431.943	5420.12
432.15	5391.45
432.358	5387.35
432.565	5616.72
432.772	5612.63
432.979	5983.31
433.187	6024.27
433.394	6050.89
433.601	6487.11
433.808	6386.76
434.016	6325.32
434.223	6517.83
434.43	7222.33
434.637	6999.1
434.844	7332.92
435.052	7414.84
435.259	7468.09
435.466	7537.72
435.673	7429.18
435.88	7855.15
436.087	8336.43
436.294	8330.28
436.501	7978.03
436.708	8410.15
436.915	8586.28
437.122	8954.91
437.329	8893.47
437.537	9081.89
437.743	9270.3
437.95	9337.88
438.157	9790.49
438.364	10069.01
438.571	9876.5
438.778	10261.52
438.985	10843.14
439.192	10761.22
439.399	10990.59
439.606	10765.32
439.813	11371.52
440.02	11906.04
440.227	11873.27
440.433	11598.84
440.64	12145.65
440.847	12223.47
441.054	12334.06
441.261	13179.87
441.467	12778.47
441.674	13196.26
441.881	13390.81
442.088	13646.81
442.294	13429.73
442.501	14017.49
442.708	14029.78
442.914	14576.59
443.121	15268.8
443.328	14945.22
443.534	15926.2
443.741	15203.27
443.948	15021
444.154	16280.5
444.361	16391.09
444.568	16468.91
444.774	16241.59
444.981	16329.65
445.187	16749.48
445.394	18078.61
445.6	17490.85
445.807	19000.2
446.013	18312.08
446.22	18752.4
446.426	19334.02
446.633	19526.53
446.839	20353.91
447.046	19305.35
447.252	20546.42
447.459	20353.91
447.665	20347.76
447.871	21326.69
448.078	22416.21
448.284	21302.12
448.491	21818.21
448.697	22829.9
448.903	22790.99
449.11	23137.1
449.316	22747.98
449.522	23208.78
449.728	23673.67
449.935	23651.14
450.141	24132.41
450.347	24576.82
450.553	23737.15
450.76	24011.58
450.966	24658.74
451.172	24466.23
451.378	25416.49
451.584	24898.35
451.791	25199.4
451.997	25078.57
452.203	25588.52
452.409	25488.17
452.615	25740.07
452.821	24539.96
453.027	24283.96
453.233	25639.72
453.44	24474.42
453.646	24978.22
453.852	24873.78
454.058	25815.84
454.264	24771.38
454.47	25340.71
454.676	24589.11
454.882	25463.59
455.088	23429.96
455.294	23808.83
455.5	24187.71
455.705	24711.99
455.911	23055.18
456.117	22891.34
456.323	22584.15
456.529	21578.59
456.735	22426.45
456.941	21783.39
457.147	21441.38
457.352	20933.48
457.558	20743.02
457.764	20751.21
457.97	20562.8
458.176	19876.73
458.381	19950.46
458.587	19075.98
458.793	18887.56
458.999	17963.93
459.204	19403.65
459.41	18799.5
459.616	17476.51
459.821	17601.44
460.027	17400.74
460.233	17048.49
460.438	16290.74
460.644	16610.22
460.85	15670.2
461.055	15414.21
461.261	15369.15
461.466	14351.31
461.672	13790.17
461.878	14715.85
462.083	13872.09
462.289	13577.18
462.494	13501.4
462.7	13018.08
462.905	12592.11
463.111	13030.37
463.316	13057
463.522	12520.43
463.727	12860.39
463.932	12628.97
464.138	12512.24
464.343	12502
464.549	12151.79
464.754	12678.12
464.959	12776.42
465.165	12467.18
465.37	11854.84
465.575	11492.35
465.781	12182.51
465.986	12211.18
466.191	11711.48
466.397	11400.19
466.602	10880
466.807	11420.67
467.012	11238.4
467.218	11441.15
467.423	10951.68
467.628	11179.01
467.833	11678.71
468.038	11033.6
468.244	10953.73
468.449	11232.26
468.654	11138.05
468.859	10937.35
469.064	10753.03
469.269	10615.82
469.474	10404.88
469.679	10707.98
469.885	10120.21
470.09	10433.55
470.295	10384.4
470.5	10193.94
470.705	10261.52
470.91	10069.01
471.115	9976.85
471.32	10114.06
471.525	9944.08
471.73	9856.02
471.935	9813.01
472.139	9393.18
472.344	9675.8
472.549	9559.06
472.754	9448.47
472.959	9282.59
473.164	8928.29
473.369	8989.73
473.574	9163.81
473.778	9174.05
473.983	8991.78
474.188	8889.38
474.393	8442.92
474.598	8655.91
474.802	8647.72
475.007	8655.91
475.212	8606.76
475.417	8301.61
475.621	8188.97
475.826	8393.77
476.031	8082.48
476.235	7914.55
476.44	8186.93
476.645	7867.44
476.849	7910.45
477.054	7857.2
477.259	7746.61
477.463	7828.53
477.668	7625.78
477.872	7640.12
478.077	7355.45
478.282	7248.96
478.486	7193.66
478.691	7210.04
478.895	7199.8
479.1	7140.41
479.304	7287.87
479.509	6921.28
479.713	7230.52
479.918	6945.86
480.122	6771.78
480.326	7023.68
480.531	6886.47
480.735	6751.3
480.94	6700.1
481.144	7025.73
481.348	6675.52
481.553	6745.16
481.757	6577.22
481.961	6640.71
482.166	6724.68
482.37	6542.41
482.574	6560.84
482.778	6726.72
482.983	6790.21
483.187	6657.09
483.391	6691.91
483.595	6558.79
483.8	6519.88
484.004	6483.02
484.208	6540.36
484.412	6679.62
484.616	6726.72
484.821	6593.61
485.025	6431.82
485.229	6685.76
485.433	6364.23
485.637	6579.27
485.841	6403.14
486.045	6446.15
486.249	6497.35
486.453	6489.16
486.657	6485.06
486.861	6569.03
487.065	6292.55
487.269	6427.72
487.473	6566.98
487.677	6562.89
487.881	6585.41
488.085	6499.4
488.289	6497.35
488.493	6634.57
488.697	6683.72
488.901	6622.28
489.105	6530.12
489.309	6575.17
489.512	6716.48
489.716	6675.52
489.92	6618.18
490.124	6726.72
490.328	6870.08
490.531	6546.5
490.735	6726.72
490.939	6722.63
491.143	6798.4
491.346	6673.48
491.55	6913.09
491.754	6806.59
491.958	6755.4
492.161	6982.72
492.365	6648.9
492.569	6960.19
492.772	6882.37
492.976	6958.14
493.18	6952
493.383	7189.56
493.587	6890.56
493.79	7281.72
493.994	7109.69
494.197	7152.7
494.401	7267.39
494.605	7173.18
494.808	7605.3
495.012	7474.23
495.215	7523.38
495.419	7543.86
495.622	7459.9
495.825	7627.83
496.029	7670.84
496.232	7736.37
496.436	7693.37
496.639	7902.26
496.843	7918.64
497.046	8100.91
497.249	8160.3
497.453	8111.15
497.656	8248.36
497.859	8318
498.063	8174.64
498.266	8442.92
498.469	8285.23
498.673	8469.55
498.876	8860.71
499.079	8805.41
499.282	8778.79
499.485	8983.59
499.689	9061.41
499.892	9104.42
500.095	9030.69
500.298	9573.4
500.501	9282.59
500.705	9466.91
500.908	9753.62
501.111	9806.87
501.314	9763.86
501.517	9860.12
501.72	10165.26
501.923	10114.06
502.126	10429.45
502.329	10697.74
502.532	10474.51
502.735	10624.01
502.938	10837
503.141	10810.37
503.344	11009.03
503.547	11095.04
503.75	11047.94
503.953	11334.65
504.156	11260.93
504.359	11461.63
504.562	11514.87
504.765	11908.08
504.968	11809.78
505.17	12289.01
505.373	12172.27
505.576	12520.43
505.779	12387.31
505.982	12385.26
506.185	12850.15
506.387	12780.52
506.59	12923.88
506.793	13173.73
506.996	13163.49
507.198	13716.44
507.401	13321.18
507.604	13628.38
507.807	13884.37
508.009	14058.45
508.212	14089.17
508.415	13992.92
508.617	14459.85
508.82	14298.06
509.022	14373.84
509.225	14805.96
509.428	14937.03
509.63	14891.98
509.833	14836.68
510.035	15623.1
510.238	15350.72
510.44	15565.76
510.643	15778.75
510.845	15891.38
511.048	15713.21
511.25	16176.05
511.453	16239.54
511.655	16726.96
511.858	16520.11
512.06	16706.48
512.262	16962.47
512.465	16796.59
512.667	17097.64
512.87	17357.73
513.072	17372.07
513.274	18033.56
513.477	17841.05
513.679	18074.52
513.881	18490.26
514.084	18379.67
514.286	18586.51
514.488	18267.03
514.69	19061.64
514.893	19057.54
515.095	19321.73
515.297	19469.19
515.499	19547.01
515.701	19420.03
515.904	19839.87
516.106	19880.83
516.308	19985.27
516.51	20517.75
516.712	20241.27
516.914	20573.04
517.116	21275.49
517.318	20929.39
517.52	21078.89
517.722	21511.01
517.925	21580.64
518.127	21818.21
518.329	22422.36
518.531	21863.26
518.733	22414.16
518.935	22418.26
519.136	22305.62
519.338	23085.9
519.54	23032.65
519.742	23149.39
519.944	23239.5
520.146	23677.76
520.348	23622.47
520.55	23765.82
520.752	24163.13
520.954	24499
521.155	24261.43
521.357	24296.25
521.559	24853.3
521.761	25137.96
521.963	25357.1
522.164	25217.83
522.366	25248.55
522.568	25518.89
522.77	25738.02
522.971	26170.14
523.173	25801.5
523.375	26290.97
523.576	26293.02
523.778	26397.46
523.98	26497.81
524.181	27151.12
524.383	26727.19
524.584	27087.63
524.786	27099.92
524.988	26899.22
525.189	27667.2
525.391	27333.39
525.592	27960.06
525.794	27605.77
525.995	28056.32
526.197	27986.69
526.398	28177.15
526.6	28275.45
526.801	28277.5
527.003	28574.45
527.204	28584.69
527.406	28613.37
527.607	28732.15
527.808	28945.14
528.01	28470.01
528.211	28912.37
528.412	29461.23
528.614	28996.34
528.815	29229.8
529.016	29211.37
529.218	29338.35
529.419	29379.31
529.62	29291.24
529.822	29502.18
530.023	29680.36
530.224	29549.29
530.425	29606.63
530.626	29604.58
530.828	29485.8
531.029	30087.9
531.23	29848.29
531.431	29860.58
531.632	29874.91
531.833	30251.74
532.035	30137.05
532.236	30012.13
532.437	29977.31
532.638	29776.61
532.839	29782.76
533.04	30106.34
533.241	29831.91
533.442	30507.74
533.643	30354.14
533.844	30358.24
534.045	30178.01
534.246	29883.11
534.447	30200.54
534.648	30225.12
534.849	30372.57
535.05	29917.92
535.251	30057.18
535.451	30374.62
535.652	30485.21
535.853	30231.26
536.054	30530.26
536.255	30362.33
536.456	30413.53
536.657	30624.47
536.857	30419.67
537.058	29989.6
537.259	30337.76
537.46	30550.74
537.66	29971.17
537.861	30335.71
538.062	30348
538.263	30362.33
538.463	30200.54
538.664	30048.99
538.865	30161.63
539.065	30345.95
539.266	29778.66
539.466	30464.73
539.667	30036.7
539.868	30376.67
540.068	30182.11
540.269	30118.62
540.469	30802.64
540.67	30210.78
540.87	30339.8
541.071	30423.77
541.271	30300.89
541.472	29874.91
541.672	30163.68
541.873	30235.36
542.073	29797.09
542.274	30284.51
542.474	30243.55
542.675	30225.12
542.875	30532.31
543.075	30214.88
543.276	29901.54
543.476	30372.57
543.676	29770.47
543.877	29985.51
544.077	30163.68
544.277	29833.96
544.478	30130.91
544.678	30284.51
544.878	29946.59
545.078	29997.79
545.279	29772.52
545.479	30225.12
545.679	29973.22
545.879	30081.76
546.079	30028.51
546.28	29711.08
546.48	29696.74
546.68	29795.04
546.88	29741.8
547.08	29901.54
547.28	29823.72
547.48	29737.7
547.68	29643.49
547.88	29641.45
548.081	30024.42
548.281	29985.51
548.481	29893.35
548.681	30206.69
548.881	29721.32
549.081	29788.9
549.28	29465.32
549.48	30106.34
549.68	29684.45
549.88	29979.36
550.08	29512.42
550.28	29981.41
550.48	29563.62
550.68	30116.58
550.88	29715.17
551.08	29967.07
551.279	29799.14
551.479	29342.44
551.679	29778.66
551.879	29596.39
552.079	29801.19
552.278	29500.14
552.478	29485.8
552.678	29436.65
552.878	29883.11
553.077	29692.65
553.277	29635.3
553.477	29778.66
553.676	29133.55
553.876	29575.91
554.076	29741.8
554.275	29412.07
554.475	29442.79
554.674	29436.65
554.874	29590.25
555.074	29119.21
555.273	29541.1
555.473	29399.79
555.672	29264.62
555.872	29266.67
556.071	29227.76
556.271	29139.69
556.47	29137.65
556.67	28812.02
556.869	29172.46
557.068	29143.79
557.268	28824.31
557.467	29289.2
557.667	28967.66
557.866	28838.64
558.065	28809.97
558.265	28828.4
558.464	28857.07
558.663	29199.09
558.863	28658.42
559.062	28748.53
559.261	28320.51
559.461	29000.43
559.66	28459.77
559.859	28459.77
560.058	27923.2
560.258	28322.55
560.457	28386.04
560.656	28478.2
560.855	28517.11
561.054	28390.14
561.253	28154.62
561.453	28465.91
561.652	28349.18
561.851	28453.62
562.05	28312.31
562.249	28019.46
562.448	28113.66
562.647	28072.7
562.846	27828.99
563.045	28144.38
563.244	27659.01
563.443	27874.05
563.642	27630.34
563.841	27726.6
564.04	27673.35
564.239	27943.68
564.438	27693.83
564.637	27945.73
564.836	27638.53
565.035	27011.85
565.234	27298.57
565.432	27050.77
565.631	27194.12
565.83	27276.04
566.029	27165.45
566.228	27235.08
566.427	27065.1
566.625	26802.96
566.824	26465.05
567.023	26989.33
567.222	26460.95
567.42	26876.69
567.619	26651.41
567.818	26852.11
568.016	26682.13
568.215	26733.33
568.414	26237.72
568.612	26782.48
568.811	26362.65
569.01	26501.91
569.208	26125.08
569.407	26311.45
569.605	26000.16
569.804	26186.52
570.002	26112.8
570.201	26295.07
570.4	25805.6
570.598	25770.79
570.797	25719.59
570.995	25830.18
571.193	25322.28
571.392	25701.15
571.59	25305.9
571.789	25623.33
571.987	25383.72
572.186	25430.82
572.384	25191.21
572.582	25555.75
572.781	25389.86
572.979	25131.82
573.177	24996.65
573.376	25035.56
573.574	24886.06
573.772	25123.63
573.971	24695.6
574.169	24773.42
574.367	24744.75
574.565	24707.89
574.763	24533.81
574.962	24572.72
575.16	24320.82
575.358	24507.19
575.556	24109.88
575.754	24511.28
575.952	24245.05
576.151	24585.01
576.349	24144.7
576.547	23845.69
576.745	24140.6
576.943	23978.81
577.141	23722.82
577.339	23589.7
577.537	23696.19
577.735	23661.38
577.933	23317.32
578.131	23737.15
578.329	23411.53
578.527	23350.09
578.725	23276.36
578.923	23708.48
579.121	23427.91
579.319	23327.56
579.516	23307.08
579.714	23235.4
579.912	23178.06
580.11	22872.91
580.308	22756.18
580.506	22559.57
580.704	22625.11
580.901	22825.81
581.099	22852.43
581.297	22717.26
581.495	22754.13
581.692	22778.7
581.89	22561.62
582.088	22647.63
582.285	22436.69
582.483	22434.64
582.681	22362.97
582.878	22219.61
583.076	22096.73
583.274	22285.14
583.471	21703.52
583.669	21881.69
583.866	21693.28
584.064	21824.35
584.262	21697.38
584.459	21810.01
584.657	21447.52
584.854	21973.85
585.052	21470.05
585.249	21623.65
585.447	21222.25
585.644	21338.98
585.841	21394.28
586.039	21406.56
586.236	21228.39
586.434	21130.09
586.631	20845.42
586.828	21156.71
587.026	20888.43
587.223	20790.13
587.42	20648.82
587.618	21001.07
587.815	20476.79
588.012	20740.97
588.21	20441.97
588.407	20628.34
588.604	20716.4
588.801	20233.08
588.999	20491.12
589.196	20517.75
589.393	20142.97
589.59	20407.16
589.787	20059
589.984	19811.2
590.182	19854.2
590.379	19878.78
590.576	20015.99
590.773	19882.88
590.97	19964.79
591.167	19874.68
591.364	19733.37
591.561	19862.4
591.758	19477.38
591.955	19440.51
592.152	19448.71
592.349	19266.44
592.546	19413.89
592.743	19424.13
592.94	19219.33
593.137	19571.58
593.334	19309.44
593.531	18736.01
593.727	19164.04
593.924	18908.04
594.121	18740.11
594.318	18895.75
594.515	18699.15
594.712	18797.45
594.908	18666.38
595.105	18967.43
595.302	18586.51
595.499	18711.44
595.696	18682.77
595.892	18299.8
596.089	18518.93
596.286	18275.22
596.482	18238.36
596.679	18518.93
596.876	18264.98
597.072	18049.94
597.269	18158.49
597.466	17793.95
597.662	17873.82
597.859	17806.23
598.055	17755.04
598.252	17752.99
598.448	17822.62
598.645	17664.93
598.841	17472.42
599.038	17570.72
599.234	17337.25
599.431	17269.67
599.627	17689.5
599.824	17509.28
600.02	17439.65
600.217	17247.14
600.413	17075.11
600.609	17142.69
600.806	16982.95
601.002	17269.67
601.198	17005.48
601.395	16948.14
601.591	16901.03
601.787	17025.96
601.984	16718.76
602.18	16909.22
602.376	16786.35
602.572	16718.76
602.769	16679.85
602.965	16618.41
603.161	16653.23
603.357	16360.37
603.553	16214.96
603.75	16587.69
603.946	16118.71
604.142	16372.66
604.338	16264.11
604.534	16210.87
604.73	16169.91
604.926	16044.98
605.122	15973.3
605.318	15989.69
605.514	16094.13
605.71	15813.56
605.906	15981.49
606.102	15883.19
606.298	15971.25
606.494	15856.57
606.69	15848.38
606.886	15737.79
607.082	15397.82
607.278	15645.63
607.474	15588.28
607.67	15684.54
607.866	15446.97
608.062	15487.93
608.257	15442.88
608.453	15307.71
608.649	15322.05
608.845	15119.3
609.041	15158.21
609.236	15274.95
609.432	14988.23
609.628	15283.14
609.824	15121.35
610.019	15145.92
610.215	14857.16
610.411	15201.22
610.606	14924.74
610.802	14691.27
610.998	14664.65
611.193	15076.29
611.389	14787.53
611.584	14633.93
611.78	14552.01
611.976	14607.31
612.171	14771.15
612.367	14728.14
612.562	14562.25
612.758	14531.53
612.953	14502.86
613.149	14498.77
613.344	14455.76
613.539	14889.93
613.735	14367.7
613.93	14404.56
614.126	14328.78
614.321	14310.35
614.517	14435.28
614.712	14353.36
614.907	14152.66
615.103	14703.56
615.298	14130.13
615.493	14445.52
615.688	13915.09
615.884	14187.47
616.079	13994.97
616.274	14107.6
616.47	14181.33
616.665	14109.65
616.86	13863.9
617.055	14003.16
617.25	14035.92
617.445	13669.34
617.641	13757.4
617.836	13816.79
618.031	13558.75
618.226	13765.59
618.421	13636.57
618.616	13714.39
618.811	13468.64
619.006	13837.27
619.201	13333.47
619.396	13589.47
619.591	13220.83
619.786	13661.15
619.981	13020.13
620.176	13442.01
620.371	13343.71
620.566	12940.26
620.761	13399.01
620.956	13046.76
621.151	12868.58
621.346	12907.49
621.541	12882.92
621.735	12923.88
621.93	12671.98
622.125	12743.66
622.32	12594.15
622.515	12512.24
622.709	12563.43
622.904	12178.42
623.099	12409.84
623.294	12332.01
623.488	12241.9
623.683	12278.77
623.878	11914.23
624.072	12053.49
624.267	12153.84
624.462	11990
624.656	11836.41
624.851	11807.73
625.046	11604.99
625.24	11623.42
625.435	11473.92
625.629	11465.72
625.824	11351.04
626.018	11504.64
626.213	11232.26
626.407	11289.6
626.602	10908.68
626.796	11305.98
626.991	11158.53
627.185	11187.2
627.38	10931.2
627.574	11111.43
627.768	10957.83
627.963	10775.56
628.157	10830.85
628.352	10593.29
628.546	10408.97
628.74	10886.15
628.935	10474.51
629.129	10638.34
629.323	10316.81
629.517	10361.87
629.712	10351.63
629.906	10259.47
630.1	10097.68
630.294	10179.6
630.489	10089.49
630.683	10355.72
630.877	10159.12
631.071	9980.95
631.265	9921.56
631.459	9921.56
631.653	9761.81
631.848	9817.11
632.042	9509.91
632.236	9722.9
632.43	9526.3
632.624	9585.69
632.818	9579.54
633.012	9233.44
633.206	9341.98
633.4	9260.06
633.594	9270.3
633.788	9309.21
633.982	9360.41
634.176	9040.93
634.369	9139.23
634.563	8999.97
634.757	8903.71
634.951	8813.6
635.145	9059.36
635.339	8903.71
635.533	8926.24
635.726	8975.39
635.92	8713.25
636.114	8680.49
636.308	8569.9
636.501	8678.44
636.695	8668.2
636.889	8533.03
637.083	8549.42
637.276	8453.16
637.47	8342.57
637.664	8188.97
637.857	8444.97
638.051	8393.77
638.244	8281.13
638.438	8102.96
638.632	8191.02
638.825	8031.28
639.019	8119.34
639.212	7951.41
639.406	7906.35
639.599	7937.07
639.793	7881.78
639.986	7828.53
640.18	7932.98
640.373	7779.38
640.567	7664.69
640.76	7648.31
640.954	7730.23
641.147	7676.98
641.34	7474.23
641.534	7586.87
641.727	7611.45
641.92	7400.51
642.114	7490.62
642.307	7351.35
642.5	7341.11
642.694	7126.08
642.887	7195.71
643.08	7087.17
643.273	7152.7
643.467	7140.41
643.66	7113.79
643.853	6880.32
644.046	6954.05
644.239	6984.77
644.432	6917.19
644.626	6952
644.819	6972.48
645.012	6741.06
645.205	6741.06
645.398	6892.61
645.591	6843.46
645.784	6683.72
645.977	6566.98
646.17	6706.24
646.363	6519.88
646.556	6474.82
646.749	6358.09
646.942	6397
647.135	6433.86
647.328	6470.73
647.521	6390.86
647.714	6216.78
647.907	6313.03
648.099	6296.65
648.292	6216.78
648.485	6218.83
648.678	5985.36
648.871	5942.35
649.064	6159.44
649.256	6009.93
649.449	6050.89
649.642	6102.09
649.835	5876.82
650.027	5766.23
650.22	5930.06
650.413	5864.53
650.605	5905.49
650.798	5680.21
650.991	5768.27
651.183	5755.99
651.376	5825.62
651.568	5741.65
651.761	5479.51
651.954	5655.64
652.146	5649.49
652.339	5624.92
652.531	5497.94
652.724	5475.42
652.916	5373.02
653.109	5395.54
653.301	5543
653.494	5225.56
653.686	5456.98
653.879	5368.92
654.071	5346.39
654.263	5334.11
654.456	5289.05
654.648	5176.41
654.84	5020.77
655.033	5133.4
655.225	4981.85
655.417	5082.21
655.61	5119.07
655.802	5121.12
655.994	5088.35
656.186	5108.83
656.379	5004.38
656.571	5031.01
656.763	4949.09
656.955	4992.09
657.148	4981.85
657.34	4942.94
657.532	4805.73
657.724	4740.19
657.916	4639.84
658.108	4793.44
658.3	4715.62
658.492	4648.04
658.684	4549.73
658.876	4717.67
659.068	4406.38
659.26	4611.17
659.452	4660.32
659.644	4521.06
659.836	4535.4
660.028	4580.45
660.22	4406.38
660.412	4488.29
660.604	4523.11
660.796	4435.05
660.988	4306.02
661.18	4420.71
661.372	4324.46
661.563	4322.41
661.755	4256.87
661.947	4412.52
662.139	4166.76
662.331	4185.19
662.522	4146.28
662.714	4215.91
662.906	4205.67
663.097	4093.04
663.289	4095.08
663.481	4105.32
663.673	4070.51
663.864	4150.38
664.056	3904.62
664.247	4019.31
664.439	3933.29
664.631	4060.27
664.822	4134
665.014	3933.29
665.205	3851.38
665.397	3878
665.588	3961.97
665.78	3855.47
665.971	3615.86
666.163	3830.9
666.354	3740.79
666.546	3740.79
666.737	3740.79
666.929	3855.47
667.12	3847.28
667.311	3730.55
667.503	3572.85
667.694	3640.44
667.885	3705.97
668.077	3722.35
668.268	3511.41
668.459	3579
668.651	3535.99
668.842	3470.45
669.033	3601.52
669.224	3531.89
669.416	3503.22
669.607	3415.16
669.798	3458.17
669.989	3511.41
670.18	3429.49
670.371	3593.33
670.563	3478.65
670.754	3390.58
670.945	3447.93
671.136	3312.76
671.327	3296.38
671.518	3325.05
671.709	3347.58
671.9	3390.58
672.091	3167.35
672.282	3335.29
672.473	3251.32
672.664	3245.18
672.855	3196.03
673.046	3257.46
673.237	3425.4
673.428	3220.6
673.619	3183.74
673.809	3093.63
674	3273.85
674.191	3200.12
674.382	3175.55
674.573	3183.74
674.764	3165.31
674.954	3150.97
675.145	3028.09
675.336	2991.23
675.527	2970.75
675.717	3138.68
675.908	3046.52
676.099	3007.61
676.289	3060.86
676.48	3077.24
676.671	2978.94
676.861	3058.81
677.052	3097.72
677.243	3034.24
677.433	2940.03
677.624	3028.09
677.814	2790.53
678.005	2835.58
678.195	2870.4
678.386	2972.8
678.576	2872.45
678.767	2784.38
678.957	2966.65
679.148	2987.13
679.338	2880.64
679.529	2915.45
679.719	2841.73
679.909	2823.3
680.1	2835.58
680.29	2880.64
680.481	2686.08
680.671	2950.27
680.861	2737.28
681.052	2892.93
681.242	2768
681.432	2757.76
681.622	2841.73
681.813	2946.17
682.003	2770.05
682.193	2888.83
682.383	2733.18
682.573	2851.97
682.764	2720.9
682.954	2749.57
683.144	2798.72
683.334	2661.51
683.524	2739.33
683.714	2710.66
683.904	2757.76
684.094	2647.17
684.284	2690.18
684.474	2694.27
684.664	2851.97
684.854	2663.55
685.044	2626.69
685.234	2641.03
685.424	2655.36
685.614	2618.5
685.804	2645.12
685.994	2571.4
686.184	2557.06
686.374	2641.03
686.564	2473.09
686.753	2473.09
686.943	2614.4
687.133	2512
687.323	2598.02
687.513	2661.51
687.702	2450.57
687.892	2319.5
688.082	2552.96
688.272	2458.76
688.461	2421.89
688.651	2532.48
688.841	2430.09
689.03	2409.61
689.22	2342.02
689.41	2411.65
689.599	2299.02
689.789	2417.8
689.979	2325.64
690.168	2370.69
690.358	2382.98
690.547	2309.26
690.737	2399.37
690.926	2350.21
691.116	2227.34
691.305	2299.02
691.495	2270.34
691.684	2266.25
691.874	2219.14
692.063	2192.52
692.252	2237.58
692.442	2192.52
692.631	2135.18
692.82	2151.56
693.01	2176.14
693.199	2219.14
693.388	2106.51
693.578	2198.67
693.767	2098.31
693.956	2223.24
694.146	2118.79
694.335	2129.03
694.524	2135.18
694.713	2086.03
694.902	2086.03
695.092	2169.99
695.281	2167.95
695.47	2079.88
695.659	2000.01
695.848	2043.02
696.037	1963.15
696.226	2012.3
696.415	2067.6
696.604	2016.4
696.793	1946.76
696.982	2034.83
697.171	2071.69
697.36	1997.96
697.549	1920.14
697.738	1844.37
697.927	1864.85
698.116	1918.09
698.305	1942.67
698.494	2043.02
698.683	1971.34
698.872	2024.59
699.061	2022.54
699.25	1946.76
699.438	2018.44
699.627	1866.89
699.816	1997.96
700.005	2008.2
700.193	1907.85
700.382	1989.77
700.571	1889.42
700.76	1959.05
700.948	1883.28
701.137	1922.19
701.326	1868.94
701.514	1901.71
701.703	1799.31
701.892	1844.37
702.08	2004.11
702.269	1954.96
702.457	1856.65
702.646	1842.32
702.834	1963.15
703.023	1817.74
703.212	1973.39
703.4	1799.31
703.589	1926.29
703.777	1858.7
703.965	1741.97
704.154	1879.18
704.342	1862.8
704.531	1850.51
704.719	1936.53
704.907	1776.78
705.096	1801.36
705.284	1844.37
705.472	1864.85
705.661	1850.51
705.849	1889.42
706.037	1991.82
706.226	1866.89
706.414	1922.19
706.602	1893.52
706.79	1817.74
706.979	1774.74
707.167	1870.99
707.355	1924.24
707.543	1774.74
707.731	1909.9
707.919	1858.7
708.107	1864.85
708.296	1832.08
708.484	1907.85
708.672	1895.57
708.86	1887.37
709.048	1768.59
709.236	1985.68
709.424	1893.52
709.612	1801.36
709.8	1873.04
709.988	1901.71
710.176	1907.85
710.364	1823.89
710.551	1809.55
710.739	1811.6
710.927	1864.85
711.115	1801.36
711.303	1807.5
711.491	1752.21
711.679	1821.84
711.866	1848.46
712.054	1930.38
712.242	1807.5
712.43	1856.65
712.617	1772.69
712.805	1823.89
712.993	1881.23
713.181	1836.17
713.368	1809.55
713.556	1784.98
713.744	1801.36
713.931	1948.81
714.119	1795.22
714.306	1823.89
714.494	1703.06
714.682	1817.74
714.869	1791.12
715.057	1756.3
715.244	1778.83
715.432	1881.23
715.619	1770.64
715.807	1864.85
715.994	1752.21
716.182	1885.33
716.369	1803.41
716.556	1897.61
716.744	1760.4
716.931	1852.56
717.119	1813.65
717.306	1868.94
717.493	1774.74
717.681	1858.7
717.868	1807.5
718.055	1817.74
718.242	1823.89
718.43	1852.56
718.617	1981.58
718.804	1885.33
718.991	1733.78
719.179	1848.46
719.366	1766.54
719.553	1827.98
719.74	1922.19
719.927	1830.03
720.114	1725.58
720.301	1672.34
720.488	1907.85
720.676	1840.27
720.863	1852.56
721.05	1979.53
721.237	1946.76
721.424	1864.85
721.611	1809.55
721.798	1922.19
721.985	1852.56
722.172	1725.58
722.358	1825.93
722.545	1979.53
722.732	1768.59
722.919	1916.05
723.106	1983.63
723.293	1926.29
723.48	1860.75
723.667	1830.03
723.853	1873.04
724.04	1846.41
724.227	1893.52
724.414	1813.65
724.6	1817.74
724.787	1832.08
724.974	1938.57
725.161	1799.31
725.347	1842.32
725.534	1903.76
725.72	1907.85
725.907	1838.22
726.094	1897.61
726.28	1842.32
726.467	1868.94
726.653	1858.7
726.84	1905.81
727.027	1778.83
727.213	1834.13
727.4	1844.37
727.586	1914
727.773	1813.65
727.959	1799.31
728.145	1914
728.332	1780.88
728.518	1744.02
728.705	1856.65
728.891	1885.33
729.077	1887.37
729.264	1834.13
729.45	1920.14
729.636	1928.33
729.823	1862.8
730.009	1875.09
730.195	1811.6
730.382	1942.67
730.568	1873.04
730.754	1825.93
730.94	1965.2
731.126	1807.5
731.313	1897.61
731.499	1782.93
731.685	1965.2
731.871	1873.04
732.057	1846.41
732.243	1985.68
732.429	1883.28
732.615	1877.13
732.801	1909.9
732.987	1893.52
733.173	1922.19
733.359	1797.26
733.545	1895.57
733.731	1809.55
733.917	1868.94
734.103	1832.08
734.289	1911.95
734.475	1801.36
734.661	1844.37
734.847	1928.33
735.033	1862.8
735.219	1848.46
735.404	1795.22
735.59	1750.16
735.776	1926.29
735.962	1899.66
736.148	1864.85
736.333	1782.93
736.519	1868.94
736.705	1782.93
736.89	1782.93
737.076	1938.57
737.262	1791.12
737.447	1791.12
737.633	1760.4
737.819	1823.89
738.004	1875.09
738.19	1782.93
738.375	1809.55
738.561	1787.02
738.747	1809.55
738.932	1739.92
739.118	1969.29
739.303	1774.74
739.489	1877.13
739.674	1750.16
739.859	1793.17
740.045	1793.17
740.23	1766.54
740.416	1793.17
740.601	1668.24
740.786	1719.44
740.972	1717.39
741.157	1692.82
741.342	1660.05
741.528	1709.2
741.713	1848.46
741.898	1694.86
742.084	1754.26
742.269	1750.16
742.454	1744.02
742.639	1635.47
742.824	1670.29
743.01	1860.75
743.195	1791.12
743.38	1707.15
743.565	1766.54
743.75	1682.58
743.935	1635.47
744.12	1752.21
744.305	1721.49
744.49	1688.72
744.675	1664.15
744.86	1610.9
745.045	1705.1
745.23	1539.22
745.415	1643.67
745.6	1619.09
745.785	1602.71
745.97	1541.27
746.155	1645.71
746.34	1608.85
746.525	1582.23
746.71	1660.05
746.895	1555.6
747.079	1614.99
747.264	1479.83
747.449	1576.08
747.634	1555.6
747.819	1479.83
748.003	1473.68
748.188	1451.16
748.373	1457.3
748.557	1578.13
748.742	1420.44
748.927	1455.25
749.111	1533.08
749.296	1451.16
749.481	1479.83
749.665	1455.25
749.85	1397.91
750.034	1422.48
750.219	1447.06
750.404	1348.76
750.588	1479.83
750.773	1406.1
750.957	1246.36
751.141	1248.41
751.326	1418.39
751.51	1315.99
751.695	1381.53
751.879	1332.37
752.064	1399.96
752.248	1279.13
752.432	1381.53
752.617	1240.22
752.801	1371.29
752.985	1402.01
753.17	1359
753.354	1315.99
753.538	1369.24
753.722	1258.65
753.907	1162.39
754.091	1240.22
754.275	1203.35
754.459	1182.87
754.643	1225.88
754.828	1223.83
755.012	1324.18
755.196	1121.43
755.38	1119.39
755.564	1215.64
755.748	1076.38
755.932	1217.69
756.116	1162.39
756.3	1180.82
756.484	1205.4
756.668	1051.8
756.852	1156.25
757.036	1156.25
757.22	1117.34
757.404	1186.97
757.588	1070.23
757.772	1070.23
757.956	1172.63
758.14	1119.39
758.323	1012.89
758.507	1148.06
758.691	1023.13
758.875	1098.91
759.059	988.32
759.242	1045.66
759.426	1053.85
759.61	1006.75
759.794	1012.89
759.977	980.12
760.161	1078.43
760.345	1119.39
760.528	1037.47
760.712	1025.18
760.895	971.93
761.079	1014.94
761.263	943.26
761.446	990.36
761.63	1041.56
761.813	967.84
761.997	894.11
762.18	945.31
762.364	947.36
762.547	976.03
762.731	955.55
762.914	933.02
763.098	965.79
763.281	818.33
763.464	1014.94
763.648	871.58
763.831	967.84
764.015	902.3
764.198	961.69
764.381	916.64
764.564	881.82
764.748	758.94
764.931	883.87
765.114	828.57
765.297	930.97
765.481	781.47
765.664	887.97
765.847	883.87
766.03	910.49
766.213	849.05
766.397	830.62
766.58	810.14
766.763	890.01
766.946	851.1
767.129	789.66
767.312	857.25
767.495	806.05
767.678	869.53
767.861	799.9
768.044	883.87
768.227	808.09
768.41	808.09
768.593	834.72
768.776	883.87
768.959	724.13
769.142	857.25
769.324	722.08
769.507	771.23
769.69	750.75
769.873	775.33
770.056	861.34
770.239	756.9
770.421	832.67
770.604	767.13
770.787	808.09
770.97	787.61
771.152	758.94
771.335	867.49
771.518	701.6
771.7	685.22
771.883	808.09
772.066	728.22
772.248	742.56
772.431	744.61
772.613	717.98
772.796	629.92
772.978	717.98
773.161	736.42
773.343	795.81
773.526	705.7
773.708	685.22
773.891	660.64
774.073	660.64
774.256	685.22
774.438	685.22
774.621	629.92
774.803	660.64
774.985	650.4
775.168	677.02
775.35	679.07
775.532	734.37
775.715	742.56
775.897	664.74
776.079	672.93
776.261	646.3
776.444	672.93
776.626	593.06
776.808	644.26
776.99	601.25
777.173	646.3
777.355	595.11
777.537	646.3
777.719	545.95
777.901	652.45
778.083	603.3
778.265	566.43
778.447	623.78
778.629	482.47
778.811	566.43
778.993	529.57
779.175	562.34
779.357	537.76
779.539	603.3
779.721	578.72
779.903	603.3
780.085	545.95
780.267	492.71
780.449	550.05
780.631	646.3
780.812	591.01
780.994	570.53
781.176	515.23
781.358	480.42
781.54	496.8
781.721	468.13
781.903	504.99
782.085	466.08
782.267	482.47
782.448	548
782.63	416.93
782.812	519.33
782.993	447.65
783.175	504.99
783.357	445.6
783.538	457.89
783.72	459.94
783.901	515.23
784.083	531.62
784.264	455.84
784.446	447.65
784.627	400.55
784.809	427.17
784.99	392.36
785.172	423.08
785.353	414.88
785.535	410.79
785.716	464.04
785.897	480.42
786.079	390.31
786.26	441.51
786.441	480.42
786.623	457.89
786.804	414.88
786.985	392.36
787.167	408.74
787.348	396.45
787.529	341.16
787.71	468.13
787.891	367.78
788.073	382.12
788.254	416.93
788.435	447.65
788.616	351.4
788.797	380.07
788.978	365.73
789.159	382.12
789.34	351.4
789.522	345.25
789.703	259.24
789.884	425.12
790.065	359.59
790.246	349.35
790.427	369.83
790.607	365.73
790.788	337.06
790.969	292.01
791.15	455.84
791.331	373.92
791.512	373.92
791.693	318.63
791.874	361.64
792.054	312.49
792.235	332.97
792.416	339.11
792.597	318.63
792.778	353.45
792.958	328.87
793.139	292.01
793.32	296.1
793.5	304.29
793.681	249
793.862	292.01
794.042	359.59
794.223	285.86
794.404	302.25
794.584	255.14
794.765	292.01
794.945	283.81
795.126	259.24
795.306	279.72
795.487	259.24
795.667	244.9
795.848	292.01
796.028	246.95
796.209	294.05
796.389	314.53
796.57	277.67
796.75	226.47
796.93	214.18
797.111	218.28
797.291	275.62
797.471	287.91
797.652	242.85
797.832	261.29
798.012	275.62
798.192	226.47
798.373	251.05
798.553	300.2
798.733	259.24
798.913	226.47
799.093	234.66
799.274	261.29
799.454	205.99
799.634	281.77
799.814	289.96
799.994	302.25
800.174	214.18
800.354	214.18
800.534	218.28
800.714	212.14
800.894	259.24
801.074	210.09
801.254	230.57
801.434	310.44
801.614	232.62
801.794	189.61
801.974	840.86
802.154	230.57
802.334	251.05
802.514	154.79
802.693	234.66
802.873	253.09
803.053	226.47
803.233	152.74
803.413	226.47
803.592	189.61
803.772	220.33
803.952	267.43
804.131	146.6
804.311	208.04
804.491	203.94
804.67	201.9
804.85	201.9
805.03	185.51
805.209	230.57
805.389	169.13
805.568	261.29
805.748	76.97
805.928	191.66
806.107	232.62
806.287	160.94
806.466	169.13
806.646	255.14
806.825	224.42
807.004	242.85
807.184	257.19
807.363	193.7
807.543	205.99
807.722	136.36
807.901	222.38
808.081	193.7
808.26	103.59
808.439	201.9
808.619	197.8
808.798	169.13
808.977	173.22
809.156	189.61
809.336	128.17
809.515	246.95
809.694	160.94
809.873	181.42
810.052	187.56
810.231	124.07
810.411	197.8
810.59	154.79
810.769	144.55
810.948	146.6
811.127	144.55
811.306	236.71
811.485	29.87
811.664	177.32
811.843	109.74
812.022	185.51
812.201	185.51
812.38	210.09
812.559	167.08
812.737	160.94
812.916	136.36
813.095	169.13
813.274	222.38
813.453	144.55
813.632	154.79
813.811	113.83
813.989	134.31
814.168	105.64
814.347	79.02
814.526	107.69
814.704	128.17
814.883	185.51
815.062	156.84
815.24	169.13
815.419	119.98
815.598	210.09
815.776	183.46
815.955	95.4
816.133	72.87
816.312	152.74
816.49	107.69
816.669	193.7
816.847	58.54
817.026	119.98
817.204	70.83
817.383	109.74
817.561	124.07
817.74	107.69
817.918	144.55
818.097	158.89
818.275	103.59
818.453	165.03
818.632	89.26
818.81	54.44
818.988	56.49
819.167	201.9
819.345	89.26
819.523	97.45
819.701	156.84
819.879	189.61
820.058	89.26
820.236	54.44
820.414	111.78
820.592	115.88
820.77	56.49
820.948	97.45
821.127	130.22
821.305	13.48
821.483	33.96
821.661	119.98
821.839	97.45
822.017	99.5
822.195	136.36
822.373	193.7
822.551	119.98
822.729	185.51
822.907	128.17
823.085	177.32
823.262	138.41
823.44	105.64
823.618	46.25
823.796	62.63
823.974	122.02
824.152	70.83
824.329	148.65
824.507	158.89
824.685	70.83
824.863	17.58
825.04	103.59
825.218	87.21
825.396	91.31
825.574	136.36
825.751	72.87
825.929	91.31
826.107	87.21
826.284	5.29
826.462	58.54
826.639	89.26
826.817	56.49
826.994	138.41
827.172	25.77
827.349	113.83
827.527	136.36
827.704	62.63
827.882	165.03
828.059	91.31
828.237	111.78
828.414	167.08
828.591	87.21
828.769	103.59
828.946	111.78
829.124	70.83
829.301	21.67
829.478	70.83
829.655	79.02
829.833	107.69
830.01	5.29
830.187	83.11
830.364	136.36
830.542	130.22
830.719	136.36
830.896	144.55
831.073	89.26
831.25	97.45
831.427	148.65
831.604	50.35
831.782	79.02
831.959	62.63
832.136	91.31
832.313	105.64
832.49	54.44
832.667	64.68
832.844	23.72
833.021	181.42
833.198	29.87
833.374	44.2
833.551	56.49
833.728	66.73
833.905	107.69
834.082	5.29
834.259	81.07
834.436	23.72
834.612	95.4
834.789	148.65
834.966	130.22
835.143	136.36
835.319	76.97
835.496	64.68
835.673	62.63
835.85	95.4
836.026	70.83
836.203	140.46
836.38	74.92
836.556	79.02
836.733	42.15
836.909	46.25
837.086	33.96
837.262	54.44
837.439	15.53
837.616	62.63
837.792	46.25
837.968	99.5
838.145	-33.62
838.321	36.01
838.498	109.74
838.674	136.36
838.851	42.15
839.027	70.83
839.203	74.92
839.38	-2.9
839.556	19.63
839.732	81.07
839.909	81.07
840.085	21.67
840.261	87.21
840.437	64.68
840.614	38.06
840.79	68.78
840.966	95.4
841.142	15.53
841.318	62.63
841.494	132.26
841.671	29.87
841.847	9.39
842.023	42.15
842.199	54.44
842.375	23.72
842.551	-45.91
842.727	-27.48
842.903	95.4
843.079	-43.86
843.255	95.4
843.431	91.31
843.607	46.25
843.783	-7
843.959	85.16
844.134	54.44
844.31	5.29
844.486	103.59
844.662	21.67
844.838	103.59
845.013	7.34
845.189	-2.9
845.365	58.54
845.541	70.83
845.716	40.11
845.892	56.49
846.068	38.06
846.244	72.87
846.419	105.64
846.595	23.72
846.77	38.06
846.946	81.07
847.122	111.78
847.297	23.72
847.473	132.26
847.648	-99.16
847.824	19.63
847.999	5.29
848.175	-0.85
848.35	64.68
848.526	46.25
848.701	5.29
848.876	72.87
849.052	60.59
849.227	38.06
849.403	3.24
849.578	95.4
849.753	-0.85
849.929	97.45
850.104	31.91
850.279	56.49
850.454	25.77
850.63	99.5
850.805	-43.86
850.98	38.06
851.155	70.83
851.33	13.48
851.505	50.35
851.681	68.78
851.856	29.87
852.031	144.55
852.206	103.59
852.381	54.44
852.556	-0.85
852.731	74.92
852.906	54.44
853.081	15.53
853.256	113.83
853.431	97.45
853.606	38.06
853.781	-23.38
853.956	62.63
854.131	42.15
854.305	36.01
854.48	76.97
854.655	-39.76
854.83	15.53
855.005	40.11
855.18	74.92
855.354	21.67
855.529	38.06
855.704	31.91
855.879	23.72
856.053	21.67
856.228	76.97
856.403	-64.34
856.577	13.48
856.752	-19.29
856.926	46.25
857.101	36.01
857.276	7.34
857.45	-7
857.625	5.29
857.799	25.77
857.974	-2.9
858.148	-9.05
858.323	64.68
858.497	17.58
858.672	31.91
858.846	7.34
859.02	56.49
859.195	21.67
859.369	48.3
859.543	5.29
859.718	113.83
859.892	46.25
860.066	85.16
860.241	-21.33
860.415	-9.05
860.589	-11.09
860.763	21.67
860.938	9.39
861.112	13.48
861.286	40.11
861.46	38.06
861.634	97.45
861.808	23.72
861.982	46.25
862.157	29.87
862.331	-15.19
862.505	-23.38
862.679	36.01
862.853	15.53
863.027	9.39
863.201	66.73
863.375	5.29
863.549	7.34
863.722	36.01
863.896	107.69
864.07	11.43
864.244	-66.39
864.418	-11.09
864.592	107.69
864.766	29.87
864.939	-13.14
865.113	23.72
865.287	64.68
865.461	27.82
865.634	13.48
865.808	-2.9
865.982	56.49
866.156	-31.57
866.329	25.77
866.503	79.02
866.676	60.59
866.85	29.87
867.024	54.44
867.197	5.29
867.371	46.25
867.544	21.67
867.718	-2.9
867.891	17.58
868.065	-2.9
868.238	15.53
868.412	74.92
868.585	56.49
868.759	1.19
868.932	48.3
869.105	-15.19
869.279	-9.05
869.452	5.29
869.625	58.54
869.799	5.29
869.972	-37.72
870.145	-25.43
870.319	15.53
870.492	1.19
870.665	72.87
870.838	31.91
871.011	-2.9
871.185	-23.38
871.358	-19.29
871.531	58.54
871.704	-39.76
871.877	13.48
872.05	17.58
872.223	-0.85
872.396	105.64
872.569	70.83
872.742	-76.63
872.915	62.63
873.088	-0.85
873.261	3.24
873.434	19.63
873.607	52.39
873.78	-2.9
873.953	-66.39
874.126	38.06
874.299	-43.86
874.471	-52.05
874.644	-15.19
874.817	-2.9
874.99	27.82
875.163	-9.05
875.335	-2.9
875.508	-9.05
875.681	13.48
875.853	3.24
876.026	54.44
876.199	13.48
876.371	70.83
876.544	-84.82
876.717	15.53
876.889	-9.05
877.062	33.96
877.234	29.87
877.407	58.54
877.579	-35.67
877.752	54.44
877.924	29.87
878.097	25.77
878.269	23.72
878.442	-0.85
878.614	-15.19
878.786	9.39
878.959	17.58
879.131	38.06
879.303	-58.2
879.476	7.34
879.648	91.31
879.82	-11.09
879.993	-17.24
880.165	-41.81
880.337	-19.29
880.509	29.87
880.681	-52.05
880.854	-21.33
881.026	-88.92
881.198	9.39
881.37	17.58
881.542	42.15
881.714	9.39
881.886	-60.24
882.058	38.06
882.23	21.67
882.402	-56.15
882.574	70.83
882.746	13.48
882.918	50.35
883.09	25.77
883.262	21.67
883.434	-19.29
883.606	15.53
883.778	79.02
883.95	38.06
884.122	-0.85
884.293	46.25
884.465	70.83
884.637	3.24
884.809	9.39
884.98	21.67
885.152	21.67
885.324	-17.24
885.496	5.29
885.667	7.34
885.839	25.77
886.011	21.67
886.182	7.34
886.354	29.87
886.525	5.29
886.697	29.87
886.869	-11.09
887.04	-23.38
887.212	134.31
887.383	13.48
887.555	17.58
887.726	21.67
887.897	-2.9
888.069	40.11
888.24	-41.81
888.412	21.67
888.583	-15.19
888.754	-4.95
888.926	-43.86
889.097	79.02
889.268	-37.72
889.44	-9.05
889.611	-156.5
889.782	50.35
889.953	-25.43
890.125	64.68
890.296	-99.16
890.467	48.3
890.638	-11.09
890.809	-9.05
890.98	1.19
891.151	70.83
891.323	5.29
891.494	5.29
891.665	-43.86
891.836	-4.95
892.007	-21.33
892.178	-47.96
892.349	-66.39
892.52	-41.81
892.691	46.25
892.862	46.25
893.032	-29.52
893.203	-39.76
893.374	31.91
893.545	13.48
893.716	-2.9
893.887	31.91
894.057	15.53
894.228	-47.96
894.399	79.02
894.57	25.77
894.74	19.63
894.911	-21.33
895.082	21.67
895.253	5.29
895.423	54.44
895.594	23.72
895.764	42.15
895.935	-39.76
896.106	17.58
896.276	21.67
896.447	-17.24
896.617	33.96
896.788	144.55
896.958	1.19
897.129	7.34
897.299	-80.72
897.47	66.73
897.64	5.29
897.81	46.25
897.981	17.58
898.151	36.01
898.322	-15.19
898.492	29.87
898.662	9.39
898.832	21.67
899.003	46.25
899.173	-11.09
899.343	21.67
899.513	21.67
