Data from USB4F104151__166__14-44-54-635.txt Node

Date: Thu Mar 13 14:44:54 EDT 2025
User: louis
Spectrometer: USB4F10415
Trigger mode: 4
Integration Time (sec): 2.000000E-2
Scans to average: 1
Electric dark correction enabled: true
Nonlinearity correction enabled: false
Boxcar width: 0
XAxis mode: Wavelengths
Number of Pixels in Spectrum: 3648
>>>>>Begin Spectral Data<<<<<
178.204	-161.62
178.424	-161.62
178.644	-161.62
178.864	-249.68
179.084	-116.56
179.304	28.84
179.524	-34.64
179.744	-16.21
179.964	55.47
180.184	-71.51
180.404	28.84
180.624	-1.88
180.844	-14.17
181.064	6.31
181.283	18.6
181.503	10.41
181.723	-10.07
181.943	-44.88
182.163	32.94
182.383	-55.12
182.602	2.22
182.822	18.6
183.042	39.08
183.262	-5.97
183.482	51.37
183.701	2.22
183.921	18.6
184.141	-36.69
184.361	51.37
184.58	-16.21
184.8	71.85
185.02	2.22
185.239	82.09
185.459	30.89
185.679	18.6
185.898	-59.22
186.118	2.22
186.338	4.27
186.557	59.56
186.777	-14.17
186.997	20.65
187.216	18.6
187.436	86.19
187.655	-81.75
187.875	47.27
188.095	0.17
188.314	43.18
188.534	37.03
188.753	-38.74
188.973	51.37
189.192	75.95
189.412	-38.74
189.631	82.09
189.851	-26.45
190.07	63.66
190.29	-55.12
190.509	18.6
190.729	8.36
190.948	2.22
191.168	129.19
191.387	100.52
191.607	-5.97
191.826	-22.36
192.045	34.99
192.265	-14.17
192.484	61.61
192.704	6.31
192.923	18.6
193.142	67.75
193.362	-10.07
193.581	67.75
193.8	22.7
194.02	18.6
194.239	22.7
194.458	-51.03
194.678	20.65
194.897	-55.12
195.116	-38.74
195.335	14.51
195.555	4.27
195.774	-18.26
195.993	53.42
196.212	18.6
196.432	-16.21
196.651	55.47
196.87	-3.93
197.089	77.99
197.308	10.41
197.528	26.79
197.747	10.41
197.966	-10.07
198.185	8.36
198.404	-30.55
198.623	14.51
198.842	43.18
199.062	47.27
199.281	45.23
199.5	-20.31
199.719	-8.02
199.938	59.56
200.157	63.66
200.376	2.22
200.595	118.95
200.814	10.41
201.033	-1.88
201.252	77.99
201.471	12.46
201.69	2.22
201.909	47.27
202.128	28.84
202.347	-22.36
202.566	16.55
202.785	10.41
203.004	2.22
203.223	59.56
203.442	67.75
203.661	-20.31
203.879	-46.93
204.098	43.18
204.317	-38.74
204.536	41.13
204.755	4.27
204.974	67.75
205.193	-3.93
205.411	-20.31
205.63	22.7
205.849	37.03
206.068	-20.31
206.287	41.13
206.505	-32.6
206.724	16.55
206.943	14.51
207.162	34.99
207.381	10.41
207.599	16.55
207.818	39.08
208.037	18.6
208.255	-10.07
208.474	6.31
208.693	-36.69
208.911	-55.12
209.13	55.47
209.349	34.99
209.567	10.41
209.786	75.95
210.005	16.55
210.223	24.75
210.442	-18.26
210.661	-30.55
210.879	-46.93
211.098	28.84
211.316	39.08
211.535	51.37
211.753	10.41
211.972	-48.98
212.191	53.42
212.409	26.79
212.628	32.94
212.846	22.7
213.065	-18.26
213.283	10.41
213.502	-14.17
213.72	53.42
213.938	-1.88
214.157	14.51
214.375	-30.55
214.594	30.89
214.812	45.23
215.031	2.22
215.249	10.41
215.467	22.7
215.686	-30.55
215.904	-28.5
216.122	43.18
216.341	53.42
216.559	88.23
216.778	84.14
216.996	67.75
217.214	-46.93
217.432	61.61
217.651	4.27
217.869	34.99
218.087	18.6
218.306	28.84
218.524	47.27
218.742	-22.36
218.96	14.51
219.179	26.79
219.397	6.31
219.615	92.33
219.833	61.61
220.051	-3.93
220.27	59.56
220.488	-22.36
220.706	2.22
220.924	-112.47
221.142	-89.94
221.36	-71.51
221.578	-3.93
221.796	-36.69
222.015	32.94
222.233	2.22
222.451	45.23
222.669	-55.12
222.887	20.65
223.105	-30.55
223.323	26.79
223.541	2.22
223.759	26.79
223.977	-5.97
224.195	26.79
224.413	-22.36
224.631	-46.93
224.849	16.55
225.067	43.18
225.285	-14.17
225.503	-28.5
225.721	-14.17
225.939	41.13
226.157	-36.69
226.375	53.42
226.592	-40.79
226.81	75.95
227.028	53.42
227.246	6.31
227.464	2.22
227.682	-18.26
227.9	-1.88
228.117	28.84
228.335	14.51
228.553	-8.02
228.771	55.47
228.989	59.56
229.206	20.65
229.424	-46.93
229.642	86.19
229.86	12.46
230.077	67.75
230.295	14.51
230.513	92.33
230.731	121
230.948	34.99
231.166	-10.07
231.384	-22.36
231.601	6.31
231.819	51.37
232.037	-46.93
232.254	-20.31
232.472	6.31
232.689	-24.4
232.907	61.61
233.125	-22.36
233.342	55.47
233.56	32.94
233.777	51.37
233.995	49.32
234.213	61.61
234.43	-14.17
234.648	-18.26
234.865	-30.55
235.083	-26.45
235.3	26.79
235.518	4.27
235.735	37.03
235.953	4.27
236.17	30.89
236.388	10.41
236.605	49.32
236.822	28.84
237.04	18.6
237.257	-46.93
237.475	16.55
237.692	-3.93
237.909	2.22
238.127	69.8
238.344	20.65
238.562	28.84
238.779	32.94
238.996	-26.45
239.214	-26.45
239.431	51.37
239.648	-36.69
239.865	28.84
240.083	63.66
240.3	10.41
240.517	53.42
240.735	-36.69
240.952	10.41
241.169	26.79
241.386	18.6
241.603	-26.45
241.821	10.41
242.038	10.41
242.255	34.99
242.472	-12.12
242.689	2.22
242.907	47.27
243.124	-38.74
243.341	-22.36
243.558	43.18
243.775	51.37
243.992	61.61
244.209	34.99
244.426	14.51
244.643	6.31
244.86	-20.31
245.078	53.42
245.295	53.42
245.512	-69.46
245.729	61.61
245.946	-22.36
246.163	80.04
246.38	116.9
246.597	10.41
246.814	-14.17
247.031	20.65
247.248	14.51
247.464	39.08
247.681	-14.17
247.898	4.27
248.115	-22.36
248.332	2.22
248.549	34.99
248.766	98.47
248.983	12.46
249.2	47.27
249.417	-26.45
249.633	51.37
249.85	39.08
250.067	-22.36
250.284	6.31
250.501	51.37
250.717	69.8
250.934	26.79
251.151	53.42
251.368	55.47
251.585	26.79
251.801	24.75
252.018	53.42
252.235	-20.31
252.451	-120.66
252.668	10.41
252.885	39.08
253.102	59.56
253.318	10.41
253.535	8.36
253.752	18.6
253.968	-10.07
254.185	-48.98
254.401	-20.31
254.618	10.41
254.835	-22.36
255.051	118.95
255.268	49.32
255.484	86.19
255.701	41.13
255.917	10.41
256.134	-42.84
256.351	57.51
256.567	-5.97
256.784	2.22
257	16.55
257.217	67.75
257.433	-53.08
257.65	16.55
257.866	-44.88
258.082	0.17
258.299	18.6
258.515	28.84
258.732	-22.36
258.948	-30.55
259.165	57.51
259.381	20.65
259.597	39.08
259.814	4.27
260.03	-1.88
260.246	-44.88
260.463	61.61
260.679	-1.88
260.895	4.27
261.112	-36.69
261.328	20.65
261.544	34.99
261.761	110.76
261.977	-5.97
262.193	-77.65
262.409	24.75
262.626	41.13
262.842	10.41
263.058	-32.6
263.274	20.65
263.49	16.55
263.707	43.18
263.923	-30.55
264.139	-96.08
264.355	-32.6
264.571	10.41
264.787	-51.03
265.004	-5.97
265.22	22.7
265.436	86.19
265.652	-12.12
265.868	14.51
266.084	8.36
266.3	6.31
266.516	-30.55
266.732	34.99
266.948	61.61
267.164	-3.93
267.38	37.03
267.596	-22.36
267.812	51.37
268.028	43.18
268.244	-5.97
268.46	67.75
268.676	-12.12
268.892	39.08
269.108	-16.21
269.324	71.85
269.54	26.79
269.756	75.95
269.972	-44.88
270.188	-46.93
270.403	-14.17
270.619	59.56
270.835	22.7
271.051	26.79
271.267	20.65
271.483	-1.88
271.698	-22.36
271.914	51.37
272.13	-5.97
272.346	-46.93
272.562	26.79
272.777	55.47
272.993	4.27
273.209	10.41
273.425	59.56
273.64	-118.61
273.856	43.18
274.072	-63.32
274.287	45.23
274.503	59.56
274.719	-26.45
274.934	-42.84
275.15	-12.12
275.366	-10.07
275.581	-30.55
275.797	16.55
276.012	28.84
276.228	-14.17
276.444	92.33
276.659	26.79
276.875	20.65
277.09	-3.93
277.306	0.17
277.521	-5.97
277.737	4.27
277.952	26.79
278.168	-67.41
278.383	-5.97
278.599	28.84
278.814	75.95
279.03	-8.02
279.245	63.66
279.461	47.27
279.676	67.75
279.892	45.23
280.107	53.42
280.322	6.31
280.538	14.51
280.753	34.99
280.969	-38.74
281.184	34.99
281.399	118.95
281.615	22.7
281.83	55.47
282.045	12.46
282.26	-5.97
282.476	73.9
282.691	26.79
282.906	39.08
283.122	2.22
283.337	-44.88
283.552	26.79
283.767	-57.17
283.983	102.57
284.198	-20.31
284.413	106.67
284.628	-22.36
284.843	12.46
285.058	75.95
285.274	61.61
285.489	20.65
285.704	20.65
285.919	-32.6
286.134	34.99
286.349	4.27
286.564	-18.26
286.779	63.66
286.995	-10.07
287.21	75.95
287.425	77.99
287.64	55.47
287.855	-42.84
288.07	12.46
288.285	59.56
288.5	18.6
288.715	18.6
288.93	28.84
289.145	-14.17
289.36	10.41
289.575	59.56
289.79	14.51
290.004	-8.02
290.219	34.99
290.434	-30.55
290.649	16.55
290.864	75.95
291.079	4.27
291.294	26.79
291.509	12.46
291.724	63.66
291.938	26.79
292.153	18.6
292.368	-38.74
292.583	-3.93
292.798	37.03
293.012	2.22
293.227	22.7
293.442	-53.08
293.657	67.75
293.871	92.33
294.086	59.56
294.301	75.95
294.516	39.08
294.73	45.23
294.945	18.6
295.16	28.84
295.374	20.65
295.589	43.18
295.804	-8.02
296.018	59.56
296.233	43.18
296.447	22.7
296.662	-28.5
296.877	32.94
297.091	34.99
297.306	80.04
297.52	16.55
297.735	26.79
297.949	92.33
298.164	67.75
298.378	75.95
298.593	-5.97
298.807	6.31
299.022	-10.07
299.236	-5.97
299.451	43.18
299.665	18.6
299.88	53.42
300.094	-28.5
300.309	71.85
300.523	0.17
300.737	-55.12
300.952	-5.97
301.166	26.79
301.381	-18.26
301.595	10.41
301.809	26.79
302.024	14.51
302.238	61.61
302.452	61.61
302.667	6.31
302.881	2.22
303.095	53.42
303.309	28.84
303.524	-20.31
303.738	-1.88
303.952	59.56
304.166	37.03
304.381	-79.7
304.595	18.6
304.809	37.03
305.023	49.32
305.237	47.27
305.452	57.51
305.666	-12.12
305.88	37.03
306.094	-18.26
306.308	45.23
306.522	22.7
306.736	-22.36
306.95	4.27
307.164	-8.02
307.379	69.8
307.593	129.19
307.807	51.37
308.021	24.75
308.235	10.41
308.449	-65.36
308.663	55.47
308.877	149.67
309.091	-61.27
309.305	84.14
309.519	12.46
309.733	-10.07
309.947	-24.4
310.161	-36.69
310.374	6.31
310.588	100.52
310.802	28.84
311.016	28.84
311.23	24.75
311.444	-30.55
311.658	28.84
311.872	6.31
312.085	37.03
312.299	10.41
312.513	43.18
312.727	34.99
312.941	22.7
313.154	-1.88
313.368	28.84
313.582	6.31
313.796	10.41
314.009	61.61
314.223	55.47
314.437	67.75
314.651	24.75
314.864	-14.17
315.078	96.43
315.292	-22.36
315.505	28.84
315.719	67.75
315.933	18.6
316.146	10.41
316.36	-3.93
316.573	59.56
316.787	-5.97
317.001	-18.26
317.214	6.31
317.428	41.13
317.641	69.8
317.855	51.37
318.068	-28.5
318.282	39.08
318.495	73.9
318.709	34.99
318.922	94.38
319.136	73.9
319.349	82.09
319.563	-5.97
319.776	26.79
319.99	-57.17
320.203	26.79
320.417	24.75
320.63	10.41
320.843	71.85
321.057	53.42
321.27	41.13
321.483	84.14
321.697	135.34
321.91	-51.03
322.124	55.47
322.337	12.46
322.55	-28.5
322.763	2.22
322.977	18.6
323.19	-42.84
323.403	10.41
323.617	-12.12
323.83	-38.74
324.043	34.99
324.256	20.65
324.469	18.6
324.683	75.95
324.896	84.14
325.109	30.89
325.322	-3.93
325.535	75.95
325.748	28.84
325.962	18.6
326.175	34.99
326.388	69.8
326.601	71.85
326.814	43.18
327.027	18.6
327.24	14.51
327.453	10.41
327.666	43.18
327.879	71.85
328.092	-14.17
328.305	18.6
328.518	22.7
328.731	4.27
328.944	-26.45
329.157	2.22
329.37	6.31
329.583	20.65
329.796	10.41
330.009	-5.97
330.222	14.51
330.435	39.08
330.648	28.84
330.861	-12.12
331.073	37.03
331.286	96.43
331.499	-34.64
331.712	2.22
331.925	-42.84
332.138	59.56
332.35	26.79
332.563	-12.12
332.776	-40.79
332.989	-5.97
333.202	47.27
333.414	12.46
333.627	57.51
333.84	2.22
334.053	121
334.265	18.6
334.478	20.65
334.691	34.99
334.903	4.27
335.116	24.75
335.329	51.37
335.541	-1.88
335.754	86.19
335.966	10.41
336.179	-18.26
336.392	10.41
336.604	10.41
336.817	-42.84
337.029	43.18
337.242	2.22
337.454	20.65
337.667	-55.12
337.88	22.7
338.092	55.47
338.305	-5.97
338.517	14.51
338.729	28.84
338.942	39.08
339.154	-10.07
339.367	-42.84
339.579	43.18
339.792	-53.08
340.004	43.18
340.217	-30.55
340.429	22.7
340.641	-1.88
340.854	-48.98
341.066	12.46
341.278	92.33
341.491	80.04
341.703	-24.4
341.915	-28.5
342.128	67.75
342.34	14.51
342.552	-53.08
342.764	63.66
342.977	-61.27
343.189	51.37
343.401	108.71
343.613	45.23
343.826	-42.84
344.038	16.55
344.25	43.18
344.462	28.84
344.674	55.47
344.886	86.19
345.099	43.18
345.311	43.18
345.523	2.22
345.735	-3.93
345.947	30.89
346.159	80.04
346.371	-1.88
346.583	-32.6
346.795	102.57
347.007	28.84
347.219	26.79
347.431	26.79
347.643	55.47
347.855	2.22
348.067	22.7
348.279	65.71
348.491	14.51
348.703	14.51
348.915	-3.93
349.127	-14.17
349.339	18.6
349.551	-38.74
349.763	2.22
349.975	26.79
350.187	26.79
350.399	84.14
350.61	-59.22
350.822	34.99
351.034	43.18
351.246	49.32
351.458	28.84
351.669	18.6
351.881	61.61
352.093	92.33
352.305	75.95
352.517	53.42
352.728	37.03
352.94	45.23
353.152	43.18
353.363	51.37
353.575	67.75
353.787	-30.55
353.999	-16.21
354.21	18.6
354.422	37.03
354.633	45.23
354.845	37.03
355.057	77.99
355.268	20.65
355.48	55.47
355.692	10.41
355.903	-10.07
356.115	2.22
356.326	-40.79
356.538	100.52
356.749	28.84
356.961	80.04
357.172	59.56
357.384	51.37
357.595	151.72
357.807	-1.88
358.018	39.08
358.23	-3.93
358.441	116.9
358.653	2.22
358.864	16.55
359.075	88.23
359.287	28.84
359.498	149.67
359.709	-3.93
359.921	80.04
360.132	90.28
360.344	59.56
360.555	2.22
360.766	20.65
360.977	-38.74
361.189	10.41
361.4	-20.31
361.611	51.37
361.823	43.18
362.034	100.52
362.245	2.22
362.456	10.41
362.667	100.52
362.879	-38.74
363.09	53.42
363.301	18.6
363.512	-22.36
363.723	18.6
363.935	2.22
364.146	22.7
364.357	32.94
364.568	20.65
364.779	-53.08
364.99	67.75
365.201	20.65
365.412	2.22
365.623	-87.89
365.834	67.75
366.045	34.99
366.256	12.46
366.467	61.61
366.678	37.03
366.889	37.03
367.1	22.7
367.311	32.94
367.522	26.79
367.733	135.34
367.944	18.6
368.155	-38.74
368.366	49.32
368.577	51.37
368.788	75.95
368.999	-22.36
369.209	67.75
369.42	18.6
369.631	32.94
369.842	51.37
370.053	61.61
370.264	75.95
370.474	-36.69
370.685	28.84
370.896	-48.98
371.107	67.75
371.317	43.18
371.528	108.71
371.739	45.23
371.95	16.55
372.16	-3.93
372.371	4.27
372.582	-53.08
372.792	145.58
373.003	51.37
373.214	24.75
373.424	84.14
373.635	-5.97
373.846	67.75
374.056	6.31
374.267	4.27
374.477	30.89
374.688	-40.79
374.898	10.41
375.109	26.79
375.319	-12.12
375.53	53.42
375.74	67.75
375.951	65.71
376.161	4.27
376.372	67.75
376.582	-12.12
376.793	-5.97
377.003	45.23
377.214	18.6
377.424	20.65
377.635	47.27
377.845	75.95
378.055	67.75
378.266	20.65
378.476	-20.31
378.686	75.95
378.897	75.95
379.107	129.19
379.317	116.9
379.528	-10.07
379.738	-1.88
379.948	67.75
380.158	34.99
380.369	28.84
380.579	10.41
380.789	75.95
380.999	12.46
381.21	55.47
381.42	73.9
381.63	28.84
381.84	32.94
382.05	45.23
382.261	10.41
382.471	55.47
382.681	82.09
382.891	110.76
383.101	80.04
383.311	28.84
383.521	51.37
383.731	67.75
383.941	18.6
384.151	-5.97
384.361	67.75
384.571	-89.94
384.781	123.05
384.991	92.33
385.201	41.13
385.411	18.6
385.621	71.85
385.831	82.09
386.041	45.23
386.251	47.27
386.461	53.42
386.671	30.89
386.881	80.04
387.091	2.22
387.301	104.62
387.511	45.23
387.72	26.79
387.93	12.46
388.14	-26.45
388.35	-30.55
388.56	47.27
388.769	51.37
388.979	92.33
389.189	4.27
389.399	18.6
389.609	2.22
389.818	88.23
390.028	51.37
390.238	-46.93
390.447	28.84
390.657	26.79
390.867	84.14
391.076	108.71
391.286	106.67
391.496	77.99
391.705	22.7
391.915	63.66
392.125	80.04
392.334	28.84
392.544	45.23
392.753	20.65
392.963	65.71
393.172	10.41
393.382	75.95
393.591	133.29
393.801	22.7
394.01	16.55
394.22	43.18
394.429	51.37
394.639	77.99
394.848	47.27
395.058	145.58
395.267	37.03
395.477	59.56
395.686	141.48
395.895	71.85
396.105	112.81
396.314	106.67
396.524	51.37
396.733	118.95
396.942	125.1
397.152	94.38
397.361	133.29
397.57	77.99
397.78	57.51
397.989	94.38
398.198	149.67
398.407	37.03
398.617	84.14
398.826	129.19
399.035	131.24
399.244	75.95
399.453	34.99
399.663	161.96
399.872	116.9
400.081	-16.21
400.29	131.24
400.499	67.75
400.708	194.73
400.917	71.85
401.127	77.99
401.336	98.47
401.545	51.37
401.754	118.95
401.963	92.33
402.172	118.95
402.381	112.81
402.59	53.42
402.799	84.14
403.008	75.95
403.217	151.72
403.426	127.14
403.635	80.04
403.844	170.15
404.053	75.95
404.262	45.23
404.471	112.81
404.68	61.61
404.888	166.06
405.097	112.81
405.306	125.1
405.515	139.43
405.724	110.76
405.933	123.05
406.142	125.1
406.35	153.77
406.559	155.82
406.768	108.71
406.977	223.4
407.185	168.1
407.394	168.1
407.603	192.68
407.812	166.06
408.02	196.78
408.229	239.78
408.438	204.97
408.646	141.48
408.855	135.34
409.064	317.61
409.272	209.06
409.481	299.17
409.69	200.87
409.898	231.59
410.107	338.09
410.315	223.4
410.524	270.5
410.733	301.22
410.941	245.93
411.15	313.51
411.358	342.18
411.567	387.24
411.775	366.76
411.984	344.23
412.192	346.28
412.401	409.76
412.609	413.86
412.818	522.4
413.026	438.44
413.234	387.24
413.443	456.87
413.651	479.4
413.86	534.69
414.068	485.54
414.276	493.73
414.485	551.07
414.693	583.84
414.901	635.04
415.11	747.68
415.318	596.13
415.526	704.67
415.734	659.62
415.943	641.18
416.151	733.34
416.359	821.41
416.567	729.25
416.776	774.3
416.984	940.19
417.192	970.91
417.4	788.64
417.608	845.98
417.817	1030.3
418.025	997.53
418.233	1077.4
418.441	972.96
418.649	1005.72
418.857	1216.66
419.065	1149.08
419.273	1206.42
419.481	1237.14
419.689	1321.11
419.897	1288.34
420.105	1298.58
420.313	1394.84
420.521	1382.55
420.729	1400.98
420.937	1464.47
421.145	1484.95
421.353	1611.92
421.561	1745.04
421.769	1714.32
421.977	1691.79
422.185	1706.13
422.393	1845.39
422.601	1968.27
422.809	1921.17
423.017	2044.04
423.224	2035.85
423.432	2250.89
423.64	2156.68
423.848	2406.53
424.056	2336.9
424.263	2496.64
424.471	2459.78
424.679	2570.37
424.887	2699.39
425.094	2754.69
425.302	2779.26
425.51	2949.25
425.718	2814.08
425.925	2988.16
426.133	3133.56
426.341	3305.59
426.548	3459.19
426.756	3354.74
426.964	3573.88
427.171	3692.66
427.379	3704.95
427.586	3836.02
427.794	3993.71
428.001	4083.82
428.209	4331.62
428.417	4182.12
428.624	4544.61
428.832	4507.75
429.039	4493.41
429.247	4589.67
429.454	4780.13
429.662	5234.78
429.869	4900.96
430.076	5355.61
430.284	5140.57
430.491	5388.38
430.699	5673.04
430.906	5711.96
431.114	5689.43
431.321	5978.19
431.528	6174.8
431.736	6512.71
431.943	6834.24
432.15	6576.2
432.358	6533.19
432.565	7059.52
432.772	6924.35
432.979	7249.98
433.187	7206.97
433.394	7393.34
433.601	8054.83
433.808	7829.56
434.016	8099.89
434.223	8419.37
434.43	8632.36
434.637	8607.78
434.844	9205.79
435.052	9398.3
435.259	9275.42
435.466	9463.83
435.673	9418.78
435.88	9797.65
436.087	10266.64
436.294	10268.69
436.501	10096.66
436.708	10211.34
436.915	10725.38
437.122	11085.83
437.329	11067.39
437.537	11446.27
437.743	11677.69
437.95	11614.2
438.157	12242.93
438.364	12392.43
438.571	12374
438.778	12412.91
438.985	13572.06
439.192	13152.23
439.399	13486.04
439.606	13381.6
439.813	14211.03
440.02	14950.34
440.227	14731.21
440.433	14516.17
440.64	14884.81
440.847	14882.76
441.054	15323.07
441.261	16093.11
441.467	15814.59
441.674	16529.33
441.881	16945.06
442.088	16926.63
442.294	16813.99
442.501	17049.51
442.708	17553.31
442.914	18120.6
443.121	19015.56
443.328	18524.05
443.534	19523.46
443.741	19132.29
443.948	18485.14
444.154	20356.98
444.361	20010.87
444.568	20260.73
444.774	20031.35
444.981	20391.8
445.187	20868.97
445.394	21874.52
445.6	21458.79
445.807	23893.82
446.013	22998.86
446.22	23091.02
446.426	24018.75
446.633	24115
446.839	25042.73
447.046	24028.99
447.252	25554.72
447.459	25605.92
447.665	25075.5
447.871	26320.67
448.078	27520.77
448.284	26365.72
448.491	26810.13
448.697	28147.45
448.903	28069.63
449.11	28708.6
449.316	28043.01
449.522	28571.38
449.728	29716.2
449.935	29834.98
450.141	29441.77
450.347	30201.57
450.553	29853.41
450.76	29826.79
450.966	30990.03
451.172	30299.87
451.378	31370.96
451.584	30699.22
451.791	31426.25
451.997	31059.66
452.203	31784.65
452.409	31784.65
452.615	31762.12
452.821	30551.77
453.027	30056.16
453.233	31301.33
453.44	30521.05
453.646	31026.9
453.852	31137.49
454.058	31506.12
454.264	30594.78
454.47	31510.22
454.676	30600.92
454.882	31536.84
455.088	28655.35
455.294	29648.61
455.5	29994.72
455.705	30176.99
455.911	28825.33
456.117	28389.11
456.323	28385.02
456.529	26681.11
456.735	27756.29
456.941	27152.14
457.147	26545.94
457.352	25870.11
457.558	25642.79
457.764	25648.93
457.97	25239.34
458.176	24407.86
458.381	24676.15
458.587	23441.22
458.793	23578.43
458.999	22165.34
459.204	24110.91
459.41	23045.96
459.616	21729.12
459.821	21854.05
460.027	21706.59
460.233	21571.43
460.438	20352.88
460.644	20676.46
460.85	19337.09
461.055	19392.39
461.261	19085.19
461.466	17768.35
461.672	17098.66
461.878	18296.72
462.083	17215.4
462.289	16883.63
462.494	16797.61
462.7	15898.55
462.905	15493.05
463.111	15849.4
463.316	15939.51
463.522	15601.6
463.727	15691.71
463.932	15847.35
464.138	15570.88
464.343	15681.47
464.549	14936.01
464.754	15644.6
464.959	15484.86
465.165	15267.78
465.37	14720.97
465.575	14288.85
465.781	15194.05
465.986	14890.95
466.191	14477.26
466.397	14069.72
466.602	13635.55
466.807	14096.34
467.012	14116.82
467.218	13969.37
467.423	13895.64
467.628	13821.91
467.833	14323.66
468.038	13752.28
468.244	13766.62
468.449	13897.69
468.654	13580.25
468.859	13723.61
469.064	13443.04
469.269	12992.48
469.474	13010.92
469.679	13295.58
469.885	12691.43
470.09	12974.05
470.295	13221.86
470.5	12478.44
470.705	12937.19
470.91	12361.71
471.115	12369.9
471.32	12627.95
471.525	12572.65
471.73	12101.62
471.935	12179.44
472.139	11671.54
472.344	11857.91
472.549	11671.54
472.754	11544.57
472.959	11374.59
473.164	11110.4
473.369	10809.35
473.574	11339.77
473.778	11184.13
473.983	11249.66
474.188	11188.22
474.393	10790.92
474.598	10702.86
474.802	10532.87
475.007	10475.53
475.212	10643.46
475.417	10235.92
475.621	10280.97
475.826	10352.65
476.031	10033.17
476.235	9742.36
476.44	10070.03
476.645	9670.68
476.849	9717.78
477.054	9664.54
477.259	9642.01
477.463	9574.42
477.668	9332.76
477.872	9455.64
478.077	9132.06
478.282	8992.8
478.486	9060.38
478.691	8806.44
478.895	9029.66
479.1	8943.65
479.304	8857.64
479.509	8595.5
479.713	8816.68
479.918	8493.1
480.122	8259.63
480.326	8517.67
480.531	8540.2
480.735	8415.27
480.94	8382.51
481.144	8562.73
481.348	8206.38
481.553	8218.67
481.757	7985.2
481.961	8267.82
482.166	8200.24
482.37	8204.33
482.574	8155.18
482.778	8015.92
482.983	8362.03
483.187	8114.22
483.391	8161.33
483.595	8071.22
483.8	8124.46
484.004	8192.05
484.208	8316.97
484.412	8042.54
484.616	7917.62
484.821	8081.46
485.025	8071.22
485.229	8179.76
485.433	7917.62
485.637	8022.06
485.841	8138.8
486.045	8015.92
486.249	8032.3
486.453	8157.23
486.657	7999.54
486.861	8331.31
487.065	7872.56
487.269	8034.35
487.473	7968.82
487.677	8030.26
487.881	8116.27
488.085	7938.1
488.289	8173.61
488.493	8065.07
488.697	8255.53
488.901	8065.07
489.105	8214.57
489.309	8032.3
489.512	8251.44
489.716	8056.88
489.92	8237.1
490.124	8210.48
490.328	8163.37
490.531	8177.71
490.735	8413.23
490.939	8292.4
491.143	8626.22
491.346	8269.87
491.55	8556.58
491.754	8552.49
491.958	8343.6
492.161	8345.64
492.365	8572.97
492.569	8595.5
492.772	8628.26
492.976	8431.66
493.18	8835.11
493.383	8841.25
493.587	8632.36
493.79	8996.9
493.994	8697.89
494.197	8939.55
494.401	8988.71
494.605	9062.43
494.808	9062.43
495.012	9113.63
495.215	9209.89
495.419	9318.43
495.622	9203.74
495.825	9431.07
496.029	9494.55
496.232	9578.52
496.436	9521.18
496.639	9711.64
496.843	9644.06
497.046	9885.72
497.249	10018.83
497.453	10113.04
497.656	10209.29
497.859	10057.75
498.063	10262.54
498.266	10539.02
498.469	10446.86
498.673	10661.9
498.876	10688.52
499.079	10827.78
499.282	10713.1
499.485	11044.87
499.689	11220.99
499.892	11290.62
500.095	11264
500.298	11509.76
500.501	11436.03
500.705	11775.99
500.908	11900.92
501.111	11984.88
501.314	11962.36
501.517	12136.43
501.72	12374
501.923	12169.2
502.126	12503.02
502.329	12945.38
502.532	12894.18
502.735	12976.1
502.938	13178.85
503.141	13373.41
503.344	13490.14
503.547	13414.37
503.75	13615.07
503.953	13955.03
504.156	14120.92
504.359	14204.88
504.562	14215.12
504.765	14434.25
504.968	14411.73
505.17	14690.25
505.373	14622.67
505.576	14778.31
505.779	15208.39
505.982	15257.54
506.185	15747
506.387	15738.81
506.59	15880.12
506.793	15871.93
506.996	16084.92
507.198	16324.53
507.401	16408.5
507.604	16699.31
507.807	16920.49
508.009	17018.79
508.212	17006.5
508.415	17258.4
508.617	17682.33
508.82	17457.06
509.022	17467.3
509.225	17856.41
509.428	18360.21
509.63	18288.53
509.833	18329.49
510.035	19163.01
510.238	18653.07
510.44	19062.66
510.643	19232.65
510.845	19410.82
511.048	19296.13
511.25	19738.49
511.453	19521.41
511.655	20504.43
511.858	20084.6
512.06	20225.91
512.262	20365.17
512.465	20563.82
512.667	20963.18
512.87	21018.47
513.072	21215.08
513.274	21567.33
513.477	21759.84
513.679	22021.98
513.881	22361.94
514.084	22464.34
514.286	22568.79
514.488	22433.62
514.69	23211.85
514.893	23181.13
515.095	23273.29
515.297	23500.61
515.499	23811.9
515.701	23703.36
515.904	24186.68
516.106	24145.72
516.308	24469.3
516.51	24825.65
516.712	25114.41
516.914	25055.02
517.116	25593.64
517.318	25507.62
517.52	25999.13
517.722	26144.54
517.925	26494.74
518.127	26457.88
518.329	26623.76
518.531	26519.32
518.733	27195.15
518.935	27182.86
519.136	27426.57
519.338	27744
519.54	27899.65
519.742	28135.17
519.944	28180.22
520.146	28643.06
520.348	28645.11
520.55	28747.51
520.752	29026.03
520.954	29609.7
521.155	29447.91
521.357	30207.71
521.559	30037.73
521.761	30316.25
521.963	30445.27
522.164	30662.36
522.366	30568.15
522.568	30947.03
522.77	31291.09
522.971	31717.06
523.173	31383.24
523.375	31825.61
523.576	31803.08
523.778	31704.77
523.98	31991.49
524.181	32597.69
524.383	32569.02
524.584	32620.22
524.786	32683.7
524.988	32452.28
525.189	33048.24
525.391	33230.51
525.592	33509.04
525.794	33672.87
525.995	33779.37
526.197	33521.32
526.398	33439.4
526.6	34014.88
526.801	33990.31
527.003	34238.11
527.204	34176.67
527.406	34627.23
527.607	34422.43
527.808	34825.88
528.01	34631.32
528.211	34741.91
528.412	35253.9
528.614	35305.1
528.815	35438.22
529.016	35495.57
529.218	35090.07
529.419	35554.96
529.62	35253.9
529.822	35548.81
530.023	35524.24
530.224	35634.83
530.425	35423.89
530.626	35563.15
530.828	35466.89
531.029	36355.71
531.23	35954.31
531.431	35452.56
531.632	36071.04
531.833	35944.07
532.035	36238.98
532.236	35997.32
532.437	36148.87
532.638	36183.68
532.839	36265.6
533.04	36198.02
533.241	35798.66
533.442	36394.62
533.643	36306.56
533.844	36404.86
534.045	36423.29
534.246	36036.23
534.447	36634.24
534.648	36384.38
534.849	36339.33
535.05	36112
535.251	36464.25
535.451	36267.65
535.652	36558.46
535.853	36378.24
536.054	36697.72
536.255	36241.03
536.456	36015.75
536.657	36695.67
536.857	36589.18
537.058	36191.87
537.259	36609.66
537.46	36431.49
537.66	36304.51
537.861	36036.23
538.062	36013.7
538.263	36365.95
538.463	36546.17
538.664	36320.9
538.865	36595.32
539.065	36083.33
539.266	35980.93
539.466	36499.07
539.667	36069
539.868	36613.76
540.068	35958.41
540.269	35915.4
540.469	36216.45
540.67	36206.21
540.87	36271.75
541.071	35726.99
541.271	35999.37
541.472	36382.34
541.672	35516.04
541.873	35917.45
542.073	35356.3
542.274	36505.21
542.474	36036.23
542.675	36058.76
542.875	36228.74
543.075	36052.61
543.276	35876.49
543.476	36138.63
543.676	35743.37
543.877	36044.42
544.077	36046.47
544.277	35958.41
544.478	35481.23
544.678	36257.41
544.878	35999.37
545.078	36238.98
545.279	35837.58
545.479	35829.38
545.679	36077.19
545.879	36003.46
546.079	35856.01
546.28	35606.16
546.48	35616.4
546.68	35573.39
546.88	35960.45
547.08	35841.67
547.28	35833.48
547.48	35423.89
547.68	36034.18
547.88	35528.33
548.081	35946.12
548.281	35591.82
548.481	35720.84
548.681	36175.49
548.881	35640.97
549.081	35548.81
549.28	35622.54
549.48	35382.93
549.68	35616.4
549.88	35985.03
550.08	35468.94
550.28	35511.95
550.48	35587.72
550.68	35683.98
550.88	35577.48
551.08	35174.03
551.279	35597.96
551.479	35544.72
551.679	35362.45
551.879	35364.5
552.079	35491.47
552.278	35243.66
552.478	35274.38
552.678	35362.45
552.878	35581.58
553.077	35088.02
553.277	34864.79
553.477	35903.11
553.676	35131.03
553.876	35495.57
554.076	35055.25
554.275	35026.58
554.475	35067.54
554.674	35262.1
554.874	35235.47
555.074	35174.03
555.273	35202.71
555.473	35030.68
555.672	35012.24
555.872	34760.34
556.071	34797.21
556.271	35047.06
556.47	35083.92
556.67	34350.75
556.869	34827.93
557.068	34950.81
557.268	34729.62
557.467	34856.6
557.667	34528.92
557.866	34533.02
558.065	34506.4
558.265	34567.84
558.464	34555.55
558.663	34602.65
558.863	34049.7
559.062	34813.59
559.261	34330.27
559.461	34993.81
559.66	33867.43
559.859	34051.75
560.058	34037.41
560.258	34074.27
560.457	34094.75
560.656	34166.43
560.855	33910.44
561.054	34059.94
561.253	33904.29
561.453	33838.76
561.652	33836.71
561.851	34164.39
562.05	33439.4
562.249	33472.17
562.448	33887.91
562.647	33642.15
562.846	33232.56
563.045	33207.98
563.244	33343.15
563.443	33705.64
563.642	32960.18
563.841	32968.37
564.04	32872.12
564.239	33220.27
564.438	32906.93
564.637	33103.54
564.836	32962.23
565.035	32755.38
565.234	32810.68
565.432	32382.65
565.631	32960.18
565.83	32931.51
566.029	32575.16
566.228	32403.13
566.427	32546.49
566.625	32208.58
566.824	32034.5
567.023	32415.42
567.222	31645.38
567.42	32339.65
567.619	32052.93
567.818	32188.1
568.016	31997.63
568.215	31772.36
568.414	31868.61
568.612	32286.4
568.811	31465.16
569.01	31921.86
569.208	31633.1
569.407	31532.75
569.605	31411.92
569.804	31350.48
570.002	31016.66
570.201	31743.69
570.4	31213.26
570.598	31059.66
570.797	30906.07
570.995	31180.49
571.193	30551.77
571.392	30777.05
571.59	30584.54
571.789	30559.96
571.987	30516.95
572.186	30555.86
572.384	30398.17
572.582	30592.73
572.781	30439.13
572.979	29767.4
573.177	30185.18
573.376	30492.38
573.574	29906.66
573.772	29890.27
573.971	29746.92
574.169	29456.11
574.367	29476.58
574.565	29843.17
574.763	29646.57
574.962	29560.55
575.16	29150.96
575.358	29282.03
575.556	29005.55
575.754	29273.84
575.952	28931.83
576.151	29402.86
576.349	28856.05
576.547	28733.17
576.745	29077.23
576.943	29040.37
577.141	28624.63
577.339	28946.16
577.537	28716.79
577.735	28673.78
577.933	28673.78
578.131	28657.4
578.329	28446.46
578.527	28077.82
578.725	28604.15
578.923	28370.68
579.121	28006.14
579.319	27903.74
579.516	27946.75
579.714	28000
579.912	27576.07
580.11	27842.31
580.308	27889.41
580.506	27549.45
580.704	27098.89
580.901	27354.89
581.099	27711.24
581.297	27424.52
581.495	27082.51
581.692	27121.42
581.89	26980.11
582.088	27127.56
582.285	26926.86
582.483	27152.14
582.681	27158.28
582.878	26912.53
583.076	26384.15
583.274	26699.54
583.471	26332.95
583.669	26781.46
583.866	26363.67
584.064	26910.48
584.262	26167.07
584.459	26705.68
584.657	26367.77
584.854	26316.57
585.052	25888.54
585.249	25863.97
585.447	26171.16
585.644	25757.47
585.841	25759.52
586.039	26056.48
586.236	25519.91
586.434	25802.53
586.631	25136.94
586.828	25472.81
587.026	25571.11
587.223	25601.83
587.42	25380.65
587.618	25372.46
587.815	24860.46
588.012	25149.23
588.21	24684.34
588.407	25087.79
588.604	24837.94
588.801	24827.7
588.999	24762.16
589.196	24590.13
589.393	24878.9
589.59	24454.97
589.787	24647.47
589.984	24301.37
590.182	24037.18
590.379	24268.6
590.576	24205.11
590.773	24082.24
590.97	24207.16
591.167	24123.19
591.364	23727.94
591.561	23955.26
591.758	23725.89
591.955	23555.91
592.152	23783.23
592.349	23324.49
592.546	23613.25
592.743	23664.45
592.94	23005
593.137	23269.19
593.334	23600.96
593.531	22998.86
593.727	23131.98
593.924	23082.83
594.121	22869.84
594.318	22769.49
594.515	22513.49
594.712	23076.68
594.908	22706
595.105	22742.86
595.302	22587.22
595.499	22796.11
595.696	22374.23
595.892	22202.2
596.089	22441.81
596.286	22632.27
596.482	22368.09
596.679	22159.19
596.876	22310.74
597.072	21841.76
597.269	22177.62
597.466	21757.79
597.662	21858.14
597.859	21763.93
598.055	21808.99
598.252	21452.64
598.448	21765.98
598.645	21395.3
598.841	21419.88
599.038	21340.01
599.234	21233.51
599.431	20959.08
599.627	20989.8
599.824	21194.6
600.02	20989.8
600.217	21208.94
600.413	20778.86
600.609	20787.05
600.806	20705.13
601.002	20742
601.198	20399.99
601.395	20639.6
601.591	20817.77
601.787	20682.61
601.984	20453.23
602.18	20416.37
602.376	20299.64
602.572	19967.87
602.769	20211.57
602.965	20092.79
603.161	19971.96
603.357	20187
603.553	20066.17
603.75	20043.64
603.946	19576.7
604.142	19787.64
604.338	19554.18
604.534	19941.24
604.73	19500.93
604.926	19244.93
605.122	19615.62
605.318	19279.75
605.514	19322.76
605.71	19382.15
605.906	19081.1
606.102	19191.69
606.298	19091.34
606.494	19081.1
606.69	18888.59
606.886	18937.74
607.082	18812.81
607.278	19222.41
607.474	18958.22
607.67	18782.09
607.866	18673.55
608.062	18894.73
608.257	18669.45
608.453	18581.39
608.649	18712.46
608.845	18546.58
609.041	18339.73
609.236	18644.88
609.432	18337.68
609.628	18370.45
609.824	18417.55
610.019	18378.64
610.215	18388.88
610.411	18241.43
610.606	18042.78
610.802	18290.58
610.998	17977.24
611.193	17891.23
611.389	17926.04
611.584	17950.62
611.78	17541.02
611.976	18071.45
612.171	18003.86
612.367	17749.92
612.562	17700.76
612.758	17278.88
612.953	17803.16
613.149	17651.61
613.344	17590.17
613.539	17829.79
613.735	17663.9
613.93	17616.8
614.126	17704.86
614.321	17545.12
614.517	17493.92
614.712	17391.52
614.907	17317.79
615.103	17405.86
615.298	17119.14
615.493	17409.95
615.688	17024.93
615.884	17475.49
616.079	17123.24
616.274	17344.42
616.47	17117.09
616.665	16920.49
616.86	16830.38
617.055	17186.72
617.25	17055.65
617.445	16900.01
617.641	16916.39
617.836	17168.29
618.031	16637.87
618.226	16852.91
618.421	16695.21
618.616	16668.59
618.811	16547.76
619.006	16668.59
619.201	16371.63
619.396	16435.12
619.591	16097.21
619.786	16365.49
619.981	15927.22
620.176	16263.09
620.371	16103.35
620.566	15837.11
620.761	15912.89
620.956	15677.37
621.151	15687.61
621.346	15740.86
621.541	15646.65
621.735	15734.71
621.93	15443.9
622.125	15542.21
622.32	15308.74
622.515	15509.44
622.709	15263.68
622.904	15214.53
623.099	15126.47
623.294	14813.13
623.488	14923.72
623.683	14909.38
623.878	14563.28
624.072	14606.28
624.267	14534.6
624.462	14514.13
624.656	14327.76
624.851	14501.84
625.046	14278.61
625.24	14317.52
625.435	14149.59
625.629	14245.84
625.824	14159.83
626.018	13979.61
626.213	13735.9
626.407	13742.04
626.602	13809.62
626.796	13637.59
626.991	13717.47
627.185	13653.98
627.38	13385.69
627.574	13606.88
627.768	13037.54
627.963	13086.69
628.157	13092.83
628.352	12791.78
628.546	13094.88
628.74	13154.27
628.935	12879.85
629.129	12890.09
629.323	12726.25
629.517	12408.81
629.712	12564.46
629.906	12662.76
630.1	12337.13
630.294	12558.32
630.489	12425.2
630.683	12414.96
630.877	12027.89
631.071	12154.87
631.265	12218.35
631.459	12046.32
631.653	11859.96
631.848	11790.33
632.042	11888.63
632.236	11714.55
632.43	11501.56
632.624	11751.42
632.818	11495.42
633.012	11563
633.206	11544.57
633.4	11417.6
633.594	11163.65
633.788	11433.98
633.982	11333.63
634.176	11317.25
634.369	11038.72
634.563	11122.69
634.757	11163.65
634.951	11132.93
635.145	11010.05
635.339	10848.26
635.533	10926.08
635.726	10811.4
635.92	10618.89
636.114	10803.21
636.308	10627.08
636.501	10737.67
636.695	10307.6
636.889	10274.83
637.083	10184.72
637.276	10362.89
637.47	10197.01
637.664	10016.79
637.857	10213.39
638.051	9965.59
638.244	10008.59
638.438	10016.79
638.632	9908.24
638.825	9744.41
639.019	9932.82
639.212	9652.25
639.406	9707.54
639.599	9680.92
639.793	9631.77
639.986	9568.28
640.18	9457.69
640.373	9558.04
640.567	9558.04
640.76	9222.17
640.954	9218.08
641.147	9156.64
641.34	9281.57
641.534	9242.65
641.727	9132.06
641.92	9070.62
642.114	9130.02
642.307	8775.72
642.5	8874.02
642.694	8638.5
642.887	8779.81
643.08	8886.31
643.273	8704.04
643.467	8814.63
643.66	8777.76
643.853	8714.28
644.046	8587.3
644.239	8405.03
644.432	8458.28
644.626	8454.19
644.819	8319.02
645.012	8288.3
645.205	8417.32
645.398	8368.17
645.591	8235.05
645.784	8091.7
645.977	8153.13
646.17	8187.95
646.363	8073.26
646.556	8097.84
646.749	7964.72
646.942	7915.57
647.135	7960.63
647.328	7737.4
647.521	7841.84
647.714	7725.11
647.907	7682.1
648.099	7503.93
648.292	7653.43
648.485	7686.2
648.678	7538.74
648.871	7489.59
649.064	7321.66
649.256	7612.47
649.449	7469.11
649.642	7383.1
649.835	7260.22
650.027	7233.6
650.22	7133.25
650.413	7096.38
650.605	7163.97
650.798	7000.13
650.991	7192.64
651.183	7137.34
651.376	7057.47
651.568	6901.83
651.761	7014.46
651.954	6858.82
652.146	6762.56
652.339	6875.2
652.531	6756.42
652.724	6596.68
652.916	6781
653.109	6654.02
653.301	6613.06
653.494	6443.08
653.686	6477.9
653.879	6543.43
654.071	6522.95
654.263	6432.84
654.456	6418.5
654.648	6516.81
654.84	6279.24
655.033	6326.35
655.225	6328.39
655.417	6215.76
655.61	6510.66
655.802	6139.98
655.994	6199.37
656.186	6187.08
656.379	6101.07
656.571	6203.47
656.763	6021.2
656.955	6043.73
657.148	5998.67
657.34	6019.15
657.532	5978.19
657.724	5920.85
657.916	5869.65
658.108	5976.14
658.3	5728.34
658.492	5828.69
658.684	5894.22
658.876	5689.43
659.068	5640.28
659.26	5566.55
659.452	5568.6
659.644	5582.93
659.836	5580.89
660.028	5537.88
660.22	5482.58
660.412	5398.62
660.604	5400.66
660.796	5492.82
660.988	5400.66
661.18	5312.6
661.372	5406.81
661.563	5228.63
661.755	5228.63
661.947	5249.11
662.139	5353.56
662.331	5046.37
662.522	5081.18
662.714	5083.23
662.906	5001.31
663.097	4989.02
663.289	5023.84
663.481	4954.21
663.673	5001.31
663.864	5029.98
664.056	4884.58
664.247	4845.66
664.439	4849.76
664.631	4884.58
664.822	4937.82
665.014	4687.97
665.205	4761.7
665.397	4780.13
665.588	4790.37
665.78	4741.22
665.971	4761.7
666.163	4712.55
666.354	4745.31
666.546	4593.76
666.737	4624.48
666.929	4618.34
667.12	4663.4
667.311	4610.15
667.503	4608.1
667.694	4499.56
667.885	4434.02
668.077	4487.27
668.268	4401.26
668.459	4474.98
668.651	4427.88
668.842	4296.81
669.033	4292.71
669.224	4284.52
669.416	4477.03
669.607	4315.24
669.798	4305
669.989	4442.21
670.18	4329.58
670.371	4288.62
670.563	4165.74
670.754	4239.47
670.945	4198.51
671.136	4040.81
671.327	4157.55
671.518	4204.65
671.709	4118.64
671.9	3909.74
672.091	4169.84
672.282	4124.78
672.473	3991.66
672.664	4008.05
672.855	4018.29
673.046	3907.7
673.237	4147.31
673.428	3958.89
673.619	3813.49
673.809	3713.14
674	3889.26
674.191	3836.02
674.382	3907.7
674.573	3821.68
674.764	3864.69
674.954	3874.93
675.145	3743.86
675.336	3661.94
675.527	3815.54
675.717	3668.08
675.908	3684.47
676.099	3793.01
676.289	3811.44
676.48	3590.26
676.671	3676.27
676.861	3778.67
677.052	3682.42
677.243	3651.7
677.433	3666.03
677.624	3692.66
677.814	3672.18
678.005	3602.55
678.195	3618.93
678.386	3635.32
678.576	3608.69
678.767	3586.16
678.957	3532.92
679.148	3401.85
679.338	3573.88
679.529	3491.96
679.719	3518.58
679.909	3627.12
680.1	3590.26
680.29	3545.2
680.481	3477.62
680.671	3524.72
680.861	3328.12
681.052	3451
681.242	3463.29
681.432	3373.18
681.622	3332.22
681.813	3442.81
682.003	3393.65
682.193	3344.5
682.383	3512.44
682.573	3260.54
682.764	3395.7
682.954	3418.23
683.144	3457.14
683.334	3385.46
683.524	3352.7
683.714	3389.56
683.904	3209.34
684.094	3346.55
684.284	3354.74
684.474	3358.84
684.664	3254.39
684.854	3227.77
685.044	3246.2
685.234	3287.16
685.424	3180.67
685.614	3217.53
685.804	3188.86
685.994	3143.8
686.184	3192.95
686.374	3094.65
686.564	3141.75
686.753	3108.99
686.943	3168.38
687.133	3065.98
687.323	3139.71
687.513	3104.89
687.702	3049.6
687.892	2955.39
688.082	2934.91
688.272	3096.7
688.461	3131.51
688.651	3092.6
688.841	3016.83
689.03	2953.34
689.22	2918.53
689.41	2926.72
689.599	2912.38
689.789	2852.99
689.979	3012.73
690.168	2852.99
690.358	2803.84
690.547	2836.61
690.737	2908.29
690.926	2908.29
691.116	2775.17
691.305	2838.66
691.495	2742.4
691.684	2701.44
691.874	2812.03
692.063	2650.24
692.252	2842.75
692.442	2650.24
692.631	2601.09
692.82	2816.13
693.01	2562.18
693.199	2672.77
693.388	2640
693.578	2590.85
693.767	2787.46
693.956	2607.23
694.146	2453.64
694.335	2672.77
694.524	2683.01
694.713	2584.71
694.902	2621.57
695.092	2576.52
695.281	2562.18
695.47	2517.12
695.659	2576.52
695.848	2467.97
696.037	2558.08
696.226	2566.28
696.415	2435.21
696.604	2584.71
696.793	2607.23
696.982	2498.69
697.171	2519.17
697.36	2453.64
697.549	2525.32
697.738	2353.29
697.927	2398.34
698.116	2441.35
698.305	2486.4
698.494	2443.4
698.683	2418.82
698.872	2431.11
699.061	2369.67
699.25	2398.34
699.438	2455.69
699.627	2418.82
699.816	2416.77
700.005	2357.38
700.193	2447.49
700.382	2369.67
700.571	2332.81
700.76	2316.42
700.948	2379.91
701.137	2402.44
701.326	2306.18
701.514	2254.98
701.703	2304.14
701.892	2265.22
702.08	2394.25
702.269	2271.37
702.457	2443.4
702.646	2330.76
702.834	2257.03
703.023	2228.36
703.212	2336.9
703.4	2359.43
703.589	2279.56
703.777	2304.14
703.965	2304.14
704.154	2271.37
704.342	2220.17
704.531	2240.65
704.719	2185.35
704.907	2271.37
705.096	2150.54
705.284	2166.92
705.472	2246.79
705.661	2355.33
705.849	2226.31
706.037	2238.6
706.226	2261.13
706.414	2377.86
706.602	2338.95
706.79	2162.83
706.979	2369.67
707.167	2279.56
707.355	2250.89
707.543	2185.35
707.731	2345.09
707.919	2250.89
708.107	2166.92
708.296	2265.22
708.484	2312.33
708.672	2244.74
708.86	2287.75
709.048	2265.22
709.236	2205.83
709.424	2177.16
709.612	2222.22
709.8	2173.07
709.988	2078.86
710.176	2295.94
710.364	2295.94
710.551	2164.87
710.739	2171.02
710.927	2187.4
711.115	2240.65
711.303	2207.88
711.491	2189.45
711.679	2162.83
711.866	2109.58
712.054	2166.92
712.242	2175.11
712.43	2279.56
712.617	2244.74
712.805	2238.6
712.993	2152.59
713.181	2250.89
713.368	2263.18
713.556	2283.66
713.744	2187.4
713.931	2287.75
714.119	2267.27
714.306	2205.83
714.494	2134.15
714.682	2125.96
714.869	2093.19
715.057	2295.94
715.244	2123.91
715.432	2173.07
715.619	2175.11
715.807	2205.83
715.994	2164.87
716.182	2263.18
716.369	2134.15
716.556	2107.53
716.744	2191.5
716.931	2158.73
717.119	2121.87
717.306	2177.16
717.493	2338.95
717.681	2191.5
717.868	2197.64
718.055	2181.26
718.242	2265.22
718.43	2214.02
718.617	2238.6
718.804	2193.55
718.991	2257.03
719.179	2197.64
719.366	2150.54
719.553	2236.55
719.74	2175.11
719.927	2222.22
720.114	2281.61
720.301	2091.15
720.488	2074.76
720.676	2140.3
720.863	2111.63
721.05	2209.93
721.237	2189.45
721.424	2093.19
721.611	2109.58
721.798	2287.75
721.985	2150.54
722.172	2240.65
722.358	2205.83
722.545	2156.68
722.732	2128.01
722.919	2222.22
723.106	2103.43
723.293	2187.4
723.48	2140.3
723.667	2201.74
723.853	2191.5
724.04	2193.55
724.227	2314.38
724.414	2236.55
724.6	2158.73
724.787	2168.97
724.974	2214.02
725.161	2207.88
725.347	2152.59
725.534	2132.11
725.72	2107.53
725.907	2214.02
726.094	2304.14
726.28	2230.41
726.467	2195.59
726.653	2162.83
726.84	2195.59
727.027	2269.32
727.213	2103.43
727.4	2195.59
727.586	2164.87
727.773	2226.31
727.959	2123.91
728.145	2226.31
728.332	2119.82
728.518	2121.87
728.705	2230.41
728.891	2222.22
729.077	2238.6
729.264	2156.68
729.45	2156.68
729.636	2263.18
729.823	2142.35
730.009	2252.94
730.195	2197.64
730.382	2263.18
730.568	2222.22
730.754	2271.37
730.94	2232.46
731.126	2226.31
731.313	2273.42
731.499	2273.42
731.685	2185.35
731.871	2211.98
732.057	2076.81
732.243	2207.88
732.429	2365.57
732.615	2185.35
732.801	2050.19
732.987	2175.11
733.173	2238.6
733.359	2109.58
733.545	2179.21
733.731	2123.91
733.917	2181.26
734.103	2201.74
734.289	2254.98
734.475	2164.87
734.661	2191.5
734.847	2240.65
735.033	2205.83
735.219	2254.98
735.404	2160.78
735.59	2152.59
735.776	2222.22
735.962	2113.67
736.148	2257.03
736.333	2166.92
736.519	2259.08
736.705	2271.37
736.89	2156.68
737.076	2164.87
737.262	2144.39
737.447	2220.17
737.633	2080.91
737.819	2099.34
738.004	2091.15
738.19	2078.86
738.375	2091.15
738.561	2099.34
738.747	2125.96
738.932	2138.25
739.118	2125.96
739.303	2230.41
739.489	2205.83
739.674	2125.96
739.859	2035.85
740.045	2025.61
740.23	2140.3
740.416	2070.67
740.601	2197.64
740.786	2191.5
740.972	2035.85
741.157	2033.8
741.342	2035.85
741.528	1943.69
741.713	2148.49
741.898	2160.78
742.084	2095.24
742.269	2091.15
742.454	1945.74
742.639	2054.28
742.824	2076.81
743.01	2082.95
743.195	2050.19
743.38	2078.86
743.565	2027.66
743.75	1951.88
743.935	1953.93
744.12	2042
744.305	1943.69
744.49	1808.53
744.675	1994.89
744.86	1964.17
745.045	1943.69
745.23	1937.55
745.415	1829.01
745.6	1943.69
745.785	1882.25
745.97	1902.73
746.155	1767.57
746.34	1902.73
746.525	1837.2
746.71	1976.46
746.895	1874.06
747.079	1955.98
747.264	1790.1
747.449	1812.62
747.634	1849.49
747.819	1822.86
748.003	1689.74
748.188	1759.38
748.373	1683.6
748.557	1640.59
748.742	1720.46
748.927	1761.42
749.111	1740.94
749.296	1689.74
749.481	1695.89
749.665	1665.17
749.85	1730.7
750.034	1626.26
750.219	1665.17
750.404	1577.11
750.588	1675.41
750.773	1593.49
750.957	1595.54
751.141	1636.5
751.326	1681.55
751.51	1562.77
751.695	1616.02
751.879	1519.76
752.064	1624.21
752.248	1566.87
752.432	1640.59
752.617	1468.56
752.801	1446.04
752.985	1544.34
753.17	1476.76
753.354	1448.08
753.538	1540.24
753.722	1452.18
753.907	1499.28
754.091	1448.08
754.275	1431.7
754.459	1468.56
754.643	1398.93
754.828	1464.47
755.012	1431.7
755.196	1349.78
755.38	1331.35
755.564	1431.7
755.748	1355.93
755.932	1294.49
756.116	1419.41
756.3	1276.06
756.484	1298.58
756.668	1396.89
756.852	1233.05
757.036	1335.45
757.22	1255.58
757.404	1325.21
757.588	1183.9
757.772	1304.73
757.956	1269.91
758.14	1314.97
758.323	1206.42
758.507	1333.4
758.691	1218.71
758.875	1202.33
759.059	1218.71
759.242	1214.62
759.426	1159.32
759.61	1185.94
759.794	1249.43
759.977	1159.32
760.161	1214.62
760.345	1169.56
760.528	1130.65
760.712	1237.14
760.895	1108.12
761.079	1087.64
761.263	1063.07
761.446	1026.2
761.63	1118.36
761.813	1091.74
761.997	1058.97
762.18	1165.46
762.364	1081.5
762.547	970.91
762.731	968.86
762.914	1061.02
763.098	1058.97
763.281	1032.35
763.464	1034.39
763.648	1040.54
763.831	1026.2
764.015	1099.93
764.198	1009.82
764.381	1112.22
764.564	1061.02
764.748	1110.17
764.931	1075.35
765.114	1042.59
765.297	1077.4
765.481	995.48
765.664	1003.68
765.847	1042.59
766.03	1058.97
766.213	919.71
766.397	929.95
766.58	993.44
766.763	993.44
766.946	1026.2
767.129	977.05
767.312	956.57
767.495	923.8
767.678	901.28
767.861	895.13
768.044	956.57
768.227	956.57
768.41	878.75
768.593	880.8
768.776	952.48
768.959	927.9
769.142	995.48
769.324	864.41
769.507	921.76
769.69	911.52
769.873	893.09
770.056	944.28
770.239	780.45
770.421	938.14
770.604	798.88
770.787	825.5
770.97	921.76
771.152	856.22
771.335	755.87
771.518	854.17
771.7	825.5
771.883	848.03
772.066	837.79
772.248	831.65
772.431	827.55
772.613	745.63
772.796	809.12
772.978	841.89
773.161	823.45
773.343	874.65
773.526	755.87
773.708	870.56
773.891	745.63
774.073	776.35
774.256	762.02
774.438	788.64
774.621	727.2
774.803	757.92
774.985	757.92
775.168	780.45
775.35	731.3
775.532	698.53
775.715	735.39
775.897	704.67
776.079	725.15
776.261	710.82
776.444	723.1
776.626	747.68
776.808	690.34
776.99	723.1
777.173	706.72
777.355	706.72
777.537	649.38
777.719	731.3
777.901	723.1
778.083	628.9
778.265	639.14
778.447	706.72
778.629	608.42
778.811	616.61
778.993	780.45
779.175	684.19
779.357	706.72
779.539	534.69
779.721	592.03
779.903	641.18
780.085	647.33
780.267	594.08
780.449	665.76
780.631	610.47
780.812	557.22
780.994	602.27
781.176	551.07
781.358	526.5
781.54	489.64
781.721	557.22
781.903	592.03
782.085	563.36
782.267	567.46
782.448	540.83
782.63	510.11
782.812	587.94
782.993	565.41
783.175	536.74
783.357	579.75
783.538	614.56
783.72	512.16
783.901	569.51
784.083	518.31
784.264	485.54
784.446	528.55
784.627	493.73
784.809	528.55
784.99	426.15
785.172	518.31
785.353	522.4
785.535	514.21
785.716	403.62
785.897	448.68
786.079	463.01
786.26	387.24
786.441	483.49
786.623	493.73
786.804	403.62
786.985	432.29
787.167	444.58
787.348	401.57
787.529	420
787.71	518.31
787.891	452.77
788.073	415.91
788.254	430.24
788.435	452.77
788.616	415.91
788.797	346.28
788.978	342.18
789.159	356.52
789.34	329.89
789.522	397.48
789.703	366.76
789.884	409.76
790.065	430.24
790.246	346.28
790.427	401.57
790.607	452.77
790.788	364.71
790.969	301.22
791.15	395.43
791.331	307.37
791.512	307.37
791.693	350.37
791.874	342.18
792.054	391.33
792.235	370.85
792.416	276.65
792.597	370.85
792.778	348.33
792.958	379.04
793.139	319.65
793.32	315.56
793.5	338.09
793.681	331.94
793.862	276.65
794.042	383.14
794.223	301.22
794.404	372.9
794.584	237.74
794.765	362.66
794.945	305.32
795.126	317.61
795.306	379.04
795.487	342.18
795.667	309.41
795.848	293.03
796.028	325.8
796.209	229.54
796.389	333.99
796.57	313.51
796.75	315.56
796.93	389.28
797.111	309.41
797.291	239.78
797.471	331.94
797.652	229.54
797.832	217.26
798.012	227.5
798.192	272.55
798.373	260.26
798.553	241.83
798.733	301.22
798.913	231.59
799.093	200.87
799.274	288.93
799.454	207.02
799.634	366.76
799.814	280.74
799.994	311.46
800.174	227.5
800.354	204.97
800.534	211.11
800.714	258.21
800.894	215.21
801.074	260.26
801.254	157.86
801.434	270.5
801.614	209.06
801.794	278.69
801.974	940.19
802.154	209.06
802.334	190.63
802.514	219.3
802.693	260.26
802.873	194.73
803.053	272.55
803.233	174.25
803.413	180.39
803.592	190.63
803.772	223.4
803.952	143.53
804.131	159.91
804.311	194.73
804.491	247.97
804.67	166.06
804.85	207.02
805.03	243.88
805.209	272.55
805.389	133.29
805.568	297.13
805.748	192.68
805.928	233.64
806.107	186.54
806.287	198.82
806.466	207.02
806.646	225.45
806.825	159.91
807.004	71.85
807.184	231.59
807.363	243.88
807.543	182.44
807.722	149.67
807.901	229.54
808.081	229.54
808.26	125.1
808.439	182.44
808.619	168.1
808.798	186.54
808.977	143.53
809.156	229.54
809.336	209.06
809.515	176.3
809.694	112.81
809.873	96.43
810.052	125.1
810.231	129.19
810.411	118.95
810.59	184.49
810.769	118.95
810.948	200.87
811.127	80.04
811.306	176.3
811.485	194.73
811.664	172.2
811.843	125.1
812.022	166.06
812.201	178.34
812.38	145.58
812.559	129.19
812.737	194.73
812.916	176.3
813.095	90.28
813.274	141.48
813.453	69.8
813.632	202.92
813.811	153.77
813.989	84.14
814.168	100.52
814.347	184.49
814.526	88.23
814.704	194.73
814.883	176.3
815.062	94.38
815.24	159.91
815.419	77.99
815.598	59.56
815.776	143.53
815.955	166.06
816.133	149.67
816.312	198.82
816.49	75.95
816.669	166.06
816.847	112.81
817.026	116.9
817.204	84.14
817.383	121
817.561	151.72
817.74	102.57
817.918	108.71
818.097	143.53
818.275	116.9
818.453	133.29
818.632	135.34
818.81	143.53
818.988	116.9
819.167	209.06
819.345	100.52
819.523	88.23
819.701	133.29
819.879	51.37
820.058	153.77
820.236	159.91
820.414	108.71
820.592	88.23
820.77	100.52
820.948	84.14
821.127	92.33
821.305	67.75
821.483	108.71
821.661	84.14
821.839	104.62
822.017	121
822.195	65.71
822.373	75.95
822.551	92.33
822.729	135.34
822.907	51.37
823.085	69.8
823.262	69.8
823.44	108.71
823.618	67.75
823.796	121
823.974	57.51
824.152	82.09
824.329	84.14
824.507	67.75
824.685	108.71
824.863	157.86
825.04	123.05
825.218	129.19
825.396	80.04
825.574	125.1
825.751	73.9
825.929	77.99
826.107	-5.97
826.284	47.27
826.462	96.43
826.639	75.95
826.817	86.19
826.994	88.23
827.172	28.84
827.349	168.1
827.527	127.14
827.704	59.56
827.882	69.8
828.059	166.06
828.237	53.42
828.414	55.47
828.591	8.36
828.769	100.52
828.946	88.23
829.124	75.95
829.301	106.67
829.478	45.23
829.655	94.38
829.833	10.41
830.01	37.03
830.187	61.61
830.364	88.23
830.542	45.23
830.719	127.14
830.896	100.52
831.073	69.8
831.25	90.28
831.427	-5.97
831.604	34.99
831.782	34.99
831.959	47.27
832.136	82.09
832.313	80.04
832.49	-16.21
832.667	137.38
832.844	63.66
833.021	67.75
833.198	102.57
833.374	112.81
833.551	84.14
833.728	47.27
833.905	88.23
834.082	30.89
834.259	45.23
834.436	94.38
834.612	-1.88
834.789	88.23
834.966	-18.26
835.143	45.23
835.319	88.23
835.496	102.57
835.673	59.56
835.85	86.19
836.026	39.08
836.203	71.85
836.38	-10.07
836.556	100.52
836.733	2.22
836.909	127.14
837.086	34.99
837.262	84.14
837.439	37.03
837.616	59.56
837.792	75.95
837.968	118.95
838.145	47.27
838.321	51.37
838.498	34.99
838.674	125.1
838.851	-1.88
839.027	69.8
839.203	59.56
839.38	65.71
839.556	-3.93
839.732	65.71
839.909	8.36
840.085	92.33
840.261	-3.93
840.437	92.33
840.614	14.51
840.79	12.46
840.966	61.61
841.142	92.33
841.318	57.51
841.494	59.56
841.671	26.79
841.847	67.75
842.023	80.04
842.199	75.95
842.375	55.47
842.551	75.95
842.727	10.41
842.903	118.95
843.079	26.79
843.255	14.51
843.431	-44.88
843.607	45.23
843.783	-1.88
843.959	-22.36
844.134	-63.32
844.31	106.67
844.486	-34.64
844.662	-5.97
844.838	-22.36
845.013	43.18
845.189	100.52
845.365	-14.17
845.541	28.84
845.716	43.18
845.892	59.56
846.068	-3.93
846.244	63.66
846.419	18.6
846.595	0.17
846.77	45.23
846.946	-14.17
847.122	-12.12
847.297	84.14
847.473	104.62
847.648	30.89
847.824	28.84
847.999	-12.12
848.175	37.03
848.35	2.22
848.526	43.18
848.701	53.42
848.876	88.23
849.052	104.62
849.227	10.41
849.403	-83.8
849.578	26.79
849.753	51.37
849.929	51.37
850.104	-22.36
850.279	26.79
850.454	55.47
850.63	100.52
850.805	82.09
850.98	82.09
851.155	-5.97
851.33	75.95
851.505	10.41
851.681	94.38
851.856	-73.56
852.031	86.19
852.206	-38.74
852.381	-3.93
852.556	10.41
852.731	16.55
852.906	2.22
853.081	43.18
853.256	34.99
853.431	-14.17
853.606	24.75
853.781	18.6
853.956	-5.97
854.131	43.18
854.305	10.41
854.48	59.56
854.655	-18.26
854.83	-22.36
855.005	-38.74
855.18	39.08
855.354	-26.45
855.529	84.14
855.704	67.75
855.879	-22.36
856.053	-36.69
856.228	37.03
856.403	-36.69
856.577	-8.02
856.752	-12.12
856.926	18.6
857.101	20.65
857.276	-63.32
857.45	-61.27
857.625	4.27
857.799	-57.17
857.974	108.71
858.148	0.17
858.323	-5.97
858.497	18.6
858.672	98.47
858.846	43.18
859.02	75.95
859.195	47.27
859.369	-73.56
859.543	2.22
859.718	49.32
859.892	0.17
860.066	75.95
860.241	18.6
860.415	2.22
860.589	-38.74
860.763	51.37
860.938	4.27
861.112	2.22
861.286	45.23
861.46	49.32
861.634	-34.64
861.808	26.79
861.982	34.99
862.157	-73.56
862.331	12.46
862.505	34.99
862.679	14.51
862.853	16.55
863.027	-20.31
863.201	92.33
863.375	4.27
863.549	-30.55
863.722	-3.93
863.896	65.71
864.07	10.41
864.244	2.22
864.418	22.7
864.592	-14.17
864.766	-55.12
864.939	2.22
865.113	-71.51
865.287	92.33
865.461	-32.6
865.634	75.95
865.808	-46.93
865.982	-44.88
866.156	14.51
866.329	2.22
866.503	88.23
866.676	39.08
866.85	-20.31
867.024	-10.07
867.197	-14.17
867.371	-36.69
867.544	-67.41
867.718	43.18
867.891	-10.07
868.065	-34.64
868.238	16.55
868.412	-22.36
868.585	53.42
868.759	28.84
868.932	-69.46
869.105	37.03
869.279	-3.93
869.452	-28.5
869.625	6.31
869.799	2.22
869.972	-14.17
870.145	6.31
870.319	-1.88
870.492	22.7
870.665	26.79
870.838	-57.17
871.011	-28.5
871.185	-10.07
871.358	18.6
871.531	6.31
871.704	-38.74
871.877	-14.17
872.05	-46.93
872.223	-67.41
872.396	6.31
872.569	12.46
872.742	55.47
872.915	22.7
873.088	6.31
873.261	-48.98
873.434	-36.69
873.607	-3.93
873.78	26.79
873.953	-59.22
874.126	28.84
874.299	-20.31
874.471	10.41
874.644	-3.93
874.817	12.46
874.99	57.51
875.163	53.42
875.335	-63.32
875.508	20.65
875.681	34.99
875.853	-22.36
876.026	-61.27
876.199	18.6
876.371	63.66
876.544	-67.41
876.717	-20.31
876.889	34.99
877.062	-5.97
877.234	-51.03
877.407	-34.64
877.579	-10.07
877.752	86.19
877.924	2.22
878.097	-30.55
878.269	18.6
878.442	-28.5
878.614	-3.93
878.786	-5.97
878.959	82.09
879.131	10.41
879.303	-36.69
879.476	-57.17
879.648	84.14
879.82	-14.17
879.993	-71.51
880.165	22.7
880.337	-75.6
880.509	0.17
880.681	-1.88
880.854	-28.5
881.026	-26.45
881.198	-14.17
881.37	-53.08
881.542	-26.45
881.714	67.75
881.886	-5.97
882.058	-3.93
882.23	18.6
882.402	-28.5
882.574	14.51
882.746	12.46
882.918	73.9
883.09	20.65
883.262	53.42
883.434	-20.31
883.606	24.75
883.778	-51.03
883.95	94.38
884.122	4.27
884.293	32.94
884.465	-42.84
884.637	-20.31
884.809	-46.93
884.98	22.7
885.152	10.41
885.324	-18.26
885.496	-18.26
885.667	10.41
885.839	-18.26
886.011	96.43
886.182	-34.64
886.354	43.18
886.525	45.23
886.697	-38.74
886.869	-22.36
887.04	-20.31
887.212	98.47
887.383	20.65
887.555	37.03
887.726	-71.51
887.897	-38.74
888.069	-18.26
888.24	55.47
888.412	0.17
888.583	4.27
888.754	-10.07
888.926	-118.61
889.097	-12.12
889.268	-14.17
889.44	12.46
889.611	-28.5
889.782	22.7
889.953	51.37
890.125	30.89
890.296	-18.26
890.467	34.99
890.638	51.37
890.809	-42.84
890.98	-67.41
891.151	43.18
891.323	47.27
891.494	-5.97
891.665	10.41
891.836	51.37
892.007	-34.64
892.178	-22.36
892.349	-20.31
892.52	-51.03
892.691	45.23
892.862	59.56
893.032	20.65
893.203	-34.64
893.374	-3.93
893.545	26.79
893.716	-44.88
893.887	-12.12
894.057	-14.17
894.228	30.89
894.399	43.18
894.57	-30.55
894.74	-63.32
894.911	-12.12
895.082	57.51
895.253	-30.55
895.423	14.51
895.594	18.6
895.764	20.65
895.935	6.31
896.106	67.75
896.276	43.18
896.447	-38.74
896.617	-87.89
896.788	-3.93
896.958	8.36
897.129	-1.88
897.299	-55.12
897.47	18.6
897.64	55.47
897.81	-22.36
897.981	57.51
898.151	-71.51
898.322	-46.93
898.492	-30.55
898.662	-67.41
898.832	-18.26
899.003	-38.74
899.173	-38.74
899.343	-10.07
899.513	-30.55
