Data from USB4F104151__84__14-43-30-115.txt Node

Date: Thu Mar 13 14:43:30 EDT 2025
User: louis
Spectrometer: USB4F10415
Trigger mode: 4
Integration Time (sec): 2.000000E-2
Scans to average: 1
Electric dark correction enabled: true
Nonlinearity correction enabled: false
Boxcar width: 0
XAxis mode: Wavelengths
Number of Pixels in Spectrum: 3648
>>>>>Begin Spectral Data<<<<<
178.204	-163.15
178.424	-163.15
178.644	-163.15
178.864	-120.15
179.084	-105.81
179.304	41.64
179.524	-15.7
179.744	31.4
179.964	-5.46
180.184	33.45
180.404	41.64
180.624	-50.52
180.844	-48.47
181.064	-15.7
181.283	-19.8
181.503	-54.61
181.723	62.12
181.943	2.73
182.163	117.42
182.383	98.99
182.602	82.6
182.822	72.36
183.042	94.89
183.262	-30.04
183.482	60.07
183.701	78.51
183.921	25.26
184.141	25.26
184.361	131.75
184.58	80.55
184.8	78.51
185.02	4.78
185.239	58.03
185.459	10.92
185.679	49.83
185.898	-11.61
186.118	123.56
186.338	60.07
186.557	41.64
186.777	-5.46
186.997	25.26
187.216	21.16
187.436	248.49
187.655	19.11
187.875	92.84
188.095	76.46
188.314	119.46
188.534	158.38
188.753	66.22
188.973	49.83
189.192	49.83
189.412	41.64
189.631	148.14
189.851	-15.7
190.07	33.45
190.29	45.74
190.509	96.94
190.729	25.26
190.948	8.87
191.168	133.8
191.387	60.07
191.607	78.51
191.826	66.22
192.045	172.71
192.265	19.11
192.484	33.45
192.704	33.45
192.923	15.02
193.142	121.51
193.362	47.79
193.581	156.33
193.8	90.79
194.02	115.37
194.239	66.22
194.458	88.75
194.678	123.56
194.897	86.7
195.116	90.79
195.335	72.36
195.555	82.6
195.774	62.12
195.993	60.07
196.212	0.68
196.432	66.22
196.651	82.6
196.87	37.55
197.089	62.12
197.308	66.22
197.528	43.69
197.747	-7.51
197.966	72.36
198.185	105.13
198.404	51.88
198.623	137.9
198.842	111.27
199.062	74.41
199.281	101.03
199.5	82.6
199.719	131.75
199.938	156.33
200.157	78.51
200.376	168.62
200.595	98.99
200.814	-3.41
201.033	58.03
201.252	90.79
201.471	27.31
201.69	35.5
201.909	109.23
202.128	76.46
202.347	41.64
202.566	47.79
202.785	41.64
203.004	101.03
203.223	123.56
203.442	90.79
203.661	58.03
203.879	45.74
204.098	68.27
204.317	125.61
204.536	53.93
204.755	94.89
204.974	68.27
205.193	84.65
205.411	119.46
205.63	8.87
205.849	82.6
206.068	27.31
206.287	94.89
206.505	62.12
206.724	107.18
206.943	88.75
207.162	25.26
207.381	103.08
207.599	74.41
207.818	6.83
208.037	31.4
208.255	29.35
208.474	66.22
208.693	35.5
208.911	101.03
209.13	76.46
209.349	115.37
209.567	96.94
209.786	-7.51
210.005	60.07
210.223	76.46
210.442	2.73
210.661	101.03
210.879	150.18
211.098	45.74
211.316	60.07
211.535	68.27
211.753	19.11
211.972	70.31
212.191	27.31
212.409	49.83
212.628	70.31
212.846	92.84
213.065	154.28
213.283	119.46
213.502	74.41
213.72	33.45
213.938	25.26
214.157	68.27
214.375	117.42
214.594	19.11
214.812	-44.37
215.031	98.99
215.249	164.52
215.467	49.83
215.686	27.31
215.904	29.35
216.122	27.31
216.341	123.56
216.559	55.98
216.778	82.6
216.996	53.93
217.214	10.92
217.432	103.08
217.651	58.03
217.869	82.6
218.087	25.26
218.306	98.99
218.524	119.46
218.742	135.85
218.96	94.89
219.179	72.36
219.397	74.41
219.615	82.6
219.833	84.65
220.051	29.35
220.27	160.42
220.488	101.03
220.706	78.51
220.924	107.18
221.142	107.18
221.36	74.41
221.578	90.79
221.796	21.16
222.015	115.37
222.233	21.16
222.451	90.79
222.669	33.45
222.887	135.85
223.105	33.45
223.323	-15.7
223.541	35.5
223.759	53.93
223.977	53.93
224.195	125.61
224.413	74.41
224.631	131.75
224.849	-11.61
225.067	131.75
225.285	123.56
225.503	92.84
225.721	0.68
225.939	105.13
226.157	37.55
226.375	115.37
226.592	37.55
226.81	29.35
227.028	90.79
227.246	139.94
227.464	125.61
227.682	55.98
227.9	33.45
228.117	17.07
228.335	66.22
228.553	35.5
228.771	84.65
228.989	49.83
229.206	64.17
229.424	90.79
229.642	43.69
229.86	66.22
230.077	103.08
230.295	90.79
230.513	107.18
230.731	90.79
230.948	55.98
231.166	51.88
231.384	90.79
231.601	49.83
231.819	92.84
232.037	74.41
232.254	74.41
232.472	25.26
232.689	37.55
232.907	27.31
233.125	58.03
233.342	58.03
233.56	70.31
233.777	49.83
233.995	72.36
234.213	49.83
234.43	43.69
234.648	72.36
234.865	25.26
235.083	94.89
235.3	12.97
235.518	82.6
235.735	84.65
235.953	55.98
236.17	-46.42
236.388	-13.65
236.605	51.88
236.822	90.79
237.04	66.22
237.257	107.18
237.475	-25.94
237.692	0.68
237.909	115.37
238.127	107.18
238.344	131.75
238.562	78.51
238.779	23.21
238.996	55.98
239.214	45.74
239.431	96.94
239.648	-3.41
239.865	92.84
240.083	164.52
240.3	70.31
240.517	51.88
240.735	25.26
240.952	33.45
241.169	103.08
241.386	17.07
241.603	-3.41
241.821	60.07
242.038	123.56
242.255	68.27
242.472	25.26
242.689	103.08
242.907	90.79
243.124	113.32
243.341	60.07
243.558	21.16
243.775	43.69
243.992	33.45
244.209	74.41
244.426	12.97
244.643	70.31
244.86	21.16
245.078	41.64
245.295	45.74
245.512	62.12
245.729	29.35
245.946	160.42
246.163	78.51
246.38	101.03
246.597	119.46
246.814	51.88
247.031	55.98
247.248	82.6
247.464	58.03
247.681	96.94
247.898	76.46
248.115	94.89
248.332	8.87
248.549	139.94
248.766	117.42
248.983	72.36
249.2	0.68
249.417	137.9
249.633	94.89
249.85	10.92
250.067	70.31
250.284	68.27
250.501	33.45
250.717	78.51
250.934	-21.84
251.151	84.65
251.368	107.18
251.585	88.75
251.801	101.03
252.018	0.68
252.235	60.07
252.451	-34.13
252.668	72.36
252.885	33.45
253.102	55.98
253.318	35.5
253.535	25.26
253.752	76.46
253.968	68.27
254.185	62.12
254.401	0.68
254.618	21.16
254.835	27.31
255.051	154.28
255.268	76.46
255.484	58.03
255.701	62.12
255.917	74.41
256.134	92.84
256.351	58.03
256.567	55.98
256.784	19.11
257	2.73
257.217	158.38
257.433	111.27
257.65	82.6
257.866	84.65
258.082	4.78
258.299	41.64
258.515	58.03
258.732	0.68
258.948	25.26
259.165	31.4
259.381	86.7
259.597	90.79
259.814	17.07
260.03	109.23
260.246	41.64
260.463	101.03
260.679	90.79
260.895	76.46
261.112	98.99
261.328	76.46
261.544	111.27
261.761	125.61
261.977	90.79
262.193	19.11
262.409	84.65
262.626	107.18
262.842	41.64
263.058	-15.7
263.274	60.07
263.49	111.27
263.707	62.12
263.923	107.18
264.139	131.75
264.355	66.22
264.571	66.22
264.787	0.68
265.004	64.17
265.22	23.21
265.436	98.99
265.652	49.83
265.868	66.22
266.084	23.21
266.3	74.41
266.516	133.8
266.732	12.97
266.948	86.7
267.164	107.18
267.38	27.31
267.596	103.08
267.812	90.79
268.028	115.37
268.244	70.31
268.46	58.03
268.676	-56.66
268.892	58.03
269.108	29.35
269.324	29.35
269.54	0.68
269.756	119.46
269.972	0.68
270.188	94.89
270.403	29.35
270.619	90.79
270.835	90.79
271.051	43.69
271.267	41.64
271.483	78.51
271.698	60.07
271.914	47.79
272.13	86.7
272.346	82.6
272.562	131.75
272.777	51.88
272.993	82.6
273.209	62.12
273.425	98.99
273.64	4.78
273.856	82.6
274.072	105.13
274.287	45.74
274.503	131.75
274.719	86.7
274.934	84.65
275.15	66.22
275.366	76.46
275.581	25.26
275.797	80.55
276.012	53.93
276.228	39.59
276.444	90.79
276.659	144.04
276.875	43.69
277.09	94.89
277.306	80.55
277.521	86.7
277.737	84.65
277.952	49.83
278.168	82.6
278.383	78.51
278.599	27.31
278.814	103.08
279.03	33.45
279.245	25.26
279.461	8.87
279.676	90.79
279.892	103.08
280.107	15.02
280.322	45.74
280.538	43.69
280.753	68.27
280.969	-7.51
281.184	25.26
281.399	148.14
281.615	49.83
281.83	39.59
282.045	53.93
282.26	51.88
282.476	84.65
282.691	53.93
282.906	35.5
283.122	51.88
283.337	43.69
283.552	129.7
283.767	117.42
283.983	96.94
284.198	82.6
284.413	35.5
284.628	-11.61
284.843	105.13
285.058	90.79
285.274	115.37
285.489	64.17
285.704	74.41
285.919	107.18
286.134	2.73
286.349	90.79
286.564	6.83
286.779	144.04
286.995	60.07
287.21	74.41
287.425	49.83
287.64	70.31
287.855	31.4
288.07	101.03
288.285	131.75
288.5	33.45
288.715	98.99
288.93	86.7
289.145	53.93
289.36	66.22
289.575	53.93
289.79	51.88
290.004	76.46
290.219	139.94
290.434	111.27
290.649	90.79
290.864	43.69
291.079	31.4
291.294	98.99
291.509	12.97
291.724	105.13
291.938	49.83
292.153	43.69
292.368	35.5
292.583	66.22
292.798	66.22
293.012	53.93
293.227	72.36
293.442	-30.04
293.657	62.12
293.871	58.03
294.086	68.27
294.301	74.41
294.516	94.89
294.73	66.22
294.945	76.46
295.16	19.11
295.374	66.22
295.589	90.79
295.804	45.74
296.018	6.83
296.233	49.83
296.447	113.32
296.662	109.23
296.877	78.51
297.091	70.31
297.306	37.55
297.52	98.99
297.735	115.37
297.949	90.79
298.164	35.5
298.378	33.45
298.593	4.78
298.807	47.79
299.022	139.94
299.236	49.83
299.451	23.21
299.665	109.23
299.88	58.03
300.094	37.55
300.309	17.07
300.523	41.64
300.737	60.07
300.952	86.7
301.166	86.7
301.381	35.5
301.595	90.79
301.809	70.31
302.024	94.89
302.238	29.35
302.452	94.89
302.667	107.18
302.881	107.18
303.095	21.16
303.309	135.85
303.524	82.6
303.738	103.08
303.952	51.88
304.166	45.74
304.381	49.83
304.595	74.41
304.809	51.88
305.023	107.18
305.237	41.64
305.452	123.56
305.666	82.6
305.88	115.37
306.094	49.83
306.308	66.22
306.522	60.07
306.736	45.74
306.95	60.07
307.164	98.99
307.379	168.62
307.593	119.46
307.807	82.6
308.021	19.11
308.235	101.03
308.449	4.78
308.663	137.9
308.877	76.46
309.091	62.12
309.305	74.41
309.519	10.92
309.733	107.18
309.947	33.45
310.161	82.6
310.374	76.46
310.588	125.61
310.802	-13.65
311.016	64.17
311.23	43.69
311.444	58.03
311.658	53.93
311.872	78.51
312.085	58.03
312.299	131.75
312.513	68.27
312.727	123.56
312.941	51.88
313.154	47.79
313.368	6.83
313.582	27.31
313.796	72.36
314.009	23.21
314.223	72.36
314.437	58.03
314.651	98.99
314.864	86.7
315.078	51.88
315.292	25.26
315.505	8.87
315.719	60.07
315.933	19.11
316.146	33.45
316.36	8.87
316.573	135.85
316.787	101.03
317.001	76.46
317.214	107.18
317.428	92.84
317.641	66.22
317.855	109.23
318.068	94.89
318.282	80.55
318.495	82.6
318.709	41.64
318.922	82.6
319.136	62.12
319.349	98.99
319.563	37.55
319.776	53.93
319.99	41.64
320.203	51.88
320.417	66.22
320.63	98.99
320.843	82.6
321.057	68.27
321.27	31.4
321.483	90.79
321.697	68.27
321.91	105.13
322.124	0.68
322.337	92.84
322.55	47.79
322.763	-7.51
322.977	53.93
323.19	98.99
323.403	86.7
323.617	86.7
323.83	123.56
324.043	49.83
324.256	41.64
324.469	41.64
324.683	47.79
324.896	107.18
325.109	60.07
325.322	21.16
325.535	107.18
325.748	64.17
325.962	45.74
326.175	66.22
326.388	156.33
326.601	115.37
326.814	90.79
327.027	129.7
327.24	84.65
327.453	-30.04
327.666	98.99
327.879	119.46
328.092	90.79
328.305	25.26
328.518	45.74
328.731	90.79
328.944	78.51
329.157	92.84
329.37	33.45
329.583	144.04
329.796	127.66
330.009	43.69
330.222	27.31
330.435	109.23
330.648	117.42
330.861	86.7
331.073	117.42
331.286	156.33
331.499	78.51
331.712	66.22
331.925	107.18
332.138	58.03
332.35	103.08
332.563	41.64
332.776	78.51
332.989	33.45
333.202	60.07
333.414	70.31
333.627	66.22
333.84	17.07
334.053	84.65
334.265	58.03
334.478	23.21
334.691	64.17
334.903	2.73
335.116	21.16
335.329	117.42
335.541	25.26
335.754	66.22
335.966	8.87
336.179	25.26
336.392	94.89
336.604	17.07
336.817	76.46
337.029	109.23
337.242	49.83
337.454	19.11
337.667	80.55
337.88	133.8
338.092	90.79
338.305	51.88
338.517	107.18
338.729	64.17
338.942	84.65
339.154	60.07
339.367	80.55
339.579	33.45
339.792	21.16
340.004	162.47
340.217	103.08
340.429	103.08
340.641	78.51
340.854	76.46
341.066	35.5
341.278	90.79
341.491	62.12
341.703	60.07
341.915	133.8
342.128	180.9
342.34	60.07
342.552	58.03
342.764	80.55
342.977	117.42
343.189	82.6
343.401	60.07
343.613	8.87
343.826	58.03
344.038	107.18
344.25	150.18
344.462	41.64
344.674	17.07
344.886	70.31
345.099	66.22
345.311	78.51
345.523	105.13
345.735	29.35
345.947	84.65
346.159	76.46
346.371	90.79
346.583	17.07
346.795	158.38
347.007	4.78
347.219	90.79
347.431	60.07
347.643	78.51
347.855	123.56
348.067	117.42
348.279	-9.56
348.491	74.41
348.703	94.89
348.915	43.69
349.127	60.07
349.339	25.26
349.551	111.27
349.763	111.27
349.975	17.07
350.187	107.18
350.399	82.6
350.61	107.18
350.822	55.98
351.034	119.46
351.246	158.38
351.458	72.36
351.669	62.12
351.881	82.6
352.093	68.27
352.305	144.04
352.517	90.79
352.728	92.84
352.94	74.41
353.152	111.27
353.363	-30.04
353.575	21.16
353.787	109.23
353.999	82.6
354.21	109.23
354.422	94.89
354.633	49.83
354.845	70.31
355.057	29.35
355.268	107.18
355.48	66.22
355.692	107.18
355.903	107.18
356.115	35.5
356.326	25.26
356.538	215.72
356.749	41.64
356.961	168.62
357.172	33.45
357.384	53.93
357.595	162.47
357.807	107.18
358.018	31.4
358.23	-7.51
358.441	96.94
358.653	111.27
358.864	74.41
359.075	96.94
359.287	80.55
359.498	62.12
359.709	58.03
359.921	-15.7
360.132	141.99
360.344	66.22
360.555	92.84
360.766	21.16
360.977	64.17
361.189	115.37
361.4	66.22
361.611	82.6
361.823	94.89
362.034	41.64
362.245	41.64
362.456	33.45
362.667	19.11
362.879	53.93
363.09	64.17
363.301	33.45
363.512	33.45
363.723	49.83
363.935	17.07
364.146	119.46
364.357	-13.65
364.568	94.89
364.779	-5.46
364.99	117.42
365.201	41.64
365.412	94.89
365.623	49.83
365.834	111.27
366.045	137.9
366.256	62.12
366.467	148.14
366.678	84.65
366.889	115.37
367.1	72.36
367.311	98.99
367.522	33.45
367.733	33.45
367.944	86.7
368.155	-32.08
368.366	141.99
368.577	76.46
368.788	98.99
368.999	47.79
369.209	78.51
369.42	160.42
369.631	178.86
369.842	101.03
370.053	92.84
370.264	146.09
370.474	37.55
370.685	90.79
370.896	109.23
371.107	109.23
371.317	68.27
371.528	10.92
371.739	10.92
371.95	80.55
372.16	162.47
372.371	45.74
372.582	74.41
372.792	74.41
373.003	113.32
373.214	62.12
373.424	137.9
373.635	117.42
373.846	62.12
374.056	84.65
374.267	49.83
374.477	41.64
374.688	49.83
374.898	4.78
375.109	76.46
375.319	58.03
375.53	101.03
375.74	96.94
375.951	115.37
376.161	62.12
376.372	113.32
376.582	58.03
376.793	141.99
377.003	66.22
377.214	80.55
377.424	45.74
377.635	98.99
377.845	133.8
378.055	197.29
378.266	90.79
378.476	70.31
378.686	94.89
378.897	78.51
379.107	82.6
379.317	139.94
379.528	123.56
379.738	68.27
379.948	90.79
380.158	164.52
380.369	115.37
380.579	68.27
380.789	158.38
380.999	94.89
381.21	131.75
381.42	74.41
381.63	47.79
381.84	148.14
382.05	113.32
382.261	82.6
382.471	139.94
382.681	139.94
382.891	84.65
383.101	103.08
383.311	80.55
383.521	8.87
383.731	76.46
383.941	205.48
384.151	70.31
384.361	123.56
384.571	144.04
384.781	125.61
384.991	98.99
385.201	119.46
385.411	119.46
385.621	74.41
385.831	58.03
386.041	101.03
386.251	101.03
386.461	60.07
386.671	33.45
386.881	109.23
387.091	123.56
387.301	35.5
387.511	2.73
387.72	113.32
387.93	94.89
388.14	66.22
388.35	58.03
388.56	127.66
388.769	76.46
388.979	180.9
389.189	96.94
389.399	47.79
389.609	25.26
389.818	115.37
390.028	139.94
390.238	66.22
390.447	43.69
390.657	90.79
390.867	58.03
391.076	55.98
391.286	115.37
391.496	66.22
391.705	86.7
391.915	156.33
392.125	74.41
392.334	129.7
392.544	101.03
392.753	156.33
392.963	107.18
393.172	92.84
393.382	90.79
393.591	178.86
393.801	88.75
394.01	221.86
394.22	125.61
394.429	90.79
394.639	49.83
394.848	107.18
395.058	98.99
395.267	144.04
395.477	86.7
395.686	156.33
395.895	156.33
396.105	141.99
396.314	103.08
396.524	98.99
396.733	133.8
396.942	133.8
397.152	107.18
397.361	66.22
397.57	164.52
397.78	27.31
397.989	148.14
398.198	213.67
398.407	94.89
398.617	133.8
398.826	148.14
399.035	105.13
399.244	115.37
399.453	90.79
399.663	115.37
399.872	174.76
400.081	119.46
400.29	215.72
400.499	70.31
400.708	152.23
400.917	158.38
401.127	150.18
401.336	201.38
401.545	133.8
401.754	139.94
401.963	180.9
402.172	152.23
402.381	113.32
402.59	185
402.799	195.24
403.008	189.1
403.217	215.72
403.426	74.41
403.635	162.47
403.844	103.08
404.053	133.8
404.262	133.8
404.471	228.01
404.68	156.33
404.888	221.86
405.097	191.14
405.306	162.47
405.515	215.72
405.724	266.92
405.933	176.81
406.142	258.73
406.35	238.25
406.559	240.3
406.768	166.57
406.977	180.9
407.185	264.87
407.394	256.68
407.603	230.06
407.812	182.95
408.02	281.25
408.229	252.58
408.438	303.78
408.646	232.1
408.855	305.83
409.064	346.79
409.272	295.59
409.481	283.3
409.69	275.11
409.898	223.91
410.107	387.75
410.315	385.7
410.524	357.03
410.733	471.72
410.941	352.93
411.15	395.94
411.358	467.62
411.567	434.85
411.775	516.77
411.984	451.24
412.192	508.58
412.401	428.71
412.609	492.2
412.818	576.16
413.026	588.45
413.234	508.58
413.443	512.67
413.651	565.92
413.86	658.08
414.068	606.88
414.276	639.65
414.485	592.55
414.693	707.23
414.901	629.41
415.11	707.23
415.318	754.34
415.526	780.96
415.734	758.43
415.943	778.91
416.151	854.69
416.359	858.78
416.567	909.98
416.776	967.32
416.984	1030.81
417.192	1018.52
417.4	1022.62
417.608	1028.76
417.817	1024.67
418.025	1137.31
418.233	1200.79
418.441	1155.74
418.649	1188.5
418.857	1317.53
419.065	1288.86
419.273	1348.25
419.481	1356.44
419.689	1495.7
419.897	1510.04
420.105	1532.56
420.313	1565.33
420.521	1589.91
420.729	1639.06
420.937	1753.74
421.145	1761.94
421.353	1806.99
421.561	1993.36
421.769	1970.83
421.977	2067.08
422.185	2093.71
422.393	2048.65
422.601	2308.74
422.809	2228.87
423.017	2194.06
423.224	2462.34
423.432	2548.36
423.64	2417.29
423.848	2583.17
424.056	2706.05
424.263	2851.46
424.471	2802.3
424.679	2859.65
424.887	3050.11
425.094	3148.41
425.302	3132.03
425.51	3224.19
425.718	3398.26
425.925	3508.85
426.133	3422.84
426.341	3621.49
426.548	3967.6
426.756	3863.15
426.964	3981.93
427.171	4153.96
427.379	4405.86
427.586	4426.34
427.794	4409.96
428.001	4579.94
428.209	4870.75
428.417	4733.54
428.624	5063.26
428.832	5309.02
429.039	5145.18
429.247	5042.78
429.454	5460.57
429.662	5816.91
429.869	5753.43
430.076	5937.74
430.284	5806.67
430.491	5952.08
430.699	6341.19
430.906	6312.52
431.114	6554.18
431.321	6535.75
431.528	7045.7
431.736	7164.48
431.943	7594.55
432.15	7254.59
432.358	7373.37
432.565	7946.8
432.772	7791.16
432.979	8176.17
433.187	8227.37
433.394	8497.7
433.601	8823.33
433.808	8974.88
434.016	8708.65
434.223	9298.46
434.43	9638.42
434.637	9560.6
434.844	10279.44
435.052	10560.01
435.259	10207.76
435.466	10510.86
435.673	10371.6
435.88	11260.41
436.087	11504.12
436.294	11608.57
436.501	11493.88
436.708	11508.22
436.915	11868.66
437.122	12659.18
437.329	12401.13
437.537	12698.09
437.743	12802.54
437.95	12833.25
438.157	13564.38
438.364	13916.63
438.571	14049.75
438.778	14109.14
438.985	15284.67
439.192	14799.3
439.399	15352.26
439.606	14957
439.813	15690.17
440.02	16497.07
440.227	16161.2
440.433	15958.46
440.64	16609.71
440.847	16542.13
441.054	17031.59
441.261	18194.84
441.467	17668.51
441.674	18340.24
441.881	18792.84
442.088	18780.56
442.294	18493.84
442.501	19231.11
442.708	19620.22
442.914	20064.63
443.121	21133.67
443.328	20687.21
443.534	22067.55
443.741	21422.44
443.948	21100.9
444.154	22620.5
444.361	22567.25
444.568	22839.63
444.774	22669.65
444.981	22831.44
445.187	23497.03
445.394	24789.3
445.6	24131.9
445.807	26577.17
446.013	25598.24
446.22	25948.45
446.426	26626.32
446.633	27240.71
446.839	27959.55
447.046	27074.83
447.252	28221.69
447.459	28387.58
447.665	28422.39
447.871	29464.81
448.078	30890.2
448.284	29165.81
448.491	30146.78
448.697	31482.06
448.903	31764.68
449.11	32147.65
449.316	31267.02
449.522	31936.71
449.728	32977.08
449.935	33099.95
450.141	33069.23
450.347	33808.55
450.553	32829.62
450.76	33505.45
450.966	34119.84
451.172	34439.33
451.378	34932.89
451.584	34521.24
451.791	35225.75
451.997	35104.91
452.203	35457.17
452.409	35385.49
452.615	35278.99
452.821	34025.64
453.027	33847.46
453.233	35362.96
453.44	34525.34
453.646	34517.15
453.852	34699.42
454.058	35313.81
454.264	34195.62
454.47	35391.63
454.676	33886.37
454.882	35442.83
455.088	32393.4
455.294	33052.85
455.5	33294.51
455.705	33679.53
455.911	32481.47
456.117	31846.6
456.323	31215.82
456.529	29618.41
456.735	31281.36
456.941	30120.16
457.147	29597.93
457.352	28948.72
457.558	28573.94
457.764	28891.38
457.97	28199.16
458.176	27652.36
458.381	27445.51
458.587	26167.58
458.793	26239.26
458.999	24897.84
459.204	26941.71
459.41	25938.21
459.616	24447.29
459.821	24023.36
460.027	24191.29
460.233	23759.17
460.438	22530.39
460.644	22919.5
460.85	21918.04
461.055	21373.28
461.261	21602.66
461.466	19917.18
461.672	19423.62
461.878	20564.34
462.083	19104.14
462.289	18948.49
462.494	18846.09
462.7	18016.66
462.905	17463.71
463.111	18393.49
463.316	17992.09
463.522	17568.16
463.727	17514.91
463.932	17746.33
464.138	17684.89
464.343	17768.86
464.549	17107.37
464.754	17725.85
464.959	17519.01
465.165	17088.93
465.37	16484.78
465.575	16218.55
465.781	16816.55
465.986	16923.05
466.191	16179.64
466.397	16003.51
466.602	15110.6
466.807	15802.81
467.012	15612.35
467.218	15546.81
467.423	15278.53
467.628	15493.57
467.833	16075.19
468.038	15759.8
468.244	15217.09
468.449	15622.59
468.654	15190.47
468.859	15200.71
469.064	15243.71
469.269	14576.08
469.474	14737.87
469.679	15245.76
469.885	14404.05
470.09	14744.01
470.295	14627.28
470.5	14078.42
470.705	14201.3
470.91	14082.52
471.115	13875.67
471.32	14041.56
471.525	13906.39
471.73	13724.12
471.935	13650.39
472.139	13156.83
472.344	13418.97
472.549	13279.71
472.754	13017.57
472.959	13011.43
473.164	12556.78
473.369	12364.27
473.574	12757.48
473.778	12556.78
473.983	12614.12
474.188	12726.76
474.393	12057.07
474.598	11995.64
474.802	12026.36
475.007	11813.37
475.212	11985.4
475.417	11465.21
475.621	11588.09
475.826	11545.08
476.031	11174.4
476.235	11256.32
476.44	11039.23
476.645	11215.36
476.849	11024.9
477.054	10977.8
477.259	10670.6
477.463	10811.91
477.668	10527.24
477.872	10813.96
478.077	10414.6
478.282	10220.05
478.486	10082.83
478.691	10037.78
478.895	9716.25
479.1	10009.11
479.304	9798.17
479.509	9593.37
479.713	9832.98
479.918	9695.77
480.122	9396.76
480.326	9568.79
480.531	9617.94
480.735	9472.54
480.94	9355.8
481.144	9628.18
481.348	9255.45
481.553	9241.12
481.757	9081.38
481.961	9163.29
482.166	9417.24
482.37	9183.77
482.574	9146.91
482.778	9040.42
482.983	9347.61
483.187	9269.79
483.391	9189.92
483.595	9019.94
483.8	9093.66
484.004	9214.49
484.208	9316.89
484.412	9030.18
484.616	9140.77
484.821	9146.91
485.025	8901.15
485.229	9290.27
485.433	8931.87
485.637	9206.3
485.841	9142.82
486.045	9124.38
486.249	9208.35
486.453	9097.76
486.657	9306.65
486.861	9071.14
487.065	8841.76
487.269	9058.85
487.473	8974.88
487.677	9054.75
487.881	9376.28
488.085	8954.4
488.289	9277.98
488.493	9024.03
488.697	9081.38
488.901	8907.3
489.105	9128.48
489.309	9259.55
489.512	9191.97
489.716	9185.82
489.92	9396.76
490.124	9167.39
490.328	9288.22
490.531	9275.93
490.735	9314.84
490.939	9511.45
491.143	9378.33
491.346	9314.84
491.55	9568.79
491.754	9364
491.958	9609.75
492.161	9579.03
492.365	9572.89
492.569	9538.07
492.772	9429.53
492.976	9677.33
493.18	9683.48
493.383	9798.17
493.587	9896.47
493.79	10027.54
493.994	9806.36
494.197	9814.55
494.401	10140.18
494.605	10105.36
494.808	10222.09
495.012	10412.56
495.215	10387.98
495.419	10361.36
495.622	10400.27
495.825	10387.98
496.029	10445.32
496.232	10605.06
496.436	10779.14
496.639	11028.99
496.843	11092.48
497.046	11366.91
497.249	11276.8
497.453	11207.17
497.656	11354.62
497.859	11414.01
498.063	11471.36
498.266	11729.4
498.469	11780.6
498.673	11534.84
498.876	11878.9
499.079	12255.73
499.282	12317.17
499.485	12546.54
499.689	12415.47
499.892	12669.42
500.095	12587.5
500.298	13044.2
500.501	12710.38
500.705	12906.98
500.908	13310.43
501.111	13373.92
501.314	13591
501.517	13904.34
501.72	13853.14
501.923	13941.21
502.126	14279.12
502.329	14469.58
502.532	14469.58
502.735	14465.49
502.938	14905.8
503.141	14834.12
503.344	15139.27
503.547	15059.4
503.75	15620.54
503.953	15585.72
504.156	15843.77
504.359	15995.32
504.562	15985.08
504.765	16288.18
504.968	16433.58
505.17	16572.85
505.373	16691.63
505.576	16910.76
505.779	17211.81
505.982	17310.11
506.185	17529.25
506.387	17353.12
506.59	17500.58
506.793	18143.64
506.996	18071.96
507.198	18504.08
507.401	18422.16
507.604	18706.83
507.807	19087.75
508.009	19245.44
508.212	19050.89
508.415	19409.28
508.617	19399.04
508.82	19696
509.022	19814.78
509.225	20042.1
509.428	20334.96
509.63	20455.79
509.833	20797.81
510.035	21197.16
510.238	20935.02
510.44	21291.37
510.643	21555.55
510.845	21725.54
511.048	21582.18
511.25	22038.87
511.453	22210.9
511.655	23212.36
511.858	22704.46
512.06	22731.09
512.262	23249.22
512.465	22806.86
512.667	23243.08
512.87	23947.58
513.072	23705.92
513.274	24461.62
513.477	24527.16
513.679	24811.82
513.881	25092.4
514.084	25356.58
514.286	25133.36
514.488	25602.34
514.69	26214.68
514.893	25960.73
515.095	25905.44
515.297	26595.6
515.499	26609.94
515.701	27033.87
515.904	27181.32
516.106	27310.35
516.308	27500.81
516.51	27814.15
516.712	27949.31
516.914	28358.91
517.116	28750.07
517.318	28735.73
517.52	28639.48
517.722	28907.76
517.925	29419.75
518.127	29853.92
518.329	29454.57
518.531	29612.26
518.733	30329.05
518.935	30607.58
519.136	30587.1
519.338	31373.52
519.54	31121.62
519.742	31324.36
519.944	31721.67
520.146	32123.07
520.348	32295.1
520.55	31961.28
520.752	32405.69
520.954	33079.47
521.155	32839.86
521.357	33224.88
521.559	33534.12
521.761	34158.75
521.963	33970.34
522.164	33894.57
522.366	34298.02
522.568	34513.05
522.77	34789.53
522.971	35252.37
523.173	35365.01
523.375	35481.74
523.576	35235.98
523.778	35281.04
523.98	35877
524.181	36018.31
524.383	36081.8
524.584	36403.33
524.786	36536.45
524.988	36268.16
525.189	36827.26
525.391	36966.52
525.592	37120.12
525.794	37056.63
525.995	37412.98
526.197	37533.81
526.398	37306.48
526.6	37947.5
526.801	37922.92
527.003	38236.26
527.204	38156.39
527.406	38471.78
527.607	38613.09
527.808	38516.83
528.01	37900.39
528.211	38367.33
528.412	39340.11
528.614	39583.82
528.815	38883.42
529.016	39352.4
529.218	39155.8
529.419	39432.27
529.62	39321.68
529.822	39139.41
530.023	39557.2
530.224	39538.77
530.425	39618.64
530.626	39465.04
530.828	39231.57
531.029	40306.76
531.23	39798.86
531.431	39882.83
531.632	39985.22
531.833	40206.41
532.035	39893.07
532.236	40036.42
532.437	40169.54
532.638	40085.57
532.839	40134.73
533.04	40249.41
533.241	39788.62
533.442	40575.04
533.643	40314.95
533.844	39909.45
534.045	40427.59
534.246	39876.68
534.447	40474.69
534.648	40194.12
534.849	40073.29
535.05	39743.56
535.251	40521.79
535.451	40079.43
535.652	40239.17
535.853	40222.79
536.054	40265.8
536.255	40228.93
536.456	39966.79
536.657	41050.17
536.857	40204.36
537.058	39899.21
537.259	40638.53
537.46	40591.42
537.66	40271.94
537.861	40341.57
538.062	39966.79
538.263	40173.64
538.463	40351.81
538.664	40134.73
538.865	40691.77
539.065	40689.73
539.266	40120.39
539.466	40458.31
539.667	39721.04
539.868	40587.33
540.068	39999.56
540.269	39807.05
540.469	40636.48
540.67	40001.61
540.87	40294.47
541.071	39903.31
541.271	40431.68
541.472	40163.4
541.672	39958.6
541.873	39637.07
542.073	39491.66
542.274	40388.67
542.474	39934.03
542.675	39962.7
542.875	40220.74
543.075	39577.68
543.276	40040.52
543.476	40122.44
543.676	39817.29
543.877	40075.34
544.077	40341.57
544.277	39733.32
544.478	39524.43
544.678	39964.74
544.878	39942.22
545.078	39997.51
545.279	39886.92
545.479	39942.22
545.679	40132.68
545.879	39843.91
546.079	39475.28
546.28	39843.91
546.48	39315.54
546.68	39798.86
546.88	39796.81
547.08	39917.64
547.28	39612.49
547.48	39342.16
547.68	39997.51
547.88	39065.69
548.081	39610.45
548.281	39417.94
548.481	39555.15
548.681	39749.71
548.881	39686.22
549.081	39659.6
549.28	39397.46
549.48	39733.32
549.68	39321.68
549.88	39905.35
550.08	39198.8
550.28	39637.07
550.48	39538.77
550.68	39868.49
550.88	39434.32
551.08	39172.18
551.279	39368.79
551.479	39182.42
551.679	39716.94
551.879	39383.12
552.079	39467.09
552.278	39149.65
552.478	39587.92
552.678	39231.57
552.878	39391.31
553.077	39012.44
553.277	38664.28
553.477	39362.64
553.676	39016.54
553.876	39123.03
554.076	39071.83
554.275	38754.4
554.475	38783.07
554.674	39336.02
554.874	39010.39
555.074	39065.69
555.273	39264.34
555.473	39340.11
555.672	38871.13
555.872	39163.99
556.071	38989.91
556.271	39139.41
556.47	38862.94
556.67	38369.38
556.869	38637.66
557.068	38727.77
557.268	38393.95
557.467	38729.82
557.667	38621.28
557.866	38619.23
558.065	38393.95
558.265	38692.96
558.464	38131.81
558.663	38639.71
558.863	38207.59
559.062	38690.91
559.261	38420.58
559.461	38172.77
559.66	37820.52
559.859	37961.83
560.058	37795.95
560.258	38035.56
560.457	37519.47
560.656	37949.54
560.855	37974.12
561.054	38137.96
561.253	37625.96
561.453	37402.74
561.652	38369.38
561.851	37877.86
562.05	37529.71
562.249	37560.43
562.448	37458.03
562.647	37562.48
562.846	37277.81
563.045	37394.54
563.244	36862.07
563.443	37206.13
563.642	36722.81
563.841	37167.22
564.04	37042.29
564.239	37412.98
564.438	37154.93
564.637	36870.26
564.836	37001.33
565.035	36606.08
565.234	36788.35
565.432	36223.11
565.631	36604.03
565.83	36501.63
566.029	36290.69
566.228	36104.32
566.427	36200.58
566.625	36171.91
566.824	35936.39
567.023	36184.19
567.222	35639.43
567.42	36247.68
567.619	36319.36
567.818	35967.11
568.016	35811.46
568.215	36305.02
568.414	35860.62
568.612	35954.82
568.811	35745.93
569.01	35655.82
569.208	35053.72
569.407	35410.06
569.605	34805.91
569.804	35213.46
570.002	34713.75
570.201	35297.42
570.4	34969.75
570.598	34461.85
570.797	34519.2
570.995	34621.59
571.193	34508.96
571.392	34863.25
571.59	34234.53
571.789	34420.89
571.987	34171.04
572.186	34390.17
572.384	33939.62
572.582	34300.06
572.781	34009.25
572.979	33425.58
573.177	33618.09
573.376	34107.55
573.574	33929.38
573.772	33640.62
573.971	33194.16
574.169	33489.07
574.367	33478.83
574.565	33644.71
574.763	33075.38
574.962	33435.82
575.16	32954.55
575.358	33409.2
575.556	33011.89
575.754	33425.58
575.952	32725.18
576.151	32989.36
576.349	32458.94
576.547	32155.84
576.745	32911.54
576.943	32571.58
577.141	32219.33
577.339	32434.36
577.537	32129.22
577.735	31983.81
577.933	32020.67
578.131	31895.75
578.329	32133.31
578.527	31842.5
578.725	31494.35
578.923	31676.62
579.121	31623.37
579.319	31594.7
579.516	31973.57
579.714	31537.35
579.912	31240.4
580.11	31437
580.308	31312.08
580.506	31133.9
580.704	30687.45
580.901	31183.05
581.099	31056.08
581.297	30726.36
581.495	30736.6
581.692	31113.42
581.89	30462.17
582.088	30898.39
582.285	30449.88
582.483	30288.09
582.681	30583
582.878	30195.93
583.076	29858.02
583.274	30566.62
583.471	29470.95
583.669	30197.98
583.866	29860.07
584.064	29796.58
584.262	29540.58
584.459	29778.15
584.657	29524.2
584.854	29939.94
585.052	29346.03
585.249	29411.56
585.447	29102.32
585.644	29143.28
585.841	29743.33
586.039	28995.82
586.236	28815.6
586.434	28668.15
586.631	28797.17
586.828	28410.11
587.026	28580.09
587.223	28829.94
587.42	28545.27
587.618	28698.87
587.815	28315.9
588.012	28113.15
588.21	28096.77
588.407	28461.3
588.604	28086.53
588.801	27912.45
588.999	27965.7
589.196	28059.9
589.393	28035.33
589.59	27580.68
589.787	27447.56
589.984	27212.04
590.182	27296.01
590.379	27521.29
590.576	27033.87
590.773	27373.83
590.97	27332.87
591.167	27486.47
591.364	26571.03
591.561	27064.59
591.758	26603.8
591.955	26833.17
592.152	27216.14
592.349	26564.89
592.546	26833.17
592.743	26859.79
592.94	26120.48
593.137	26460.44
593.334	26323.22
593.531	25817.38
593.727	26190.11
593.924	25860.38
594.121	26093.85
594.318	26210.59
594.515	25616.68
594.712	25811.23
594.908	25461.03
595.105	25780.51
595.302	25338.15
595.499	25712.93
595.696	25633.06
595.892	25076.01
596.089	25053.48
596.286	25245.99
596.482	25016.62
596.679	25338.15
596.876	25465.13
597.072	24820.02
597.269	25030.96
597.466	24652.08
597.662	24662.32
597.859	24484.15
598.055	24863.02
598.252	24654.13
598.448	24592.69
598.645	24351.03
598.841	24279.35
599.038	24246.58
599.234	24099.13
599.431	24281.4
599.627	23818.56
599.824	24256.82
600.02	23634.24
600.217	23753.02
600.413	23880
600.609	23527.75
600.806	23433.54
601.002	23656.77
601.198	23208.26
601.395	23386.44
601.591	23365.96
601.787	23404.87
601.984	23200.07
602.18	23130.44
602.376	23064.91
602.572	23101.77
602.769	22972.75
602.965	22739.28
603.161	23118.15
603.357	22464.85
603.553	22600.02
603.75	22757.71
603.946	22704.46
604.142	22638.93
604.338	22122.84
604.534	22419.8
604.73	21952.86
604.926	22055.26
605.122	22264.15
605.318	21893.47
605.514	21948.76
605.71	21815.65
605.906	21999.96
606.102	21999.96
606.298	21815.65
606.494	21680.48
606.69	21520.74
606.886	21911.9
607.082	21217.64
607.278	21512.55
607.474	21373.28
607.67	21518.69
607.866	20894.06
608.062	21475.68
608.257	21428.58
608.453	21193.06
608.649	21037.42
608.845	20889.96
609.041	20865.39
609.236	20922.73
609.432	20973.93
609.628	20889.96
609.824	20939.12
610.019	20889.96
610.215	20576.62
610.411	21045.61
610.606	20558.19
610.802	20658.54
610.998	20644.21
611.193	20560.24
611.389	20339.06
611.584	20453.75
611.78	20193.65
611.976	20263.29
612.171	20287.86
612.367	20431.22
612.562	20035.96
612.758	19820.92
612.953	20076.92
613.149	20357.49
613.344	19679.61
613.539	20201.85
613.735	20031.86
613.93	20103.54
614.126	19665.28
614.321	20171.13
614.517	20070.78
614.712	19853.69
614.907	19724.67
615.103	19968.38
615.298	19853.69
615.493	19986.81
615.688	19304.84
615.884	19794.3
616.079	19368.32
616.274	19380.61
616.47	19757.44
616.665	19423.62
616.86	19407.23
617.055	19292.55
617.25	19526.02
617.445	19442.05
617.641	19083.66
617.836	19372.42
618.031	18637.2
618.226	19112.33
618.421	18833.8
618.616	18960.78
618.811	18844.04
619.006	18827.66
619.201	18762.12
619.396	18448.79
619.591	18354.58
619.786	18842
619.981	18336.15
620.176	18782.6
620.371	18280.85
620.566	18065.82
620.761	17959.32
620.956	18182.55
621.151	17904.03
621.346	18166.17
621.541	17711.52
621.735	18022.81
621.93	17342.88
622.125	17666.46
622.32	17031.59
622.515	17295.78
622.709	17353.12
622.904	17156.52
623.099	17177
623.294	16918.95
623.488	16931.24
623.683	16880.04
623.878	17007.02
624.072	16859.56
624.267	16785.83
624.462	16755.11
624.656	16525.74
624.851	16435.63
625.046	16222.64
625.24	16322.99
625.435	16208.31
625.629	16216.5
625.824	16157.11
626.018	16101.81
626.213	15417.79
626.407	15874.49
626.602	15411.65
626.796	15391.17
626.991	15837.62
627.185	15266.24
627.38	15256
627.574	15331.78
627.768	15245.76
627.963	14885.32
628.157	15055.3
628.352	14934.47
628.546	14623.18
628.74	14764.49
628.935	14531.02
629.129	14934.47
629.323	14436.81
629.517	14182.87
629.712	14344.66
629.906	14328.27
630.1	13928.92
630.294	14070.23
630.489	14010.84
630.683	14115.28
630.877	13775.32
631.071	13654.49
631.265	13887.96
631.459	13566.43
631.653	13705.69
631.848	13416.93
632.042	13371.87
632.236	13529.56
632.43	13027.81
632.624	13486.56
632.818	13132.26
633.012	12964.32
633.206	13208.03
633.4	13140.45
633.594	12853.73
633.788	13158.88
633.982	12851.69
634.176	12663.27
634.369	12708.33
634.563	12556.78
634.757	12462.57
634.951	12739.05
635.145	12333.55
635.339	12362.22
635.533	12222.96
635.726	12120.56
635.92	12362.22
636.114	12100.08
636.308	11897.33
636.501	12063.22
636.695	11862.52
636.889	11827.7
637.083	11627
637.276	11715.06
637.47	11713.02
637.664	11604.47
637.857	11371.01
638.051	11586.04
638.244	11440.64
638.438	11461.12
638.632	11452.92
638.825	11340.29
639.019	10985.99
639.212	11069.95
639.406	11151.87
639.599	11125.25
639.793	11037.19
639.986	10666.5
640.18	10830.34
640.373	10734.09
640.567	10627.59
640.76	10611.21
640.954	10625.54
641.147	10592.78
641.34	10275.34
641.534	10447.37
641.727	10568.2
641.92	10336.78
642.114	10308.11
642.307	10410.51
642.5	10226.19
642.694	9976.34
642.887	10052.11
643.08	10105.36
643.273	10166.8
643.467	10082.83
643.66	9943.57
643.853	9859.6
644.046	9650.71
644.239	9540.12
644.432	9708.05
644.626	9493.02
644.819	9409.05
645.012	9454.11
645.205	9548.31
645.398	9341.47
645.591	9460.25
645.784	9359.9
645.977	9144.86
646.17	9155.1
646.363	9259.55
646.556	9167.39
646.749	9038.37
646.942	9028.13
647.135	8862.24
647.328	8890.91
647.521	8858.15
647.714	8921.63
647.907	8747.56
648.099	8802.85
648.292	8790.56
648.485	8741.41
648.678	8577.58
648.871	8653.35
649.064	8561.19
649.256	8456.75
649.449	8421.93
649.642	8350.25
649.835	8219.18
650.027	8364.59
650.22	8135.21
650.413	8108.59
650.605	8065.58
650.798	8106.54
650.991	8090.16
651.183	8213.04
651.376	7823.92
651.568	7893.55
651.761	7780.92
651.954	7848.5
652.146	7701.05
652.339	7719.48
652.531	7834.16
652.724	7590.45
652.916	7592.5
653.109	7598.65
653.301	7588.41
653.494	7533.11
653.686	7529.02
653.879	7729.72
654.071	7336.51
654.263	7410.23
654.456	7275.07
654.648	7262.78
654.84	7174.72
655.033	7258.68
655.225	7307.84
655.417	7004.74
655.61	7176.77
655.802	7041.6
655.994	6931.01
656.186	6957.63
656.379	6990.4
656.571	7012.93
656.763	6863.43
656.955	7021.12
657.148	6799.94
657.34	6685.25
657.532	6484.55
657.724	6578.76
657.916	6668.87
658.108	6578.76
658.3	6513.22
658.492	6703.68
658.684	6625.86
658.876	6341.19
659.068	6416.97
659.26	6404.68
659.452	6443.59
659.644	6160.97
659.836	6373.96
660.028	6275.66
660.22	6179.4
660.412	6097.49
660.604	6124.11
660.796	6029.9
660.988	6144.59
661.18	6111.82
661.372	6095.44
661.563	6034
661.755	5997.14
661.947	6074.96
662.139	5909.07
662.331	5794.39
662.522	5886.54
662.714	5792.34
662.906	5847.63
663.097	5761.62
663.289	5767.76
663.481	5620.31
663.673	5718.61
663.864	5745.23
664.056	5628.5
664.247	5466.71
664.439	5648.98
664.631	5575.25
664.822	5546.58
665.014	5587.54
665.205	5507.67
665.397	5358.17
665.588	5495.38
665.78	5257.82
665.971	5325.4
666.163	5319.26
666.354	5358.17
666.546	5145.18
666.737	5182.04
666.929	5136.99
667.12	5157.47
667.311	5202.52
667.503	5163.61
667.694	5114.46
667.885	5120.6
668.077	5022.3
668.268	4973.15
668.459	5005.92
668.651	5081.69
668.842	5022.3
669.033	4848.22
669.224	4745.83
669.416	5040.73
669.607	4706.91
669.798	4805.22
669.989	4895.33
670.18	4682.34
670.371	4743.78
670.563	4721.25
670.754	4690.53
670.945	4602.47
671.136	4694.63
671.327	4584.04
671.518	4516.45
671.709	4541.03
671.9	4524.65
672.091	4635.24
672.282	4571.75
672.473	4467.3
672.664	4596.32
672.855	4317.8
673.046	4414.06
673.237	4502.12
673.428	4577.89
673.619	4409.96
673.809	4280.94
674	4401.77
674.191	4325.99
674.382	4225.64
674.573	4348.52
674.764	4285.03
674.954	4309.61
675.145	4133.48
675.336	4088.43
675.527	4235.88
675.717	4180.59
675.908	4072.04
676.099	4180.59
676.289	4090.48
676.48	4182.63
676.671	4145.77
676.861	4113
677.052	4088.43
677.243	4055.66
677.433	3932.78
677.624	3949.17
677.814	3940.97
678.005	4014.7
678.195	4041.32
678.386	4047.47
678.576	3910.26
678.767	3816.05
678.957	3926.64
679.148	3940.97
679.338	3824.24
679.529	3826.29
679.719	3820.14
679.909	3891.82
680.1	3795.57
680.29	3748.47
680.481	3711.6
680.671	3764.85
680.861	3760.75
681.052	3838.58
681.242	3580.53
681.432	3730.03
681.622	3662.45
681.813	3668.59
682.003	3736.18
682.193	3609.2
682.383	3689.07
682.573	3687.03
682.764	3515
682.954	3537.52
683.144	3551.86
683.334	3523.19
683.524	3584.63
683.714	3668.59
683.904	3580.53
684.094	3471.99
684.284	3478.13
684.474	3453.56
684.664	3367.54
684.854	3412.6
685.044	3455.61
685.234	3299.96
685.424	3457.65
685.614	3375.74
685.804	3377.78
685.994	3351.16
686.184	3394.17
686.374	3383.93
686.564	3302.01
686.753	3299.96
686.943	3197.56
687.133	3277.43
687.323	3392.12
687.513	3267.19
687.702	3295.86
687.892	3297.91
688.082	3271.29
688.272	3232.38
688.461	3236.47
688.651	3220.09
688.841	3093.12
689.03	3177.08
689.22	3123.84
689.41	3158.65
689.599	3107.45
689.789	3111.55
689.979	3064.44
690.168	3064.44
690.358	3089.02
690.547	3072.64
690.737	3043.96
690.926	3066.49
691.116	2927.23
691.305	3078.78
691.495	2927.23
691.684	2898.56
691.874	2902.65
692.063	2951.81
692.252	2835.07
692.442	3005.05
692.631	2884.22
692.82	2878.08
693.01	2906.75
693.199	2853.5
693.388	2761.34
693.578	2785.92
693.767	2835.07
693.956	2855.55
694.146	2802.3
694.335	2773.63
694.524	2765.44
694.713	2863.74
694.902	2794.11
695.092	2798.21
695.281	2769.54
695.47	2738.82
695.659	2755.2
695.848	2579.08
696.037	2802.3
696.226	2728.58
696.415	2597.51
696.604	2679.43
696.793	2732.67
696.982	2574.98
697.171	2597.51
697.36	2577.03
697.549	2597.51
697.738	2593.41
697.927	2589.32
698.116	2538.12
698.305	2679.43
698.494	2622.08
698.683	2562.69
698.872	2615.94
699.061	2638.47
699.25	2583.17
699.438	2470.53
699.627	2583.17
699.816	2550.4
700.005	2544.26
700.193	2452.1
700.382	2507.4
700.571	2435.72
700.76	2474.63
700.948	2546.31
701.137	2405
701.326	2589.32
701.514	2427.53
701.703	2441.86
701.892	2460.29
702.08	2421.38
702.269	2433.67
702.457	2392.71
702.646	2384.52
702.834	2405
703.023	2331.27
703.212	2443.91
703.4	2339.46
703.589	2425.48
703.777	2454.15
703.965	2474.63
704.154	2355.85
704.342	2357.89
704.531	2351.75
704.719	2222.73
704.907	2318.98
705.096	2376.33
705.284	2253.45
705.472	2462.34
705.661	2245.26
705.849	2425.48
706.037	2359.94
706.226	2450.05
706.414	2306.7
706.602	2374.28
706.79	2400.9
706.979	2368.13
707.167	2302.6
707.355	2263.69
707.543	2294.41
707.731	2345.61
707.919	2321.03
708.107	2257.54
708.296	2335.37
708.484	2179.72
708.672	2384.52
708.86	2304.65
709.048	2280.07
709.236	2278.02
709.424	2249.35
709.612	2282.12
709.8	2288.26
709.988	2302.6
710.176	2290.31
710.364	2265.74
710.551	2222.73
710.739	2318.98
710.927	2302.6
711.115	2271.88
711.303	2261.64
711.491	2278.02
711.679	2222.73
711.866	2364.04
712.054	2265.74
712.242	2255.5
712.43	2253.45
712.617	2255.5
712.805	2239.11
712.993	2273.93
713.181	2126.47
713.368	2208.39
713.556	2282.12
713.744	2101.9
713.931	2357.89
714.119	2142.86
714.306	2239.11
714.494	2235.02
714.682	2273.93
714.869	2183.82
715.057	2298.5
715.244	2179.72
715.432	2232.97
715.619	2149
715.807	2183.82
715.994	2228.87
716.182	2214.54
716.369	2237.06
716.556	2204.3
716.744	2149
716.931	2126.47
717.119	2089.61
717.306	2316.94
717.493	2171.53
717.681	2165.39
717.868	2169.48
718.055	2175.63
718.242	2245.26
718.43	2114.19
718.617	2318.98
718.804	2198.15
718.991	2241.16
719.179	2210.44
719.366	2110.09
719.553	2183.82
719.74	2155.15
719.927	2177.67
720.114	2173.58
720.301	2146.95
720.488	2110.09
720.676	2071.18
720.863	2110.09
721.05	2163.34
721.237	2259.59
721.424	2089.61
721.611	2122.38
721.798	2091.66
721.985	2159.24
722.172	2171.53
722.358	2099.85
722.545	2114.19
722.732	2134.67
722.919	2130.57
723.106	2163.34
723.293	2130.57
723.48	2192.01
723.667	2105.99
723.853	2200.2
724.04	2089.61
724.227	2267.78
724.414	2144.91
724.6	2050.7
724.787	2081.42
724.974	2204.3
725.161	2183.82
725.347	2011.79
725.534	2157.19
725.72	2187.91
725.907	2183.82
726.094	2163.34
726.28	2062.99
726.467	2040.46
726.653	2015.88
726.84	2173.58
727.027	2159.24
727.213	2185.87
727.4	2157.19
727.586	1995.4
727.773	2140.81
727.959	2134.67
728.145	2228.87
728.332	2122.38
728.518	2138.76
728.705	2140.81
728.891	2083.47
729.077	2075.28
729.264	2108.04
729.45	2091.66
729.636	2089.61
729.823	2165.39
730.009	2130.57
730.195	2075.28
730.382	2132.62
730.568	2105.99
730.754	2122.38
730.94	2165.39
731.126	2151.05
731.313	2138.76
731.499	2136.71
731.685	2056.84
731.871	2220.68
732.057	2204.3
732.243	2132.62
732.429	2114.19
732.615	2067.08
732.801	2095.75
732.987	2015.88
733.173	2099.85
733.359	2038.41
733.545	2114.19
733.731	2085.51
733.917	2124.43
734.103	1929.87
734.289	1884.81
734.475	2138.76
734.661	2126.47
734.847	2058.89
735.033	2050.7
735.219	2032.27
735.404	2011.79
735.59	2204.3
735.776	1991.31
735.962	2026.12
736.148	2032.27
736.333	1979.02
736.519	1956.49
736.705	1966.73
736.89	1999.5
737.076	2040.46
737.262	2028.17
737.447	2034.32
737.633	2030.22
737.819	2048.65
738.004	1946.25
738.19	2065.04
738.375	1884.81
738.561	2083.47
738.747	1995.4
738.932	1950.35
739.118	1950.35
739.303	1964.68
739.489	1966.73
739.674	1858.19
739.859	1958.54
740.045	2015.88
740.23	2042.51
740.416	1850
740.601	1993.36
740.786	1876.62
740.972	1893.01
741.157	1852.05
741.342	1868.43
741.528	1952.4
741.713	1966.73
741.898	1940.11
742.084	1944.21
742.269	1909.39
742.454	1905.29
742.639	1931.92
742.824	1839.76
743.01	1856.14
743.195	2019.98
743.38	1819.28
743.565	1886.86
743.75	1880.72
743.935	1766.03
744.12	1847.95
744.305	1831.57
744.49	1909.39
744.675	1847.95
744.86	1735.31
745.045	1761.94
745.23	1819.28
745.415	1876.62
745.6	1690.26
745.785	1821.33
745.97	1813.14
746.155	1786.51
746.34	1802.9
746.525	1770.13
746.71	1731.22
746.895	1688.21
747.079	1573.52
747.264	1665.68
747.449	1796.75
747.634	1786.51
747.819	1661.59
748.003	1561.23
748.188	1712.78
748.373	1665.68
748.557	1616.53
748.742	1745.55
748.927	1598.1
749.111	1536.66
749.296	1618.58
749.481	1501.84
749.665	1585.81
749.85	1536.66
750.034	1561.23
750.219	1510.04
750.404	1514.13
750.588	1573.52
750.773	1579.67
750.957	1557.14
751.141	1583.76
751.326	1565.33
751.51	1516.18
751.695	1424.02
751.879	1462.93
752.064	1557.14
752.248	1450.64
752.432	1452.69
752.617	1598.1
752.801	1413.78
752.985	1405.59
753.17	1448.6
753.354	1495.7
753.538	1286.81
753.722	1323.67
753.907	1376.92
754.091	1426.07
754.275	1366.68
754.459	1311.38
754.643	1352.34
754.828	1368.73
755.012	1352.34
755.196	1325.72
755.38	1335.96
755.564	1229.46
755.748	1274.52
755.932	1282.71
756.116	1278.62
756.3	1280.66
756.484	1217.18
756.668	1229.46
756.852	1208.98
757.036	1245.85
757.22	1163.93
757.404	1168.02
757.588	1196.7
757.772	1192.6
757.956	1245.85
758.14	1170.07
758.323	1200.79
758.507	1190.55
758.691	1157.79
758.875	1219.22
759.059	1114.78
759.242	1215.13
759.426	1149.59
759.61	1188.5
759.794	1098.39
759.977	1122.97
760.161	1090.2
760.345	1190.55
760.528	1237.66
760.712	1163.93
760.895	1110.68
761.079	1036.95
761.263	1053.34
761.446	1041.05
761.63	1034.91
761.813	1079.96
761.997	1122.97
762.18	963.23
762.364	1057.43
762.547	1006.24
762.731	971.42
762.914	1047.19
763.098	1071.77
763.281	983.71
763.464	987.8
763.648	1036.95
763.831	1026.72
764.015	1018.52
764.198	1043.1
764.381	934.56
764.564	993.95
764.748	1004.19
764.931	948.89
765.114	975.52
765.297	983.71
765.481	1043.1
765.664	977.56
765.847	832.16
766.03	891.55
766.213	977.56
766.397	899.74
766.58	899.74
766.763	985.76
766.946	967.32
767.129	912.03
767.312	944.8
767.495	971.42
767.678	881.31
767.861	961.18
768.044	942.75
768.227	887.45
768.41	838.3
768.593	889.5
768.776	926.36
768.959	860.83
769.142	942.75
769.324	844.45
769.507	922.27
769.69	860.83
769.873	811.68
770.056	836.25
770.239	797.34
770.421	903.84
770.604	897.69
770.787	791.2
770.97	819.87
771.152	819.87
771.335	852.64
771.518	795.29
771.7	934.56
771.883	893.6
772.066	860.83
772.248	797.34
772.431	813.73
772.613	864.93
772.796	885.41
772.978	770.72
773.161	856.73
773.343	746.14
773.526	789.15
773.708	748.19
773.891	729.76
774.073	789.15
774.256	842.4
774.438	791.2
774.621	748.19
774.803	725.66
774.985	740
775.168	772.77
775.35	787.1
775.532	803.49
775.715	696.99
775.897	740
776.079	713.38
776.261	721.57
776.444	840.35
776.626	721.57
776.808	678.56
776.99	699.04
777.173	723.62
777.355	672.42
777.537	783.01
777.719	606.88
777.901	692.9
778.083	658.08
778.265	674.46
778.447	754.34
778.629	639.65
778.811	684.7
778.993	662.18
779.175	740
779.357	633.51
779.539	617.12
779.721	520.87
779.903	582.31
780.085	572.07
780.267	715.42
780.449	557.73
780.631	606.88
780.812	586.4
780.994	518.82
781.176	690.85
781.358	578.21
781.54	516.77
781.721	623.27
781.903	641.7
782.085	584.35
782.267	557.73
782.448	545.44
782.63	600.74
782.812	559.78
782.993	576.16
783.175	574.11
783.357	623.27
783.538	551.59
783.72	533.15
783.901	516.77
784.083	549.54
784.264	463.52
784.446	445.09
784.627	496.29
784.809	576.16
784.99	471.72
785.172	539.3
785.353	463.52
785.535	451.24
785.716	504.48
785.897	500.39
786.079	516.77
786.26	420.52
786.441	557.73
786.623	385.7
786.804	420.52
786.985	453.28
787.167	453.28
787.348	379.56
787.529	430.76
787.71	539.3
787.891	434.85
788.073	469.67
788.254	475.81
788.435	453.28
788.616	397.99
788.797	400.04
788.978	443.04
789.159	469.67
789.34	484
789.522	455.33
789.703	311.97
789.884	410.28
790.065	447.14
790.246	410.28
790.427	459.43
790.607	494.24
790.788	434.85
790.969	402.08
791.15	408.23
791.331	402.08
791.512	330.41
791.693	352.93
791.874	305.83
792.054	428.71
792.235	414.37
792.416	328.36
792.597	293.54
792.778	387.75
792.958	387.75
793.139	352.93
793.32	301.73
793.5	336.55
793.681	361.13
793.862	359.08
794.042	336.55
794.223	365.22
794.404	314.02
794.584	258.73
794.765	373.41
794.945	320.17
795.126	328.36
795.306	338.6
795.487	379.56
795.667	369.32
795.848	385.7
796.028	322.21
796.209	336.55
796.389	348.84
796.57	336.55
796.75	230.06
796.93	361.13
797.111	254.63
797.291	303.78
797.471	264.87
797.652	369.32
797.832	266.92
798.012	352.93
798.192	320.17
798.373	250.53
798.553	297.64
798.733	256.68
798.913	242.34
799.093	336.55
799.274	258.73
799.454	352.93
799.634	295.59
799.814	279.21
799.994	295.59
800.174	273.06
800.354	322.21
800.534	182.95
800.714	248.49
800.894	240.3
801.074	303.78
801.254	297.64
801.434	258.73
801.614	273.06
801.794	234.15
801.974	838.3
802.154	289.45
802.334	324.26
802.514	180.9
802.693	320.17
802.873	320.17
803.053	281.25
803.233	242.34
803.413	228.01
803.592	271.01
803.772	221.86
803.952	369.32
804.131	271.01
804.311	287.4
804.491	289.45
804.67	185
804.85	240.3
805.03	289.45
805.209	275.11
805.389	230.06
805.568	213.67
805.748	268.97
805.928	246.44
806.107	193.19
806.287	299.69
806.466	246.44
806.646	271.01
806.825	287.4
807.004	213.67
807.184	223.91
807.363	316.07
807.543	172.71
807.722	205.48
807.901	242.34
808.081	240.3
808.26	168.62
808.439	180.9
808.619	199.34
808.798	221.86
808.977	299.69
809.156	268.97
809.336	240.3
809.515	164.52
809.694	172.71
809.873	221.86
810.052	209.58
810.231	248.49
810.411	207.53
810.59	275.11
810.769	164.52
810.948	158.38
811.127	176.81
811.306	203.43
811.485	213.67
811.664	205.48
811.843	90.79
812.022	193.19
812.201	187.05
812.38	191.14
812.559	150.18
812.737	189.1
812.916	144.04
813.095	221.86
813.274	191.14
813.453	174.76
813.632	236.2
813.811	213.67
813.989	162.47
814.168	125.61
814.347	139.94
814.526	189.1
814.704	230.06
814.883	189.1
815.062	197.29
815.24	180.9
815.419	209.58
815.598	209.58
815.776	111.27
815.955	139.94
816.133	115.37
816.312	139.94
816.49	141.99
816.669	182.95
816.847	131.75
817.026	148.14
817.204	180.9
817.383	246.44
817.561	113.32
817.74	144.04
817.918	193.19
818.097	185
818.275	156.33
818.453	166.57
818.632	230.06
818.81	123.56
818.988	172.71
819.167	105.13
819.345	119.46
819.523	189.1
819.701	182.95
819.879	209.58
820.058	158.38
820.236	164.52
820.414	201.38
820.592	84.65
820.77	133.8
820.948	144.04
821.127	103.08
821.305	92.84
821.483	213.67
821.661	123.56
821.839	189.1
822.017	164.52
822.195	180.9
822.373	189.1
822.551	139.94
822.729	240.3
822.907	107.18
823.085	193.19
823.262	74.41
823.44	103.08
823.618	121.51
823.796	107.18
823.974	117.42
824.152	94.89
824.329	105.13
824.507	150.18
824.685	139.94
824.863	66.22
825.04	135.85
825.218	160.42
825.396	189.1
825.574	152.23
825.751	160.42
825.929	162.47
826.107	125.61
826.284	209.58
826.462	127.66
826.639	113.32
826.817	109.23
826.994	131.75
827.172	127.66
827.349	230.06
827.527	117.42
827.704	113.32
827.882	174.76
828.059	125.61
828.237	84.65
828.414	68.27
828.591	86.7
828.769	66.22
828.946	86.7
829.124	43.69
829.301	60.07
829.478	148.14
829.655	84.65
829.833	139.94
830.01	90.79
830.187	94.89
830.364	135.85
830.542	123.56
830.719	160.42
830.896	191.14
831.073	133.8
831.25	148.14
831.427	78.51
831.604	115.37
831.782	25.26
831.959	86.7
832.136	113.32
832.313	53.93
832.49	58.03
832.667	72.36
832.844	111.27
833.021	156.33
833.198	150.18
833.374	135.85
833.551	127.66
833.728	107.18
833.905	125.61
834.082	66.22
834.259	172.71
834.436	125.61
834.612	74.41
834.789	74.41
834.966	109.23
835.143	92.84
835.319	74.41
835.496	78.51
835.673	94.89
835.85	148.14
836.026	82.6
836.203	119.46
836.38	27.31
836.556	94.89
836.733	41.64
836.909	166.57
837.086	115.37
837.262	70.31
837.439	74.41
837.616	15.02
837.792	123.56
837.968	107.18
838.145	33.45
838.321	135.85
838.498	12.97
838.674	109.23
838.851	109.23
839.027	88.75
839.203	90.79
839.38	141.99
839.556	88.75
839.732	113.32
839.909	98.99
840.085	123.56
840.261	43.69
840.437	74.41
840.614	60.07
840.79	119.46
840.966	86.7
841.142	109.23
841.318	45.74
841.494	197.29
841.671	133.8
841.847	123.56
842.023	94.89
842.199	66.22
842.375	172.71
842.551	45.74
842.727	70.31
842.903	152.23
843.079	41.64
843.255	158.38
843.431	0.68
843.607	8.87
843.783	82.6
843.959	113.32
844.134	86.7
844.31	58.03
844.486	25.26
844.662	88.75
844.838	98.99
845.013	60.07
845.189	117.42
845.365	146.09
845.541	119.46
845.716	111.27
845.892	64.17
846.068	58.03
846.244	70.31
846.419	121.51
846.595	72.36
846.77	127.66
846.946	70.31
847.122	49.83
847.297	8.87
847.473	107.18
847.648	0.68
847.824	107.18
847.999	41.64
848.175	90.79
848.35	82.6
848.526	60.07
848.701	90.79
848.876	123.56
849.052	66.22
849.227	55.98
849.403	55.98
849.578	2.73
849.753	19.11
849.929	58.03
850.104	58.03
850.279	17.07
850.454	98.99
850.63	84.65
850.805	49.83
850.98	27.31
851.155	60.07
851.33	90.79
851.505	41.64
851.681	160.42
851.856	62.12
852.031	115.37
852.206	45.74
852.381	45.74
852.556	29.35
852.731	47.79
852.906	148.14
853.081	107.18
853.256	117.42
853.431	115.37
853.606	51.88
853.781	84.65
853.956	-17.75
854.131	53.93
854.305	58.03
854.48	17.07
854.655	19.11
854.83	47.79
855.005	35.5
855.18	49.83
855.354	70.31
855.529	111.27
855.704	12.97
855.879	80.55
856.053	43.69
856.228	68.27
856.403	33.45
856.577	66.22
856.752	-48.47
856.926	70.31
857.101	84.65
857.276	2.73
857.45	78.51
857.625	125.61
857.799	121.51
857.974	60.07
858.148	74.41
858.323	68.27
858.497	8.87
858.672	58.03
858.846	58.03
859.02	101.03
859.195	94.89
859.369	82.6
859.543	53.93
859.718	125.61
859.892	-15.7
860.066	51.88
860.241	35.5
860.415	103.08
860.589	66.22
860.763	82.6
860.938	25.26
861.112	123.56
861.286	76.46
861.46	90.79
861.634	37.55
861.808	119.46
861.982	41.64
862.157	-40.28
862.331	33.45
862.505	21.16
862.679	49.83
862.853	35.5
863.027	125.61
863.201	68.27
863.375	66.22
863.549	66.22
863.722	41.64
863.896	98.99
864.07	53.93
864.244	-23.89
864.418	92.84
864.592	43.69
864.766	107.18
864.939	51.88
865.113	21.16
865.287	0.68
865.461	25.26
865.634	84.65
865.808	41.64
865.982	84.65
866.156	-48.47
866.329	-5.46
866.503	51.88
866.676	148.14
866.85	8.87
867.024	68.27
867.197	10.92
867.371	94.89
867.544	25.26
867.718	-13.65
867.891	35.5
868.065	33.45
868.238	33.45
868.412	86.7
868.585	66.22
868.759	68.27
868.932	21.16
869.105	27.31
869.279	-3.41
869.452	27.31
869.625	74.41
869.799	2.73
869.972	41.64
870.145	45.74
870.319	123.56
870.492	49.83
870.665	33.45
870.838	-7.51
871.011	-3.41
871.185	-13.65
871.358	23.21
871.531	35.5
871.704	19.11
871.877	41.64
872.05	47.79
872.223	51.88
872.396	141.99
872.569	25.26
872.742	-5.46
872.915	148.14
873.088	96.94
873.261	-56.66
873.434	10.92
873.607	-3.41
873.78	49.83
873.953	74.41
874.126	41.64
874.299	68.27
874.471	8.87
874.644	23.21
874.817	111.27
874.99	109.23
875.163	76.46
875.335	49.83
875.508	33.45
875.681	21.16
875.853	47.79
876.026	25.26
876.199	8.87
876.371	82.6
876.544	62.12
876.717	33.45
876.889	31.4
877.062	31.4
877.234	76.46
877.407	-23.89
877.579	49.83
877.752	29.35
877.924	146.09
878.097	90.79
878.269	49.83
878.442	35.5
878.614	8.87
878.786	43.69
878.959	74.41
879.131	49.83
879.303	-15.7
879.476	51.88
879.648	4.78
879.82	82.6
879.993	23.21
880.165	41.64
880.337	-13.65
880.509	12.97
880.681	66.22
880.854	-3.41
881.026	55.98
881.198	25.26
881.37	45.74
881.542	139.94
881.714	4.78
881.886	29.35
882.058	29.35
882.23	19.11
882.402	49.83
882.574	4.78
882.746	2.73
882.918	86.7
883.09	62.12
883.262	64.17
883.434	76.46
883.606	33.45
883.778	62.12
883.95	101.03
884.122	76.46
884.293	51.88
884.465	12.97
884.637	92.84
884.809	68.27
884.98	27.31
885.152	107.18
885.324	156.33
885.496	17.07
885.667	0.68
885.839	33.45
886.011	109.23
886.182	49.83
886.354	78.51
886.525	53.93
886.697	107.18
886.869	15.02
887.04	33.45
887.212	90.79
887.383	62.12
887.555	25.26
887.726	15.02
887.897	-13.65
888.069	15.02
888.24	39.59
888.412	78.51
888.583	-13.65
888.754	27.31
888.926	19.11
889.097	60.07
889.268	-60.76
889.44	33.45
889.611	-30.04
889.782	78.51
889.953	25.26
890.125	62.12
890.296	4.78
890.467	45.74
890.638	84.65
890.809	17.07
890.98	12.97
891.151	29.35
891.323	76.46
891.494	41.64
891.665	4.78
891.836	121.51
892.007	-7.51
892.178	0.68
892.349	17.07
892.52	21.16
892.691	68.27
892.862	23.21
893.032	88.75
893.203	82.6
893.374	60.07
893.545	55.98
893.716	0.68
893.887	-5.46
894.057	21.16
894.228	-50.52
894.399	84.65
894.57	43.69
894.74	-7.51
894.911	19.11
895.082	29.35
895.253	10.92
895.423	45.74
895.594	62.12
895.764	90.79
895.935	27.31
896.106	60.07
896.276	74.41
896.447	35.5
896.617	76.46
896.788	0.68
896.958	8.87
897.129	-3.41
897.299	43.69
897.47	113.32
897.64	88.75
897.81	49.83
897.981	33.45
898.151	49.83
898.322	115.37
898.492	43.69
898.662	90.79
898.832	2.73
899.003	33.45
899.173	119.46
899.343	17.07
899.513	60.07
