Data from USB4F104151__182__14-45-07-432.txt Node

Date: Thu Mar 13 14:45:07 EDT 2025
User: louis
Spectrometer: USB4F10415
Trigger mode: 4
Integration Time (sec): 2.000000E-2
Scans to average: 1
Electric dark correction enabled: true
Nonlinearity correction enabled: false
Boxcar width: 0
XAxis mode: Wavelengths
Number of Pixels in Spectrum: 3648
>>>>>Begin Spectral Data<<<<<
178.204	-122.54
178.424	-122.54
178.644	-122.54
178.864	-190.12
179.084	-161.45
179.304	-48.81
179.524	-67.24
179.744	-38.57
179.964	-16.04
180.184	2.39
180.404	57.68
180.624	6.49
180.844	57.68
181.064	-16.04
181.283	33.11
181.503	-9.9
181.723	39.25
181.943	-52.91
182.163	47.44
182.383	-1.71
182.602	24.92
182.822	10.58
183.042	-9.9
183.262	-34.47
183.482	6.49
183.701	-40.62
183.921	-26.28
184.141	-79.53
184.361	72.02
184.58	8.53
184.8	10.58
185.02	41.3
185.239	55.64
185.459	6.49
185.679	82.26
185.898	-69.29
186.118	80.21
186.338	0.34
186.557	10.58
186.777	45.4
186.997	86.36
187.216	22.87
187.436	0.34
187.655	-3.75
187.875	35.16
188.095	-30.38
188.314	22.87
188.534	90.45
188.753	6.49
188.973	37.2
189.192	51.54
189.412	-5.8
189.631	72.02
189.851	47.44
190.07	65.88
190.29	8.53
190.509	-18.09
190.729	2.39
190.948	88.4
191.168	117.08
191.387	55.64
191.607	-9.9
191.826	90.45
192.045	0.34
192.265	16.73
192.484	47.44
192.704	16.73
192.923	18.77
193.142	96.6
193.362	55.64
193.581	100.69
193.8	76.12
194.02	24.92
194.239	24.92
194.458	20.82
194.678	-24.23
194.897	-11.95
195.116	-34.47
195.335	6.49
195.555	112.98
195.774	24.92
195.993	98.64
196.212	22.87
196.432	2.39
196.651	31.06
196.87	-54.95
197.089	78.16
197.308	51.54
197.528	80.21
197.747	22.87
197.966	-34.47
198.185	-9.9
198.404	45.4
198.623	14.68
198.842	24.92
199.062	35.16
199.281	80.21
199.5	-5.8
199.719	2.39
199.938	57.68
200.157	35.16
200.376	49.49
200.595	-54.95
200.814	37.2
201.033	43.35
201.252	57.68
201.471	-50.86
201.69	74.07
201.909	80.21
202.128	76.12
202.347	65.88
202.566	47.44
202.785	0.34
203.004	59.73
203.223	115.03
203.442	10.58
203.661	-26.28
203.879	35.16
204.098	24.92
204.317	37.2
204.536	67.92
204.755	-9.9
204.974	-7.85
205.193	-5.8
205.411	137.56
205.63	-50.86
205.849	20.82
206.068	49.49
206.287	-1.71
206.505	80.21
206.724	55.64
206.943	100.69
207.162	59.73
207.381	-42.67
207.599	39.25
207.818	-38.57
208.037	-1.71
208.255	6.49
208.474	55.64
208.693	0.34
208.911	6.49
209.13	49.49
209.349	10.58
209.567	4.44
209.786	49.49
210.005	0.34
210.223	-9.9
210.442	6.49
210.661	39.25
210.879	-22.19
211.098	55.64
211.316	16.73
211.535	-9.9
211.753	33.11
211.972	-26.28
212.191	39.25
212.409	55.64
212.628	26.96
212.846	43.35
213.065	121.17
213.283	67.92
213.502	86.36
213.72	-5.8
213.938	4.44
214.157	22.87
214.375	106.84
214.594	-1.71
214.812	76.12
215.031	0.34
215.249	18.77
215.467	6.49
215.686	41.3
215.904	63.83
216.122	26.96
216.341	121.17
216.559	63.83
216.778	98.64
216.996	112.98
217.214	-40.62
217.432	6.49
217.651	-9.9
217.869	-1.71
218.087	-3.75
218.306	22.87
218.524	55.64
218.742	-18.09
218.96	88.4
219.179	94.55
219.397	39.25
219.615	129.36
219.833	8.53
220.051	22.87
220.27	63.83
220.488	-16.04
220.706	0.34
220.924	8.53
221.142	-9.9
221.36	24.92
221.578	39.25
221.796	20.82
222.015	26.96
222.233	72.02
222.451	45.4
222.669	6.49
222.887	47.44
223.105	16.73
223.323	-7.85
223.541	31.06
223.759	57.68
223.977	-20.14
224.195	-9.9
224.413	6.49
224.631	-1.71
224.849	-30.38
225.067	26.96
225.285	-3.75
225.503	6.49
225.721	-26.28
225.939	8.53
226.157	51.54
226.375	96.6
226.592	-9.9
226.81	-34.47
227.028	55.64
227.246	131.41
227.464	65.88
227.682	67.92
227.9	98.64
228.117	-18.09
228.335	59.73
228.553	59.73
228.771	72.02
228.989	6.49
229.206	65.88
229.424	-32.43
229.642	-9.9
229.86	14.68
230.077	35.16
230.295	-7.85
230.513	80.21
230.731	31.06
230.948	80.21
231.166	67.92
231.384	24.92
231.601	80.21
231.819	84.31
232.037	-40.62
232.254	10.58
232.472	100.69
232.689	-42.67
232.907	74.07
233.125	80.21
233.342	39.25
233.56	8.53
233.777	-30.38
233.995	8.53
234.213	69.97
234.43	12.63
234.648	16.73
234.865	-16.04
235.083	31.06
235.3	57.68
235.518	63.83
235.735	82.26
235.953	55.64
236.17	90.45
236.388	65.88
236.605	14.68
236.822	39.25
237.04	2.39
237.257	18.77
237.475	55.64
237.692	41.3
237.909	26.96
238.127	67.92
238.344	139.6
238.562	10.58
238.779	-42.67
238.996	14.68
239.214	74.07
239.431	112.98
239.648	67.92
239.865	67.92
240.083	49.49
240.3	47.44
240.517	14.68
240.735	29.01
240.952	39.25
241.169	-1.71
241.386	49.49
241.603	-5.8
241.821	10.58
242.038	80.21
242.255	16.73
242.472	74.07
242.689	80.21
242.907	-9.9
243.124	0.34
243.341	-13.99
243.558	57.68
243.775	33.11
243.992	6.49
244.209	47.44
244.426	10.58
244.643	35.16
244.86	-26.28
245.078	35.16
245.295	90.45
245.512	29.01
245.729	-9.9
245.946	63.83
246.163	59.73
246.38	-75.43
246.597	43.35
246.814	51.54
247.031	74.07
247.248	22.87
247.464	88.4
247.681	63.83
247.898	47.44
248.115	63.83
248.332	31.06
248.549	41.3
248.766	26.96
248.983	16.73
249.2	59.73
249.417	39.25
249.633	72.02
249.85	63.83
250.067	4.44
250.284	31.06
250.501	31.06
250.717	55.64
250.934	22.87
251.151	18.77
251.368	-13.99
251.585	35.16
251.801	49.49
252.018	26.96
252.235	-7.85
252.451	82.26
252.668	-1.71
252.885	74.07
253.102	96.6
253.318	-48.81
253.535	-7.85
253.752	31.06
253.968	33.11
254.185	-40.62
254.401	22.87
254.618	43.35
254.835	51.54
255.051	14.68
255.268	-75.43
255.484	43.35
255.701	67.92
255.917	2.39
256.134	47.44
256.351	88.4
256.567	-87.72
256.784	59.73
257	55.64
257.217	-16.04
257.433	18.77
257.65	72.02
257.866	37.2
258.082	-22.19
258.299	39.25
258.515	49.49
258.732	-11.95
258.948	43.35
259.165	55.64
259.381	67.92
259.597	24.92
259.814	108.88
260.03	-9.9
260.246	35.16
260.463	123.22
260.679	-26.28
260.895	-42.67
261.112	-9.9
261.328	18.77
261.544	43.35
261.761	49.49
261.977	74.07
262.193	22.87
262.409	55.64
262.626	16.73
262.842	65.88
263.058	20.82
263.274	31.06
263.49	2.39
263.707	49.49
263.923	8.53
264.139	31.06
264.355	41.3
264.571	57.68
264.787	47.44
265.004	84.31
265.22	-5.8
265.436	63.83
265.652	-9.9
265.868	-13.99
266.084	2.39
266.3	33.11
266.516	69.97
266.732	31.06
266.948	22.87
267.164	18.77
267.38	49.49
267.596	59.73
267.812	112.98
268.028	-9.9
268.244	18.77
268.46	22.87
268.676	37.2
268.892	-16.04
269.108	-9.9
269.324	41.3
269.54	41.3
269.756	149.84
269.972	4.44
270.188	6.49
270.403	6.49
270.619	6.49
270.835	72.02
271.051	6.49
271.267	-57
271.483	49.49
271.698	-7.85
271.914	57.68
272.13	55.64
272.346	39.25
272.562	26.96
272.777	33.11
272.993	-24.23
273.209	51.54
273.425	47.44
273.64	-18.09
273.856	67.92
274.072	72.02
274.287	0.34
274.503	33.11
274.719	112.98
274.934	35.16
275.15	39.25
275.366	10.58
275.581	88.4
275.797	41.3
276.012	24.92
276.228	18.77
276.444	-61.1
276.659	82.26
276.875	22.87
277.09	55.64
277.306	-22.19
277.521	84.31
277.737	6.49
277.952	51.54
278.168	22.87
278.383	-9.9
278.599	41.3
278.814	82.26
279.03	26.96
279.245	43.35
279.461	26.96
279.676	90.45
279.892	-75.43
280.107	-67.24
280.322	67.92
280.538	-26.28
280.753	-26.28
280.969	76.12
281.184	-1.71
281.399	88.4
281.615	31.06
281.83	84.31
282.045	-59.05
282.26	-24.23
282.476	14.68
282.691	86.36
282.906	80.21
283.122	69.97
283.337	-5.8
283.552	117.08
283.767	47.44
283.983	-1.71
284.198	80.21
284.413	106.84
284.628	55.64
284.843	6.49
285.058	35.16
285.274	63.83
285.489	0.34
285.704	84.31
285.919	55.64
286.134	108.88
286.349	72.02
286.564	6.49
286.779	57.68
286.995	84.31
287.21	-1.71
287.425	29.01
287.64	-34.47
287.855	-26.28
288.07	6.49
288.285	51.54
288.5	63.83
288.715	123.22
288.93	35.16
289.145	2.39
289.36	55.64
289.575	63.83
289.79	72.02
290.004	22.87
290.219	115.03
290.434	82.26
290.649	18.77
290.864	39.25
291.079	96.6
291.294	80.21
291.509	22.87
291.724	82.26
291.938	22.87
292.153	14.68
292.368	-32.43
292.583	51.54
292.798	41.3
293.012	135.51
293.227	29.01
293.442	-7.85
293.657	155.99
293.871	-9.9
294.086	57.68
294.301	69.97
294.516	67.92
294.73	47.44
294.945	18.77
295.16	55.64
295.374	80.21
295.589	102.74
295.804	-38.57
296.018	55.64
296.233	63.83
296.447	63.83
296.662	43.35
296.877	-40.62
297.091	84.31
297.306	100.69
297.52	6.49
297.735	29.01
297.949	16.73
298.164	-9.9
298.378	-67.24
298.593	-9.9
298.807	-24.23
299.022	47.44
299.236	47.44
299.451	26.96
299.665	49.49
299.88	55.64
300.094	20.82
300.309	-9.9
300.523	47.44
300.737	-5.8
300.952	-30.38
301.166	72.02
301.381	-34.47
301.595	49.49
301.809	22.87
302.024	82.26
302.238	33.11
302.452	76.12
302.667	-22.19
302.881	76.12
303.095	100.69
303.309	100.69
303.524	39.25
303.738	47.44
303.952	-38.57
304.166	72.02
304.381	26.96
304.595	37.2
304.809	74.07
305.023	24.92
305.237	67.92
305.452	-5.8
305.666	63.83
305.88	4.44
306.094	57.68
306.308	86.36
306.522	80.21
306.736	12.63
306.95	41.3
307.164	31.06
307.379	6.49
307.593	90.45
307.807	43.35
308.021	-48.81
308.235	125.27
308.449	14.68
308.663	69.97
308.877	74.07
309.091	88.4
309.305	88.4
309.519	-7.85
309.733	20.82
309.947	49.49
310.161	98.64
310.374	76.12
310.588	106.84
310.802	43.35
311.016	-106.15
311.23	24.92
311.444	39.25
311.658	47.44
311.872	76.12
312.085	22.87
312.299	41.3
312.513	59.73
312.727	29.01
312.941	-26.28
313.154	117.08
313.368	135.51
313.582	14.68
313.796	35.16
314.009	53.59
314.223	137.56
314.437	-87.72
314.651	0.34
314.864	14.68
315.078	61.78
315.292	12.63
315.505	4.44
315.719	76.12
315.933	37.2
316.146	39.25
316.36	26.96
316.573	125.27
316.787	37.2
317.001	45.4
317.214	-46.76
317.428	92.5
317.641	35.16
317.855	53.59
318.068	0.34
318.282	39.25
318.495	123.22
318.709	84.31
318.922	-7.85
319.136	63.83
319.349	14.68
319.563	-13.99
319.776	6.49
319.99	35.16
320.203	121.17
320.417	24.92
320.63	59.73
320.843	90.45
321.057	80.21
321.27	51.54
321.483	72.02
321.697	96.6
321.91	96.6
322.124	72.02
322.337	67.92
322.55	-1.71
322.763	-20.14
322.977	-5.8
323.19	22.87
323.403	33.11
323.617	55.64
323.83	82.26
324.043	31.06
324.256	53.59
324.469	49.49
324.683	51.54
324.896	10.58
325.109	121.17
325.322	59.73
325.535	162.13
325.748	112.98
325.962	-1.71
326.175	47.44
326.388	133.46
326.601	33.11
326.814	16.73
327.027	74.07
327.24	74.07
327.453	39.25
327.666	51.54
327.879	39.25
328.092	115.03
328.305	45.4
328.518	-36.52
328.731	65.88
328.944	6.49
329.157	35.16
329.37	18.77
329.583	106.84
329.796	131.41
330.009	35.16
330.222	67.92
330.435	-5.8
330.648	57.68
330.861	82.26
331.073	110.93
331.286	104.79
331.499	33.11
331.712	74.07
331.925	-26.28
332.138	-7.85
332.35	90.45
332.563	-18.09
332.776	31.06
332.989	72.02
333.202	80.21
333.414	65.88
333.627	41.3
333.84	57.68
334.053	76.12
334.265	63.83
334.478	41.3
334.691	-7.85
334.903	22.87
335.116	39.25
335.329	43.35
335.541	80.21
335.754	24.92
335.966	43.35
336.179	-13.99
336.392	33.11
336.604	51.54
336.817	74.07
337.029	20.82
337.242	63.83
337.454	88.4
337.667	47.44
337.88	106.84
338.092	22.87
338.305	67.92
338.517	8.53
338.729	18.77
338.942	47.44
339.154	45.4
339.367	26.96
339.579	67.92
339.792	33.11
340.004	59.73
340.217	-40.62
340.429	61.78
340.641	20.82
340.854	55.64
341.066	-26.28
341.278	31.06
341.491	39.25
341.703	31.06
341.915	10.58
342.128	55.64
342.34	115.03
342.552	18.77
342.764	35.16
342.977	63.83
343.189	8.53
343.401	-18.09
343.613	35.16
343.826	72.02
344.038	29.01
344.25	39.25
344.462	88.4
344.674	49.49
344.886	72.02
345.099	63.83
345.311	6.49
345.523	12.63
345.735	-30.38
345.947	94.55
346.159	-16.04
346.371	100.69
346.583	49.49
346.795	24.92
347.007	24.92
347.219	47.44
347.431	-1.71
347.643	90.45
347.855	29.01
348.067	117.08
348.279	-3.75
348.491	57.68
348.703	22.87
348.915	49.49
349.127	24.92
349.339	53.59
349.551	39.25
349.763	22.87
349.975	106.84
350.187	45.4
350.399	92.5
350.61	29.01
350.822	6.49
351.034	24.92
351.246	47.44
351.458	67.92
351.669	35.16
351.881	57.68
352.093	39.25
352.305	80.21
352.517	90.45
352.728	80.21
352.94	80.21
353.152	72.02
353.363	22.87
353.575	8.53
353.787	98.64
353.999	51.54
354.21	47.44
354.422	-30.38
354.633	2.39
354.845	26.96
355.057	6.49
355.268	26.96
355.48	121.17
355.692	-1.71
355.903	55.64
356.115	47.44
356.326	41.3
356.538	43.35
356.749	35.16
356.961	102.74
357.172	26.96
357.384	14.68
357.595	104.79
357.807	57.68
358.018	31.06
358.23	49.49
358.441	88.4
358.653	76.12
358.864	141.65
359.075	2.39
359.287	100.69
359.498	51.54
359.709	69.97
359.921	41.3
360.132	41.3
360.344	39.25
360.555	12.63
360.766	16.73
360.977	2.39
361.189	123.22
361.4	29.01
361.611	78.16
361.823	39.25
362.034	51.54
362.245	-30.38
362.456	63.83
362.667	55.64
362.879	20.82
363.09	6.49
363.301	72.02
363.512	63.83
363.723	-7.85
363.935	49.49
364.146	84.31
364.357	-3.75
364.568	55.64
364.779	-16.04
364.99	117.08
365.201	-9.9
365.412	145.75
365.623	26.96
365.834	55.64
366.045	47.44
366.256	59.73
366.467	24.92
366.678	26.96
366.889	82.26
367.1	84.31
367.311	26.96
367.522	43.35
367.733	47.44
367.944	26.96
368.155	55.64
368.366	74.07
368.577	108.88
368.788	100.69
368.999	-108.2
369.209	4.44
369.42	129.36
369.631	41.3
369.842	6.49
370.053	22.87
370.264	57.68
370.474	16.73
370.685	-18.09
370.896	-28.33
371.107	67.92
371.317	80.21
371.528	12.63
371.739	100.69
371.95	67.92
372.16	74.07
372.371	-48.81
372.582	22.87
372.792	0.34
373.003	117.08
373.214	26.96
373.424	33.11
373.635	88.4
373.846	80.21
374.056	47.44
374.267	51.54
374.477	74.07
374.688	84.31
374.898	129.36
375.109	22.87
375.319	96.6
375.53	63.83
375.74	-13.99
375.951	65.88
376.161	39.25
376.372	104.79
376.582	47.44
376.793	72.02
377.003	20.82
377.214	0.34
377.424	-9.9
377.635	57.68
377.845	65.88
378.055	55.64
378.266	-24.23
378.476	57.68
378.686	-50.86
378.897	45.4
379.107	39.25
379.317	82.26
379.528	51.54
379.738	121.17
379.948	31.06
380.158	155.99
380.369	18.77
380.579	88.4
380.789	67.92
380.999	63.83
381.21	96.6
381.42	112.98
381.63	39.25
381.84	55.64
382.05	55.64
382.261	49.49
382.471	35.16
382.681	39.25
382.891	35.16
383.101	78.16
383.311	-65.19
383.521	74.07
383.731	74.07
383.941	76.12
384.151	98.64
384.361	55.64
384.571	72.02
384.781	92.5
384.991	106.84
385.201	43.35
385.411	72.02
385.621	41.3
385.831	112.98
386.041	112.98
386.251	76.12
386.461	10.58
386.671	104.79
386.881	117.08
387.091	18.77
387.301	72.02
387.511	117.08
387.72	59.73
387.93	63.83
388.14	47.44
388.35	55.64
388.56	76.12
388.769	119.12
388.979	51.54
389.189	55.64
389.399	82.26
389.609	82.26
389.818	31.06
390.028	92.5
390.238	72.02
390.447	88.4
390.657	174.42
390.867	-13.99
391.076	41.3
391.286	39.25
391.496	-16.04
391.705	63.83
391.915	129.36
392.125	155.99
392.334	43.35
392.544	137.56
392.753	74.07
392.963	6.49
393.172	92.5
393.382	51.54
393.591	98.64
393.801	88.4
394.01	145.75
394.22	88.4
394.429	123.22
394.639	18.77
394.848	98.64
395.058	153.94
395.267	55.64
395.477	162.13
395.686	90.45
395.895	153.94
396.105	182.61
396.314	55.64
396.524	98.64
396.733	112.98
396.942	98.64
397.152	131.41
397.361	96.6
397.57	119.12
397.78	139.6
397.989	112.98
398.198	141.65
398.407	100.69
398.617	115.03
398.826	84.31
399.035	108.88
399.244	16.73
399.453	104.79
399.663	12.63
399.872	31.06
400.081	147.8
400.29	88.4
400.499	117.08
400.708	84.31
400.917	125.27
401.127	117.08
401.336	88.4
401.545	168.27
401.754	145.75
401.963	141.65
402.172	145.75
402.381	82.26
402.59	82.26
402.799	133.46
403.008	129.36
403.217	162.13
403.426	80.21
403.635	149.84
403.844	164.18
404.053	160.08
404.262	133.46
404.471	186.71
404.68	151.89
404.888	133.46
405.097	117.08
405.306	164.18
405.515	186.71
405.724	227.67
405.933	158.03
406.142	137.56
406.35	205.14
406.559	266.58
406.768	237.91
406.977	307.54
407.185	244.05
407.394	186.71
407.603	211.28
407.812	248.15
408.02	276.82
408.229	268.63
408.438	211.28
408.646	141.65
408.855	254.29
409.064	309.58
409.272	260.43
409.481	303.44
409.69	301.39
409.898	276.82
410.107	371.02
410.315	385.36
410.524	266.58
410.733	317.78
410.941	342.35
411.15	418.13
411.358	403.79
411.567	469.33
411.775	418.13
411.984	479.57
412.192	479.57
412.401	407.89
412.609	637.26
412.818	534.86
413.026	538.96
413.234	547.15
413.443	551.24
413.651	481.61
413.86	571.72
414.068	676.17
414.276	600.4
414.485	645.45
414.693	729.42
414.901	768.33
415.11	768.33
415.318	792.91
415.526	719.18
415.734	817.48
415.943	870.73
416.151	926.02
416.359	801.1
416.567	940.36
416.776	991.56
416.984	973.13
417.192	1110.34
417.4	1030.47
417.608	1034.57
417.817	1110.34
418.025	1175.88
418.233	1208.64
418.441	1214.79
418.649	1179.97
418.857	1343.81
419.065	1392.96
419.273	1300.8
419.481	1542.46
419.689	1403.2
419.897	1511.74
420.105	1536.32
420.313	1640.76
420.521	1638.72
420.729	1646.91
420.937	1788.22
421.145	1827.13
421.353	1990.97
421.561	2050.36
421.769	2023.73
421.977	2113.85
422.185	2193.72
422.393	2228.53
422.601	2304.31
422.809	2375.99
423.017	2341.17
423.224	2425.14
423.432	2480.43
423.64	2527.53
423.848	2816.3
424.056	2808.11
424.263	2849.07
424.471	3004.71
424.679	3039.53
424.887	3119.4
425.094	3236.13
425.302	3330.34
425.51	3459.36
425.718	3502.37
425.925	3373.35
426.133	3586.33
426.341	3961.11
426.548	4129.05
426.756	3987.74
426.964	4049.18
427.171	4288.79
427.379	4380.95
427.586	4458.77
427.794	4774.16
428.001	4921.61
428.209	5157.13
428.417	4927.75
428.624	5339.4
428.832	5318.92
429.039	5376.26
429.247	5376.26
429.454	5927.16
429.662	6076.66
429.869	5796.09
430.076	6400.24
430.284	6105.34
430.491	6281.46
430.699	6588.66
430.906	6691.06
431.114	6738.16
431.321	7033.07
431.528	7106.79
431.736	7626.98
431.943	7825.63
432.15	7743.71
432.358	7739.62
432.565	8151.26
432.772	8212.7
432.979	8599.76
433.187	8544.47
433.394	8708.3
433.601	9367.75
433.808	9375.94
434.016	9406.66
434.223	9744.58
434.43	10264.76
434.637	10209.47
434.844	10737.84
435.052	10959.02
435.259	10893.49
435.466	10758.32
435.673	10821.81
435.88	11747.49
436.087	12269.72
436.294	12124.32
436.501	11870.37
436.708	12298.39
436.915	12679.32
437.122	13148.3
437.329	13037.71
437.537	13586.57
437.743	13547.65
437.95	13670.53
438.157	14178.43
438.364	14858.35
438.571	14518.39
438.778	14837.87
438.985	16238.69
439.192	15906.91
439.399	16203.87
439.606	15507.56
439.813	16687.19
440.02	17428.56
440.227	17227.85
440.433	17186.9
440.64	17715.27
440.847	17586.25
441.054	18067.52
441.261	19206.19
441.467	18759.74
441.674	19367.98
441.881	20033.57
442.088	19927.08
442.294	20052
442.501	20205.6
442.708	20719.64
442.914	21585.93
443.121	22507.52
443.328	21819.4
443.534	23283.7
443.741	22691.84
443.948	22315.01
444.154	23969.77
444.361	23836.65
444.568	24031.21
444.774	23810.03
444.981	24244.2
445.187	24979.42
445.394	26159.05
445.6	25855.95
445.807	28254.12
446.013	27006.91
446.22	27496.37
446.426	28481.44
446.633	28704.67
446.839	29908.88
447.046	28809.12
447.252	30279.56
447.459	30326.66
447.665	29947.79
447.871	31250.3
448.078	32739.17
448.284	31532.92
448.491	31969.13
448.697	33380.18
448.903	34047.82
449.11	34053.97
449.316	33488.73
449.522	34064.21
449.728	34856.77
449.935	35080
450.141	35297.08
450.347	36347.69
450.553	35186.49
450.76	35645.24
450.966	36534.06
451.172	36224.81
451.378	37377.82
451.584	36597.54
451.791	37222.17
451.997	37271.32
452.203	37943.06
452.409	38211.34
452.615	38031.12
452.821	36476.71
453.027	36386.6
453.233	38563.59
453.44	36654.89
453.646	36771.62
453.852	37199.65
454.058	37586.71
454.264	36835.11
454.47	37609.24
454.676	36435.75
454.882	37586.71
455.088	34283.34
455.294	35434.3
455.5	35800.88
455.705	36130.61
455.911	34590.53
456.117	33986.38
456.323	33560.41
456.529	32032.62
456.735	33410.9
456.941	32665.44
457.147	32245.61
457.352	31229.82
457.558	31016.83
457.764	31018.88
457.97	30568.32
458.176	29732.75
458.381	29841.29
458.587	28266.41
458.793	28159.91
458.999	27142.07
459.204	28723.1
459.41	28127.14
459.616	26372.03
459.821	26146.76
460.027	26283.97
460.233	25759.69
460.438	24434.66
460.644	24764.38
460.85	23488.49
461.055	22996.98
461.261	23021.56
461.466	21633.04
461.672	20684.83
461.878	22312.96
462.083	20652.06
462.289	20391.97
462.494	19984.42
462.7	19251.25
462.905	18694.2
463.111	19478.57
463.316	19421.23
463.522	18933.81
463.727	19210.29
463.932	19185.71
464.138	18769.97
464.343	19013.68
464.549	18315.33
464.754	18966.58
464.959	18794.55
465.165	18669.62
465.37	17903.68
465.575	17403.98
465.781	18319.42
465.986	18346.05
466.191	17670.22
466.397	16984.15
466.602	16414.81
466.807	16914.52
467.012	16793.69
467.218	16918.61
467.423	16664.66
467.628	16998.48
467.833	17619.02
468.038	16857.17
468.244	16298.08
468.449	17104.98
468.654	16506.97
468.859	16547.93
469.064	16404.57
469.269	15732.84
469.474	15933.54
469.679	16281.69
469.885	15822.95
470.09	15902.82
470.295	15644.77
470.5	15421.55
470.705	15505.51
470.91	15294.57
471.115	14909.55
471.32	15523.94
471.525	15292.52
471.73	14682.23
471.935	14807.16
472.139	14375.03
472.344	14432.38
472.549	14157.95
472.754	14080.13
472.959	14262.4
473.164	13596.81
473.369	13498.5
473.574	13961.34
473.778	13752.45
473.983	13793.41
474.188	13693.06
474.393	12828.82
474.598	13088.91
474.802	12834.96
475.007	12945.55
475.212	12732.56
475.417	12392.6
475.621	12318.87
475.826	12482.71
476.031	12083.36
476.235	11935.9
476.44	12069.02
476.645	11983.01
476.849	11823.26
477.054	11946.14
477.259	11430.05
477.463	11618.47
477.668	11327.66
477.872	11509.93
478.077	11194.54
478.282	10961.07
478.486	10979.5
478.691	11018.41
478.895	10961.07
479.1	10739.89
479.304	10899.63
479.509	10373.3
479.713	10727.6
479.918	10553.52
480.122	10315.96
480.326	10553.52
480.531	10389.69
480.735	10461.37
480.94	10311.86
481.144	10717.36
481.348	9844.93
481.553	10105.02
481.757	9812.16
481.961	10141.88
482.166	10254.52
482.37	10207.42
482.574	9910.46
482.778	9988.28
482.983	10254.52
483.187	9949.37
483.391	9932.99
483.595	9930.94
483.8	9924.8
484.004	9838.78
484.208	9918.65
484.412	10053.82
484.616	9726.14
484.821	10021.05
485.025	9873.6
485.229	9959.61
485.433	9771.2
485.637	9877.69
485.841	9871.55
486.045	9775.3
486.249	9896.13
486.453	9984.19
486.657	9605.31
486.861	9961.66
487.065	9713.86
487.269	9844.93
487.473	9791.68
487.677	9900.22
487.881	10162.36
488.085	9797.82
488.289	10150.07
488.493	9763.01
488.697	10199.23
488.901	10057.92
489.105	10127.55
489.309	10008.76
489.512	10225.85
489.716	10156.22
489.92	10041.53
490.124	9967.81
490.328	10277.05
490.531	9945.28
490.735	10371.26
490.939	10346.68
491.143	10197.18
491.346	10434.74
491.55	10512.56
491.754	10258.62
491.958	10559.67
492.161	10496.18
492.365	10574
492.569	10535.09
492.772	10254.52
492.976	10721.46
493.18	10625.2
493.383	10850.48
493.587	10965.17
493.79	10901.68
493.994	10891.44
494.197	10926.25
494.401	11094.19
494.605	11126.96
494.808	11362.47
495.012	11464.87
495.215	11454.63
495.419	11489.45
495.622	11612.32
495.825	11638.95
496.029	11862.18
496.232	11905.18
496.436	11952.29
496.639	12230.81
496.843	12155.04
497.046	12066.97
497.249	12435.61
497.453	12511.38
497.656	12689.56
497.859	12683.41
498.063	12664.98
498.266	13142.16
498.469	13023.37
498.673	13363.34
498.876	13344.91
499.079	13418.63
499.282	13412.49
499.485	13707.4
499.689	13768.84
499.892	14196.86
500.095	13971.58
500.298	14442.62
500.501	14100.61
500.705	14803.06
500.908	15052.91
501.111	14778.48
501.314	15200.37
501.517	15208.56
501.72	15507.56
501.923	15437.93
502.126	15859.81
502.329	16076.9
502.532	16212.06
502.735	16128.1
502.938	16515.16
503.141	16664.66
503.344	16889.94
503.547	16924.76
503.75	17205.33
503.953	17539.15
504.156	17442.89
504.359	17811.53
504.562	17705.03
504.765	18286.65
504.968	18452.54
505.17	18497.6
505.373	18946.1
505.576	19028.02
505.779	19429.42
505.982	19365.93
506.185	20011.04
506.387	19753
506.59	20244.51
506.793	20224.03
506.996	20404.25
507.198	20918.29
507.401	20830.23
507.604	21039.12
507.807	21561.36
508.009	21686.28
508.212	21729.29
508.415	21938.18
508.617	22499.33
508.82	22247.43
509.022	22511.61
509.225	23080.95
509.428	23085.05
509.63	23062.52
509.833	23433.2
510.035	23803.88
510.238	23719.92
510.44	24309.73
510.643	24225.76
510.845	24958.94
511.048	24803.29
511.25	25044.95
511.453	25348.05
511.655	26392.51
511.858	25880.52
512.06	26118.09
512.262	26505.15
512.465	26247.11
512.667	27000.76
512.87	27056.06
513.072	26970.04
513.274	27738.03
513.477	27772.85
513.679	28192.68
513.881	28403.62
514.084	28686.24
514.286	28778.4
514.488	29130.65
514.69	29929.36
514.893	29673.36
515.095	30027.66
515.297	30347.14
515.499	30457.73
515.701	30988.16
515.904	30812.03
516.106	31518.58
516.308	31330.17
516.51	32292.71
516.712	31969.13
516.914	32456.55
517.116	32970.59
517.318	32833.38
517.52	33281.88
517.722	33089.37
517.925	33851.22
518.127	34080.59
518.329	34787.14
518.531	34477.9
518.733	34731.84
518.935	35088.19
519.136	35399.48
519.338	35553.08
519.54	35643.19
519.742	36136.75
519.944	36355.88
520.146	36974.37
520.348	36835.11
520.55	36937.51
520.752	37224.22
520.954	37674.77
521.155	37670.68
521.357	38192.91
521.559	38541.07
521.761	39177.98
521.963	39366.4
522.164	39403.26
522.366	39366.4
522.568	39890.68
522.77	40177.39
522.971	40412.91
523.173	40185.58
523.375	40734.44
523.576	40691.43
523.778	40572.65
523.98	41373.41
524.181	41357.02
524.383	41510.62
524.584	41995.99
524.786	41887.45
524.988	42077.91
525.189	42413.77
525.391	42241.74
525.592	42768.07
525.794	42979.01
525.995	43230.91
526.197	42845.9
526.398	43443.9
526.6	43339.46
526.801	43568.83
527.003	44019.38
527.204	43929.27
527.406	44330.67
527.607	44086.96
527.808	44684.97
528.01	44043.96
528.211	44316.34
528.412	45014.69
528.614	44836.52
528.815	45108.9
529.016	45362.85
529.218	44574.38
529.419	45285.03
529.62	45239.97
529.822	45205.16
530.023	45278.88
530.224	45285.03
530.425	45616.8
530.626	45156
530.828	45043.37
531.029	46007.96
531.23	45274.79
531.431	45592.22
531.632	45700.76
531.833	45887.13
532.035	45735.58
532.236	46026.39
532.437	46450.32
532.638	45762.2
532.839	46114.45
533.04	46165.65
533.241	45801.11
533.442	46372.5
533.643	46128.79
533.844	46515.86
534.045	45973.14
534.246	45901.46
534.447	46425.74
534.648	45872.79
534.849	46245.52
535.05	45743.77
535.251	46384.79
535.451	46188.18
535.652	46558.86
535.853	46190.23
536.054	46204.56
536.255	46057.11
536.456	45756.06
536.657	46435.98
536.857	45817.5
537.058	45727.39
537.259	46354.07
537.46	46341.78
537.66	46022.3
537.861	46286.48
538.062	45997.72
538.263	46339.73
538.463	46104.21
538.664	46014.1
538.865	46677.65
539.065	46292.63
539.266	45846.17
539.466	46501.52
539.667	45794.97
539.868	46390.93
540.068	45481.63
540.269	46309.01
540.469	46272.15
540.67	46065.3
540.87	45991.58
541.071	45829.79
541.271	46231.19
541.472	45721.24
541.672	45934.23
541.873	46036.63
542.073	45641.37
542.274	46210.71
542.474	45944.47
542.675	45756.06
542.875	46259.86
543.075	46014.1
543.276	45428.38
543.476	45915.8
543.676	45926.04
543.877	45870.75
544.077	45981.34
544.277	46134.93
544.478	45678.24
544.678	45880.99
544.878	45543.07
545.078	45784.73
545.279	45670.04
545.479	45362.85
545.679	45653.66
545.879	45561.5
546.079	45715.1
546.28	45690.52
546.48	45346.47
546.68	45772.44
546.88	45663.9
547.08	45766.3
547.28	45821.59
547.48	45694.62
547.68	46055.06
547.88	45395.62
548.081	45690.52
548.281	45561.5
548.481	45502.11
548.681	45711
548.881	45418.14
549.081	45493.92
549.28	45250.21
549.48	45383.33
549.68	45147.81
549.88	46128.79
550.08	45074.09
550.28	45854.36
550.48	45287.07
550.68	45788.83
550.88	45358.75
551.08	45270.69
551.279	45467.3
551.479	44895.91
551.679	45149.86
551.879	44906.15
552.079	45397.66
552.278	45336.23
552.478	44721.83
552.678	45291.17
552.878	45256.35
553.077	45530.78
553.277	44476.08
553.477	45311.65
553.676	45315.75
553.876	44740.27
554.076	45117.09
554.275	44762.79
554.475	44289.71
554.674	44789.42
554.874	44756.65
555.074	44828.33
555.273	45008.55
555.473	44531.37
555.672	44711.6
555.872	44715.69
556.071	44621.48
556.271	44775.08
556.47	44680.88
556.67	44328.62
556.869	44709.55
557.068	44551.85
557.268	44410.54
557.467	44431.02
557.667	44443.31
557.866	44295.86
558.065	44547.76
558.265	43804.34
558.464	44197.55
558.663	44232.37
558.863	43425.47
559.062	44717.74
559.261	43423.42
559.461	44441.26
559.66	43869.88
559.859	43724.47
560.058	43757.24
560.258	43435.71
560.457	43429.57
560.656	43810.49
560.855	43425.47
561.054	43923.13
561.253	43060.93
561.453	43585.21
561.652	43581.12
561.851	43609.79
562.05	43267.78
562.249	42794.7
562.448	43998.9
562.647	43390.66
562.846	43206.34
563.045	43122.37
563.244	42706.63
563.443	43321.02
563.642	42723.02
563.841	42602.19
564.04	42698.44
564.239	43208.39
564.438	42497.74
564.637	42688.2
564.836	43132.61
565.035	42327.76
565.234	42233.55
565.432	42118.87
565.631	42036.95
565.83	42262.22
566.029	42530.51
566.228	41826.01
566.427	42204.88
566.625	41496.28
566.824	41610.97
567.023	42004.18
567.222	40998.63
567.42	41957.08
567.619	41551.58
567.818	41473.76
568.016	41080.55
568.215	41707.22
568.414	41395.93
568.612	41453.28
568.811	41068.26
569.01	41164.51
569.208	40967.91
569.407	40914.66
569.605	40439.53
569.804	40771.3
570.002	40398.57
570.201	40785.64
570.4	40333.04
570.598	39923.44
570.797	40113.91
570.995	40705.77
571.193	40115.95
571.392	40333.04
571.59	40204.02
571.789	39974.64
571.987	39845.62
572.186	39628.54
572.384	39628.54
572.582	39712.5
572.781	39646.97
572.979	39266.05
573.177	39442.17
573.376	39509.75
573.574	39126.78
573.772	39315.2
573.971	38956.8
574.169	39108.35
574.367	38655.75
574.565	38903.56
574.763	38448.91
574.962	38557.45
575.16	38287.12
575.358	38610.7
575.556	38221.58
575.754	38803.21
575.952	38123.28
576.151	38448.91
576.349	37879.57
576.547	37898
576.745	38184.72
576.943	38137.62
577.141	37893.91
577.339	37795.6
577.537	37519.13
577.735	37349.15
577.933	37070.62
578.131	37457.69
578.329	36943.65
578.527	37019.42
578.725	37005.09
578.923	37091.1
579.121	37099.3
579.319	36503.34
579.516	36765.48
579.714	36562.73
579.912	36718.37
580.11	36540.2
580.308	36486.95
580.506	36261.68
580.704	35741.49
580.901	35839.79
581.099	36024.11
581.297	35698.48
581.495	35465.02
581.692	36048.69
581.89	35450.68
582.088	35663.67
582.285	35342.14
582.483	35784.5
582.681	35366.71
582.878	35106.62
583.076	34881.35
583.274	34979.65
583.471	35063.61
583.669	34862.91
583.866	34559.81
584.064	35123.01
584.262	34344.78
584.459	34707.27
584.657	34406.22
584.854	34756.42
585.052	34043.73
585.249	34328.39
585.447	34199.37
585.644	33589.08
585.841	33926.99
586.039	34236.23
586.236	33544.02
586.434	33376.09
586.631	33396.57
586.828	33525.59
587.026	33683.28
587.223	33501.01
587.42	33505.11
587.618	33443.67
587.815	32694.11
588.012	33099.61
588.21	32624.48
588.407	33150.81
588.604	32548.71
588.801	32085.87
588.999	32425.83
589.196	32218.99
589.393	32470.89
589.59	32130.92
589.787	31674.23
589.984	32042.86
590.182	31971.18
590.379	32251.75
590.576	31594.36
590.773	32044.91
590.97	31332.22
591.167	31520.63
591.364	31344.5
591.561	31369.08
591.758	31219.58
591.955	31078.27
592.152	31303.54
592.349	30678.91
592.546	30881.66
592.743	31096.7
592.94	30658.43
593.137	30590.85
593.334	30680.96
593.531	30551.94
593.727	30580.61
593.924	30355.33
594.121	30367.62
594.318	30279.56
594.515	30087.05
594.712	29683.6
594.908	30037.9
595.105	30261.13
595.302	29783.95
595.499	29505.43
595.696	29695.89
595.892	29347.73
596.089	29487
596.286	29673.36
596.482	29063.07
596.679	29185.94
596.876	29104.03
597.072	29046.68
597.269	28958.62
597.466	29061.02
597.662	28614.56
597.859	28858.27
598.055	28536.74
598.252	28395.43
598.448	28555.17
598.645	28299.17
598.841	28086.18
599.038	27910.06
599.234	28041.13
599.431	27969.45
599.627	27797.42
599.824	27664.3
600.02	27656.11
600.217	27717.55
600.413	27342.77
600.609	27598.77
600.806	27369.4
601.002	27578.29
601.198	27424.69
601.395	26951.61
601.591	27066.3
601.787	27111.35
601.984	26599.36
602.18	26769.34
602.376	26615.74
602.572	26726.33
602.769	26826.68
602.965	26302.4
603.161	26468.29
603.357	26355.65
603.553	26300.36
603.75	26224.58
603.946	26083.27
604.142	26288.07
604.338	25849.8
604.534	25774.03
604.73	26058.7
604.926	25970.63
605.122	25774.03
605.318	25499.6
605.514	25692.11
605.71	25575.38
605.906	25495.5
606.102	25427.92
606.298	25300.95
606.494	25171.93
606.69	25401.3
606.886	25505.74
607.082	24682.46
607.278	25016.28
607.474	24774.62
607.67	24854.49
607.866	24502.24
608.062	24907.74
608.257	24575.97
608.453	24745.95
608.649	24584.16
608.845	24543.2
609.041	24651.74
609.236	24590.3
609.432	24025.06
609.628	24252.39
609.824	23869.42
610.019	23799.79
610.215	24066.02
610.411	24217.57
610.606	23887.85
610.802	23926.76
610.998	23869.42
611.193	24002.54
611.389	24016.87
611.584	23705.58
611.78	23848.94
611.976	23775.21
612.171	23576.56
612.367	23789.55
612.562	23318.51
612.758	23392.24
612.953	23291.89
613.149	23613.42
613.344	23142.39
613.539	23513.07
613.735	23136.24
613.93	23169.01
614.126	22910.97
614.321	23171.06
614.517	23054.33
614.712	23080.95
614.907	22956.02
615.103	23087.09
615.298	22740.99
615.493	22999.03
615.688	22403.07
615.884	23037.94
616.079	22919.16
616.274	22749.18
616.47	22779.9
616.665	22798.33
616.86	22601.72
617.055	22517.76
617.25	22378.5
617.445	22673.4
617.641	22040.58
617.836	22358.02
618.031	22022.15
618.226	22358.02
618.421	21966.85
618.616	22118.4
618.811	21833.74
619.006	21901.32
619.201	21524.49
619.396	21389.33
619.591	21434.38
619.786	21514.25
619.981	21022.74
620.176	21504.01
620.371	21219.35
620.566	21223.44
620.761	21196.82
620.956	21151.76
621.151	20803.61
621.346	21145.62
621.541	20598.81
621.735	20879.38
621.93	20299.81
622.125	20396.06
622.32	20209.7
622.515	20549.66
622.709	20131.87
622.904	20334.62
623.099	19662.89
623.294	19855.4
623.488	19540.01
623.683	19914.79
623.878	19361.84
624.072	19292.21
624.267	19331.12
624.462	19007.54
624.656	19001.4
624.851	18794.55
625.046	18843.7
625.24	18671.67
625.435	18563.13
625.629	18391.1
625.824	18481.21
626.018	18344
626.213	18255.93
626.407	18196.54
626.602	17905.73
626.796	18075.71
626.991	17932.36
627.185	17844.29
627.38	17397.84
627.574	17502.28
627.768	17588.3
627.963	17326.16
628.157	17188.94
628.352	17258.57
628.546	17117.26
628.74	17246.29
628.935	16894.04
629.129	17176.66
629.323	16875.6
629.517	16709.72
629.712	16799.83
629.906	16584.79
630.1	16283.74
630.294	16668.76
630.489	16455.77
630.683	16275.55
630.877	16017.5
631.071	16050.27
631.265	15607.91
631.459	15738.98
631.653	15833.19
631.848	15786.08
632.042	15513.7
632.236	15548.52
632.43	15345.77
632.624	15505.51
632.818	15425.64
633.012	14932.08
633.206	14907.51
633.4	15243.37
633.594	15110.25
633.788	15151.21
633.982	14878.83
634.176	14719.09
634.369	14729.33
634.563	14538.87
634.757	14301.31
634.951	14368.89
635.145	14366.84
635.339	14260.35
635.533	14289.02
635.726	14370.94
635.92	14073.98
636.114	14067.84
636.308	13813.89
636.501	14033.02
636.695	13858.95
636.889	13674.63
637.083	13666.44
637.276	13461.64
637.47	13432.97
637.664	13408.39
637.857	13396.1
638.051	13494.41
638.244	13305.99
638.438	13088.91
638.632	13117.58
638.825	13080.72
639.019	13086.86
639.212	12771.47
639.406	12798.1
639.599	12771.47
639.793	12834.96
639.986	12662.93
640.18	12501.14
640.373	12499.09
640.567	12300.44
640.76	12196
640.954	12470.42
641.147	12056.73
641.34	12187.8
641.534	12185.76
641.727	12142.75
641.92	12122.27
642.114	11792.55
642.307	11626.66
642.5	11577.51
642.694	11448.49
642.887	11679.91
643.08	11466.92
643.273	11589.8
643.467	11554.98
643.66	11196.59
643.853	11327.66
644.046	11157.68
644.239	11090.09
644.432	11110.57
644.626	11079.85
644.819	10918.06
645.012	10715.31
645.205	10852.53
645.398	10782.9
645.591	10836.14
645.784	10707.12
645.977	10608.82
646.17	10469.56
646.363	10412.21
646.556	10242.23
646.749	10418.36
646.942	10498.23
647.135	10346.68
647.328	10270.9
647.521	10223.8
647.714	10217.66
647.907	10053.82
648.099	10109.12
648.292	10057.92
648.485	9990.33
648.678	9681.09
648.871	9887.93
649.064	9867.45
649.256	9676.99
649.449	9408.71
649.642	9615.55
649.835	9408.71
650.027	9433.29
650.22	9666.75
650.413	9285.83
650.605	9386.18
650.798	9277.64
650.991	9242.82
651.183	9334.98
651.376	9048.27
651.568	9132.23
651.761	9009.36
651.954	8859.85
652.146	8941.77
652.339	8935.63
652.531	8898.77
652.724	8796.37
652.916	8624.34
653.109	8685.78
653.301	8577.23
653.494	8779.98
653.686	8501.46
653.879	8636.63
654.071	8583.38
654.263	8487.12
654.456	8388.82
654.648	8440.02
654.84	8200.41
655.033	8157.4
655.225	8286.42
655.417	7999.71
655.61	8059.1
655.802	8229.08
655.994	7928.03
656.186	7827.68
656.379	7872.73
656.571	8065.24
656.763	7772.38
656.955	7721.18
657.148	7616.74
657.34	7575.78
657.532	7706.85
657.724	7534.82
657.916	7506.15
658.108	7579.87
658.3	7420.13
658.492	7690.46
658.684	7413.99
658.876	7215.34
659.068	7385.32
659.26	7336.17
659.452	7256.29
659.644	7313.64
659.836	7125.22
660.028	7057.64
660.22	7071.98
660.412	6922.48
660.604	6912.24
660.796	6936.81
660.988	6906.09
661.18	6867.18
661.372	6801.65
661.563	6904.04
661.755	6789.36
661.947	6777.07
662.139	6715.63
662.331	6766.83
662.522	6510.83
662.714	6555.89
662.906	6398.2
663.097	6510.83
663.289	6496.5
663.481	6463.73
663.673	6355.19
663.864	6193.4
664.056	6306.04
664.247	6279.41
664.439	6228.21
664.631	6213.88
664.822	6166.78
665.014	6097.14
665.205	6172.92
665.397	6021.37
665.588	6070.52
665.78	6097.14
665.971	5961.98
666.163	6068.47
666.354	6037.75
666.546	5779.71
666.737	5779.71
666.929	5769.47
667.12	5748.99
667.311	5830.91
667.503	5751.04
667.694	5742.85
667.885	5712.13
668.077	5542.14
668.268	5548.29
668.459	5753.09
668.651	5644.54
668.842	5409.03
669.033	5478.66
669.224	5441.79
669.416	5462.27
669.607	5384.45
669.798	5249.29
669.989	5380.36
670.18	5212.42
670.371	5302.53
670.563	5206.28
670.754	5153.03
670.945	5265.67
671.136	5067.02
671.327	5157.13
671.518	4995.34
671.709	5247.24
671.9	5101.83
672.091	5071.11
672.282	5046.54
672.473	4972.81
672.664	5071.11
672.855	4890.89
673.046	5009.67
673.237	5001.48
673.428	4892.94
673.619	4962.57
673.809	4860.17
674	4890.89
674.191	4667.66
674.382	4737.29
674.573	4860.17
674.764	4753.68
674.954	4677.9
675.145	4677.9
675.336	4667.66
675.527	4786.44
675.717	4651.28
675.908	4720.91
676.099	4565.26
676.289	4497.68
676.48	4624.65
676.671	4569.36
676.861	4577.55
677.052	4604.18
677.243	4446.48
677.433	4546.83
677.624	4524.3
677.814	4346.13
678.005	4380.95
678.195	4448.53
678.386	4331.8
678.576	4456.72
678.767	4270.36
678.957	4348.18
679.148	4432.15
679.338	4344.08
679.529	4303.12
679.719	4309.27
679.909	4407.57
680.1	4251.92
680.29	4262.16
680.481	4243.73
680.671	4305.17
680.861	4243.73
681.052	4043.03
681.242	4200.73
681.432	4274.45
681.622	4061.46
681.813	4098.33
682.003	4219.16
682.193	4215.06
682.383	4176.15
682.573	4163.86
682.764	4012.31
682.954	4272.4
683.144	4096.28
683.334	3963.16
683.524	4079.9
683.714	3965.21
683.904	3868.95
684.094	4014.36
684.284	4135.19
684.474	4020.5
684.664	4036.89
684.854	3963.16
685.044	3965.21
685.234	3971.35
685.424	3887.39
685.614	3791.13
685.804	3719.45
685.994	3891.48
686.184	3821.85
686.374	3752.22
686.564	3819.8
686.753	3688.73
686.943	3735.84
687.133	3639.58
687.323	3817.76
687.513	3830.04
687.702	3778.84
687.892	3696.92
688.082	3643.68
688.272	3733.79
688.461	3512.61
688.651	3649.82
688.841	3557.66
689.03	3668.25
689.22	3572
689.41	3442.98
689.599	3537.18
689.789	3442.98
689.979	3547.42
690.168	3440.93
690.358	3424.55
690.547	3438.88
690.737	3373.35
690.926	3369.25
691.116	3451.17
691.305	3518.75
691.495	3365.15
691.684	3268.9
691.874	3369.25
692.063	3465.5
692.252	3393.83
692.442	3430.69
692.631	3283.24
692.82	3291.43
693.01	3359.01
693.199	3242.28
693.388	3342.63
693.578	3260.71
693.767	3344.67
693.956	3281.19
694.146	3111.21
694.335	3217.7
694.524	3184.93
694.713	3180.84
694.902	3258.66
695.092	3240.23
695.281	3176.74
695.47	3150.12
695.659	3090.73
695.848	3164.45
696.037	2933.03
696.226	3017
696.415	3033.38
696.604	3143.97
696.793	3121.45
696.982	3098.92
697.171	3057.96
697.36	2973.99
697.549	3070.25
697.738	2926.89
697.927	2857.26
698.116	2906.41
698.305	2965.8
698.494	2881.83
698.683	3004.71
698.872	2984.23
699.061	2980.14
699.25	2957.61
699.438	2812.2
699.627	2894.12
699.816	2892.07
700.005	2871.59
700.193	2779.43
700.382	2871.59
700.571	2906.41
700.76	2914.6
700.948	2797.87
701.137	2801.96
701.326	2769.2
701.514	2787.63
701.703	2761
701.892	2769.2
702.08	2881.83
702.269	2746.67
702.457	2761
702.646	2783.53
702.834	2713.9
703.023	2797.87
703.212	2808.11
703.4	2763.05
703.589	2709.8
703.777	2722.09
703.965	2599.21
704.154	2709.8
704.342	2613.55
704.531	2758.96
704.719	2713.9
704.907	2748.72
705.096	2636.08
705.284	2711.85
705.472	2707.76
705.661	2629.93
705.849	2613.55
706.037	2705.71
706.226	2627.89
706.414	2718
706.602	2578.73
706.79	2554.16
706.979	2586.93
707.167	2513.2
707.355	2498.86
707.543	2644.27
707.731	2666.8
707.919	2545.97
708.107	2627.89
708.296	2564.4
708.484	2586.93
708.672	2498.86
708.86	2466.1
709.048	2523.44
709.236	2498.86
709.424	2574.64
709.612	2560.3
709.8	2617.65
709.988	2529.58
710.176	2470.19
710.364	2677.04
710.551	2572.59
710.739	2423.09
710.927	2554.16
711.115	2400.56
711.303	2408.75
711.491	2533.68
711.679	2423.09
711.866	2464.05
712.054	2466.1
712.242	2427.18
712.43	2496.82
712.617	2451.76
712.805	2476.34
712.993	2447.66
713.181	2466.1
713.368	2472.24
713.556	2449.71
713.744	2410.8
713.931	2507.06
714.119	2312.5
714.306	2328.88
714.494	2365.75
714.682	2382.13
714.869	2449.71
715.057	2392.37
715.244	2418.99
715.432	2406.7
715.619	2306.35
715.807	2435.38
715.994	2373.94
716.182	2316.59
716.369	2310.45
716.556	2386.22
716.744	2326.83
716.931	2459.95
717.119	2505.01
717.306	2402.61
717.493	2310.45
717.681	2236.72
717.868	2251.06
718.055	2439.47
718.242	2425.14
718.43	2337.07
718.617	2328.88
718.804	2267.44
718.991	2392.37
719.179	2343.22
719.366	2181.43
719.553	2318.64
719.74	2292.02
719.927	2285.87
720.114	2210.1
720.301	2310.45
720.488	2255.15
720.676	2365.75
720.863	2275.63
721.05	2341.17
721.237	2298.16
721.424	2433.33
721.611	2275.63
721.798	2236.72
721.985	2169.14
722.172	2222.39
722.358	2177.33
722.545	2144.56
722.732	2193.72
722.919	2144.56
723.106	2259.25
723.293	2177.33
723.48	2347.31
723.667	2269.49
723.853	2210.1
724.04	2105.65
724.227	2128.18
724.414	2158.9
724.6	2187.57
724.787	2175.28
724.974	2251.06
725.161	2189.62
725.347	2181.43
725.534	2210.1
725.72	2201.91
725.907	2251.06
726.094	2234.68
726.28	2124.08
726.467	2163
726.653	2117.94
726.84	2226.48
727.027	2140.47
727.213	2128.18
727.4	2163
727.586	2201.91
727.773	2156.85
727.959	2234.68
728.145	2146.61
728.332	2132.28
728.518	2206
728.705	2212.15
728.891	1993.01
729.077	2140.47
729.264	2189.62
729.45	2238.77
729.636	2191.67
729.823	2111.8
730.009	2238.77
730.195	2019.64
730.382	2093.37
730.568	2146.61
730.754	2105.65
730.94	2160.95
731.126	2136.37
731.313	2074.93
731.499	2185.52
731.685	2093.37
731.871	2115.89
732.057	2046.26
732.243	2124.08
732.429	2066.74
732.615	2117.94
732.801	2054.45
732.987	2054.45
733.173	1972.54
733.359	2074.93
733.545	2005.3
733.731	2087.22
733.917	2019.64
734.103	2126.13
734.289	2212.15
734.475	2038.07
734.661	2103.61
734.847	2124.08
735.033	2091.32
735.219	2052.41
735.404	2054.45
735.59	2011.45
735.776	1923.38
735.962	2064.69
736.148	2105.65
736.333	1986.87
736.519	1878.33
736.705	1943.86
736.89	1993.01
737.076	1968.44
737.262	1956.15
737.447	2056.5
737.633	1980.73
737.819	1988.92
738.004	1835.32
738.19	2038.07
738.375	1857.85
738.561	2007.35
738.747	1917.24
738.932	1882.42
739.118	2009.4
739.303	1872.18
739.489	1898.81
739.674	1825.08
739.859	1857.85
740.045	1876.28
740.23	1843.51
740.416	1978.68
740.601	1956.15
740.786	1876.28
740.972	1898.81
741.157	1800.51
741.342	1857.85
741.528	1941.82
741.713	1851.71
741.898	1872.18
742.084	1874.23
742.269	1820.99
742.454	1886.52
742.639	1786.17
742.824	1890.62
743.01	1820.99
743.195	1665.34
743.38	1767.74
743.565	1771.83
743.75	1720.64
743.935	1763.64
744.12	1761.59
744.305	1734.97
744.49	1734.97
744.675	1739.07
744.86	1648.96
745.045	1812.79
745.23	1665.34
745.415	1702.2
745.6	1671.48
745.785	1689.92
745.97	1751.35
746.155	1696.06
746.34	1694.01
746.525	1659.2
746.71	1655.1
746.895	1626.43
747.079	1577.28
747.264	1663.29
747.449	1603.9
747.634	1687.87
747.819	1612.09
748.003	1507.65
748.188	1558.85
748.373	1575.23
748.557	1595.71
748.742	1489.21
748.927	1567.04
749.111	1466.69
749.296	1564.99
749.481	1524.03
749.665	1419.58
749.85	1444.16
750.034	1431.87
750.219	1481.02
750.404	1450.3
750.588	1489.21
750.773	1440.06
750.957	1505.6
751.141	1425.73
751.326	1395.01
751.51	1415.49
751.695	1395.01
751.879	1354.05
752.064	1483.07
752.248	1358.14
752.432	1440.06
752.617	1448.26
752.801	1319.23
752.985	1339.71
753.17	1395.01
753.354	1395.01
753.538	1329.47
753.722	1300.8
753.907	1259.84
754.091	1237.31
754.275	1354.05
754.459	1331.52
754.643	1251.65
754.828	1265.99
755.012	1169.73
755.196	1276.23
755.38	1237.31
755.564	1218.88
755.748	1233.22
755.932	1227.07
756.116	1186.12
756.3	1153.35
756.484	1169.73
756.668	1208.64
756.852	1079.62
757.036	1124.68
757.22	1104.2
757.404	1065.29
757.588	1136.96
757.772	1177.92
757.956	1057.09
758.14	1157.44
758.323	1009.99
758.507	1122.63
758.691	960.84
758.875	1139.01
759.059	1042.76
759.242	1108.29
759.426	1079.62
759.61	995.65
759.794	1067.33
759.977	1050.95
760.161	1067.33
760.345	1079.62
760.528	1022.28
760.712	997.7
760.895	1036.61
761.079	1042.76
761.263	997.7
761.446	960.84
761.63	1024.33
761.813	1022.28
761.997	901.45
762.18	940.36
762.364	1003.85
762.547	932.17
762.731	1071.43
762.914	1007.94
763.098	1018.18
763.281	889.16
763.464	950.6
763.648	950.6
763.831	950.6
764.015	928.07
764.198	899.4
764.381	889.16
764.564	915.78
764.748	944.45
764.931	860.49
765.114	893.26
765.297	907.59
765.481	926.02
765.664	964.93
765.847	858.44
766.03	973.13
766.213	891.21
766.397	885.06
766.58	760.14
766.763	850.25
766.946	899.4
767.129	846.15
767.312	817.48
767.495	919.88
767.678	854.34
767.861	846.15
768.044	801.1
768.227	825.67
768.41	930.12
768.593	938.31
768.776	923.98
768.959	833.86
769.142	883.02
769.324	807.24
769.507	825.67
769.69	852.3
769.873	872.78
770.056	907.59
770.239	809.29
770.421	915.78
770.604	915.78
770.787	737.61
770.97	809.29
771.152	700.75
771.335	848.2
771.518	743.75
771.7	858.44
771.883	801.1
772.066	727.37
772.248	913.74
772.431	866.63
772.613	792.91
772.796	817.48
772.978	794.95
773.161	864.58
773.343	739.66
773.526	702.79
773.708	731.47
773.891	575.82
774.073	792.91
774.256	710.99
774.438	776.52
774.621	747.85
774.803	743.75
774.985	653.64
775.168	696.65
775.35	735.56
775.532	710.99
775.715	663.88
775.897	760.14
776.079	672.08
776.261	727.37
776.444	606.54
776.626	723.27
776.808	653.64
776.99	653.64
777.173	610.64
777.355	680.27
777.537	667.98
777.719	606.54
777.901	670.03
778.083	682.31
778.265	538.96
778.447	657.74
778.629	608.59
778.811	655.69
778.993	653.64
779.175	563.53
779.357	624.97
779.539	520.53
779.721	553.29
779.903	657.74
780.085	598.35
780.267	575.82
780.449	555.34
780.631	637.26
780.812	577.87
780.994	604.49
781.176	567.63
781.358	473.42
781.54	461.13
781.721	506.19
781.903	498
782.085	516.43
782.267	516.43
782.448	448.85
782.63	489.81
782.812	504.14
782.993	522.57
783.175	532.81
783.357	518.48
783.538	518.48
783.72	485.71
783.901	514.38
784.083	448.85
784.264	475.47
784.446	491.85
784.627	477.52
784.809	491.85
784.99	385.36
785.172	516.43
785.353	498
785.535	465.23
785.716	411.98
785.897	366.93
786.079	438.61
786.26	377.17
786.441	502.09
786.623	426.32
786.804	426.32
786.985	459.09
787.167	457.04
787.348	436.56
787.529	407.89
787.71	401.74
787.891	422.22
788.073	399.7
788.254	467.28
788.435	403.79
788.616	430.41
788.797	323.92
788.978	457.04
789.159	362.83
789.34	368.98
789.522	332.11
789.703	399.7
789.884	358.74
790.065	399.7
790.246	383.31
790.427	352.59
790.607	375.12
790.788	342.35
790.969	334.16
791.15	424.27
791.331	321.87
791.512	309.58
791.693	319.82
791.874	342.35
792.054	407.89
792.235	317.78
792.416	338.26
792.597	309.58
792.778	344.4
792.958	373.07
793.139	303.44
793.32	403.79
793.5	346.45
793.681	360.78
793.862	330.06
794.042	317.78
794.223	227.67
794.404	278.87
794.584	239.95
794.765	268.63
794.945	373.07
795.126	375.12
795.306	305.49
795.487	289.1
795.667	285.01
795.848	375.12
796.028	252.24
796.209	170.32
796.389	328.02
796.57	276.82
796.75	252.24
796.93	278.87
797.111	239.95
797.291	229.71
797.471	315.73
797.652	223.57
797.832	264.53
798.012	227.67
798.192	233.81
798.373	227.67
798.553	278.87
798.733	237.91
798.913	205.14
799.093	227.67
799.274	231.76
799.454	317.78
799.634	287.06
799.814	285.01
799.994	231.76
800.174	287.06
800.354	227.67
800.534	227.67
800.714	344.4
800.894	227.67
801.074	217.43
801.254	246.1
801.434	252.24
801.614	242
801.794	166.23
801.974	792.91
802.154	190.8
802.334	219.47
802.514	170.32
802.693	186.71
802.873	166.23
803.053	158.03
803.233	125.27
803.413	182.61
803.592	235.86
803.772	172.37
803.952	215.38
804.131	213.33
804.311	293.2
804.491	309.58
804.67	123.22
804.85	174.42
805.03	252.24
805.209	219.47
805.389	166.23
805.568	129.36
805.748	186.71
805.928	112.98
806.107	78.16
806.287	106.84
806.466	233.81
806.646	205.14
806.825	115.03
807.004	227.67
807.184	213.33
807.363	272.72
807.543	180.56
807.722	141.65
807.901	260.43
808.081	205.14
808.26	235.86
808.439	221.52
808.619	119.12
808.798	112.98
808.977	207.19
809.156	278.87
809.336	170.32
809.515	182.61
809.694	162.13
809.873	170.32
810.052	237.91
810.231	237.91
810.411	186.71
810.59	145.75
810.769	139.6
810.948	184.66
811.127	88.4
811.306	182.61
811.485	153.94
811.664	215.38
811.843	190.8
812.022	100.69
812.201	166.23
812.38	155.99
812.559	135.51
812.737	158.03
812.916	172.37
813.095	82.26
813.274	162.13
813.453	74.07
813.632	162.13
813.811	147.8
813.989	104.79
814.168	121.17
814.347	55.64
814.526	198.99
814.704	186.71
814.883	162.13
815.062	61.78
815.24	186.71
815.419	76.12
815.598	133.46
815.776	110.93
815.955	221.52
816.133	125.27
816.312	147.8
816.49	96.6
816.669	121.17
816.847	133.46
817.026	131.41
817.204	137.56
817.383	106.84
817.561	106.84
817.74	145.75
817.918	135.51
818.097	178.51
818.275	86.36
818.453	203.09
818.632	133.46
818.81	123.22
818.988	59.73
819.167	108.88
819.345	98.64
819.523	104.79
819.701	57.68
819.879	139.6
820.058	104.79
820.236	135.51
820.414	61.78
820.592	115.03
820.77	98.64
820.948	139.6
821.127	88.4
821.305	145.75
821.483	69.97
821.661	129.36
821.839	123.22
822.017	80.21
822.195	74.07
822.373	158.03
822.551	186.71
822.729	67.92
822.907	53.59
823.085	149.84
823.262	129.36
823.44	49.49
823.618	162.13
823.796	104.79
823.974	55.64
824.152	59.73
824.329	69.97
824.507	119.12
824.685	129.36
824.863	57.68
825.04	88.4
825.218	123.22
825.396	74.07
825.574	96.6
825.751	-1.71
825.929	100.69
826.107	-18.09
826.284	137.56
826.462	67.92
826.639	186.71
826.817	16.73
826.994	96.6
827.172	-18.09
827.349	88.4
827.527	143.7
827.704	106.84
827.882	160.08
828.059	61.78
828.237	18.77
828.414	47.44
828.591	26.96
828.769	57.68
828.946	49.49
829.124	26.96
829.301	94.55
829.478	33.11
829.655	98.64
829.833	86.36
830.01	8.53
830.187	37.2
830.364	92.5
830.542	67.92
830.719	88.4
830.896	149.84
831.073	43.35
831.25	84.31
831.427	123.22
831.604	55.64
831.782	112.98
831.959	121.17
832.136	31.06
832.313	125.27
832.49	82.26
832.667	31.06
832.844	63.83
833.021	74.07
833.198	43.35
833.374	86.36
833.551	47.44
833.728	104.79
833.905	65.88
834.082	96.6
834.259	18.77
834.436	90.45
834.612	74.07
834.789	90.45
834.966	43.35
835.143	35.16
835.319	8.53
835.496	194.9
835.673	59.73
835.85	31.06
836.026	102.74
836.203	55.64
836.38	31.06
836.556	6.49
836.733	29.01
836.909	117.08
837.086	-1.71
837.262	-26.28
837.439	29.01
837.616	24.92
837.792	94.55
837.968	72.02
838.145	-3.75
838.321	84.31
838.498	92.5
838.674	131.41
838.851	14.68
839.027	80.21
839.203	80.21
839.38	65.88
839.556	35.16
839.732	47.44
839.909	115.03
840.085	82.26
840.261	55.64
840.437	106.84
840.614	10.58
840.79	82.26
840.966	4.44
841.142	-13.99
841.318	-16.04
841.494	37.2
841.671	47.44
841.847	72.02
842.023	65.88
842.199	108.88
842.375	18.77
842.551	16.73
842.727	74.07
842.903	112.98
843.079	115.03
843.255	74.07
843.431	84.31
843.607	119.12
843.783	47.44
843.959	84.31
844.134	24.92
844.31	55.64
844.486	57.68
844.662	135.51
844.838	51.54
845.013	112.98
845.189	-11.95
845.365	49.49
845.541	8.53
845.716	108.88
845.892	47.44
846.068	6.49
846.244	22.87
846.419	92.5
846.595	43.35
846.77	33.11
846.946	67.92
847.122	35.16
847.297	10.58
847.473	63.83
847.648	57.68
847.824	22.87
847.999	-1.71
848.175	18.77
848.35	39.25
848.526	76.12
848.701	37.2
848.876	55.64
849.052	57.68
849.227	0.34
849.403	108.88
849.578	96.6
849.753	69.97
849.929	65.88
850.104	18.77
850.279	88.4
850.454	39.25
850.63	6.49
850.805	65.88
850.98	16.73
851.155	72.02
851.33	98.64
851.505	6.49
851.681	78.16
851.856	-38.57
852.031	61.78
852.206	-9.9
852.381	-9.9
852.556	24.92
852.731	22.87
852.906	39.25
853.081	31.06
853.256	100.69
853.431	29.01
853.606	55.64
853.781	0.34
853.956	-42.67
854.131	41.3
854.305	76.12
854.48	4.44
854.655	22.87
854.83	24.92
855.005	8.53
855.18	31.06
855.354	-13.99
855.529	35.16
855.704	-32.43
855.879	31.06
856.053	35.16
856.228	41.3
856.403	14.68
856.577	16.73
856.752	-32.43
856.926	39.25
857.101	-3.75
857.276	-1.71
857.45	53.59
857.625	12.63
857.799	29.01
857.974	-9.9
858.148	16.73
858.323	2.39
858.497	26.96
858.672	18.77
858.846	-1.71
859.02	72.02
859.195	8.53
859.369	63.83
859.543	22.87
859.718	18.77
859.892	67.92
860.066	96.6
860.241	96.6
860.415	26.96
860.589	-42.67
860.763	33.11
860.938	78.16
861.112	-16.04
861.286	31.06
861.46	43.35
861.634	84.31
861.808	170.32
861.982	26.96
862.157	80.21
862.331	-9.9
862.505	41.3
862.679	16.73
862.853	-65.19
863.027	-18.09
863.201	24.92
863.375	0.34
863.549	20.82
863.722	8.53
863.896	96.6
864.07	10.58
864.244	26.96
864.418	8.53
864.592	39.25
864.766	59.73
864.939	16.73
865.113	-9.9
865.287	92.5
865.461	-61.1
865.634	39.25
865.808	-46.76
865.982	55.64
866.156	-24.23
866.329	-28.33
866.503	20.82
866.676	0.34
866.85	22.87
867.024	-1.71
867.197	-3.75
867.371	59.73
867.544	4.44
867.718	-26.28
867.891	72.02
868.065	12.63
868.238	-34.47
868.412	84.31
868.585	135.51
868.759	14.68
868.932	6.49
869.105	10.58
869.279	10.58
869.452	-22.19
869.625	129.36
869.799	37.2
869.972	31.06
870.145	-18.09
870.319	84.31
870.492	-30.38
870.665	10.58
870.838	-65.19
871.011	-34.47
871.185	-18.09
871.358	53.59
871.531	14.68
871.704	8.53
871.877	12.63
872.05	53.59
872.223	-71.34
872.396	26.96
872.569	33.11
872.742	22.87
872.915	-3.75
873.088	-32.43
873.261	26.96
873.434	-26.28
873.607	-46.76
873.78	45.4
873.953	26.96
874.126	35.16
874.299	16.73
874.471	67.92
874.644	47.44
874.817	24.92
874.99	98.64
875.163	-40.62
875.335	-9.9
875.508	0.34
875.681	139.6
875.853	67.92
876.026	8.53
876.199	-38.57
876.371	22.87
876.544	31.06
876.717	22.87
876.889	0.34
877.062	-9.9
877.234	-13.99
877.407	16.73
877.579	-24.23
877.752	-13.99
877.924	31.06
878.097	33.11
878.269	-1.71
878.442	20.82
878.614	31.06
878.786	31.06
878.959	67.92
879.131	49.49
879.303	-13.99
879.476	-9.9
879.648	0.34
879.82	24.92
879.993	16.73
880.165	63.83
880.337	72.02
880.509	-9.9
880.681	22.87
880.854	31.06
881.026	90.45
881.198	22.87
881.37	20.82
881.542	-59.05
881.714	-1.71
881.886	12.63
882.058	88.4
882.23	74.07
882.402	12.63
882.574	-18.09
882.746	24.92
882.918	26.96
883.09	29.01
883.262	24.92
883.434	-20.14
883.606	-59.05
883.778	-34.47
883.95	6.49
884.122	-24.23
884.293	24.92
884.465	22.87
884.637	14.68
884.809	-24.23
884.98	24.92
885.152	-50.86
885.324	2.39
885.496	-75.43
885.667	14.68
885.839	6.49
886.011	33.11
886.182	-22.19
886.354	10.58
886.525	10.58
886.697	125.27
886.869	37.2
887.04	-50.86
887.212	90.45
887.383	92.5
887.555	14.68
887.726	-16.04
887.897	45.4
888.069	16.73
888.24	18.77
888.412	0.34
888.583	6.49
888.754	92.5
888.926	-50.86
889.097	43.35
889.268	6.49
889.44	31.06
889.611	-13.99
889.782	55.64
889.953	-57
890.125	41.3
890.296	29.01
890.467	6.49
890.638	-9.9
890.809	26.96
890.98	108.88
891.151	-22.19
891.323	39.25
891.494	51.54
891.665	-3.75
891.836	14.68
892.007	-59.05
892.178	-63.15
892.349	88.4
892.52	-22.19
892.691	16.73
892.862	2.39
893.032	-7.85
893.203	22.87
893.374	39.25
893.545	41.3
893.716	6.49
893.887	57.68
894.057	-9.9
894.228	31.06
894.399	65.88
894.57	29.01
894.74	-48.81
894.911	31.06
895.082	-7.85
895.253	47.44
895.423	-7.85
895.594	43.35
895.764	39.25
895.935	-34.47
896.106	6.49
896.276	-20.14
896.447	12.63
896.617	8.53
896.788	53.59
896.958	-5.8
897.129	-79.53
897.299	31.06
897.47	-16.04
897.64	22.87
897.81	35.16
897.981	90.45
898.151	-50.86
898.322	43.35
898.492	-1.71
898.662	-28.33
898.832	-7.85
899.003	-32.43
899.173	18.77
899.343	-30.38
899.513	35.16
