Data from USB4F104151__308__14-46-42-550.txt Node

Date: Thu Mar 13 14:46:42 EDT 2025
User: louis
Spectrometer: USB4F10415
Trigger mode: 4
Integration Time (sec): 2.000000E-2
Scans to average: 1
Electric dark correction enabled: true
Nonlinearity correction enabled: false
Boxcar width: 0
XAxis mode: Wavelengths
Number of Pixels in Spectrum: 3648
>>>>>Begin Spectral Data<<<<<
178.204	-165.89
178.424	-165.89
178.644	-165.89
178.864	-86.01
179.084	-122.88
179.304	-20.48
179.524	-24.58
179.744	-10.24
179.964	36.86
180.184	43.01
180.404	10.24
180.624	-22.53
180.844	-14.34
181.064	-12.29
181.283	34.82
181.503	-71.68
181.723	51.2
181.943	-73.73
182.163	43.01
182.383	22.53
182.602	12.29
182.822	36.86
183.042	2.05
183.262	-28.67
183.482	26.62
183.701	-45.06
183.921	4.1
184.141	-14.34
184.361	16.38
184.58	10.24
184.8	24.58
185.02	-22.53
185.239	59.39
185.459	53.25
185.679	-6.14
185.898	49.15
186.118	63.49
186.338	51.2
186.557	43.01
186.777	-47.1
186.997	6.14
187.216	6.14
187.436	90.11
187.655	34.82
187.875	45.06
188.095	18.43
188.314	92.16
188.534	34.82
188.753	4.1
188.973	30.72
189.192	67.58
189.412	55.3
189.631	59.39
189.851	-69.63
190.07	75.77
190.29	14.34
190.509	26.62
190.729	12.29
190.948	45.06
191.168	124.93
191.387	10.24
191.607	34.82
191.826	-4.1
192.045	-0
192.265	-38.91
192.484	10.24
192.704	90.11
192.923	40.96
193.142	120.83
193.362	43.01
193.581	-0
193.8	6.14
194.02	88.06
194.239	4.1
194.458	12.29
194.678	-18.43
194.897	-6.14
195.116	-43.01
195.335	61.44
195.555	22.53
195.774	14.34
195.993	45.06
196.212	-18.43
196.432	24.58
196.651	-26.62
196.87	18.43
197.089	100.35
197.308	-20.48
197.528	65.53
197.747	6.14
197.966	-6.14
198.185	36.86
198.404	45.06
198.623	-10.24
198.842	22.53
199.062	36.86
199.281	36.86
199.5	-30.72
199.719	79.87
199.938	79.87
200.157	59.39
200.376	51.2
200.595	51.2
200.814	30.72
201.033	69.63
201.252	79.87
201.471	22.53
201.69	-22.53
201.909	45.06
202.128	-2.05
202.347	-6.14
202.566	-10.24
202.785	-20.48
203.004	-43.01
203.223	112.64
203.442	-6.14
203.661	-18.43
203.879	43.01
204.098	53.25
204.317	14.34
204.536	30.72
204.755	2.05
204.974	-2.05
205.193	-38.91
205.411	36.86
205.63	90.11
205.849	-38.91
206.068	14.34
206.287	18.43
206.505	26.62
206.724	-47.1
206.943	10.24
207.162	-8.19
207.381	-51.2
207.599	47.1
207.818	-14.34
208.037	34.82
208.255	18.43
208.474	34.82
208.693	6.14
208.911	34.82
209.13	28.67
209.349	20.48
209.567	16.38
209.786	100.35
210.005	4.1
210.223	53.25
210.442	-26.62
210.661	-2.05
210.879	-4.1
211.098	-20.48
211.316	-34.82
211.535	51.2
211.753	-2.05
211.972	67.58
212.191	30.72
212.409	36.86
212.628	-38.91
212.846	8.19
213.065	20.48
213.283	4.1
213.502	59.39
213.72	-6.14
213.938	-6.14
214.157	6.14
214.375	26.62
214.594	67.58
214.812	45.06
215.031	-22.53
215.249	30.72
215.467	32.77
215.686	30.72
215.904	51.2
216.122	51.2
216.341	53.25
216.559	26.62
216.778	-22.53
216.996	18.43
217.214	28.67
217.432	22.53
217.651	45.06
217.869	12.29
218.087	40.96
218.306	-14.34
218.524	20.48
218.742	43.01
218.96	-14.34
219.179	-2.05
219.397	38.91
219.615	104.45
219.833	22.53
220.051	2.05
220.27	34.82
220.488	26.62
220.706	-14.34
220.924	-47.1
221.142	16.38
221.36	-24.58
221.578	75.77
221.796	12.29
222.015	20.48
222.233	10.24
222.451	120.83
222.669	30.72
222.887	83.97
223.105	-6.14
223.323	-71.68
223.541	10.24
223.759	34.82
223.977	20.48
224.195	92.16
224.413	53.25
224.631	96.25
224.849	34.82
225.067	-28.67
225.285	10.24
225.503	75.77
225.721	-4.1
225.939	88.06
226.157	28.67
226.375	126.97
226.592	-30.72
226.81	-30.72
227.028	-10.24
227.246	75.77
227.464	-8.19
227.682	47.1
227.9	36.86
228.117	28.67
228.335	26.62
228.553	-38.91
228.771	12.29
228.989	100.35
229.206	-30.72
229.424	34.82
229.642	-12.29
229.86	47.1
230.077	38.91
230.295	-55.3
230.513	51.2
230.731	51.2
230.948	112.64
231.166	14.34
231.384	-10.24
231.601	-24.58
231.819	43.01
232.037	-6.14
232.254	-28.67
232.472	18.43
232.689	-20.48
232.907	92.16
233.125	2.05
233.342	-38.91
233.56	18.43
233.777	88.06
233.995	14.34
234.213	75.77
234.43	75.77
234.648	28.67
234.865	-16.38
235.083	133.12
235.3	67.58
235.518	-6.14
235.735	10.24
235.953	83.97
236.17	55.3
236.388	20.48
236.605	-6.14
236.822	47.1
237.04	43.01
237.257	43.01
237.475	-14.34
237.692	75.77
237.909	71.68
238.127	10.24
238.344	4.1
238.562	-30.72
238.779	30.72
238.996	-4.1
239.214	43.01
239.431	22.53
239.648	40.96
239.865	51.2
240.083	61.44
240.3	-6.14
240.517	-30.72
240.735	63.49
240.952	32.77
241.169	45.06
241.386	75.77
241.603	20.48
241.821	-28.67
242.038	104.45
242.255	69.63
242.472	55.3
242.689	59.39
242.907	6.14
243.124	59.39
243.341	71.68
243.558	26.62
243.775	-65.54
243.992	-51.2
244.209	20.48
244.426	77.82
244.643	18.43
244.86	-8.19
245.078	65.53
245.295	-6.14
245.512	55.3
245.729	-47.1
245.946	12.29
246.163	51.2
246.38	12.29
246.597	-102.4
246.814	10.24
247.031	-18.43
247.248	59.39
247.464	88.06
247.681	-34.82
247.898	63.49
248.115	71.68
248.332	55.3
248.549	94.21
248.766	6.14
248.983	69.63
249.2	-14.34
249.417	-14.34
249.633	75.77
249.85	2.05
250.067	-12.29
250.284	43.01
250.501	14.34
250.717	36.86
250.934	8.19
251.151	57.34
251.368	18.43
251.585	30.72
251.801	-22.53
252.018	-43.01
252.235	51.2
252.451	61.44
252.668	59.39
252.885	43.01
253.102	10.24
253.318	4.1
253.535	18.43
253.752	-16.38
253.968	-14.34
254.185	-10.24
254.401	43.01
254.618	59.39
254.835	-28.67
255.051	45.06
255.268	59.39
255.484	86.01
255.701	24.58
255.917	-2.05
256.134	32.77
256.351	26.62
256.567	47.1
256.784	120.83
257	-20.48
257.217	-22.53
257.433	51.2
257.65	51.2
257.866	30.72
258.082	2.05
258.299	71.68
258.515	51.2
258.732	43.01
258.948	-28.67
259.165	-4.1
259.381	47.1
259.597	-61.44
259.814	20.48
260.03	-63.49
260.246	47.1
260.463	69.63
260.679	28.67
260.895	77.82
261.112	-20.48
261.328	18.43
261.544	67.58
261.761	55.3
261.977	-14.34
262.193	-14.34
262.409	96.25
262.626	71.68
262.842	34.82
263.058	-57.34
263.274	-14.34
263.49	77.82
263.707	30.72
263.923	-14.34
264.139	30.72
264.355	43.01
264.571	24.58
264.787	-4.1
265.004	-14.34
265.22	43.01
265.436	51.2
265.652	67.58
265.868	67.58
266.084	43.01
266.3	24.58
266.516	43.01
266.732	30.72
266.948	73.73
267.164	45.06
267.38	110.59
267.596	53.25
267.812	12.29
268.028	73.73
268.244	4.1
268.46	18.43
268.676	6.14
268.892	26.62
269.108	-49.15
269.324	-14.34
269.54	-45.06
269.756	26.62
269.972	-63.49
270.188	26.62
270.403	-65.54
270.619	51.2
270.835	34.82
271.051	-51.2
271.267	-51.2
271.483	28.67
271.698	43.01
271.914	20.48
272.13	2.05
272.346	22.53
272.562	22.53
272.777	45.06
272.993	53.25
273.209	-36.86
273.425	-55.3
273.64	18.43
273.856	43.01
274.072	18.43
274.287	-40.96
274.503	43.01
274.719	34.82
274.934	-6.14
275.15	-4.1
275.366	-2.05
275.581	28.67
275.797	43.01
276.012	-63.49
276.228	38.91
276.444	-32.77
276.659	110.59
276.875	2.05
277.09	10.24
277.306	18.43
277.521	43.01
277.737	-10.24
277.952	45.06
278.168	-26.62
278.383	81.92
278.599	-43.01
278.814	18.43
279.03	38.91
279.245	118.78
279.461	53.25
279.676	6.14
279.892	-4.1
280.107	-4.1
280.322	51.2
280.538	4.1
280.753	-28.67
280.969	71.68
281.184	22.53
281.399	67.58
281.615	6.14
281.83	79.87
282.045	20.48
282.26	18.43
282.476	-26.62
282.691	53.25
282.906	34.82
283.122	43.01
283.337	-6.14
283.552	67.58
283.767	6.14
283.983	-79.87
284.198	-6.14
284.413	53.25
284.628	-14.34
284.843	61.44
285.058	34.82
285.274	38.91
285.489	65.53
285.704	10.24
285.919	-100.35
286.134	-30.72
286.349	-40.96
286.564	34.82
286.779	4.1
286.995	28.67
287.21	-47.1
287.425	57.34
287.64	24.58
287.855	47.1
288.07	-20.48
288.285	43.01
288.5	92.16
288.715	-10.24
288.93	-47.1
289.145	-10.24
289.36	26.62
289.575	-38.91
289.79	16.38
290.004	10.24
290.219	59.39
290.434	6.14
290.649	-26.62
290.864	2.05
291.079	26.62
291.294	83.97
291.509	8.19
291.724	4.1
291.938	-40.96
292.153	12.29
292.368	71.68
292.583	18.43
292.798	20.48
293.012	10.24
293.227	-14.34
293.442	-14.34
293.657	47.1
293.871	94.21
294.086	-0
294.301	36.86
294.516	51.2
294.73	102.4
294.945	-30.72
295.16	-30.72
295.374	28.67
295.589	67.58
295.804	77.82
296.018	18.43
296.233	53.25
296.447	34.82
296.662	47.1
296.877	63.49
297.091	77.82
297.306	51.2
297.52	-43.01
297.735	67.58
297.949	38.91
298.164	10.24
298.378	40.96
298.593	53.25
298.807	-10.24
299.022	69.63
299.236	-26.62
299.451	26.62
299.665	-22.53
299.88	10.24
300.094	71.68
300.309	51.2
300.523	40.96
300.737	12.29
300.952	34.82
301.166	-36.86
301.381	-26.62
301.595	34.82
301.809	-38.91
302.024	34.82
302.238	14.34
302.452	49.15
302.667	10.24
302.881	38.91
303.095	94.21
303.309	71.68
303.524	-43.01
303.738	30.72
303.952	-34.82
304.166	36.86
304.381	-43.01
304.595	61.44
304.809	34.82
305.023	51.2
305.237	-6.14
305.452	14.34
305.666	-22.53
305.88	18.43
306.094	57.34
306.308	67.58
306.522	20.48
306.736	38.91
306.95	104.45
307.164	28.67
307.379	67.58
307.593	83.97
307.807	59.39
308.021	88.06
308.235	-2.05
308.449	-6.14
308.663	-20.48
308.877	102.4
309.091	-6.14
309.305	69.63
309.519	-47.1
309.733	34.82
309.947	-79.87
310.161	45.06
310.374	14.34
310.588	63.49
310.802	-45.06
311.016	22.53
311.23	-14.34
311.444	67.58
311.658	36.86
311.872	34.82
312.085	28.67
312.299	149.5
312.513	6.14
312.727	59.39
312.941	20.48
313.154	40.96
313.368	100.35
313.582	43.01
313.796	30.72
314.009	43.01
314.223	38.91
314.437	145.41
314.651	12.29
314.864	18.43
315.078	-24.58
315.292	-16.38
315.505	65.53
315.719	43.01
315.933	26.62
316.146	34.82
316.36	67.58
316.573	55.3
316.787	10.24
317.001	-8.19
317.214	20.48
317.428	45.06
317.641	6.14
317.855	45.06
318.068	-18.43
318.282	73.73
318.495	26.62
318.709	53.25
318.922	79.87
319.136	120.83
319.349	45.06
319.563	59.39
319.776	24.58
319.99	-38.91
320.203	26.62
320.417	-2.05
320.63	65.53
320.843	149.5
321.057	57.34
321.27	59.39
321.483	10.24
321.697	69.63
321.91	67.58
322.124	38.91
322.337	-22.53
322.55	-8.19
322.763	38.91
322.977	-20.48
323.19	79.87
323.403	14.34
323.617	18.43
323.83	100.35
324.043	63.49
324.256	71.68
324.469	71.68
324.683	53.25
324.896	26.62
325.109	28.67
325.322	24.58
325.535	61.44
325.748	-4.1
325.962	30.72
326.175	88.06
326.388	6.14
326.601	59.39
326.814	57.34
327.027	67.58
327.24	81.92
327.453	-6.14
327.666	75.77
327.879	14.34
328.092	51.2
328.305	-30.72
328.518	2.05
328.731	43.01
328.944	26.62
329.157	53.25
329.37	75.77
329.583	57.34
329.796	137.21
330.009	-34.82
330.222	92.16
330.435	10.24
330.648	38.91
330.861	67.58
331.073	-30.72
331.286	4.1
331.499	69.63
331.712	61.44
331.925	59.39
332.138	43.01
332.35	2.05
332.563	51.2
332.776	40.96
332.989	4.1
333.202	6.14
333.414	26.62
333.627	6.14
333.84	12.29
334.053	-16.38
334.265	-6.14
334.478	45.06
334.691	67.58
334.903	100.35
335.116	59.39
335.329	43.01
335.541	-26.62
335.754	98.3
335.966	57.34
336.179	20.48
336.392	108.54
336.604	67.58
336.817	67.58
337.029	22.53
337.242	77.82
337.454	43.01
337.667	63.49
337.88	-12.29
338.092	57.34
338.305	75.77
338.517	-45.06
338.729	51.2
338.942	51.2
339.154	51.2
339.367	18.43
339.579	43.01
339.792	4.1
340.004	2.05
340.217	67.58
340.429	30.72
340.641	-36.86
340.854	55.3
341.066	12.29
341.278	83.97
341.491	59.39
341.703	34.82
341.915	-77.82
342.128	92.16
342.34	69.63
342.552	75.77
342.764	-40.96
342.977	-14.34
343.189	92.16
343.401	147.45
343.613	43.01
343.826	14.34
344.038	36.86
344.25	-14.34
344.462	61.44
344.674	12.29
344.886	98.3
345.099	49.15
345.311	75.77
345.523	-22.53
345.735	14.34
345.947	14.34
346.159	14.34
346.371	86.01
346.583	-32.77
346.795	94.21
347.007	124.93
347.219	63.49
347.431	-2.05
347.643	83.97
347.855	-26.62
348.067	94.21
348.279	22.53
348.491	45.06
348.703	38.91
348.915	30.72
349.127	-16.38
349.339	34.82
349.551	59.39
349.763	71.68
349.975	4.1
350.187	124.93
350.399	110.59
350.61	-22.53
350.822	55.3
351.034	4.1
351.246	14.34
351.458	26.62
351.669	75.77
351.881	92.16
352.093	-20.48
352.305	83.97
352.517	90.11
352.728	124.93
352.94	88.06
353.152	98.3
353.363	-18.43
353.575	30.72
353.787	69.63
353.999	34.82
354.21	92.16
354.422	2.05
354.633	4.1
354.845	92.16
355.057	100.35
355.268	51.2
355.48	-45.06
355.692	59.39
355.903	-16.38
356.115	55.3
356.326	-12.29
356.538	71.68
356.749	38.91
356.961	53.25
357.172	-14.34
357.384	38.91
357.595	67.58
357.807	26.62
358.018	36.86
358.23	-2.05
358.441	32.77
358.653	83.97
358.864	-26.62
359.075	34.82
359.287	34.82
359.498	100.35
359.709	8.19
359.921	30.72
360.132	-14.34
360.344	34.82
360.555	26.62
360.766	18.43
360.977	28.67
361.189	61.44
361.4	38.91
361.611	-0
361.823	43.01
362.034	57.34
362.245	-36.86
362.456	-30.72
362.667	45.06
362.879	124.93
363.09	81.92
363.301	6.14
363.512	10.24
363.723	-28.67
363.935	16.38
364.146	67.58
364.357	43.01
364.568	-10.24
364.779	20.48
364.99	108.54
365.201	26.62
365.412	120.83
365.623	2.05
365.834	22.53
366.045	51.2
366.256	75.77
366.467	6.14
366.678	63.49
366.889	-36.86
367.1	-10.24
367.311	53.25
367.522	43.01
367.733	53.25
367.944	92.16
368.155	-22.53
368.366	67.58
368.577	20.48
368.788	77.82
368.999	-4.1
369.209	10.24
369.42	67.58
369.631	67.58
369.842	94.21
370.053	100.35
370.264	100.35
370.474	40.96
370.685	83.97
370.896	61.44
371.107	67.58
371.317	94.21
371.528	-18.43
371.739	88.06
371.95	51.2
372.16	67.58
372.371	-83.97
372.582	-20.48
372.792	49.15
373.003	20.48
373.214	24.58
373.424	122.88
373.635	47.1
373.846	135.17
374.056	14.34
374.267	14.34
374.477	49.15
374.688	4.1
374.898	16.38
375.109	18.43
375.319	65.53
375.53	92.16
375.74	28.67
375.951	94.21
376.161	79.87
376.372	110.59
376.582	12.29
376.793	8.19
377.003	108.54
377.214	-26.62
377.424	51.2
377.635	83.97
377.845	59.39
378.055	67.58
378.266	-63.49
378.476	16.38
378.686	-6.14
378.897	104.45
379.107	45.06
379.317	14.34
379.528	-28.67
379.738	73.73
379.948	4.1
380.158	51.2
380.369	28.67
380.579	43.01
380.789	63.49
380.999	102.4
381.21	2.05
381.42	26.62
381.63	77.82
381.84	61.44
382.05	47.1
382.261	92.16
382.471	18.43
382.681	10.24
382.891	2.05
383.101	86.01
383.311	4.1
383.521	59.39
383.731	2.05
383.941	40.96
384.151	22.53
384.361	79.87
384.571	24.58
384.781	28.67
384.991	-18.43
385.201	38.91
385.411	92.16
385.621	71.68
385.831	69.63
386.041	79.87
386.251	26.62
386.461	43.01
386.671	71.68
386.881	16.38
387.091	22.53
387.301	90.11
387.511	49.15
387.72	10.24
387.93	36.86
388.14	-28.67
388.35	45.06
388.56	88.06
388.769	75.77
388.979	43.01
389.189	2.05
389.399	61.44
389.609	69.63
389.818	67.58
390.028	34.82
390.238	26.62
390.447	-47.1
390.657	110.59
390.867	20.48
391.076	51.2
391.286	88.06
391.496	83.97
391.705	120.83
391.915	26.62
392.125	92.16
392.334	79.87
392.544	135.17
392.753	34.82
392.963	47.1
393.172	86.01
393.382	-8.19
393.591	165.89
393.801	100.35
394.01	126.97
394.22	38.91
394.429	75.77
394.639	67.58
394.848	20.48
395.058	51.2
395.267	16.38
395.477	32.77
395.686	141.31
395.895	116.73
396.105	165.89
396.314	73.73
396.524	24.58
396.733	94.21
396.942	75.77
397.152	2.05
397.361	75.77
397.57	57.34
397.78	141.31
397.989	135.17
398.198	141.31
398.407	69.63
398.617	137.21
398.826	79.87
399.035	106.49
399.244	100.35
399.453	75.77
399.663	124.93
399.872	100.35
400.081	110.59
400.29	116.73
400.499	55.3
400.708	100.35
400.917	96.25
401.127	149.5
401.336	36.86
401.545	151.55
401.754	57.34
401.963	157.69
402.172	77.82
402.381	6.14
402.59	184.32
402.799	94.21
403.008	157.69
403.217	116.73
403.426	106.49
403.635	157.69
403.844	90.11
404.053	198.65
404.262	83.97
404.471	92.16
404.68	182.27
404.888	155.65
405.097	92.16
405.306	133.12
405.515	137.21
405.724	174.08
405.933	225.28
406.142	100.35
406.35	165.89
406.559	45.06
406.768	161.79
406.977	196.6
407.185	186.37
407.394	174.08
407.603	151.55
407.812	167.93
408.02	231.42
408.229	159.74
408.438	200.7
408.646	258.04
408.855	247.8
409.064	260.09
409.272	169.98
409.481	231.42
409.69	256
409.898	260.09
410.107	274.43
410.315	280.57
410.524	305.15
410.733	292.86
410.941	315.39
411.15	301.05
411.358	249.85
411.567	329.72
411.775	364.54
411.984	358.39
412.192	387.07
412.401	323.58
412.609	454.65
412.818	489.46
413.026	460.79
413.234	544.76
413.443	460.79
413.651	428.03
413.86	440.31
414.068	524.28
414.276	534.52
414.485	563.19
414.693	638.97
414.901	550.9
415.11	563.19
415.318	567.29
415.526	673.78
415.734	745.46
415.943	628.73
416.151	700.41
416.359	710.65
416.567	796.66
416.776	770.04
416.984	821.24
417.192	837.62
417.4	784.37
417.608	886.77
417.817	831.48
418.025	897.01
418.233	1005.55
418.441	946.16
418.649	1017.84
418.857	1107.95
419.065	1173.49
419.273	1050.61
419.481	1181.68
419.689	1298.41
419.897	1357.8
420.105	1320.94
420.313	1345.52
420.521	1406.95
420.729	1505.26
420.937	1468.39
421.145	1478.63
421.353	1581.03
421.561	1665
421.769	1683.43
421.977	1877.99
422.185	1820.64
422.393	1877.99
422.601	2013.15
422.809	1892.32
423.017	2082.78
423.224	2017.25
423.432	2125.79
423.64	2142.18
423.848	2404.32
424.056	2271.2
424.263	2467.8
424.471	2467.8
424.679	2541.53
424.887	2709.46
425.094	2803.67
425.302	2791.38
425.51	2826.2
425.718	2977.75
425.925	2942.93
426.133	3141.58
426.341	3315.66
426.548	3469.26
426.756	3436.49
426.964	3499.98
427.171	3618.76
427.379	3653.58
427.586	3698.63
427.794	3958.72
428.001	4153.28
428.209	4087.75
428.417	4132.8
428.624	4517.82
428.832	4458.43
429.039	4476.86
429.247	4405.18
429.454	4900.79
429.662	5246.9
429.869	4943.8
430.076	5091.25
430.284	5070.77
430.491	5367.73
430.699	5547.95
430.906	5638.06
431.114	5730.22
431.321	5875.62
431.528	5973.92
431.736	6301.6
431.943	6911.89
432.15	6365.09
432.358	6379.42
432.565	7020.44
432.772	6825.88
432.979	7350.16
433.187	7194.51
433.394	7255.95
433.601	7982.98
433.808	7876.49
434.016	7677.83
434.223	8155.01
434.43	8624
434.637	8466.3
434.844	9045.88
435.052	9217.91
435.259	9019.25
435.466	9154.42
435.673	9068.41
435.88	9740.14
436.087	10215.27
436.294	10086.25
436.501	9975.66
436.708	10176.36
436.915	10598.24
437.122	10934.11
437.329	10796.89
437.537	11274.07
437.743	11515.73
437.95	11292.5
438.157	11773.77
438.364	12242.76
438.571	12228.42
438.778	12388.16
438.985	13545.27
439.192	13031.23
439.399	13522.74
439.606	13090.62
439.813	13709.1
440.02	14749.47
440.227	14147.37
440.433	14192.42
440.64	14634.78
440.847	14694.18
441.054	15126.3
441.261	15918.86
441.467	15779.6
441.674	16074.51
441.881	16725.76
442.088	16643.84
442.294	16527.11
442.501	17053.44
442.708	17168.12
442.914	17628.91
443.121	18513.64
443.328	18089.71
443.534	19371.74
443.741	18818.78
443.948	18261.74
444.154	19648.21
444.361	19551.96
444.568	20092.62
444.774	19969.74
444.981	19928.78
445.187	20668.1
445.394	21483.19
445.6	21184.19
445.807	23264.92
446.013	22023.86
446.22	22683.3
446.426	23416.47
446.633	23750.29
446.839	24786.57
447.046	23205.53
447.252	24888.96
447.459	24841.86
447.665	24821.38
447.871	25779.83
448.078	26953.32
448.284	25615.99
448.491	26510.96
448.697	27166.31
448.903	28165.71
449.11	28180.05
449.316	27741.78
449.522	27950.68
449.728	28929.61
449.935	28913.22
450.141	28948.04
450.347	29554.24
450.553	28722.76
450.76	29109.83
450.966	30494.25
451.172	29750.84
451.378	30467.63
451.584	30504.49
451.791	30813.74
451.997	30590.51
452.203	31262.24
452.409	31229.48
452.615	31143.46
452.821	29998.65
453.027	29582.91
453.233	31249.96
453.44	30121.52
453.646	30328.37
453.852	30563.89
454.058	31483.42
454.264	30101.04
454.47	30727.72
454.676	29969.97
454.882	30950.95
455.088	28321.36
455.294	28939.85
455.5	29525.57
455.705	29511.23
455.911	28503.63
456.117	28020.31
456.323	27412.06
456.529	26433.13
456.735	27313.76
456.941	26752.62
457.147	26289.77
457.352	25632.38
457.558	25345.66
457.764	25357.95
457.97	25017.99
458.176	24460.94
458.381	24471.18
458.587	23336.6
458.793	23201.44
458.999	21948.08
459.204	23529.11
459.41	22994.59
459.616	21589.69
459.821	21386.94
460.027	21395.13
460.233	21145.28
460.438	19824.34
460.644	20106.96
460.85	19111.64
461.055	18953.95
461.261	19011.29
461.466	17467.13
461.672	17008.38
461.878	18011.89
462.083	17047.29
462.289	16969.47
462.494	16596.74
462.7	15783.7
462.905	15189.78
463.111	15855.37
463.316	15765.26
463.522	15509.27
463.727	15740.69
463.932	15447.83
464.138	15476.5
464.343	15558.42
464.549	15128.35
464.754	15341.33
464.959	15206.17
465.165	15238.94
465.37	14851.87
465.575	14130.98
465.781	14753.57
465.986	14958.36
466.191	14087.98
466.397	14020.39
466.602	13487.92
466.807	14008.11
467.012	13870.89
467.218	13686.58
467.423	13520.69
467.628	13537.07
467.833	14241.57
468.038	13879.08
468.244	13334.32
468.449	13737.77
468.654	13252.41
468.859	13348.66
469.064	13072.18
469.269	12851
469.474	12713.79
469.679	13078.33
469.885	12691.26
470.09	12945.21
470.295	12658.49
470.5	12365.64
470.705	12576.58
470.91	12392.26
471.115	11978.57
471.32	12371.78
471.525	12300.1
471.73	11802.44
471.935	11988.81
472.139	11630.41
472.344	11986.76
472.549	11738.96
472.754	11609.93
472.959	11183.96
473.164	10968.92
473.369	10913.63
473.574	11317.08
473.778	11102.04
473.983	10958.68
474.188	11161.43
474.393	10377.06
474.598	10508.13
474.802	10626.91
475.007	10305.38
475.212	10309.47
475.417	9989.99
475.621	10147.69
475.826	10014.57
476.031	9949.03
476.235	9705.32
476.44	9951.08
476.645	9840.49
476.849	9443.18
477.054	9502.57
477.259	9418.61
477.463	9387.89
477.668	9107.32
477.872	9213.81
478.077	9111.41
478.282	8822.65
478.486	8986.49
478.691	8828.79
478.895	8679.29
479.1	8705.92
479.304	8783.74
479.509	8542.08
479.713	8720.25
479.918	8552.32
480.122	8243.07
480.326	8445.82
480.531	8402.82
480.735	8271.75
480.94	8173.44
481.144	8548.22
481.348	8183.68
481.553	8120.2
481.757	7997.32
481.961	8099.72
482.166	8130.44
482.37	8144.77
482.574	7976.84
482.778	8193.92
482.983	8130.44
483.187	8023.94
483.391	8114.05
483.595	7909.26
483.8	7989.13
484.004	8062.85
484.208	8064.9
484.412	7952.26
484.616	8120.2
484.821	8038.28
485.025	7899.02
485.229	8150.92
485.433	7903.11
485.637	7970.69
485.841	7911.3
486.045	8040.33
486.249	8040.33
486.453	7954.31
486.657	7960.45
486.861	8058.76
487.065	7868.3
487.269	7874.44
487.473	7925.64
487.677	7907.21
487.881	8152.96
488.085	7894.92
488.289	7997.32
488.493	7825.29
488.697	7919.5
488.901	7931.78
489.105	8144.77
489.309	8042.37
489.512	8019.85
489.716	8161.16
489.92	8290.18
490.124	8150.92
490.328	8167.3
490.531	8210.31
490.735	8267.65
490.939	8189.83
491.143	8073.09
491.346	8253.31
491.55	8265.6
491.754	8124.29
491.958	8392.58
492.161	8378.24
492.365	8378.24
492.569	8429.44
492.772	8249.22
492.976	8644.48
493.18	8558.46
493.383	8624
493.587	8525.69
493.79	8521.6
493.994	8605.56
494.197	8865.66
494.401	8759.16
494.605	8806.27
494.808	8972.15
495.012	8994.68
495.215	8877.94
495.419	9209.72
495.622	8949.62
495.825	9201.52
496.029	9070.45
496.232	9578.35
496.436	9246.58
496.639	9508.72
496.843	9578.35
497.046	9664.36
497.249	9914.22
497.453	9621.36
497.656	9783.15
497.859	10041.19
498.063	10407.78
498.266	10411.87
498.469	10104.68
498.673	10389.35
498.876	10643.29
499.079	10415.97
499.282	10495.84
499.485	10776.41
499.689	10719.07
499.892	11079.51
500.095	11048.79
500.298	11530.06
500.501	11147.09
500.705	11493.2
500.908	11747.15
501.111	11575.12
501.314	11953.99
501.517	11966.28
501.72	12187.46
501.923	11990.86
502.126	12222.28
502.329	12414.79
502.532	12572.48
502.735	12648.25
502.938	13059.9
503.141	12918.59
503.344	13190.97
503.547	13328.18
503.75	13354.8
503.953	13696.81
504.156	13567.79
504.359	13598.51
504.562	13799.21
504.765	14008.11
504.968	14214.95
505.17	14372.64
505.373	14460.71
505.576	14847.77
505.779	14810.91
505.982	14911.26
506.185	15382.29
506.387	15247.13
506.59	15494.93
506.793	15750.93
506.996	15503.12
507.198	16006.92
507.401	15841.04
507.604	15959.82
507.807	16535.3
508.009	16590.59
508.212	16795.39
508.415	16944.89
508.617	16963.33
508.82	17061.63
509.022	17313.53
509.225	17669.87
509.428	17637.11
509.63	18151.15
509.833	18061.04
510.035	18282.22
510.238	18337.51
510.44	18425.57
510.643	18818.78
510.845	18855.65
511.048	18994.91
511.25	19205.85
511.453	19244.76
511.655	19977.94
511.858	19879.63
512.06	19984.08
512.262	20453.06
512.465	20104.91
512.667	20547.27
512.87	20692.68
513.072	20729.54
513.274	21085.89
513.477	21098.17
513.679	21388.99
513.881	21878.45
514.084	22236.84
514.286	21743.28
514.488	22054.58
514.69	22748.84
514.893	22654.63
515.095	22785.7
515.297	23000.74
515.499	23416.47
515.701	23494.3
515.904	23914.13
516.106	23606.94
516.308	24053.39
516.51	24401.55
516.712	24284.81
516.914	24733.32
517.116	24841.86
517.318	24940.16
517.52	25200.26
517.722	25214.59
517.925	25615.99
518.127	26056.31
518.329	26074.74
518.531	25960.05
518.733	26689.13
518.935	26848.87
519.136	26734.18
519.338	27274.85
519.54	26652.27
519.742	27698.78
519.944	27774.55
520.146	28321.36
520.348	28302.93
520.55	28393.04
520.752	28268.11
520.954	28989
521.155	28722.76
521.357	29052.48
521.559	29693.5
521.761	29826.62
521.963	29771.32
522.164	30185.01
522.366	30174.77
522.568	30686.76
522.77	30537.26
522.971	31213.09
523.173	30604.84
523.375	31149.6
523.576	31174.18
523.778	31634.97
523.98	31272.48
524.181	31305.25
524.383	31876.63
524.584	32214.55
524.786	32359.95
524.988	32218.64
525.189	32503.31
525.391	32730.64
525.592	33027.59
525.794	33187.33
525.995	33205.77
526.197	33054.22
526.398	33322.5
526.6	33687.04
526.801	33506.82
527.003	33551.87
527.204	33543.68
527.406	34000.38
527.607	33977.85
527.808	34270.71
528.01	33760.76
528.211	34080.25
528.412	34725.36
528.614	34805.23
528.815	34829.8
529.016	34932.2
529.218	34860.52
529.419	35038.7
529.62	34780.65
529.822	34801.13
530.023	35057.13
530.224	35157.48
530.425	35014.12
530.626	35266.02
530.828	35061.22
531.029	35800.54
531.23	35063.27
531.431	35290.6
531.632	35552.74
531.833	35431.91
532.035	35653.09
532.236	35589.6
532.437	35720.67
532.638	35470.82
532.839	36117.98
533.04	35956.19
533.241	35243.49
533.442	36322.77
533.643	35925.47
533.844	36060.63
534.045	36326.87
534.246	35831.26
534.447	35948
534.648	35626.46
534.849	36005.34
535.05	35831.26
535.251	35671.52
535.451	36003.29
535.652	36259.29
535.853	35968.48
536.054	35954.14
536.255	35907.04
536.456	35788.25
536.657	36650.45
536.857	36056.54
537.058	35747.29
537.259	36193.75
537.46	35800.54
537.66	36373.97
537.861	35835.36
538.062	35923.42
538.263	36232.66
538.463	35548.64
538.664	35759.58
538.865	36185.56
539.065	36187.61
539.266	35796.45
539.466	36394.45
539.667	35769.82
539.868	36730.32
540.068	36048.35
540.269	36148.7
540.469	36091.35
540.67	35804.64
540.87	35960.28
541.071	35792.35
541.271	36142.55
541.472	35970.52
541.672	35663.33
541.873	35821.02
542.073	35569.12
542.274	36023.77
542.474	36095.45
542.675	35915.23
542.875	36011.48
543.075	35495.39
543.276	35419.62
543.476	36117.98
543.676	35788.25
543.877	36011.48
544.077	36023.77
544.277	35614.18
544.478	35794.4
544.678	35804.64
544.878	35605.98
545.078	35737.05
545.279	35636.7
545.479	35767.77
545.679	35767.77
545.879	35624.42
546.079	35583.46
546.28	35907.04
546.48	35386.85
546.68	35612.13
546.88	35675.62
547.08	35583.46
547.28	35567.07
547.48	35270.12
547.68	35497.44
547.88	35560.93
548.081	35823.07
548.281	35495.39
548.481	35882.46
548.681	35716.57
548.881	35413.48
549.081	35581.41
549.28	35327.46
549.48	35429.86
549.68	35235.3
549.88	35814.88
550.08	35165.67
550.28	35493.35
550.48	35194.34
550.68	35659.23
550.88	35155.43
551.08	35581.41
551.279	35458.53
551.479	34930.15
551.679	35196.39
551.879	35591.65
552.079	35325.41
552.278	35141.1
552.478	35227.11
552.678	35341.8
552.878	35534.31
553.077	35096.04
553.277	35034.6
553.477	35517.92
553.676	35372.52
553.876	34911.72
554.076	35065.32
554.275	35198.44
554.475	34844.14
554.674	35153.38
554.874	35257.83
555.074	34772.46
555.273	34954.73
555.473	35055.08
555.672	34993.64
555.872	34696.69
556.071	35208.68
556.271	34928.11
556.47	34577.9
556.67	34661.87
556.869	34557.42
557.068	34717.17
557.268	34252.28
557.467	34727.41
557.667	34438.64
557.866	34358.77
558.065	34172.41
558.265	34340.34
558.464	34108.92
558.663	34625.01
558.863	33961.47
559.062	34674.16
559.261	34080.25
559.461	34385.4
559.66	34143.74
559.859	34188.79
560.058	33668.61
560.258	34004.47
560.457	33412.61
560.656	34067.96
560.855	34002.43
561.054	33779.2
561.253	33369.6
561.453	33627.65
561.652	33762.81
561.851	33951.23
562.05	33605.12
562.249	33177.09
562.448	33447.43
562.647	33383.94
562.846	33469.95
563.045	33381.89
563.244	33107.46
563.443	33717.76
563.642	32806.41
563.841	33117.7
564.04	33039.88
564.239	33226.24
564.438	32839.18
564.637	32892.43
564.836	32951.82
565.035	32484.88
565.234	32923.15
565.432	32564.75
565.631	32577.04
565.83	32415.25
566.029	32095.77
566.228	32298.52
566.427	32329.23
566.625	31976.98
566.824	31475.23
567.023	32318.99
567.222	31538.72
567.42	32155.16
567.619	31858.2
567.818	31948.31
568.016	31483.42
568.215	32165.4
568.414	31772.19
568.612	31936.02
568.811	31252
569.01	31385.12
569.208	31383.07
569.407	31460.9
569.605	31227.43
569.804	31383.07
570.002	30746.15
570.201	31198.76
570.4	30799.4
570.598	30492.21
570.797	30567.98
570.995	30565.93
571.193	30240.31
571.392	30529.07
571.59	30391.86
571.789	30217.78
571.987	30324.27
572.186	30645.8
572.384	30000.69
572.582	30055.99
572.781	30109.24
572.979	29886.01
573.177	29742.65
573.376	30051.89
573.574	29544
573.772	29859.38
573.971	29668.92
574.169	29580.86
574.367	29427.26
574.565	29564.48
574.763	29242.95
574.962	29206.08
575.16	29009.48
575.358	29046.34
575.556	29132.36
575.754	29357.63
575.952	28773.96
576.151	28823.11
576.349	28839.5
576.547	28507.72
576.745	28573.26
576.943	28599.88
577.141	28446.29
577.339	28597.84
577.537	28507.72
577.735	28423.76
577.933	28051.03
578.131	28044.88
578.329	27864.66
578.527	28042.84
578.725	27973.21
578.923	28032.6
579.121	28026.45
579.319	27817.56
579.516	27747.93
579.714	27686.49
579.912	27719.26
580.11	27612.76
580.308	27502.17
580.506	27407.97
580.704	27307.62
580.901	27055.72
581.099	27321.95
581.297	27121.25
581.495	27049.57
581.692	27082.34
581.89	26510.96
582.088	27522.65
582.285	26855.01
582.483	27168.35
582.681	26586.73
582.878	26674.79
583.076	26551.91
583.274	26625.64
583.471	26031.73
583.669	26306.16
583.866	25861.75
584.064	26261.1
584.262	25736.82
584.459	25728.63
584.657	25900.66
584.854	26205.81
585.052	25192.06
585.249	25896.56
585.447	26164.85
585.644	25284.22
585.841	25618.04
586.039	25775.73
586.236	25042.56
586.434	25273.98
586.631	25290.37
586.828	25431.68
587.026	25198.21
587.223	25138.82
587.42	24743.56
587.618	25028.23
587.815	25042.56
588.012	24673.93
588.21	24757.89
588.407	25001.6
588.604	24495.75
588.801	24479.37
588.999	24499.85
589.196	24278.67
589.393	24116.88
589.59	24243.85
589.787	24389.26
589.984	24002.19
590.182	23953.04
590.379	24061.58
590.576	24020.63
590.773	23926.42
590.97	23803.54
591.167	23733.91
591.364	23551.64
591.561	23490.2
591.758	23471.77
591.955	23527.06
592.152	23598.74
592.349	23049.89
592.546	23402.14
592.743	23205.53
592.94	22552.23
593.137	22896.29
593.334	22929.06
593.531	22695.59
593.727	23156.38
593.924	22748.84
594.121	22615.72
594.318	22703.78
594.515	22632.1
594.712	22648.49
594.908	22400.68
595.105	22302.38
595.302	22222.51
595.499	22286
595.696	22054.58
595.892	22163.12
596.089	22042.29
596.286	22113.97
596.482	21860.02
596.679	21931.7
596.876	21804.72
597.072	21544.63
597.269	21728.95
597.466	21792.44
597.662	21524.15
597.859	21475
598.055	21479.1
598.252	21403.32
598.448	21563.06
598.645	21067.45
598.841	20801.22
599.038	21384.89
599.234	21112.51
599.431	20833.99
599.627	20823.75
599.824	20866.75
600.02	20641.48
600.217	20721.35
600.413	20762.31
600.609	20604.61
600.806	20498.12
601.002	20725.44
601.198	20403.91
601.395	20637.38
601.591	20104.91
601.787	20498.12
601.984	20291.27
602.18	20170.44
602.376	20014.8
602.572	20440.78
602.769	19820.24
602.965	19838.67
603.161	20059.85
603.357	19627.73
603.553	19709.65
603.75	19486.42
603.946	19527.38
604.142	19320.54
604.338	19250.91
604.534	19570.39
604.73	19078.88
604.926	19087.07
605.122	19384.02
605.318	19138.27
605.514	19099.36
605.71	19105.5
605.906	18906.85
606.102	18933.47
606.298	19224.28
606.494	19091.16
606.69	18947.81
606.886	18714.34
607.082	18515.69
607.278	18867.94
607.474	18550.5
607.67	18843.36
607.866	18577.12
608.062	18595.56
608.257	18355.94
608.453	18249.45
608.649	18429.67
608.845	18177.77
609.041	18507.49
609.236	18345.7
609.432	18403.05
609.628	18192.11
609.824	18018.03
610.019	18015.98
610.215	18020.08
610.411	17817.33
610.606	18298.6
610.802	18171.63
610.998	18118.38
611.193	17540.85
611.389	17661.68
611.584	17770.22
611.78	17794.8
611.976	17583.86
612.171	17602.29
612.367	17661.68
612.562	17479.41
612.758	17133.31
612.953	17604.34
613.149	17581.81
613.344	17469.17
613.539	17530.61
613.735	17329.91
613.93	17518.32
614.126	17274.62
614.321	17377.01
614.517	17112.83
614.712	17161.98
614.907	17164.03
615.103	17245.94
615.298	17200.89
615.493	17413.88
615.688	17108.73
615.884	17235.7
616.079	16948.99
616.274	16959.23
616.47	16828.16
616.665	17086.2
616.86	16920.32
617.055	16799.49
617.25	16695.04
617.445	16637.7
617.641	16551.68
617.836	16865.02
618.031	16686.85
618.226	16731.9
618.421	16416.52
618.616	16660.23
618.811	16338.69
619.006	16426.76
619.201	16133.9
619.396	16295.69
619.591	15933.2
619.786	16312.07
619.981	15968.01
620.176	15834.89
620.371	16099.08
620.566	15675.15
620.761	15634.19
620.956	15963.92
621.151	15722.26
621.346	15445.78
621.541	15339.29
621.735	15390.49
621.93	15140.63
622.125	15240.98
622.32	15050.52
622.515	15271.7
622.709	14991.13
622.904	14927.64
623.099	14509.86
623.294	14700.32
623.488	14757.66
623.683	14698.27
623.878	14628.64
624.072	14477.09
624.267	14173.99
624.462	14368.55
624.656	14294.82
624.851	14217
625.046	14085.93
625.24	13997.87
625.435	13932.33
625.629	13985.58
625.824	13725.49
626.018	13530.93
626.213	13588.27
626.407	13559.6
626.602	13524.79
626.796	13586.22
626.991	13600.56
627.185	13465.39
627.38	13084.47
627.574	13223.73
627.768	13274.93
627.963	13127.48
628.157	12943.16
628.352	12957.5
628.546	12695.36
628.74	12969.79
628.935	12846.91
629.129	12937.02
629.323	12666.69
629.517	12472.13
629.712	12552
629.906	12367.68
630.1	12283.72
630.294	12222.28
630.489	12128.07
630.683	12179.27
630.877	12080.97
631.071	11904.84
631.265	12152.65
631.459	11970.38
631.653	11859.79
631.848	11921.23
632.042	11704.14
632.236	11767.63
632.43	11501.39
632.624	11464.53
632.818	11446.1
633.012	11497.3
633.206	11429.71
633.4	11462.48
633.594	11220.82
633.788	11278.16
633.982	11323.22
634.176	11020.12
634.369	11048.79
634.563	10901.34
634.757	10909.53
634.951	10979.16
635.145	11118.42
635.339	10858.33
635.533	10645.34
635.726	10805.08
635.92	10671.97
636.114	10669.92
636.308	10622.81
636.501	10317.67
636.695	10454.88
636.889	10176.36
637.083	10100.58
637.276	10162.02
637.47	10119.01
637.664	10143.59
637.857	9908.07
638.051	10037.09
638.244	9881.45
638.438	9715.56
638.632	9860.97
638.825	9903.98
639.019	9662.32
639.212	9680.75
639.406	9506.67
639.599	9639.79
639.793	9566.06
639.986	9441.14
640.18	9553.77
640.373	9439.09
640.567	9348.98
640.76	9203.57
640.954	9312.11
641.147	9181.04
641.34	9009.01
641.534	9086.84
641.727	9070.45
641.92	9045.88
642.114	8832.89
642.307	8824.7
642.5	8824.7
642.694	8693.63
642.887	8677.24
643.08	8775.55
643.273	8750.97
643.467	8640.38
643.66	8511.36
643.853	8503.17
644.046	8490.88
644.239	8357.76
644.432	8451.97
644.626	8171.4
644.819	8347.52
645.012	8220.55
645.205	8173.44
645.398	8136.58
645.591	8071.04
645.784	8271.75
645.977	7907.21
646.17	7915.4
646.363	7845.77
646.556	7718.79
646.749	7837.58
646.942	7946.12
647.135	7858.06
647.328	7788.43
647.521	7706.51
647.714	7415.69
647.907	7677.83
648.099	7458.7
648.292	7505.81
648.485	7505.81
648.678	7214.99
648.871	7530.38
649.064	7395.22
649.256	7415.69
649.449	7151.51
649.642	7243.67
649.835	7286.67
650.027	7194.51
650.22	7210.9
650.413	7120.79
650.605	7030.68
650.798	7102.36
650.991	6967.19
651.183	7092.12
651.376	6911.89
651.568	6875.03
651.761	6954.9
651.954	6879.13
652.146	6770.58
652.339	6694.81
652.531	6760.34
652.724	6735.77
652.916	6438.81
653.109	6696.86
653.301	6526.88
653.494	6516.64
653.686	6496.16
653.879	6567.84
654.071	6520.73
654.263	6244.26
654.456	6406.05
654.648	6399.9
654.84	6309.79
655.033	6188.96
655.225	6203.3
655.417	6205.35
655.61	6031.27
655.802	6252.45
655.994	6137.76
656.186	6086.56
656.379	6117.28
656.571	6006.69
656.763	5998.5
656.955	5998.5
657.148	6000.55
657.34	5961.64
657.532	5752.74
657.724	5894.05
657.916	5717.93
658.108	5674.92
658.3	5658.54
658.492	5748.65
658.684	5638.06
658.876	5656.49
659.068	5576.62
659.26	5595.05
659.452	5531.56
659.644	5685.16
659.836	5455.79
660.028	5658.54
660.22	5255.09
660.412	5457.84
660.604	5355.44
660.796	5298.1
660.988	5371.82
661.18	5357.49
661.372	5294
661.563	5238.7
661.755	5320.62
661.947	5150.64
662.139	5294
662.331	5042.1
662.522	5007.28
662.714	5015.48
662.906	5007.28
663.097	5068.72
663.289	5015.48
663.481	4896.69
663.673	4878.26
663.864	4949.94
664.056	4919.22
664.247	4810.68
664.439	4884.41
664.631	4845.49
664.822	4810.68
665.014	4925.36
665.205	4646.84
665.397	4714.42
665.588	4691.9
665.78	4661.18
665.971	4671.42
666.163	4601.79
666.354	4675.51
666.546	4581.31
666.737	4534.2
666.929	4573.11
667.12	4509.63
667.311	4442.04
667.503	4286.4
667.694	4435.9
667.885	4298.69
668.077	4345.79
668.268	4392.89
668.459	4376.51
668.651	4437.95
668.842	4360.13
669.033	4493.24
669.224	4155.33
669.416	4274.11
669.607	4220.86
669.798	4179.9
669.989	3979.2
670.18	4249.54
670.371	4044.74
670.563	3950.53
670.754	4108.23
670.945	3893.19
671.136	3964.87
671.327	4001.73
671.518	3956.68
671.709	3983.3
671.9	3835.85
672.091	4014.02
672.282	3839.94
672.473	3854.28
672.664	3753.93
672.855	3778.5
673.046	3876.8
673.237	3864.52
673.428	3803.08
673.619	3837.89
673.809	3901.38
674	3809.22
674.191	3698.63
674.382	3710.92
674.573	3665.86
674.764	3708.87
674.954	3680.2
675.145	3649.48
675.336	3721.16
675.527	3549.13
675.717	3657.67
675.908	3547.08
676.099	3655.62
676.289	3473.35
676.48	3573.71
676.671	3557.32
676.861	3467.21
677.052	3516.36
677.243	3438.54
677.433	3514.31
677.624	3665.86
677.814	3467.21
678.005	3360.72
678.195	3688.39
678.386	3346.38
678.576	3405.77
678.767	3432.4
678.957	3311.57
679.148	3352.52
679.338	3338.19
679.529	3350.48
679.719	3254.22
679.909	3280.85
680.1	3334.09
680.29	3262.41
680.481	3336.14
680.671	3303.37
680.861	3213.26
681.052	3180.5
681.242	3149.78
681.432	3250.13
681.622	3180.5
681.813	3147.73
682.003	3256.27
682.193	3246.03
682.383	3200.98
682.573	3170.26
682.764	3125.2
682.954	3057.62
683.144	3123.15
683.334	3100.62
683.524	3078.1
683.714	2914.26
683.904	3018.71
684.094	3123.15
684.284	3098.58
684.474	3110.86
684.664	3053.52
684.854	2983.89
685.044	2899.92
685.234	3016.66
685.424	2944.98
685.614	2895.83
685.804	3141.58
685.994	2928.6
686.184	2877.4
686.374	2918.36
686.564	2910.16
686.753	2883.54
686.943	2781.14
687.133	2901.97
687.323	2938.84
687.513	2807.77
687.702	2801.62
687.892	2779.09
688.082	2764.76
688.272	2703.32
688.461	2781.14
688.651	2893.78
688.841	2711.51
689.03	2738.13
689.22	2721.75
689.41	2719.7
689.599	2660.31
689.789	2760.66
689.979	2650.07
690.168	2680.79
690.358	2574.3
690.547	2594.78
690.737	2643.93
690.926	2650.07
691.116	2533.34
691.305	2543.58
691.495	2533.34
691.684	2519
691.874	2676.7
692.063	2574.3
692.252	2494.43
692.442	2443.23
692.631	2443.23
692.82	2564.06
693.01	2543.58
693.199	2478.04
693.388	2410.46
693.578	2453.47
693.767	2453.47
693.956	2291.68
694.146	2445.27
694.335	2418.65
694.524	2260.96
694.713	2445.27
694.902	2324.44
695.092	2385.88
695.281	2484.19
695.47	2394.08
695.659	2494.43
695.848	2338.78
696.037	2349.02
696.226	2359.26
696.415	2344.92
696.604	2412.51
696.793	2371.55
696.982	2275.29
697.171	2279.39
697.36	2361.31
697.549	2285.53
697.738	2203.61
697.927	2242.53
698.116	2340.83
698.305	2248.67
698.494	2250.72
698.683	2168.8
698.872	2402.27
699.061	2338.78
699.25	2306.01
699.438	2344.92
699.627	2322.4
699.816	2404.32
700.005	2295.77
700.193	2279.39
700.382	2297.82
700.571	2275.29
700.76	2133.98
700.948	2250.72
701.137	2254.81
701.326	2340.83
701.514	2246.62
701.703	2217.95
701.892	2320.35
702.08	2349.02
702.269	2299.87
702.457	2207.71
702.646	2209.76
702.834	2066.4
703.023	2236.38
703.212	2058.21
703.4	2213.85
703.589	2156.51
703.777	2211.81
703.965	2131.94
704.154	2181.09
704.342	2185.18
704.531	2279.39
704.719	2181.09
704.907	2111.46
705.096	2283.49
705.284	2246.62
705.472	2164.7
705.661	2176.99
705.849	2205.66
706.037	2099.17
706.226	2166.75
706.414	2133.98
706.602	2082.78
706.79	2263.01
706.979	2248.67
707.167	2150.37
707.355	2068.45
707.543	2131.94
707.731	2238.43
707.919	2131.94
708.107	2181.09
708.296	2025.44
708.484	2025.44
708.672	2152.42
708.86	2203.61
709.048	2103.26
709.236	2152.42
709.424	2113.5
709.612	2090.98
709.8	2148.32
709.988	2058.21
710.176	2133.98
710.364	2127.84
710.551	2113.5
710.739	2095.07
710.927	2148.32
711.115	2127.84
711.303	2084.83
711.491	2154.46
711.679	2052.06
711.866	2066.4
712.054	2230.24
712.242	2133.98
712.43	2160.61
712.617	2156.51
712.805	2230.24
712.993	2072.54
713.181	2111.46
713.368	2115.55
713.556	2152.42
713.744	2058.21
713.931	2211.81
714.119	2090.98
714.306	2174.94
714.494	1959.91
714.682	1980.39
714.869	2013.15
715.057	2211.81
715.244	2107.36
715.432	2123.74
715.619	2076.64
715.807	2007.01
715.994	2127.84
716.182	2031.58
716.369	2088.93
716.556	2140.13
716.744	2099.17
716.931	2037.73
717.119	2101.22
717.306	2152.42
717.493	2136.03
717.681	2052.06
717.868	2095.07
718.055	2146.27
718.242	2058.21
718.43	2164.7
718.617	1970.15
718.804	2103.26
718.991	2062.3
719.179	2131.94
719.366	2037.73
719.553	2050.02
719.74	2050.02
719.927	2090.98
720.114	2093.02
720.301	2140.13
720.488	2025.44
720.676	2084.83
720.863	2017.25
721.05	2136.03
721.237	1966.05
721.424	2095.07
721.611	2062.3
721.798	2009.06
721.985	2160.61
722.172	2009.06
722.358	2074.59
722.545	2045.92
722.732	2074.59
722.919	1957.86
723.106	2095.07
723.293	1996.77
723.48	2041.82
723.667	2045.92
723.853	1968.1
724.04	2058.21
724.227	2050.02
724.414	1988.58
724.6	2093.02
724.787	2052.06
724.974	2123.74
725.161	2043.87
725.347	1961.95
725.534	2099.17
725.72	2019.3
725.907	2041.82
726.094	2037.73
726.28	1925.09
726.467	2043.87
726.653	1918.95
726.84	2013.15
727.027	2086.88
727.213	1912.8
727.4	2021.35
727.586	1912.8
727.773	2041.82
727.959	1886.18
728.145	1914.85
728.332	2029.54
728.518	1970.15
728.705	1968.1
728.891	1859.56
729.077	1951.71
729.264	2033.63
729.45	1980.39
729.636	1902.56
729.823	1959.91
730.009	2031.58
730.195	1990.63
730.382	1961.95
730.568	1851.36
730.754	1927.14
730.94	1861.6
731.126	2009.06
731.313	2009.06
731.499	1984.48
731.685	1877.99
731.871	1869.8
732.057	1943.52
732.243	2033.63
732.429	1886.18
732.615	1978.34
732.801	2017.25
732.987	1822.69
733.173	1984.48
733.359	1906.66
733.545	1902.56
733.731	1953.76
733.917	2000.87
734.103	1906.66
734.289	2011.11
734.475	1880.04
734.661	2009.06
734.847	1894.37
735.033	1943.52
735.219	1890.28
735.404	1871.84
735.59	1847.27
735.776	1929.19
735.962	1914.85
736.148	1880.04
736.333	1869.8
736.519	1877.99
736.705	1968.1
736.89	1943.52
737.076	1933.28
737.262	1796.07
737.447	1781.73
737.633	1830.88
737.819	1839.08
738.004	1810.4
738.19	1800.16
738.375	1748.97
738.561	1912.8
738.747	1722.34
738.932	1808.36
739.118	1806.31
739.303	1902.56
739.489	1871.84
739.674	2000.87
739.859	1765.35
740.045	1779.68
740.23	1779.68
740.416	1720.29
740.601	1806.31
740.786	1703.91
740.972	1746.92
741.157	1781.73
741.342	1714.15
741.528	1783.78
741.713	1810.4
741.898	1675.24
742.084	1804.26
742.269	1863.65
742.454	1751.01
742.639	1744.87
742.824	1675.24
743.01	1736.68
743.195	1759.21
743.38	1669.09
743.565	1665
743.75	1714.15
743.935	1587.18
744.12	1751.01
744.305	1673.19
744.49	1673.19
744.675	1656.81
744.86	1658.85
745.045	1710.05
745.23	1607.66
745.415	1624.04
745.6	1593.32
745.785	1595.37
745.97	1714.15
746.155	1583.08
746.34	1538.02
746.525	1607.66
746.71	1617.9
746.895	1509.35
747.079	1542.12
747.264	1490.92
747.449	1558.5
747.634	1542.12
747.819	1550.31
748.003	1495.02
748.188	1476.59
748.373	1468.39
748.557	1421.29
748.742	1415.15
748.927	1511.4
749.111	1394.67
749.296	1425.39
749.481	1480.68
749.665	1390.57
749.85	1353.71
750.034	1613.8
750.219	1464.3
750.404	1439.72
750.588	1427.43
750.773	1402.86
750.957	1361.9
751.141	1345.52
751.326	1304.56
751.51	1355.76
751.695	1433.58
751.879	1345.52
752.064	1421.29
752.248	1263.6
752.432	1320.94
752.617	1359.85
752.801	1308.65
752.985	1228.78
753.17	1239.02
753.354	1263.6
753.538	1316.84
753.722	1312.75
753.907	1214.45
754.091	1239.02
754.275	1208.3
754.459	1239.02
754.643	1157.1
754.828	1165.29
755.012	1214.45
755.196	1214.45
755.38	1101.81
755.564	1142.77
755.748	1083.38
755.932	1239.02
756.116	1124.33
756.3	1185.77
756.484	1091.57
756.668	1030.13
756.852	1140.72
757.036	1148.91
757.22	1120.24
757.404	1060.85
757.588	1116.14
757.772	1001.46
757.956	1087.47
758.14	1093.62
758.323	1007.6
758.507	1167.34
758.691	1066.99
758.875	1009.65
759.059	1066.99
759.242	1060.85
759.426	1120.24
759.61	1058.8
759.794	980.98
759.977	1062.9
760.161	1019.89
760.345	1042.42
760.528	1066.99
760.712	1075.18
760.895	980.98
761.079	974.83
761.263	911.35
761.446	952.31
761.63	946.16
761.813	1028.08
761.997	886.77
762.18	1021.94
762.364	911.35
762.547	925.68
762.731	978.93
762.914	1009.65
763.098	880.63
763.281	866.29
763.464	915.44
763.648	829.43
763.831	927.73
764.015	909.3
764.198	888.82
764.381	862.19
764.564	854
764.748	819.19
764.931	903.15
765.114	829.43
765.297	860.15
765.481	862.19
765.664	866.29
765.847	802.8
766.03	786.42
766.213	864.24
766.397	878.58
766.58	817.14
766.763	837.62
766.946	722.93
767.129	788.47
767.312	858.1
767.495	854
767.678	792.56
767.861	821.24
768.044	749.56
768.227	804.85
768.41	735.22
768.593	872.43
768.776	813.04
768.959	774.13
769.142	784.37
769.324	811
769.507	745.46
769.69	849.91
769.873	796.66
770.056	763.89
770.239	718.84
770.421	792.56
770.604	714.74
770.787	782.32
770.97	753.65
771.152	733.17
771.335	749.56
771.518	690.17
771.7	706.55
771.883	776.18
772.066	743.41
772.248	729.08
772.431	770.04
772.613	653.3
772.796	645.11
772.978	778.23
773.161	729.08
773.343	737.27
773.526	722.93
773.708	776.18
773.891	628.73
774.073	626.68
774.256	716.79
774.438	759.8
774.621	602.1
774.803	698.36
774.985	649.21
775.168	714.74
775.35	567.29
775.532	659.45
775.715	716.79
775.897	667.64
776.079	641.01
776.261	583.67
776.444	632.82
776.626	583.67
776.808	628.73
776.99	608.25
777.173	628.73
777.355	501.75
777.537	561.14
777.719	681.97
777.901	620.53
778.083	518.14
778.265	501.75
778.447	626.68
778.629	626.68
778.811	602.1
778.993	524.28
779.175	673.78
779.357	593.91
779.539	458.74
779.721	567.29
779.903	600.05
780.085	499.7
780.267	585.72
780.449	571.38
780.631	550.9
780.812	495.61
780.994	446.46
781.176	546.81
781.358	473.08
781.54	501.75
781.721	524.28
781.903	497.66
782.085	405.5
782.267	509.94
782.448	514.04
782.63	483.32
782.812	419.83
782.993	501.75
783.175	419.83
783.357	479.22
783.538	454.65
783.72	438.27
783.901	415.74
784.083	421.88
784.264	481.27
784.446	397.31
784.627	387.07
784.809	399.35
784.99	403.45
785.172	425.98
785.353	415.74
785.535	374.78
785.716	436.22
785.897	409.59
786.079	350.2
786.26	407.55
786.441	428.03
786.623	346.11
786.804	479.22
786.985	342.01
787.167	438.27
787.348	444.41
787.529	391.16
787.71	407.55
787.891	403.45
788.073	292.86
788.254	307.2
788.435	376.83
788.616	350.2
788.797	292.86
788.978	321.53
789.159	372.73
789.34	362.49
789.522	296.96
789.703	333.82
789.884	407.55
790.065	387.07
790.246	356.35
790.427	362.49
790.607	307.2
790.788	372.73
790.969	280.57
791.15	405.5
791.331	307.2
791.512	354.3
791.693	231.42
791.874	292.86
792.054	274.43
792.235	313.34
792.416	280.57
792.597	303.1
792.778	337.91
792.958	288.76
793.139	284.67
793.32	247.8
793.5	272.38
793.681	315.39
793.862	174.08
794.042	311.29
794.223	272.38
794.404	233.47
794.584	301.05
794.765	290.81
794.945	253.95
795.126	301.05
795.306	231.42
795.487	272.38
795.667	206.84
795.848	282.62
796.028	231.42
796.209	229.37
796.389	309.24
796.57	206.84
796.75	268.28
796.93	247.8
797.111	282.62
797.291	198.65
797.471	227.32
797.652	253.95
797.832	212.99
798.012	288.76
798.192	256
798.373	159.74
798.553	180.22
798.733	256
798.913	202.75
799.093	223.23
799.274	264.19
799.454	266.24
799.634	276.48
799.814	243.71
799.994	260.09
800.174	186.37
800.354	256
800.534	235.52
800.714	172.03
800.894	223.23
801.074	153.6
801.254	174.08
801.434	258.04
801.614	229.37
801.794	149.5
801.974	845.81
802.154	182.27
802.334	296.96
802.514	174.08
802.693	210.94
802.873	217.08
803.053	200.7
803.233	206.84
803.413	231.42
803.592	151.55
803.772	145.41
803.952	225.28
804.131	178.17
804.311	108.54
804.491	174.08
804.67	157.69
804.85	118.78
805.03	169.98
805.209	208.89
805.389	159.74
805.568	129.02
805.748	231.42
805.928	153.6
806.107	210.94
806.287	253.95
806.466	141.31
806.646	131.07
806.825	110.59
807.004	137.21
807.184	169.98
807.363	165.89
807.543	227.32
807.722	159.74
807.901	202.75
808.081	124.93
808.26	135.17
808.439	178.17
808.619	116.73
808.798	198.65
808.977	178.17
809.156	210.94
809.336	77.82
809.515	137.21
809.694	129.02
809.873	137.21
810.052	176.13
810.231	161.79
810.411	110.59
810.59	176.13
810.769	118.78
810.948	161.79
811.127	141.31
811.306	108.54
811.485	149.5
811.664	190.46
811.843	202.75
812.022	112.64
812.201	157.69
812.38	112.64
812.559	135.17
812.737	176.13
812.916	108.54
813.095	124.93
813.274	215.04
813.453	141.31
813.632	208.89
813.811	145.41
813.989	53.25
814.168	165.89
814.347	102.4
814.526	57.34
814.704	157.69
814.883	241.66
815.062	77.82
815.24	40.96
815.419	106.49
815.598	102.4
815.776	67.58
815.955	92.16
816.133	47.1
816.312	129.02
816.49	73.73
816.669	116.73
816.847	112.64
817.026	182.27
817.204	83.97
817.383	100.35
817.561	88.06
817.74	131.07
817.918	75.77
818.097	59.39
818.275	108.54
818.453	102.4
818.632	184.32
818.81	116.73
818.988	102.4
819.167	139.26
819.345	124.93
819.523	129.02
819.701	157.69
819.879	59.39
820.058	161.79
820.236	176.13
820.414	59.39
820.592	163.84
820.77	51.2
820.948	151.55
821.127	151.55
821.305	94.21
821.483	100.35
821.661	71.68
821.839	102.4
822.017	169.98
822.195	69.63
822.373	102.4
822.551	88.06
822.729	69.63
822.907	102.4
823.085	149.5
823.262	108.54
823.44	45.06
823.618	22.53
823.796	73.73
823.974	22.53
824.152	141.31
824.329	92.16
824.507	141.31
824.685	86.01
824.863	102.4
825.04	186.37
825.218	133.12
825.396	71.68
825.574	120.83
825.751	65.53
825.929	135.17
826.107	61.44
826.284	100.35
826.462	96.25
826.639	106.49
826.817	38.91
826.994	22.53
827.172	32.77
827.349	167.93
827.527	96.25
827.704	124.93
827.882	81.92
828.059	26.62
828.237	-4.1
828.414	51.2
828.591	86.01
828.769	116.73
828.946	47.1
829.124	94.21
829.301	167.93
829.478	-6.14
829.655	116.73
829.833	73.73
830.01	10.24
830.187	79.87
830.364	94.21
830.542	34.82
830.719	104.45
830.896	149.5
831.073	40.96
831.25	14.34
831.427	108.54
831.604	133.12
831.782	-4.1
831.959	22.53
832.136	-6.14
832.313	16.38
832.49	47.1
832.667	100.35
832.844	120.83
833.021	116.73
833.198	71.68
833.374	32.77
833.551	116.73
833.728	16.38
833.905	118.78
834.082	-30.72
834.259	28.67
834.436	104.45
834.612	79.87
834.789	77.82
834.966	47.1
835.143	34.82
835.319	22.53
835.496	108.54
835.673	-18.43
835.85	124.93
836.026	14.34
836.203	102.4
836.38	12.29
836.556	108.54
836.733	38.91
836.909	77.82
837.086	18.43
837.262	40.96
837.439	57.34
837.616	59.39
837.792	104.45
837.968	104.45
838.145	10.24
838.321	36.86
838.498	133.12
838.674	34.82
838.851	90.11
839.027	34.82
839.203	61.44
839.38	10.24
839.556	45.06
839.732	26.62
839.909	116.73
840.085	94.21
840.261	116.73
840.437	92.16
840.614	43.01
840.79	24.58
840.966	100.35
841.142	61.44
841.318	67.58
841.494	108.54
841.671	63.49
841.847	53.25
842.023	30.72
842.199	137.21
842.375	61.44
842.551	-12.29
842.727	83.97
842.903	47.1
843.079	26.62
843.255	108.54
843.431	18.43
843.607	32.77
843.783	-38.91
843.959	-51.2
844.134	2.05
844.31	53.25
844.486	34.82
844.662	61.44
844.838	34.82
845.013	75.77
845.189	47.1
845.365	36.86
845.541	51.2
845.716	59.39
845.892	108.54
846.068	38.91
846.244	43.01
846.419	75.77
846.595	36.86
846.77	-6.14
846.946	53.25
847.122	43.01
847.297	55.3
847.473	157.69
847.648	-6.14
847.824	86.01
847.999	-30.72
848.175	2.05
848.35	61.44
848.526	83.97
848.701	106.49
848.876	-6.14
849.052	75.77
849.227	90.11
849.403	55.3
849.578	12.29
849.753	4.1
849.929	2.05
850.104	-2.05
850.279	18.43
850.454	18.43
850.63	-55.3
850.805	79.87
850.98	126.97
851.155	59.39
851.33	2.05
851.505	-2.05
851.681	135.17
851.856	73.73
852.031	59.39
852.206	34.82
852.381	2.05
852.556	2.05
852.731	-14.34
852.906	4.1
853.081	-88.06
853.256	86.01
853.431	55.3
853.606	-55.3
853.781	20.48
853.956	43.01
854.131	-38.91
854.305	18.43
854.48	38.91
854.655	34.82
854.83	36.86
855.005	43.01
855.18	157.69
855.354	36.86
855.529	47.1
855.704	86.01
855.879	59.39
856.053	-75.77
856.228	6.14
856.403	6.14
856.577	77.82
856.752	20.48
856.926	75.77
857.101	100.35
857.276	20.48
857.45	-10.24
857.625	26.62
857.799	-0
857.974	36.86
858.148	26.62
858.323	-30.72
858.497	-12.29
858.672	14.34
858.846	-20.48
859.02	-30.72
859.195	-20.48
859.369	10.24
859.543	65.53
859.718	102.4
859.892	43.01
860.066	8.19
860.241	10.24
860.415	6.14
860.589	26.62
860.763	43.01
860.938	-26.62
861.112	49.15
861.286	18.43
861.46	55.3
861.634	43.01
861.808	75.77
861.982	63.49
862.157	-20.48
862.331	-18.43
862.505	6.14
862.679	55.3
862.853	-6.14
863.027	20.48
863.201	-10.24
863.375	-14.34
863.549	88.06
863.722	63.49
863.896	55.3
864.07	47.1
864.244	-92.16
864.418	22.53
864.592	45.06
864.766	-2.05
864.939	10.24
865.113	-67.58
865.287	57.34
865.461	-4.1
865.634	12.29
865.808	22.53
865.982	-6.14
866.156	12.29
866.329	-22.53
866.503	26.62
866.676	6.14
866.85	18.43
867.024	12.29
867.197	45.06
867.371	-12.29
867.544	53.25
867.718	34.82
867.891	20.48
868.065	43.01
868.238	-6.14
868.412	106.49
868.585	-0
868.759	-22.53
868.932	-53.25
869.105	18.43
869.279	69.63
869.452	-26.62
869.625	-4.1
869.799	-18.43
869.972	18.43
870.145	8.19
870.319	-22.53
870.492	-18.43
870.665	20.48
870.838	61.44
871.011	-30.72
871.185	36.86
871.358	8.19
871.531	63.49
871.704	43.01
871.877	-2.05
872.05	-4.1
872.223	-65.54
872.396	18.43
872.569	2.05
872.742	-10.24
872.915	-30.72
873.088	-22.53
873.261	-36.86
873.434	-30.72
873.607	-63.49
873.78	16.38
873.953	-12.29
874.126	10.24
874.299	-30.72
874.471	53.25
874.644	51.2
874.817	10.24
874.99	55.3
875.163	-16.38
875.335	18.43
875.508	55.3
875.681	30.72
875.853	-34.82
876.026	43.01
876.199	53.25
876.371	55.3
876.544	34.82
876.717	26.62
876.889	24.58
877.062	2.05
877.234	-30.72
877.407	43.01
877.579	2.05
877.752	26.62
877.924	18.43
878.097	83.97
878.269	-2.05
878.442	4.1
878.614	26.62
878.786	-20.48
878.959	20.48
879.131	88.06
879.303	-59.39
879.476	18.43
879.648	10.24
879.82	73.73
879.993	-18.43
880.165	26.62
880.337	-77.82
880.509	-14.34
880.681	-4.1
880.854	-20.48
881.026	28.67
881.198	26.62
881.37	83.97
881.542	47.1
881.714	-30.72
881.886	10.24
882.058	-51.2
882.23	45.06
882.402	-28.67
882.574	32.77
882.746	75.77
882.918	43.01
883.09	20.48
883.262	16.38
883.434	38.91
883.606	-14.34
883.778	38.91
883.95	38.91
884.122	12.29
884.293	45.06
884.465	-71.68
884.637	114.69
884.809	18.43
884.98	6.14
885.152	53.25
885.324	67.58
885.496	-10.24
885.667	10.24
885.839	34.82
886.011	-12.29
886.182	38.91
886.354	28.67
886.525	45.06
886.697	43.01
886.869	-45.06
887.04	67.58
887.212	12.29
887.383	71.68
887.555	-100.35
887.726	26.62
887.897	2.05
888.069	51.2
888.24	30.72
888.412	-112.64
888.583	-26.62
888.754	34.82
888.926	18.43
889.097	28.67
889.268	-6.14
889.44	2.05
889.611	-20.48
889.782	-2.05
889.953	-55.3
890.125	18.43
890.296	10.24
890.467	47.1
890.638	6.14
890.809	-51.2
890.98	-16.38
891.151	34.82
891.323	-10.24
891.494	47.1
891.665	-20.48
891.836	-55.3
892.007	10.24
892.178	2.05
892.349	34.82
892.52	-38.91
892.691	10.24
892.862	-28.67
893.032	6.14
893.203	-71.68
893.374	43.01
893.545	43.01
893.716	16.38
893.887	73.73
894.057	30.72
894.228	-22.53
894.399	53.25
894.57	28.67
894.74	-63.49
894.911	14.34
895.082	-88.06
895.253	43.01
895.423	-2.05
895.594	-4.1
895.764	-22.53
895.935	-26.62
896.106	83.97
896.276	-16.38
896.447	-0
896.617	26.62
896.788	-4.1
896.958	12.29
897.129	-18.43
897.299	-22.53
897.47	-36.86
897.64	4.1
897.81	122.88
897.981	96.25
898.151	-38.91
898.322	-10.24
898.492	77.82
898.662	-26.62
898.832	-92.16
899.003	2.05
899.173	32.77
899.343	4.1
899.513	-26.62
