Data from USB4F104151__155__14-44-38-399.txt Node

Date: Thu Mar 13 14:44:38 EDT 2025
User: louis
Spectrometer: USB4F10415
Trigger mode: 4
Integration Time (sec): 2.000000E-2
Scans to average: 1
Electric dark correction enabled: true
Nonlinearity correction enabled: false
Boxcar width: 0
XAxis mode: Wavelengths
Number of Pixels in Spectrum: 3648
>>>>>Begin Spectral Data<<<<<
178.204	-111.96
178.424	-111.96
178.644	-111.96
178.864	-126.29
179.084	-91.48
179.304	15.02
179.524	19.11
179.744	-13.65
179.964	84.65
180.184	-3.41
180.404	4.78
180.624	-38.23
180.844	21.16
181.064	-5.46
181.283	-30.04
181.503	-27.99
181.723	-25.94
181.943	-27.99
182.163	117.42
182.383	2.73
182.602	15.02
182.822	25.26
183.042	43.69
183.262	8.87
183.482	33.45
183.701	55.98
183.921	35.5
184.141	29.35
184.361	60.07
184.58	60.07
184.8	43.69
185.02	68.27
185.239	62.12
185.459	51.88
185.679	-13.65
185.898	21.16
186.118	76.46
186.338	43.69
186.557	53.93
186.777	51.88
186.997	-11.61
187.216	109.22
187.436	109.22
187.655	-13.65
187.875	21.16
188.095	51.88
188.314	66.22
188.534	76.46
188.753	-77.14
188.973	72.36
189.192	84.65
189.412	78.51
189.631	43.69
189.851	-27.99
190.07	92.84
190.29	-42.32
190.509	62.12
190.729	10.92
190.948	88.75
191.168	162.47
191.387	27.31
191.607	43.69
191.826	150.18
192.045	101.03
192.265	160.42
192.484	78.51
192.704	70.31
192.923	64.17
193.142	195.24
193.362	109.22
193.581	68.27
193.8	144.04
194.02	2.73
194.239	8.87
194.458	12.97
194.678	96.94
194.897	8.87
195.116	2.73
195.335	92.84
195.555	60.07
195.774	78.51
195.993	47.79
196.212	10.92
196.432	10.92
196.651	45.74
196.87	78.51
197.089	39.59
197.308	76.46
197.528	66.22
197.747	-19.8
197.966	49.83
198.185	45.74
198.404	-15.7
198.623	2.73
198.842	70.31
199.062	68.27
199.281	53.93
199.5	15.02
199.719	86.7
199.938	35.5
200.157	37.55
200.376	64.17
200.595	60.07
200.814	10.92
201.033	123.56
201.252	101.03
201.471	64.17
201.69	15.02
201.909	62.12
202.128	55.98
202.347	66.22
202.566	76.46
202.785	19.11
203.004	29.35
203.223	35.5
203.442	35.5
203.661	60.07
203.879	-1.37
204.098	103.08
204.317	-3.41
204.536	39.59
204.755	55.98
204.974	94.89
205.193	68.27
205.411	125.61
205.63	12.97
205.849	53.93
206.068	21.16
206.287	53.93
206.505	-15.7
206.724	94.89
206.943	70.31
207.162	76.46
207.381	19.11
207.599	45.74
207.818	31.4
208.037	58.03
208.255	60.07
208.474	94.89
208.693	-5.46
208.911	78.51
209.13	49.83
209.349	98.99
209.567	35.5
209.786	72.36
210.005	39.59
210.223	19.11
210.442	8.87
210.661	4.78
210.879	45.74
211.098	31.4
211.316	27.31
211.535	105.13
211.753	72.36
211.972	2.73
212.191	6.83
212.409	-1.37
212.628	76.46
212.846	37.55
213.065	70.31
213.283	58.03
213.502	60.07
213.72	43.69
213.938	70.31
214.157	6.83
214.375	66.22
214.594	53.93
214.812	129.7
215.031	35.5
215.249	68.27
215.467	12.97
215.686	35.5
215.904	68.27
216.122	-17.75
216.341	84.65
216.559	113.32
216.778	27.31
216.996	51.88
217.214	76.46
217.432	84.65
217.651	15.02
217.869	2.73
218.087	74.41
218.306	23.21
218.524	55.98
218.742	127.66
218.96	70.31
219.179	45.74
219.397	60.07
219.615	131.75
219.833	92.84
220.051	10.92
220.27	64.17
220.488	84.65
220.706	88.75
220.924	70.31
221.142	41.64
221.36	23.21
221.578	51.88
221.796	51.88
222.015	68.27
222.233	62.12
222.451	47.79
222.669	2.73
222.887	84.65
223.105	21.16
223.323	101.03
223.541	-42.32
223.759	92.84
223.977	53.93
224.195	47.79
224.413	51.88
224.631	62.12
224.849	90.79
225.067	92.84
225.285	60.07
225.503	23.21
225.721	60.07
225.939	76.46
226.157	41.64
226.375	166.57
226.592	43.69
226.81	-9.56
227.028	68.27
227.246	84.65
227.464	94.89
227.682	-11.61
227.9	10.92
228.117	58.03
228.335	127.66
228.553	21.16
228.771	45.74
228.989	37.55
229.206	37.55
229.424	15.02
229.642	62.12
229.86	43.69
230.077	74.41
230.295	45.74
230.513	43.69
230.731	92.84
230.948	109.22
231.166	86.7
231.384	2.73
231.601	-30.04
231.819	103.08
232.037	12.97
232.254	68.27
232.472	88.75
232.689	-3.41
232.907	-5.46
233.125	-1.37
233.342	-38.23
233.56	86.7
233.777	-44.37
233.995	37.55
234.213	60.07
234.43	25.26
234.648	-11.61
234.865	78.51
235.083	129.7
235.3	133.8
235.518	19.11
235.735	29.35
235.953	53.93
236.17	84.65
236.388	84.65
236.605	23.21
236.822	62.12
237.04	10.92
237.257	98.99
237.475	21.16
237.692	37.55
237.909	17.07
238.127	51.88
238.344	66.22
238.562	-13.65
238.779	10.92
238.996	12.97
239.214	-11.61
239.431	68.27
239.648	53.93
239.865	70.31
240.083	2.73
240.3	29.35
240.517	-54.61
240.735	-25.94
240.952	84.65
241.169	103.08
241.386	12.97
241.603	70.31
241.821	37.55
242.038	64.17
242.255	-13.65
242.472	37.55
242.689	92.84
242.907	133.8
243.124	43.69
243.341	72.36
243.558	47.79
243.775	-1.37
243.992	111.27
244.209	49.83
244.426	76.46
244.643	76.46
244.86	37.55
245.078	146.09
245.295	33.45
245.512	-13.65
245.729	43.69
245.946	27.31
246.163	2.73
246.38	35.5
246.597	-27.99
246.814	-46.42
247.031	29.35
247.248	2.73
247.464	17.07
247.681	119.46
247.898	84.65
248.115	43.69
248.332	60.07
248.549	35.5
248.766	64.17
248.983	115.37
249.2	51.88
249.417	109.22
249.633	29.35
249.85	43.69
250.067	-46.42
250.284	53.93
250.501	76.46
250.717	68.27
250.934	37.55
251.151	76.46
251.368	-3.41
251.585	10.92
251.801	29.35
252.018	76.46
252.235	39.59
252.451	-21.85
252.668	113.32
252.885	76.46
253.102	-13.65
253.318	51.88
253.535	19.11
253.752	-13.65
253.968	35.5
254.185	62.12
254.401	68.27
254.618	51.88
254.835	55.98
255.051	92.84
255.268	29.35
255.484	49.83
255.701	135.85
255.917	66.22
256.134	80.55
256.351	62.12
256.567	31.4
256.784	133.8
257	33.45
257.217	141.99
257.433	131.75
257.65	8.87
257.866	94.89
258.082	27.31
258.299	-11.61
258.515	37.55
258.732	105.13
258.948	35.5
259.165	33.45
259.381	35.5
259.597	66.22
259.814	35.5
260.03	-3.41
260.246	23.21
260.463	47.79
260.679	-3.41
260.895	47.79
261.112	107.18
261.328	-25.94
261.544	-34.13
261.761	152.23
261.977	37.55
262.193	55.98
262.409	84.65
262.626	92.84
262.842	103.08
263.058	25.26
263.274	51.88
263.49	76.46
263.707	103.08
263.923	51.88
264.139	-44.37
264.355	68.27
264.571	60.07
264.787	82.6
265.004	76.46
265.22	53.93
265.436	72.36
265.652	78.51
265.868	152.23
266.084	53.93
266.3	43.69
266.516	2.73
266.732	12.97
266.948	49.83
267.164	51.88
267.38	80.55
267.596	19.11
267.812	113.32
268.028	60.07
268.244	72.36
268.46	62.12
268.676	92.84
268.892	86.7
269.108	74.41
269.324	55.98
269.54	-11.61
269.756	94.89
269.972	80.55
270.188	17.07
270.403	2.73
270.619	84.65
270.835	96.94
271.051	154.28
271.267	45.74
271.483	35.5
271.698	88.75
271.914	35.5
272.13	64.17
272.346	101.03
272.562	37.55
272.777	74.41
272.993	27.31
273.209	10.92
273.425	23.21
273.64	35.5
273.856	6.83
274.072	31.4
274.287	-50.52
274.503	41.64
274.719	62.12
274.934	51.88
275.15	-11.61
275.366	62.12
275.581	27.31
275.797	31.4
276.012	37.55
276.228	68.27
276.444	0.68
276.659	68.27
276.875	21.16
277.09	37.55
277.306	45.74
277.521	92.84
277.737	35.5
277.952	152.23
278.168	86.7
278.383	39.59
278.599	39.59
278.814	35.5
279.03	47.79
279.245	76.46
279.461	72.36
279.676	64.17
279.892	8.87
280.107	33.45
280.322	80.55
280.538	84.65
280.753	37.55
280.969	70.31
281.184	78.51
281.399	127.66
281.615	4.78
281.83	2.73
282.045	72.36
282.26	12.97
282.476	76.46
282.691	60.07
282.906	-1.37
283.122	37.55
283.337	113.32
283.552	51.88
283.767	29.35
283.983	-1.37
284.198	84.65
284.413	19.11
284.628	-5.46
284.843	6.83
285.058	62.12
285.274	47.79
285.489	35.5
285.704	29.35
285.919	-21.85
286.134	43.69
286.349	19.11
286.564	45.74
286.779	103.08
286.995	103.08
287.21	10.92
287.425	70.31
287.64	23.21
287.855	117.42
288.07	-66.9
288.285	166.57
288.5	80.55
288.715	55.98
288.93	-5.46
289.145	23.21
289.36	113.32
289.575	-13.65
289.79	80.55
290.004	70.31
290.219	19.11
290.434	92.84
290.649	78.51
290.864	76.46
291.079	35.5
291.294	27.31
291.509	27.31
291.724	78.51
291.938	15.02
292.153	68.27
292.368	12.97
292.583	62.12
292.798	6.83
293.012	25.26
293.227	119.46
293.442	-46.42
293.657	21.16
293.871	103.08
294.086	78.51
294.301	86.7
294.516	72.36
294.73	92.84
294.945	43.69
295.16	19.11
295.374	117.42
295.589	72.36
295.804	-34.13
296.018	60.07
296.233	84.65
296.447	117.42
296.662	68.27
296.877	35.5
297.091	37.55
297.306	60.07
297.52	51.88
297.735	25.26
297.949	68.27
298.164	133.8
298.378	98.99
298.593	8.87
298.807	49.83
299.022	43.69
299.236	17.07
299.451	70.31
299.665	45.74
299.88	74.41
300.094	29.35
300.309	51.88
300.523	80.55
300.737	19.11
300.952	133.8
301.166	-5.46
301.381	103.08
301.595	51.88
301.809	53.93
302.024	101.03
302.238	-11.61
302.452	125.61
302.667	29.35
302.881	101.03
303.095	139.94
303.309	47.79
303.524	43.69
303.738	76.46
303.952	35.5
304.166	8.87
304.381	-17.75
304.595	156.33
304.809	6.83
305.023	68.27
305.237	35.5
305.452	72.36
305.666	35.5
305.88	60.07
306.094	68.27
306.308	90.79
306.522	39.59
306.736	78.51
306.95	103.08
307.164	84.65
307.379	88.75
307.593	103.08
307.807	62.12
308.021	80.55
308.235	125.61
308.449	60.07
308.663	62.12
308.877	113.32
309.091	35.5
309.305	72.36
309.519	35.5
309.733	117.42
309.947	12.97
310.161	29.35
310.374	105.13
310.588	88.75
310.802	31.4
311.016	109.22
311.23	-21.85
311.444	37.55
311.658	80.55
311.872	53.93
312.085	94.89
312.299	47.79
312.513	84.65
312.727	60.07
312.941	10.92
313.154	84.65
313.368	4.78
313.582	76.46
313.796	94.89
314.009	60.07
314.223	109.22
314.437	109.22
314.651	45.74
314.864	86.7
315.078	109.22
315.292	33.45
315.505	-42.32
315.719	35.5
315.933	53.93
316.146	68.27
316.36	-11.61
316.573	84.65
316.787	51.88
317.001	101.03
317.214	51.88
317.428	47.79
317.641	0.68
317.855	19.11
318.068	27.31
318.282	55.98
318.495	92.84
318.709	78.51
318.922	-30.04
319.136	35.5
319.349	92.84
319.563	62.12
319.776	19.11
319.99	-32.08
320.203	-3.41
320.417	68.27
320.63	129.7
320.843	105.13
321.057	80.55
321.27	8.87
321.483	76.46
321.697	127.66
321.91	68.27
322.124	19.11
322.337	74.41
322.55	45.74
322.763	4.78
322.977	62.12
323.19	15.02
323.403	80.55
323.617	53.93
323.83	101.03
324.043	94.89
324.256	21.16
324.469	53.93
324.683	53.93
324.896	12.97
325.109	-32.08
325.322	-30.04
325.535	53.93
325.748	131.75
325.962	19.11
326.175	68.27
326.388	-17.75
326.601	53.93
326.814	62.12
327.027	82.6
327.24	60.07
327.453	-19.8
327.666	55.98
327.879	51.88
328.092	70.31
328.305	66.22
328.518	4.78
328.731	96.94
328.944	64.17
329.157	135.85
329.37	80.55
329.583	82.6
329.796	103.08
330.009	76.46
330.222	82.6
330.435	72.36
330.648	10.92
330.861	109.22
331.073	53.93
331.286	92.84
331.499	68.27
331.712	-27.99
331.925	49.83
332.138	19.11
332.35	35.5
332.563	15.02
332.776	84.65
332.989	105.13
333.202	70.31
333.414	-7.51
333.627	43.69
333.84	2.73
334.053	101.03
334.265	39.59
334.478	117.42
334.691	64.17
334.903	45.74
335.116	10.92
335.329	29.35
335.541	74.41
335.754	86.7
335.966	86.7
336.179	2.73
336.392	78.51
336.604	43.69
336.817	66.22
337.029	123.56
337.242	121.51
337.454	27.31
337.667	2.73
337.88	117.42
338.092	60.07
338.305	55.98
338.517	6.83
338.729	70.31
338.942	78.51
339.154	55.98
339.367	27.31
339.579	88.75
339.792	-66.9
340.004	35.5
340.217	27.31
340.429	141.99
340.641	35.5
340.854	53.93
341.066	31.4
341.278	107.18
341.491	78.51
341.703	62.12
341.915	31.4
342.128	53.93
342.34	43.69
342.552	21.16
342.764	68.27
342.977	-42.32
343.189	96.94
343.401	43.69
343.613	27.31
343.826	78.51
344.038	64.17
344.25	109.22
344.462	29.35
344.674	92.84
344.886	60.07
345.099	66.22
345.311	84.65
345.523	101.03
345.735	37.55
345.947	27.31
346.159	47.79
346.371	25.26
346.583	64.17
346.795	80.55
347.007	94.89
347.219	31.4
347.431	27.31
347.643	80.55
347.855	-1.37
348.067	92.84
348.279	-46.42
348.491	78.51
348.703	6.83
348.915	62.12
349.127	29.35
349.339	64.17
349.551	6.83
349.763	70.31
349.975	107.18
350.187	109.22
350.399	96.94
350.61	19.11
350.822	-27.99
351.034	51.88
351.246	0.68
351.458	109.22
351.669	12.97
351.881	43.69
352.093	101.03
352.305	31.4
352.517	62.12
352.728	80.55
352.94	53.93
353.152	62.12
353.363	55.98
353.575	-5.46
353.787	148.14
353.999	96.94
354.21	150.18
354.422	31.4
354.633	-17.75
354.845	43.69
355.057	29.35
355.268	37.55
355.48	49.83
355.692	15.02
355.903	10.92
356.115	51.88
356.326	17.07
356.538	101.03
356.749	70.31
356.961	33.45
357.172	29.35
357.384	64.17
357.595	105.13
357.807	80.55
358.018	37.55
358.23	47.79
358.441	176.81
358.653	111.27
358.864	76.46
359.075	-50.52
359.287	47.79
359.498	174.76
359.709	-62.8
359.921	60.07
360.132	19.11
360.344	51.88
360.555	43.69
360.766	113.32
360.977	68.27
361.189	70.31
361.4	-30.04
361.611	62.12
361.823	64.17
362.034	-32.08
362.245	35.5
362.456	82.6
362.667	123.56
362.879	2.73
363.09	43.69
363.301	62.12
363.512	68.27
363.723	-21.85
363.935	66.22
364.146	117.42
364.357	84.65
364.568	27.31
364.779	0.68
364.99	43.69
365.201	109.22
365.412	43.69
365.623	-46.42
365.834	84.65
366.045	98.99
366.256	-34.13
366.467	6.83
366.678	86.7
366.889	-7.51
367.1	86.7
367.311	113.32
367.522	41.64
367.733	60.07
367.944	80.55
368.155	27.31
368.366	125.61
368.577	96.94
368.788	88.75
368.999	21.16
369.209	35.5
369.42	133.8
369.631	121.51
369.842	127.66
370.053	72.36
370.264	101.03
370.474	133.8
370.685	92.84
370.896	62.12
371.107	111.27
371.317	10.92
371.528	35.5
371.739	88.75
371.95	68.27
372.16	76.46
372.371	21.16
372.582	90.79
372.792	92.84
373.003	55.98
373.214	76.46
373.424	70.31
373.635	53.93
373.846	113.32
374.056	70.31
374.267	105.13
374.477	127.66
374.688	15.02
374.898	60.07
375.109	25.26
375.319	133.8
375.53	66.22
375.74	94.89
375.951	51.88
376.161	164.52
376.372	88.75
376.582	113.32
376.793	76.46
377.003	76.46
377.214	19.11
377.424	60.07
377.635	64.17
377.845	72.36
378.055	125.61
378.266	133.8
378.476	62.12
378.686	55.98
378.897	137.9
379.107	53.93
379.317	133.8
379.528	41.64
379.738	45.74
379.948	47.79
380.158	60.07
380.369	70.31
380.579	111.27
380.789	39.59
380.999	39.59
381.21	82.6
381.42	158.38
381.63	55.98
381.84	64.17
382.05	39.59
382.261	90.79
382.471	35.5
382.681	105.13
382.891	121.51
383.101	72.36
383.311	60.07
383.521	10.92
383.731	158.38
383.941	76.46
384.151	10.92
384.361	41.64
384.571	125.61
384.781	94.89
384.991	82.6
385.201	78.51
385.411	68.27
385.621	19.11
385.831	19.11
386.041	43.69
386.251	92.84
386.461	76.46
386.671	-21.85
386.881	101.03
387.091	127.66
387.301	19.11
387.511	47.79
387.72	68.27
387.93	62.12
388.14	39.59
388.35	90.79
388.56	86.7
388.769	55.98
388.979	60.07
389.189	88.75
389.399	92.84
389.609	6.83
389.818	84.65
390.028	150.18
390.238	29.35
390.447	53.93
390.657	-5.46
390.867	92.84
391.076	6.83
391.286	115.37
391.496	31.4
391.705	70.31
391.915	76.46
392.125	117.42
392.334	29.35
392.544	84.65
392.753	86.7
392.963	86.7
393.172	125.61
393.382	-11.61
393.591	113.32
393.801	92.84
394.01	135.85
394.22	76.46
394.429	137.9
394.639	111.27
394.848	135.85
395.058	55.98
395.267	78.51
395.477	74.41
395.686	51.88
395.895	141.99
396.105	158.38
396.314	84.65
396.524	88.75
396.733	96.94
396.942	150.18
397.152	113.32
397.361	154.28
397.57	125.61
397.78	103.08
397.989	96.94
398.198	150.18
398.407	111.27
398.617	84.65
398.826	109.22
399.035	133.8
399.244	88.75
399.453	141.99
399.663	152.23
399.872	117.42
400.081	150.18
400.29	150.18
400.499	84.65
400.708	72.36
400.917	96.94
401.127	123.56
401.336	113.32
401.545	113.32
401.754	109.22
401.963	133.8
402.172	82.6
402.381	150.18
402.59	150.18
402.799	103.08
403.008	119.46
403.217	144.04
403.426	166.57
403.635	154.28
403.844	92.84
404.053	96.94
404.262	199.34
404.471	199.34
404.68	176.81
404.888	137.9
405.097	121.51
405.306	203.43
405.515	178.86
405.724	199.34
405.933	117.42
406.142	170.66
406.35	199.34
406.559	111.27
406.768	129.7
406.977	258.73
407.185	80.55
407.394	199.34
407.603	203.43
407.812	176.81
408.02	199.34
408.229	223.91
408.438	158.38
408.646	191.14
408.855	211.62
409.064	182.95
409.272	256.68
409.481	207.53
409.69	225.96
409.898	273.06
410.107	277.16
410.315	289.45
410.524	254.63
410.733	316.07
410.941	314.02
411.15	309.93
411.358	248.49
411.567	395.94
411.775	324.26
411.984	275.11
412.192	400.04
412.401	400.04
412.609	379.56
412.818	506.53
413.026	428.71
413.234	420.52
413.443	438.95
413.651	395.94
413.86	488.1
414.068	559.78
414.276	631.46
414.485	514.72
414.693	539.3
414.901	602.79
415.11	553.63
415.318	551.59
415.526	625.31
415.734	699.04
415.943	576.16
416.151	633.5
416.359	672.42
416.567	707.23
416.776	662.18
416.984	774.81
417.192	793.25
417.4	764.57
417.608	740
417.817	922.27
418.025	961.18
418.233	1018.52
418.441	850.59
418.649	778.91
418.857	969.37
419.065	1061.53
419.273	971.42
419.481	1084.06
419.689	1108.63
419.897	1198.74
420.105	1170.07
420.313	1231.51
420.521	1264.28
420.729	1354.39
420.937	1274.52
421.145	1370.77
421.353	1438.36
421.561	1536.66
421.769	1565.33
421.977	1600.15
422.185	1553.04
422.393	1731.22
422.601	1823.37
422.809	1761.94
423.017	1673.87
423.224	1862.29
423.432	1938.06
423.64	2007.69
423.848	2132.62
424.056	2067.08
424.263	2222.73
424.471	2198.15
424.679	2400.9
424.887	2298.5
425.094	2472.58
425.302	2476.68
425.51	2611.84
425.718	2620.03
425.925	2617.99
426.133	2835.07
426.341	2949.76
426.548	3027.58
426.756	3029.63
426.964	3119.74
427.171	3289.72
427.379	3336.82
427.586	3371.64
427.794	3519.09
428.001	3719.79
428.209	3893.87
428.417	3791.47
428.624	4082.28
428.832	3951.21
429.039	3953.26
429.247	4006.51
429.454	4360.81
429.662	4635.24
429.869	4393.58
430.076	4581.99
430.284	4412.01
430.491	4708.96
430.699	4997.73
430.906	5050.97
431.114	5122.65
431.321	5263.96
431.528	5296.73
431.736	5644.88
431.943	5841.49
432.15	5687.89
432.358	5681.75
432.565	6150.73
432.772	6060.62
432.979	6470.22
433.187	6574.66
433.394	6677.06
433.601	6806.08
433.808	7131.71
434.016	6912.58
434.223	7318.07
434.43	7727.67
434.637	7526.97
434.844	7891.51
435.052	8098.35
435.259	8143.41
435.466	8210.99
435.673	8112.69
435.88	8653.35
436.087	8925.73
436.294	9194.01
436.501	8817.19
436.708	8958.5
436.915	9224.73
437.122	9751.06
437.329	9716.25
437.537	10037.78
437.743	10078.74
437.95	10168.85
438.157	10607.11
438.364	11080.19
438.571	10973.7
438.778	10949.12
438.985	12085.75
439.192	11430.4
439.399	11901.43
439.606	11571.71
439.813	12323.31
440.02	13105.63
440.227	12849.64
440.433	12728.81
440.64	13269.47
440.847	13144.55
441.054	13248.99
441.261	14346.7
441.467	14248.4
441.674	14485.97
441.881	14911.94
442.088	14766.54
442.294	14735.82
442.501	15071.68
442.708	15628.73
442.914	15976.89
443.121	16884.14
443.328	16085.43
443.534	17256.87
443.741	16812.46
443.948	16601.52
444.154	17789.34
444.361	17678.75
444.568	18041.24
444.774	17762.72
444.981	18155.93
445.187	18434.45
445.394	19274.12
445.6	19116.42
445.807	20916.59
446.013	20027.77
446.22	20652.4
446.426	21213.54
446.633	21498.21
446.839	22049.11
447.046	21391.72
447.252	22823.25
447.459	22575.44
447.665	22434.13
447.871	23361.86
448.078	24357.17
448.284	23228.74
448.491	24119.61
448.697	24793.39
448.903	25235.75
449.11	25461.03
449.316	25211.18
449.522	25397.54
449.728	26163.48
449.935	26269.98
450.141	26249.5
450.347	26972.43
450.553	26054.94
450.76	26325.27
450.966	27281.67
451.172	27138.32
451.378	27787.52
451.584	27083.02
451.791	27781.38
451.997	28027.13
452.203	28088.57
452.409	28299.51
452.615	28338.43
452.821	26861.84
453.027	26788.11
453.233	28303.61
453.44	27142.41
453.646	27814.15
453.852	27287.82
454.058	27896.06
454.264	27142.41
454.47	28225.79
454.676	27181.32
454.882	28180.73
455.088	25854.24
455.294	26235.16
455.5	26272.03
455.705	26607.89
455.911	25727.27
456.117	25438.5
456.323	25006.38
456.529	23652.67
456.735	24912.17
456.941	23896.38
457.147	23824.7
457.352	23015.76
457.558	22733.14
457.764	22960.46
457.97	22557.01
458.176	22081.88
458.381	21602.66
458.587	20732.27
458.793	20930.92
458.999	19714.43
459.204	21383.52
459.41	20562.29
459.616	19141
459.821	19325.32
460.027	19169.67
460.233	19003.78
460.438	17975.7
460.644	18250.13
460.85	17095.08
461.055	16961.96
461.261	16970.15
461.466	15651.26
461.672	15288.77
461.878	16505.26
462.083	15438.27
462.289	14985.67
462.494	14965.19
462.7	14264.78
462.905	13752.79
463.111	14223.83
463.316	14211.54
463.522	14051.8
463.727	13957.59
463.932	14166.48
464.138	13920.73
464.343	13976.02
464.549	13634.01
464.754	13957.59
464.959	13732.31
465.165	13617.63
465.37	13101.54
465.575	12913.13
465.781	13212.13
465.986	13390.3
466.191	12872.17
466.397	12638.7
466.602	12095.99
466.807	12546.54
467.012	12593.64
467.218	12425.71
467.423	12380.65
467.628	12646.89
467.833	12906.98
468.038	12409.33
468.244	12065.27
468.449	12728.81
468.654	12296.69
468.859	12206.58
469.064	11883
469.269	11555.32
469.474	11635.19
469.679	11956.72
469.885	11389.44
470.09	11661.82
470.295	11610.62
470.5	11094.53
470.705	11452.92
470.91	11137.54
471.115	11133.44
471.32	11221.5
471.525	11061.76
471.73	10820.1
471.935	10910.21
472.139	10697.22
472.344	10533.39
472.549	10535.43
472.754	10492.43
472.959	10160.66
473.164	9939.47
473.369	9974.29
473.574	10203.66
473.778	10078.74
473.983	10021.39
474.188	10021.39
474.393	9632.28
474.598	9568.79
474.802	9507.35
475.007	9316.89
475.212	9296.41
475.417	9140.77
475.621	9134.62
475.826	9138.72
476.031	9054.75
476.235	8852
476.44	8940.07
476.645	8727.08
476.849	8759.84
477.054	8532.52
477.259	8464.94
477.463	8688.17
477.668	8184.37
477.872	8454.7
478.077	8315.44
478.282	8075.82
478.486	8145.45
478.691	7881.27
478.895	8063.54
479.1	7907.89
479.304	7875.12
479.509	7744.05
479.713	7895.6
479.918	7858.74
480.122	7539.26
480.326	7660.09
480.531	7627.32
480.735	7537.21
480.94	7522.87
481.144	7617.08
481.348	7416.38
481.553	7516.73
481.757	7135.81
481.961	7440.95
482.166	7506.49
482.37	7383.61
482.574	7440.95
482.778	7295.55
482.983	7426.62
483.187	7584.31
483.391	7551.54
483.595	7354.94
483.8	7270.97
484.004	7354.94
484.208	7414.33
484.412	7334.46
484.616	7451.19
484.821	7432.76
485.025	7105.09
485.229	7285.31
485.433	7420.47
485.637	7074.37
485.841	7135.81
486.045	7266.88
486.249	7383.61
486.453	7275.07
486.657	7354.94
486.861	7330.36
487.065	6994.5
487.269	7377.47
487.473	7164.48
487.677	7404.09
487.881	7385.66
488.085	7336.51
488.289	7440.95
488.493	7219.77
488.697	7264.83
488.901	7404.09
489.105	7508.54
489.309	7352.89
489.512	7416.38
489.716	7301.69
489.92	7483.96
490.124	7123.52
490.328	7641.65
490.531	7506.49
490.735	7467.58
490.939	7383.61
491.143	7430.71
491.346	7592.5
491.55	7526.97
491.754	7600.69
491.958	7516.73
492.161	7549.5
492.365	7668.28
492.569	7647.8
492.772	7846.45
492.976	7793.2
493.18	7938.61
493.383	7789.11
493.587	7862.83
493.79	8051.25
493.994	7801.4
494.197	8084.02
494.401	8049.2
494.605	8268.33
494.808	8182.32
495.012	8153.65
495.215	8346.16
495.419	8448.55
495.622	8305.2
495.825	8380.97
496.029	8518.18
496.232	8677.93
496.436	8661.54
496.639	8657.45
496.843	8825.38
497.046	8776.23
497.249	9122.34
497.453	9087.52
497.656	9200.16
497.859	9198.11
498.063	9447.96
498.266	9556.5
498.469	9325.08
498.673	9574.94
498.876	9783.83
499.079	9832.98
499.282	9648.66
499.485	10160.66
499.689	10093.07
499.892	10383.88
500.095	10103.31
500.298	10590.73
500.501	10299.92
500.705	10621.45
500.908	10930.69
501.111	10799.62
501.314	10850.82
501.517	11274.75
501.72	11260.41
501.923	11164.16
502.126	11549.18
502.329	11581.95
502.532	11618.81
502.735	11819.51
502.938	11960.82
503.141	11950.58
503.344	12284.4
503.547	12208.62
503.75	12370.41
503.953	12728.81
504.156	12759.53
504.359	13113.83
504.562	13068.77
504.765	13330.91
504.968	13347.29
505.17	13664.73
505.373	13584.86
505.576	13760.98
505.779	13865.43
505.982	14129.62
506.185	14432.72
506.387	14248.4
506.59	14737.87
506.793	14952.9
506.996	14913.99
507.198	15200.71
507.401	15165.89
507.604	15665.6
507.807	15708.6
508.009	15987.13
508.212	15790.52
508.415	15993.27
508.617	16263.6
508.82	16173.49
509.022	16204.21
509.225	16740.78
509.428	16990.63
509.63	17095.08
509.833	17107.37
510.035	17514.91
510.238	17402.27
510.44	17688.99
510.643	17979.8
510.845	18090.39
511.048	18033.05
511.25	18395.54
511.453	18483.6
511.655	18995.59
511.858	19001.74
512.06	19159.43
512.262	19413.38
512.465	19368.32
512.667	19913.08
512.87	19868.03
513.072	19741.05
513.274	20504.95
513.477	20367.73
513.679	20881.77
513.881	20801.9
514.084	21246.31
514.286	21133.67
514.488	21500.26
514.69	21991.77
514.893	21801.31
515.095	21922.14
515.297	22585.68
515.499	22243.67
515.701	22767.95
515.904	22927.69
516.106	23032.14
516.308	23435.59
516.51	23599.43
516.712	23480.64
516.914	23777.6
517.116	24152.38
517.318	24256.82
517.52	24365.37
517.722	24674.61
517.925	25067.82
518.127	25387.3
518.329	25667.87
518.531	25278.76
518.733	25811.23
518.935	26093.85
519.136	26106.14
519.338	26478.87
519.54	26949.9
519.742	27160.84
519.944	27013.39
520.146	27537.67
520.348	27377.93
520.55	27719.94
520.752	27535.62
520.954	28238.08
521.155	27930.88
521.357	28770.55
521.559	28942.58
521.761	29350.12
521.963	29182.19
522.164	29372.65
522.366	29593.83
522.568	29782.24
522.77	30161.12
522.971	30675.16
523.173	30181.6
523.375	30370.01
523.576	30607.58
523.778	30857.43
523.98	31004.88
524.181	31518.92
524.383	31473.87
524.584	31559.88
524.786	32078.02
524.988	31627.46
525.189	32102.59
525.391	32393.4
525.592	32346.3
525.794	32417.98
525.995	32610.49
526.197	32618.68
526.398	32880.82
526.6	33061.04
526.801	33036.47
527.003	33099.95
527.204	33497.26
527.406	33790.12
527.607	33767.59
527.808	34052.26
528.01	33495.21
528.211	33886.37
528.412	34572.44
528.614	34298.02
528.815	34183.33
529.016	34660.51
529.218	34468
529.419	34410.65
529.62	34349.21
529.822	34453.66
530.023	34455.71
530.224	34723.99
530.425	34885.78
530.626	34424.99
530.828	34623.64
531.029	35393.68
531.23	35039.38
531.431	34861.21
531.632	35315.86
531.833	35430.54
532.035	35381.39
532.236	35588.24
532.437	35594.38
532.638	35233.94
532.839	35436.69
533.04	35747.98
533.241	35238.03
533.442	35911.81
533.643	35530.89
533.844	35344.53
534.045	35782.79
534.246	35377.29
534.447	35819.66
534.648	35426.45
534.849	35713.16
535.05	35485.84
535.251	35545.23
535.451	35795.08
535.652	36071.56
535.853	35829.9
536.054	35948.68
536.255	35987.59
536.456	35322
536.657	36118.66
536.857	35815.56
537.058	35457.17
537.259	36182.15
537.46	35825.8
537.66	35739.79
537.861	36137.09
538.062	35672.2
538.263	35743.88
538.463	35719.31
538.664	35485.84
538.865	35580.04
539.065	35989.64
539.266	35713.16
539.466	36077.7
539.667	35528.84
539.868	35868.81
540.068	35657.87
540.269	35813.51
540.469	36028.55
540.67	35367.06
540.87	35348.62
541.071	35580.04
541.271	35606.67
541.472	35573.9
541.672	35891.33
541.873	35420.3
542.073	35219.6
542.274	35930.25
542.474	35897.48
542.675	35723.4
542.875	35700.87
543.075	35901.57
543.276	35160.21
543.476	35696.78
543.676	35504.27
543.877	35651.72
544.077	35442.83
544.277	35698.83
544.478	35588.24
544.678	35647.63
544.878	35750.03
545.078	35606.67
545.279	35283.09
545.479	35612.81
545.679	35520.65
545.879	35596.43
546.079	35338.38
546.28	35494.03
546.48	35244.18
546.68	35168.4
546.88	35608.72
547.08	35905.67
547.28	35557.52
547.48	34920.6
547.68	35348.62
547.88	35416.21
548.081	35692.68
548.281	35082.39
548.481	35637.39
548.681	35555.47
548.881	35410.06
549.081	35287.18
549.28	35225.75
549.48	35768.46
549.68	35352.72
549.88	35567.76
550.08	35238.03
550.28	35356.82
550.48	35475.6
550.68	35561.61
550.88	34693.27
551.08	35117.2
551.279	35188.88
551.479	35039.38
551.679	35322
551.879	35010.71
552.079	35274.9
552.278	34857.11
552.478	34977.94
552.678	35485.84
552.878	35360.91
553.077	34662.55
553.277	34511
553.477	35477.65
553.676	34869.4
553.876	35240.08
554.076	35125.39
554.275	35117.2
554.475	34652.31
554.674	34965.65
554.874	35109.01
555.074	34844.82
555.273	34771.1
555.473	34744.47
555.672	34623.64
555.872	34488.48
556.071	35006.61
556.271	35100.82
556.47	34771.1
556.67	34128.03
556.869	34668.7
557.068	34592.92
557.268	34408.61
557.467	34357.41
557.667	34601.11
557.866	34115.75
558.065	34209.95
558.265	33728.68
558.464	34177.19
558.663	34588.83
558.863	34218.14
559.062	34820.25
559.261	33740.97
559.461	34279.58
559.66	34091.17
559.859	33847.46
560.058	33519.79
560.258	33894.57
560.457	33708.2
560.656	33937.57
560.855	33622.19
561.054	33603.75
561.253	33765.54
561.453	33564.84
561.652	33566.89
561.851	33503.4
562.05	33435.82
562.249	33151.15
562.448	33493.16
562.647	33564.84
562.846	33054.9
563.045	32932.02
563.244	33026.23
563.443	33470.64
563.642	32659.64
563.841	32917.68
564.04	32772.28
564.239	33089.71
564.438	32622.78
564.637	32702.65
564.836	32692.41
565.035	32118.98
565.234	32704.7
565.432	32491.71
565.631	32397.5
565.83	32047.3
566.029	32121.02
566.228	32149.7
566.427	32192.7
566.625	31807.69
566.824	31627.46
567.023	31987.91
567.222	31410.38
567.42	31985.86
567.619	31555.79
567.818	31635.66
568.016	31885.51
568.215	31557.83
568.414	31299.79
568.612	31418.57
568.811	31150.29
569.01	31256.78
569.208	30734.55
569.407	31209.68
569.605	30611.67
569.804	31027.41
570.002	30730.45
570.201	30830.8
570.4	30527.7
570.598	30566.62
570.797	30464.22
570.995	30621.91
571.193	30261.47
571.392	30599.38
571.59	30109.92
571.789	30148.83
571.987	29984.99
572.186	29892.83
572.384	29982.95
572.582	29749.48
572.781	30253.28
572.979	29364.46
573.177	29368.55
573.376	29667.56
573.574	29362.41
573.772	29419.75
573.971	29429.99
574.169	29393.13
574.367	28969.2
574.565	29030.64
574.763	28862.71
574.962	28893.43
575.16	28352.76
575.358	28918
575.556	28676.34
575.754	29028.59
575.952	28530.94
576.151	29018.35
576.349	28328.19
576.547	28365.05
576.745	28471.54
576.943	28004.61
577.141	28023.04
577.339	28152.06
577.537	27885.83
577.735	28090.62
577.933	27627.78
578.131	27642.12
578.329	27615.49
578.527	27343.11
578.725	27562.25
578.923	27502.85
579.121	27363.59
579.319	27373.83
579.516	27259.15
579.714	27359.5
579.912	27115.79
580.11	27130.12
580.308	27287.82
580.506	26976.53
580.704	26532.12
580.901	27042.06
581.099	27007.25
581.297	26464.53
581.495	26112.28
581.692	26472.73
581.89	25925.92
582.088	26822.93
582.285	26415.38
582.483	26343.7
582.681	26085.66
582.878	26143
583.076	25571.62
583.274	26126.62
583.471	25915.68
583.669	25872.67
583.866	25598.24
584.064	25669.92
584.262	25370.92
584.459	25727.27
584.657	25606.44
584.854	25829.66
585.052	25495.85
585.249	25196.84
585.447	25291.05
585.644	25018.67
585.841	24971.57
586.039	25510.18
586.236	24594.74
586.434	24664.37
586.631	24637.75
586.828	24527.16
587.026	24729.91
587.223	24449.33
587.42	24598.84
587.618	24850.74
587.815	24144.19
588.012	23957.82
588.21	24004.92
588.407	24594.74
588.604	24064.32
588.801	23855.42
588.999	24127.8
589.196	23714.11
589.393	24019.26
589.59	23515.46
589.787	23574.85
589.984	23404.87
590.182	23251.27
590.379	23480.64
590.576	23206.22
590.773	23017.8
590.97	23167.31
591.167	22835.53
591.364	23026
591.561	23148.87
591.758	22985.04
591.955	22970.7
592.152	22849.87
592.349	22802.77
592.546	22833.49
592.743	22776.14
592.94	22616.4
593.137	22673.74
593.334	22587.73
593.531	22198.62
593.727	22350.17
593.924	22374.74
594.121	22108.51
594.318	22393.17
594.515	22137.18
594.712	22100.31
594.908	21754.21
595.105	22002.01
595.302	21647.71
595.499	21870.94
595.696	21737.82
595.892	21567.84
596.089	21647.71
596.286	21504.35
596.482	21530.98
596.679	21449.06
596.876	21211.49
597.072	21086.57
597.269	21270.89
597.466	20789.61
597.662	20941.16
597.859	20998.51
598.055	20965.74
598.252	20719.98
598.448	20904.3
598.645	20834.67
598.841	20476.27
599.038	20830.57
599.234	20547.95
599.431	20115.83
599.627	20570.48
599.824	20550
600.02	20222.33
600.217	20418.93
600.413	20042.1
600.609	20035.96
600.806	19876.22
601.002	19962.23
601.198	19812.73
601.395	19540.35
601.591	19822.97
601.787	19628.42
601.984	19616.13
602.18	19718.53
602.376	19566.98
602.572	19407.23
602.769	19558.78
602.965	19339.65
603.161	19507.58
603.357	19214.73
603.553	19417.47
603.75	19251.59
603.946	19009.93
604.142	19194.25
604.338	18827.66
604.534	19005.83
604.73	18958.73
604.926	18923.91
605.122	18717.07
605.318	18411.92
605.514	18659.73
605.71	18502.03
605.906	18475.41
606.102	18600.33
606.298	18452.88
606.494	18268.56
606.69	18514.32
606.886	18274.71
607.082	17961.37
607.278	18340.24
607.474	17879.45
607.67	18119.06
607.866	17772.96
608.062	18194.84
608.257	17615.26
608.453	17629.6
608.649	17992.09
608.845	17570.21
609.041	17670.56
609.236	17609.12
609.432	17699.23
609.628	17723.8
609.824	17570.21
610.019	17662.37
610.215	17639.84
610.411	17885.59
610.606	17471.9
610.802	17490.34
610.998	17283.49
611.193	17476
611.389	17275.3
611.584	17383.84
611.78	16869.8
611.976	17244.58
612.171	17142.18
612.367	17199.52
612.562	17033.64
612.758	17058.21
612.953	16732.59
613.149	17263.01
613.344	16806.31
613.539	16955.82
613.735	16830.89
613.93	17007.02
614.126	16804.27
614.321	16603.57
614.517	16718.25
614.712	16927.14
614.907	16726.44
615.103	16771.5
615.298	16413.1
615.493	16812.46
615.688	16335.28
615.884	16748.97
616.079	16402.86
616.274	16325.04
616.47	16404.91
616.665	16347.57
616.86	16234.93
617.055	16331.19
617.25	16085.43
617.445	16454.06
617.641	15884.73
617.836	16347.57
618.031	15641.02
618.226	16261.55
618.421	15669.69
618.616	16124.34
618.811	15534.53
619.006	16062.9
619.201	15471.04
619.396	15755.71
619.591	15462.85
619.786	15638.97
619.981	15460.8
620.176	15346.11
620.371	15088.07
620.566	15284.67
620.761	15198.66
620.956	15161.8
621.151	14891.46
621.346	14985.67
621.541	15149.51
621.735	15018.44
621.93	14977.48
622.125	14858.7
622.32	14428.62
622.515	14420.43
622.709	14617.04
622.904	14461.39
623.099	14240.21
623.294	14322.13
623.488	14223.83
623.683	14246.35
623.878	14232.02
624.072	14172.63
624.267	13926.87
624.462	13814.23
624.656	13650.39
624.851	13920.73
625.046	13677.02
625.24	13502.94
625.435	13375.97
625.629	13496.8
625.824	13236.7
626.018	13476.32
626.213	13171.17
626.407	13195.75
626.602	12947.94
626.796	13105.63
626.991	12933.61
627.185	12798.44
627.38	12700.14
627.574	12702.18
627.768	12653.03
627.963	12380.65
628.157	12384.75
628.352	12517.87
628.546	12116.47
628.74	12263.92
628.935	12016.12
629.129	12259.82
629.323	11966.96
629.517	12268.02
629.712	11782.65
629.906	11913.72
630.1	11567.61
630.294	11741.69
630.489	11778.55
630.683	11758.07
630.877	11581.95
631.071	11553.27
631.265	11471.36
631.459	11428.35
631.653	11282.94
631.848	11457.02
632.042	11393.53
632.236	11280.89
632.43	10961.41
632.624	11033.09
632.818	11192.83
633.012	10977.8
633.206	10879.49
633.4	10834.44
633.594	10797.57
633.788	10832.39
633.982	10793.48
634.176	10652.17
634.369	10471.95
634.563	10572.3
634.757	10357.26
634.951	10603.02
635.145	10476.04
635.339	10179.09
635.533	10314.25
635.726	10164.75
635.92	10101.26
636.114	9841.17
636.308	10131.98
636.501	10037.78
636.695	9810.45
636.889	9882.13
637.083	9816.6
637.276	9804.31
637.47	9787.93
637.664	9644.57
637.857	9589.27
638.051	9427.48
638.244	9658.9
638.438	9570.84
638.632	9550.36
638.825	9409.05
639.019	9071.14
639.212	9296.41
639.406	9228.83
639.599	9095.71
639.793	9085.47
639.986	8927.78
640.18	8999.46
640.373	9085.47
640.567	8841.76
640.76	8829.48
640.954	8647.21
641.147	8759.84
641.34	8776.23
641.534	8727.08
641.727	8696.36
641.92	8458.79
642.114	8634.92
642.307	8464.94
642.5	8843.81
642.694	8442.41
642.887	8262.19
643.08	8282.67
643.273	8264.24
643.467	8069.68
643.66	7981.62
643.853	7987.76
644.046	8190.51
644.239	8012.34
644.432	7930.42
644.626	7858.74
644.819	7973.43
645.012	7854.64
645.205	7881.27
645.398	7815.73
645.591	7776.82
645.784	7569.98
645.977	7631.41
646.17	7664.18
646.363	7434.81
646.556	7586.36
646.749	7408.19
646.942	7270.97
647.135	7463.48
647.328	7391.8
647.521	7277.12
647.714	7266.88
647.907	7277.12
648.099	7047.74
648.292	7199.29
648.485	7197.24
648.678	6885.95
648.871	7025.22
649.064	6959.68
649.256	7000.64
649.449	6871.62
649.642	6859.33
649.835	6785.6
650.027	6900.29
650.22	6793.79
650.413	6681.16
650.605	6681.16
650.798	6644.29
650.991	6548.04
651.183	6660.68
651.376	6400.59
651.568	6486.6
651.761	6400.59
651.954	6470.22
652.146	6412.87
652.339	6392.39
652.531	6296.14
652.724	6376.01
652.916	6034
653.109	6140.49
653.301	6300.23
653.494	6259.28
653.686	6093.39
653.879	6027.85
654.071	6044.24
654.263	5884.5
654.456	6027.85
654.648	6074.96
654.84	5868.11
655.033	5808.72
655.225	5841.49
655.417	5888.59
655.61	5868.11
655.802	5636.69
655.994	5642.84
656.186	5565.01
656.379	5739.09
656.571	5751.38
656.763	5526.1
656.955	5485.14
657.148	5532.25
657.34	5626.45
657.532	5384.79
657.724	5487.19
657.916	5458.52
658.108	5595.73
658.3	5495.38
658.492	5327.45
658.684	5223
658.876	5253.72
659.068	5435.99
659.26	5241.43
659.452	5112.41
659.644	5288.54
659.836	5069.41
660.028	5069.41
660.22	5100.12
660.412	5059.17
660.604	5124.7
660.796	5093.98
660.988	5073.5
661.18	4893.28
661.372	4883.04
661.563	4868.7
661.755	4819.55
661.947	4870.75
662.139	4739.68
662.331	4852.32
662.522	4713.06
662.714	4668
662.906	4614.76
663.097	4754.02
663.289	4713.06
663.481	4721.25
663.673	4627.04
663.864	4577.89
664.056	4459.11
664.247	4541.03
664.439	4438.63
664.631	4522.6
664.822	4557.41
665.014	4526.69
665.205	4385.38
665.397	4395.62
665.588	4422.25
665.78	4467.3
665.971	4244.07
666.163	4432.49
666.354	4426.34
666.546	4340.33
666.737	4143.72
666.929	4156.01
667.12	4162.16
667.311	4272.75
667.503	4094.57
667.694	4287.08
667.885	4108.91
668.077	4174.44
668.268	3934.83
668.459	4022.89
668.651	3986.03
668.842	3967.6
669.033	3830.38
669.224	3988.08
669.416	4125.29
669.607	4053.61
669.798	3820.14
669.989	3975.79
670.18	3947.12
670.371	3928.69
670.563	3711.6
670.754	3857.01
670.945	3814
671.136	3756.66
671.327	3787.38
671.518	3764.85
671.709	3705.46
671.9	3779.18
672.091	3738.23
672.282	3689.07
672.473	3697.27
672.664	3697.27
672.855	3517.05
673.046	3746.42
673.237	3607.16
673.428	3770.99
673.619	3615.35
673.809	3535.48
674	3619.44
674.191	3578.48
674.382	3648.11
674.573	3519.09
674.764	3492.47
674.954	3519.09
675.145	3531.38
675.336	3338.87
675.527	3449.46
675.717	3396.21
675.908	3453.56
676.099	3369.59
676.289	3412.6
676.48	3367.54
676.671	3324.54
676.861	3371.64
677.052	3312.25
677.243	3254.9
677.433	3189.37
677.624	3322.49
677.814	3273.34
678.005	3310.2
678.195	3074.68
678.386	3295.86
678.576	3166.84
678.767	3183.23
678.957	3117.69
679.148	3277.43
679.338	3215.99
679.529	3011.2
679.719	3082.88
679.909	3263.1
680.1	3197.56
680.29	3211.9
680.481	3025.53
680.671	3041.92
680.861	3136.12
681.052	3213.95
681.242	3242.62
681.432	3103.36
681.622	3095.16
681.813	3003
682.003	2902.65
682.193	3031.68
682.383	3113.6
682.573	3009.15
682.764	3140.22
682.954	3066.49
683.144	3148.41
683.334	2988.67
683.524	3005.05
683.714	2837.12
683.904	3025.53
684.094	3033.72
684.284	2976.38
684.474	2935.42
684.664	2929.28
684.854	2898.56
685.044	2929.28
685.234	2910.85
685.424	2767.49
685.614	3037.82
685.804	2853.5
685.994	2900.61
686.184	2863.74
686.374	2951.81
686.564	2910.85
686.753	2818.69
686.943	2796.16
687.133	2742.91
687.323	2808.45
687.513	2722.43
687.702	2816.64
687.892	2697.86
688.082	2740.86
688.272	2609.79
688.461	2683.52
688.651	2824.83
688.841	2701.95
689.03	2738.82
689.22	2744.96
689.41	2771.58
689.599	2609.79
689.789	2601.6
689.979	2613.89
690.168	2708.1
690.358	2509.44
690.547	2560.64
690.737	2603.65
690.926	2620.03
691.116	2636.42
691.305	2669.19
691.495	2607.75
691.684	2470.53
691.874	2599.55
692.063	2620.03
692.252	2544.26
692.442	2452.1
692.631	2468.48
692.82	2656.9
693.01	2331.27
693.199	2484.87
693.388	2534.02
693.578	2501.25
693.767	2560.64
693.956	2615.94
694.146	2519.68
694.335	2513.54
694.524	2478.72
694.713	2411.14
694.902	2460.29
695.092	2431.62
695.281	2366.09
695.47	2427.53
695.659	2314.89
695.848	2443.91
696.037	2433.67
696.226	2415.24
696.415	2312.84
696.604	2402.95
696.793	2284.17
696.982	2384.52
697.171	2355.85
697.36	2435.72
697.549	2443.91
697.738	2263.69
697.927	2314.89
698.116	2306.7
698.305	2329.22
698.494	2343.56
698.683	2357.89
698.872	2263.69
699.061	2405
699.25	2247.3
699.438	2372.23
699.627	2230.92
699.816	2347.65
700.005	2241.16
700.193	2294.41
700.382	2382.47
700.571	2390.66
700.76	2206.34
700.948	2388.61
701.137	2247.3
701.326	2400.9
701.514	2230.92
701.703	2321.03
701.892	2314.89
702.08	2271.88
702.269	2241.16
702.457	2261.64
702.646	2294.41
702.834	2206.34
703.023	2337.41
703.212	2275.98
703.4	2228.87
703.589	2257.54
703.777	2273.93
703.965	2239.11
704.154	2173.58
704.342	2194.06
704.531	2245.26
704.719	2192.01
704.907	2337.41
705.096	2189.96
705.284	2255.5
705.472	2245.26
705.661	2259.59
705.849	2222.73
706.037	2280.07
706.226	2259.59
706.414	2255.5
706.602	2312.84
706.79	2271.88
706.979	2296.46
707.167	2214.54
707.355	2251.4
707.543	2282.12
707.731	2208.39
707.919	2321.03
708.107	2228.87
708.296	2275.98
708.484	2173.58
708.672	2161.29
708.86	2237.06
709.048	2296.46
709.236	2353.8
709.424	2247.3
709.612	2247.3
709.8	2185.87
709.988	2171.53
710.176	2323.08
710.364	2189.96
710.551	2370.18
710.739	2198.15
710.927	2183.82
711.115	2189.96
711.303	2282.12
711.491	2173.58
711.679	2249.35
711.866	2138.76
712.054	2222.73
712.242	2222.73
712.43	2284.17
712.617	2142.86
712.805	2206.34
712.993	2222.73
713.181	2132.62
713.368	2183.82
713.556	2189.96
713.744	2171.53
713.931	2284.17
714.119	2239.11
714.306	2116.23
714.494	2085.51
714.682	2173.58
714.869	2116.23
715.057	2122.38
715.244	2120.33
715.432	2198.15
715.619	2165.39
715.807	2214.54
715.994	2255.5
716.182	2083.47
716.369	2224.78
716.556	2280.07
716.744	2083.47
716.931	2175.63
717.119	2230.92
717.306	2140.81
717.493	2140.81
717.681	2159.24
717.868	2108.04
718.055	2169.48
718.242	2056.84
718.43	2198.15
718.617	2220.68
718.804	2206.34
718.991	2222.73
719.179	2189.96
719.366	2208.39
719.553	2011.79
719.74	2132.62
719.927	2142.86
720.114	2042.51
720.301	2198.15
720.488	2085.51
720.676	2124.43
720.863	2226.82
721.05	2124.43
721.237	2046.6
721.424	2042.51
721.611	2198.15
721.798	2087.56
721.985	2060.94
722.172	2144.91
722.358	1995.4
722.545	2161.29
722.732	2017.93
722.919	2183.82
723.106	2116.23
723.293	2058.89
723.48	2189.96
723.667	2011.79
723.853	2011.79
724.04	2173.58
724.227	2058.89
724.414	1993.36
724.6	1997.45
724.787	2181.77
724.974	2208.39
725.161	2067.08
725.347	1972.88
725.534	2087.56
725.72	1985.16
725.907	1940.11
726.094	2167.43
726.28	1956.49
726.467	1993.36
726.653	2108.04
726.84	2034.32
727.027	2038.41
727.213	1907.34
727.4	1991.31
727.586	2067.08
727.773	1997.45
727.959	2069.13
728.145	2034.32
728.332	2001.55
728.518	1905.29
728.705	2036.36
728.891	2038.41
729.077	1960.59
729.264	1952.4
729.45	1962.64
729.636	1970.83
729.823	2042.51
730.009	1997.45
730.195	1997.45
730.382	1952.4
730.568	1960.59
730.754	1880.72
730.94	1954.44
731.126	1880.72
731.313	1923.73
731.499	2058.89
731.685	1950.35
731.871	1946.25
732.057	1886.86
732.243	1997.45
732.429	1944.2
732.615	2022.03
732.801	2075.27
732.987	1968.78
733.173	2060.94
733.359	1976.97
733.545	1884.81
733.731	1927.82
733.917	2052.75
734.103	1979.02
734.289	1960.59
734.475	1866.38
734.661	1954.44
734.847	1905.29
735.033	1804.94
735.219	1933.97
735.404	1878.67
735.59	1845.9
735.776	1829.52
735.962	1993.36
736.148	1895.05
736.333	1970.83
736.519	1890.96
736.705	1915.53
736.89	1817.23
737.076	1862.29
737.262	1821.33
737.447	1835.66
737.633	1761.94
737.819	1927.82
738.004	1735.31
738.19	1870.48
738.375	1827.47
738.561	1821.33
738.747	1831.57
738.932	1768.08
739.118	1993.36
739.303	1825.42
739.489	1809.04
739.674	1923.73
739.859	1833.61
740.045	1866.38
740.23	1747.6
740.416	1690.26
740.601	1700.5
740.786	1804.94
740.972	1675.92
741.157	1741.46
741.342	1632.91
741.528	1790.61
741.713	1737.36
741.898	1739.41
742.084	1809.04
742.269	1710.74
742.454	1751.7
742.639	1712.78
742.824	1731.22
743.01	1630.87
743.195	1780.37
743.38	1673.87
743.565	1768.08
743.75	1682.06
743.935	1723.02
744.12	1698.45
744.305	1661.59
744.49	1583.76
744.675	1602.19
744.86	1591.95
745.045	1620.63
745.23	1596.05
745.415	1634.96
745.6	1555.09
745.785	1579.67
745.97	1579.67
746.155	1571.47
746.34	1620.63
746.525	1559.19
746.71	1518.23
746.895	1577.62
747.079	1528.47
747.264	1514.13
747.449	1557.14
747.634	1561.23
747.819	1493.65
748.003	1616.53
748.188	1430.16
748.373	1475.22
748.557	1362.58
748.742	1481.36
748.927	1471.12
749.111	1438.36
749.296	1409.69
749.481	1428.12
749.665	1481.36
749.85	1403.54
750.034	1428.12
750.219	1444.5
750.404	1346.2
750.588	1338.01
750.773	1362.58
750.957	1346.2
751.141	1440.4
751.326	1313.43
751.51	1370.77
751.695	1305.24
751.879	1399.45
752.064	1329.81
752.248	1251.99
752.432	1331.86
752.617	1223.32
752.801	1276.57
752.985	1260.18
753.17	1299.09
753.354	1362.58
753.538	1280.66
753.722	1276.57
753.907	1143.45
754.091	1217.18
754.275	1206.94
754.459	1208.98
754.643	1186.46
754.828	1129.11
755.012	1165.98
755.196	1196.7
755.38	1137.31
755.564	1151.64
755.748	1182.36
755.932	1094.3
756.116	1198.74
756.3	1043.1
756.484	1069.72
756.668	1092.25
756.852	1141.4
757.036	1047.19
757.22	1026.71
757.404	1053.34
757.588	1004.19
757.772	1102.49
757.956	1163.93
758.14	1102.49
758.323	1012.38
758.507	1118.87
758.691	989.85
758.875	1043.1
759.059	1034.91
759.242	1059.48
759.426	1051.29
759.61	975.52
759.794	1061.53
759.977	1049.24
760.161	1100.44
760.345	1018.52
760.528	1084.06
760.712	1075.87
760.895	985.76
761.079	922.27
761.263	1012.38
761.446	903.84
761.63	889.5
761.813	922.27
761.997	1006.24
762.18	895.64
762.364	985.76
762.547	862.88
762.731	912.03
762.914	944.8
763.098	791.2
763.281	936.6
763.464	944.8
763.648	952.99
763.831	983.71
764.015	928.41
764.198	934.56
764.381	891.55
764.564	907.93
764.748	914.08
764.931	787.1
765.114	914.08
765.297	846.49
765.481	764.57
765.664	858.78
765.847	881.31
766.03	887.45
766.213	823.97
766.397	758.43
766.58	807.58
766.763	838.3
766.946	832.16
767.129	813.73
767.312	805.53
767.495	830.11
767.678	809.63
767.861	783.01
768.044	715.42
768.227	852.64
768.41	791.2
768.593	772.77
768.776	834.21
768.959	883.36
769.142	909.98
769.324	838.3
769.507	791.2
769.69	727.71
769.873	793.25
770.056	791.2
770.239	686.75
770.421	791.2
770.604	772.77
770.787	742.05
770.97	750.24
771.152	723.62
771.335	776.86
771.518	723.62
771.7	690.85
771.883	871.07
772.066	817.82
772.248	795.29
772.431	799.39
772.613	674.46
772.796	660.13
772.978	766.62
773.161	742.05
773.343	768.67
773.526	699.04
773.708	723.62
773.891	651.94
774.073	772.77
774.256	580.26
774.438	699.04
774.621	580.26
774.803	690.85
774.985	627.36
775.168	660.13
775.35	666.27
775.532	641.7
775.715	604.83
775.897	699.04
776.079	590.5
776.261	574.11
776.444	639.65
776.626	694.94
776.808	641.7
776.99	596.64
777.173	617.12
777.355	613.03
777.537	537.25
777.719	527.01
777.901	555.68
778.083	653.98
778.265	565.92
778.447	598.69
778.629	539.3
778.811	580.26
778.993	637.6
779.175	617.12
779.357	586.4
779.539	596.64
779.721	486.05
779.903	578.21
780.085	527.01
780.267	502.43
780.449	500.39
780.631	529.06
780.812	576.16
780.994	643.74
781.176	527.01
781.358	527.01
781.54	445.09
781.721	625.31
781.903	424.61
782.085	461.48
782.267	608.93
782.448	510.63
782.63	529.06
782.812	559.78
782.993	467.62
783.175	479.91
783.357	512.67
783.538	486.05
783.72	461.48
783.901	416.42
784.083	518.82
784.264	428.71
784.446	391.84
784.627	395.94
784.809	412.32
784.99	412.32
785.172	416.42
785.353	414.37
785.535	371.36
785.716	412.32
785.897	436.9
786.079	463.52
786.26	387.75
786.441	371.36
786.623	381.6
786.804	324.26
786.985	453.28
787.167	447.14
787.348	416.42
787.529	430.76
787.71	332.45
787.891	406.18
788.073	426.66
788.254	357.03
788.435	430.76
788.616	359.08
788.797	334.5
788.978	346.79
789.159	406.18
789.34	463.52
789.522	379.56
789.703	330.41
789.884	266.92
790.065	330.41
790.246	346.79
790.427	363.17
790.607	397.99
790.788	361.13
790.969	359.08
791.15	420.52
791.331	379.56
791.512	350.89
791.693	363.17
791.874	309.93
792.054	350.89
792.235	334.5
792.416	371.36
792.597	285.35
792.778	359.08
792.958	363.17
793.139	287.4
793.32	309.93
793.5	387.75
793.681	299.69
793.862	277.16
794.042	275.11
794.223	322.21
794.404	234.15
794.584	242.34
794.765	291.49
794.945	322.21
795.126	248.49
795.306	297.64
795.487	322.21
795.667	332.45
795.848	309.93
796.028	271.01
796.209	289.45
796.389	316.07
796.57	357.03
796.75	307.88
796.93	250.53
797.111	281.25
797.291	316.07
797.471	221.86
797.652	252.58
797.832	178.86
798.012	268.97
798.192	205.48
798.373	225.96
798.553	223.91
798.733	262.82
798.913	217.77
799.093	273.06
799.274	248.49
799.454	205.48
799.634	201.38
799.814	336.55
799.994	266.92
800.174	223.91
800.354	223.91
800.534	256.68
800.714	273.06
800.894	195.24
801.074	232.1
801.254	217.77
801.434	320.17
801.614	223.91
801.794	260.77
801.974	879.26
802.154	176.81
802.334	207.53
802.514	141.99
802.693	207.53
802.873	209.58
803.053	283.3
803.233	158.38
803.413	191.14
803.592	191.14
803.772	127.66
803.952	182.95
804.131	211.62
804.311	201.38
804.491	225.96
804.67	232.1
804.85	199.34
805.03	225.96
805.209	225.96
805.389	160.42
805.568	252.58
805.748	129.7
805.928	209.58
806.107	234.15
806.287	166.57
806.466	221.86
806.646	191.14
806.825	172.71
807.004	154.28
807.184	201.38
807.363	240.29
807.543	180.9
807.722	185
807.901	129.7
808.081	189.1
808.26	53.93
808.439	203.43
808.619	133.8
808.798	176.81
808.977	121.51
809.156	185
809.336	187.05
809.515	178.86
809.694	88.75
809.873	115.37
810.052	166.57
810.231	133.8
810.411	154.28
810.59	260.77
810.769	180.9
810.948	160.42
811.127	66.22
811.306	170.66
811.485	109.22
811.664	252.58
811.843	123.56
812.022	176.81
812.201	191.14
812.38	144.04
812.559	146.09
812.737	187.05
812.916	154.28
813.095	185
813.274	166.57
813.453	187.05
813.632	113.32
813.811	193.19
813.989	70.31
814.168	98.99
814.347	152.23
814.526	125.61
814.704	150.18
814.883	205.48
815.062	109.22
815.24	133.8
815.419	127.66
815.598	160.42
815.776	113.32
815.955	223.91
816.133	107.18
816.312	154.28
816.49	103.08
816.669	182.95
816.847	150.18
817.026	144.04
817.204	123.56
817.383	141.99
817.561	84.65
817.74	166.57
817.918	117.42
818.097	117.42
818.275	82.6
818.453	127.66
818.632	113.32
818.81	160.42
818.988	88.75
819.167	146.09
819.345	78.51
819.523	113.32
819.701	117.42
819.879	53.93
820.058	133.8
820.236	101.03
820.414	10.92
820.592	125.61
820.77	211.62
820.948	45.74
821.127	76.46
821.305	135.85
821.483	76.46
821.661	166.57
821.839	141.99
822.017	84.65
822.195	76.46
822.373	127.66
822.551	150.18
822.729	193.19
822.907	133.8
823.085	144.04
823.262	60.07
823.44	176.81
823.618	141.99
823.796	76.46
823.974	107.18
824.152	105.13
824.329	109.22
824.507	84.65
824.685	105.13
824.863	76.46
825.04	78.51
825.218	150.18
825.396	76.46
825.574	160.42
825.751	109.22
825.929	90.79
826.107	88.75
826.284	117.42
826.462	74.41
826.639	158.38
826.817	144.04
826.994	103.08
827.172	64.17
827.349	201.38
827.527	127.66
827.704	72.36
827.882	166.57
828.059	92.84
828.237	84.65
828.414	135.85
828.591	62.12
828.769	156.33
828.946	96.94
829.124	94.89
829.301	131.75
829.478	107.18
829.655	117.42
829.833	121.51
830.01	53.93
830.187	92.84
830.364	37.55
830.542	111.27
830.719	96.94
830.896	109.22
831.073	103.08
831.25	55.98
831.427	76.46
831.604	80.55
831.782	55.98
831.959	117.42
832.136	113.32
832.313	152.23
832.49	-13.65
832.667	27.31
832.844	60.07
833.021	119.46
833.198	92.84
833.374	90.79
833.551	94.89
833.728	96.94
833.905	139.94
834.082	31.4
834.259	174.76
834.436	101.03
834.612	88.75
834.789	76.46
834.966	72.36
835.143	156.33
835.319	51.88
835.496	96.94
835.673	80.55
835.85	150.18
836.026	19.11
836.203	111.27
836.38	45.74
836.556	68.27
836.733	33.45
836.909	141.99
837.086	62.12
837.262	76.46
837.439	78.51
837.616	55.98
837.792	105.13
837.968	43.69
838.145	64.17
838.321	105.13
838.498	105.13
838.674	84.65
838.851	19.11
839.027	60.07
839.203	19.11
839.38	129.7
839.556	27.31
839.732	119.46
839.909	62.12
840.085	35.5
840.261	96.94
840.437	29.35
840.614	96.94
840.79	148.14
840.966	62.12
841.142	94.89
841.318	43.69
841.494	80.55
841.671	35.5
841.847	49.83
842.023	19.11
842.199	51.88
842.375	86.7
842.551	62.12
842.727	62.12
842.903	125.61
843.079	2.73
843.255	15.02
843.431	117.42
843.607	125.61
843.783	-5.46
843.959	76.46
844.134	2.73
844.31	51.88
844.486	55.98
844.662	6.83
844.838	45.74
845.013	94.89
845.189	51.88
845.365	29.35
845.541	121.51
845.716	35.5
845.892	94.89
846.068	27.31
846.244	-34.13
846.419	55.98
846.595	27.31
846.77	25.26
846.946	64.17
847.122	45.74
847.297	-7.51
847.473	64.17
847.648	60.07
847.824	82.6
847.999	53.93
848.175	92.84
848.35	43.69
848.526	6.83
848.701	45.74
848.876	105.13
849.052	6.83
849.227	74.41
849.403	29.35
849.578	74.41
849.753	51.88
849.929	39.59
850.104	101.03
850.279	25.26
850.454	37.55
850.63	101.03
850.805	51.88
850.98	101.03
851.155	37.55
851.33	29.35
851.505	39.59
851.681	101.03
851.856	35.5
852.031	10.92
852.206	123.56
852.381	76.46
852.556	76.46
852.731	62.12
852.906	51.88
853.081	125.61
853.256	88.75
853.431	111.27
853.606	27.31
853.781	43.69
853.956	-11.61
854.131	94.89
854.305	-1.37
854.48	19.11
854.655	-15.7
854.83	60.07
855.005	92.84
855.18	76.46
855.354	125.61
855.529	10.92
855.704	35.5
855.879	86.7
856.053	45.74
856.228	70.31
856.403	53.93
856.577	29.35
856.752	37.55
856.926	94.89
857.101	60.07
857.276	-5.46
857.45	51.88
857.625	60.07
857.799	35.5
857.974	60.07
858.148	-5.46
858.323	92.84
858.497	101.03
858.672	-58.71
858.846	27.31
859.02	12.97
859.195	39.59
859.369	-52.56
859.543	84.65
859.718	60.07
859.892	35.5
860.066	84.65
860.241	12.97
860.415	96.94
860.589	8.87
860.763	17.07
860.938	-54.61
861.112	51.88
861.286	19.11
861.46	78.51
861.634	-3.41
861.808	92.84
861.982	68.27
862.157	101.03
862.331	19.11
862.505	35.5
862.679	43.69
862.853	-17.75
863.027	4.78
863.201	21.16
863.375	70.31
863.549	111.27
863.722	47.79
863.896	84.65
864.07	6.83
864.244	84.65
864.418	103.08
864.592	19.11
864.766	68.27
864.939	80.55
865.113	-19.8
865.287	78.51
865.461	-23.89
865.634	121.51
865.808	72.36
865.982	10.92
866.156	39.59
866.329	0.68
866.503	39.59
866.676	88.75
866.85	25.26
867.024	-13.65
867.197	92.84
867.371	76.46
867.544	45.74
867.718	19.11
867.891	-27.99
868.065	-9.56
868.238	60.07
868.412	84.65
868.585	68.27
868.759	21.16
868.932	15.02
869.105	-25.94
869.279	-34.13
869.452	12.97
869.625	35.5
869.799	39.59
869.972	45.74
870.145	76.46
870.319	84.65
870.492	55.98
870.665	41.64
870.838	60.07
871.011	-54.61
871.185	19.11
871.358	141.99
871.531	68.27
871.704	23.21
871.877	45.74
872.05	27.31
872.223	-62.8
872.396	-1.37
872.569	70.31
872.742	-9.56
872.915	88.75
873.088	4.78
873.261	23.21
873.434	117.42
873.607	111.27
873.78	125.61
873.953	2.73
874.126	62.12
874.299	10.92
874.471	55.98
874.644	35.5
874.817	33.45
874.99	70.31
875.163	-5.46
875.335	-3.41
875.508	74.41
875.681	88.75
875.853	10.92
876.026	0.68
876.199	4.78
876.371	-21.85
876.544	-9.56
876.717	10.92
876.889	31.4
877.062	-38.23
877.234	-27.99
877.407	51.88
877.579	10.92
877.752	37.55
877.924	-46.42
878.097	55.98
878.269	2.73
878.442	23.21
878.614	6.83
878.786	76.46
878.959	17.07
879.131	53.93
879.303	10.92
879.476	35.5
879.648	43.69
879.82	-19.8
879.993	76.46
880.165	21.16
880.337	92.84
880.509	60.07
880.681	-38.23
880.854	27.31
881.026	64.17
881.198	166.57
881.37	-56.66
881.542	62.12
881.714	88.75
881.886	27.31
882.058	27.31
882.23	10.92
882.402	2.73
882.574	39.59
882.746	64.17
882.918	84.65
883.09	41.64
883.262	76.46
883.434	-11.61
883.606	39.59
883.778	70.31
883.95	60.07
884.122	70.31
884.293	12.97
884.465	21.16
884.637	47.79
884.809	-5.46
884.98	68.27
885.152	-19.8
885.324	84.65
885.496	10.92
885.667	94.89
885.839	19.11
886.011	-5.46
886.182	45.74
886.354	107.18
886.525	17.07
886.697	19.11
886.869	-50.52
887.04	12.97
887.212	43.69
887.383	76.46
887.555	47.79
887.726	33.45
887.897	60.07
888.069	-19.8
888.24	4.78
888.412	60.07
888.583	-60.76
888.754	45.74
888.926	-71
889.097	-44.37
889.268	62.12
889.44	2.73
889.611	-30.04
889.782	64.17
889.953	-21.85
890.125	144.04
890.296	-13.65
890.467	41.64
890.638	19.11
890.809	84.65
890.98	-1.37
891.151	58.03
891.323	72.36
891.494	6.83
891.665	-1.37
891.836	27.31
892.007	4.78
892.178	60.07
892.349	-19.8
892.52	29.35
892.691	-21.85
892.862	43.69
893.032	23.21
893.203	80.55
893.374	27.31
893.545	-21.85
893.716	49.83
893.887	21.16
894.057	2.73
894.228	33.45
894.399	-1.37
894.57	58.03
894.74	109.22
894.911	78.51
895.082	55.98
895.253	105.13
895.423	47.79
895.594	-13.65
895.764	51.88
895.935	-11.61
896.106	6.83
896.276	62.12
896.447	0.68
896.617	10.92
896.788	-40.28
896.958	31.4
897.129	0.68
897.299	51.88
897.47	-5.46
897.64	23.21
897.81	19.11
897.981	68.27
898.151	-27.99
898.322	43.69
898.492	25.26
898.662	6.83
898.832	35.5
899.003	-32.08
899.173	21.16
899.343	43.69
899.513	-36.18
