Data from USB4F104151__92__14-43-34-614.txt Node

Date: Thu Mar 13 14:43:34 EDT 2025
User: louis
Spectrometer: USB4F10415
Trigger mode: 4
Integration Time (sec): 2.000000E-2
Scans to average: 1
Electric dark correction enabled: true
Nonlinearity correction enabled: false
Boxcar width: 0
XAxis mode: Wavelengths
Number of Pixels in Spectrum: 3648
>>>>>Begin Spectral Data<<<<<
178.204	-100.52
178.424	-100.52
178.644	-100.52
178.864	-137.38
179.084	-106.67
179.304	14.17
179.524	8.02
179.744	-30.89
179.964	10.07
180.184	-0.17
180.404	14.17
180.624	-22.7
180.844	38.74
181.064	-59.56
181.283	24.4
181.503	-39.08
181.723	42.84
181.943	-41.13
182.163	112.47
182.383	38.74
182.602	-14.51
182.822	67.41
183.042	65.36
183.262	18.26
183.482	44.88
183.701	38.74
183.921	-32.94
184.141	14.17
184.361	46.93
184.58	10.07
184.8	63.32
185.02	57.17
185.239	57.17
185.459	14.17
185.679	130.9
185.898	-47.27
186.118	22.36
186.338	81.75
186.557	71.51
186.777	-34.99
186.997	28.5
187.216	63.32
187.436	-0.17
187.655	120.66
187.875	14.17
188.095	38.74
188.314	65.36
188.534	87.89
188.753	30.55
188.973	104.28
189.192	46.93
189.412	79.7
189.631	18.26
189.851	38.74
190.07	-32.94
190.29	26.45
190.509	-32.94
190.729	-2.22
190.948	55.12
191.168	141.14
191.387	116.56
191.607	-16.55
191.826	34.64
192.045	24.4
192.265	87.89
192.484	16.21
192.704	48.98
192.923	-45.23
193.142	63.32
193.362	87.89
193.581	28.5
193.8	-34.99
194.02	69.46
194.239	-18.6
194.458	63.32
194.678	44.88
194.897	87.89
195.116	73.56
195.335	1.88
195.555	-2.22
195.774	89.94
195.993	79.7
196.212	-45.23
196.432	-49.32
196.651	18.26
196.87	10.07
197.089	73.56
197.308	10.07
197.528	-0.17
197.747	-34.99
197.966	40.79
198.185	108.37
198.404	30.55
198.623	75.6
198.842	51.03
199.062	89.94
199.281	118.61
199.5	36.69
199.719	59.22
199.938	83.8
200.157	24.4
200.376	28.5
200.595	40.79
200.814	-8.36
201.033	48.98
201.252	-22.7
201.471	-0.17
201.69	73.56
201.909	124.76
202.128	-6.31
202.347	61.27
202.566	-8.36
202.785	38.74
203.004	53.08
203.223	24.4
203.442	18.26
203.661	5.97
203.879	10.07
204.098	32.6
204.317	18.26
204.536	32.6
204.755	16.21
204.974	44.88
205.193	-2.22
205.411	-6.31
205.63	81.75
205.849	57.17
206.068	55.12
206.287	104.28
206.505	14.17
206.724	34.64
206.943	16.21
207.162	63.32
207.381	87.89
207.599	-12.46
207.818	16.21
208.037	-41.13
208.255	16.21
208.474	-0.17
208.693	38.74
208.911	-67.75
209.13	-47.27
209.349	18.26
209.567	51.03
209.786	22.36
210.005	48.98
210.223	18.26
210.442	-26.79
210.661	5.97
210.879	38.74
211.098	-32.94
211.316	81.75
211.535	71.51
211.753	30.55
211.972	83.8
212.191	22.36
212.409	46.93
212.628	79.7
212.846	55.12
213.065	71.51
213.283	59.22
213.502	53.08
213.72	55.12
213.938	112.47
214.157	96.08
214.375	83.8
214.594	112.47
214.812	38.74
215.031	-16.55
215.249	44.88
215.467	71.51
215.686	137.04
215.904	48.98
216.122	-16.55
216.341	40.79
216.559	1.88
216.778	46.93
216.996	30.55
217.214	30.55
217.432	38.74
217.651	89.94
217.869	24.4
218.087	-0.17
218.306	8.02
218.524	32.6
218.742	-32.94
218.96	118.61
219.179	18.26
219.397	32.6
219.615	57.17
219.833	8.02
220.051	5.97
220.27	87.89
220.488	-8.36
220.706	59.22
220.924	48.98
221.142	10.07
221.36	-0.17
221.578	83.8
221.796	-14.51
222.015	-2.22
222.233	55.12
222.451	55.12
222.669	-73.9
222.887	137.04
223.105	8.02
223.323	-2.22
223.541	65.36
223.759	83.8
223.977	-0.17
224.195	137.04
224.413	48.98
224.631	48.98
224.849	38.74
225.067	135
225.285	51.03
225.503	38.74
225.721	-0.17
225.939	104.28
226.157	96.08
226.375	73.56
226.592	18.26
226.81	14.17
227.028	67.41
227.246	169.81
227.464	26.45
227.682	87.89
227.9	14.17
228.117	38.74
228.335	67.41
228.553	-59.56
228.771	67.41
228.989	79.7
229.206	34.64
229.424	65.36
229.642	-20.65
229.86	48.98
230.077	57.17
230.295	10.07
230.513	46.93
230.731	48.98
230.948	-18.6
231.166	73.56
231.384	63.32
231.601	38.74
231.819	149.33
232.037	30.55
232.254	-10.41
232.472	51.03
232.689	71.51
232.907	34.64
233.125	-26.79
233.342	-6.31
233.56	-0.17
233.777	44.88
233.995	22.36
234.213	141.14
234.43	38.74
234.648	55.12
234.865	1.88
235.083	77.65
235.3	-0.17
235.518	-24.75
235.735	85.84
235.953	106.32
236.17	20.31
236.388	79.7
236.605	55.12
236.822	114.52
237.04	89.94
237.257	63.32
237.475	20.31
237.692	122.71
237.909	16.21
238.127	46.93
238.344	30.55
238.562	112.47
238.779	-14.51
238.996	42.84
239.214	71.51
239.431	32.6
239.648	40.79
239.865	87.89
240.083	-8.36
240.3	-18.6
240.517	16.21
240.735	38.74
240.952	153.43
241.169	-10.41
241.386	-6.31
241.603	5.97
241.821	26.45
242.038	30.55
242.255	75.6
242.472	30.55
242.689	10.07
242.907	81.75
243.124	5.97
243.341	-49.32
243.558	-37.03
243.775	46.93
243.992	-10.41
244.209	87.89
244.426	57.17
244.643	63.32
244.86	42.84
245.078	-24.75
245.295	122.71
245.512	55.12
245.729	55.12
245.946	124.76
246.163	8.02
246.38	32.6
246.597	145.24
246.814	51.03
247.031	53.08
247.248	18.26
247.464	89.94
247.681	5.97
247.898	22.36
248.115	81.75
248.332	12.12
248.549	79.7
248.766	83.8
248.983	1.88
249.2	102.23
249.417	30.55
249.633	59.22
249.85	5.97
250.067	30.55
250.284	14.17
250.501	20.31
250.717	87.89
250.934	94.04
251.151	-26.79
251.368	14.17
251.585	-10.41
251.801	-10.41
252.018	-10.41
252.235	40.79
252.451	75.6
252.668	46.93
252.885	81.75
253.102	-18.6
253.318	59.22
253.535	-14.51
253.752	40.79
253.968	8.02
254.185	-20.65
254.401	36.69
254.618	96.08
254.835	63.32
255.051	73.56
255.268	5.97
255.484	51.03
255.701	38.74
255.917	59.22
256.134	44.88
256.351	24.4
256.567	-12.46
256.784	34.64
257	8.02
257.217	-51.37
257.433	71.51
257.65	-18.6
257.866	71.51
258.082	55.12
258.299	-63.66
258.515	53.08
258.732	20.31
258.948	75.6
259.165	8.02
259.381	24.4
259.597	38.74
259.814	57.17
260.03	96.08
260.246	81.75
260.463	96.08
260.679	63.32
260.895	38.74
261.112	46.93
261.328	5.97
261.544	1.88
261.761	55.12
261.977	-2.22
262.193	42.84
262.409	-16.55
262.626	10.07
262.842	18.26
263.058	-18.6
263.274	-0.17
263.49	40.79
263.707	79.7
263.923	65.36
264.139	26.45
264.355	104.28
264.571	40.79
264.787	32.6
265.004	40.79
265.22	-43.18
265.436	67.41
265.652	-14.51
265.868	14.17
266.084	8.02
266.3	57.17
266.516	14.17
266.732	8.02
266.948	-12.46
267.164	91.99
267.38	34.64
267.596	112.47
267.812	55.12
268.028	87.89
268.244	8.02
268.46	53.08
268.676	79.7
268.892	65.36
269.108	55.12
269.324	38.74
269.54	-59.56
269.756	38.74
269.972	34.64
270.188	24.4
270.403	96.08
270.619	75.6
270.835	81.75
271.051	24.4
271.267	75.6
271.483	38.74
271.698	57.17
271.914	-32.94
272.13	30.55
272.346	83.8
272.562	65.36
272.777	130.9
272.993	8.02
273.209	42.84
273.425	106.32
273.64	36.69
273.856	-10.41
274.072	46.93
274.287	-30.89
274.503	16.21
274.719	14.17
274.934	57.17
275.15	30.55
275.366	22.36
275.581	40.79
275.797	57.17
276.012	46.93
276.228	10.07
276.444	114.52
276.659	63.32
276.875	14.17
277.09	32.6
277.306	100.18
277.521	65.36
277.737	55.12
277.952	-20.65
278.168	94.04
278.383	-24.75
278.599	128.85
278.814	89.94
279.03	28.5
279.245	100.18
279.461	85.84
279.676	100.18
279.892	-26.79
280.107	8.02
280.322	32.6
280.538	22.36
280.753	55.12
280.969	59.22
281.184	8.02
281.399	22.36
281.615	63.32
281.83	77.65
282.045	-22.7
282.26	5.97
282.476	-2.22
282.691	42.84
282.906	81.75
283.122	46.93
283.337	26.45
283.552	112.47
283.767	40.79
283.983	28.5
284.198	5.97
284.413	26.45
284.628	-12.46
284.843	14.17
285.058	53.08
285.274	22.36
285.489	-34.99
285.704	55.12
285.919	55.12
286.134	16.21
286.349	30.55
286.564	-34.99
286.779	59.22
286.995	16.21
287.21	8.02
287.425	102.23
287.64	71.51
287.855	8.02
288.07	-6.31
288.285	18.26
288.5	40.79
288.715	87.89
288.93	1.88
289.145	32.6
289.36	36.69
289.575	8.02
289.79	98.13
290.004	79.7
290.219	42.84
290.434	-24.75
290.649	-12.46
290.864	-26.79
291.079	20.31
291.294	34.64
291.509	42.84
291.724	-26.79
291.938	61.27
292.153	40.79
292.368	26.45
292.583	55.12
292.798	63.32
293.012	-4.27
293.227	16.21
293.442	22.36
293.657	44.88
293.871	114.52
294.086	1.88
294.301	124.76
294.516	153.43
294.73	89.94
294.945	-32.94
295.16	1.88
295.374	36.69
295.589	14.17
295.804	1.88
296.018	38.74
296.233	55.12
296.447	69.46
296.662	-2.22
296.877	-24.75
297.091	42.84
297.306	22.36
297.52	18.26
297.735	-14.51
297.949	-2.22
298.164	30.55
298.378	34.64
298.593	3.93
298.807	38.74
299.022	14.17
299.236	73.56
299.451	122.71
299.665	77.65
299.88	42.84
300.094	5.97
300.309	8.02
300.523	75.6
300.737	-26.79
300.952	48.98
301.166	94.04
301.381	10.07
301.595	51.03
301.809	65.36
302.024	30.55
302.238	53.08
302.452	79.7
302.667	14.17
302.881	87.89
303.095	73.56
303.309	149.33
303.524	73.56
303.738	-2.22
303.952	24.4
304.166	38.74
304.381	-2.22
304.595	71.51
304.809	-0.17
305.023	75.6
305.237	24.4
305.452	-2.22
305.666	55.12
305.88	34.64
306.094	75.6
306.308	-24.75
306.522	-12.46
306.736	98.13
306.95	94.04
307.164	24.4
307.379	65.36
307.593	128.85
307.807	22.36
308.021	22.36
308.235	65.36
308.449	-26.79
308.663	8.02
308.877	128.85
309.091	40.79
309.305	77.65
309.519	5.97
309.733	104.28
309.947	10.07
310.161	55.12
310.374	87.89
310.588	63.32
310.802	5.97
311.016	-12.46
311.23	89.94
311.444	14.17
311.658	38.74
311.872	63.32
312.085	34.64
312.299	36.69
312.513	104.28
312.727	40.79
312.941	48.98
313.154	46.93
313.368	34.64
313.582	61.27
313.796	14.17
314.009	24.4
314.223	94.04
314.437	-22.7
314.651	18.26
314.864	-2.22
315.078	89.94
315.292	-26.79
315.505	75.6
315.719	46.93
315.933	46.93
316.146	71.51
316.36	5.97
316.573	18.26
316.787	63.32
317.001	51.03
317.214	55.12
317.428	32.6
317.641	38.74
317.855	-10.41
318.068	30.55
318.282	71.51
318.495	108.37
318.709	91.99
318.922	32.6
319.136	22.36
319.349	108.37
319.563	46.93
319.776	96.08
319.99	-2.22
320.203	89.94
320.417	73.56
320.63	59.22
320.843	38.74
321.057	63.32
321.27	46.93
321.483	-12.46
321.697	18.26
321.91	96.08
322.124	42.84
322.337	65.36
322.55	87.89
322.763	75.6
322.977	-8.36
323.19	-6.31
323.403	55.12
323.617	87.89
323.83	-2.22
324.043	59.22
324.256	55.12
324.469	87.89
324.683	48.98
324.896	5.97
325.109	57.17
325.322	5.97
325.535	38.74
325.748	5.97
325.962	63.32
326.175	14.17
326.388	14.17
326.601	32.6
326.814	51.03
327.027	132.95
327.24	116.56
327.453	3.93
327.666	28.5
327.879	55.12
328.092	42.84
328.305	100.18
328.518	-8.36
328.731	-24.75
328.944	63.32
329.157	20.31
329.37	130.9
329.583	79.7
329.796	61.27
330.009	8.02
330.222	126.8
330.435	40.79
330.648	34.64
330.861	77.65
331.073	51.03
331.286	79.7
331.499	14.17
331.712	38.74
331.925	-0.17
332.138	75.6
332.35	51.03
332.563	5.97
332.776	118.61
332.989	42.84
333.202	18.26
333.414	8.02
333.627	14.17
333.84	-49.32
334.053	14.17
334.265	48.98
334.478	18.26
334.691	65.36
334.903	8.02
335.116	-10.41
335.329	87.89
335.541	22.36
335.754	147.28
335.966	34.64
336.179	104.28
336.392	57.17
336.604	104.28
336.817	24.4
337.029	59.22
337.242	85.84
337.454	3.93
337.667	24.4
337.88	36.69
338.092	38.74
338.305	-0.17
338.517	59.22
338.729	1.88
338.942	14.17
339.154	-0.17
339.367	22.36
339.579	126.8
339.792	-4.27
340.004	85.84
340.217	5.97
340.429	104.28
340.641	22.36
340.854	63.32
341.066	96.08
341.278	67.41
341.491	98.13
341.703	8.02
341.915	161.62
342.128	85.84
342.34	14.17
342.552	18.26
342.764	55.12
342.977	-67.75
343.189	65.36
343.401	96.08
343.613	-6.31
343.826	104.28
344.038	-24.75
344.25	65.36
344.462	-2.22
344.674	18.26
344.886	67.41
345.099	55.12
345.311	-0.17
345.523	-28.84
345.735	-10.41
345.947	42.84
346.159	96.08
346.371	22.36
346.583	-10.41
346.795	91.99
347.007	67.41
347.219	73.56
347.431	55.12
347.643	161.62
347.855	30.55
348.067	124.76
348.279	51.03
348.491	26.45
348.703	5.97
348.915	128.85
349.127	-14.51
349.339	57.17
349.551	26.45
349.763	46.93
349.975	63.32
350.187	1.88
350.399	57.17
350.61	67.41
350.822	-47.27
351.034	46.93
351.246	5.97
351.458	96.08
351.669	159.57
351.881	67.41
352.093	61.27
352.305	96.08
352.517	59.22
352.728	57.17
352.94	108.37
353.152	128.85
353.363	-20.65
353.575	73.56
353.787	102.23
353.999	14.17
354.21	91.99
354.422	59.22
354.633	16.21
354.845	-10.41
355.057	-24.75
355.268	65.36
355.48	10.07
355.692	-20.65
355.903	-26.79
356.115	22.36
356.326	46.93
356.538	128.85
356.749	46.93
356.961	139.09
357.172	63.32
357.384	48.98
357.595	32.6
357.807	71.51
358.018	-6.31
358.23	30.55
358.441	153.43
358.653	69.46
358.864	98.13
359.075	10.07
359.287	5.97
359.498	55.12
359.709	24.4
359.921	81.75
360.132	46.93
360.344	36.69
360.555	8.02
360.766	104.28
360.977	22.36
361.189	-14.51
361.4	-8.36
361.611	71.51
361.823	81.75
362.034	98.13
362.245	110.42
362.456	34.64
362.667	38.74
362.879	22.36
363.09	-18.6
363.301	79.7
363.512	63.32
363.723	112.47
363.935	63.32
364.146	147.28
364.357	10.07
364.568	46.93
364.779	-32.94
364.99	128.85
365.201	-18.6
365.412	79.7
365.623	38.74
365.834	83.8
366.045	55.12
366.256	122.71
366.467	10.07
366.678	55.12
366.889	75.6
367.1	73.56
367.311	8.02
367.522	5.97
367.733	46.93
367.944	79.7
368.155	-8.36
368.366	96.08
368.577	98.13
368.788	91.99
368.999	46.93
369.209	28.5
369.42	132.95
369.631	124.76
369.842	71.51
370.053	22.36
370.264	75.6
370.474	67.41
370.685	59.22
370.896	26.45
371.107	63.32
371.317	94.04
371.528	-30.89
371.739	96.08
371.95	106.32
372.16	65.36
372.371	-0.17
372.582	40.79
372.792	79.7
373.003	108.37
373.214	26.45
373.424	79.7
373.635	5.97
373.846	18.26
374.056	34.64
374.267	51.03
374.477	48.98
374.688	63.32
374.898	38.74
375.109	91.99
375.319	100.18
375.53	38.74
375.74	79.7
375.951	10.07
376.161	71.51
376.372	44.88
376.582	71.51
376.793	73.56
377.003	-10.41
377.214	10.07
377.424	75.6
377.635	30.55
377.845	-0.17
378.055	24.4
378.266	16.21
378.476	22.36
378.686	5.97
378.897	65.36
379.107	1.88
379.317	5.97
379.528	-30.89
379.738	98.13
379.948	14.17
380.158	79.7
380.369	-24.75
380.579	112.47
380.789	51.03
380.999	26.45
381.21	112.47
381.42	102.23
381.63	114.52
381.84	63.32
382.05	57.17
382.261	73.56
382.471	100.18
382.681	-0.17
382.891	24.4
383.101	48.98
383.311	8.02
383.521	55.12
383.731	69.46
383.941	73.56
384.151	79.7
384.361	100.18
384.571	46.93
384.781	44.88
384.991	69.46
385.201	79.7
385.411	57.17
385.621	46.93
385.831	67.41
386.041	85.84
386.251	65.36
386.461	57.17
386.671	34.64
386.881	114.52
387.091	14.17
387.301	122.71
387.511	89.94
387.72	128.85
387.93	-18.6
388.14	24.4
388.35	-28.84
388.56	65.36
388.769	100.18
388.979	20.31
389.189	14.17
389.399	145.24
389.609	12.12
389.818	34.64
390.028	-10.41
390.238	40.79
390.447	24.4
390.657	61.27
390.867	77.65
391.076	120.66
391.286	98.13
391.496	81.75
391.705	85.84
391.915	46.93
392.125	26.45
392.334	51.03
392.544	44.88
392.753	71.51
392.963	16.21
393.172	87.89
393.382	-34.99
393.591	83.8
393.801	36.69
394.01	112.47
394.22	67.41
394.429	10.07
394.639	149.33
394.848	40.79
395.058	130.9
395.267	98.13
395.477	55.12
395.686	67.41
395.895	137.04
396.105	120.66
396.314	122.71
396.524	63.32
396.733	102.23
396.942	104.28
397.152	96.08
397.361	149.33
397.57	89.94
397.78	79.7
397.989	34.64
398.198	145.24
398.407	120.66
398.617	98.13
398.826	73.56
399.035	55.12
399.244	96.08
399.453	63.32
399.663	137.04
399.872	116.56
400.081	81.75
400.29	118.61
400.499	87.89
400.708	100.18
400.917	75.6
401.127	34.64
401.336	28.5
401.545	153.43
401.754	100.18
401.963	178
402.172	34.64
402.381	36.69
402.59	132.95
402.799	96.08
403.008	67.41
403.217	114.52
403.426	128.85
403.635	100.18
403.844	165.71
404.053	163.67
404.262	165.71
404.471	210.77
404.68	114.52
404.888	141.14
405.097	130.9
405.306	126.8
405.515	202.58
405.724	141.14
405.933	112.47
406.142	173.91
406.35	182.1
406.559	145.24
406.768	155.47
406.977	221.01
407.185	264.02
407.394	235.35
407.603	231.25
407.812	165.71
408.02	180.05
408.229	206.67
408.438	194.39
408.646	137.04
408.855	251.73
409.064	294.74
409.272	196.43
409.481	272.21
409.69	194.39
409.898	206.67
410.107	268.11
410.315	309.07
410.524	235.35
410.733	292.69
410.941	302.93
411.15	292.69
411.358	270.16
411.567	429.9
411.775	321.36
411.984	356.18
412.192	409.42
412.401	374.61
412.609	425.81
412.818	436.05
413.026	489.29
413.234	390.99
413.443	487.25
413.651	423.76
413.86	546.64
414.068	515.92
414.276	575.31
414.485	542.54
414.693	530.25
414.901	606.03
415.11	657.23
415.318	622.41
415.526	591.69
415.734	659.28
415.943	640.84
416.151	739.15
416.359	712.52
416.567	730.95
416.776	808.78
416.984	880.46
417.192	866.12
417.4	784.2
417.608	800.59
417.817	958.28
418.025	943.94
418.233	1001.29
418.441	993.09
418.649	1062.73
418.857	1226.56
419.065	1185.6
419.273	1128.26
419.481	1156.93
419.689	1193.8
419.897	1302.34
420.105	1247.04
420.313	1365.82
420.521	1431.36
420.729	1449.79
420.937	1521.47
421.145	1580.86
421.353	1656.64
421.561	1570.62
421.769	1759.03
421.977	1832.76
422.185	1744.7
422.393	1847.1
422.601	1972.02
422.809	1982.26
423.017	1974.07
423.224	2017.08
423.432	2117.43
423.64	2072.37
423.848	2258.74
424.056	2352.95
424.263	2461.49
424.471	2373.43
424.679	2479.92
424.887	2580.27
425.094	2684.72
425.302	2856.75
425.51	2971.43
425.718	2914.09
425.925	2928.42
426.133	3065.64
426.341	3307.3
426.548	3352.35
426.756	3243.81
426.964	3376.93
427.171	3692.32
427.379	3757.85
427.586	3737.37
427.794	3823.39
428.001	4044.57
428.209	4151.06
428.417	4187.93
428.624	4531.98
428.832	4417.3
429.039	4405.01
429.247	4462.35
429.454	4738.83
429.662	5179.14
429.869	4849.42
430.076	5181.19
430.284	5058.31
430.491	5287.68
430.699	5377.8
430.906	5588.74
431.114	5416.71
431.321	5971.71
431.528	5742.33
431.736	6225.65
431.943	6504.18
432.15	6287.09
432.358	6381.3
432.565	6766.32
432.772	6717.17
432.979	7120.62
433.187	7266.02
433.394	7149.29
433.601	7892.7
433.808	7694.05
434.016	7640.8
434.223	8175.32
434.43	8361.69
434.637	8459.99
434.844	9033.42
435.052	8910.54
435.259	8986.32
435.466	9230.02
435.673	9002.7
435.88	9586.37
436.087	10069.69
436.294	10182.33
436.501	9866.94
436.708	10157.75
436.915	10503.86
437.122	11085.48
437.329	10663.6
437.537	11136.68
437.743	11269.8
437.95	11329.19
438.157	11675.3
438.364	12066.46
438.571	12170.91
438.778	12199.58
438.985	13334.15
439.192	12736.15
439.399	13278.86
439.606	12861.07
439.813	13719.17
440.02	14438.01
440.227	14214.78
440.433	14124.67
440.64	14132.86
440.847	14464.63
441.054	14780.02
441.261	15666.79
441.467	15871.59
441.674	15896.16
441.881	16428.63
442.088	16133.73
442.294	16483.93
442.501	16518.75
442.708	16811.6
442.914	17825.35
443.121	18462.27
443.328	17784.39
443.534	19265.07
443.741	18607.67
443.948	18394.68
444.154	19666.47
444.361	19609.13
444.568	19809.83
444.774	19877.41
444.981	20121.12
445.187	20385.31
445.394	21497.36
445.6	20995.6
445.807	23346.67
446.013	22111.75
446.22	22640.12
446.426	23418.35
446.633	23805.42
446.839	24845.79
447.046	23528.94
447.252	24872.41
447.459	25013.72
447.665	24743.39
447.871	25789.9
448.078	26830.27
448.284	25486.8
448.491	26381.76
448.697	27329.97
448.903	27751.85
449.11	28171.69
449.316	27645.36
449.522	28112.3
449.728	29111.71
449.935	29216.15
450.141	29035.93
450.347	29494.68
450.553	28997.02
450.76	29031.83
450.966	30170.5
451.172	29785.49
451.378	30623.11
451.584	29826.45
451.791	31059.32
451.997	30383.49
452.203	31026.56
452.409	31341.94
452.615	30958.97
452.821	29738.38
453.027	29822.35
453.233	30993.79
453.44	30055.82
453.646	30561.67
453.852	30659.97
454.058	31044.99
454.264	29711.76
454.47	30850.43
454.676	29502.87
454.882	30829.95
455.088	28523.94
455.294	29003.16
455.5	29236.63
455.705	29797.77
455.911	28106.15
456.117	27897.26
456.323	27559.34
456.529	26283.46
456.735	27506.1
456.941	26645.95
457.147	26299.84
457.352	25499.09
457.558	25058.77
457.764	25322.96
457.97	24751.58
458.176	24352.23
458.381	24163.81
458.587	22894.07
458.793	23039.48
458.999	22042.12
459.204	23719.4
459.41	22765.05
459.616	21374.48
459.821	21378.58
460.027	21360.14
460.233	20717.08
460.438	20008.48
460.644	19893.8
460.85	19177.01
461.055	18863.67
461.261	19076.66
461.466	17419.85
461.672	16903.76
461.878	18124.35
462.083	16946.77
462.289	16533.08
462.494	16336.48
462.7	15629.93
462.905	15251.05
463.111	16023.14
463.316	15652.45
463.522	15552.1
463.727	15623.78
463.932	15492.71
464.138	15400.55
464.343	15570.54
464.549	14816.88
464.754	15294.06
464.959	15203.95
465.165	15191.66
465.37	14714.48
465.575	14190.2
465.781	14761.59
465.986	14796.4
466.191	14308.99
466.397	14112.38
466.602	13250.19
466.807	13840
467.012	13756.04
467.218	13645.45
467.423	13424.26
467.628	13489.8
467.833	14112.38
468.038	13620.87
468.244	13155.98
468.449	13678.21
468.654	13297.29
468.859	13334.15
469.064	13008.53
469.269	12746.39
469.474	12787.35
469.679	13190.8
469.885	12899.98
470.09	12801.68
470.295	12740.24
470.5	12357.27
470.705	12605.08
470.91	12344.98
471.115	12023.45
471.32	12443.29
471.525	12297.88
471.73	12000.93
471.935	11808.42
472.139	11634.34
472.344	11777.7
472.549	11658.92
472.754	11558.56
472.959	11333.29
473.164	10888.88
473.369	10747.57
473.574	11345.58
473.778	11310.76
473.983	11079.34
474.188	11036.33
474.393	10575.54
474.598	10563.25
474.802	10497.72
475.007	10325.69
475.212	10573.49
475.417	10057.4
475.621	10178.23
475.826	10016.44
476.031	9893.57
476.235	9629.38
476.44	9914.05
476.645	9576.13
476.849	9434.82
477.054	9647.81
477.259	9440.97
477.463	9387.72
477.668	8988.36
477.872	9262.79
478.077	8961.74
478.282	8830.67
478.486	8984.27
478.691	8914.64
478.895	8638.16
479.1	8681.17
479.304	8597.2
479.509	8451.8
479.713	8591.06
479.918	8459.99
480.122	8371.93
480.326	8386.26
480.531	8335.06
480.735	8298.2
480.94	8101.59
481.144	8455.89
481.348	8160.98
481.553	8249.05
481.757	8036.06
481.961	8109.79
482.166	8339.16
482.37	8105.69
482.574	7823.07
482.778	8187.61
482.983	8144.6
483.187	7970.52
483.391	8099.55
483.595	8027.87
483.8	7880.41
484.004	7921.37
484.208	8240.86
484.412	8015.58
484.616	8140.51
484.821	7812.83
485.025	7812.83
485.229	8074.97
485.433	8111.83
485.637	8066.78
485.841	8023.77
486.045	7907.04
486.249	7882.46
486.453	8083.16
486.657	7874.27
486.861	8107.74
487.065	7718.62
487.269	7954.14
487.473	7911.13
487.677	8083.16
487.881	8158.94
488.085	7966.43
488.289	8099.55
488.493	7872.22
488.697	7945.95
488.901	8068.83
489.105	8066.78
489.309	8132.31
489.512	8066.78
489.716	7972.57
489.92	8124.12
490.124	8040.15
490.328	8117.98
490.531	7966.43
490.735	8115.93
490.939	8312.53
491.143	7984.86
491.346	8238.81
491.55	8320.73
491.754	8550.1
491.958	8339.16
492.161	8353.49
492.365	8513.24
492.569	8468.18
492.772	8283.86
492.976	8486.61
493.18	8591.06
493.383	8744.66
493.587	8693.46
493.79	8783.57
493.994	8689.36
494.197	8808.14
494.401	8652.5
494.605	8689.36
494.808	8953.55
495.012	8894.16
495.215	9060.04
495.419	9027.28
495.622	9123.53
495.825	9187.02
496.029	9379.53
496.232	9643.71
496.436	9397.96
496.639	9791.17
496.843	9615.04
497.046	9782.98
497.249	9795.26
497.453	10053.31
497.656	10020.54
497.859	10036.92
498.063	10172.09
498.266	10182.33
498.469	10497.72
498.673	10307.26
498.876	10643.12
499.079	10622.64
499.282	10845.87
499.485	11036.33
499.689	10874.54
499.892	11140.78
500.095	11142.83
500.298	11361.96
500.501	11069.1
500.705	11538.09
500.908	11671.2
501.111	11859.62
501.314	11703.97
501.517	12041.89
501.72	12144.28
501.923	12197.53
502.126	12383.9
502.329	12785.3
502.532	12805.78
502.735	12818.07
502.938	13127.31
503.141	13270.67
503.344	13346.44
503.547	13452.94
503.75	13403.78
503.953	13835.91
504.156	13729.41
504.359	14022.27
504.562	14108.29
504.765	14333.56
504.968	14472.82
505.17	14478.97
505.373	14636.66
505.576	14816.88
505.779	15029.87
505.982	15218.29
506.185	15244.91
506.387	15591.02
506.59	15425.13
506.793	16002.66
506.996	15785.57
507.198	16285.28
507.401	16152.16
507.604	16285.28
507.807	16676.44
508.009	16619.1
508.212	16787.03
508.415	17192.53
508.617	17245.77
508.82	17393.23
509.022	17243.73
509.225	18249.28
509.428	17872.45
509.63	18146.88
509.833	18024
510.035	18673.21
510.238	18613.82
510.44	18421.31
510.643	18986.55
510.845	19301.93
511.048	19328.56
511.25	19500.59
511.453	19320.37
511.655	20157.99
511.858	20037.16
512.06	19955.24
512.262	20401.69
512.465	20561.44
512.667	20788.76
512.87	20874.77
513.072	21100.05
513.274	21282.32
513.477	21634.57
513.679	21831.18
513.881	21999.11
514.084	22357.5
514.286	21933.57
514.488	22527.49
514.69	22879.74
514.893	22851.06
515.095	23483.89
515.297	23574
515.499	23512.56
515.701	23617
515.904	23848.43
516.106	24042.98
516.308	24653.28
516.51	24428
516.712	24737.24
516.914	25048.54
517.116	25251.28
517.318	25142.74
517.52	25449.94
517.722	25650.64
517.925	26197.45
518.127	26262.98
518.329	26201.54
518.531	26451.39
518.733	26686.91
518.935	27192.76
519.136	27123.13
519.338	27698.61
519.54	27536.82
519.742	27782.57
519.944	27909.55
520.146	28431.78
520.348	28503.46
520.55	28439.97
520.752	28831.13
520.954	29363.61
521.155	28890.52
521.357	29373.85
521.559	29765.01
521.761	29957.52
521.963	29943.18
522.164	30336.39
522.366	30088.59
522.568	31016.32
522.77	30903.68
522.971	31257.98
523.173	30985.6
523.375	31569.27
523.576	31505.78
523.778	31300.98
523.98	32152.94
524.181	32054.64
524.383	31917.42
524.584	32333.16
524.786	32277.86
524.988	32304.49
525.189	32910.69
525.391	32752.99
525.592	33029.47
525.794	33006.94
525.995	33004.89
526.197	33084.76
526.398	33572.18
526.6	33432.92
526.801	33635.67
527.003	33602.9
527.204	33944.91
527.406	34327.88
527.607	34360.65
527.808	34463.05
528.01	33893.71
528.211	34315.59
528.412	34964.8
528.614	34452.81
528.815	34831.68
529.016	34944.32
529.218	34884.93
529.419	34571.59
529.62	35179.84
529.822	35190.08
530.023	35022.14
530.224	34735.43
530.425	35188.03
530.626	34733.38
530.828	34852.16
531.029	35597.62
531.23	35634.49
531.431	35405.11
531.632	35411.26
531.833	35448.12
532.035	35675.44
532.236	35392.83
532.437	35771.7
532.638	35394.87
532.839	35792.18
533.04	35943.73
533.241	35941.68
533.442	35933.49
533.643	35818.8
533.844	35665.21
534.045	36218.16
534.246	35593.53
534.447	35898.67
534.648	35347.77
534.849	35962.16
535.05	35794.23
535.251	35800.37
535.451	35636.53
535.652	36054.32
535.853	35976.5
536.054	36197.68
536.255	35962.16
536.456	35810.61
536.657	36295.98
536.857	35874.1
537.058	35947.82
537.259	36105.52
537.46	36119.85
537.66	35884.34
537.861	35976.5
538.062	35667.25
538.263	35960.11
538.463	35521.85
538.664	35851.57
538.865	35958.06
539.065	36338.99
539.266	35429.69
539.466	35857.71
539.667	35589.43
539.868	36302.12
540.068	35718.45
540.269	35906.87
540.469	35937.58
540.67	35902.77
540.87	35390.78
541.071	35626.29
541.271	35853.62
541.472	35691.83
541.672	35843.38
541.873	35474.74
542.073	34948.42
542.274	35824.95
542.474	35595.57
542.675	35687.73
542.875	35943.73
543.075	35894.58
543.276	35360.06
543.476	35640.63
543.676	35792.18
543.877	35536.18
544.077	35732.79
544.277	35114.3
544.478	35446.07
544.678	35583.29
544.878	35212.6
545.078	35519.8
545.279	35415.35
545.479	35472.7
545.679	35573.05
545.879	35616.05
546.079	35329.34
546.28	35634.49
546.48	35013.95
546.68	35253.56
546.88	35382.59
547.08	35589.43
547.28	35269.95
547.48	35112.25
547.68	35554.61
547.88	35495.22
548.081	35335.48
548.281	35276.09
548.481	35259.71
548.681	35474.74
548.881	35159.36
549.081	35366.2
549.28	34991.42
549.48	35771.7
549.68	35335.48
549.88	35581.24
550.08	35087.68
550.28	35478.84
550.48	34925.89
550.68	35456.31
550.88	35050.81
551.08	35059.01
551.279	35159.36
551.479	34983.23
551.679	35020.09
551.879	35185.98
552.079	35669.3
552.278	35126.59
552.478	35028.29
552.678	35208.51
552.878	34895.17
553.077	34952.51
553.277	34717
553.477	35466.55
553.676	34858.31
553.876	34798.91
554.076	34719.04
554.275	34901.31
554.475	34434.38
554.674	34673.99
554.874	35050.81
555.074	34604.36
555.273	34944.32
555.473	35079.49
555.672	34360.65
555.872	34534.73
556.071	34538.82
556.271	34749.76
556.47	34604.36
556.67	34352.46
556.869	34282.83
557.068	34944.32
557.268	34366.79
557.467	34547.01
557.667	34485.58
557.866	34555.21
558.065	34254.15
558.265	33772.88
558.464	34184.52
558.663	34362.7
558.863	34022.73
559.062	34395.46
559.261	34127.18
559.461	34082.13
559.66	33830.23
559.859	34112.84
560.058	33457.49
560.258	33916.24
560.457	33766.74
560.656	33725.78
560.855	33248.6
561.054	33957.2
561.253	33568.09
561.453	33926.48
561.652	33871.18
561.851	33523.03
562.05	33385.82
562.249	33250.65
562.448	33248.6
562.647	33271.13
562.846	32974.17
563.045	33396.06
563.244	32703.84
563.443	33148.25
563.642	32507.24
563.841	32796
564.04	32540
564.239	32957.79
564.438	32699.75
564.637	32611.68
564.836	33037.66
565.035	32032.11
565.234	32986.46
565.432	32521.57
565.631	32769.38
565.83	32722.27
566.029	32275.82
566.228	32042.35
566.427	32148.84
566.625	32339.3
566.824	31544.69
567.023	32134.51
567.222	31628.66
567.42	32212.33
567.619	31935.85
567.818	31686
568.016	31921.52
568.215	32353.64
568.414	31706.48
568.612	32015.72
568.811	31520.12
569.01	31284.6
569.208	30920.06
569.407	31663.47
569.605	30956.92
569.804	31466.87
570.002	30948.73
570.201	31286.65
570.4	30991.74
570.598	30854.53
570.797	30614.91
570.995	30840.19
571.193	30477.7
571.392	30881.15
571.59	30690.69
571.789	30621.06
571.987	30518.66
572.186	30410.12
572.384	30328.2
572.582	30432.64
572.781	30506.37
572.979	29820.3
573.177	30072.2
573.376	30391.69
573.574	29615.51
573.772	30309.77
573.971	29756.82
574.169	29470.1
574.367	29447.57
574.565	29654.42
574.763	29490.58
574.962	29656.46
575.16	29228.44
575.358	29306.26
575.556	28857.76
575.754	29783.44
575.952	28978.59
576.151	29095.32
576.349	28843.42
576.547	28911
576.745	28990.87
576.943	28720.54
577.141	29021.59
577.339	28732.83
577.537	28681.63
577.735	28450.21
577.933	28306.85
578.131	28308.9
578.329	28278.18
578.527	28114.34
578.725	27977.13
578.923	28188.07
579.121	28151.21
579.319	27981.23
579.516	28118.44
579.714	27893.16
579.912	27862.44
580.11	27706.8
580.308	27651.5
580.506	27671.98
580.704	27391.41
580.901	27393.46
581.099	27669.94
581.297	27098.55
581.495	27182.52
581.692	27420.08
581.89	26838.46
582.088	27452.85
582.285	26893.75
582.483	27200.95
582.681	26746.3
582.878	26891.71
583.076	26359.24
583.274	26721.73
583.471	26330.56
583.669	26604.99
583.866	26387.91
584.064	26465.73
584.262	26060.23
584.459	26666.43
584.657	26308.04
584.854	26465.73
585.052	25755.08
585.249	25906.63
585.447	25800.14
585.644	25486.8
585.841	26074.57
586.039	25777.61
586.236	25359.83
586.434	25546.19
586.631	25656.78
586.828	25443.79
587.026	25505.23
587.223	25363.92
587.42	25316.82
587.618	25232.85
587.815	25224.66
588.012	25069.01
588.21	25150.93
588.407	25222.61
588.604	24972.76
588.801	24747.48
588.999	24559.07
589.196	24442.34
589.393	24585.69
589.59	24536.54
589.787	24438.24
589.984	24585.69
590.182	24077.8
590.379	24061.41
590.576	24069.61
590.773	24223.2
590.97	24049.13
591.167	24047.08
591.364	23733.74
591.561	24018.41
591.758	23600.62
591.955	23653.87
592.152	23993.83
592.349	23797.23
592.546	23682.54
592.743	23553.52
592.94	23168.5
593.137	23424.5
593.334	23578.09
593.531	22990.33
593.727	23121.4
593.924	23115.25
594.121	22873.59
594.318	22760.95
594.515	22703.61
594.712	22642.17
594.908	22838.78
595.105	22597.12
595.302	22199.81
595.499	22695.42
595.696	22611.45
595.892	22201.86
596.089	22597.12
596.286	22478.33
596.482	22095.36
596.679	22394.37
596.876	22085.12
597.072	22273.54
597.269	22052.36
597.466	21952.01
597.662	21550.6
597.859	21767.69
598.055	21949.96
598.252	21501.45
598.448	21546.51
598.645	21491.21
598.841	21200.4
599.038	21462.54
599.234	21390.86
599.431	21372.43
599.627	21118.48
599.824	21253.65
600.02	20968.98
600.217	20962.84
600.413	21192.21
600.609	20633.11
600.806	20858.39
601.002	20813.34
601.198	20618.78
601.395	20637.21
601.591	20383.26
601.787	20684.31
601.984	20522.52
602.18	20606.49
602.376	20385.31
602.572	20344.35
602.769	19930.66
602.965	20168.23
603.161	20000.29
603.357	19883.56
603.553	19887.65
603.75	19904.04
603.946	19985.96
604.142	19824.17
604.338	19680.81
604.534	19650.09
604.73	19639.85
604.926	19598.89
605.122	19559.98
605.318	19236.4
605.514	19363.37
605.71	19220.02
605.906	19412.53
606.102	19174.96
606.298	19217.97
606.494	19166.77
606.69	19258.93
606.886	19328.56
607.082	18994.74
607.278	19125.81
607.474	18722.36
607.67	18734.65
607.866	18636.34
608.062	19002.93
608.257	18667.06
608.453	18746.94
608.649	18703.93
608.845	18599.48
609.041	18617.91
609.236	18611.77
609.432	18509.37
609.628	18437.69
609.824	18148.93
610.019	18306.62
610.215	18415.16
610.411	18302.53
610.606	18337.34
610.802	18140.74
610.998	18277.95
611.193	18417.21
611.389	18097.73
611.584	18021.95
611.78	17778.25
611.976	17872.45
612.171	18177.6
612.367	17962.56
612.562	17884.74
612.758	17667.66
612.953	17745.48
613.149	18030.15
613.344	17471.05
613.539	17794.63
613.735	17858.12
613.93	17509.96
614.126	17622.6
614.321	17638.98
614.517	17651.27
614.712	17612.36
614.907	17315.41
615.103	17630.79
615.298	17315.41
615.493	17749.57
615.688	17071.7
615.884	17516.11
616.079	17102.42
616.274	17237.58
616.47	17258.06
616.665	17116.75
616.86	17186.38
617.055	16942.67
617.25	16995.92
617.445	17079.89
617.641	16965.2
617.836	16961.11
618.031	16885.33
618.226	16926.29
618.421	16725.59
618.616	16815.7
618.811	16571.99
619.006	16836.18
619.201	16324.19
619.396	16733.78
619.591	16193.12
619.786	16406.11
619.981	16090.72
620.176	16440.92
620.371	16359
620.566	16223.84
620.761	16258.65
620.956	16160.35
621.151	15763.04
621.346	15955.55
621.541	15849.06
621.735	15761
621.93	15539.82
622.125	15625.83
622.32	15283.82
622.515	15328.88
622.709	15160.94
622.904	15466.09
623.099	15306.35
623.294	15107.69
623.488	14831.22
623.683	14995.06
623.878	14683.77
624.072	14651
624.267	14751.35
624.462	14438.01
624.656	14544.5
624.851	14556.79
625.046	14411.39
625.24	14409.34
625.435	14087.81
625.629	14360.19
625.824	14050.94
626.018	13966.98
626.213	13596.29
626.407	14085.76
626.602	13645.45
626.796	13909.63
626.991	13760.13
627.185	13403.78
627.38	13577.86
627.574	13682.31
627.768	13180.56
627.963	13258.38
628.157	13133.45
628.352	13262.47
628.546	12750.48
628.74	12957.33
628.935	12897.94
629.129	12715.67
629.323	12916.37
629.517	12940.94
629.712	12535.45
629.906	12592.79
630.1	12402.33
630.294	12547.73
630.489	12181.15
630.683	12353.18
630.877	12170.91
631.071	11876
631.265	12107.42
631.459	12123.8
631.653	11933.34
631.848	11859.62
632.042	11894.43
632.236	11861.66
632.43	11949.73
632.624	11736.74
632.818	11556.52
633.012	11697.83
633.206	11380.39
633.4	11382.44
633.594	11447.97
633.788	11331.24
633.982	11355.82
634.176	11175.59
634.369	11265.71
634.563	11214.51
634.757	11075.24
634.951	11108.01
635.145	10901.17
635.339	10768.05
635.533	10919.6
635.726	10729.14
635.92	10573.49
636.114	10675.89
636.308	10598.07
636.501	10776.24
636.695	10698.42
636.889	10501.81
637.083	10555.06
637.276	10221.24
637.47	10340.02
637.664	10090.17
637.857	10157.75
638.051	10206.91
638.244	10010.3
638.438	10108.6
638.632	10067.64
638.825	9686.72
639.019	9819.84
639.212	9717.44
639.406	9934.53
639.599	9615.04
639.793	9731.78
639.986	9539.27
640.18	9780.93
640.373	9481.92
640.567	9344.71
640.76	9508.55
640.954	9326.28
641.147	9270.98
641.34	9287.37
641.534	9082.57
641.727	9262.79
641.92	9135.82
642.114	8982.22
642.307	9086.67
642.5	8906.45
642.694	8906.45
642.887	8722.13
643.08	8918.73
643.273	8756.94
643.467	8863.44
643.66	8517.33
643.853	8660.69
644.046	8705.74
644.239	8548.05
644.432	8505.04
644.626	8265.43
644.819	8490.71
645.012	8464.08
645.205	8398.55
645.398	8326.87
645.591	8371.93
645.784	8349.4
645.977	7929.56
646.17	8257.24
646.363	7993.05
646.556	7913.18
646.749	7886.56
646.942	8050.39
647.135	8017.63
647.328	7839.45
647.521	7870.17
647.714	7735.01
647.907	7675.62
648.099	7739.1
648.292	7636.7
648.485	7552.74
648.678	7526.11
648.871	7522.02
649.064	7665.38
649.256	7577.31
649.449	7526.11
649.642	7337.7
649.835	7233.25
650.027	7079.66
650.22	7223.02
650.413	7046.89
650.605	7128.81
650.798	7284.45
650.991	7114.47
651.183	7134.95
651.376	6790.89
651.568	7036.65
651.761	6967.02
651.954	7003.88
652.146	6969.07
652.339	6854.38
652.531	6889.2
652.724	6797.04
652.916	6510.32
653.109	6682.35
653.301	6627.06
653.494	6610.67
653.686	6498.03
653.879	6713.07
654.071	6452.98
654.263	6342.39
654.456	6379.25
654.648	6395.64
654.84	6362.87
655.033	6430.45
655.225	6291.19
655.417	6291.19
655.61	6207.22
655.802	6291.19
655.994	6270.71
656.186	6119.16
656.379	6086.39
656.571	6027
656.763	6033.15
656.955	5963.51
657.148	6125.3
657.34	6035.19
657.532	5900.03
657.724	5809.92
657.916	5840.64
658.108	5756.67
658.3	5879.55
658.492	5703.42
658.684	5734.14
658.876	5635.84
659.068	5666.56
659.26	5506.82
659.452	5666.56
659.644	5560.06
659.836	5633.79
660.028	5684.99
660.22	5486.34
660.412	5564.16
660.604	5379.84
660.796	5449.47
660.988	5373.7
661.18	5287.68
661.372	5322.5
661.563	5385.99
661.755	5275.4
661.947	5066.5
662.139	5240.58
662.331	5281.54
662.522	5134.09
662.714	5211.91
662.906	5201.67
663.097	5097.22
663.289	5027.59
663.481	4957.96
663.673	5170.95
663.864	4919.05
664.056	5003.02
664.247	4970.25
664.439	4996.87
664.631	4837.13
664.822	5003.02
665.014	4886.28
665.205	4822.8
665.397	4509.46
665.588	4781.84
665.78	4695.82
665.971	4695.82
666.163	4720.4
666.354	4697.87
666.546	4716.3
666.737	4609.81
666.929	4667.15
667.12	4544.27
667.311	4595.47
667.503	4462.35
667.694	4585.23
667.885	4529.94
668.077	4370.19
668.268	4355.86
668.459	4380.43
668.651	4472.59
668.842	4253.46
669.033	4271.89
669.224	4200.21
669.416	4353.81
669.607	4292.37
669.798	4200.21
669.989	4261.65
670.18	4106.01
670.371	4249.36
670.563	4155.16
670.754	4093.72
670.945	4140.82
671.136	4163.35
671.327	4060.95
671.518	4093.72
671.709	4167.45
671.9	4052.76
672.091	3942.17
672.282	3983.13
672.473	3931.93
672.664	4048.66
672.855	3893.02
673.046	4028.18
673.237	3938.07
673.428	3950.36
673.619	3913.5
673.809	3897.11
674	3925.79
674.191	3847.96
674.382	3856.15
674.573	3798.81
674.764	3755.8
674.954	3735.32
675.145	3585.82
675.336	3680.03
675.527	3727.13
675.717	3684.13
675.908	3755.8
676.099	3610.4
676.289	3720.99
676.48	3628.83
676.671	3667.74
676.861	3553.06
677.052	3632.93
677.243	3577.63
677.433	3677.98
677.624	3546.91
677.814	3421.99
678.005	3589.92
678.195	3430.18
678.386	3540.77
678.576	3512.1
678.767	3520.29
678.957	3460.9
679.148	3448.61
679.338	3610.4
679.529	3471.14
679.719	3356.45
679.909	3442.46
680.1	3348.26
680.29	3505.95
680.481	3438.37
680.671	3348.26
680.861	3270.44
681.052	3331.87
681.242	3309.35
681.432	3395.36
681.622	3307.3
681.813	3262.24
682.003	3215.14
682.193	3274.53
682.383	3170.08
682.573	3209
682.764	3323.68
682.954	3252
683.144	3157.8
683.334	3172.13
683.524	3241.76
683.714	3229.48
683.904	3053.35
684.094	3170.08
684.284	3241.76
684.474	3184.42
684.664	3225.38
684.854	3342.11
685.044	3022.63
685.234	3002.15
685.424	3170.08
685.614	3155.75
685.804	2993.96
685.994	3266.34
686.184	3036.97
686.374	3051.3
686.564	3004.2
686.753	3079.97
686.943	2953
687.133	2957.1
687.323	2817.83
687.513	3036.97
687.702	2893.61
687.892	2905.9
688.082	2903.85
688.272	2932.52
688.461	2881.32
688.651	2828.07
688.841	2819.88
689.03	2793.26
689.22	2869.03
689.41	2840.36
689.599	2692.91
689.789	2791.21
689.979	2697
690.168	2686.76
690.358	2750.25
690.547	2715.44
690.737	2903.85
690.926	2803.5
691.116	2676.52
691.305	2764.59
691.495	2711.34
691.684	2787.11
691.874	2688.81
692.063	2570.03
692.252	2711.34
692.442	2602.8
692.631	2600.75
692.82	2547.5
693.01	2545.45
693.199	2580.27
693.388	2621.23
693.578	2506.54
693.767	2602.8
693.956	2588.46
694.146	2574.13
694.335	2533.17
694.524	2488.11
694.713	2539.31
694.902	2578.22
695.092	2484.02
695.281	2596.65
695.47	2479.92
695.659	2402.1
695.848	2455.34
696.037	2373.43
696.226	2383.66
696.415	2301.75
696.604	2449.2
696.793	2408.24
696.982	2479.92
697.171	2402.1
697.36	2318.13
697.549	2426.67
697.738	2367.28
697.927	2375.47
698.116	2291.51
698.305	2295.6
698.494	2266.93
698.683	2377.52
698.872	2273.07
699.061	2406.19
699.25	2371.38
699.438	2283.31
699.627	2242.36
699.816	2285.36
700.005	2250.55
700.193	2291.51
700.382	2244.4
700.571	2236.21
700.76	2299.7
700.948	2340.66
701.137	2258.74
701.326	2199.35
701.514	2213.68
701.703	2283.31
701.892	2275.12
702.08	2201.4
702.269	2266.93
702.457	2283.31
702.646	2176.82
702.834	2228.02
703.023	2170.68
703.212	2185.01
703.4	2189.11
703.589	2225.97
703.777	2162.48
703.965	2062.13
704.154	2168.63
704.342	2205.49
704.531	2178.87
704.719	2162.48
704.907	2203.44
705.096	2088.76
705.284	2266.93
705.472	2099
705.661	2168.63
705.849	2088.76
706.037	2242.36
706.226	2242.36
706.414	2111.29
706.602	2019.13
706.79	2203.44
706.979	2152.24
707.167	2113.33
707.355	2082.61
707.543	2094.9
707.731	2238.26
707.919	2189.11
708.107	2148.15
708.296	2113.33
708.484	2015.03
708.672	2082.61
708.86	2127.67
709.048	2017.08
709.236	2064.18
709.424	2156.34
709.612	2178.87
709.8	2111.29
709.988	2082.61
710.176	2086.71
710.364	2180.92
710.551	2049.85
710.739	2129.72
710.927	2139.96
711.115	2119.48
711.303	2068.28
711.491	2127.67
711.679	2107.19
711.866	2019.13
712.054	2053.94
712.242	1965.88
712.43	2146.1
712.617	2133.81
712.805	2121.52
712.993	2031.41
713.181	1980.22
713.368	2012.98
713.556	2045.75
713.744	2004.79
713.931	2142
714.119	2023.22
714.306	2146.1
714.494	2053.94
714.682	2135.86
714.869	2023.22
715.057	2076.47
715.244	1998.65
715.432	2068.28
715.619	2055.99
715.807	2123.57
715.994	2031.41
716.182	2070.33
716.369	2055.99
716.556	2015.03
716.744	2039.61
716.931	2027.32
717.119	2031.41
717.306	2037.56
717.493	2092.85
717.681	2023.22
717.868	2045.75
718.055	1969.98
718.242	2070.33
718.43	2053.94
718.617	2074.42
718.804	2062.13
718.991	2017.08
719.179	2058.04
719.366	2008.89
719.553	2137.91
719.74	2086.71
719.927	2047.8
720.114	2109.24
720.301	2068.28
720.488	1896.25
720.676	2064.18
720.863	2094.9
721.05	2017.08
721.237	2043.7
721.424	2127.67
721.611	2119.48
721.798	2037.56
721.985	2012.98
722.172	1836.86
722.358	1937.21
722.545	1990.45
722.732	2064.18
722.919	2039.61
723.106	2021.17
723.293	2082.61
723.48	2066.23
723.667	2006.84
723.853	1974.07
724.04	1978.17
724.227	2031.41
724.414	2033.46
724.6	2119.48
724.787	2070.33
724.974	2041.65
725.161	2103.09
725.347	1984.31
725.534	2066.23
725.72	2047.8
725.907	2023.22
726.094	2096.95
726.28	2012.98
726.467	2074.42
726.653	2066.23
726.84	1896.25
727.027	2209.59
727.213	2000.69
727.4	1947.45
727.586	1947.45
727.773	2070.33
727.959	1990.45
728.145	2062.13
728.332	2015.03
728.518	1980.22
728.705	1914.68
728.891	2035.51
729.077	2017.08
729.264	2072.37
729.45	2144.05
729.636	2078.52
729.823	2027.32
730.009	1957.69
730.195	2012.98
730.382	2070.33
730.568	2047.8
730.754	2047.8
730.94	2033.46
731.126	2053.94
731.313	1957.69
731.499	2017.08
731.685	2092.85
731.871	2103.09
732.057	2154.29
732.243	2072.37
732.429	1947.45
732.615	1998.65
732.801	2086.71
732.987	2021.17
733.173	1974.07
733.359	2066.23
733.545	2015.03
733.731	1883.96
733.917	2058.04
734.103	2055.99
734.289	2111.29
734.475	1949.5
734.661	2111.29
734.847	1890.1
735.033	1996.6
735.219	1916.73
735.404	2051.89
735.59	1914.68
735.776	2058.04
735.962	1963.83
736.148	2047.8
736.333	2043.7
736.519	2015.03
736.705	1988.41
736.89	2078.52
737.076	1951.54
737.262	1980.22
737.447	1941.3
737.633	2010.93
737.819	1931.06
738.004	1963.83
738.19	1943.35
738.375	1908.54
738.561	2105.14
738.747	1972.02
738.932	1834.81
739.118	1951.54
739.303	1965.88
739.489	2078.52
739.674	1939.26
739.859	2021.17
740.045	1943.35
740.23	1920.82
740.416	1914.68
740.601	1879.86
740.786	1843
740.972	1906.49
741.157	1951.54
741.342	1799.99
741.528	1881.91
741.713	1914.68
741.898	1810.23
742.084	1808.19
742.269	1791.8
742.454	1914.68
742.639	1943.35
742.824	1738.55
743.01	1832.76
743.195	1898.3
743.38	1824.57
743.565	1769.27
743.75	1916.73
743.935	1799.99
744.12	1947.45
744.305	1734.46
744.49	1861.43
744.675	1845.05
744.86	1720.12
745.045	1718.08
745.23	1779.51
745.415	1701.69
745.6	1802.04
745.785	1677.12
745.97	1720.12
746.155	1738.55
746.34	1652.54
746.525	1656.64
746.71	1793.85
746.895	1718.08
747.079	1709.88
747.264	1679.16
747.449	1724.22
747.634	1752.89
747.819	1627.96
748.003	1703.74
748.188	1480.51
748.373	1632.06
748.557	1611.58
748.742	1621.82
748.927	1660.73
749.111	1701.69
749.296	1566.53
749.481	1539.9
749.665	1564.48
749.85	1472.32
750.034	1578.81
750.219	1537.85
750.404	1521.47
750.588	1570.62
750.773	1474.37
750.957	1505.09
751.141	1414.98
751.326	1441.6
751.51	1472.32
751.695	1564.48
751.879	1382.21
752.064	1470.27
752.248	1427.26
752.432	1414.98
752.617	1447.74
752.801	1466.17
752.985	1515.33
753.17	1316.67
753.354	1500.99
753.538	1447.74
753.722	1410.88
753.907	1310.53
754.091	1294.15
754.275	1449.79
754.459	1357.63
754.643	1285.95
754.828	1234.75
755.012	1328.96
755.196	1302.34
755.38	1355.58
755.564	1324.87
755.748	1273.67
755.932	1306.43
756.116	1234.75
756.3	1218.37
756.484	1158.98
756.668	1259.33
756.852	1087.3
757.036	1251.14
757.22	1087.3
757.404	1181.51
757.588	1185.6
757.772	1156.93
757.956	1259.33
758.14	1236.8
758.323	1040.2
758.507	1163.08
758.691	1120.07
758.875	1075.01
759.059	1060.68
759.242	1046.34
759.426	1177.41
759.61	1048.39
759.794	1111.88
759.977	1120.07
760.161	1120.07
760.345	1156.93
760.528	1171.27
760.712	1099.59
760.895	1062.73
761.079	1101.64
761.263	1081.16
761.446	1013.57
761.63	1066.82
761.813	1040.2
761.997	1038.15
762.18	976.71
762.364	989
762.547	931.66
762.731	999.24
762.914	972.61
763.098	1038.15
763.281	1070.92
763.464	948.04
763.648	999.24
763.831	964.42
764.015	1005.38
764.198	970.57
764.381	968.52
764.564	952.13
764.748	927.56
764.931	980.81
765.114	986.95
765.297	1019.72
765.481	1007.43
765.664	921.42
765.847	945.99
766.03	974.66
766.213	917.32
766.397	939.85
766.58	857.93
766.763	878.41
766.946	821.06
767.129	915.27
767.312	890.7
767.495	958.28
767.678	876.36
767.861	907.08
768.044	935.75
768.227	937.8
768.41	898.89
768.593	898.89
768.776	761.67
768.959	759.63
769.142	771.91
769.324	884.55
769.507	882.5
769.69	915.27
769.873	941.89
770.056	909.13
770.239	896.84
770.421	876.36
770.604	794.44
770.787	782.15
770.97	888.65
771.152	845.64
771.335	773.96
771.518	792.39
771.7	931.66
771.883	841.54
772.066	816.97
772.248	800.59
772.431	782.15
772.613	829.26
772.796	900.94
772.978	849.74
773.161	751.43
773.343	800.59
773.526	765.77
773.708	728.91
773.891	696.14
774.073	827.21
774.256	644.94
774.438	831.3
774.621	720.71
774.803	778.06
774.985	700.23
775.168	747.34
775.35	730.95
775.532	726.86
775.715	726.86
775.897	671.56
776.079	597.84
776.261	739.15
776.444	671.56
776.626	708.43
776.808	700.23
776.99	640.84
777.173	681.8
777.355	646.99
777.537	657.23
777.719	661.32
777.901	636.75
778.083	577.36
778.265	628.56
778.447	679.75
778.629	571.21
778.811	620.36
778.993	616.27
779.175	653.13
779.357	563.02
779.539	560.97
779.721	636.75
779.903	661.32
780.085	681.8
780.267	571.21
780.449	626.51
780.631	532.3
780.812	546.64
780.994	509.77
781.176	591.69
781.358	587.6
781.54	526.16
781.721	587.6
781.903	587.6
782.085	528.21
782.267	526.16
782.448	513.87
782.63	538.45
782.812	505.68
782.993	444.24
783.175	515.92
783.357	558.92
783.538	505.68
783.72	497.49
783.901	479.05
784.083	442.19
784.264	515.92
784.446	423.76
784.627	497.49
784.809	505.68
784.99	489.29
785.172	474.96
785.353	472.91
785.535	505.68
785.716	483.15
785.897	464.72
786.079	481.1
786.26	409.42
786.441	415.57
786.623	390.99
786.804	327.5
786.985	503.63
787.167	472.91
787.348	393.04
787.529	434
787.71	491.34
787.891	425.81
788.073	421.71
788.254	415.57
788.435	442.19
788.616	360.27
788.797	378.7
788.978	333.65
789.159	374.61
789.34	411.47
789.522	411.47
789.703	347.98
789.884	442.19
790.065	313.17
790.246	370.51
790.427	376.66
790.607	358.22
790.788	425.81
790.969	395.09
791.15	372.56
791.331	347.98
791.512	302.93
791.693	300.88
791.874	261.97
792.054	448.33
792.235	354.13
792.416	286.54
792.597	302.93
792.778	321.36
792.958	343.89
793.139	333.65
793.32	270.16
793.5	345.94
793.681	325.46
793.862	335.7
794.042	311.12
794.223	329.55
794.404	352.08
794.584	239.44
794.765	274.26
794.945	304.98
795.126	284.5
795.306	352.08
795.487	278.35
795.667	286.54
795.848	325.46
796.028	341.84
796.209	276.31
796.389	325.46
796.57	237.39
796.75	261.97
796.93	309.07
797.111	243.54
797.291	276.31
797.471	235.35
797.652	288.59
797.832	317.26
798.012	358.22
798.192	276.31
798.373	229.2
798.553	264.02
798.733	268.11
798.913	255.83
799.093	270.16
799.274	282.45
799.454	227.15
799.634	227.15
799.814	325.46
799.994	278.35
800.174	251.73
800.354	251.73
800.534	255.83
800.714	309.07
800.894	237.39
801.074	141.14
801.254	210.77
801.434	243.54
801.614	266.07
801.794	229.2
801.974	857.93
802.154	182.1
802.334	218.96
802.514	120.66
802.693	196.43
802.873	264.02
803.053	280.4
803.233	192.34
803.413	288.59
803.592	198.48
803.772	229.2
803.952	259.92
804.131	229.2
804.311	196.43
804.491	272.21
804.67	145.24
804.85	239.44
805.03	237.39
805.209	276.31
805.389	161.62
805.568	147.28
805.748	196.43
805.928	210.77
806.107	204.63
806.287	210.77
806.466	221.01
806.646	243.54
806.825	118.61
807.004	216.91
807.184	231.25
807.363	198.48
807.543	268.11
807.722	210.77
807.901	202.58
808.081	237.39
808.26	124.76
808.439	204.63
808.619	128.85
808.798	188.24
808.977	257.87
809.156	186.19
809.336	165.71
809.515	171.86
809.694	218.96
809.873	153.43
810.052	235.35
810.231	171.86
810.411	214.87
810.59	210.77
810.769	100.18
810.948	237.39
811.127	218.96
811.306	163.67
811.485	210.77
811.664	196.43
811.843	96.08
812.022	218.96
812.201	141.14
812.38	147.28
812.559	173.91
812.737	210.77
812.916	114.52
813.095	180.05
813.274	145.24
813.453	124.76
813.632	106.32
813.811	161.62
813.989	165.71
814.168	128.85
814.347	178
814.526	104.28
814.704	178
814.883	202.58
815.062	126.8
815.24	237.39
815.419	184.15
815.598	149.33
815.776	124.76
815.955	132.95
816.133	81.75
816.312	145.24
816.49	55.12
816.669	145.24
816.847	108.37
817.026	112.47
817.204	124.76
817.383	87.89
817.561	161.62
817.74	106.32
817.918	163.67
818.097	130.9
818.275	91.99
818.453	147.28
818.632	116.56
818.81	114.52
818.988	161.62
819.167	59.22
819.345	77.65
819.523	63.32
819.701	96.08
819.879	104.28
820.058	155.47
820.236	175.95
820.414	145.24
820.592	124.76
820.77	153.43
820.948	180.05
821.127	153.43
821.305	83.8
821.483	79.7
821.661	173.91
821.839	114.52
822.017	120.66
822.195	120.66
822.373	165.71
822.551	79.7
822.729	141.14
822.907	104.28
823.085	96.08
823.262	91.99
823.44	96.08
823.618	83.8
823.796	169.81
823.974	149.33
824.152	184.15
824.329	98.13
824.507	87.89
824.685	137.04
824.863	128.85
825.04	48.98
825.218	73.56
825.396	122.71
825.574	126.8
825.751	96.08
825.929	120.66
826.107	61.27
826.284	153.43
826.462	163.67
826.639	83.8
826.817	147.28
826.994	46.93
827.172	77.65
827.349	122.71
827.527	178
827.704	124.76
827.882	180.05
828.059	120.66
828.237	75.6
828.414	141.14
828.591	55.12
828.769	85.84
828.946	157.52
829.124	87.89
829.301	61.27
829.478	63.32
829.655	87.89
829.833	91.99
830.01	137.04
830.187	87.89
830.364	106.32
830.542	65.36
830.719	73.56
830.896	73.56
831.073	75.6
831.25	75.6
831.427	57.17
831.604	85.84
831.782	55.12
831.959	128.85
832.136	104.28
832.313	91.99
832.49	89.94
832.667	98.13
832.844	89.94
833.021	114.52
833.198	55.12
833.374	14.17
833.551	34.64
833.728	89.94
833.905	79.7
834.082	5.97
834.259	73.56
834.436	81.75
834.612	63.32
834.789	147.28
834.966	79.7
835.143	18.26
835.319	26.45
835.496	114.52
835.673	10.07
835.85	141.14
836.026	57.17
836.203	145.24
836.38	-4.27
836.556	63.32
836.733	46.93
836.909	169.81
837.086	38.74
837.262	38.74
837.439	22.36
837.616	24.4
837.792	65.36
837.968	79.7
838.145	-67.75
838.321	71.51
838.498	24.4
838.674	122.71
838.851	89.94
839.027	14.17
839.203	38.74
839.38	38.74
839.556	46.93
839.732	71.51
839.909	71.51
840.085	-6.31
840.261	57.17
840.437	83.8
840.614	36.69
840.79	65.36
840.966	89.94
841.142	-2.22
841.318	94.04
841.494	108.37
841.671	137.04
841.847	73.56
842.023	63.32
842.199	73.56
842.375	114.52
842.551	57.17
842.727	20.31
842.903	42.84
843.079	30.55
843.255	83.8
843.431	147.28
843.607	106.32
843.783	-14.51
843.959	48.98
844.134	-18.6
844.31	79.7
844.486	75.6
844.662	40.79
844.838	14.17
845.013	73.56
845.189	104.28
845.365	63.32
845.541	87.89
845.716	42.84
845.892	87.89
846.068	22.36
846.244	83.8
846.419	69.46
846.595	8.02
846.77	67.41
846.946	77.65
847.122	-39.08
847.297	51.03
847.473	104.28
847.648	-22.7
847.824	12.12
847.999	-12.46
848.175	46.93
848.35	81.75
848.526	116.56
848.701	116.56
848.876	91.99
849.052	89.94
849.227	-18.6
849.403	12.12
849.578	8.02
849.753	8.02
849.929	87.89
850.104	44.88
850.279	106.32
850.454	106.32
850.63	48.98
850.805	32.6
850.98	-2.22
851.155	-10.41
851.33	59.22
851.505	24.4
851.681	96.08
851.856	8.02
852.031	32.6
852.206	26.45
852.381	-2.22
852.556	-20.65
852.731	51.03
852.906	16.21
853.081	67.41
853.256	-24.75
853.431	16.21
853.606	30.55
853.781	46.93
853.956	42.84
854.131	73.56
854.305	-0.17
854.48	40.79
854.655	1.88
854.83	5.97
855.005	-6.31
855.18	59.22
855.354	69.46
855.529	71.51
855.704	14.17
855.879	40.79
856.053	-49.32
856.228	18.26
856.403	10.07
856.577	69.46
856.752	5.97
856.926	24.4
857.101	46.93
857.276	14.17
857.45	77.65
857.625	65.36
857.799	46.93
857.974	38.74
858.148	-16.55
858.323	53.08
858.497	-43.18
858.672	79.7
858.846	-34.99
859.02	40.79
859.195	-26.79
859.369	30.55
859.543	-18.6
859.718	71.51
859.892	51.03
860.066	65.36
860.241	8.02
860.415	44.88
860.589	63.32
860.763	53.08
860.938	1.88
861.112	67.41
861.286	-16.55
861.46	5.97
861.634	24.4
861.808	-24.75
861.982	87.89
862.157	48.98
862.331	104.28
862.505	-18.6
862.679	14.17
862.853	36.69
863.027	8.02
863.201	79.7
863.375	10.07
863.549	8.02
863.722	10.07
863.896	55.12
864.07	55.12
864.244	34.64
864.418	67.41
864.592	8.02
864.766	59.22
864.939	24.4
865.113	-53.42
865.287	48.98
865.461	-8.36
865.634	5.97
865.808	5.97
865.982	51.03
866.156	36.69
866.329	18.26
866.503	42.84
866.676	46.93
866.85	18.26
867.024	-63.66
867.197	38.74
867.371	81.75
867.544	65.36
867.718	20.31
867.891	85.84
868.065	-18.6
868.238	63.32
868.412	18.26
868.585	40.79
868.759	30.55
868.932	12.12
869.105	14.17
869.279	30.55
869.452	57.17
869.625	57.17
869.799	-51.37
869.972	10.07
870.145	-6.31
870.319	46.93
870.492	-18.6
870.665	-26.79
870.838	22.36
871.011	-43.18
871.185	-14.51
871.358	1.88
871.531	106.32
871.704	-47.27
871.877	55.12
872.05	-10.41
872.223	71.51
872.396	69.46
872.569	-34.99
872.742	38.74
872.915	16.21
873.088	-10.41
873.261	46.93
873.434	55.12
873.607	65.36
873.78	112.47
873.953	-0.17
874.126	-32.94
874.299	59.22
874.471	-14.51
874.644	16.21
874.817	73.56
874.99	32.6
875.163	-32.94
875.335	36.69
875.508	-6.31
875.681	22.36
875.853	-18.6
876.026	22.36
876.199	14.17
876.371	42.84
876.544	46.93
876.717	81.75
876.889	44.88
877.062	-8.36
877.234	14.17
877.407	1.88
877.579	87.89
877.752	3.93
877.924	40.79
878.097	73.56
878.269	34.64
878.442	98.13
878.614	46.93
878.786	14.17
878.959	59.22
879.131	32.6
879.303	-26.79
879.476	-20.65
879.648	42.84
879.82	-2.22
879.993	-32.94
880.165	-4.27
880.337	-75.95
880.509	38.74
880.681	10.07
880.854	-28.84
881.026	79.7
881.198	44.88
881.37	-53.42
881.542	-2.22
881.714	55.12
881.886	46.93
882.058	42.84
882.23	71.51
882.402	22.36
882.574	34.64
882.746	16.21
882.918	71.51
883.09	57.17
883.262	81.75
883.434	26.45
883.606	-2.22
883.778	-16.55
883.95	83.8
884.122	3.93
884.293	32.6
884.465	-10.41
884.637	38.74
884.809	55.12
884.98	42.84
885.152	32.6
885.324	30.55
885.496	22.36
885.667	44.88
885.839	30.55
886.011	22.36
886.182	-16.55
886.354	-0.17
886.525	-43.18
886.697	22.36
886.869	-24.75
887.04	46.93
887.212	48.98
887.383	73.56
887.555	5.97
887.726	-55.47
887.897	106.32
888.069	-2.22
888.24	87.89
888.412	16.21
888.583	-26.79
888.754	30.55
888.926	-71.85
889.097	-6.31
889.268	-24.75
889.44	65.36
889.611	5.97
889.782	91.99
889.953	-43.18
890.125	79.7
890.296	8.02
890.467	18.26
890.638	-8.36
890.809	32.6
890.98	22.36
891.151	79.7
891.323	65.36
891.494	8.02
891.665	87.89
891.836	14.17
892.007	-32.94
892.178	73.56
892.349	-2.22
892.52	-28.84
892.691	57.17
892.862	24.4
893.032	-10.41
893.203	-28.84
893.374	-67.75
893.545	38.74
893.716	-92.33
893.887	34.64
894.057	30.55
894.228	34.64
894.399	36.69
894.57	-6.31
894.74	1.88
894.911	38.74
895.082	-20.65
895.253	-75.95
895.423	73.56
895.594	42.84
895.764	22.36
895.935	-8.36
896.106	51.03
896.276	-57.51
896.447	46.93
896.617	-98.47
896.788	5.97
896.958	-8.36
897.129	-18.6
897.299	22.36
897.47	40.79
897.64	55.12
897.81	24.4
897.981	26.45
898.151	-73.9
898.322	51.03
898.492	1.88
898.662	22.36
898.832	32.6
899.003	-16.55
899.173	26.45
899.343	16.21
899.513	20.31
