Data from USB4F104151__196__14-45-16-430.txt Node

Date: Thu Mar 13 14:45:16 EDT 2025
User: louis
Spectrometer: USB4F10415
Trigger mode: 4
Integration Time (sec): 2.000000E-2
Scans to average: 1
Electric dark correction enabled: true
Nonlinearity correction enabled: false
Boxcar width: 0
XAxis mode: Wavelengths
Number of Pixels in Spectrum: 3648
>>>>>Begin Spectral Data<<<<<
178.204	-98.13
178.424	-98.13
178.644	-98.13
178.864	-94.04
179.084	-108.37
179.304	-3.93
179.524	-10.07
179.744	-8.02
179.964	-3.93
180.184	14.51
180.404	14.51
180.624	-61.27
180.844	-28.5
181.064	41.13
181.283	-28.5
181.503	-40.79
181.723	114.86
181.943	-36.69
182.163	155.82
182.383	30.89
182.602	61.61
182.822	4.27
183.042	80.04
183.262	-14.17
183.482	24.75
183.701	59.56
183.921	61.61
184.141	6.31
184.361	63.66
184.58	63.66
184.8	53.42
185.02	-10.07
185.239	84.14
185.459	28.84
185.679	20.65
185.898	-3.93
186.118	30.89
186.338	86.19
186.557	110.76
186.777	39.08
186.997	53.42
187.216	8.36
187.436	47.27
187.655	110.76
187.875	53.42
188.095	45.23
188.314	75.95
188.534	69.8
188.753	53.42
188.973	-26.45
189.192	92.33
189.412	28.84
189.631	77.99
189.851	61.61
190.07	80.04
190.29	-94.04
190.509	28.84
190.729	-8.02
190.948	71.85
191.168	137.38
191.387	49.32
191.607	47.27
191.826	22.7
192.045	16.55
192.265	-28.5
192.484	-1.88
192.704	39.08
192.923	37.03
193.142	100.52
193.362	53.42
193.581	45.23
193.8	24.75
194.02	24.75
194.239	41.13
194.458	24.75
194.678	39.08
194.897	69.8
195.116	-3.93
195.335	61.61
195.555	37.03
195.774	-32.6
195.993	63.66
196.212	-12.12
196.432	-1.88
196.651	49.32
196.87	6.31
197.089	112.81
197.308	16.55
197.528	55.47
197.747	-3.93
197.966	45.23
198.185	65.71
198.404	86.19
198.623	-59.22
198.842	77.99
199.062	69.8
199.281	0.17
199.5	37.03
199.719	18.6
199.938	59.56
200.157	34.99
200.376	98.47
200.595	69.8
200.814	94.38
201.033	53.42
201.252	98.47
201.471	30.89
201.69	69.8
201.909	73.9
202.128	22.7
202.347	39.08
202.566	61.61
202.785	10.41
203.004	-24.4
203.223	102.57
203.442	98.47
203.661	24.75
203.879	14.51
204.098	-18.26
204.317	57.51
204.536	47.27
204.755	-28.5
204.974	49.32
205.193	-20.31
205.411	90.28
205.63	24.75
205.849	71.85
206.068	86.19
206.287	24.75
206.505	53.42
206.724	-22.36
206.943	-18.26
207.162	14.51
207.381	4.27
207.599	-28.5
207.818	45.23
208.037	8.36
208.255	30.89
208.474	47.27
208.693	45.23
208.911	37.03
209.13	10.41
209.349	14.51
209.567	-20.31
209.786	53.42
210.005	30.89
210.223	-26.45
210.442	12.46
210.661	114.86
210.879	49.32
211.098	-1.88
211.316	39.08
211.535	110.76
211.753	-8.02
211.972	18.6
212.191	77.99
212.409	10.41
212.628	4.27
212.846	32.94
213.065	4.27
213.283	90.28
213.502	-30.55
213.72	2.22
213.938	41.13
214.157	-34.64
214.375	-1.88
214.594	86.19
214.812	53.42
215.031	-1.88
215.249	-16.21
215.467	-22.36
215.686	65.71
215.904	88.23
216.122	-1.88
216.341	174.25
216.559	14.51
216.778	53.42
216.996	28.84
217.214	-10.07
217.432	53.42
217.651	-51.03
217.869	2.22
218.087	12.46
218.306	-18.26
218.524	37.03
218.742	-14.17
218.96	102.57
219.179	-51.03
219.397	118.95
219.615	-48.98
219.833	24.75
220.051	-34.64
220.27	82.09
220.488	53.42
220.706	61.61
220.924	-3.93
221.142	4.27
221.36	20.65
221.578	6.31
221.796	37.03
222.015	41.13
222.233	45.23
222.451	61.61
222.669	4.27
222.887	102.57
223.105	-16.21
223.323	-44.88
223.541	-18.26
223.759	-3.93
223.977	24.75
224.195	30.89
224.413	71.85
224.631	69.8
224.849	147.62
225.067	82.09
225.285	39.08
225.503	-18.26
225.721	-3.93
225.939	14.51
226.157	61.61
226.375	88.23
226.592	-36.69
226.81	57.51
227.028	22.7
227.246	14.51
227.464	-42.84
227.682	92.33
227.9	30.89
228.117	8.36
228.335	30.89
228.553	-28.5
228.771	32.94
228.989	53.42
229.206	32.94
229.424	49.32
229.642	4.27
229.86	28.84
230.077	118.95
230.295	73.9
230.513	80.04
230.731	123.05
230.948	61.61
231.166	55.47
231.384	-77.65
231.601	30.89
231.819	75.95
232.037	-20.31
232.254	63.66
232.472	47.27
232.689	16.55
232.907	-10.07
233.125	28.84
233.342	53.42
233.56	94.38
233.777	32.94
233.995	-42.84
234.213	20.65
234.43	53.42
234.648	4.27
234.865	20.65
235.083	34.99
235.3	30.89
235.518	16.55
235.735	39.08
235.953	94.38
236.17	45.23
236.388	53.42
236.605	28.84
236.822	57.51
237.04	96.43
237.257	20.65
237.475	84.14
237.692	0.17
237.909	80.04
238.127	-18.26
238.344	63.66
238.562	14.51
238.779	67.75
238.996	-81.75
239.214	-28.5
239.431	75.95
239.648	-32.6
239.865	61.61
240.083	-1.88
240.3	57.51
240.517	69.8
240.735	57.51
240.952	49.32
241.169	80.04
241.386	86.19
241.603	67.75
241.821	16.55
242.038	127.14
242.255	141.48
242.472	-48.98
242.689	12.46
242.907	12.46
243.124	61.61
243.341	26.79
243.558	-24.4
243.775	53.42
243.992	45.23
244.209	41.13
244.426	172.2
244.643	10.41
244.86	20.65
245.078	61.61
245.295	65.71
245.512	28.84
245.729	20.65
245.946	45.23
246.163	65.71
246.38	4.27
246.597	4.27
246.814	61.61
247.031	12.46
247.248	-1.88
247.464	-8.02
247.681	47.27
247.898	49.32
248.115	24.75
248.332	84.14
248.549	110.76
248.766	45.23
248.983	39.08
249.2	73.9
249.417	20.65
249.633	30.89
249.85	6.31
250.067	118.95
250.284	37.03
250.501	63.66
250.717	37.03
250.934	32.94
251.151	73.9
251.368	49.32
251.585	12.46
251.801	26.79
252.018	-61.27
252.235	90.28
252.451	12.46
252.668	69.8
252.885	51.37
253.102	-16.21
253.318	4.27
253.535	37.03
253.752	32.94
253.968	32.94
254.185	-44.88
254.401	94.38
254.618	71.85
254.835	53.42
255.051	61.61
255.268	-10.07
255.484	-28.5
255.701	-20.31
255.917	24.75
256.134	32.94
256.351	-3.93
256.567	-12.12
256.784	53.42
257	4.27
257.217	88.23
257.433	80.04
257.65	61.61
257.866	0.17
258.082	-3.93
258.299	45.23
258.515	51.37
258.732	-18.26
258.948	39.08
259.165	71.85
259.381	37.03
259.597	20.65
259.814	96.43
260.03	57.51
260.246	4.27
260.463	-12.12
260.679	112.81
260.895	135.34
261.112	55.47
261.328	14.51
261.544	-10.07
261.761	71.85
261.977	-3.93
262.193	-16.21
262.409	102.57
262.626	45.23
262.842	-8.02
263.058	12.46
263.274	96.43
263.49	4.27
263.707	77.99
263.923	96.43
264.139	39.08
264.355	-20.31
264.571	94.38
264.787	20.65
265.004	8.36
265.22	8.36
265.436	2.22
265.652	4.27
265.868	61.61
266.084	-1.88
266.3	110.76
266.516	6.31
266.732	123.05
266.948	45.23
267.164	37.03
267.38	4.27
267.596	73.9
267.812	41.13
268.028	12.46
268.244	39.08
268.46	53.42
268.676	57.51
268.892	108.71
269.108	53.42
269.324	-44.88
269.54	61.61
269.756	110.76
269.972	8.36
270.188	37.03
270.403	-46.93
270.619	47.27
270.835	86.19
271.051	69.8
271.267	-20.31
271.483	14.51
271.698	53.42
271.914	71.85
272.13	41.13
272.346	24.75
272.562	57.51
272.777	47.27
272.993	-20.31
273.209	45.23
273.425	18.6
273.64	22.7
273.856	90.28
274.072	24.75
274.287	20.65
274.503	12.46
274.719	12.46
274.934	37.03
275.15	-44.88
275.366	63.66
275.581	24.75
275.797	10.41
276.012	53.42
276.228	73.9
276.444	59.56
276.659	41.13
276.875	-14.17
277.09	12.46
277.306	-44.88
277.521	39.08
277.737	28.84
277.952	61.61
278.168	39.08
278.383	20.65
278.599	45.23
278.814	32.94
279.03	12.46
279.245	77.99
279.461	73.9
279.676	69.8
279.892	-22.36
280.107	4.27
280.322	32.94
280.538	88.23
280.753	-24.4
280.969	4.27
281.184	53.42
281.399	98.47
281.615	20.65
281.83	41.13
282.045	45.23
282.26	-18.26
282.476	41.13
282.691	77.99
282.906	30.89
283.122	-28.5
283.337	77.99
283.552	41.13
283.767	69.8
283.983	24.75
284.198	-12.12
284.413	77.99
284.628	8.36
284.843	6.31
285.058	65.71
285.274	49.32
285.489	-24.4
285.704	49.32
285.919	-59.22
286.134	39.08
286.349	106.67
286.564	71.85
286.779	45.23
286.995	47.27
287.21	6.31
287.425	73.9
287.64	86.19
287.855	37.03
288.07	-36.69
288.285	16.55
288.5	77.99
288.715	28.84
288.93	57.51
289.145	106.67
289.36	41.13
289.575	22.7
289.79	37.03
290.004	-20.31
290.219	92.33
290.434	49.32
290.649	71.85
290.864	67.75
291.079	-3.93
291.294	77.99
291.509	-20.31
291.724	0.17
291.938	22.7
292.153	24.75
292.368	41.13
292.583	-18.26
292.798	22.7
293.012	47.27
293.227	100.52
293.442	73.9
293.657	-36.69
293.871	45.23
294.086	24.75
294.301	51.37
294.516	49.32
294.73	47.27
294.945	14.51
295.16	53.42
295.374	77.99
295.589	24.75
295.804	-36.69
296.018	37.03
296.233	55.47
296.447	37.03
296.662	20.65
296.877	61.61
297.091	57.51
297.306	37.03
297.52	37.03
297.735	41.13
297.949	57.51
298.164	61.61
298.378	-34.64
298.593	63.66
298.807	110.76
299.022	80.04
299.236	49.32
299.451	57.51
299.665	24.75
299.88	82.09
300.094	32.94
300.309	53.42
300.523	80.04
300.737	12.46
300.952	71.85
301.166	49.32
301.381	26.79
301.595	0.17
301.809	8.36
302.024	69.8
302.238	67.75
302.452	61.61
302.667	53.42
302.881	6.31
303.095	55.47
303.309	65.71
303.524	55.47
303.738	20.65
303.952	59.56
304.166	69.8
304.381	16.55
304.595	88.23
304.809	20.65
305.023	104.62
305.237	-48.98
305.452	37.03
305.666	28.84
305.88	37.03
306.094	77.99
306.308	55.47
306.522	57.51
306.736	71.85
306.95	22.7
307.164	63.66
307.379	104.62
307.593	2.22
307.807	63.66
308.021	80.04
308.235	-10.07
308.449	-51.03
308.663	20.65
308.877	77.99
309.091	20.65
309.305	55.47
309.519	-20.31
309.733	159.91
309.947	20.65
310.161	24.75
310.374	28.84
310.588	61.61
310.802	-1.88
311.016	-44.88
311.23	4.27
311.444	80.04
311.658	37.03
311.872	28.84
312.085	90.28
312.299	61.61
312.513	32.94
312.727	39.08
312.941	10.41
313.154	10.41
313.368	41.13
313.582	45.23
313.796	12.46
314.009	55.47
314.223	61.61
314.437	53.42
314.651	14.51
314.864	30.89
315.078	26.79
315.292	28.84
315.505	-77.65
315.719	0.17
315.933	20.65
316.146	55.47
316.36	80.04
316.573	69.8
316.787	69.8
317.001	65.71
317.214	82.09
317.428	94.38
317.641	41.13
317.855	-3.93
318.068	47.27
318.282	57.51
318.495	20.65
318.709	4.27
318.922	-14.17
319.136	102.57
319.349	10.41
319.563	4.27
319.776	84.14
319.99	55.47
320.203	84.14
320.417	14.51
320.63	45.23
320.843	125.1
321.057	34.99
321.27	16.55
321.483	-10.07
321.697	106.67
321.91	80.04
322.124	18.6
322.337	63.66
322.55	6.31
322.763	4.27
322.977	65.71
323.19	73.9
323.403	49.32
323.617	102.57
323.83	86.19
324.043	22.7
324.256	26.79
324.469	24.75
324.683	39.08
324.896	51.37
325.109	53.42
325.322	39.08
325.535	8.36
325.748	110.76
325.962	34.99
326.175	112.81
326.388	82.09
326.601	20.65
326.814	53.42
327.027	96.43
327.24	90.28
327.453	-16.21
327.666	112.81
327.879	-3.93
328.092	61.61
328.305	30.89
328.518	114.86
328.731	-16.21
328.944	53.42
329.157	41.13
329.37	43.18
329.583	159.91
329.796	90.28
330.009	14.51
330.222	30.89
330.435	16.55
330.648	88.23
330.861	49.32
331.073	32.94
331.286	32.94
331.499	61.61
331.712	-3.93
331.925	53.42
332.138	63.66
332.35	110.76
332.563	30.89
332.776	147.62
332.989	20.65
333.202	47.27
333.414	16.55
333.627	22.7
333.84	73.9
334.053	102.57
334.265	41.13
334.478	22.7
334.691	20.65
334.903	-10.07
335.116	65.71
335.329	82.09
335.541	61.61
335.754	53.42
335.966	28.84
336.179	47.27
336.392	73.9
336.604	53.42
336.817	47.27
337.029	-3.93
337.242	55.47
337.454	20.65
337.667	22.7
337.88	37.03
338.092	92.33
338.305	28.84
338.517	-44.88
338.729	112.81
338.942	135.34
339.154	-12.12
339.367	34.99
339.579	77.99
339.792	2.22
340.004	75.95
340.217	26.79
340.429	53.42
340.641	-51.03
340.854	28.84
341.066	41.13
341.278	49.32
341.491	47.27
341.703	63.66
341.915	51.37
342.128	39.08
342.34	96.43
342.552	49.32
342.764	57.51
342.977	55.47
343.189	39.08
343.401	59.56
343.613	-51.03
343.826	45.23
344.038	118.95
344.25	80.04
344.462	57.51
344.674	86.19
344.886	82.09
345.099	57.51
345.311	57.51
345.523	30.89
345.735	-8.02
345.947	45.23
346.159	73.9
346.371	57.51
346.583	-34.64
346.795	92.33
347.007	-3.93
347.219	157.86
347.431	34.99
347.643	69.8
347.855	10.41
348.067	90.28
348.279	53.42
348.491	69.8
348.703	10.41
348.915	6.31
349.127	49.32
349.339	86.19
349.551	53.42
349.763	55.47
349.975	14.51
350.187	24.75
350.399	116.9
350.61	53.42
350.822	55.47
351.034	86.19
351.246	-10.07
351.458	24.75
351.669	47.27
351.881	92.33
352.093	26.79
352.305	77.99
352.517	80.04
352.728	47.27
352.94	12.46
353.152	-12.12
353.363	61.61
353.575	10.41
353.787	102.57
353.999	12.46
354.21	73.9
354.422	-3.93
354.633	-10.07
354.845	28.84
355.057	102.57
355.268	102.57
355.48	47.27
355.692	41.13
355.903	88.23
356.115	53.42
356.326	98.47
356.538	94.38
356.749	37.03
356.961	143.53
357.172	61.61
357.384	20.65
357.595	30.89
357.807	108.71
358.018	8.36
358.23	37.03
358.441	55.47
358.653	55.47
358.864	69.8
359.075	2.22
359.287	37.03
359.498	90.28
359.709	106.67
359.921	53.42
360.132	96.43
360.344	45.23
360.555	63.66
360.766	61.61
360.977	6.31
361.189	114.86
361.4	71.85
361.611	135.34
361.823	73.9
362.034	102.57
362.245	-20.31
362.456	14.51
362.667	18.6
362.879	12.46
363.09	30.89
363.301	151.72
363.512	84.14
363.723	94.38
363.935	69.8
364.146	20.65
364.357	65.71
364.568	71.85
364.779	20.65
364.99	104.62
365.201	82.09
365.412	26.79
365.623	6.31
365.834	61.61
366.045	30.89
366.256	45.23
366.467	61.61
366.678	96.43
366.889	22.7
367.1	24.75
367.311	0.17
367.522	-3.93
367.733	45.23
367.944	4.27
368.155	37.03
368.366	37.03
368.577	57.51
368.788	39.08
368.999	61.61
369.209	30.89
369.42	131.24
369.631	112.81
369.842	86.19
370.053	92.33
370.264	98.47
370.474	73.9
370.685	90.28
370.896	39.08
371.107	69.8
371.317	82.09
371.528	69.8
371.739	106.67
371.95	12.46
372.16	-44.88
372.371	-44.88
372.582	30.89
372.792	73.9
373.003	67.75
373.214	61.61
373.424	6.31
373.635	-53.08
373.846	39.08
374.056	12.46
374.267	61.61
374.477	14.51
374.688	14.51
374.898	94.38
375.109	55.47
375.319	14.51
375.53	94.38
375.74	37.03
375.951	-1.88
376.161	63.66
376.372	51.37
376.582	55.47
376.793	43.18
377.003	55.47
377.214	47.27
377.424	88.23
377.635	112.81
377.845	47.27
378.055	139.43
378.266	63.66
378.476	143.53
378.686	65.71
378.897	10.41
379.107	102.57
379.317	135.34
379.528	6.31
379.738	161.96
379.948	73.9
380.158	53.42
380.369	53.42
380.579	82.09
380.789	16.55
380.999	57.51
381.21	116.9
381.42	69.8
381.63	39.08
381.84	28.84
382.05	14.51
382.261	57.51
382.471	32.94
382.681	-53.08
382.891	90.28
383.101	41.13
383.311	22.7
383.521	69.8
383.731	0.17
383.941	41.13
384.151	86.19
384.361	69.8
384.571	69.8
384.781	125.1
384.991	98.47
385.201	18.6
385.411	106.67
385.621	0.17
385.831	49.32
386.041	57.51
386.251	45.23
386.461	110.76
386.671	100.52
386.881	96.43
387.091	94.38
387.301	98.47
387.511	125.1
387.72	141.48
387.93	28.84
388.14	-26.45
388.35	82.09
388.56	98.47
388.769	47.27
388.979	110.76
389.189	69.8
389.399	77.99
389.609	53.42
389.818	57.51
390.028	57.51
390.238	14.51
390.447	55.47
390.657	118.95
390.867	39.08
391.076	43.18
391.286	88.23
391.496	12.46
391.705	61.61
391.915	102.57
392.125	45.23
392.334	108.71
392.544	20.65
392.753	47.27
392.963	135.34
393.172	80.04
393.382	6.31
393.591	129.19
393.801	28.84
394.01	127.14
394.22	129.19
394.429	49.32
394.639	94.38
394.848	45.23
395.058	141.48
395.267	92.33
395.477	88.23
395.686	102.57
395.895	155.82
396.105	135.34
396.314	98.47
396.524	4.27
396.733	47.27
396.942	135.34
397.152	127.14
397.361	86.19
397.57	61.61
397.78	86.19
397.989	110.76
398.198	110.76
398.407	45.23
398.617	151.72
398.826	104.62
399.035	102.57
399.244	139.43
399.453	88.23
399.663	77.99
399.872	118.95
400.081	32.94
400.29	118.95
400.499	121
400.708	65.71
400.917	112.81
401.127	45.23
401.336	104.62
401.545	188.58
401.754	77.99
401.963	118.95
402.172	92.33
402.381	96.43
402.59	102.57
402.799	108.71
403.008	94.38
403.217	135.34
403.426	157.86
403.635	176.3
403.844	123.05
404.053	77.99
404.262	159.91
404.471	166.06
404.68	178.34
404.888	121
405.097	69.8
405.306	145.58
405.515	143.53
405.724	159.91
405.933	178.34
406.142	235.69
406.35	219.3
406.559	151.72
406.768	159.91
406.977	194.73
407.185	188.58
407.394	172.2
407.603	204.97
407.812	241.83
408.02	241.83
408.229	209.06
408.438	227.5
408.646	180.39
408.855	274.6
409.064	323.75
409.272	233.64
409.481	309.41
409.69	282.79
409.898	200.87
410.107	245.93
410.315	381.09
410.524	290.98
410.733	340.13
410.941	364.71
411.15	348.33
411.358	405.67
411.567	381.09
411.775	438.44
411.984	358.57
412.192	446.63
412.401	422.05
412.609	467.11
412.818	481.44
413.026	397.48
413.234	487.59
413.443	426.15
413.651	534.69
413.86	520.35
414.068	581.79
414.276	620.71
414.485	575.65
414.693	669.86
414.901	757.92
415.11	688.29
415.318	635.04
415.526	643.23
415.734	782.49
415.943	790.69
416.151	794.78
416.359	823.45
416.567	956.57
416.776	854.17
416.984	917.66
417.192	958.62
417.4	954.52
417.608	946.33
417.817	1106.07
418.025	1095.83
418.233	1120.41
418.441	1128.6
418.649	1163.42
418.857	1294.49
419.065	1339.54
419.273	1319.06
419.481	1366.17
419.689	1446.04
419.897	1491.09
420.105	1441.94
420.313	1577.11
420.521	1601.68
420.729	1667.22
420.937	1650.83
421.145	1732.75
421.353	1855.63
421.561	1929.36
421.769	1962.12
421.977	1925.26
422.185	2072.72
422.393	2101.39
422.601	2183.31
422.809	2308.23
423.017	2226.31
423.224	2375.81
423.432	2525.32
423.64	2519.17
423.848	2685.06
424.056	2502.79
424.263	2887.81
424.471	2816.13
424.679	2842.75
424.887	3051.64
425.094	3178.62
425.302	3088.51
425.51	3276.92
425.718	3391.61
425.925	3352.7
426.133	3524.72
426.341	3686.51
426.548	3858.54
426.756	3813.49
426.964	3887.22
427.171	4055.15
427.379	4309.1
427.586	4266.09
427.794	4438.12
428.001	4587.62
428.209	4679.78
428.417	4741.22
428.624	4997.21
428.832	5048.41
429.039	5234.78
429.247	5052.51
429.454	5580.89
429.662	5820.5
429.869	5529.69
430.076	5916.75
430.284	5986.38
430.491	6152.27
430.699	6303.82
430.906	6387.79
431.114	6412.36
431.321	6690.88
431.528	6731.84
431.736	7209.02
431.943	7739.44
432.15	7223.36
432.358	7360.57
432.565	7987.25
432.772	7798.84
432.979	8144.94
433.187	8337.45
433.394	8433.71
433.601	9105.44
433.808	9072.67
434.016	9019.43
434.223	9324.57
434.43	10022.93
434.637	9699.35
434.844	10553.35
435.052	10420.24
435.259	10205.2
435.466	10584.07
435.673	10502.15
435.88	11094.02
436.087	11841.53
436.294	11753.46
436.501	11563
436.708	11810.81
436.915	12265.46
437.122	12589.03
437.329	12523.5
437.537	12914.66
437.743	13201.38
437.95	12931.05
438.157	13930.45
438.364	14477.26
438.571	14200.79
438.778	14540.75
438.985	15732.67
439.192	15247.3
439.399	15497.15
439.606	15032.26
439.813	15919.03
440.02	17035.17
440.227	16652.2
440.433	16699.31
440.64	17233.83
440.847	16908.2
441.054	17522.59
441.261	18810.76
441.467	18567.06
441.674	18583.44
441.881	19310.47
442.088	19365.76
442.294	19447.68
442.501	19558.27
442.708	20090.74
442.914	20807.53
443.121	21735.26
443.328	21223.27
443.534	22703.95
443.741	22116.19
443.948	21798.75
444.154	23494.47
444.361	23269.19
444.568	23510.85
444.774	23142.22
444.981	23629.63
445.187	24428.34
445.394	25216.81
445.6	25130.8
445.807	27385.61
446.013	26271.51
446.22	26566.42
446.426	28036.86
446.633	27950.85
446.839	29040.37
447.046	27549.45
447.252	29480.68
447.459	29398.76
447.665	29216.49
447.871	30713.56
448.078	32057.03
448.284	30545.62
448.491	31356.62
448.697	32186.05
448.903	33191.6
449.11	32951.99
449.316	32528.06
449.522	33644.2
449.728	34041.51
449.935	34516.64
450.141	34352.8
450.347	35210.9
450.553	34104.99
450.76	34490.01
450.966	35661.45
451.172	35200.66
451.378	36644.48
451.584	35219.09
451.791	36437.63
451.997	36361.86
452.203	36853.37
452.409	37068.41
452.615	36832.89
452.821	35456.65
453.027	35268.24
453.233	37062.26
453.44	35368.59
453.646	35999.37
453.852	36142.72
454.058	36646.52
454.264	35853.96
454.47	36427.39
454.676	35223.19
454.882	36742.78
455.088	33584.81
455.294	34492.06
455.5	34670.23
455.705	34926.23
455.911	33367.73
456.117	33263.28
456.323	32624.31
456.529	31104.72
456.735	32593.59
456.941	31790.79
457.147	30658.26
457.352	30320.35
457.558	29927.14
457.764	30062.3
457.97	29607.65
458.176	28704.5
458.381	28888.82
458.587	27406.09
458.793	27414.28
458.999	26126.11
459.204	27997.95
459.41	27430.66
459.616	25546.53
459.821	25536.29
460.027	25362.22
460.233	24536.88
460.438	23682.88
460.644	23854.91
460.85	22859.6
461.055	22447.96
461.261	22572.88
461.466	20883.31
461.672	20281.21
461.878	21569.38
462.083	20363.12
462.289	19838.84
462.494	20014.97
462.7	18847.63
462.905	18321.3
463.111	19175.3
463.316	19038.09
463.522	18538.38
463.727	18722.7
463.932	18714.51
464.138	18427.79
464.343	18487.18
464.549	17860.51
464.754	18411.41
464.959	18263.96
465.165	18290.58
465.37	17551.26
465.575	17004.46
465.781	17686.43
465.986	17999.77
466.191	17364.9
466.397	16736.17
466.602	16056.25
466.807	16707.5
467.012	16797.61
467.218	16668.59
467.423	16512.94
467.628	16537.52
467.833	17051.56
468.038	16594.86
468.244	16105.4
468.449	16744.36
468.654	16039.86
468.859	16058.29
469.064	15880.12
469.269	15523.77
469.474	15638.46
469.679	15908.79
469.885	15587.26
470.09	15828.92
470.295	15638.46
470.5	15112.13
470.705	15245.25
470.91	14962.63
471.115	14677.96
471.32	15232.96
471.525	14954.44
471.73	14751.69
471.935	14606.28
472.139	13987.8
472.344	14276.56
472.549	14094.29
472.754	14077.91
472.959	13633.5
473.164	13484
473.369	13244.38
473.574	13795.29
473.778	13440.99
473.983	13637.59
474.188	13467.61
474.393	12752.87
474.598	12773.35
474.802	12804.07
475.007	12775.4
475.212	12603.37
475.417	12333.04
475.621	12322.8
475.826	12320.75
476.031	11825.14
476.235	11812.85
476.44	11923.44
476.645	11728.89
476.849	11841.53
477.054	11681.78
477.259	11468.8
477.463	11407.36
477.668	11298.81
477.872	11366.4
478.077	11245.57
478.282	10782.73
478.486	10950.66
478.691	10727.43
478.895	10932.23
479.1	10690.57
479.304	10766.34
479.509	10432.52
479.713	10653.7
479.918	10242.06
480.122	10307.6
480.326	10303.5
480.531	10235.92
480.735	9957.39
480.94	10158.1
481.144	10467.34
481.348	9887.76
481.553	10213.39
481.757	9863.19
481.961	9926.68
482.166	10225.68
482.37	9865.24
482.574	9912.34
482.778	9783.32
482.983	10074.13
483.187	9981.97
483.391	10022.93
483.595	9828.37
483.8	9719.83
484.004	9830.42
484.208	9932.82
484.412	9793.56
484.616	9801.75
484.821	9914.39
485.025	10022.93
485.229	9785.37
485.433	9990.16
485.637	9910.29
485.841	9760.79
486.045	9840.66
486.249	9986.07
486.453	9756.69
486.657	9779.22
486.861	9898
487.065	9504.79
487.269	9811.99
487.473	9744.41
487.677	9965.59
487.881	9852.95
488.085	9779.22
488.289	9998.35
488.493	9824.28
488.697	9969.68
488.901	9977.87
489.105	9992.21
489.309	10080.27
489.512	10053.65
489.716	10188.82
489.92	10121.23
490.124	10014.74
490.328	10209.29
490.531	10166.29
490.735	10319.89
490.939	10395.66
491.143	10319.89
491.346	10246.16
491.55	10426.38
491.754	10483.72
491.958	10493.96
492.161	10428.43
492.365	10559.5
492.569	10387.47
492.772	10620.94
492.976	10831.88
493.18	10539.02
493.383	10977.28
493.587	10973.19
493.79	10874.88
493.994	10997.76
494.197	11169.79
494.401	11180.03
494.605	11089.92
494.808	11474.94
495.012	11220.99
495.215	11419.64
495.419	11599.87
495.622	11651.06
495.825	11851.77
496.029	11804.66
496.232	12060.66
496.436	11763.7
496.639	12371.95
496.843	12169.2
497.046	12484.59
497.249	12771.3
497.453	12636.14
497.656	12705.77
497.859	13055.97
498.063	12996.58
498.266	13299.68
498.469	13053.92
498.673	13440.99
498.876	13496.28
499.079	13719.51
499.282	13729.75
499.485	13965.27
499.689	14016.47
499.892	14440.4
500.095	14266.32
500.298	14669.77
500.501	14616.52
500.705	15060.93
500.908	15089.6
501.111	15284.16
501.314	15327.17
501.517	15763.39
501.72	16060.34
501.923	15714.23
502.126	16097.21
502.329	16437.17
502.532	16687.02
502.735	16705.45
502.938	16967.59
503.141	17321.89
503.344	17612.7
503.547	17426.34
503.75	17479.58
503.953	17950.62
504.156	18132.89
504.359	18331.54
504.562	18407.31
504.765	18995.08
504.968	18956.17
505.17	19042.18
505.373	19214.21
505.576	19564.42
505.779	19781.5
505.982	20078.46
506.185	20606.83
506.387	20350.84
506.59	20590.45
506.793	21041
506.996	21104.49
507.198	21604.19
507.401	21360.48
507.604	22019.93
507.807	22259.54
508.009	22302.55
508.212	22171.48
508.415	23017.29
508.617	22927.18
508.82	23193.42
509.022	23334.73
509.225	23807.81
509.428	24211.26
509.63	24270.65
509.833	24303.42
510.035	24895.28
510.238	24952.62
510.44	25087.79
510.643	25618.21
510.845	25755.43
511.048	25720.61
511.25	26177.31
511.453	26310.43
511.655	27115.28
511.858	26945.3
512.06	27270.92
512.262	27184.91
512.465	27741.96
512.667	28305.15
512.87	28385.02
513.072	28225.28
513.274	28948.21
513.477	29241.07
513.679	29288.17
513.881	29748.96
514.084	29972.19
514.286	30045.92
514.488	30279.39
514.69	30910.16
514.893	31207.12
515.095	31393.48
515.297	31647.43
515.499	31575.75
515.701	32014.02
515.904	32769.72
516.106	32956.08
516.308	33140.4
516.51	33375.92
516.712	33330.86
516.914	33955.49
517.116	34188.96
517.318	34444.96
517.52	34559.64
517.722	35038.87
517.925	35290.77
518.127	35839.62
518.329	35929.73
518.531	35731.08
518.733	36757.11
518.935	37158.52
519.136	36888.18
519.338	37715.56
519.54	37512.81
519.742	37744.23
519.944	37615.21
520.146	38792.79
520.348	38276.71
520.55	39079.51
520.752	39200.34
520.954	39863.88
521.155	39730.76
521.357	39904.84
521.559	40326.72
521.761	40986.17
521.963	40767.04
522.164	41145.91
522.366	41410.1
522.568	41756.21
522.77	41915.95
522.971	42772
523.173	42505.76
523.375	42624.54
523.576	42829.34
523.778	43324.95
523.98	43460.12
524.181	43533.84
524.383	43587.09
524.584	44082.7
524.786	43972.11
524.988	44172.81
525.189	44881.41
525.391	44770.82
525.592	45045.24
525.794	44709.38
525.995	45155.83
526.197	45704.69
526.398	45471.22
526.6	45991.4
526.801	46007.79
527.003	46134.76
527.204	46147.05
527.406	46755.3
527.607	46501.35
527.808	46693.86
528.01	46390.76
528.211	46888.42
528.412	47427.03
528.614	47007.2
528.815	47037.92
529.016	47490.52
529.218	47248.86
529.419	47445.46
529.62	47711.7
529.822	47547.86
530.023	47306.2
530.224	47545.81
530.425	47988.17
530.626	47367.64
530.828	47451.61
531.029	48510.41
531.23	47818.19
531.431	48174.54
531.632	48469.45
531.833	48631.24
532.035	48545.22
532.236	48498.12
532.437	48367.05
532.638	47859.15
532.839	48514.5
533.04	48453.06
533.241	47713.75
533.442	48920
533.643	48287.18
533.844	48518.6
534.045	48664
534.246	48342.47
534.447	49028.54
534.648	48782.79
534.849	48639.43
535.05	48717.25
535.251	49104.32
535.451	48637.38
535.652	48866.75
535.853	48629.19
536.054	49176
536.255	48725.44
536.456	48479.69
536.657	49345.98
536.857	48600.52
537.058	48164.3
537.259	48926.14
537.46	49151.42
537.66	48512.45
537.861	48811.46
538.062	48651.72
538.263	49014.21
538.463	48702.92
538.664	48729.54
538.865	49104.32
539.065	49006.01
539.266	48442.82
539.466	49104.32
539.667	48467.4
539.868	49069.5
540.068	48586.18
540.269	49030.59
540.469	48922.05
540.67	48809.41
540.87	48448.97
541.071	48307.66
541.271	49145.28
541.472	48790.98
541.672	48725.44
541.873	48600.52
542.073	48338.38
542.274	49159.61
542.474	48149.96
542.675	48192.97
542.875	49069.5
543.075	48825.79
543.276	48170.44
543.476	48975.3
543.676	48373.19
543.877	48545.22
544.077	48371.14
544.277	48569.8
544.478	48178.64
544.678	48774.59
544.878	48235.98
545.078	48731.59
545.279	47883.73
545.479	48149.96
545.679	48864.71
545.879	48678.34
546.079	48825.79
546.28	48362.95
546.48	48082.38
546.68	47982.03
546.88	48530.89
547.08	48448.97
547.28	48389.58
547.48	47982.03
547.68	48211.4
547.88	48412.1
548.081	48602.57
548.281	48129.48
548.481	48018.89
548.681	48481.73
548.881	48152.01
549.081	48547.27
549.28	48035.28
549.48	48547.27
549.68	48254.41
549.88	48846.27
550.08	48240.07
550.28	48141.77
550.48	48006.61
550.68	48510.41
550.88	47889.87
551.08	48309.71
551.279	48514.5
551.479	47769.04
551.679	48080.33
551.879	47738.32
552.079	48244.17
552.278	47801.81
552.478	48465.35
552.678	47936.98
552.878	48408.01
553.077	47973.84
553.277	47932.88
553.477	48258.51
553.676	47857.1
553.876	47685.08
554.076	47412.7
554.275	47807.95
554.475	47242.71
554.674	47853.01
554.874	48203.21
555.074	47685.08
555.273	47652.31
555.473	47875.54
555.672	47185.37
555.872	47889.87
556.071	47896.02
556.271	47723.99
556.47	47365.59
556.67	46722.53
556.869	47179.23
557.068	47449.56
557.268	47070.68
557.467	47422.94
557.667	47414.74
557.866	46970.33
558.065	47171.03
558.265	47132.12
558.464	46616.04
558.663	47330.78
558.863	46476.77
559.062	47234.52
559.261	46730.72
559.461	47011.29
559.66	46130.67
559.859	46988.77
560.058	46216.68
560.258	46480.87
560.457	46226.92
560.656	46880.22
560.855	46532.07
561.054	46659.04
561.253	45811.18
561.453	45940.21
561.652	46321.13
561.851	46343.66
562.05	46222.83
562.249	46173.67
562.448	46609.89
562.647	46519.78
562.846	46126.57
563.045	46226.92
563.244	45893.1
563.443	46122.47
563.642	45307.38
563.841	46001.64
564.04	45501.94
564.239	46032.36
564.438	45374.97
564.637	45327.86
564.836	45624.82
565.035	45014.52
565.234	45499.89
565.432	45262.33
565.631	44903.93
565.83	45116.92
566.029	45137.4
566.228	44715.52
566.427	44819.97
566.625	44766.72
566.824	44516.87
567.023	44731.9
567.222	44285.45
567.42	44912.13
567.619	44781.06
567.818	44191.24
568.016	44111.37
568.215	44914.17
568.414	43939.34
568.612	44666.37
568.811	43851.28
569.01	43894.28
569.208	43601.43
569.407	43959.82
569.605	43345.43
569.804	43517.46
570.002	43468.31
570.201	43429.4
570.4	43312.66
570.598	43134.49
570.797	42962.46
570.995	42995.23
571.193	42835.49
571.392	43302.42
571.59	42585.63
571.789	42638.88
571.987	42823.2
572.186	42341.92
572.384	42319.4
572.582	42485.28
572.781	42552.87
572.979	41952.81
573.177	42399.27
573.376	42384.93
573.574	42092.07
573.772	41858.6
573.971	41672.24
574.169	41518.64
574.367	41645.62
574.565	41711.15
574.763	41418.29
574.962	41342.52
575.16	41123.38
575.358	41375.28
575.556	41000.51
575.754	41233.97
575.952	40920.63
576.151	40910.39
576.349	40482.37
576.547	40513.09
576.745	40865.34
576.943	40990.27
577.141	39968.33
577.339	40502.85
577.537	40465.99
577.735	40246.85
577.933	39626.32
578.131	40050.25
578.329	39810.64
578.527	39626.32
578.725	39878.22
578.923	39956.04
579.121	39894.6
579.319	39188.05
579.516	39331.41
579.714	39470.67
579.912	38788.7
580.11	38991.45
580.308	39093.85
580.506	39114.33
580.704	38198.88
580.901	38807.13
581.099	38495.84
581.297	38252.13
581.495	38239.84
581.692	38307.43
581.89	38274.66
582.088	38237.8
582.285	38250.08
582.483	38211.17
582.681	38010.47
582.878	37815.91
583.076	37213.81
583.274	37961.32
583.471	37107.32
583.669	37408.37
583.866	37209.71
584.064	37187.19
584.262	36968.05
584.459	37099.12
584.657	36836.98
584.854	37105.27
585.052	36578.94
585.249	36789.88
585.447	36580.99
585.644	36429.44
585.841	36226.69
586.039	36497.02
586.236	36343.42
586.434	35935.88
586.631	35921.54
586.828	35825.29
587.026	35976.84
587.223	35942.02
587.42	35548.81
587.618	35821.19
587.815	35335.82
588.012	35305.1
588.21	34825.88
588.407	35229.33
588.604	34999.96
588.801	34840.22
588.999	34942.61
589.196	34807.45
589.393	34694.81
589.59	34764.44
589.787	34332.32
589.984	34193.06
590.182	34021.03
590.379	34025.12
590.576	33703.59
590.773	33984.16
590.97	33826.47
591.167	33533.61
591.364	33441.45
591.561	33928.87
591.758	33414.83
591.955	33463.98
592.152	33291.95
592.349	33183.41
592.546	33312.43
592.743	33205.94
592.94	32806.58
593.137	33124.02
593.334	32966.32
593.531	32472.76
593.727	33044.15
593.924	32599.74
594.121	32200.38
594.318	32345.79
594.515	32186.05
594.712	32458.43
594.908	32155.33
595.105	32235.2
595.302	31674.06
595.499	32075.46
595.696	31643.34
595.892	31571.66
596.089	31559.37
596.286	31641.29
596.482	31180.49
596.679	31389.39
596.876	31583.94
597.072	31270.61
597.269	31028.95
597.466	30453.47
597.662	30451.42
597.859	31084.24
598.055	30906.07
598.252	30414.55
598.448	30551.77
598.645	30185.18
598.841	30090.98
599.038	30488.28
599.234	30389.98
599.431	29992.67
599.627	29943.52
599.824	30199.52
600.02	29769.44
600.217	29849.32
600.413	29333.23
600.609	29599.46
600.806	29613.8
601.002	29488.87
601.198	29452.01
601.395	29130.48
601.591	28917.49
601.787	29163.25
601.984	28897.01
602.18	29075.18
602.376	28616.44
602.572	28784.37
602.769	28753.65
602.965	28401.4
603.161	28368.63
603.357	28417.79
603.553	28108.54
603.75	28286.72
603.946	28178.17
604.142	28186.36
604.338	27780.87
604.534	27709.19
604.73	27537.16
604.926	27473.67
605.122	27541.25
605.318	27258.63
605.514	27414.28
605.71	27281.16
605.906	27105.04
606.102	27264.78
606.298	27250.44
606.494	27295.5
606.69	27074.32
606.886	27107.09
607.082	26515.22
607.278	27021.07
607.474	26396.44
607.67	26910.48
607.866	26185.5
608.062	26785.55
608.257	26410.78
608.453	26502.93
608.649	26507.03
608.845	26005.28
609.041	26236.7
609.236	26117.92
609.432	26195.74
609.628	26253.08
609.824	25992.99
610.019	25798.43
610.215	25870.11
610.411	25921.31
610.606	25667.36
610.802	25702.18
610.998	25612.07
611.193	25597.73
611.389	25292.58
611.584	25296.68
611.78	25237.29
611.976	25450.28
612.171	25358.12
612.367	25161.51
612.562	25343.78
612.758	25104.17
612.953	24856.37
613.149	25110.32
613.344	24839.98
613.539	25104.17
613.735	25104.17
613.93	24854.32
614.126	24667.95
614.321	25122.6
614.517	24860.46
614.712	24629.04
614.907	24340.28
615.103	24713.01
615.298	24031.04
615.493	24678.19
615.688	24299.32
615.884	24588.08
616.079	24276.79
616.274	24309.56
616.47	24207.16
616.665	24072
616.86	24094.52
617.055	23914.3
617.25	23904.06
617.445	23945.02
617.641	23449.41
617.836	23832.38
618.031	23699.27
618.226	23641.92
618.421	23625.54
618.616	23822.14
618.811	23101.26
619.006	23686.98
619.201	23103.31
619.396	23152.46
619.591	22957.9
619.786	23011.15
619.981	22728.53
620.176	22841.17
620.371	22667.09
620.566	22888.27
620.761	22499.16
620.956	22450
621.151	22198.1
621.346	22167.38
621.541	22114.14
621.735	22351.7
621.93	21919.58
622.125	21995.36
622.32	21370.72
622.515	21858.14
622.709	21438.31
622.904	21253.99
623.099	21090.15
623.294	21069.67
623.488	20739.95
623.683	21124.97
623.878	20559.73
624.072	20576.11
624.267	20340.6
624.462	20385.65
624.656	20240.25
624.851	20494.19
625.046	20049.78
625.24	20133.75
625.435	20039.54
625.629	20029.31
625.824	19599.23
626.018	19582.85
626.213	19367.81
626.407	19390.34
626.602	19160.97
626.796	19355.52
626.991	19068.81
627.185	19089.29
627.38	18839.44
627.574	18675.6
627.768	18763.66
627.963	18659.21
628.157	18282.39
628.352	18524.05
628.546	18253.72
628.74	18261.91
628.935	18136.98
629.129	17868.7
629.323	17743.77
629.517	17594.27
629.712	17754.01
629.906	17768.35
630.1	17344.42
630.294	17602.46
630.489	17391.52
630.683	17332.13
630.877	17199.01
631.071	16998.31
631.265	16981.93
631.459	16912.3
631.653	16891.82
631.848	16730.03
632.042	16684.97
632.236	16678.83
632.43	16568.24
632.624	16371.63
632.818	16488.37
633.012	15966.14
633.206	15800.25
633.4	16203.7
633.594	15767.48
633.788	16007.09
633.982	15884.22
634.176	16005.05
634.369	15658.94
634.563	15458.24
634.757	15534.01
634.951	15413.18
635.145	15531.97
635.339	15286.21
635.533	15169.48
635.726	15005.64
635.92	15038.41
636.114	15122.37
636.308	14770.12
636.501	14884.81
636.695	14700.49
636.889	14579.66
637.083	14653.39
637.276	14534.6
637.47	14215.12
637.664	14391.25
637.857	14272.46
638.051	14069.72
638.244	14018.52
638.438	13938.65
638.632	13842.39
638.825	13881.3
639.019	13676.51
639.212	13488.09
639.406	13803.48
639.599	13512.67
639.793	13565.92
639.986	13379.55
640.18	13424.61
640.373	13373.41
640.567	13336.54
640.76	13088.74
640.954	12918.76
641.147	13045.73
641.34	12908.52
641.534	12990.44
641.727	12828.65
641.92	12791.78
642.114	12601.32
642.307	12660.71
642.5	12554.22
642.694	12285.94
642.887	12300.27
643.08	12167.15
643.273	12255.22
643.467	12009.46
643.66	12013.56
643.853	12165.11
644.046	11999.22
644.239	11763.7
644.432	11735.03
644.626	11751.42
644.819	11606.01
645.012	11739.13
645.205	11620.35
645.398	11636.73
645.591	11309.05
645.784	11534.33
645.977	11276.29
646.17	11405.31
646.363	11180.03
646.556	10987.52
646.749	11110.4
646.942	11159.55
647.135	10760.2
647.328	10792.97
647.521	10833.93
647.714	10526.73
647.907	10637.32
648.099	10670.09
648.292	10547.21
648.485	10457.1
648.678	10377.23
648.871	10332.17
649.064	10197.01
649.256	10291.21
649.449	10141.71
649.642	10211.34
649.835	10082.32
650.027	9924.63
650.22	10047.51
650.413	9910.29
650.605	9904.15
650.798	9642.01
650.991	9689.11
651.183	9707.54
651.376	9553.94
651.568	9617.43
651.761	9490.46
651.954	9359.39
652.146	9361.44
652.339	9355.29
652.531	9316.38
652.724	9377.82
652.916	9078.82
653.109	8962.08
653.301	9125.92
653.494	8941.6
653.686	9003.04
653.879	9056.29
654.071	8962.08
654.263	8927.27
654.456	8876.07
654.648	8843.3
654.84	8525.86
655.033	8738.85
655.225	8589.35
655.417	8585.26
655.61	8515.62
655.802	8540.2
655.994	8364.08
656.186	8595.5
656.379	8425.51
656.571	8407.08
656.763	8161.33
656.955	8124.46
657.148	8273.96
657.34	8034.35
657.532	8130.61
657.724	7966.77
657.916	8169.52
658.108	7899.19
658.3	7948.34
658.492	7749.68
658.684	7667.77
658.876	7606.33
659.068	7731.25
659.26	7397.43
659.452	7639.09
659.644	7620.66
659.836	7491.64
660.028	7526.46
660.22	7446.59
660.412	7434.3
660.604	7311.42
660.796	7354.43
660.988	7286.84
661.18	7155.77
661.372	7108.67
661.563	7047.23
661.755	7106.62
661.947	6957.12
662.139	7053.38
662.331	6938.69
662.522	6895.68
662.714	6914.11
662.906	6688.84
663.097	6758.47
663.289	6631.49
663.481	6703.17
663.673	6574.15
663.864	6512.71
664.056	6516.81
664.247	6615.11
664.439	6385.74
664.631	6582.34
664.822	6506.57
665.014	6238.28
665.205	6436.94
665.397	6213.71
665.588	6246.48
665.78	6191.18
665.971	6170.7
666.163	6219.85
666.354	6187.08
666.546	6033.49
666.737	6004.82
666.929	5996.62
667.12	5970
667.311	5892.18
667.503	5830.74
667.694	5802.07
667.885	5795.92
668.077	5865.55
668.268	5785.68
668.459	5843.03
668.651	5666.9
668.842	5783.63
669.033	5748.82
669.224	5617.75
669.416	5570.65
669.607	5609.56
669.798	5427.29
669.989	5525.59
670.18	5453.91
670.371	5593.17
670.563	5541.97
670.754	5281.88
670.945	5380.18
671.136	5328.99
671.327	5265.5
671.518	5328.99
671.709	5304.41
671.9	5296.22
672.091	5271.64
672.282	5378.14
672.473	5183.58
672.664	5183.58
672.855	5187.68
673.046	5150.81
673.237	5087.33
673.428	4968.54
673.619	5095.52
673.809	5220.44
674	5101.66
674.191	4991.07
674.382	4833.38
674.573	4855.9
674.764	4954.21
674.954	4913.25
675.145	4829.28
675.336	4749.41
675.527	4806.75
675.717	4761.7
675.908	4782.18
676.099	4673.64
676.289	4829.28
676.48	4616.29
676.671	4634.72
676.861	4673.64
677.052	4632.68
677.243	4601.96
677.433	4528.23
677.624	4534.37
677.814	4472.93
678.005	4571.24
678.195	4669.54
678.386	4528.23
678.576	4417.64
678.767	4419.69
678.957	4413.54
679.148	4485.22
679.338	4452.45
679.529	4403.3
679.719	4288.62
679.909	4358.25
680.1	4290.67
680.29	4348.01
680.481	4290.67
680.671	4288.62
680.861	4264.04
681.052	4231.27
681.242	4268.14
681.432	4227.18
681.622	4184.17
681.813	4178.03
682.003	4243.56
682.193	4089.96
682.383	4284.52
682.573	4083.82
682.764	4126.83
682.954	4198.51
683.144	4055.15
683.334	4208.75
683.524	4028.53
683.714	4065.39
683.904	4087.92
684.094	4057.2
684.284	3979.37
684.474	4175.98
684.664	4034.67
684.854	3989.61
685.044	3952.75
685.234	3926.13
685.424	3936.37
685.614	3911.79
685.804	4036.72
685.994	3971.18
686.184	3995.76
686.374	3813.49
686.564	3889.26
686.753	3842.16
686.943	3821.68
687.133	3825.78
687.323	3698.8
687.513	3919.98
687.702	3825.78
687.892	3833.97
688.082	3807.34
688.272	3715.19
688.461	3674.23
688.651	3805.3
688.841	3715.19
689.03	3862.64
689.22	3702.9
689.41	3612.79
689.599	3594.36
689.789	3700.85
689.979	3676.27
690.168	3608.69
690.358	3584.12
690.547	3600.5
690.737	3545.2
690.926	3651.7
691.116	3453.05
691.305	3627.12
691.495	3367.03
691.684	3436.66
691.874	3530.87
692.063	3444.85
692.252	3448.95
692.442	3442.81
692.631	3559.54
692.82	3364.98
693.01	3514.49
693.199	3442.81
693.388	3342.46
693.578	3487.86
693.767	3436.66
693.956	3414.13
694.146	3311.74
694.335	3223.67
694.524	3330.17
694.713	3217.53
694.902	3297.4
695.092	3334.26
695.281	3287.16
695.47	3151.99
695.659	3276.92
695.848	3291.26
696.037	3080.32
696.226	3113.08
696.415	3227.77
696.604	3225.72
696.793	3281.02
696.982	3199.1
697.171	3287.16
697.36	3063.93
697.549	3151.99
697.738	3145.85
697.927	3141.75
698.116	3197.05
698.305	3113.08
698.494	3010.68
698.683	3002.49
698.872	3272.82
699.061	3047.55
699.25	2957.44
699.438	3151.99
699.627	3108.99
699.816	3141.75
700.005	3027.07
700.193	3090.56
700.382	3076.22
700.571	2961.53
700.76	2930.81
700.948	3184.76
701.137	3051.64
701.326	2953.34
701.514	2961.53
701.703	2947.2
701.892	2912.38
702.08	2871.42
702.269	2891.9
702.457	2824.32
702.646	2889.85
702.834	2930.81
703.023	2896
703.212	3022.97
703.4	2891.9
703.589	2838.66
703.777	2838.66
703.965	2764.93
704.154	2951.29
704.342	2826.37
704.531	2805.89
704.719	2701.44
704.907	2773.12
705.096	2728.07
705.284	2814.08
705.472	2721.92
705.661	2713.73
705.849	2764.93
706.037	2683.01
706.226	2734.21
706.414	2887.81
706.602	2723.97
706.79	2689.15
706.979	2707.59
707.167	2726.02
707.355	2666.63
707.543	2695.3
707.731	2797.7
707.919	2711.68
708.107	2553.99
708.296	2748.54
708.484	2498.69
708.672	2672.77
708.86	2611.33
709.048	2568.32
709.236	2738.3
709.424	2603.14
709.612	2791.55
709.8	2504.84
709.988	2644.1
710.176	2560.13
710.364	2560.13
710.551	2556.04
710.739	2504.84
710.927	2621.57
711.115	2660.48
711.303	2490.5
711.491	2515.08
711.679	2486.4
711.866	2478.21
712.054	2482.31
712.242	2437.25
712.43	2541.7
712.617	2461.83
712.805	2461.83
712.993	2431.11
713.181	2549.89
713.368	2453.64
713.556	2502.79
713.744	2472.07
713.931	2398.34
714.119	2461.83
714.306	2412.68
714.494	2392.2
714.682	2406.53
714.869	2332.81
715.057	2367.62
715.244	2343.05
715.432	2447.49
715.619	2332.81
715.807	2402.44
715.994	2367.62
716.182	2367.62
716.369	2283.66
716.556	2285.7
716.744	2412.68
716.931	2183.31
717.119	2322.57
717.306	2263.18
717.493	2300.04
717.681	2365.57
717.868	2242.7
718.055	2242.7
718.242	2222.22
718.43	2289.8
718.617	2115.72
718.804	2166.92
718.991	2125.96
719.179	2209.93
719.366	2250.89
719.553	2238.6
719.74	2142.35
719.927	2101.39
720.114	2168.97
720.301	2093.19
720.488	2154.63
720.676	2140.3
720.863	2250.89
721.05	2201.74
721.237	2134.15
721.424	2177.16
721.611	2173.07
721.798	2087.05
721.985	2109.58
722.172	2076.81
722.358	2123.91
722.545	2226.31
722.732	2130.06
722.919	2314.38
723.106	2029.71
723.293	2025.61
723.48	2199.69
723.667	2048.14
723.853	2119.82
724.04	2070.67
724.227	2013.32
724.414	2158.73
724.6	2046.09
724.787	2023.56
724.974	2105.48
725.161	1974.41
725.347	2011.28
725.534	2060.43
725.72	2035.85
725.907	1970.32
726.094	2068.62
726.28	1927.31
726.467	2052.24
726.653	1923.21
726.84	1986.7
727.027	2037.9
727.213	1988.75
727.4	2044.04
727.586	1998.99
727.773	1912.97
727.959	1912.97
728.145	1933.45
728.332	1949.84
728.518	2013.32
728.705	1925.26
728.891	1882.25
729.077	1867.92
729.264	1808.53
729.45	1872.01
729.636	2005.13
729.823	1953.93
730.009	1974.41
730.195	1872.01
730.382	1949.84
730.568	1994.89
730.754	1949.84
730.94	1874.06
731.126	1878.16
731.313	1939.6
731.499	1953.93
731.685	1923.21
731.871	1886.35
732.057	1898.64
732.243	1937.55
732.429	1896.59
732.615	1929.36
732.801	1751.18
732.987	1773.71
733.173	1874.06
733.359	1839.25
733.545	1786
733.731	1783.95
733.917	1888.4
734.103	1855.63
734.289	1769.62
734.475	1765.52
734.661	1806.48
734.847	1863.82
735.033	1847.44
735.219	1829.01
735.404	1765.52
735.59	1753.23
735.776	1702.03
735.962	1704.08
736.148	1732.75
736.333	1849.49
736.519	1749.14
736.705	1732.75
736.89	1724.56
737.076	1706.13
737.262	1634.45
737.447	1720.46
737.633	1646.74
737.819	1767.57
738.004	1677.46
738.19	1593.49
738.375	1683.6
738.561	1673.36
738.747	1753.23
738.932	1646.74
739.118	1792.14
739.303	1618.07
739.489	1689.74
739.674	1579.15
739.859	1548.44
740.045	1794.19
740.23	1603.73
740.416	1474.71
740.601	1601.68
740.786	1630.35
740.972	1554.58
741.157	1507.48
741.342	1487
741.528	1601.68
741.713	1605.78
741.898	1493.14
742.084	1538.2
742.269	1487
742.454	1593.49
742.639	1536.15
742.824	1466.52
743.01	1714.32
743.195	1468.56
743.38	1605.78
743.565	1519.76
743.75	1456.28
743.935	1454.23
744.12	1429.65
744.305	1527.96
744.49	1540.24
744.675	1388.69
744.86	1503.38
745.045	1548.44
745.23	1390.74
745.415	1480.85
745.6	1503.38
745.785	1357.97
745.97	1505.43
746.155	1446.04
746.34	1390.74
746.525	1421.46
746.71	1413.27
746.895	1333.4
747.079	1278.1
747.264	1392.79
747.449	1292.44
747.634	1349.78
747.819	1396.89
748.003	1317.01
748.188	1335.45
748.373	1364.12
748.557	1421.46
748.742	1290.39
748.927	1241.24
749.111	1208.47
749.296	1292.44
749.481	1269.91
749.665	1171.61
749.85	1159.32
750.034	1206.42
750.219	1245.34
750.404	1130.65
750.588	1200.28
750.773	1212.57
750.957	1208.47
751.141	1202.33
751.326	1171.61
751.51	1200.28
751.695	1198.23
751.879	1110.17
752.064	1173.66
752.248	1155.23
752.432	1130.65
752.617	1185.94
752.801	1175.7
752.985	1175.7
753.17	1112.22
753.354	1134.75
753.538	1122.46
753.722	1024.16
753.907	1040.54
754.091	1077.4
754.275	1077.4
754.459	1167.51
754.643	989.34
754.828	1038.49
755.012	1056.92
755.196	1079.45
755.38	1095.83
755.564	1071.26
755.748	1028.25
755.932	1054.87
756.116	938.14
756.3	942.24
756.484	1015.96
756.668	981.15
756.852	1013.92
757.036	960.67
757.22	995.48
757.404	870.56
757.588	995.48
757.772	929.95
757.956	993.44
758.14	999.58
758.323	921.76
758.507	850.08
758.691	899.23
758.875	923.8
759.059	884.89
759.242	880.8
759.426	913.56
759.61	790.69
759.794	874.65
759.977	932
760.161	987.29
760.345	880.8
760.528	825.5
760.712	864.41
760.895	903.32
761.079	792.73
761.263	831.65
761.446	864.41
761.63	796.83
761.813	886.94
761.997	807.07
762.18	766.11
762.364	874.65
762.547	768.16
762.731	731.3
762.914	850.08
763.098	839.84
763.281	708.77
763.464	725.15
763.648	833.69
763.831	823.45
764.015	704.67
764.198	835.74
764.381	757.92
764.564	700.58
764.748	798.88
764.931	790.69
765.114	815.26
765.297	751.78
765.481	753.82
765.664	702.62
765.847	762.02
766.03	831.65
766.213	694.43
766.397	800.93
766.58	809.12
766.763	704.67
766.946	737.44
767.129	735.39
767.312	702.62
767.495	729.25
767.678	719.01
767.861	684.19
768.044	673.95
768.227	743.58
768.41	721.06
768.593	727.2
768.776	667.81
768.959	772.25
769.142	725.15
769.324	661.66
769.507	639.14
769.69	708.77
769.873	766.11
770.056	684.19
770.239	727.2
770.421	694.43
770.604	782.49
770.787	684.19
770.97	700.58
771.152	657.57
771.335	645.28
771.518	729.25
771.7	751.78
771.883	678.05
772.066	682.14
772.248	657.57
772.431	581.79
772.613	577.7
772.796	649.38
772.978	741.54
773.161	618.66
773.343	661.66
773.526	614.56
773.708	553.12
773.891	569.51
774.073	630.95
774.256	606.37
774.438	663.71
774.621	628.9
774.803	606.37
774.985	569.51
775.168	645.28
775.35	651.42
775.532	596.13
775.715	544.93
775.897	577.7
776.079	635.04
776.261	561.31
776.444	522.4
776.626	518.31
776.808	583.84
776.99	440.48
777.173	577.7
777.355	618.66
777.537	536.74
777.719	538.79
777.901	471.2
778.083	538.79
778.265	532.64
778.447	532.64
778.629	499.88
778.811	540.83
778.993	508.07
779.175	456.87
779.357	628.9
779.539	530.59
779.721	475.3
779.903	536.74
780.085	503.97
780.267	489.64
780.449	415.91
780.631	467.11
780.812	495.78
780.994	473.25
781.176	534.69
781.358	471.2
781.54	481.44
781.721	454.82
781.903	481.44
782.085	491.68
782.267	456.87
782.448	352.42
782.63	413.86
782.812	528.55
782.993	454.82
783.175	465.06
783.357	417.96
783.538	483.49
783.72	440.48
783.901	393.38
784.083	331.94
784.264	422.05
784.446	424.1
784.627	417.96
784.809	393.38
784.99	362.66
785.172	487.59
785.353	381.09
785.535	311.46
785.716	467.11
785.897	293.03
786.079	430.24
786.26	348.33
786.441	325.8
786.623	348.33
786.804	413.86
786.985	372.9
787.167	399.52
787.348	340.13
787.529	354.47
787.71	438.44
787.891	379.04
788.073	362.66
788.254	331.94
788.435	340.13
788.616	336.04
788.797	290.98
788.978	336.04
789.159	278.69
789.34	333.99
789.522	342.18
789.703	282.79
789.884	243.88
790.065	442.53
790.246	364.71
790.427	258.21
790.607	329.89
790.788	284.84
790.969	282.79
791.15	348.33
791.331	278.69
791.512	299.17
791.693	336.04
791.874	225.45
792.054	319.65
792.235	305.32
792.416	247.97
792.597	225.45
792.778	290.98
792.958	331.94
793.139	282.79
793.32	319.65
793.5	233.64
793.681	315.56
793.862	331.94
794.042	233.64
794.223	200.87
794.404	217.26
794.584	188.58
794.765	241.83
794.945	213.16
795.126	307.37
795.306	270.5
795.487	178.34
795.667	147.62
795.848	254.12
796.028	217.26
796.209	315.56
796.389	307.37
796.57	170.15
796.75	225.45
796.93	290.98
797.111	299.17
797.291	245.93
797.471	211.11
797.652	235.69
797.832	219.3
798.012	288.93
798.192	239.78
798.373	213.16
798.553	207.02
798.733	301.22
798.913	260.26
799.093	209.06
799.274	227.5
799.454	241.83
799.634	258.21
799.814	219.3
799.994	186.54
800.174	282.79
800.354	190.63
800.534	192.68
800.714	266.41
800.894	190.63
801.074	200.87
801.254	217.26
801.434	243.88
801.614	231.59
801.794	141.48
801.974	878.75
802.154	186.54
802.334	207.02
802.514	168.1
802.693	155.82
802.873	159.91
803.053	192.68
803.233	211.11
803.413	194.73
803.592	137.38
803.772	166.06
803.952	159.91
804.131	127.14
804.311	221.35
804.491	176.3
804.67	202.92
804.85	186.54
805.03	123.05
805.209	241.83
805.389	39.08
805.568	102.57
805.748	235.69
805.928	209.06
806.107	176.3
806.287	190.63
806.466	147.62
806.646	151.72
806.825	194.73
807.004	161.96
807.184	159.91
807.363	192.68
807.543	176.3
807.722	143.53
807.901	190.63
808.081	178.34
808.26	127.14
808.439	143.53
808.619	168.1
808.798	137.38
808.977	155.82
809.156	200.87
809.336	164.01
809.515	225.45
809.694	172.2
809.873	184.49
810.052	219.3
810.231	184.49
810.411	145.58
810.59	139.43
810.769	69.8
810.948	178.34
811.127	92.33
811.306	118.95
811.485	102.57
811.664	196.78
811.843	104.62
812.022	172.2
812.201	118.95
812.38	135.34
812.559	84.14
812.737	135.34
812.916	88.23
813.095	182.44
813.274	125.1
813.453	151.72
813.632	106.67
813.811	178.34
813.989	57.51
814.168	98.47
814.347	73.9
814.526	172.2
814.704	135.34
814.883	110.76
815.062	94.38
815.24	161.96
815.419	55.47
815.598	63.66
815.776	94.38
815.955	90.28
816.133	12.46
816.312	106.67
816.49	110.76
816.669	172.2
816.847	73.9
817.026	118.95
817.204	57.51
817.383	102.57
817.561	114.86
817.74	123.05
817.918	71.85
818.097	69.8
818.275	63.66
818.453	137.38
818.632	45.23
818.81	110.76
818.988	151.72
819.167	69.8
819.345	157.86
819.523	129.19
819.701	108.71
819.879	118.95
820.058	37.03
820.236	114.86
820.414	98.47
820.592	143.53
820.77	121
820.948	53.42
821.127	135.34
821.305	90.28
821.483	88.23
821.661	198.82
821.839	80.04
822.017	80.04
822.195	55.47
822.373	61.61
822.551	110.76
822.729	80.04
822.907	96.43
823.085	135.34
823.262	69.8
823.44	61.61
823.618	69.8
823.796	104.62
823.974	73.9
824.152	69.8
824.329	110.76
824.507	32.94
824.685	61.61
824.863	77.99
825.04	84.14
825.218	94.38
825.396	57.51
825.574	159.91
825.751	45.23
825.929	176.3
826.107	28.84
826.284	104.62
826.462	22.7
826.639	118.95
826.817	43.18
826.994	123.05
827.172	86.19
827.349	86.19
827.527	121
827.704	61.61
827.882	102.57
828.059	86.19
828.237	71.85
828.414	63.66
828.591	61.61
828.769	55.47
828.946	-10.07
829.124	170.15
829.301	102.57
829.478	110.76
829.655	63.66
829.833	102.57
830.01	30.89
830.187	131.24
830.364	121
830.542	110.76
830.719	100.52
830.896	114.86
831.073	77.99
831.25	116.9
831.427	71.85
831.604	45.23
831.782	28.84
831.959	143.53
832.136	110.76
832.313	90.28
832.49	94.38
832.667	47.27
832.844	20.65
833.021	22.7
833.198	94.38
833.374	77.99
833.551	90.28
833.728	125.1
833.905	116.9
834.082	22.7
834.259	59.56
834.436	116.9
834.612	14.51
834.789	118.95
834.966	37.03
835.143	131.24
835.319	22.7
835.496	112.81
835.673	104.62
835.85	51.37
836.026	43.18
836.203	135.34
836.38	80.04
836.556	90.28
836.733	28.84
836.909	86.19
837.086	37.03
837.262	45.23
837.439	53.42
837.616	88.23
837.792	14.51
837.968	92.33
838.145	77.99
838.321	188.58
838.498	2.22
838.674	82.09
838.851	102.57
839.027	43.18
839.203	24.75
839.38	86.19
839.556	16.55
839.732	-20.31
839.909	77.99
840.085	65.71
840.261	30.89
840.437	61.61
840.614	39.08
840.79	125.1
840.966	110.76
841.142	59.56
841.318	39.08
841.494	53.42
841.671	-20.31
841.847	71.85
842.023	4.27
842.199	34.99
842.375	104.62
842.551	57.51
842.727	69.8
842.903	96.43
843.079	28.84
843.255	6.31
843.431	-8.02
843.607	102.57
843.783	-40.79
843.959	100.52
844.134	20.65
844.31	178.34
844.486	82.09
844.662	45.23
844.838	-12.12
845.013	24.75
845.189	61.61
845.365	94.38
845.541	14.51
845.716	161.96
845.892	37.03
846.068	65.71
846.244	-18.26
846.419	53.42
846.595	-12.12
846.77	8.36
846.946	104.62
847.122	28.84
847.297	10.41
847.473	77.99
847.648	4.27
847.824	-14.17
847.999	37.03
848.175	43.18
848.35	118.95
848.526	77.99
848.701	20.65
848.876	88.23
849.052	45.23
849.227	53.42
849.403	47.27
849.578	63.66
849.753	63.66
849.929	86.19
850.104	53.42
850.279	18.6
850.454	53.42
850.63	28.84
850.805	18.6
850.98	92.33
851.155	-12.12
851.33	41.13
851.505	-3.93
851.681	45.23
851.856	-20.31
852.031	65.71
852.206	37.03
852.381	41.13
852.556	-51.03
852.731	8.36
852.906	28.84
853.081	65.71
853.256	16.55
853.431	6.31
853.606	12.46
853.781	67.75
853.956	-18.26
854.131	39.08
854.305	39.08
854.48	39.08
854.655	20.65
854.83	2.22
855.005	39.08
855.18	75.95
855.354	71.85
855.529	73.9
855.704	14.51
855.879	49.32
856.053	-44.88
856.228	86.19
856.403	22.7
856.577	63.66
856.752	-57.17
856.926	71.85
857.101	0.17
857.276	22.7
857.45	-28.5
857.625	90.28
857.799	-40.79
857.974	-42.84
858.148	-8.02
858.323	34.99
858.497	118.95
858.672	-16.21
858.846	-1.88
859.02	65.71
859.195	-3.93
859.369	6.31
859.543	53.42
859.718	80.04
859.892	90.28
860.066	-12.12
860.241	-10.07
860.415	45.23
860.589	41.13
860.763	16.55
860.938	14.51
861.112	-42.84
861.286	12.46
861.46	45.23
861.634	-8.02
861.808	6.31
861.982	-14.17
862.157	41.13
862.331	32.94
862.505	-44.88
862.679	-18.26
862.853	-46.93
863.027	-67.41
863.201	18.6
863.375	-26.45
863.549	12.46
863.722	6.31
863.896	102.57
864.07	-5.97
864.244	12.46
864.418	63.66
864.592	4.27
864.766	96.43
864.939	14.51
865.113	28.84
865.287	22.7
865.461	-10.07
865.634	-12.12
865.808	55.47
865.982	-18.26
866.156	10.41
866.329	20.65
866.503	16.55
866.676	51.37
866.85	55.47
867.024	20.65
867.197	28.84
867.371	37.03
867.544	-3.93
867.718	-69.46
867.891	90.28
868.065	-10.07
868.238	55.47
868.412	39.08
868.585	28.84
868.759	14.51
868.932	-16.21
869.105	-73.56
869.279	41.13
869.452	12.46
869.625	73.9
869.799	41.13
869.972	32.94
870.145	24.75
870.319	32.94
870.492	-8.02
870.665	-28.5
870.838	12.46
871.011	-20.31
871.185	20.65
871.358	-26.45
871.531	12.46
871.704	-38.74
871.877	137.38
872.05	10.41
872.223	8.36
872.396	65.71
872.569	69.8
872.742	12.46
872.915	14.51
873.088	6.31
873.261	41.13
873.434	47.27
873.607	-20.31
873.78	55.47
873.953	4.27
874.126	-24.4
874.299	30.89
874.471	8.36
874.644	12.46
874.817	-18.26
874.99	34.99
875.163	-40.79
875.335	34.99
875.508	-8.02
875.681	57.51
875.853	-12.12
876.026	-8.02
876.199	45.23
876.371	47.27
876.544	-44.88
876.717	-5.97
876.889	-24.4
877.062	34.99
877.234	-36.69
877.407	12.46
877.579	63.66
877.752	16.55
877.924	26.79
878.097	18.6
878.269	112.81
878.442	47.27
878.614	37.03
878.786	-57.17
878.959	69.8
879.131	37.03
879.303	37.03
879.476	12.46
879.648	47.27
879.82	-10.07
879.993	-16.21
880.165	-32.6
880.337	37.03
880.509	-10.07
880.681	4.27
880.854	-12.12
881.026	61.61
881.198	65.71
881.37	43.18
881.542	18.6
881.714	37.03
881.886	18.6
882.058	-38.74
882.23	22.7
882.402	-24.4
882.574	20.65
882.746	-53.08
882.918	47.27
883.09	6.31
883.262	30.89
883.434	4.27
883.606	28.84
883.778	-3.93
883.95	45.23
884.122	-12.12
884.293	8.36
884.465	24.75
884.637	24.75
884.809	4.27
884.98	14.51
885.152	84.14
885.324	20.65
885.496	47.27
885.667	47.27
885.839	-51.03
886.011	159.91
886.182	45.23
886.354	-32.6
886.525	-28.5
886.697	37.03
886.869	34.99
887.04	-44.88
887.212	39.08
887.383	57.51
887.555	-20.31
887.726	-40.79
887.897	6.31
888.069	63.66
888.24	53.42
888.412	8.36
888.583	22.7
888.754	8.36
888.926	22.7
889.097	55.47
889.268	4.27
889.44	86.19
889.611	-16.21
889.782	-20.31
889.953	-36.69
890.125	69.8
890.296	-89.94
890.467	47.27
890.638	-34.64
890.809	65.71
890.98	16.55
891.151	55.47
891.323	41.13
891.494	-12.12
891.665	22.7
891.836	-8.02
892.007	0.17
892.178	28.84
892.349	18.6
892.52	4.27
892.691	39.08
892.862	-20.31
893.032	-48.98
893.203	12.46
893.374	32.94
893.545	24.75
893.716	-28.5
893.887	-34.64
894.057	-3.93
894.228	-18.26
894.399	-48.98
894.57	112.81
894.74	4.27
894.911	-3.93
895.082	86.19
895.253	-30.55
895.423	37.03
895.594	45.23
895.764	2.22
895.935	0.17
896.106	4.27
896.276	-18.26
896.447	4.27
896.617	-5.97
896.788	12.46
896.958	41.13
897.129	-20.31
897.299	-16.21
897.47	8.36
897.64	114.86
897.81	-8.02
897.981	94.38
898.151	-12.12
898.322	49.32
898.492	16.55
898.662	-24.4
898.832	4.27
899.003	-20.31
899.173	-44.88
899.343	57.51
899.513	-34.64
