Data from USB4F104151__12__14-42-35-469.txt Node

Date: Thu Mar 13 14:42:35 EDT 2025
User: louis
Spectrometer: USB4F10415
Trigger mode: 4
Integration Time (sec): 2.000000E-2
Scans to average: 1
Electric dark correction enabled: true
Nonlinearity correction enabled: false
Boxcar width: 0
XAxis mode: Wavelengths
Number of Pixels in Spectrum: 3648
>>>>>Begin Spectral Data<<<<<
178.204	-125.78
178.424	-125.78
178.644	-125.78
178.864	-146.26
179.084	-23.38
179.304	-11.09
179.524	46.25
179.744	-7
179.964	13.48
180.184	-7
180.404	-39.76
180.624	40.11
180.844	17.58
181.064	-54.1
181.283	-7
181.503	-7
181.723	15.53
181.943	-60.24
182.163	162.98
182.383	-31.57
182.602	101.55
182.822	40.11
183.042	-31.57
183.262	33.96
183.482	66.73
183.701	-17.24
183.921	27.82
184.141	17.58
184.361	-21.33
184.58	13.48
184.8	-15.19
185.02	46.25
185.239	85.16
185.459	42.15
185.679	66.73
185.898	-17.24
186.118	17.58
186.338	27.82
186.557	1.19
186.777	3.24
186.997	19.63
187.216	-45.91
187.436	54.44
187.655	58.54
187.875	33.96
188.095	-4.95
188.314	54.44
188.534	50.35
188.753	83.11
188.973	126.12
189.192	-4.95
189.412	25.77
189.631	21.67
189.851	42.15
190.07	36.01
190.29	-7
190.509	42.15
190.729	-101.2
190.948	40.11
191.168	128.17
191.387	33.96
191.607	15.53
191.826	-37.72
192.045	-37.72
192.265	25.77
192.484	-45.91
192.704	13.48
192.923	21.67
193.142	117.93
193.362	5.29
193.581	62.63
193.8	42.15
194.02	17.58
194.239	-23.38
194.458	1.19
194.678	56.49
194.897	-31.57
195.116	29.87
195.335	46.25
195.555	9.39
195.774	46.25
195.993	3.24
196.212	-13.14
196.432	-0.85
196.651	-80.72
196.87	13.48
197.089	70.83
197.308	95.4
197.528	21.67
197.747	-97.11
197.966	-31.57
198.185	68.78
198.404	-23.38
198.623	17.58
198.842	103.59
199.062	11.43
199.281	11.43
199.5	-54.1
199.719	-52.05
199.938	76.97
200.157	17.58
200.376	38.06
200.595	3.24
200.814	99.5
201.033	29.87
201.252	29.87
201.471	13.48
201.69	-33.62
201.909	91.31
202.128	50.35
202.347	17.58
202.566	31.91
202.785	-27.48
203.004	23.72
203.223	132.26
203.442	-13.14
203.661	27.82
203.879	27.82
204.098	21.67
204.317	21.67
204.536	74.92
204.755	58.54
204.974	7.34
205.193	70.83
205.411	46.25
205.63	21.67
205.849	44.2
206.068	3.24
206.287	7.34
206.505	29.87
206.724	19.63
206.943	-39.76
207.162	54.44
207.381	11.43
207.599	13.48
207.818	54.44
208.037	33.96
208.255	-7
208.474	-15.19
208.693	58.54
208.911	87.21
209.13	-52.05
209.349	5.29
209.567	36.01
209.786	13.48
210.005	-15.19
210.223	17.58
210.442	-4.95
210.661	17.58
210.879	-7
211.098	3.24
211.316	19.63
211.535	38.06
211.753	-7
211.972	13.48
212.191	-21.33
212.409	21.67
212.628	33.96
212.846	21.67
213.065	27.82
213.283	107.69
213.502	29.87
213.72	27.82
213.938	-35.67
214.157	44.2
214.375	74.92
214.594	38.06
214.812	42.15
215.031	-2.9
215.249	5.29
215.467	-64.34
215.686	31.91
215.904	109.74
216.122	83.11
216.341	36.01
216.559	62.63
216.778	21.67
216.996	-4.95
217.214	-31.57
217.432	40.11
217.651	-52.05
217.869	7.34
218.087	87.21
218.306	-21.33
218.524	-70.48
218.742	-37.72
218.96	29.87
219.179	21.67
219.397	81.07
219.615	95.4
219.833	17.58
220.051	21.67
220.27	74.92
220.488	33.96
220.706	48.3
220.924	25.77
221.142	1.19
221.36	91.31
221.578	50.35
221.796	-47.96
222.015	9.39
222.233	-52.05
222.451	33.96
222.669	19.63
222.887	-17.24
223.105	68.78
223.323	79.02
223.541	-4.95
223.759	58.54
223.977	9.39
224.195	1.19
224.413	79.02
224.631	33.96
224.849	-21.33
225.067	50.35
225.285	-23.38
225.503	5.29
225.721	-70.48
225.939	76.97
226.157	87.21
226.375	48.3
226.592	33.96
226.81	101.55
227.028	3.24
227.246	17.58
227.464	-58.2
227.682	-29.52
227.9	13.48
228.117	66.73
228.335	1.19
228.553	-11.09
228.771	1.19
228.989	48.3
229.206	27.82
229.424	54.44
229.642	-47.96
229.86	17.58
230.077	17.58
230.295	36.01
230.513	1.19
230.731	68.78
230.948	60.59
231.166	42.15
231.384	83.11
231.601	60.59
231.819	11.43
232.037	21.67
232.254	-2.9
232.472	44.2
232.689	17.58
232.907	-31.57
233.125	52.39
233.342	-60.24
233.56	-31.57
233.777	50.35
233.995	-2.9
234.213	42.15
234.43	-29.52
234.648	-29.52
234.865	64.68
235.083	66.73
235.3	21.67
235.518	-4.95
235.735	15.53
235.953	58.54
236.17	9.39
236.388	-84.82
236.605	33.96
236.822	19.63
237.04	60.59
237.257	91.31
237.475	-13.14
237.692	5.29
237.909	1.19
238.127	21.67
238.344	-23.38
238.562	25.77
238.779	21.67
238.996	13.48
239.214	64.68
239.431	72.87
239.648	40.11
239.865	-52.05
240.083	46.25
240.3	42.15
240.517	25.77
240.735	44.2
240.952	54.44
241.169	50.35
241.386	46.25
241.603	3.24
241.821	17.58
242.038	44.2
242.255	107.69
242.472	-56.15
242.689	9.39
242.907	113.83
243.124	103.59
243.341	1.19
243.558	-31.57
243.775	1.19
243.992	-56.15
244.209	-45.91
244.426	99.5
244.643	21.67
244.86	1.19
245.078	33.96
245.295	74.92
245.512	9.39
245.729	-2.9
245.946	-23.38
246.163	68.78
246.38	64.68
246.597	9.39
246.814	13.48
247.031	42.15
247.248	3.24
247.464	23.72
247.681	27.82
247.898	91.31
248.115	11.43
248.332	5.29
248.549	33.96
248.766	95.4
248.983	25.77
249.2	-23.38
249.417	85.16
249.633	9.39
249.85	-7
250.067	44.2
250.284	5.29
250.501	-2.9
250.717	33.96
250.934	107.69
251.151	-2.9
251.368	21.67
251.585	19.63
251.801	17.58
252.018	27.82
252.235	76.97
252.451	50.35
252.668	5.29
252.885	27.82
253.102	36.01
253.318	-27.48
253.535	25.77
253.752	9.39
253.968	-11.09
254.185	36.01
254.401	-21.33
254.618	17.58
254.835	-41.81
255.051	-31.57
255.268	13.48
255.484	-7
255.701	5.29
255.917	27.82
256.134	25.77
256.351	21.67
256.567	13.48
256.784	107.69
257	-97.11
257.217	42.15
257.433	-23.38
257.65	52.39
257.866	99.5
258.082	-7
258.299	38.06
258.515	48.3
258.732	19.63
258.948	21.67
259.165	19.63
259.381	85.16
259.597	62.63
259.814	25.77
260.03	54.44
260.246	38.06
260.463	74.92
260.679	17.58
260.895	5.29
261.112	-11.09
261.328	-47.96
261.544	7.34
261.761	3.24
261.977	27.82
262.193	-64.34
262.409	25.77
262.626	1.19
262.842	33.96
263.058	17.58
263.274	-23.38
263.49	42.15
263.707	81.07
263.923	1.19
264.139	-56.15
264.355	33.96
264.571	66.73
264.787	5.29
265.004	33.96
265.22	66.73
265.436	3.24
265.652	-15.19
265.868	79.02
266.084	-37.72
266.3	42.15
266.516	-4.95
266.732	1.19
266.948	21.67
267.164	27.82
267.38	33.96
267.596	-17.24
267.812	56.49
268.028	17.58
268.244	29.87
268.46	-62.29
268.676	25.77
268.892	17.58
269.108	-58.2
269.324	1.19
269.54	17.58
269.756	91.31
269.972	-58.2
270.188	54.44
270.403	-72.53
270.619	33.96
270.835	44.2
271.051	-27.48
271.267	15.53
271.483	-21.33
271.698	70.83
271.914	85.16
272.13	-27.48
272.346	-0.85
272.562	33.96
272.777	93.35
272.993	3.24
273.209	60.59
273.425	89.26
273.64	56.49
273.856	60.59
274.072	7.34
274.287	-7
274.503	29.87
274.719	74.92
274.934	42.15
275.15	5.29
275.366	91.31
275.581	-37.72
275.797	17.58
276.012	-17.24
276.228	-7
276.444	42.15
276.659	42.15
276.875	-52.05
277.09	50.35
277.306	36.01
277.521	76.97
277.737	-15.19
277.952	42.15
278.168	23.72
278.383	-37.72
278.599	101.55
278.814	64.68
279.03	3.24
279.245	-9.05
279.461	17.58
279.676	50.35
279.892	-54.1
280.107	13.48
280.322	25.77
280.538	21.67
280.753	46.25
280.969	-39.76
281.184	33.96
281.399	21.67
281.615	33.96
281.83	66.73
282.045	5.29
282.26	-21.33
282.476	58.54
282.691	33.96
282.906	3.24
283.122	83.11
283.337	7.34
283.552	60.59
283.767	-21.33
283.983	-7
284.198	40.11
284.413	25.77
284.628	-39.76
284.843	33.96
285.058	60.59
285.274	66.73
285.489	27.82
285.704	44.2
285.919	-13.14
286.134	-0.85
286.349	-43.86
286.564	27.82
286.779	76.97
286.995	7.34
287.21	-7
287.425	1.19
287.64	99.5
287.855	52.39
288.07	17.58
288.285	17.58
288.5	29.87
288.715	70.83
288.93	58.54
289.145	17.58
289.36	-7
289.575	-15.19
289.79	52.39
290.004	-50
290.219	5.29
290.434	17.58
290.649	-11.09
290.864	76.97
291.079	-15.19
291.294	72.87
291.509	36.01
291.724	13.48
291.938	101.55
292.153	117.93
292.368	-21.33
292.583	-33.62
292.798	-9.05
293.012	-15.19
293.227	15.53
293.442	-52.05
293.657	-4.95
293.871	25.77
294.086	19.63
294.301	36.01
294.516	17.58
294.73	66.73
294.945	-11.09
295.16	1.19
295.374	19.63
295.589	58.54
295.804	25.77
296.018	68.78
296.233	42.15
296.447	74.92
296.662	5.29
296.877	66.73
297.091	9.39
297.306	54.44
297.52	33.96
297.735	19.63
297.949	50.35
298.164	87.21
298.378	-56.15
298.593	17.58
298.807	13.48
299.022	23.72
299.236	42.15
299.451	17.58
299.665	-15.19
299.88	-45.91
300.094	27.82
300.309	54.44
300.523	-0.85
300.737	9.39
300.952	-9.05
301.166	-4.95
301.381	-35.67
301.595	-56.15
301.809	5.29
302.024	-13.14
302.238	-37.72
302.452	93.35
302.667	-33.62
302.881	85.16
303.095	-7
303.309	58.54
303.524	58.54
303.738	48.3
303.952	44.2
304.166	79.02
304.381	-84.82
304.595	9.39
304.809	-23.38
305.023	109.74
305.237	-50
305.452	-37.72
305.666	-43.86
305.88	58.54
306.094	46.25
306.308	-23.38
306.522	42.15
306.736	29.87
306.95	29.87
307.164	87.21
307.379	85.16
307.593	46.25
307.807	36.01
308.021	60.59
308.235	-7
308.449	36.01
308.663	27.82
308.877	54.44
309.091	-4.95
309.305	79.02
309.519	-41.81
309.733	74.92
309.947	21.67
310.161	19.63
310.374	-21.33
310.588	38.06
310.802	19.63
311.016	99.5
311.23	54.44
311.444	-7
311.658	46.25
311.872	25.77
312.085	-11.09
312.299	50.35
312.513	85.16
312.727	58.54
312.941	1.19
313.154	58.54
313.368	48.3
313.582	66.73
313.796	-2.9
314.009	25.77
314.223	25.77
314.437	-2.9
314.651	11.43
314.864	25.77
315.078	21.67
315.292	36.01
315.505	52.39
315.719	-29.52
315.933	58.54
316.146	-4.95
316.36	91.31
316.573	38.06
316.787	9.39
317.001	19.63
317.214	1.19
317.428	-21.33
317.641	-47.96
317.855	-21.33
318.068	87.21
318.282	11.43
318.495	25.77
318.709	54.44
318.922	-27.48
319.136	91.31
319.349	87.21
319.563	19.63
319.776	-15.19
319.99	3.24
320.203	19.63
320.417	9.39
320.63	29.87
320.843	103.59
321.057	27.82
321.27	50.35
321.483	3.24
321.697	60.59
321.91	11.43
322.124	36.01
322.337	-27.48
322.55	1.19
322.763	-43.86
322.977	-15.19
323.19	25.77
323.403	72.87
323.617	9.39
323.83	23.72
324.043	-7
324.256	25.77
324.469	42.15
324.683	5.29
324.896	117.93
325.109	-11.09
325.322	-64.34
325.535	36.01
325.748	117.93
325.962	52.39
326.175	-29.52
326.388	19.63
326.601	25.77
326.814	74.92
327.027	19.63
327.24	27.82
327.453	-80.72
327.666	40.11
327.879	91.31
328.092	46.25
328.305	-25.43
328.518	-47.96
328.731	-4.95
328.944	21.67
329.157	1.19
329.37	-4.95
329.583	62.63
329.796	50.35
330.009	-25.43
330.222	85.16
330.435	-7
330.648	9.39
330.861	36.01
331.073	44.2
331.286	25.77
331.499	17.58
331.712	-47.96
331.925	1.19
332.138	27.82
332.35	5.29
332.563	-31.57
332.776	36.01
332.989	42.15
333.202	107.69
333.414	66.73
333.627	27.82
333.84	5.29
334.053	33.96
334.265	33.96
334.478	54.44
334.691	3.24
334.903	42.15
335.116	-13.14
335.329	31.91
335.541	58.54
335.754	27.82
335.966	38.06
336.179	29.87
336.392	33.96
336.604	-27.48
336.817	36.01
337.029	58.54
337.242	-23.38
337.454	27.82
337.667	1.19
337.88	36.01
338.092	-19.29
338.305	21.67
338.517	5.29
338.729	36.01
338.942	68.78
339.154	33.96
339.367	-45.91
339.579	54.44
339.792	58.54
340.004	66.73
340.217	68.78
340.429	25.77
340.641	-31.57
340.854	-4.95
341.066	-17.24
341.278	17.58
341.491	76.97
341.703	33.96
341.915	-23.38
342.128	50.35
342.34	-64.34
342.552	15.53
342.764	36.01
342.977	11.43
343.189	58.54
343.401	17.58
343.613	-19.29
343.826	36.01
344.038	21.67
344.25	52.39
344.462	-29.52
344.674	72.87
344.886	25.77
345.099	56.49
345.311	50.35
345.523	-43.86
345.735	1.19
345.947	46.25
346.159	40.11
346.371	33.96
346.583	7.34
346.795	103.59
347.007	60.59
347.219	17.58
347.431	3.24
347.643	25.77
347.855	1.19
348.067	134.31
348.279	13.48
348.491	17.58
348.703	7.34
348.915	25.77
349.127	17.58
349.339	42.15
349.551	5.29
349.763	19.63
349.975	17.58
350.187	-9.05
350.399	38.06
350.61	11.43
350.822	105.64
351.034	58.54
351.246	74.92
351.458	93.35
351.669	25.77
351.881	87.21
352.093	19.63
352.305	27.82
352.517	17.58
352.728	66.73
352.94	13.48
353.152	60.59
353.363	40.11
353.575	42.15
353.787	74.92
353.999	44.2
354.21	60.59
354.422	68.78
354.633	38.06
354.845	1.19
355.057	58.54
355.268	52.39
355.48	66.73
355.692	-58.2
355.903	-2.9
356.115	-11.09
356.326	25.77
356.538	11.43
356.749	91.31
356.961	91.31
357.172	-19.29
357.384	19.63
357.595	79.02
357.807	27.82
358.018	-9.05
358.23	33.96
358.441	60.59
358.653	36.01
358.864	58.54
359.075	58.54
359.287	74.92
359.498	29.87
359.709	36.01
359.921	46.25
360.132	66.73
360.344	44.2
360.555	-19.29
360.766	48.3
360.977	36.01
361.189	74.92
361.4	-39.76
361.611	58.54
361.823	52.39
362.034	27.82
362.245	50.35
362.456	19.63
362.667	42.15
362.879	54.44
363.09	-19.29
363.301	21.67
363.512	-15.19
363.723	19.63
363.935	-4.95
364.146	74.92
364.357	33.96
364.568	101.55
364.779	27.82
364.99	109.74
365.201	-19.29
365.412	60.59
365.623	36.01
365.834	42.15
366.045	76.97
366.256	58.54
366.467	9.39
366.678	79.02
366.889	-4.95
367.1	76.97
367.311	66.73
367.522	1.19
367.733	9.39
367.944	42.15
368.155	-7
368.366	74.92
368.577	17.58
368.788	3.24
368.999	1.19
369.209	44.2
369.42	87.21
369.631	117.93
369.842	99.5
370.053	-35.67
370.264	107.69
370.474	-31.57
370.685	66.73
370.896	74.92
371.107	91.31
371.317	25.77
371.528	66.73
371.739	68.78
371.95	66.73
372.16	50.35
372.371	-23.38
372.582	36.01
372.792	25.77
373.003	68.78
373.214	89.26
373.424	-11.09
373.635	17.58
373.846	46.25
374.056	60.59
374.267	91.31
374.477	9.39
374.688	-13.14
374.898	42.15
375.109	44.2
375.319	40.11
375.53	33.96
375.74	66.73
375.951	60.59
376.161	46.25
376.372	126.12
376.582	-0.85
376.793	50.35
377.003	62.63
377.214	-39.76
377.424	36.01
377.635	66.73
377.845	-15.19
378.055	42.15
378.266	58.54
378.476	42.15
378.686	54.44
378.897	74.92
379.107	15.53
379.317	50.35
379.528	-29.52
379.738	25.77
379.948	38.06
380.158	91.31
380.369	-11.09
380.579	50.35
380.789	17.58
380.999	117.93
381.21	-0.85
381.42	128.17
381.63	-70.48
381.84	33.96
382.05	38.06
382.261	-19.29
382.471	83.11
382.681	60.59
382.891	85.16
383.101	68.78
383.311	27.82
383.521	66.73
383.731	74.92
383.941	50.35
384.151	17.58
384.361	52.39
384.571	-31.57
384.781	72.87
384.991	21.67
385.201	107.69
385.411	11.43
385.621	-11.09
385.831	7.34
386.041	42.15
386.251	38.06
386.461	107.69
386.671	58.54
386.881	42.15
387.091	-37.72
387.301	89.26
387.511	-39.76
387.72	54.44
387.93	74.92
388.14	38.06
388.35	25.77
388.56	42.15
388.769	17.58
388.979	9.39
389.189	54.44
389.399	38.06
389.609	-4.95
389.818	99.5
390.028	105.64
390.238	9.39
390.447	11.43
390.657	66.73
390.867	-86.87
391.076	-13.14
391.286	25.77
391.496	42.15
391.705	56.49
391.915	91.31
392.125	56.49
392.334	38.06
392.544	93.35
392.753	19.63
392.963	19.63
393.172	74.92
393.382	48.3
393.591	54.44
393.801	13.48
394.01	91.31
394.22	17.58
394.429	5.29
394.639	66.73
394.848	19.63
395.058	95.4
395.267	40.11
395.477	42.15
395.686	36.01
395.895	122.02
396.105	29.87
396.314	103.59
396.524	68.78
396.733	50.35
396.942	74.92
397.152	-4.95
397.361	107.69
397.57	54.44
397.78	101.55
397.989	103.59
398.198	58.54
398.407	74.92
398.617	60.59
398.826	85.16
399.035	76.97
399.244	97.45
399.453	74.92
399.663	74.92
399.872	17.58
400.081	-4.95
400.29	46.25
400.499	-13.14
400.708	107.69
400.917	29.87
401.127	70.83
401.336	50.35
401.545	126.12
401.754	93.35
401.963	93.35
402.172	95.4
402.381	23.72
402.59	83.11
402.799	152.74
403.008	134.31
403.217	64.68
403.426	60.59
403.635	62.63
403.844	117.93
404.053	85.16
404.262	109.74
404.471	79.02
404.68	126.12
404.888	115.88
405.097	70.83
405.306	97.45
405.515	91.31
405.724	36.01
405.933	126.12
406.142	87.21
406.35	142.5
406.559	33.96
406.768	83.11
406.977	136.36
407.185	85.16
407.394	99.5
407.603	99.5
407.812	134.31
408.02	134.31
408.229	173.22
408.438	148.65
408.646	101.55
408.855	52.39
409.064	185.51
409.272	113.83
409.481	224.42
409.69	205.99
409.898	224.42
410.107	255.14
410.315	232.62
410.524	171.18
410.733	199.85
410.941	191.66
411.15	171.18
411.358	210.09
411.567	296.1
411.775	191.66
411.984	205.99
412.192	189.61
412.401	275.62
412.609	271.53
412.818	328.87
413.026	347.3
413.234	281.77
413.443	318.63
413.651	330.92
413.86	355.49
414.068	371.88
414.276	425.12
414.485	314.53
414.693	369.83
414.901	447.65
415.11	433.32
415.318	343.21
415.526	423.08
415.734	437.41
415.943	513.19
416.151	455.84
416.359	509.09
416.567	478.37
416.776	541.86
416.984	521.38
417.192	617.63
417.4	535.71
417.608	517.28
417.817	593.06
418.025	623.78
418.233	697.5
418.441	668.83
418.649	742.56
418.857	760.99
419.065	717.98
419.273	728.22
419.481	818.33
419.689	904.35
419.897	853.15
420.105	861.34
420.313	973.98
420.521	1053.85
420.729	967.84
420.937	980.12
421.145	1053.85
421.353	1094.81
421.561	1232.02
421.769	1066.14
421.977	1236.12
422.185	1246.36
422.393	1234.07
422.601	1332.37
422.809	1369.24
423.017	1424.53
423.224	1307.8
423.432	1488.02
423.64	1498.26
423.848	1688.72
424.056	1584.27
424.263	1678.48
424.471	1688.72
424.679	1750.16
424.887	1834.13
425.094	1916.05
425.302	1891.47
425.51	1954.96
425.718	2086.03
425.925	2047.12
426.133	2040.97
426.341	2167.95
426.548	2286.73
426.756	2315.4
426.964	2385.03
427.171	2290.82
427.379	2573.44
427.586	2542.72
427.794	2555.01
428.001	2825.34
428.209	2993.28
428.417	2761.86
428.624	2995.32
428.832	3015.8
429.039	3042.43
429.247	2999.42
429.454	3318.9
429.662	3638.39
429.869	3277.94
430.076	3556.47
430.284	3570.8
430.491	3695.73
430.699	3763.31
430.906	3785.84
431.114	3880.05
431.321	4017.26
431.528	4031.6
431.736	4224.11
431.943	4508.77
432.15	4346.98
432.358	4379.75
432.565	4613.22
432.772	4596.84
432.979	4904.03
433.187	4955.23
433.394	5024.86
433.601	5366.87
433.808	5579.86
434.016	5387.35
434.223	5575.77
434.43	5825.62
434.637	5723.22
434.844	6173.77
435.052	6235.21
435.259	6179.92
435.466	6177.87
435.673	6229.07
435.88	6440.01
436.087	6886.47
436.294	7056.45
436.501	7015.49
436.708	6792.26
436.915	7181.37
437.122	7498.81
437.329	7418.94
437.537	7775.28
437.743	7590.97
437.95	7760.95
438.157	8037.42
438.364	8369.19
438.571	8608.81
438.778	8504.36
438.985	9172
439.192	8629.29
439.399	9022.5
439.606	8836.13
439.813	9434.14
440.02	10040.34
440.227	9698.33
440.433	9831.44
440.64	9950.23
440.847	10101.78
441.054	10107.92
441.261	10996.74
441.467	10730.5
441.674	11031.55
441.881	11269.12
442.088	11289.6
442.294	11387.9
442.501	11549.69
442.708	11486.2
442.914	12078.07
443.121	12647.4
443.328	12276.72
443.534	13028.32
443.741	12737.51
443.948	12444.65
444.154	13630.43
444.361	13503.45
444.568	13446.11
444.774	13745.11
444.981	13595.61
445.187	14212.05
445.394	14486.48
445.6	14631.88
445.807	15930.3
446.013	15451.07
446.22	15772.6
446.426	16192.44
446.633	16317.36
446.839	17011.62
447.046	16059.32
447.252	17271.72
447.459	17322.91
447.665	17011.62
447.871	17836.95
448.078	18527.12
448.284	17494.94
448.491	18248.6
448.697	18928.52
448.903	19266.44
449.11	19409.79
449.316	19053.45
449.522	19379.07
449.728	19962.75
449.935	19821.44
450.141	20122.49
450.347	20491.12
450.553	19723.13
450.76	20472.69
450.966	20839.28
451.172	20833.13
451.378	21195.62
451.584	20843.37
451.791	21187.43
451.997	21363.56
452.203	21367.65
452.409	21697.38
452.615	21535.59
452.821	20704.11
453.027	20231.03
453.233	21650.27
453.44	20704.11
453.646	20978.54
453.852	21107.56
454.058	21377.89
454.264	20745.07
454.47	21209.96
454.676	20657.01
454.882	21197.67
455.088	19624.83
455.294	19811.2
455.5	20161.4
455.705	20532.08
455.911	19542.91
456.117	19336.07
456.323	18914.19
456.529	17879.96
456.735	18670.48
456.941	18369.43
457.147	18045.85
457.352	17587.1
457.558	17388.45
457.764	17499.04
457.97	17273.76
458.176	16810.92
458.381	16810.92
458.587	15768.51
458.793	15918.01
458.999	14810.06
459.204	16255.92
459.41	15809.47
459.616	14427.09
459.821	14824.39
460.027	14619.6
460.233	14128.08
460.438	13671.39
460.644	13837.27
460.85	13200.35
461.055	13026.28
461.261	13003.75
461.466	11774.97
461.672	11559.93
461.878	12528.62
462.083	11777.01
462.289	11408.38
462.494	11340.8
462.7	10804.23
462.905	10578.95
463.111	10808.33
463.316	10841.09
463.522	10683.4
463.727	10548.23
463.932	10576.91
464.138	10443.79
464.343	10499.08
464.549	10355.72
464.754	10628.1
464.959	10474.51
465.165	10243.09
465.37	9843.73
465.575	9679.89
465.781	10013.71
465.986	10232.85
466.191	9683.99
466.397	9458.71
466.602	9071.65
466.807	9528.35
467.012	9382.94
467.218	9487.39
467.423	9415.71
467.628	9376.8
467.833	9741.33
468.038	9417.75
468.244	9260.06
468.449	9421.85
468.654	9327.64
468.859	9212.96
469.064	9053.22
469.269	8635.43
469.474	8848.42
469.679	9067.55
469.885	8674.34
470.09	8897.57
470.295	8801.32
470.5	8524.84
470.705	8594.47
470.91	8358.96
471.115	8389.67
471.32	8617
471.525	8571.94
471.73	8234.03
471.935	8231.98
472.139	7988.27
472.344	8047.66
472.549	8006.7
472.754	7967.79
472.959	7851.06
473.164	7679.03
473.369	7488.57
473.574	7717.94
473.778	7664.69
473.983	7719.99
474.188	7488.57
474.393	7173.18
474.598	7078.97
474.802	7130.17
475.007	7121.98
475.212	7181.37
475.417	7021.63
475.621	6964.29
475.826	7083.07
476.031	6915.14
476.235	6636.61
476.44	6794.31
476.645	6714.44
476.849	6614.09
477.054	6546.5
477.259	6360.14
477.463	6448.2
477.668	6345.8
477.872	6308.94
478.077	6376.52
478.282	6059.09
478.486	6114.38
478.691	6030.41
478.895	5917.78
479.1	6054.99
479.304	6030.41
479.509	5794.9
479.713	5952.59
479.918	5874.77
480.122	5764.18
480.326	5753.94
480.531	5919.82
480.735	5596.25
480.94	5639.25
481.144	5958.74
481.348	5661.78
481.553	5672.02
481.757	5456.98
481.961	5708.88
482.166	5639.25
482.37	5698.64
482.574	5512.28
482.778	5524.57
482.983	5612.63
483.187	5481.56
483.391	5534.81
483.595	5583.96
483.8	5518.42
484.004	5530.71
484.208	5571.67
484.412	5543
484.616	5645.4
484.821	5639.25
485.025	5596.25
485.229	5508.18
485.433	5459.03
485.637	5579.86
485.841	5600.34
486.045	5573.72
486.249	5579.86
486.453	5590.1
486.657	5559.38
486.861	5579.86
487.065	5401.69
487.269	5610.58
487.473	5352.54
487.677	5555.29
487.881	5704.79
488.085	5567.57
488.289	5583.96
488.493	5551.19
488.697	5624.92
488.901	5680.21
489.105	5581.91
489.309	5686.36
489.512	5573.72
489.716	5645.4
489.92	5702.74
490.124	5465.18
490.328	5846.1
490.531	5602.39
490.735	5747.79
490.939	5770.32
491.143	5751.89
491.346	5715.03
491.55	5971.02
491.754	5872.72
491.958	5850.19
492.161	5868.63
492.365	5819.47
492.569	5874.77
492.772	6001.74
492.976	5831.76
493.18	5993.55
493.383	6161.48
493.587	5966.93
493.79	6251.6
493.994	5915.73
494.197	6081.61
494.401	6333.51
494.605	6310.99
494.808	6435.91
495.012	6261.84
495.215	6448.2
495.419	6485.06
495.622	6337.61
495.825	6335.56
496.029	6341.71
496.232	6464.58
496.436	6548.55
496.639	6853.7
496.843	6663.24
497.046	6917.19
497.249	7007.3
497.453	6992.96
497.656	7087.17
497.859	7175.23
498.063	7136.32
498.266	7367.74
498.469	7107.65
498.673	7447.61
498.876	7533.62
499.079	7500.86
499.282	7574.58
499.485	7777.33
499.689	7713.84
499.892	7711.8
500.095	7838.77
500.298	7973.94
500.501	7994.42
500.705	8229.93
500.908	8342.57
501.111	8477.74
501.314	8588.33
501.517	8666.15
501.72	8547.37
501.923	8573.99
502.126	8756.26
502.329	9102.37
502.532	9151.52
502.735	9333.79
502.938	9323.55
503.141	9219.1
503.344	9380.89
503.547	9358.36
503.75	9464.86
503.953	9870.36
504.156	9776.15
504.359	9989.14
504.562	9989.14
504.765	10415.12
504.968	10261.52
505.17	10519.56
505.373	10325.01
505.576	10626.06
505.779	10777.61
505.982	10857.48
506.185	10986.5
506.387	11023.36
506.59	11248.64
506.793	11305.98
506.996	11457.53
507.198	11756.54
507.401	11682.81
507.604	12080.11
507.807	12143.6
508.009	12104.69
508.212	12346.35
508.415	12241.9
508.617	12577.77
508.82	12665.83
509.022	12653.55
509.225	12960.74
509.428	13202.4
509.63	13151.2
509.833	12985.32
510.035	13624.28
510.238	13403.1
510.44	13816.79
510.643	13837.27
510.845	13978.58
511.048	13962.2
511.25	14158.8
511.453	14500.81
511.655	14846.92
511.858	14640.08
512.06	14787.53
512.262	14803.91
512.465	14861.26
512.667	15012.81
512.87	15494.08
513.072	15719.35
513.274	15842.23
513.477	15709.11
513.679	15989.69
513.881	16126.9
514.084	16712.62
514.286	16339.89
514.488	16440.24
514.69	17003.43
514.893	17167.27
515.095	16944.04
515.297	17413.02
515.499	17085.35
515.701	17855.39
515.904	17968.02
516.106	17951.64
516.308	18000.79
516.51	18117.53
516.712	18445.2
516.914	18776.97
517.116	18731.92
517.318	18899.85
517.52	19149.7
517.722	19239.81
517.925	19256.2
518.127	19710.85
518.329	20114.3
518.531	19975.03
518.733	20167.54
518.935	20640.62
519.136	20370.29
519.338	20562.8
519.54	20786.03
519.742	21242.73
519.944	21312.36
520.146	21488.48
520.348	21646.18
520.55	21398.37
520.752	21863.26
520.954	22268.76
521.155	21990.24
521.357	22836.05
521.559	22727.5
521.761	22844.24
521.963	22729.55
522.164	23126.86
522.366	23415.62
522.568	23458.63
522.77	23839.55
522.971	23829.31
523.173	23661.38
523.375	23903.04
523.576	24050.49
523.778	24224.57
523.98	24681.27
524.181	24527.67
524.383	24902.45
524.584	24828.72
524.786	24900.4
524.988	24992.56
525.189	25195.31
525.391	25428.77
525.592	25656.1
525.794	25592.61
525.995	25932.57
526.197	26002.21
526.398	26217.24
526.6	26098.46
526.801	26465.05
527.003	26489.62
527.204	26366.74
527.406	26854.16
527.607	26589.97
527.808	26735.38
528.01	26391.32
528.211	26669.84
528.412	27360.01
528.614	27339.53
528.815	27450.12
529.016	27669.25
529.218	27212.56
529.419	27556.61
529.62	27833.09
529.822	27493.13
530.023	27831.04
530.224	27738.88
530.425	27820.8
530.626	27667.2
530.828	27450.12
531.029	28046.08
531.23	28056.32
531.431	28048.13
531.632	28162.81
531.833	28248.83
532.035	28058.37
532.236	28074.75
532.437	28156.67
532.638	27663.11
532.839	28525.3
533.04	28445.43
533.241	28046.08
533.442	28302.07
533.643	28664.57
533.844	28486.39
534.045	28412.67
534.246	28216.06
534.447	28510.97
534.648	28363.51
534.849	28531.45
535.05	28402.43
535.251	28478.2
535.451	28564.21
535.652	28740.34
535.853	28476.15
536.054	28492.54
536.255	28484.34
536.456	28398.33
536.657	28607.22
536.857	28117.76
537.058	28228.35
537.259	28621.56
537.46	28547.83
537.66	28365.56
537.861	28783.35
538.062	28726
538.263	28752.63
538.463	28633.85
538.664	28343.03
538.865	28721.91
539.065	29315.82
539.266	28324.6
539.466	28875.51
539.667	28470.01
539.868	28629.75
540.068	28220.16
540.269	28754.68
540.469	28615.41
540.67	28271.36
540.87	28789.49
541.071	28474.1
541.271	28906.23
541.472	28648.18
541.672	28394.23
541.873	28478.2
542.073	28041.98
542.274	28842.74
542.474	28556.02
542.675	28619.51
542.875	28668.66
543.075	28529.4
543.276	28207.87
543.476	28535.54
543.676	28287.74
543.877	28506.87
544.077	28416.76
544.277	28611.32
544.478	28549.88
544.678	28713.72
544.878	28551.93
545.078	28394.23
545.279	28418.81
545.479	28078.85
545.679	28648.18
545.879	28371.71
546.079	28152.57
546.28	28439.29
546.48	28111.61
546.68	28893.94
546.88	28451.58
547.08	28435.19
547.28	28379.9
547.48	28228.35
547.68	28642.04
547.88	28324.6
548.081	28807.92
548.281	28525.3
548.481	28365.56
548.681	28117.76
548.881	28443.38
549.081	28394.23
549.28	28128
549.48	28273.4
549.68	28175.1
549.88	28639.99
550.08	28388.09
550.28	28467.96
550.48	28343.03
550.68	28338.94
550.88	28095.23
551.08	28261.12
551.279	28201.72
551.479	27867.91
551.679	28107.52
551.879	28336.89
552.079	28259.07
552.278	28029.69
552.478	28263.16
552.678	28275.45
552.878	28306.17
553.077	28498.68
553.277	27611.91
553.477	28113.66
553.676	28156.67
553.876	27894.53
554.076	27935.49
554.275	28257.02
554.475	28138.24
554.674	28066.56
554.874	27779.84
555.074	27822.85
555.273	27667.2
555.473	28199.68
555.672	27732.74
555.872	27927.3
556.071	27589.38
556.271	27654.92
556.47	27452.17
556.67	27706.12
556.869	27751.17
557.068	27544.33
557.268	27243.27
557.467	27648.77
557.667	27474.7
557.866	27661.06
558.065	27321.1
558.265	27233.04
558.464	27071.25
558.663	27519.75
558.863	26866.45
559.062	27826.95
559.261	27179.79
559.461	27464.46
559.66	27011.85
559.859	26987.28
560.058	26770.19
560.258	27071.25
560.457	26616.6
560.656	26749.71
560.855	26571.54
561.054	26725.14
561.253	26577.69
561.453	26743.57
561.652	26665.75
561.851	26782.48
562.05	26778.39
562.249	26604.31
562.448	26635.03
562.647	26569.49
562.846	26460.95
563.045	26714.9
563.244	26274.59
563.443	26485.53
563.642	26094.36
563.841	26266.39
564.04	26114.84
564.239	26184.48
564.438	25897.76
564.637	26071.84
564.836	26104.6
565.035	25705.25
565.234	26143.52
565.432	25705.25
565.631	25783.07
565.83	25807.65
566.029	25482.02
566.228	25738.02
566.427	25719.59
566.625	25303.85
566.824	24945.45
567.023	25465.64
567.222	24980.27
567.42	25529.13
567.619	25090.86
567.818	24679.22
568.016	25279.27
568.215	25248.55
568.414	24738.61
568.612	25170.73
568.811	24619.83
569.01	25015.08
569.208	24785.71
569.407	24711.99
569.605	24261.43
569.804	24494.9
570.002	24556.34
570.201	24378.17
570.4	24167.23
570.598	24062.78
570.797	24003.39
570.995	23763.78
571.193	23728.96
571.392	23995.2
571.59	23923.52
571.789	23683.91
571.987	23814.98
572.186	23479.11
572.384	23356.23
572.582	23669.57
572.781	23667.52
572.979	23266.12
573.177	23540.55
573.376	23190.34
573.574	22819.66
573.772	23257.93
573.971	23030.6
574.169	23051.08
574.367	22965.07
574.565	23089.99
574.763	22704.98
574.962	22801.23
575.16	22645.59
575.358	22825.81
575.556	21977.95
575.754	22608.72
575.952	22276.95
576.151	22614.87
576.349	22043.48
576.547	22205.27
576.745	22162.26
576.943	22166.36
577.141	22000.47
577.339	22098.78
577.537	22035.29
577.735	22117.21
577.933	21951.32
578.131	22106.97
578.329	21877.6
578.527	21740.38
578.725	21736.29
578.923	21721.95
579.121	21472.1
579.319	21396.32
579.516	21271.4
579.714	21373.8
579.912	21406.56
580.11	21287.78
580.308	21154.66
580.506	21171.05
580.704	20667.25
580.901	21138.28
581.099	21136.23
581.297	20960.11
581.495	20759.41
581.692	20886.38
581.89	20771.69
582.088	20872.04
582.285	21033.83
582.483	20542.32
582.681	20554.61
582.878	20441.97
583.076	20151.16
583.274	20437.87
583.471	20333.43
583.669	20345.72
583.866	20032.38
584.064	20372.34
584.262	19893.12
584.459	20110.2
584.657	19778.43
584.854	19899.26
585.052	19559.3
585.249	19616.64
585.447	19676.03
585.644	19436.42
585.841	19737.47
586.039	19567.49
586.236	19551.1
586.434	19207.05
586.631	19610.5
586.828	19239.81
587.026	19278.72
587.223	19184.52
587.42	19321.73
587.618	19043.21
587.815	19094.41
588.012	18924.43
588.21	19020.68
588.407	19110.79
588.604	19039.11
588.801	18473.87
588.999	18654.09
589.196	18807.69
589.393	18426.77
589.59	18678.67
589.787	18586.51
589.984	18557.84
590.182	18371.47
590.379	18326.42
590.576	18080.66
590.773	18324.37
590.97	18185.11
591.167	18285.46
591.364	17968.02
591.561	18015.13
591.758	17959.83
591.955	17904.54
592.152	17920.92
592.349	17617.82
592.546	17947.54
592.743	17779.61
592.94	17396.64
593.137	17566.62
593.334	17664.93
593.531	17460.13
593.727	17329.06
593.924	17400.74
594.121	17265.57
594.318	17433.5
594.515	16995.24
594.712	17548.19
594.908	17300.39
595.105	17394.59
595.302	16851.88
595.499	17005.48
595.696	16948.14
595.892	17054.63
596.089	17097.64
596.286	16882.6
596.482	16800.68
596.679	16911.27
596.876	16636.84
597.072	16528.3
597.269	16597.93
597.466	16473.01
597.662	16606.13
597.859	16386.99
598.055	16491.44
598.252	16464.82
598.448	16350.13
598.645	16360.37
598.841	16223.16
599.038	16112.56
599.234	16133.04
599.431	16010.17
599.627	15834.04
599.824	15905.72
600.02	16010.17
600.217	16040.89
600.413	15934.39
600.609	15791.03
600.806	15557.57
601.002	15588.28
601.198	15737.79
601.395	15578.04
601.591	15418.3
601.787	15408.06
601.984	15414.21
602.18	15555.52
602.376	15094.72
602.572	15180.74
602.769	15434.69
602.965	14941.13
603.161	15021
603.357	14980.04
603.553	14943.17
603.75	14844.87
603.946	15012.81
604.142	14744.52
604.338	15016.9
604.534	14842.82
604.73	14754.76
604.926	14750.67
605.122	14545.87
605.318	14351.31
605.514	14359.5
605.71	14427.09
605.906	14500.81
606.102	14625.74
606.298	14265.3
606.494	14402.51
606.69	14445.52
606.886	14375.89
607.082	14113.75
607.278	14296.02
607.474	14097.36
607.67	13898.71
607.866	13925.33
608.062	14156.75
608.257	13781.98
608.453	13738.97
608.649	13943.77
608.845	13640.67
609.041	14017.49
609.236	14023.64
609.432	13710.3
609.628	13728.73
609.824	13884.37
610.019	13577.18
610.215	13439.97
610.411	13677.53
610.606	13562.84
610.802	13792.22
610.998	13360.09
611.193	13444.06
611.389	13382.62
611.584	13499.36
611.78	13362.14
611.976	13413.34
612.171	13435.87
612.367	13302.75
612.562	13265.89
612.758	13183.97
612.953	13124.58
613.149	13200.35
613.344	12985.32
613.539	13368.29
613.735	13128.67
613.93	13161.44
614.126	12958.69
614.321	13130.72
614.517	12979.17
614.712	12927.97
614.907	13036.52
615.103	12975.08
615.298	12938.21
615.493	12952.55
615.688	12817.38
615.884	12966.88
616.079	12717.03
616.274	12669.93
616.47	12635.11
616.665	12768.23
616.86	12970.98
617.055	12551.15
617.25	12436.46
617.445	12805.1
617.641	12461.04
617.836	12645.35
618.031	12141.55
618.226	12518.38
618.421	12518.38
618.616	12346.35
618.811	12174.32
619.006	12190.7
619.201	12112.88
619.396	12133.36
619.591	11973.62
619.786	12213.23
619.981	11977.72
620.176	12096.5
620.371	11912.18
620.566	11977.72
620.761	11873.27
620.956	11746.3
621.151	11723.77
621.346	11668.47
621.541	11465.72
621.735	11693.05
621.93	11232.26
622.125	11318.27
622.32	11099.14
622.515	11346.94
622.709	11183.1
622.904	11004.93
623.099	11037.7
623.294	11068.42
623.488	11002.88
623.683	11080.71
623.878	10966.02
624.072	11017.22
624.267	10781.7
624.462	10857.48
624.656	10646.54
624.851	10746.89
625.046	10566.67
625.24	10531.85
625.435	10533.9
625.629	10282
625.824	10396.68
626.018	10243.09
626.213	10200.08
626.407	9987.09
626.602	10216.46
626.796	10069.01
626.991	10015.76
627.185	10142.74
627.38	9815.06
627.574	9774.1
627.768	9839.64
627.963	9622.55
628.157	9552.92
628.352	9655.32
628.546	9583.64
628.74	9743.38
628.935	9417.75
629.129	9522.2
629.323	9360.41
629.517	9350.17
629.712	9376.8
629.906	9309.21
630.1	9243.68
630.294	9196.57
630.489	9139.23
630.683	9212.96
630.877	8905.76
631.071	8979.49
631.265	8813.6
631.459	8717.35
631.653	8682.53
631.848	8811.56
632.042	8770.6
632.236	8688.68
632.43	8621.1
632.624	8565.8
632.818	8569.9
633.012	8332.33
633.206	8481.83
633.4	8459.31
633.594	8258.6
633.788	8236.08
633.982	8080.43
634.176	8307.76
634.369	8115.25
634.563	8088.62
634.757	7910.45
634.951	8160.3
635.145	8113.2
635.339	7951.41
635.533	7902.26
635.726	7930.93
635.92	7574.58
636.114	7840.82
636.308	7869.49
636.501	7750.71
636.695	7808.05
636.889	7562.3
637.083	7578.68
637.276	7593.01
637.47	7562.3
637.664	7398.46
637.857	7636.02
638.051	7488.57
638.244	7306.3
638.438	7480.38
638.632	7439.42
638.825	7455.8
639.019	7103.55
639.212	7189.56
639.406	7023.68
639.599	6997.06
639.793	7187.52
639.986	7035.97
640.18	7033.92
640.373	6992.96
640.567	6775.88
640.76	6978.62
640.954	6906.95
641.147	6888.51
641.34	6851.65
641.534	6736.96
641.727	6620.23
641.92	6661.19
642.114	6622.28
642.307	6571.08
642.5	6448.2
642.694	6370.38
642.887	6562.89
643.08	6622.28
643.273	6376.52
643.467	6227.02
643.66	6378.57
643.853	6298.7
644.046	6321.23
644.239	6431.82
644.432	6050.89
644.626	5975.12
644.819	6100.05
645.012	6141
645.205	5983.31
645.398	5923.92
645.591	5989.46
645.784	5932.11
645.977	5823.57
646.17	5923.92
646.363	5983.31
646.556	5688.4
646.749	5762.13
646.942	5743.7
647.135	5702.74
647.328	5635.16
647.521	5604.44
647.714	5653.59
647.907	5604.44
648.099	5538.9
648.292	5432.41
648.485	5629.01
648.678	5373.02
648.871	5467.22
649.064	5411.93
649.256	5383.26
649.449	5260.38
649.642	5362.78
649.835	5256.28
650.027	5186.65
650.22	5327.96
650.413	5157.98
650.605	5168.22
650.798	5139.55
650.991	5092.44
651.183	5157.98
651.376	5000.29
651.568	5104.73
651.761	5014.62
651.954	4942.94
652.146	4918.37
652.339	4883.55
652.531	4836.45
652.724	4832.35
652.916	4861.02
653.109	4703.33
653.301	4942.94
653.494	4916.32
653.686	4670.56
653.879	4705.38
654.071	4721.76
654.263	4580.45
654.456	4539.49
654.648	4545.64
654.84	4664.42
655.033	4623.46
655.225	4625.51
655.417	4459.62
655.61	4533.35
655.802	4408.42
655.994	4527.21
656.186	4476.01
656.379	4447.33
656.571	4445.29
656.763	4375.66
656.955	4418.66
657.148	4367.46
657.34	4322.41
657.532	4367.46
657.724	4220.01
657.916	4197.48
658.108	4383.85
658.3	4269.16
658.492	4144.24
658.684	4125.8
658.876	4064.36
659.068	3996.78
659.26	4011.12
659.452	3935.34
659.644	3943.53
659.836	4007.02
660.028	4115.56
660.22	3916.91
660.412	3898.48
660.604	3849.33
660.796	3806.32
660.988	3810.42
661.18	3851.38
661.372	3867.76
661.563	3880.05
661.755	3712.11
661.947	3699.83
662.139	3640.44
662.331	3671.15
662.522	3681.39
662.714	3675.25
662.906	3736.69
663.097	3650.67
663.289	3665.01
663.481	3548.28
663.673	3581.04
663.864	3724.4
664.056	3638.39
664.247	3548.28
664.439	3490.93
664.631	3562.61
664.822	3331.19
665.014	3564.66
665.205	3503.22
665.397	3363.96
665.588	3458.17
665.78	3458.17
665.971	3339.38
666.163	3339.38
666.354	3335.29
666.546	3249.27
666.737	3345.53
666.929	3343.48
667.12	3286.14
667.311	3179.64
667.503	3189.88
667.694	3304.57
667.885	3245.18
668.077	3245.18
668.268	3081.34
668.459	3155.07
668.651	3222.65
668.842	3134.59
669.033	3077.24
669.224	3173.5
669.416	3097.72
669.607	3208.31
669.798	2983.04
669.989	3017.85
670.18	3034.24
670.371	3028.09
670.563	3040.38
670.754	2950.27
670.945	2909.31
671.136	2890.88
671.327	2851.97
671.518	3007.61
671.709	2948.22
671.9	2974.85
672.091	2860.16
672.282	2837.63
672.473	2790.53
672.664	3003.52
672.855	2755.71
673.046	2843.78
673.237	2864.25
673.428	2798.72
673.619	2843.78
673.809	2684.03
674	2899.07
674.191	2811.01
674.382	2661.51
674.573	2993.28
674.764	2870.4
674.954	2819.2
675.145	2749.57
675.336	2622.59
675.527	2729.09
675.717	2696.32
675.908	2704.51
676.099	2829.44
676.289	2737.28
676.48	2722.95
676.671	2747.52
676.861	2729.09
677.052	2737.28
677.243	2622.59
677.433	2663.55
677.624	2684.03
677.814	2774.14
678.005	2604.16
678.195	2696.32
678.386	2647.17
678.576	2681.99
678.767	2636.93
678.957	2583.68
679.148	2788.48
679.338	2602.11
679.529	2634.88
679.719	2628.74
679.909	2612.35
680.1	2548.87
680.29	2641.03
680.481	2602.11
680.671	2555.01
680.861	2518.15
681.052	2593.92
681.242	2608.26
681.432	2446.47
681.622	2630.79
681.813	2475.14
682.003	2630.79
682.193	2518.15
682.383	2620.55
682.573	2542.72
682.764	2548.87
682.954	2434.18
683.144	2524.29
683.334	2460.81
683.524	2434.18
683.714	2630.79
683.904	2571.4
684.094	2542.72
684.284	2469
684.474	2487.43
684.664	2645.12
684.854	2428.04
685.044	2532.48
685.234	2442.37
685.424	2425.99
685.614	2464.9
685.804	2526.34
685.994	2446.47
686.184	2444.42
686.374	2385.03
686.564	2442.37
686.753	2528.39
686.943	2208.9
687.133	2397.32
687.323	2428.04
687.513	2425.99
687.702	2368.65
687.892	2331.78
688.082	2311.3
688.272	2425.99
688.461	2247.82
688.651	2428.04
688.841	2315.4
689.03	2311.3
689.22	2454.66
689.41	2362.5
689.599	2274.44
689.789	2329.74
689.979	2393.22
690.168	2256.01
690.358	2200.71
690.547	2253.96
690.737	2296.97
690.926	2235.53
691.116	2286.73
691.305	2221.19
691.495	2157.71
691.684	2172.04
691.874	2120.84
692.063	2301.06
692.252	2172.04
692.442	2196.62
692.631	2051.21
692.82	2198.67
693.01	2047.12
693.199	2180.23
693.388	2069.64
693.578	2075.79
693.767	2147.47
693.956	2118.79
694.146	2247.82
694.335	2077.83
694.524	2126.99
694.713	2043.02
694.902	2083.98
695.092	2116.75
695.281	2096.27
695.47	2012.3
695.659	2159.75
695.848	2102.41
696.037	2092.17
696.226	2153.61
696.415	1993.87
696.604	2098.31
696.793	1944.72
696.982	1991.82
697.171	2026.64
697.36	2129.03
697.549	2026.64
697.738	1991.82
697.927	1983.63
698.116	1928.33
698.305	1969.29
698.494	2053.26
698.683	2024.59
698.872	2008.2
699.061	1975.44
699.25	2043.02
699.438	1905.81
699.627	1963.15
699.816	2092.17
700.005	1957
700.193	2008.2
700.382	1973.39
700.571	1893.52
700.76	1877.13
700.948	1950.86
701.137	2053.26
701.326	1952.91
701.514	1936.53
701.703	1938.57
701.892	1868.94
702.08	2129.03
702.269	2049.16
702.457	2040.97
702.646	1961.1
702.834	1940.62
703.023	1991.82
703.212	1897.61
703.4	2018.44
703.589	1846.41
703.777	2092.17
703.965	1862.8
704.154	2004.11
704.342	1903.76
704.531	1895.57
704.719	1959.05
704.907	2040.97
705.096	1856.65
705.284	1938.57
705.472	1995.92
705.661	1877.13
705.849	1926.29
706.037	1911.95
706.226	1889.42
706.414	1983.63
706.602	1893.52
706.79	1975.44
706.979	2053.26
707.167	2000.01
707.355	1920.14
707.543	1959.05
707.731	1903.76
707.919	1922.19
708.107	1991.82
708.296	1920.14
708.484	1957
708.672	1938.57
708.86	1981.58
709.048	1997.96
709.236	1950.86
709.424	1891.47
709.612	1993.87
709.8	1926.29
709.988	1985.68
710.176	2065.55
710.364	2018.44
710.551	1987.72
710.739	1969.29
710.927	1969.29
711.115	1950.86
711.303	2051.21
711.491	1928.33
711.679	1877.13
711.866	2004.11
712.054	1961.1
712.242	1967.24
712.43	2057.36
712.617	1950.86
712.805	1897.61
712.993	2016.4
713.181	1936.53
713.368	1993.87
713.556	2102.41
713.744	2010.25
713.931	2092.17
714.119	2010.25
714.306	1936.53
714.494	2030.73
714.682	2116.75
714.869	2116.75
715.057	2040.97
715.244	1965.2
715.432	1979.53
715.619	1918.09
715.807	1932.43
715.994	1995.92
716.182	2028.68
716.369	2094.22
716.556	2032.78
716.744	1899.66
716.931	2010.25
717.119	2045.07
717.306	2028.68
717.493	1930.38
717.681	2026.64
717.868	1991.82
718.055	2090.12
718.242	1969.29
718.43	1975.44
718.617	1938.57
718.804	1942.67
718.991	1973.39
719.179	2108.55
719.366	1971.34
719.553	1965.2
719.74	2036.88
719.927	2012.3
720.114	1989.77
720.301	1852.56
720.488	2043.02
720.676	2040.97
720.863	2008.2
721.05	2032.78
721.237	2086.03
721.424	1979.53
721.611	1973.39
721.798	1961.1
721.985	2024.59
722.172	1899.66
722.358	2059.4
722.545	2008.2
722.732	2004.11
722.919	2012.3
723.106	1967.24
723.293	1987.72
723.48	1942.67
723.667	2004.11
723.853	2034.83
724.04	2008.2
724.227	2102.41
724.414	1961.1
724.6	1934.48
724.787	2045.07
724.974	2077.83
725.161	1967.24
725.347	2004.11
725.534	1870.99
725.72	2016.4
725.907	2090.12
726.094	2016.4
726.28	1985.68
726.467	2049.16
726.653	2061.45
726.84	2065.55
727.027	2086.03
727.213	2000.01
727.4	2057.36
727.586	2100.36
727.773	1946.76
727.959	2032.78
728.145	2012.3
728.332	1985.68
728.518	2067.6
728.705	1995.92
728.891	1850.51
729.077	2034.83
729.264	2036.88
729.45	1952.91
729.636	2032.78
729.823	1922.19
730.009	2020.49
730.195	2040.97
730.382	2034.83
730.568	2063.5
730.754	2034.83
730.94	2040.97
731.126	1952.91
731.313	2049.16
731.499	1952.91
731.685	2147.47
731.871	1973.39
732.057	2055.31
732.243	2073.74
732.429	2010.25
732.615	2108.55
732.801	2032.78
732.987	1973.39
733.173	1961.1
733.359	1969.29
733.545	1987.72
733.731	1893.52
733.917	2016.4
734.103	2032.78
734.289	1973.39
734.475	1930.38
734.661	1993.87
734.847	2051.21
735.033	2100.36
735.219	1907.85
735.404	1944.72
735.59	1848.46
735.776	1928.33
735.962	1952.91
736.148	2000.01
736.333	1948.81
736.519	1995.92
736.705	2000.01
736.89	1971.34
737.076	1971.34
737.262	1836.17
737.447	1809.55
737.633	1840.27
737.819	1909.9
738.004	1860.75
738.19	2016.4
738.375	1807.5
738.561	1778.83
738.747	1934.48
738.932	1942.67
739.118	1961.1
739.303	1938.57
739.489	1887.37
739.674	1885.33
739.859	1903.76
740.045	1963.15
740.23	1905.81
740.416	1860.75
740.601	1989.77
740.786	1860.75
740.972	1778.83
741.157	1938.57
741.342	1827.98
741.528	1868.94
741.713	1803.41
741.898	1725.58
742.084	1825.93
742.269	1811.6
742.454	1789.07
742.639	1934.48
742.824	1789.07
743.01	1860.75
743.195	1873.04
743.38	1879.18
743.565	1799.31
743.75	1803.41
743.935	1854.61
744.12	1825.93
744.305	1703.06
744.49	1721.49
744.675	1721.49
744.86	1762.45
745.045	1719.44
745.23	1713.3
745.415	1631.38
745.6	1733.78
745.785	1617.04
745.97	1754.26
746.155	1719.44
746.34	1709.2
746.525	1696.91
746.71	1639.57
746.895	1680.53
747.079	1623.19
747.264	1614.99
747.449	1645.71
747.634	1662.1
747.819	1614.99
748.003	1574.03
748.188	1508.5
748.373	1655.95
748.557	1541.27
748.742	1563.79
748.927	1488.02
749.111	1524.88
749.296	1565.84
749.481	1561.75
749.665	1488.02
749.85	1510.55
750.034	1539.22
750.219	1606.8
750.404	1418.39
750.588	1463.44
750.773	1510.55
750.957	1428.63
751.141	1352.85
751.326	1328.28
751.51	1404.05
751.695	1442.96
751.879	1330.33
752.064	1455.25
752.248	1410.2
752.432	1475.73
752.617	1395.86
752.801	1442.96
752.985	1340.57
753.17	1297.56
753.354	1387.67
753.538	1338.52
753.722	1313.94
753.907	1270.94
754.091	1320.09
754.275	1352.85
754.459	1203.35
754.643	1279.13
754.828	1270.94
755.012	1236.12
755.196	1180.82
755.38	1225.88
755.564	1221.78
755.748	1270.94
755.932	1199.26
756.116	1266.84
756.3	1209.5
756.484	1158.3
756.668	1172.63
756.852	1146.01
757.036	1182.87
757.22	1105.05
757.404	1223.83
757.588	1115.29
757.772	1164.44
757.956	1098.91
758.14	1066.14
758.323	1109.15
758.507	1135.77
758.691	1055.9
758.875	1045.66
759.059	1051.8
759.242	1066.14
759.426	1098.91
759.61	1070.23
759.794	1103
759.977	971.93
760.161	1037.47
760.345	998.56
760.528	1049.75
760.712	1000.6
760.895	1066.14
761.079	1004.7
761.263	1123.48
761.446	1006.75
761.63	943.26
761.813	984.22
761.997	951.45
762.18	861.34
762.364	1047.71
762.547	847.01
762.731	971.93
762.914	951.45
763.098	881.82
763.281	955.55
763.464	918.68
763.648	1000.6
763.831	908.44
764.015	914.59
764.198	865.44
764.381	1076.38
764.564	910.49
764.748	885.92
764.931	896.16
765.114	906.4
765.297	918.68
765.481	959.64
765.664	910.49
765.847	818.33
766.03	924.83
766.213	943.26
766.397	863.39
766.58	836.77
766.763	865.44
766.946	885.92
767.129	879.77
767.312	814.24
767.495	830.62
767.678	816.29
767.861	773.28
768.044	746.66
768.227	791.71
768.41	812.19
768.593	885.92
768.776	832.67
768.959	785.57
769.142	887.97
769.324	806.05
769.507	804
769.69	783.52
769.873	742.56
770.056	961.69
770.239	771.23
770.421	885.92
770.604	775.33
770.787	754.85
770.97	814.24
771.152	771.23
771.335	812.19
771.518	662.69
771.7	734.37
771.883	777.37
772.066	705.7
772.248	742.56
772.431	795.81
772.613	791.71
772.796	672.93
772.978	779.42
773.161	767.13
773.343	672.93
773.526	652.45
773.708	666.78
773.891	631.97
774.073	697.5
774.256	672.93
774.438	732.32
774.621	705.7
774.803	685.22
774.985	713.89
775.168	666.78
775.35	623.78
775.532	732.32
775.715	734.37
775.897	687.26
776.079	615.59
776.261	644.26
776.444	634.02
776.626	705.7
776.808	642.21
776.99	636.06
777.173	640.16
777.355	709.79
777.537	535.71
777.719	609.44
777.901	623.78
778.083	607.39
778.265	617.63
778.447	603.3
778.629	568.48
778.811	595.11
778.993	560.29
779.175	474.28
779.357	625.83
779.539	529.57
779.721	619.68
779.903	562.34
780.085	496.8
780.267	582.82
780.449	509.09
780.631	443.56
780.812	539.81
780.994	566.43
781.176	496.8
781.358	480.42
781.54	488.61
781.721	634.02
781.903	519.33
782.085	410.79
782.267	455.84
782.448	470.18
782.63	455.84
782.812	476.32
782.993	566.43
783.175	406.69
783.357	433.32
783.538	408.74
783.72	388.26
783.901	451.75
784.083	451.75
784.264	509.09
784.446	416.93
784.627	361.64
784.809	421.03
784.99	404.64
785.172	461.99
785.353	398.5
785.535	402.6
785.716	408.74
785.897	421.03
786.079	396.45
786.26	359.59
786.441	490.66
786.623	357.54
786.804	480.42
786.985	418.98
787.167	388.26
787.348	371.88
787.529	365.73
787.71	386.21
787.891	429.22
788.073	279.72
788.254	328.87
788.435	361.64
788.616	429.22
788.797	375.97
788.978	369.83
789.159	322.73
789.34	369.83
789.522	380.07
789.703	406.69
789.884	328.87
790.065	386.21
790.246	365.73
790.427	353.45
790.607	345.25
790.788	328.87
790.969	375.97
791.15	345.25
791.331	238.76
791.512	345.25
791.693	314.53
791.874	263.33
792.054	355.49
792.235	320.68
792.416	298.15
792.597	275.62
792.778	335.01
792.958	308.39
793.139	396.45
793.32	314.53
793.5	279.72
793.681	345.25
793.862	312.49
794.042	287.91
794.223	304.29
794.404	275.62
794.584	310.44
794.765	249
794.945	281.77
795.126	308.39
795.306	269.48
795.487	330.92
795.667	246.95
795.848	263.33
796.028	283.81
796.209	314.53
796.389	287.91
796.57	287.91
796.75	205.99
796.93	259.24
797.111	226.47
797.291	205.99
797.471	267.43
797.652	208.04
797.832	232.62
798.012	255.14
798.192	261.29
798.373	251.05
798.553	191.66
798.733	289.96
798.913	232.62
799.093	230.57
799.274	208.04
799.454	203.94
799.634	253.09
799.814	271.53
799.994	224.42
800.174	275.62
800.354	230.57
800.534	216.23
800.714	216.23
800.894	167.08
801.074	130.22
801.254	259.24
801.434	257.19
801.614	214.18
801.794	205.99
801.974	697.5
802.154	287.91
802.334	197.8
802.514	115.88
802.693	203.94
802.873	191.66
803.053	263.33
803.233	226.47
803.413	134.31
803.592	214.18
803.772	197.8
803.952	214.18
804.131	189.61
804.311	181.42
804.491	191.66
804.67	177.32
804.85	101.55
805.03	228.52
805.209	205.99
805.389	197.8
805.568	136.36
805.748	130.22
805.928	128.17
806.107	210.09
806.287	177.32
806.466	181.42
806.646	107.69
806.825	205.99
807.004	214.18
807.184	181.42
807.363	142.5
807.543	136.36
807.722	191.66
807.901	216.23
808.081	144.55
808.26	109.74
808.439	175.27
808.619	148.65
808.798	183.46
808.977	165.03
809.156	181.42
809.336	212.14
809.515	181.42
809.694	208.04
809.873	191.66
810.052	185.51
810.231	205.99
810.411	175.27
810.59	197.8
810.769	191.66
810.948	165.03
811.127	124.07
811.306	154.79
811.485	140.46
811.664	173.22
811.843	140.46
812.022	167.08
812.201	91.31
812.38	148.65
812.559	165.03
812.737	167.08
812.916	83.11
813.095	132.26
813.274	144.55
813.453	81.07
813.632	119.98
813.811	144.55
813.989	15.53
814.168	111.78
814.347	70.83
814.526	148.65
814.704	185.51
814.883	128.17
815.062	109.74
815.24	197.8
815.419	99.5
815.598	226.47
815.776	58.54
815.955	134.31
816.133	25.77
816.312	150.7
816.49	169.13
816.669	107.69
816.847	66.73
817.026	156.84
817.204	124.07
817.383	152.74
817.561	101.55
817.74	158.89
817.918	99.5
818.097	91.31
818.275	64.68
818.453	115.88
818.632	134.31
818.81	101.55
818.988	99.5
819.167	111.78
819.345	126.12
819.523	109.74
819.701	74.92
819.879	79.02
820.058	58.54
820.236	68.78
820.414	115.88
820.592	111.78
820.77	40.11
820.948	101.55
821.127	52.39
821.305	85.16
821.483	99.5
821.661	140.46
821.839	76.97
822.017	74.92
822.195	91.31
822.373	107.69
822.551	175.27
822.729	76.97
822.907	58.54
823.085	66.73
823.262	48.3
823.44	76.97
823.618	33.96
823.796	150.7
823.974	38.06
824.152	33.96
824.329	50.35
824.507	107.69
824.685	25.77
824.863	132.26
825.04	74.92
825.218	124.07
825.396	117.93
825.574	99.5
825.751	132.26
825.929	85.16
826.107	103.59
826.284	99.5
826.462	107.69
826.639	83.11
826.817	33.96
826.994	23.72
827.172	17.58
827.349	160.94
827.527	54.44
827.704	91.31
827.882	89.26
828.059	85.16
828.237	9.39
828.414	76.97
828.591	-2.9
828.769	40.11
828.946	113.83
829.124	107.69
829.301	111.78
829.478	107.69
829.655	46.25
829.833	11.43
830.01	58.54
830.187	56.49
830.364	25.77
830.542	33.96
830.719	119.98
830.896	52.39
831.073	58.54
831.25	97.45
831.427	72.87
831.604	144.55
831.782	11.43
831.959	66.73
832.136	70.83
832.313	117.93
832.49	23.72
832.667	-11.09
832.844	42.15
833.021	132.26
833.198	27.82
833.374	-13.14
833.551	115.88
833.728	52.39
833.905	107.69
834.082	19.63
834.259	62.63
834.436	109.74
834.612	15.53
834.789	91.31
834.966	27.82
835.143	42.15
835.319	54.44
835.496	60.59
835.673	134.31
835.85	115.88
836.026	38.06
836.203	5.29
836.38	33.96
836.556	9.39
836.733	62.63
836.909	52.39
837.086	1.19
837.262	29.87
837.439	-39.76
837.616	29.87
837.792	107.69
837.968	60.59
838.145	25.77
838.321	66.73
838.498	-33.62
838.674	-0.85
838.851	42.15
839.027	85.16
839.203	42.15
839.38	38.06
839.556	36.01
839.732	48.3
839.909	-31.57
840.085	148.65
840.261	105.64
840.437	21.67
840.614	25.77
840.79	79.02
840.966	19.63
841.142	54.44
841.318	62.63
841.494	-11.09
841.671	111.78
841.847	11.43
842.023	-15.19
842.199	17.58
842.375	83.11
842.551	23.72
842.727	11.43
842.903	167.08
843.079	25.77
843.255	83.11
843.431	31.91
843.607	50.35
843.783	36.01
843.959	42.15
844.134	9.39
844.31	33.96
844.486	29.87
844.662	-2.9
844.838	46.25
845.013	44.2
845.189	62.63
845.365	-27.48
845.541	79.02
845.716	68.78
845.892	17.58
846.068	21.67
846.244	9.39
846.419	83.11
846.595	-4.95
846.77	50.35
846.946	-37.72
847.122	-23.38
847.297	11.43
847.473	33.96
847.648	38.06
847.824	46.25
847.999	-45.91
848.175	13.48
848.35	31.91
848.526	33.96
848.701	21.67
848.876	29.87
849.052	27.82
849.227	99.5
849.403	9.39
849.578	27.82
849.753	23.72
849.929	72.87
850.104	-23.38
850.279	1.19
850.454	-31.57
850.63	23.72
850.805	36.01
850.98	107.69
851.155	33.96
851.33	-23.38
851.505	72.87
851.681	29.87
851.856	25.77
852.031	66.73
852.206	74.92
852.381	-4.95
852.556	48.3
852.731	95.4
852.906	42.15
853.081	13.48
853.256	97.45
853.431	11.43
853.606	3.24
853.781	-33.62
853.956	44.2
854.131	109.74
854.305	1.19
854.48	33.96
854.655	-23.38
854.83	7.34
855.005	-17.24
855.18	-43.86
855.354	1.19
855.529	25.77
855.704	-21.33
855.879	74.92
856.053	-86.87
856.228	115.88
856.403	-39.76
856.577	66.73
856.752	-47.96
856.926	46.25
857.101	-15.19
857.276	1.19
857.45	-13.14
857.625	72.87
857.799	-56.15
857.974	42.15
858.148	-4.95
858.323	17.58
858.497	-27.48
858.672	25.77
858.846	-27.48
859.02	68.78
859.195	33.96
859.369	40.11
859.543	46.25
859.718	33.96
859.892	29.87
860.066	93.35
860.241	99.5
860.415	5.29
860.589	5.29
860.763	-27.48
860.938	25.77
861.112	107.69
861.286	-35.67
861.46	-15.19
861.634	66.73
861.808	17.58
861.982	-21.33
862.157	107.69
862.331	-11.09
862.505	-86.87
862.679	13.48
862.853	74.92
863.027	-27.48
863.201	44.2
863.375	-11.09
863.549	29.87
863.722	101.55
863.896	50.35
864.07	58.54
864.244	-19.29
864.418	66.73
864.592	1.19
864.766	83.11
864.939	42.15
865.113	-50
865.287	91.31
865.461	-23.38
865.634	50.35
865.808	13.48
865.982	42.15
866.156	36.01
866.329	-15.19
866.503	42.15
866.676	58.54
866.85	11.43
867.024	-31.57
867.197	13.48
867.371	-11.09
867.544	-13.14
867.718	-70.48
867.891	3.24
868.065	-52.05
868.238	-23.38
868.412	68.78
868.585	13.48
868.759	11.43
868.932	7.34
869.105	-29.52
869.279	-13.14
869.452	-45.91
869.625	-15.19
869.799	27.82
869.972	11.43
870.145	54.44
870.319	-13.14
870.492	40.11
870.665	-43.86
870.838	9.39
871.011	-31.57
871.185	36.01
871.358	27.82
871.531	38.06
871.704	-97.11
871.877	-7
872.05	-19.29
872.223	-80.72
872.396	62.63
872.569	-39.76
872.742	-29.52
872.915	-11.09
873.088	46.25
873.261	17.58
873.434	91.31
873.607	74.92
873.78	-4.95
873.953	-23.38
874.126	5.29
874.299	27.82
874.471	42.15
874.644	42.15
874.817	33.96
874.99	40.11
875.163	54.44
875.335	-21.33
875.508	50.35
875.681	-62.29
875.853	9.39
876.026	29.87
876.199	11.43
876.371	54.44
876.544	-41.81
876.717	52.39
876.889	46.25
877.062	19.63
877.234	13.48
877.407	62.63
877.579	-111.44
877.752	95.4
877.924	-41.81
878.097	1.19
878.269	50.35
878.442	99.5
878.614	15.53
878.786	81.07
878.959	1.19
879.131	11.43
879.303	-43.86
879.476	-2.9
879.648	42.15
879.82	42.15
879.993	-31.57
880.165	31.91
880.337	1.19
880.509	7.34
880.681	-37.72
880.854	1.19
881.026	-7
881.198	33.96
881.37	52.39
881.542	33.96
881.714	-54.1
881.886	-23.38
882.058	1.19
882.23	21.67
882.402	-9.05
882.574	-21.33
882.746	85.16
882.918	-4.95
883.09	25.77
883.262	-4.95
883.434	9.39
883.606	99.5
883.778	42.15
883.95	17.58
884.122	-54.1
884.293	-39.76
884.465	17.58
884.637	1.19
884.809	-68.44
884.98	-62.29
885.152	60.59
885.324	15.53
885.496	9.39
885.667	-15.19
885.839	-31.57
886.011	68.78
886.182	42.15
886.354	17.58
886.525	-72.53
886.697	3.24
886.869	1.19
887.04	27.82
887.212	5.29
887.383	3.24
887.555	-13.14
887.726	-76.63
887.897	23.72
888.069	-25.43
888.24	-35.67
888.412	-47.96
888.583	70.83
888.754	-15.19
888.926	-101.2
889.097	7.34
889.268	1.19
889.44	29.87
889.611	38.06
889.782	-15.19
889.953	1.19
890.125	48.3
890.296	19.63
890.467	-23.38
890.638	1.19
890.809	23.72
890.98	23.72
891.151	25.77
891.323	83.11
891.494	9.39
891.665	44.2
891.836	7.34
892.007	-21.33
892.178	-17.24
892.349	-29.52
892.52	5.29
892.691	58.54
892.862	-84.82
893.032	13.48
893.203	-17.24
893.374	27.82
893.545	76.97
893.716	-35.67
893.887	-37.72
894.057	-47.96
894.228	11.43
894.399	-43.86
894.57	81.07
894.74	-64.34
894.911	11.43
895.082	-29.52
895.253	-4.95
895.423	-43.86
895.594	-54.1
895.764	17.58
895.935	-7
896.106	79.02
896.276	-0.85
896.447	9.39
896.617	-31.57
896.788	-72.53
896.958	-19.29
897.129	-27.48
897.299	31.91
897.47	-11.09
897.64	42.15
897.81	-47.96
897.981	-45.91
898.151	-39.76
898.322	-27.48
898.492	9.39
898.662	60.59
898.832	-7
899.003	-13.14
899.173	27.82
899.343	-31.57
899.513	-23.38
