Data from USB4F104151__113__14-43-50-451.txt Node

Date: Thu Mar 13 14:43:50 EDT 2025
User: louis
Spectrometer: USB4F10415
Trigger mode: 4
Integration Time (sec): 2.000000E-2
Scans to average: 1
Electric dark correction enabled: true
Nonlinearity correction enabled: false
Boxcar width: 0
XAxis mode: Wavelengths
Number of Pixels in Spectrum: 3648
>>>>>Begin Spectral Data<<<<<
178.204	-168.45
178.424	-168.45
178.644	-168.45
178.864	-129.53
179.084	-102.91
179.304	24.06
179.524	-41.47
179.744	56.83
179.964	28.16
180.184	-16.9
180.404	24.06
180.624	-6.66
180.844	-70.14
181.064	-25.09
181.283	9.73
181.503	15.87
181.723	1.54
181.943	-80.38
182.163	112.13
182.383	-12.8
182.602	7.68
182.822	34.3
183.042	-12.8
183.262	34.3
183.482	105.98
183.701	-25.09
183.921	24.06
184.141	50.69
184.361	114.17
184.58	40.45
184.8	40.45
185.02	-57.86
185.239	24.06
185.459	-23.04
185.679	71.17
185.898	-2.56
186.118	67.07
186.338	13.82
186.557	122.37
186.777	-4.61
186.997	40.45
187.216	9.73
187.436	97.79
187.655	-16.9
187.875	24.06
188.095	44.54
188.314	71.17
188.534	42.5
188.753	89.6
188.973	77.31
189.192	91.65
189.412	65.02
189.631	-29.18
189.851	19.97
190.07	114.17
190.29	58.88
190.509	48.64
190.729	-29.18
190.948	40.45
191.168	228.86
191.387	65.02
191.607	7.68
191.826	132.61
192.045	91.65
192.265	-6.66
192.484	40.45
192.704	116.22
192.923	-33.28
193.142	91.65
193.362	58.88
193.581	75.26
193.8	30.21
194.02	83.45
194.239	-27.14
194.458	26.11
194.678	-8.7
194.897	9.73
195.116	77.31
195.335	32.26
195.555	52.74
195.774	40.45
195.993	120.32
196.212	34.3
196.432	7.68
196.651	65.02
196.87	50.69
197.089	151.04
197.308	-14.85
197.528	116.22
197.747	-12.8
197.966	44.54
198.185	83.45
198.404	11.78
198.623	77.31
198.842	19.97
199.062	-31.23
199.281	36.35
199.5	93.69
199.719	60.93
199.938	56.83
200.157	40.45
200.376	81.41
200.595	65.02
200.814	91.65
201.033	73.21
201.252	56.83
201.471	36.35
201.69	67.07
201.909	34.3
202.128	-6.66
202.347	32.26
202.566	11.78
202.785	15.87
203.004	-20.99
203.223	138.75
203.442	15.87
203.661	122.37
203.879	1.54
204.098	-8.7
204.317	11.78
204.536	40.45
204.755	93.69
204.974	36.35
205.193	56.83
205.411	75.26
205.63	24.06
205.849	87.55
206.068	42.5
206.287	-0.51
206.505	83.45
206.724	48.64
206.943	50.69
207.162	65.02
207.381	26.11
207.599	40.45
207.818	24.06
208.037	24.06
208.255	13.82
208.474	-6.66
208.693	65.02
208.911	48.64
209.13	77.31
209.349	69.12
209.567	-0.51
209.786	-31.23
210.005	50.69
210.223	42.5
210.442	-12.8
210.661	17.92
210.879	22.02
211.098	42.5
211.316	110.08
211.535	38.4
211.753	60.93
211.972	77.31
212.191	48.64
212.409	-20.99
212.628	40.45
212.846	75.26
213.065	3.58
213.283	97.79
213.502	-57.86
213.72	108.03
213.938	77.31
214.157	56.83
214.375	19.97
214.594	-0.51
214.812	15.87
215.031	-35.33
215.249	-49.66
215.467	28.16
215.686	24.06
215.904	91.65
216.122	120.32
216.341	50.69
216.559	67.07
216.778	67.07
216.996	58.88
217.214	17.92
217.432	7.68
217.651	-66.05
217.869	77.31
218.087	-23.04
218.306	65.02
218.524	56.83
218.742	-39.42
218.96	97.79
219.179	32.26
219.397	19.97
219.615	52.74
219.833	132.61
220.051	24.06
220.27	77.31
220.488	110.08
220.706	60.93
220.924	-12.8
221.142	48.64
221.36	36.35
221.578	48.64
221.796	-33.28
222.015	65.02
222.233	36.35
222.451	40.45
222.669	15.87
222.887	62.98
223.105	19.97
223.323	67.07
223.541	48.64
223.759	56.83
223.977	58.88
224.195	77.31
224.413	36.35
224.631	114.17
224.849	-43.52
225.067	77.31
225.285	71.17
225.503	46.59
225.721	-49.66
225.939	105.98
226.157	91.65
226.375	138.75
226.592	-45.57
226.81	-0.51
227.028	54.78
227.246	81.41
227.464	5.63
227.682	50.69
227.9	60.93
228.117	52.74
228.335	-20.99
228.553	79.36
228.771	15.87
228.989	44.54
229.206	65.02
229.424	71.17
229.642	48.64
229.86	-49.66
230.077	24.06
230.295	-10.75
230.513	9.73
230.731	108.03
230.948	77.31
231.166	42.5
231.384	26.11
231.601	15.87
231.819	32.26
232.037	48.64
232.254	3.58
232.472	75.26
232.689	5.63
232.907	65.02
233.125	-0.51
233.342	15.87
233.56	-29.18
233.777	52.74
233.995	46.59
234.213	56.83
234.43	58.88
234.648	56.83
234.865	26.11
235.083	15.87
235.3	48.64
235.518	48.64
235.735	138.75
235.953	116.22
236.17	97.79
236.388	83.45
236.605	79.36
236.822	40.45
237.04	-12.8
237.257	40.45
237.475	42.5
237.692	26.11
237.909	65.02
238.127	-4.61
238.344	15.87
238.562	32.26
238.779	36.35
238.996	11.78
239.214	36.35
239.431	-33.28
239.648	-10.75
239.865	83.45
240.083	54.78
240.3	-64
240.517	-14.85
240.735	56.83
240.952	81.41
241.169	81.41
241.386	-16.9
241.603	58.88
241.821	-16.9
242.038	34.3
242.255	32.26
242.472	67.07
242.689	-25.09
242.907	40.45
243.124	3.58
243.341	48.64
243.558	-0.51
243.775	-8.7
243.992	-8.7
244.209	1.54
244.426	105.98
244.643	120.32
244.86	26.11
245.078	99.84
245.295	48.64
245.512	17.92
245.729	44.54
245.946	54.78
246.163	-53.76
246.38	50.69
246.597	17.92
246.814	15.87
247.031	26.11
247.248	7.68
247.464	7.68
247.681	-23.04
247.898	36.35
248.115	157.18
248.332	-45.57
248.549	26.11
248.766	75.26
248.983	48.64
249.2	7.68
249.417	7.68
249.633	44.54
249.85	56.83
250.067	-0.51
250.284	105.98
250.501	15.87
250.717	56.83
250.934	17.92
251.151	-61.95
251.368	48.64
251.585	24.06
251.801	97.79
252.018	67.07
252.235	56.83
252.451	40.45
252.668	1.54
252.885	65.02
253.102	-39.42
253.318	65.02
253.535	24.06
253.752	24.06
253.968	-25.09
254.185	40.45
254.401	46.59
254.618	42.5
254.835	28.16
255.051	9.73
255.268	32.26
255.484	44.54
255.701	24.06
255.917	56.83
256.134	7.68
256.351	73.21
256.567	44.54
256.784	17.92
257	-39.42
257.217	44.54
257.433	95.74
257.65	9.73
257.866	-4.61
258.082	15.87
258.299	-72.19
258.515	48.64
258.732	65.02
258.948	-18.94
259.165	26.11
259.381	89.6
259.597	75.26
259.814	69.12
260.03	7.68
260.246	50.69
260.463	40.45
260.679	83.45
260.895	77.31
261.112	-0.51
261.328	-8.7
261.544	9.73
261.761	108.03
261.977	89.6
262.193	-55.81
262.409	56.83
262.626	-2.56
262.842	73.21
263.058	38.4
263.274	73.21
263.49	65.02
263.707	85.5
263.923	-0.51
264.139	-4.61
264.355	105.98
264.571	140.8
264.787	83.45
265.004	83.45
265.22	40.45
265.436	56.83
265.652	75.26
265.868	-57.86
266.084	-20.99
266.3	114.17
266.516	46.59
266.732	24.06
266.948	15.87
267.164	-8.7
267.38	-16.9
267.596	60.93
267.812	85.5
268.028	11.78
268.244	17.92
268.46	-25.09
268.676	-23.04
268.892	1.54
269.108	-29.18
269.324	56.83
269.54	89.6
269.756	99.84
269.972	-37.38
270.188	48.64
270.403	-8.7
270.619	15.87
270.835	-29.18
271.051	-16.9
271.267	26.11
271.483	42.5
271.698	79.36
271.914	83.45
272.13	44.54
272.346	-57.86
272.562	48.64
272.777	114.17
272.993	89.6
273.209	17.92
273.425	32.26
273.64	15.87
273.856	32.26
274.072	9.73
274.287	13.82
274.503	73.21
274.719	42.5
274.934	36.35
275.15	-25.09
275.366	81.41
275.581	-16.9
275.797	73.21
276.012	36.35
276.228	24.06
276.444	71.17
276.659	34.3
276.875	-16.9
277.09	83.45
277.306	60.93
277.521	-0.51
277.737	17.92
277.952	54.78
278.168	-31.23
278.383	28.16
278.599	28.16
278.814	99.84
279.03	89.6
279.245	44.54
279.461	65.02
279.676	65.02
279.892	15.87
280.107	56.83
280.322	44.54
280.538	67.07
280.753	15.87
280.969	32.26
281.184	75.26
281.399	118.27
281.615	36.35
281.83	91.65
282.045	50.69
282.26	89.6
282.476	24.06
282.691	118.27
282.906	11.78
283.122	54.78
283.337	24.06
283.552	56.83
283.767	71.17
283.983	56.83
284.198	3.58
284.413	105.98
284.628	-0.51
284.843	40.45
285.058	48.64
285.274	34.3
285.489	24.06
285.704	75.26
285.919	-8.7
286.134	36.35
286.349	40.45
286.564	71.17
286.779	30.21
286.995	-0.51
287.21	-33.28
287.425	62.98
287.64	83.45
287.855	54.78
288.07	52.74
288.285	52.74
288.5	58.88
288.715	65.02
288.93	-16.9
289.145	-23.04
289.36	122.37
289.575	65.02
289.79	-6.66
290.004	28.16
290.219	122.37
290.434	3.58
290.649	7.68
290.864	97.79
291.079	-8.7
291.294	-14.85
291.509	81.41
291.724	110.08
291.938	32.26
292.153	3.58
292.368	-12.8
292.583	-25.09
292.798	62.98
293.012	26.11
293.227	-27.14
293.442	24.06
293.657	81.41
293.871	-0.51
294.086	-16.9
294.301	105.98
294.516	-23.04
294.73	65.02
294.945	36.35
295.16	81.41
295.374	44.54
295.589	48.64
295.804	91.65
296.018	81.41
296.233	48.64
296.447	85.5
296.662	40.45
296.877	67.07
297.091	50.69
297.306	28.16
297.52	77.31
297.735	3.58
297.949	17.92
298.164	48.64
298.378	93.69
298.593	42.5
298.807	-4.61
299.022	71.17
299.236	42.5
299.451	60.93
299.665	30.21
299.88	71.17
300.094	81.41
300.309	-23.04
300.523	60.93
300.737	155.13
300.952	118.27
301.166	108.03
301.381	46.59
301.595	54.78
301.809	11.78
302.024	75.26
302.238	56.83
302.452	159.23
302.667	-0.51
302.881	36.35
303.095	52.74
303.309	-6.66
303.524	-0.51
303.738	48.64
303.952	58.88
304.166	69.12
304.381	34.3
304.595	89.6
304.809	65.02
305.023	34.3
305.237	32.26
305.452	60.93
305.666	32.26
305.88	-6.66
306.094	60.93
306.308	67.07
306.522	7.68
306.736	42.5
306.95	101.89
307.164	36.35
307.379	52.74
307.593	101.89
307.807	81.41
308.021	81.41
308.235	56.83
308.449	38.4
308.663	40.45
308.877	155.13
309.091	15.87
309.305	99.84
309.519	-16.9
309.733	62.98
309.947	7.68
310.161	103.93
310.374	67.07
310.588	114.17
310.802	19.97
311.016	28.16
311.23	50.69
311.444	69.12
311.658	24.06
311.872	7.68
312.085	60.93
312.299	116.22
312.513	128.51
312.727	36.35
312.941	7.68
313.154	44.54
313.368	48.64
313.582	11.78
313.796	52.74
314.009	77.31
314.223	67.07
314.437	11.78
314.651	87.55
314.864	15.87
315.078	19.97
315.292	-16.9
315.505	7.68
315.719	32.26
315.933	95.74
316.146	46.59
316.36	48.64
316.573	73.21
316.787	87.55
317.001	40.45
317.214	-23.04
317.428	40.45
317.641	28.16
317.855	9.73
318.068	24.06
318.282	32.26
318.495	-14.85
318.709	3.58
318.922	-14.85
319.136	56.83
319.349	67.07
319.563	26.11
319.776	28.16
319.99	73.21
320.203	50.69
320.417	-25.09
320.63	38.4
320.843	75.26
321.057	122.37
321.27	3.58
321.483	-0.51
321.697	77.31
321.91	15.87
322.124	93.69
322.337	-0.51
322.55	42.5
322.763	50.69
322.977	65.02
323.19	-6.66
323.403	79.36
323.617	110.08
323.83	73.21
324.043	95.74
324.256	7.68
324.469	-6.66
324.683	7.68
324.896	58.88
325.109	48.64
325.322	-12.8
325.535	67.07
325.748	32.26
325.962	54.78
326.175	40.45
326.388	7.68
326.601	15.87
326.814	24.06
327.027	77.31
327.24	65.02
327.453	50.69
327.666	73.21
327.879	34.3
328.092	97.79
328.305	24.06
328.518	-39.42
328.731	-29.18
328.944	42.5
329.157	15.87
329.37	17.92
329.583	-20.99
329.796	40.45
330.009	17.92
330.222	-27.14
330.435	-0.51
330.648	-25.09
330.861	52.74
331.073	60.93
331.286	-0.51
331.499	65.02
331.712	38.4
331.925	32.26
332.138	19.97
332.35	56.83
332.563	11.78
332.776	89.6
332.989	30.21
333.202	44.54
333.414	32.26
333.627	56.83
333.84	65.02
334.053	77.31
334.265	24.06
334.478	97.79
334.691	48.64
334.903	32.26
335.116	-6.66
335.329	13.82
335.541	54.78
335.754	151.04
335.966	52.74
336.179	85.5
336.392	81.41
336.604	77.31
336.817	9.73
337.029	24.06
337.242	36.35
337.454	44.54
337.667	48.64
337.88	-16.9
338.092	9.73
338.305	38.4
338.517	19.97
338.729	32.26
338.942	65.02
339.154	7.68
339.367	9.73
339.579	56.83
339.792	1.54
340.004	75.26
340.217	58.88
340.429	75.26
340.641	3.58
340.854	40.45
341.066	-8.7
341.278	24.06
341.491	97.79
341.703	73.21
341.915	48.64
342.128	36.35
342.34	42.5
342.552	-4.61
342.764	5.63
342.977	-14.85
343.189	36.35
343.401	38.4
343.613	-4.61
343.826	91.65
344.038	22.02
344.25	40.45
344.462	-16.9
344.674	101.89
344.886	44.54
345.099	65.02
345.311	34.3
345.523	-4.61
345.735	-0.51
345.947	40.45
346.159	26.11
346.371	7.68
346.583	128.51
346.795	73.21
347.007	11.78
347.219	9.73
347.431	-0.51
347.643	69.12
347.855	60.93
348.067	24.06
348.279	-16.9
348.491	99.84
348.703	7.68
348.915	3.58
349.127	28.16
349.339	28.16
349.551	52.74
349.763	44.54
349.975	83.45
350.187	26.11
350.399	50.69
350.61	40.45
350.822	40.45
351.034	67.07
351.246	24.06
351.458	48.64
351.669	50.69
351.881	91.65
352.093	93.69
352.305	85.5
352.517	177.66
352.728	112.13
352.94	79.36
353.152	69.12
353.363	9.73
353.575	32.26
353.787	81.41
353.999	110.08
354.21	105.98
354.422	48.64
354.633	73.21
354.845	81.41
355.057	67.07
355.268	17.92
355.48	122.37
355.692	50.69
355.903	50.69
356.115	17.92
356.326	-39.42
356.538	130.56
356.749	7.68
356.961	97.79
357.172	7.68
357.384	-23.04
357.595	36.35
357.807	7.68
358.018	48.64
358.23	32.26
358.441	85.5
358.653	108.03
358.864	85.5
359.075	26.11
359.287	24.06
359.498	97.79
359.709	34.3
359.921	56.83
360.132	58.88
360.344	40.45
360.555	-31.23
360.766	97.79
360.977	65.02
361.189	15.87
361.4	54.78
361.611	110.08
361.823	60.93
362.034	56.83
362.245	38.4
362.456	93.69
362.667	40.45
362.879	24.06
363.09	24.06
363.301	116.22
363.512	34.3
363.723	7.68
363.935	26.11
364.146	56.83
364.357	75.26
364.568	110.08
364.779	17.92
364.99	67.07
365.201	-16.9
365.412	79.36
365.623	15.87
365.834	60.93
366.045	32.26
366.256	44.54
366.467	52.74
366.678	-4.61
366.889	114.17
367.1	52.74
367.311	40.45
367.522	60.93
367.733	38.4
367.944	116.22
368.155	-0.51
368.366	89.6
368.577	81.41
368.788	73.21
368.999	-10.75
369.209	58.88
369.42	110.08
369.631	56.83
369.842	75.26
370.053	-45.57
370.264	30.21
370.474	32.26
370.685	97.79
370.896	24.06
371.107	40.45
371.317	32.26
371.528	3.58
371.739	81.41
371.95	81.41
372.16	73.21
372.371	44.54
372.582	24.06
372.792	15.87
373.003	91.65
373.214	17.92
373.424	54.78
373.635	56.83
373.846	42.5
374.056	15.87
374.267	26.11
374.477	15.87
374.688	32.26
374.898	36.35
375.109	28.16
375.319	48.64
375.53	-12.8
375.74	83.45
375.951	38.4
376.161	148.99
376.372	69.12
376.582	58.88
376.793	24.06
377.003	75.26
377.214	60.93
377.424	56.83
377.635	114.17
377.845	-14.85
378.055	81.41
378.266	7.68
378.476	26.11
378.686	89.6
378.897	24.06
379.107	24.06
379.317	79.36
379.528	36.35
379.738	13.82
379.948	-8.7
380.158	89.6
380.369	42.5
380.579	144.89
380.789	36.35
380.999	83.45
381.21	103.93
381.42	146.94
381.63	97.79
381.84	132.61
382.05	34.3
382.261	75.26
382.471	67.07
382.681	56.83
382.891	146.94
383.101	30.21
383.311	-31.23
383.521	87.55
383.731	81.41
383.941	9.73
384.151	73.21
384.361	28.16
384.571	60.93
384.781	91.65
384.991	99.84
385.201	56.83
385.411	126.46
385.621	130.56
385.831	91.65
386.041	50.69
386.251	11.78
386.461	71.17
386.671	-12.8
386.881	30.21
387.091	52.74
387.301	134.65
387.511	28.16
387.72	114.17
387.93	110.08
388.14	114.17
388.35	54.78
388.56	97.79
388.769	71.17
388.979	36.35
389.189	7.68
389.399	75.26
389.609	114.17
389.818	42.5
390.028	56.83
390.238	28.16
390.447	58.88
390.657	81.41
390.867	65.02
391.076	-49.66
391.286	126.46
391.496	42.5
391.705	134.65
391.915	65.02
392.125	108.03
392.334	1.54
392.544	159.23
392.753	99.84
392.963	83.45
393.172	95.74
393.382	13.82
393.591	91.65
393.801	-8.7
394.01	105.98
394.22	105.98
394.429	54.78
394.639	75.26
394.848	97.79
395.058	36.35
395.267	-0.51
395.477	81.41
395.686	52.74
395.895	69.12
396.105	93.69
396.314	155.13
396.524	99.84
396.733	69.12
396.942	124.41
397.152	148.99
397.361	140.8
397.57	81.41
397.78	73.21
397.989	138.75
398.198	142.85
398.407	105.98
398.617	24.06
398.826	73.21
399.035	126.46
399.244	105.98
399.453	42.5
399.663	38.4
399.872	114.17
400.081	65.02
400.29	126.46
400.499	38.4
400.708	187.9
400.917	71.17
401.127	130.56
401.336	38.4
401.545	171.52
401.754	132.61
401.963	105.98
402.172	67.07
402.381	34.3
402.59	118.27
402.799	138.75
403.008	118.27
403.217	175.61
403.426	91.65
403.635	67.07
403.844	101.89
404.053	81.41
404.262	114.17
404.471	114.17
404.68	110.08
404.888	110.08
405.097	142.85
405.306	69.12
405.515	81.41
405.724	200.19
405.933	114.17
406.142	95.74
406.35	122.37
406.559	153.09
406.768	97.79
406.977	89.6
407.185	155.13
407.394	235
407.603	108.03
407.812	140.8
408.02	155.13
408.229	130.56
408.438	212.48
408.646	134.65
408.855	171.52
409.064	255.48
409.272	220.67
409.481	214.52
409.69	179.71
409.898	214.52
410.107	310.78
410.315	220.67
410.524	214.52
410.733	175.61
410.941	216.57
411.15	321.02
411.358	290.3
411.567	286.2
411.775	331.26
411.984	208.38
412.192	300.54
412.401	302.59
412.609	378.36
412.818	400.89
413.026	376.31
413.234	409.08
413.443	337.4
413.651	402.94
413.86	411.13
414.068	531.96
414.276	486.9
414.485	435.71
414.693	425.47
414.901	564.73
415.11	525.82
415.318	558.58
415.526	480.76
415.734	550.39
415.943	591.35
416.151	589.3
416.359	622.07
416.567	597.49
416.776	638.45
416.984	775.67
417.192	663.03
417.4	706.04
417.608	646.65
417.817	761.33
418.025	863.73
418.233	906.74
418.441	804.34
418.649	747
418.857	873.97
419.065	986.61
419.273	964.08
419.481	990.7
419.689	1048.05
419.897	1170.93
420.105	1105.39
420.313	1093.1
420.521	1179.12
420.729	1205.74
420.937	1183.21
421.145	1283.56
421.353	1351.15
421.561	1342.96
421.769	1494.51
421.977	1390.06
422.185	1424.87
422.393	1543.66
422.601	1572.33
422.809	1484.27
423.017	1680.87
423.224	1607.14
423.432	1723.88
423.64	1779.17
423.848	1961.44
424.056	1807.84
424.263	1922.53
424.471	1928.67
424.679	1998.31
424.887	2059.74
425.094	2139.62
425.302	2289.12
425.51	2268.64
425.718	2295.26
425.925	2401.76
426.133	2371.04
426.341	2649.56
426.548	2756.05
426.756	2571.74
426.964	2639.32
427.171	2866.64
427.379	2926.04
427.586	3050.96
427.794	3063.25
428.001	3339.73
428.209	3417.55
428.417	3456.46
428.624	3591.63
428.832	3546.57
429.039	3603.91
429.247	3497.42
429.454	3802.57
429.662	4093.38
429.869	3888.58
430.076	4165.06
430.284	4136.38
430.491	4261.31
430.699	4441.53
430.906	4476.35
431.114	4457.92
431.321	4666.81
431.528	4791.73
431.736	5027.25
431.943	5189.04
432.15	5299.63
432.358	5119.41
432.565	5504.43
432.772	5260.72
432.979	5766.57
433.187	5733.8
433.394	5782.95
433.601	6327.71
433.808	6296.99
434.016	6227.36
434.223	6526.36
434.43	7052.69
434.637	6864.28
434.844	7171.47
435.052	7097.75
435.259	7028.12
435.466	7091.6
435.673	7208.34
435.88	7744.91
436.087	8076.68
436.294	8103.3
436.501	7849.35
436.708	8039.81
436.915	8308.1
437.122	8818.04
437.329	8605.05
437.537	9004.41
437.743	9338.23
437.95	9059.7
438.157	9631.09
438.364	9772.39
438.571	9790.83
438.778	9862.51
438.985	10810.72
439.192	10302.82
439.399	10636.64
439.606	10405.22
439.813	10747.23
440.02	11410.77
440.227	11496.78
440.433	11337.04
440.64	11709.77
440.847	11361.62
441.054	11711.82
441.261	12651.84
441.467	12602.69
441.674	12465.47
441.881	13294.9
442.088	13139.26
442.294	13098.3
442.501	13393.2
442.708	13581.62
442.914	14114.09
443.121	14691.62
443.328	14460.2
443.534	15543.57
443.741	15093.02
443.948	14656.8
444.154	15877.39
444.361	15834.38
444.568	15805.71
444.774	15848.72
444.981	16057.61
445.187	16452.87
445.394	17112.31
445.6	16946.43
445.807	18334.95
446.013	17749.23
446.22	18205.93
446.426	18654.44
446.633	18930.91
446.839	19678.42
447.046	18621.67
447.252	19889.36
447.459	19944.66
447.665	19676.37
447.871	20729.03
448.078	21277.88
448.284	20380.87
448.491	21089.47
448.697	21951.67
448.903	22215.85
449.11	22183.09
449.316	22123.69
449.522	22437.03
449.728	22854.82
449.935	23149.73
450.141	22989.99
450.347	23528.6
450.553	23170.21
450.76	23141.53
450.966	24030.35
451.172	23807.12
451.378	24554.63
451.584	23915.67
451.791	24376.46
451.997	24659.08
452.203	24812.68
452.409	24910.98
452.615	24886.4
452.821	23893.14
453.027	23669.91
453.233	24810.63
453.44	23757.97
453.646	23962.77
453.852	24106.13
454.058	24769.67
454.264	23612.57
454.47	24511.63
454.676	23743.64
454.882	24697.99
455.088	22398.12
455.294	22940.83
455.5	23278.75
455.705	23497.88
455.911	22525.1
456.117	22428.84
456.323	21683.38
456.529	20731.08
456.735	21591.22
456.941	20892.87
457.147	20718.79
457.352	20382.92
457.558	19559.64
457.764	19786.96
457.97	19565.78
458.176	19162.33
458.381	19207.39
458.587	18119.92
458.793	18461.93
458.999	17198.33
459.204	18484.45
459.41	18306.28
459.616	16964.86
459.821	16897.28
460.027	16956.67
460.233	16622.85
460.438	15680.78
460.644	15990.03
460.85	15183.13
461.055	14841.12
461.261	15007
461.466	13641.01
461.672	13518.13
461.878	14429.48
462.083	13321.52
462.289	13110.58
462.494	13090.1
462.7	12621.12
462.905	11998.54
463.111	12629.31
463.316	12709.18
463.522	12213.57
463.727	12371.27
463.932	12213.57
464.138	12154.18
464.343	12166.47
464.549	11662.67
464.754	12164.42
464.959	12094.79
465.165	11896.14
465.37	11502.93
465.575	11175.25
465.781	11582.8
465.986	11777.36
466.191	11296.08
466.397	11167.06
466.602	10667.36
466.807	10814.81
467.012	10945.88
467.218	10812.76
467.423	10837.34
467.628	10599.77
467.833	11193.69
468.038	10841.43
468.244	10550.62
468.449	10952.02
468.654	10524
468.859	10675.55
469.064	10380.64
469.269	10214.76
469.474	10108.26
469.679	10618.21
469.885	9925.99
470.09	10143.08
470.295	10083.69
470.5	10052.97
470.705	9846.12
470.91	9667.95
471.115	9735.53
471.32	9700.72
471.525	9846.12
471.73	9442.67
471.935	9543.02
472.139	9039.22
472.344	9436.53
472.549	9166.2
472.754	9094.52
472.959	8863.1
473.164	8611.2
473.369	8547.71
473.574	8969.59
473.778	9033.08
473.983	8953.21
474.188	8660.35
474.393	8293.76
474.598	8377.73
474.802	8160.64
475.007	8109.44
475.212	8330.62
475.417	7957.89
475.621	8150.4
475.826	8056.2
476.031	7646.6
476.235	7720.33
476.44	8027.53
476.645	7591.31
476.849	7468.43
477.054	7789.96
477.259	7507.34
477.463	7611.79
477.668	7372.18
477.872	7431.57
478.077	7118.23
478.282	7167.38
478.486	7134.61
478.691	7073.17
478.895	7034.26
479.1	6958.49
479.304	6948.25
479.509	6710.68
479.713	7011.73
479.918	6655.39
480.122	6512.03
480.326	6639
480.531	6649.24
480.735	6614.43
480.94	6340
481.144	6686.11
481.348	6366.62
481.553	6512.03
481.757	6276.51
481.961	6501.79
482.166	6694.3
482.37	6421.92
482.574	6411.68
482.778	6466.97
482.983	6569.37
483.187	6483.36
483.391	6473.12
483.595	6430.11
483.8	6147.49
484.004	6315.42
484.208	6417.82
484.412	6446.49
484.616	6389.15
484.821	6270.37
485.025	6389.15
485.229	6479.26
485.433	6256.03
485.637	6391.2
485.841	6249.89
486.045	6354.34
486.249	6303.14
486.453	6243.74
486.657	6241.7
486.861	6358.43
487.065	6309.28
487.269	6399.39
487.473	6210.98
487.677	6489.5
487.881	6596
488.085	6419.87
488.289	6268.32
488.493	6454.69
488.697	6423.97
488.901	6385.05
489.105	6464.93
489.309	6438.3
489.512	6591.9
489.716	6462.88
489.92	6419.87
490.124	6432.16
490.328	6604.19
490.531	6526.36
490.735	6622.62
490.939	6645.15
491.143	6641.05
491.346	6509.98
491.55	6725.02
491.754	6591.9
491.958	6880.66
492.161	6708.63
492.365	6841.75
492.569	6729.11
492.772	6825.37
492.976	6757.78
493.18	6626.71
493.383	6854.04
493.587	6983.06
493.79	6919.57
493.994	6929.81
494.197	7077.27
494.401	7085.46
494.605	6991.25
494.808	7054.74
495.012	7261.59
495.215	7269.78
495.419	7277.97
495.622	7447.95
495.825	7519.63
496.029	7468.43
496.232	7413.13
496.436	7237.01
496.639	7800.2
496.843	7662.99
497.046	7660.94
497.249	7839.11
497.453	7980.42
497.656	7964.04
497.859	7927.18
498.063	8166.79
498.266	8437.12
498.469	8244.61
498.673	8371.58
498.876	8463.74
499.079	8719.74
499.282	8670.59
499.485	8920.44
499.689	8795.51
499.892	8861.05
500.095	8961.4
500.298	9256.31
500.501	9000.31
500.705	9153.91
500.908	9438.58
501.111	9565.55
501.314	9756.01
501.517	9766.25
501.72	9731.44
501.923	9870.7
502.126	9973.1
502.329	10300.77
502.532	10255.72
502.735	10270.05
502.938	10435.94
503.141	10503.52
503.344	10526.05
503.547	10767.71
503.75	10968.41
503.953	11171.16
504.156	11142.49
504.359	11316.56
504.562	11162.97
504.765	11416.91
504.968	11634
505.17	11830.6
505.373	11695.44
505.576	12010.82
505.779	12055.88
505.982	12283.2
506.185	12338.5
506.387	12293.44
506.59	12447.04
506.793	12877.12
506.996	12645.7
507.198	13108.54
507.401	12918.07
507.604	13217.08
507.807	13456.69
508.009	13411.64
508.212	13585.71
508.415	13761.84
508.617	13860.14
508.82	13833.52
509.022	13976.87
509.225	14204.2
509.428	14138.66
509.63	14443.81
509.833	14703.9
510.035	14867.74
510.238	14843.17
510.44	15031.58
510.643	15392.02
510.845	15445.27
511.048	15482.13
511.25	15613.2
511.453	15842.57
511.655	16207.11
511.858	16016.65
512.06	16403.72
512.262	16364.81
512.465	16311.56
512.667	16581.89
512.87	16770.3
513.072	16952.57
513.274	17329.4
513.477	17349.88
513.679	17372.41
513.881	17640.69
514.084	17974.51
514.286	17931.5
514.488	18042.09
514.69	18388.2
514.893	18287.85
515.095	18703.59
515.297	18783.46
515.499	18605.28
515.701	18908.38
515.904	19053.79
516.106	19285.21
516.308	19510.49
516.51	19563.73
516.712	19979.47
516.914	20169.93
517.116	20229.32
517.318	20372.68
517.52	20434.12
517.722	20323.53
517.925	20667.59
518.127	20952.26
518.329	21292.22
518.531	21038.27
518.733	21564.6
518.935	21820.6
519.136	21916.85
519.338	22117.55
519.54	22219.95
519.742	22326.44
519.944	22543.53
520.146	22992.03
520.348	22820
520.55	23006.37
520.752	23012.51
520.954	23379.1
521.155	23350.43
521.357	23829.65
521.559	23985.3
521.761	24288.4
521.963	23950.48
522.164	24181.9
522.366	24452.23
522.568	24566.92
522.77	25142.4
522.971	25091.2
523.173	25027.71
523.375	25181.31
523.576	25037.95
523.778	25279.61
523.98	25373.82
524.181	25853.05
524.383	25867.38
524.584	26106.99
524.786	26037.36
524.988	26102.9
525.189	26158.19
525.391	26629.23
525.592	26702.95
525.794	26436.72
525.995	26676.33
526.197	26547.31
526.398	26868.84
526.6	27313.25
526.801	27425.89
527.003	27393.12
527.204	27448.41
527.406	27755.61
527.607	27509.85
527.808	27845.72
528.01	27225.18
528.211	27538.52
528.412	28085.33
528.614	27970.65
528.815	27812.95
529.016	28302.42
529.218	27917.4
529.419	28279.89
529.62	28142.67
529.822	28734.54
530.023	28243.03
530.224	28441.68
530.425	28240.98
530.626	28191.83
530.828	28157.01
531.029	28703.82
531.23	28597.32
531.431	28292.18
531.632	28345.42
531.833	28505.17
532.035	28499.02
532.236	29074.5
532.437	28904.52
532.638	28556.36
532.839	29131.84
533.04	28703.82
533.241	28433.49
533.442	29164.61
533.643	28806.22
533.844	28750.92
534.045	28707.91
534.246	28431.44
534.447	29002.82
534.648	28824.65
534.849	28693.58
535.05	28783.69
535.251	28623.95
535.451	28746.83
535.652	28925
535.853	28556.36
536.054	28574.8
536.255	28943.43
536.456	28488.78
536.657	29054.02
536.857	28824.65
537.058	28677.19
537.259	28922.95
537.46	28841.03
537.66	28912.71
537.861	28986.44
538.062	28685.39
538.263	28738.63
538.463	28642.38
538.664	28765.26
538.865	29039.68
539.065	28650.57
539.266	28695.63
539.466	29039.68
539.667	28490.83
539.868	29021.25
540.068	28560.46
540.269	28687.43
540.469	28853.32
540.67	28443.73
540.87	28521.55
541.071	28974.15
541.271	28722.25
541.472	28443.73
541.672	28752.97
541.873	28728.39
542.073	28349.52
542.274	28648.52
542.474	28654.67
542.675	28626
542.875	29031.49
543.075	28523.6
543.276	28517.45
543.476	29037.64
543.676	28468.3
543.877	28726.35
544.077	28582.99
544.277	28318.8
544.478	28554.32
544.678	28306.51
544.878	28507.21
545.078	28349.52
545.279	28152.91
545.479	28275.79
545.679	28429.39
545.879	28472.4
546.079	28679.24
546.28	28339.28
546.48	28046.42
546.68	28716.11
546.88	28554.32
547.08	28687.43
547.28	28423.25
547.48	28539.98
547.68	28685.39
547.88	28275.79
548.081	28865.61
548.281	28159.06
548.481	28154.96
548.681	28449.87
548.881	28429.39
549.081	28517.45
549.28	28107.86
549.48	28384.33
549.68	28273.74
549.88	28521.55
550.08	28281.94
550.28	28195.92
550.48	28290.13
550.68	28597.32
550.88	28378.19
551.08	27888.73
551.279	28234.83
551.479	28066.9
551.679	28494.93
551.879	28169.3
552.079	28240.98
552.278	28058.71
552.478	28404.81
552.678	28013.65
552.878	28468.3
553.077	28011.6
553.277	28050.52
553.477	28247.12
553.676	27810.9
553.876	27577.44
554.076	28247.12
554.275	28015.7
554.475	27542.62
554.674	27954.26
554.874	28019.8
555.074	27593.82
555.273	27778.14
555.473	27880.53
555.672	27563.1
555.872	27894.87
556.071	27595.87
556.271	27737.18
556.47	27495.52
556.67	27221.09
556.869	27511.9
557.068	27923.54
557.268	27208.8
557.467	27448.41
557.667	27505.76
557.866	27477.08
558.065	27749.46
558.265	27229.28
558.464	27255.9
558.663	27610.2
558.863	27202.66
559.062	27206.75
559.261	27077.73
559.461	27432.03
559.66	26743.91
559.859	27096.16
560.058	27104.35
560.258	27079.78
560.457	26825.83
560.656	27210.85
560.855	26977.38
561.054	26946.66
561.253	26831.97
561.453	26879.08
561.652	26903.65
561.851	26983.52
562.05	26680.42
562.249	26653.8
562.448	27118.69
562.647	27102.31
562.846	26651.75
563.045	26514.54
563.244	26561.64
563.443	26723.43
563.642	26182.77
563.841	26403.95
564.04	26133.62
564.239	26203.25
564.438	26076.27
564.637	26031.22
564.836	26580.07
565.035	25865.33
565.234	25595
565.432	26111.09
565.631	26086.51
565.83	25967.73
566.029	25715.83
566.228	25506.94
566.427	25627.77
566.625	25511.03
566.824	25349.25
567.023	26018.93
567.222	25175.17
567.42	25480.32
567.619	25568.38
567.818	25484.41
568.016	25189.5
568.215	25334.91
568.414	25566.33
568.612	25453.69
568.811	24917.12
569.01	25048.19
569.208	25076.87
569.407	25046.15
569.605	24777.86
569.804	25236.61
570.002	24644.74
570.201	25224.32
570.4	24673.42
570.598	24614.02
570.797	24347.79
570.995	24407.18
571.193	24302.73
571.392	24644.74
571.59	24317.07
571.789	24476.81
571.987	24327.31
572.186	24106.13
572.384	23841.94
572.582	24120.46
572.781	24298.64
572.979	23520.41
573.177	23876.76
573.376	23946.39
573.574	23663.77
573.772	23843.99
573.971	23747.73
574.169	23454.87
574.367	23622.81
574.565	23561.37
574.763	23676.05
574.962	23512.22
575.16	23037.09
575.358	23487.64
575.556	23397.53
575.754	23786.65
575.952	23063.71
576.151	23182.49
576.349	23114.91
576.547	22699.17
576.745	22881.44
576.943	23078.05
577.141	23012.51
577.339	22949.03
577.537	22627.49
577.735	22969.51
577.933	22574.25
578.131	22848.68
578.329	22527.14
578.527	22369.45
578.725	22533.29
578.923	22805.67
579.121	22371.5
579.319	22373.55
579.516	22574.25
579.714	22178.99
579.912	22064.3
580.11	21808.31
580.308	22127.79
580.506	22281.39
580.704	21615.8
580.901	21648.57
581.099	22326.44
581.297	21691.57
581.495	21634.23
581.692	21994.67
581.89	21554.36
582.088	21775.54
582.285	21517.5
582.483	21458.1
582.681	21206.2
582.878	21472.44
583.076	21249.21
583.274	21120.19
583.471	21171.39
583.669	20901.06
583.866	20839.62
584.064	20968.64
584.262	20671.68
584.459	20939.97
584.657	20899.01
584.854	20952.26
585.052	20583.62
585.249	20829.38
585.447	20677.83
585.644	20319.43
585.841	20778.18
586.039	20626.63
586.236	20356.3
586.434	20108.49
586.631	20344.01
586.828	20286.67
587.026	20219.08
587.223	20262.09
587.42	20407.5
587.618	20053.2
587.815	19864.78
588.012	20016.33
588.21	19852.5
588.407	20102.35
588.604	19711.19
588.801	19655.89
588.999	19688.66
589.196	19442.9
589.393	19498.2
589.59	19504.34
589.787	19543.25
589.984	19332.31
590.182	19334.36
590.379	19289.31
590.576	19287.26
590.773	19057.89
590.97	18961.63
591.167	18691.3
591.364	18967.77
591.561	19139.8
591.758	18722.02
591.955	18771.17
592.152	18863.33
592.349	18842.85
592.546	18576.61
592.743	18625.76
592.94	18388.2
593.137	18603.24
593.334	18515.17
593.531	18261.23
593.727	18455.78
593.924	18355.43
594.121	18375.91
594.318	18222.31
594.515	17874.16
594.712	18181.35
594.908	17966.32
595.105	17902.83
595.302	17716.47
595.499	18009.33
595.696	17929.45
595.892	17661.17
596.089	17808.62
596.286	17716.47
596.482	17638.64
596.679	17575.16
596.876	17462.52
597.072	17439.99
597.269	17431.8
597.466	17270.01
597.662	17323.26
597.859	17112.31
598.055	16981.24
598.252	17417.46
598.448	17079.55
598.645	16960.77
598.841	17237.24
599.038	17108.22
599.234	17048.83
599.431	16614.66
599.627	16749.82
599.824	16882.94
600.02	16645.38
600.217	16876.8
600.413	16592.13
600.609	16676.1
600.806	16385.29
601.002	16450.82
601.198	16479.49
601.395	16297.22
601.591	16344.33
601.787	16430.34
601.984	16217.35
602.18	16192.78
602.376	15957.26
602.572	16168.2
602.769	15934.73
602.965	15881.49
603.161	15885.58
603.357	15981.84
603.553	15969.55
603.75	15805.71
603.946	15633.68
604.142	15744.27
604.338	15432.98
604.534	15740.18
604.73	15310.1
604.926	15504.66
605.122	15279.38
605.318	15422.74
605.514	15219.99
605.71	15308.05
605.906	15187.22
606.102	15326.49
606.298	15115.55
606.494	15295.77
606.69	15318.29
606.886	15217.94
607.082	14869.79
607.278	15011.1
607.474	14789.92
607.67	14994.72
607.866	14867.74
608.062	14812.45
608.257	14908.7
608.453	14974.24
608.649	15021.34
608.845	14585.12
609.041	14597.41
609.236	14664.99
609.432	14572.83
609.628	14556.45
609.824	14628.13
610.019	14712.1
610.215	14376.23
610.411	14763.29
610.606	14427.43
610.802	14578.98
610.998	14558.5
611.193	14333.22
611.389	14433.57
611.584	14026.03
611.78	14177.58
611.976	14148.9
612.171	14214.44
612.367	14132.52
612.562	14163.24
612.758	13876.52
612.953	13876.52
613.149	13991.21
613.344	13868.33
613.539	14257.45
613.735	14296.36
613.93	14216.49
614.126	14050.6
614.321	14038.31
614.517	13874.48
614.712	13937.96
614.907	13755.69
615.103	13892.91
615.298	13946.16
615.493	13960.49
615.688	13829.42
615.884	13917.48
616.079	13569.33
616.274	13737.26
616.47	13835.56
616.665	13612.34
616.86	13589.81
617.055	13471.03
617.25	13251.89
617.445	13280.57
617.641	13188.41
617.836	13397.3
618.031	13169.98
618.226	13303.09
618.421	13192.5
618.616	13436.21
618.811	13129.02
619.006	13288.76
619.201	12959.03
619.396	13040.95
619.591	12774.72
619.786	12787
619.981	12770.62
620.176	12870.97
620.371	12592.45
620.566	12787
620.761	12547.39
620.956	12660.03
621.151	12129.61
621.346	12555.58
621.541	12275.01
621.735	12535.1
621.93	12346.69
622.125	12338.5
622.32	11953.48
622.515	12174.66
622.709	12189
622.904	11906.38
623.099	11871.56
623.294	11883.85
623.488	11777.36
623.683	11881.8
623.878	11791.69
624.072	11677.01
624.267	11650.38
624.462	11550.03
624.656	11453.78
624.851	11564.37
625.046	11281.75
625.24	11291.99
625.435	11363.67
625.629	11296.08
625.824	11193.69
626.018	10972.5
626.213	10628.45
626.407	10884.44
626.602	11074.9
626.796	10976.6
626.991	10909.02
627.185	10650.97
627.38	10669.41
627.574	10425.7
627.768	10595.68
627.963	10524
628.157	10349.92
628.352	10655.07
628.546	10323.3
628.74	10362.21
628.935	10255.72
629.129	10257.76
629.323	10075.49
629.517	10120.55
629.712	10030.44
629.906	9911.66
630.1	9946.47
630.294	10061.16
630.489	9919.85
630.683	9805.16
630.877	9518.45
631.071	9555.31
631.265	9528.69
631.459	9430.38
631.653	9344.37
631.848	9481.58
632.042	9370.99
632.236	9360.75
632.43	9385.33
632.624	9115
632.818	9092.47
633.012	8985.97
633.206	9258.35
633.4	9151.86
633.594	8902.01
633.788	9004.41
633.982	9024.89
634.176	8826.23
634.369	8887.67
634.563	8828.28
634.757	8887.67
634.951	8805.75
635.145	8596.86
635.339	8856.95
635.533	8490.37
635.726	8508.8
635.92	8324.48
636.114	8603
636.308	8230.27
636.501	8332.67
636.695	8447.36
636.889	8256.9
637.083	8150.4
637.276	8072.58
637.47	8166.79
637.664	8166.79
637.857	8240.51
638.051	8154.5
638.244	7857.54
638.438	8019.33
638.632	7830.92
638.825	7714.19
639.019	7787.91
639.212	7638.41
639.406	7822.73
639.599	7687.56
639.793	7712.14
639.986	7511.44
640.18	7527.82
640.373	7587.21
640.567	7368.08
640.76	7634.32
640.954	7495.05
641.147	7523.73
641.34	7273.87
641.534	7406.99
641.727	7237.01
641.92	7165.33
642.114	7054.74
642.307	7224.72
642.5	6978.97
642.694	7013.78
642.887	7036.31
643.08	7013.78
643.273	6882.71
643.467	6753.69
643.66	6999.45
643.853	6966.68
644.046	6729.11
644.239	6778.26
644.432	6823.32
644.626	6725.02
644.819	6661.53
645.012	6796.7
645.205	6528.41
645.398	6585.76
645.591	6512.03
645.784	6528.41
645.977	6307.23
646.17	6446.49
646.363	6163.87
646.556	6391.2
646.749	6397.34
646.942	6395.29
647.135	6331.81
647.328	6286.75
647.521	6172.07
647.714	6067.62
647.907	6286.75
648.099	6092.2
648.292	6069.67
648.485	6014.37
648.678	5997.99
648.871	5868.97
649.064	5877.16
649.256	5848.49
649.449	5717.42
649.642	5733.8
649.835	5729.7
650.027	5840.29
650.22	5684.65
650.413	5901.73
650.605	5760.42
650.798	5518.76
650.991	5717.42
651.183	5688.75
651.376	5565.87
651.568	5385.65
651.761	5414.32
651.954	5539.24
652.146	5569.96
652.339	5459.37
652.531	5467.56
652.724	5266.86
652.916	5273.01
653.109	5320.11
653.301	5277.1
653.494	5297.58
653.686	5184.94
653.879	5232.05
654.071	5164.47
654.263	5258.67
654.456	5162.42
654.648	5037.49
654.84	5125.55
655.033	4894.13
655.225	5074.35
655.417	5027.25
655.61	4943.28
655.802	4857.27
655.994	5037.49
656.186	4904.37
656.379	4883.89
656.571	4853.17
656.763	4677.05
656.955	4775.35
657.148	4695.48
657.34	4730.3
657.532	4875.7
657.724	4693.43
657.916	4709.82
658.108	4664.76
658.3	4562.36
658.492	4629.95
658.684	4439.48
658.876	4617.66
659.068	4359.61
659.26	4505.02
659.452	4386.24
659.644	4449.72
659.836	4423.1
660.028	4468.16
660.22	4341.18
660.412	4373.95
660.604	4242.88
660.796	4488.64
660.988	4369.85
661.18	4160.96
661.372	4206.02
661.563	4230.59
661.755	4165.06
661.947	4136.38
662.139	4142.53
662.331	4066.75
662.522	4062.66
662.714	4105.67
662.906	4005.31
663.097	4144.58
663.289	4091.33
663.481	3997.12
663.673	4042.18
663.864	3888.58
664.056	3952.07
664.247	3947.97
664.439	3931.59
664.631	3968.45
664.822	3900.87
665.014	3845.57
665.205	3857.86
665.397	3802.57
665.588	3941.83
665.78	3786.18
665.971	3909.06
666.163	3759.56
666.354	3708.36
666.546	3583.43
666.737	3775.94
666.929	3542.47
667.12	3726.79
667.311	3710.41
667.503	3669.45
667.694	3665.35
667.885	3491.27
668.077	3558.86
668.268	3554.76
668.459	3583.43
668.651	3497.42
668.842	3554.76
669.033	3538.38
669.224	3403.21
669.416	3524.04
669.607	3427.79
669.798	3378.64
669.989	3388.88
670.18	3575.24
670.371	3374.54
670.563	3390.92
670.754	3431.88
670.945	3415.5
671.136	3257.81
671.327	3407.31
671.518	3378.64
671.709	3243.47
671.9	3286.48
672.091	3208.66
672.282	3462.6
672.473	3255.76
672.664	3278.29
672.855	3169.74
673.046	3239.37
673.237	3272.14
673.428	3268.05
673.619	3220.94
673.809	3186.13
674	3147.22
674.191	3212.75
674.382	3120.59
674.573	3114.45
674.764	3200.46
674.954	3106.26
675.145	3214.8
675.336	3069.39
675.527	3087.82
675.717	3151.31
675.908	3022.29
676.099	3014.1
676.289	3108.3
676.48	3026.39
676.671	3065.3
676.861	3067.35
677.052	2942.42
677.243	3077.59
677.433	3124.69
677.624	3098.06
677.814	3032.53
678.005	2950.61
678.195	3128.78
678.386	2907.6
678.576	3075.54
678.767	2962.9
678.957	2936.28
679.148	2901.46
679.338	2932.18
679.529	2977.23
679.719	2993.62
679.909	2790.87
680.1	2932.18
680.29	2921.94
680.481	2874.84
680.671	2862.55
680.861	2952.66
681.052	3014.1
681.242	2829.78
681.432	2899.41
681.622	2780.63
681.813	2850.26
682.003	2817.49
682.193	2817.49
682.383	2885.08
682.573	2909.65
682.764	2868.69
682.954	2821.59
683.144	2760.15
683.334	2930.13
683.524	2799.06
683.714	2792.92
683.904	2850.26
684.094	2821.59
684.284	2670.04
684.474	2819.54
684.664	2756.05
684.854	2770.39
685.044	2858.45
685.234	2749.91
685.424	2711
685.614	2696.66
685.804	2715.09
685.994	2764.25
686.184	2743.77
686.374	2676.18
686.564	2657.75
686.753	2733.53
686.943	2618.84
687.133	2663.9
687.323	2692.57
687.513	2590.17
687.702	2629.08
687.892	2559.45
688.082	2711
688.272	2698.71
688.461	2657.75
688.651	2649.56
688.841	2541.02
689.03	2532.83
689.22	2557.4
689.41	2547.16
689.599	2467.29
689.789	2473.43
689.979	2457.05
690.168	2541.02
690.358	2481.63
690.547	2409.95
690.737	2440.67
690.926	2368.99
691.116	2485.72
691.305	2399.71
691.495	2377.18
691.684	2340.32
691.874	2244.06
692.063	2328.03
692.252	2373.08
692.442	2424.28
692.631	2309.6
692.82	2254.3
693.01	2280.93
693.199	2242.01
693.388	2244.06
693.578	2264.54
693.767	2287.07
693.956	2180.57
694.146	2248.16
694.335	2244.06
694.524	2252.25
694.713	2166.24
694.902	2272.73
695.092	2180.57
695.281	2162.14
695.47	2182.62
695.659	2256.35
695.848	2147.81
696.037	2055.65
696.226	2131.42
696.415	2145.76
696.604	2072.03
696.793	2084.32
696.982	2158.05
697.171	2190.81
697.36	2018.79
697.549	2047.46
697.738	2018.79
697.927	1977.83
698.116	2041.31
698.305	2082.27
698.494	2026.98
698.683	1963.49
698.872	2059.74
699.061	2088.42
699.25	2006.5
699.438	2057.7
699.627	1971.68
699.816	2051.55
700.005	2008.55
700.193	1957.35
700.382	2033.12
700.571	2026.98
700.76	1951.2
700.948	2008.55
701.137	1908.19
701.326	2141.66
701.514	1957.35
701.703	1979.87
701.892	1900
702.08	2096.61
702.269	1932.77
702.457	2006.5
702.646	1861.09
702.834	1846.76
703.023	1916.39
703.212	1953.25
703.4	1973.73
703.589	1961.44
703.777	1928.67
703.965	1916.39
704.154	1924.58
704.342	1943.01
704.531	1912.29
704.719	1883.62
704.907	1947.11
705.096	1852.9
705.284	1852.9
705.472	1953.25
705.661	1885.67
705.849	1977.83
706.037	1961.44
706.226	1973.73
706.414	1940.96
706.602	1977.83
706.79	1926.63
706.979	1965.54
707.167	1826.28
707.355	1910.24
707.543	1918.43
707.731	1955.3
707.919	1891.81
708.107	1934.82
708.296	1883.62
708.484	1961.44
708.672	1961.44
708.86	1957.35
709.048	1865.19
709.236	1916.39
709.424	1793.51
709.612	2002.4
709.8	1813.99
709.988	1940.96
710.176	1836.52
710.364	1850.85
710.551	1863.14
710.739	1848.8
710.927	1912.29
711.115	1988.07
711.303	1928.67
711.491	1875.43
711.679	1756.65
711.866	1844.71
712.054	1900
712.242	1854.95
712.43	1963.49
712.617	1877.48
712.805	1891.81
712.993	1857
713.181	1879.52
713.368	1940.96
713.556	1861.09
713.744	1811.94
713.931	1981.92
714.119	1785.32
714.306	1949.15
714.494	1924.58
714.682	1883.62
714.869	1879.52
715.057	1891.81
715.244	1789.41
715.432	1883.62
715.619	1910.24
715.807	1879.52
715.994	1889.76
716.182	1877.48
716.369	1730.02
716.556	1883.62
716.744	1861.09
716.931	1863.14
717.119	1848.8
717.306	1979.87
717.493	1908.19
717.681	1912.29
717.868	1766.89
718.055	1916.39
718.242	1879.52
718.43	1897.96
718.617	1881.57
718.804	1863.14
718.991	1891.81
719.179	1902.05
719.366	1852.9
719.553	1983.97
719.74	1967.59
719.927	1932.77
720.114	1902.05
720.301	1885.67
720.488	2039.26
720.676	1857
720.863	1945.06
721.05	1998.31
721.237	1994.21
721.424	1881.57
721.611	1934.82
721.798	1838.56
721.985	1967.59
722.172	1893.86
722.358	1906.15
722.545	1875.43
722.732	1928.67
722.919	2059.74
723.106	1809.89
723.293	1998.31
723.48	1943.01
723.667	1881.57
723.853	1918.43
724.04	1975.78
724.227	1926.63
724.414	1973.73
724.6	1940.96
724.787	1969.63
724.974	2000.35
725.161	1910.24
725.347	1867.24
725.534	1902.05
725.72	2049.5
725.907	1930.72
726.094	1934.82
726.28	1967.59
726.467	1957.35
726.653	1908.19
726.84	2010.59
727.027	1996.26
727.213	2016.74
727.4	2047.46
727.586	1953.25
727.773	2024.93
727.959	1979.87
728.145	1981.92
728.332	1912.29
728.518	1965.54
728.705	2072.03
728.891	1977.83
729.077	2072.03
729.264	2080.22
729.45	2055.65
729.636	1977.83
729.823	2033.12
730.009	2014.69
730.195	1963.49
730.382	1981.92
730.568	1967.59
730.754	2031.07
730.94	1981.92
731.126	2033.12
731.313	2008.55
731.499	2000.35
731.685	2047.46
731.871	2055.65
732.057	2035.17
732.243	2004.45
732.429	1949.15
732.615	2129.38
732.801	2063.84
732.987	1990.11
733.173	1983.97
733.359	2055.65
733.545	2051.55
733.731	2092.51
733.917	2100.7
734.103	2059.74
734.289	1986.02
734.475	2039.26
734.661	2174.43
734.847	1975.78
735.033	2076.13
735.219	2145.76
735.404	2112.99
735.59	2024.93
735.776	1990.11
735.962	2035.17
736.148	2084.32
736.333	1998.31
736.519	2018.79
736.705	2006.5
736.89	2035.17
737.076	2031.07
737.262	1926.63
737.447	1967.59
737.633	1990.11
737.819	2006.5
738.004	2039.26
738.19	1992.16
738.375	1998.31
738.561	2033.12
738.747	1992.16
738.932	1934.82
739.118	2020.83
739.303	2080.22
739.489	2051.55
739.674	2041.31
739.859	1945.06
740.045	1957.35
740.23	1979.87
740.416	1883.62
740.601	2127.33
740.786	1975.78
740.972	1936.87
741.157	1973.73
741.342	2076.13
741.528	1957.35
741.713	1953.25
741.898	1932.77
742.084	1940.96
742.269	2000.35
742.454	1924.58
742.639	1916.39
742.824	1934.82
743.01	1852.9
743.195	1828.32
743.38	1844.71
743.565	2000.35
743.75	1932.77
743.935	1904.1
744.12	1979.87
744.305	1932.77
744.49	1940.96
744.675	1846.76
744.86	1900
745.045	1869.28
745.23	1828.32
745.415	1752.55
745.6	1807.84
745.785	1732.07
745.97	1922.53
746.155	1797.6
746.34	1828.32
746.525	1666.53
746.71	1826.28
746.895	1736.17
747.079	1838.56
747.264	1793.51
747.449	1711.59
747.634	1668.58
747.819	1760.74
748.003	1691.11
748.188	1590.76
748.373	1707.49
748.557	1664.49
748.742	1705.45
748.927	1678.82
749.111	1711.59
749.296	1646.05
749.481	1711.59
749.665	1697.25
749.85	1609.19
750.034	1586.66
750.219	1572.33
750.404	1566.18
750.588	1654.25
750.773	1502.7
750.957	1588.71
751.141	1492.46
751.326	1371.63
751.51	1539.56
751.695	1474.03
751.879	1424.87
752.064	1539.56
752.248	1564.14
752.432	1494.51
752.617	1435.11
752.801	1449.45
752.985	1502.7
753.17	1457.64
753.354	1533.42
753.538	1457.64
753.722	1408.49
753.907	1422.83
754.091	1465.83
754.275	1412.59
754.459	1359.34
754.643	1322.48
754.828	1394.15
755.012	1345
755.196	1451.5
755.38	1349.1
755.564	1209.84
755.748	1345
755.932	1404.39
756.116	1285.61
756.3	1285.61
756.484	1342.96
756.668	1297.9
756.852	1205.74
757.036	1240.56
757.22	1236.46
757.404	1252.84
757.588	1252.84
757.772	1203.69
757.956	1138.16
758.14	1207.79
758.323	1162.73
758.507	1191.41
758.691	1228.27
758.875	1220.08
759.059	1189.36
759.242	1132.01
759.426	1213.93
759.61	1115.63
759.794	1099.25
759.977	1113.58
760.161	1183.21
760.345	1132.01
760.528	1138.16
760.712	1074.67
760.895	1140.21
761.079	1125.87
761.263	1048.05
761.446	1097.2
761.63	1089.01
761.813	1117.68
761.997	1097.2
762.18	1000.94
762.364	1035.76
762.547	937.46
762.731	1086.96
762.914	959.99
763.098	1033.71
763.281	990.7
763.464	935.41
763.648	994.8
763.831	943.6
764.015	998.9
764.198	982.51
764.381	1082.86
764.564	1076.72
764.748	1046
764.931	1080.82
765.114	1039.86
765.297	1011.18
765.481	945.65
765.664	939.51
765.847	933.36
766.03	945.65
766.213	998.9
766.397	1025.52
766.58	935.41
766.763	908.79
766.946	884.21
767.129	880.11
767.312	826.87
767.495	927.22
767.678	865.78
767.861	974.32
768.044	925.17
768.227	902.64
768.41	892.4
768.593	933.36
768.776	878.07
768.959	876.02
769.142	876.02
769.324	921.07
769.507	878.07
769.69	902.64
769.873	814.58
770.056	953.84
770.239	886.26
770.421	902.64
770.604	818.68
770.787	851.44
770.97	800.24
771.152	738.8
771.335	861.68
771.518	777.72
771.7	818.68
771.883	910.83
772.066	755.19
772.248	798.2
772.431	810.48
772.613	828.92
772.796	673.27
772.978	810.48
773.161	810.48
773.343	796.15
773.526	781.81
773.708	679.41
773.891	798.2
774.073	755.19
774.256	742.9
774.438	783.86
774.621	656.89
774.803	634.36
774.985	740.85
775.168	689.65
775.35	650.74
775.532	669.17
775.715	699.89
775.897	660.98
776.079	689.65
776.261	769.52
776.444	720.37
776.626	689.65
776.808	732.66
776.99	630.26
777.173	628.21
777.355	650.74
777.537	607.73
777.719	706.04
777.901	638.45
778.083	611.83
778.265	605.69
778.447	630.26
778.629	636.41
778.811	605.69
778.993	646.65
779.175	636.41
779.357	640.5
779.539	577.02
779.721	638.45
779.903	593.4
780.085	507.38
780.267	527.86
780.449	603.64
780.631	679.41
780.812	622.07
780.994	632.31
781.176	572.92
781.358	540.15
781.54	527.86
781.721	585.21
781.903	517.62
782.085	564.73
782.267	587.26
782.448	466.42
782.63	501.24
782.812	499.19
782.993	550.39
783.175	534.01
783.357	462.33
783.538	544.25
783.72	480.76
783.901	566.78
784.083	458.23
784.264	439.8
784.446	491
784.627	458.23
784.809	470.52
784.99	427.51
785.172	540.15
785.353	353.79
785.535	519.67
785.716	433.66
785.897	433.66
786.079	402.94
786.26	372.22
786.441	458.23
786.623	409.08
786.804	417.27
786.985	400.89
787.167	390.65
787.348	353.79
787.529	374.27
787.71	515.58
787.891	368.12
788.073	462.33
788.254	407.03
788.435	507.38
788.616	386.55
788.797	380.41
788.978	491
789.159	400.89
789.34	388.6
789.522	384.51
789.703	351.74
789.884	429.56
790.065	370.17
790.246	388.6
790.427	411.13
790.607	351.74
790.788	441.85
790.969	370.17
791.15	294.4
791.331	280.06
791.512	345.59
791.693	435.71
791.874	357.88
792.054	376.31
792.235	368.12
792.416	321.02
792.597	357.88
792.778	327.16
792.958	333.31
793.139	314.88
793.32	282.11
793.5	331.26
793.681	347.64
793.862	257.53
794.042	312.83
794.223	282.11
794.404	278.01
794.584	325.12
794.765	228.86
794.945	318.97
795.126	310.78
795.306	298.49
795.487	417.27
795.667	261.63
795.848	253.44
796.028	263.68
796.209	302.59
796.389	310.78
796.57	294.4
796.75	302.59
796.93	228.86
797.111	275.96
797.291	212.48
797.471	290.3
797.652	247.29
797.832	224.76
798.012	304.64
798.192	228.86
798.373	146.94
798.553	278.01
798.733	321.02
798.913	179.71
799.093	245.24
799.274	206.33
799.454	196.09
799.634	257.53
799.814	302.59
799.994	292.35
800.174	185.85
800.354	241.15
800.534	212.48
800.714	329.21
800.894	327.16
801.074	222.72
801.254	204.28
801.434	280.06
801.614	204.28
801.794	263.68
801.974	886.26
802.154	259.58
802.334	273.92
802.514	214.52
802.693	255.48
802.873	58.88
803.053	237.05
803.233	146.94
803.413	247.29
803.592	187.9
803.772	169.47
803.952	235
804.131	171.52
804.311	241.15
804.491	216.57
804.67	282.11
804.85	278.01
805.03	187.9
805.209	179.71
805.389	202.24
805.568	210.43
805.748	163.33
805.928	226.81
806.107	206.33
806.287	239.1
806.466	206.33
806.646	159.23
806.825	146.94
807.004	189.95
807.184	200.19
807.363	226.81
807.543	204.28
807.722	163.33
807.901	175.61
808.081	183.81
808.26	114.17
808.439	181.76
808.619	153.09
808.798	198.14
808.977	194.05
809.156	132.61
809.336	153.09
809.515	241.15
809.694	157.18
809.873	171.52
810.052	171.52
810.231	222.72
810.411	237.05
810.59	179.71
810.769	157.18
810.948	245.24
811.127	181.76
811.306	159.23
811.485	230.91
811.664	179.71
811.843	220.67
812.022	163.33
812.201	179.71
812.38	116.22
812.559	163.33
812.737	224.76
812.916	81.41
813.095	114.17
813.274	210.43
813.453	187.9
813.632	95.74
813.811	194.05
813.989	116.22
814.168	89.6
814.347	171.52
814.526	151.04
814.704	181.76
814.883	181.76
815.062	142.85
815.24	171.52
815.419	138.75
815.598	108.03
815.776	97.79
815.955	146.94
816.133	130.56
816.312	204.28
816.49	101.89
816.669	108.03
816.847	81.41
817.026	200.19
817.204	163.33
817.383	89.6
817.561	73.21
817.74	169.47
817.918	138.75
818.097	140.8
818.275	134.65
818.453	216.57
818.632	142.85
818.81	171.52
818.988	122.37
819.167	114.17
819.345	99.84
819.523	65.02
819.701	192
819.879	198.14
820.058	151.04
820.236	196.09
820.414	179.71
820.592	116.22
820.77	69.12
820.948	99.84
821.127	118.27
821.305	165.37
821.483	118.27
821.661	198.14
821.839	97.79
822.017	56.83
822.195	144.89
822.373	144.89
822.551	105.98
822.729	124.41
822.907	206.33
823.085	159.23
823.262	52.74
823.44	65.02
823.618	81.41
823.796	128.51
823.974	130.56
824.152	132.61
824.329	128.51
824.507	138.75
824.685	148.99
824.863	218.62
825.04	138.75
825.218	159.23
825.396	130.56
825.574	67.07
825.751	114.17
825.929	85.5
826.107	34.3
826.284	159.23
826.462	44.54
826.639	138.75
826.817	120.32
826.994	179.71
827.172	11.78
827.349	60.93
827.527	105.98
827.704	140.8
827.882	124.41
828.059	155.13
828.237	114.17
828.414	89.6
828.591	65.02
828.769	130.56
828.946	77.31
829.124	97.79
829.301	138.75
829.478	114.17
829.655	73.21
829.833	83.45
830.01	56.83
830.187	99.84
830.364	32.26
830.542	167.42
830.719	105.98
830.896	105.98
831.073	108.03
831.25	118.27
831.427	91.65
831.604	48.64
831.782	30.21
831.959	120.32
832.136	77.31
832.313	95.74
832.49	28.16
832.667	83.45
832.844	101.89
833.021	105.98
833.198	81.41
833.374	65.02
833.551	167.42
833.728	28.16
833.905	34.3
834.082	34.3
834.259	110.08
834.436	87.55
834.612	62.98
834.789	73.21
834.966	146.94
835.143	167.42
835.319	40.45
835.496	97.79
835.673	79.36
835.85	75.26
836.026	77.31
836.203	99.84
836.38	24.06
836.556	126.46
836.733	13.82
836.909	142.85
837.086	48.64
837.262	79.36
837.439	89.6
837.616	19.97
837.792	89.6
837.968	73.21
838.145	-51.71
838.321	120.32
838.498	99.84
838.674	75.26
838.851	52.74
839.027	65.02
839.203	24.06
839.38	140.8
839.556	44.54
839.732	52.74
839.909	89.6
840.085	9.73
840.261	-29.18
840.437	19.97
840.614	128.51
840.79	144.89
840.966	60.93
841.142	34.3
841.318	19.97
841.494	36.35
841.671	28.16
841.847	26.11
842.023	71.17
842.199	38.4
842.375	122.37
842.551	101.89
842.727	52.74
842.903	155.13
843.079	-10.75
843.255	126.46
843.431	46.59
843.607	60.93
843.783	-18.94
843.959	69.12
844.134	17.92
844.31	116.22
844.486	-6.66
844.662	22.02
844.838	65.02
845.013	40.45
845.189	95.74
845.365	34.3
845.541	99.84
845.716	44.54
845.892	65.02
846.068	44.54
846.244	81.41
846.419	77.31
846.595	118.27
846.77	7.68
846.946	148.99
847.122	34.3
847.297	95.74
847.473	73.21
847.648	48.64
847.824	28.16
847.999	24.06
848.175	15.87
848.35	19.97
848.526	34.3
848.701	7.68
848.876	52.74
849.052	65.02
849.227	62.98
849.403	17.92
849.578	9.73
849.753	24.06
849.929	7.68
850.104	40.45
850.279	99.84
850.454	110.08
850.63	40.45
850.805	30.21
850.98	60.93
851.155	-0.51
851.33	73.21
851.505	26.11
851.681	44.54
851.856	7.68
852.031	58.88
852.206	65.02
852.381	32.26
852.556	34.3
852.731	-35.33
852.906	-66.05
853.081	46.59
853.256	146.94
853.431	60.93
853.606	-6.66
853.781	32.26
853.956	-72.19
854.131	81.41
854.305	58.88
854.48	19.97
854.655	15.87
854.83	30.21
855.005	77.31
855.18	56.83
855.354	28.16
855.529	-0.51
855.704	26.11
855.879	103.93
856.053	81.41
856.228	71.17
856.403	-10.75
856.577	56.83
856.752	-14.85
856.926	81.41
857.101	28.16
857.276	-57.86
857.45	97.79
857.625	89.6
857.799	40.45
857.974	9.73
858.148	-8.7
858.323	-25.09
858.497	-27.14
858.672	9.73
858.846	-33.28
859.02	97.79
859.195	-0.51
859.369	3.58
859.543	44.54
859.718	60.93
859.892	24.06
860.066	32.26
860.241	65.02
860.415	67.07
860.589	-12.8
860.763	7.68
860.938	-4.61
861.112	-8.7
861.286	-16.9
861.46	-12.8
861.634	9.73
861.808	44.54
861.982	34.3
862.157	-8.7
862.331	-4.61
862.505	26.11
862.679	1.54
862.853	48.64
863.027	48.64
863.201	56.83
863.375	28.16
863.549	105.98
863.722	101.89
863.896	81.41
864.07	32.26
864.244	-20.99
864.418	48.64
864.592	56.83
864.766	56.83
864.939	13.82
865.113	34.3
865.287	67.07
865.461	28.16
865.634	30.21
865.808	-12.8
865.982	73.21
866.156	19.97
866.329	40.45
866.503	77.31
866.676	105.98
866.85	17.92
867.024	-14.85
867.197	75.26
867.371	13.82
867.544	9.73
867.718	34.3
867.891	40.45
868.065	46.59
868.238	65.02
868.412	73.21
868.585	50.69
868.759	73.21
868.932	56.83
869.105	73.21
869.279	28.16
869.452	24.06
869.625	9.73
869.799	67.07
869.972	-27.14
870.145	11.78
870.319	-10.75
870.492	50.69
870.665	15.87
870.838	17.92
871.011	19.97
871.185	11.78
871.358	24.06
871.531	65.02
871.704	24.06
871.877	-10.75
872.05	38.4
872.223	-64
872.396	56.83
872.569	48.64
872.742	-64
872.915	52.74
873.088	-8.7
873.261	13.82
873.434	22.02
873.607	85.5
873.78	34.3
873.953	40.45
874.126	30.21
874.299	9.73
874.471	42.5
874.644	32.26
874.817	81.41
874.99	9.73
875.163	44.54
875.335	46.59
875.508	40.45
875.681	95.74
875.853	-16.9
876.026	11.78
876.199	50.69
876.371	-0.51
876.544	11.78
876.717	40.45
876.889	22.02
877.062	-8.7
877.234	17.92
877.407	67.07
877.579	-4.61
877.752	52.74
877.924	50.69
878.097	15.87
878.269	26.11
878.442	91.65
878.614	34.3
878.786	17.92
878.959	28.16
879.131	7.68
879.303	11.78
879.476	-0.51
879.648	32.26
879.82	11.78
879.993	-16.9
880.165	26.11
880.337	32.26
880.509	7.68
880.681	-23.04
880.854	-14.85
881.026	52.74
881.198	73.21
881.37	32.26
881.542	87.55
881.714	-8.7
881.886	116.22
882.058	-10.75
882.23	34.3
882.402	1.54
882.574	19.97
882.746	11.78
882.918	7.68
883.09	-4.61
883.262	24.06
883.434	5.63
883.606	-33.28
883.778	15.87
883.95	114.17
884.122	38.4
884.293	42.5
884.465	9.73
884.637	77.31
884.809	58.88
884.98	65.02
885.152	48.64
885.324	-2.56
885.496	9.73
885.667	7.68
885.839	26.11
886.011	73.21
886.182	67.07
886.354	-10.75
886.525	11.78
886.697	99.84
886.869	19.97
887.04	73.21
887.212	26.11
887.383	67.07
887.555	32.26
887.726	1.54
887.897	26.11
888.069	32.26
888.24	-12.8
888.412	65.02
888.583	7.68
888.754	32.26
888.926	-86.53
889.097	26.11
889.268	36.35
889.44	-8.7
889.611	40.45
889.782	-41.47
889.953	-35.33
890.125	54.78
890.296	9.73
890.467	17.92
890.638	-14.85
890.809	7.68
890.98	50.69
891.151	-23.04
891.323	58.88
891.494	28.16
891.665	-16.9
891.836	34.3
892.007	-0.51
892.178	50.69
892.349	-61.95
892.52	15.87
892.691	34.3
892.862	-61.95
893.032	-53.76
893.203	7.68
893.374	-25.09
893.545	58.88
893.716	-104.96
893.887	7.68
894.057	-35.33
894.228	36.35
894.399	-16.9
894.57	24.06
894.74	-57.86
894.911	17.92
895.082	-20.99
895.253	101.89
895.423	28.16
895.594	3.58
895.764	-51.71
895.935	-4.61
896.106	7.68
896.276	-6.66
896.447	30.21
896.617	56.83
896.788	24.06
896.958	40.45
897.129	9.73
897.299	19.97
897.47	28.16
897.64	97.79
897.81	50.69
897.981	-23.04
898.151	17.92
898.322	93.69
898.492	-74.24
898.662	15.87
898.832	26.11
899.003	52.74
899.173	56.83
899.343	-25.09
899.513	24.06
