Data from USB4F104151__23__14-42-44-946.txt Node

Date: Thu Mar 13 14:42:44 EDT 2025
User: louis
Spectrometer: USB4F10415
Trigger mode: 4
Integration Time (sec): 2.000000E-2
Scans to average: 1
Electric dark correction enabled: true
Nonlinearity correction enabled: false
Boxcar width: 0
XAxis mode: Wavelengths
Number of Pixels in Spectrum: 3648
>>>>>Begin Spectral Data<<<<<
178.204	-186.37
178.424	-186.37
178.644	-186.37
178.864	-180.22
179.084	-114.69
179.304	-49.15
179.524	-8.19
179.744	24.58
179.964	18.43
180.184	61.44
180.404	-18.43
180.624	-4.1
180.844	-14.34
181.064	34.82
181.283	-30.72
181.503	28.67
181.723	-43.01
181.943	-98.3
182.163	40.96
182.383	-81.92
182.602	-8.19
182.822	22.53
183.042	40.96
183.262	-47.1
183.482	-8.19
183.701	-24.58
183.921	0
184.141	-40.96
184.361	59.39
184.58	55.3
184.8	-40.96
185.02	43.01
185.239	126.97
185.459	43.01
185.679	-22.53
185.898	-14.34
186.118	8.19
186.338	16.38
186.557	2.05
186.777	49.15
186.997	-6.14
187.216	28.67
187.436	34.82
187.655	8.19
187.875	51.2
188.095	-8.19
188.314	20.48
188.534	73.73
188.753	-32.77
188.973	69.63
189.192	49.15
189.412	59.39
189.631	-40.96
189.851	-8.19
190.07	16.38
190.29	57.34
190.509	-16.38
190.729	12.29
190.948	49.15
191.168	147.45
191.387	59.39
191.607	-57.34
191.826	59.39
192.045	18.43
192.265	-71.68
192.484	-22.53
192.704	20.48
192.923	-14.34
193.142	57.34
193.362	20.48
193.581	53.25
193.8	0
194.02	0
194.239	20.48
194.458	16.38
194.678	32.77
194.897	28.67
195.116	40.96
195.335	26.62
195.555	79.87
195.774	20.48
195.993	-36.86
196.212	8.19
196.432	18.43
196.651	59.39
196.87	63.49
197.089	12.29
197.308	14.34
197.528	-36.86
197.747	-32.77
197.966	8.19
198.185	108.54
198.404	-38.91
198.623	106.49
198.842	65.54
199.062	-28.67
199.281	40.96
199.5	-55.3
199.719	-6.14
199.938	-18.43
200.157	12.29
200.376	-100.35
200.595	-63.49
200.814	77.82
201.033	-36.86
201.252	-2.05
201.471	28.67
201.69	-8.19
201.909	-32.77
202.128	-18.43
202.347	-24.58
202.566	-81.92
202.785	40.96
203.004	-71.68
203.223	106.49
203.442	34.82
203.661	-4.1
203.879	-26.62
204.098	24.58
204.317	-83.97
204.536	2.05
204.755	16.38
204.974	16.38
205.193	-14.34
205.411	55.3
205.63	8.19
205.849	10.24
206.068	24.58
206.287	-6.14
206.505	-8.19
206.724	-57.34
206.943	-6.14
207.162	20.48
207.381	34.82
207.599	40.96
207.818	16.38
208.037	-30.72
208.255	-28.67
208.474	-77.82
208.693	26.62
208.911	28.67
209.13	26.62
209.349	73.73
209.567	10.24
209.786	32.77
210.005	-32.77
210.223	-24.58
210.442	-57.34
210.661	59.39
210.879	-30.72
211.098	-32.77
211.316	98.3
211.535	-47.1
211.753	16.38
211.972	106.49
212.191	57.34
212.409	-30.72
212.628	6.14
212.846	-47.1
213.065	18.43
213.283	8.19
213.502	-8.19
213.72	-34.82
213.938	-8.19
214.157	16.38
214.375	18.43
214.594	16.38
214.812	-4.1
215.031	73.73
215.249	20.48
215.467	53.25
215.686	-34.82
215.904	32.77
216.122	2.05
216.341	24.58
216.559	34.82
216.778	16.38
216.996	6.14
217.214	28.67
217.432	-24.58
217.651	-30.72
217.869	-53.25
218.087	-24.58
218.306	51.2
218.524	20.48
218.742	-14.34
218.96	55.3
219.179	-57.34
219.397	67.58
219.615	75.77
219.833	32.77
220.051	-49.15
220.27	18.43
220.488	-26.62
220.706	6.14
220.924	-79.87
221.142	-22.53
221.36	0
221.578	-43.01
221.796	-32.77
222.015	-4.1
222.233	90.11
222.451	49.15
222.669	-73.73
222.887	59.39
223.105	-40.96
223.323	69.63
223.541	-14.34
223.759	20.48
223.977	-22.53
224.195	0
224.413	61.44
224.631	57.34
224.849	-49.15
225.067	98.3
225.285	-65.53
225.503	53.25
225.721	34.82
225.939	116.73
226.157	32.77
226.375	67.58
226.592	59.39
226.81	10.24
227.028	98.3
227.246	57.34
227.464	-8.19
227.682	8.19
227.9	53.25
228.117	4.1
228.335	26.62
228.553	-57.34
228.771	-4.1
228.989	16.38
229.206	73.73
229.424	-8.19
229.642	16.38
229.86	-6.14
230.077	-16.38
230.295	26.62
230.513	47.1
230.731	32.77
230.948	28.67
231.166	-40.96
231.384	28.67
231.601	-63.49
231.819	18.43
232.037	-26.62
232.254	0
232.472	34.82
232.689	16.38
232.907	-4.1
233.125	-16.38
233.342	10.24
233.56	38.91
233.777	20.48
233.995	24.58
234.213	16.38
234.43	8.19
234.648	16.38
234.865	53.25
235.083	49.15
235.3	69.63
235.518	124.93
235.735	32.77
235.953	18.43
236.17	-61.44
236.388	61.44
236.605	47.1
236.822	8.19
237.04	34.82
237.257	40.96
237.475	26.62
237.692	57.34
237.909	28.67
238.127	-32.77
238.344	34.82
238.562	49.15
238.779	-22.53
238.996	16.38
239.214	24.58
239.431	65.54
239.648	-10.24
239.865	61.44
240.083	-16.38
240.3	18.43
240.517	0
240.735	-6.14
240.952	77.82
241.169	30.72
241.386	-26.62
241.603	-69.63
241.821	-71.68
242.038	8.19
242.255	6.14
242.472	-6.14
242.689	36.86
242.907	-57.34
243.124	16.38
243.341	10.24
243.558	-8.19
243.775	40.96
243.992	-36.86
244.209	59.39
244.426	77.82
244.643	49.15
244.86	-16.38
245.078	67.58
245.295	16.38
245.512	36.86
245.729	-57.34
245.946	40.96
246.163	-28.67
246.38	43.01
246.597	2.05
246.814	-32.77
247.031	24.58
247.248	24.58
247.464	16.38
247.681	0
247.898	18.43
248.115	16.38
248.332	-67.58
248.549	43.01
248.766	77.82
248.983	2.05
249.2	8.19
249.417	-55.3
249.633	6.14
249.85	-16.38
250.067	-45.06
250.284	-22.53
250.501	8.19
250.717	24.58
250.934	-40.96
251.151	-8.19
251.368	-32.77
251.585	45.06
251.801	24.58
252.018	-24.58
252.235	32.77
252.451	-40.96
252.668	-96.25
252.885	57.34
253.102	-20.48
253.318	32.77
253.535	-40.96
253.752	67.58
253.968	8.19
254.185	-20.48
254.401	-26.62
254.618	92.16
254.835	36.86
255.051	75.77
255.268	67.58
255.484	8.19
255.701	-26.62
255.917	-20.48
256.134	-6.14
256.351	-65.53
256.567	69.63
256.784	18.43
257	-32.77
257.217	53.25
257.433	32.77
257.65	26.62
257.866	53.25
258.082	-4.1
258.299	-6.14
258.515	-8.19
258.732	28.67
258.948	2.05
259.165	57.34
259.381	-57.34
259.597	26.62
259.814	-4.1
260.03	30.72
260.246	32.77
260.463	2.05
260.679	61.44
260.895	-16.38
261.112	36.86
261.328	0
261.544	0
261.761	81.92
261.977	-28.67
262.193	32.77
262.409	73.73
262.626	40.96
262.842	-10.24
263.058	34.82
263.274	65.54
263.49	-30.72
263.707	-40.96
263.923	0
264.139	-14.34
264.355	28.67
264.571	12.29
264.787	24.58
265.004	2.05
265.22	-24.58
265.436	51.2
265.652	0
265.868	43.01
266.084	-14.34
266.3	-24.58
266.516	-22.53
266.732	18.43
266.948	16.38
267.164	49.15
267.38	67.58
267.596	47.1
267.812	28.67
268.028	43.01
268.244	-65.53
268.46	40.96
268.676	12.29
268.892	-22.53
269.108	-59.39
269.324	-14.34
269.54	18.43
269.756	104.45
269.972	-131.07
270.188	36.86
270.403	-38.91
270.619	-16.38
270.835	6.14
271.051	43.01
271.267	40.96
271.483	10.24
271.698	-4.1
271.914	-14.34
272.13	100.35
272.346	57.34
272.562	-22.53
272.777	59.39
272.993	-12.29
273.209	-22.53
273.425	59.39
273.64	18.43
273.856	55.3
274.072	32.77
274.287	34.82
274.503	67.58
274.719	12.29
274.934	-34.82
275.15	-73.73
275.366	-12.29
275.581	-18.43
275.797	-14.34
276.012	12.29
276.228	34.82
276.444	8.19
276.659	65.54
276.875	0
277.09	4.1
277.306	-8.19
277.521	98.3
277.737	24.58
277.952	45.06
278.168	4.1
278.383	24.58
278.599	-6.14
278.814	51.2
279.03	16.38
279.245	18.43
279.461	79.87
279.676	16.38
279.892	36.86
280.107	20.48
280.322	-36.86
280.538	-10.24
280.753	-4.1
280.969	40.96
281.184	-57.34
281.399	57.34
281.615	-40.96
281.83	-32.77
282.045	86.01
282.26	-8.19
282.476	-57.34
282.691	22.53
282.906	0
283.122	28.67
283.337	49.15
283.552	102.4
283.767	-32.77
283.983	30.72
284.198	8.19
284.413	-30.72
284.628	34.82
284.843	4.1
285.058	12.29
285.274	20.48
285.489	-26.62
285.704	-20.48
285.919	-49.15
286.134	-47.1
286.349	24.58
286.564	51.2
286.779	49.15
286.995	-24.58
287.21	-6.14
287.425	20.48
287.64	24.58
287.855	8.19
288.07	4.1
288.285	2.05
288.5	-16.38
288.715	32.77
288.93	57.34
289.145	-12.29
289.36	8.19
289.575	-90.11
289.79	-4.1
290.004	-24.58
290.219	28.67
290.434	63.49
290.649	-38.91
290.864	18.43
291.079	8.19
291.294	-22.53
291.509	-16.38
291.724	-32.77
291.938	-12.29
292.153	-24.58
292.368	22.53
292.583	-14.34
292.798	12.29
293.012	65.54
293.227	-28.67
293.442	-16.38
293.657	73.73
293.871	73.73
294.086	-14.34
294.301	96.25
294.516	34.82
294.73	53.25
294.945	-20.48
295.16	65.54
295.374	-14.34
295.589	-22.53
295.804	-24.58
296.018	61.44
296.233	49.15
296.447	86.01
296.662	-36.86
296.877	57.34
297.091	43.01
297.306	-32.77
297.52	-12.29
297.735	43.01
297.949	8.19
298.164	59.39
298.378	8.19
298.593	-14.34
298.807	8.19
299.022	30.72
299.236	-14.34
299.451	43.01
299.665	2.05
299.88	-40.96
300.094	77.82
300.309	67.58
300.523	-22.53
300.737	-22.53
300.952	51.2
301.166	114.69
301.381	16.38
301.595	-24.58
301.809	-32.77
302.024	-26.62
302.238	-28.67
302.452	10.24
302.667	40.96
302.881	77.82
303.095	83.97
303.309	28.67
303.524	51.2
303.738	-8.19
303.952	-4.1
304.166	-32.77
304.381	-43.01
304.595	30.72
304.809	-24.58
305.023	-40.96
305.237	61.44
305.452	18.43
305.666	24.58
305.88	-4.1
306.094	73.73
306.308	45.06
306.522	-77.82
306.736	24.58
306.95	-8.19
307.164	-28.67
307.379	-53.25
307.593	120.83
307.807	4.1
308.021	49.15
308.235	-38.91
308.449	-63.49
308.663	0
308.877	75.77
309.091	-28.67
309.305	63.49
309.519	-14.34
309.733	28.67
309.947	0
310.161	83.97
310.374	40.96
310.588	106.49
310.802	-12.29
311.016	8.19
311.23	30.72
311.444	8.19
311.658	-24.58
311.872	24.58
312.085	-22.53
312.299	49.15
312.513	8.19
312.727	79.87
312.941	0
313.154	8.19
313.368	-24.58
313.582	36.86
313.796	-34.82
314.009	18.43
314.223	57.34
314.437	8.19
314.651	10.24
314.864	-30.72
315.078	-12.29
315.292	47.1
315.505	-24.58
315.719	40.96
315.933	-24.58
316.146	65.54
316.36	-20.48
316.573	55.3
316.787	-2.05
317.001	112.64
317.214	65.54
317.428	34.82
317.641	-45.06
317.855	20.48
318.068	-10.24
318.282	57.34
318.495	88.06
318.709	65.54
318.922	-16.38
319.136	18.43
319.349	40.96
319.563	86.01
319.776	30.72
319.99	24.58
320.203	61.44
320.417	-8.19
320.63	81.92
320.843	4.1
321.057	-53.25
321.27	34.82
321.483	-16.38
321.697	45.06
321.91	88.06
322.124	32.77
322.337	10.24
322.55	0
322.763	-57.34
322.977	32.77
323.19	30.72
323.403	59.39
323.617	59.39
323.83	53.25
324.043	67.58
324.256	2.05
324.469	26.62
324.683	40.96
324.896	0
325.109	63.49
325.322	-24.58
325.535	86.01
325.748	26.62
325.962	-28.67
326.175	-24.58
326.388	49.15
326.601	26.62
326.814	-16.38
327.027	-24.58
327.24	40.96
327.453	-40.96
327.666	59.39
327.879	98.3
328.092	98.3
328.305	18.43
328.518	-8.19
328.731	36.86
328.944	-30.72
329.157	26.62
329.37	26.62
329.583	98.3
329.796	18.43
330.009	-28.67
330.222	79.87
330.435	90.11
330.648	90.11
330.861	8.19
331.073	0
331.286	49.15
331.499	8.19
331.712	6.14
331.925	32.77
332.138	12.29
332.35	8.19
332.563	-20.48
332.776	-47.1
332.989	10.24
333.202	18.43
333.414	12.29
333.627	-34.82
333.84	51.2
334.053	98.3
334.265	24.58
334.478	12.29
334.691	51.2
334.903	51.2
335.116	0
335.329	43.01
335.541	81.92
335.754	69.63
335.966	-40.96
336.179	-63.49
336.392	24.58
336.604	75.77
336.817	-8.19
337.029	83.97
337.242	-4.1
337.454	16.38
337.667	6.14
337.88	61.44
338.092	45.06
338.305	49.15
338.517	77.82
338.729	10.24
338.942	106.49
339.154	53.25
339.367	30.72
339.579	20.48
339.792	-73.73
340.004	90.11
340.217	-16.38
340.429	53.25
340.641	67.58
340.854	16.38
341.066	59.39
341.278	18.43
341.491	53.25
341.703	18.43
341.915	-24.58
342.128	47.1
342.34	51.2
342.552	-114.69
342.764	16.38
342.977	98.3
343.189	-16.38
343.401	24.58
343.613	-8.19
343.826	40.96
344.038	-28.67
344.25	83.97
344.462	-57.34
344.674	-6.14
344.886	6.14
345.099	43.01
345.311	32.77
345.523	16.38
345.735	-57.34
345.947	-45.06
346.159	43.01
346.371	30.72
346.583	47.1
346.795	65.54
347.007	36.86
347.219	65.54
347.431	43.01
347.643	79.87
347.855	24.58
348.067	18.43
348.279	22.53
348.491	-12.29
348.703	67.58
348.915	40.96
349.127	-55.3
349.339	-4.1
349.551	-10.24
349.763	92.16
349.975	12.29
350.187	69.63
350.399	79.87
350.61	77.82
350.822	24.58
351.034	59.39
351.246	118.78
351.458	98.3
351.669	61.44
351.881	10.24
352.093	10.24
352.305	16.38
352.517	57.34
352.728	75.77
352.94	2.05
353.152	133.12
353.363	26.62
353.575	94.21
353.787	38.91
353.999	16.38
354.21	40.96
354.422	63.49
354.633	-24.58
354.845	51.2
355.057	18.43
355.268	18.43
355.48	-8.19
355.692	32.77
355.903	2.05
356.115	-59.39
356.326	28.67
356.538	22.53
356.749	28.67
356.961	57.34
357.172	-24.58
357.384	-30.72
357.595	122.88
357.807	40.96
358.018	16.38
358.23	24.58
358.441	104.45
358.653	8.19
358.864	10.24
359.075	12.29
359.287	-32.77
359.498	73.73
359.709	-55.3
359.921	-12.29
360.132	45.06
360.344	0
360.555	16.38
360.766	14.34
360.977	26.62
361.189	-18.43
361.4	-81.92
361.611	61.44
361.823	73.73
362.034	-20.48
362.245	8.19
362.456	40.96
362.667	94.21
362.879	53.25
363.09	24.58
363.301	10.24
363.512	-12.29
363.723	20.48
363.935	-65.53
364.146	49.15
364.357	-24.58
364.568	108.54
364.779	-63.49
364.99	61.44
365.201	-61.44
365.412	57.34
365.623	-36.86
365.834	8.19
366.045	49.15
366.256	61.44
366.467	45.06
366.678	98.3
366.889	26.62
367.1	32.77
367.311	26.62
367.522	2.05
367.733	-32.77
367.944	36.86
368.155	2.05
368.366	63.49
368.577	34.82
368.788	2.05
368.999	-2.05
369.209	32.77
369.42	122.88
369.631	32.77
369.842	98.3
370.053	0
370.264	122.88
370.474	38.91
370.685	0
370.896	16.38
371.107	36.86
371.317	8.19
371.528	28.67
371.739	-28.67
371.95	8.19
372.16	79.87
372.371	-8.19
372.582	-14.34
372.792	0
373.003	34.82
373.214	51.2
373.424	8.19
373.635	26.62
373.846	49.15
374.056	-8.19
374.267	16.38
374.477	-47.1
374.688	34.82
374.898	-32.77
375.109	32.77
375.319	8.19
375.53	-4.1
375.74	81.92
375.951	73.73
376.161	16.38
376.372	49.15
376.582	2.05
376.793	81.92
377.003	-8.19
377.214	71.68
377.424	20.48
377.635	34.82
377.845	67.58
378.055	106.49
378.266	-16.38
378.476	100.35
378.686	32.77
378.897	26.62
379.107	36.86
379.317	34.82
379.528	28.67
379.738	100.35
379.948	90.11
380.158	65.54
380.369	-12.29
380.579	63.49
380.789	96.25
380.999	16.38
381.21	57.34
381.42	102.4
381.63	2.05
381.84	73.73
382.05	-20.48
382.261	24.58
382.471	49.15
382.681	-32.77
382.891	71.68
383.101	43.01
383.311	-16.38
383.521	-47.1
383.731	16.38
383.941	88.06
384.151	26.62
384.361	26.62
384.571	-20.48
384.781	77.82
384.991	45.06
385.201	73.73
385.411	59.39
385.621	-26.62
385.831	-6.14
386.041	8.19
386.251	49.15
386.461	59.39
386.671	45.06
386.881	-38.91
387.091	24.58
387.301	57.34
387.511	0
387.72	51.2
387.93	26.62
388.14	-30.72
388.35	61.44
388.56	40.96
388.769	59.39
388.979	-2.05
389.189	12.29
389.399	32.77
389.609	49.15
389.818	26.62
390.028	6.14
390.238	16.38
390.447	-55.3
390.657	24.58
390.867	-6.14
391.076	69.63
391.286	51.2
391.496	-32.77
391.705	61.44
391.915	18.43
392.125	24.58
392.334	16.38
392.544	59.39
392.753	10.24
392.963	-2.05
393.172	-20.48
393.382	24.58
393.591	110.59
393.801	-6.14
394.01	81.92
394.22	24.58
394.429	-32.77
394.639	51.2
394.848	38.91
395.058	-47.1
395.267	34.82
395.477	65.54
395.686	18.43
395.895	51.2
396.105	65.54
396.314	38.91
396.524	69.63
396.733	-16.38
396.942	126.97
397.152	36.86
397.361	53.25
397.57	67.58
397.78	116.73
397.989	71.68
398.198	6.14
398.407	51.2
398.617	75.77
398.826	100.35
399.035	32.77
399.244	28.67
399.453	75.77
399.663	86.01
399.872	75.77
400.081	83.97
400.29	114.69
400.499	4.1
400.708	51.2
400.917	61.44
401.127	57.34
401.336	53.25
401.545	81.92
401.754	81.92
401.963	67.58
402.172	45.06
402.381	116.73
402.59	65.54
402.799	18.43
403.008	102.4
403.217	102.4
403.426	143.36
403.635	102.4
403.844	69.63
404.053	57.34
404.262	124.93
404.471	77.82
404.68	104.45
404.888	61.44
405.097	120.83
405.306	102.4
405.515	124.93
405.724	131.07
405.933	92.16
406.142	43.01
406.35	159.74
406.559	147.45
406.768	165.89
406.977	180.22
407.185	198.65
407.394	114.69
407.603	112.64
407.812	77.82
408.02	200.7
408.229	225.28
408.438	151.55
408.646	133.12
408.855	208.89
409.064	206.84
409.272	131.07
409.481	225.28
409.69	245.76
409.898	188.41
410.107	229.37
410.315	196.61
410.524	182.27
410.733	210.94
410.941	206.84
411.15	294.91
411.358	253.95
411.567	258.04
411.775	266.24
411.984	245.76
412.192	239.61
412.401	253.95
412.609	352.25
412.818	368.63
413.026	313.34
413.234	305.15
413.443	305.15
413.651	344.06
413.86	372.73
414.068	417.79
414.276	471.03
414.485	372.73
414.693	516.09
414.901	464.89
415.11	475.13
415.318	489.46
415.526	462.84
415.734	598.01
415.943	573.43
416.151	610.29
416.359	641.01
416.567	641.01
416.776	583.67
416.984	698.36
417.192	669.69
417.4	745.46
417.608	710.65
417.817	794.61
418.025	761.84
418.233	808.95
418.441	743.41
418.649	714.74
418.857	860.15
419.065	931.83
419.273	884.72
419.481	962.55
419.689	1028.08
419.897	1011.7
420.105	1003.5
420.313	1040.37
420.521	1120.24
420.729	1124.33
420.937	1198.06
421.145	1181.68
421.353	1271.79
421.561	1255.4
421.769	1425.39
421.977	1374.19
422.185	1384.43
422.393	1482.73
422.601	1546.22
422.809	1542.12
423.017	1490.92
423.224	1746.92
423.432	1798.12
423.64	1658.85
423.848	1871.84
424.056	1810.4
424.263	2021.35
424.471	1966.05
424.679	2045.92
424.887	2086.88
425.094	2097.12
425.302	2088.93
425.51	2203.61
425.718	2310.11
425.925	2314.2
426.133	2408.41
426.341	2605.02
426.548	2789.33
426.756	2641.88
426.964	2813.91
427.171	2836.44
427.379	3004.37
427.586	3022.8
427.794	3008.47
428.001	3217.36
428.209	3309.52
428.417	3444.68
428.624	3583.95
428.832	3518.41
429.039	3604.43
429.247	3647.43
429.454	3891.14
429.662	4112.32
429.869	3870.66
430.076	4110.27
430.284	3899.33
430.491	4267.97
430.699	4415.42
430.906	4456.38
431.114	4523.96
431.321	4581.31
431.528	4761.53
431.736	5050.29
431.943	5324.72
432.15	5128.11
432.358	5185.46
432.565	5570.48
432.772	5412.78
432.979	5838.76
433.187	5691.31
433.394	5932.97
433.601	6307.74
433.808	6121.38
434.016	6021.03
434.223	6512.54
434.43	6700.95
434.637	6883.22
434.844	7118.74
435.052	7325.58
435.259	7317.39
435.466	7397.26
435.673	7147.41
435.88	7796.62
436.087	8021.89
436.294	8050.57
436.501	7946.12
436.708	8322.94
436.915	8277.89
437.122	8763.26
437.329	8675.2
437.537	9066.36
437.743	8933.24
437.95	8863.61
438.157	9570.16
438.364	9877.35
438.571	9852.78
438.778	9895.78
438.985	10846.04
439.192	10358.63
439.399	10508.13
439.606	10485.6
439.813	11042.65
440.02	11841.36
440.227	11597.65
440.433	11308.88
440.64	11736.91
440.847	11638.61
441.054	11771.72
441.261	12713.79
441.467	12654.4
441.674	12871.48
441.881	13348.66
442.088	13395.76
442.294	13336.37
442.501	13477.68
442.708	13850.41
442.914	14413.6
443.121	15050.52
443.328	14264.1
443.534	15474.45
443.741	14937.88
443.948	14722.85
444.154	16043.79
444.361	15902.48
444.568	16039.69
444.774	16144.14
444.981	15861.52
445.187	16748.29
445.394	17403.64
445.6	17207.03
445.807	18783.97
446.013	17981.17
446.22	18163.43
446.426	19201.76
446.633	19177.18
446.839	19752.66
447.046	18956
447.252	20154.06
447.459	19988.17
447.665	20000.46
447.871	21038.78
448.078	22054.58
448.284	20819.65
448.491	21735.09
448.697	22265.52
448.903	22687.4
449.11	22714.02
449.316	22183.6
449.522	22900.39
449.728	23576.22
449.935	23660.18
450.141	23662.23
450.347	23848.6
450.553	23312.03
450.76	23537.3
450.966	24514.19
451.172	24151.7
451.378	24905.35
451.584	24628.87
451.791	25187.97
451.997	24700.55
452.203	25239.17
452.409	25460.35
452.615	25251.45
452.821	24407.69
453.027	24399.5
453.233	25568.89
453.44	24225.42
453.646	24848
453.852	24614.54
454.058	25405.05
454.264	24407.69
454.47	25048.71
454.676	24034.96
454.882	25042.56
455.088	22912.67
455.294	23334.56
455.5	23508.63
455.705	24026.77
455.911	22843.04
456.117	22165.17
456.323	22238.89
456.529	21065.41
456.735	21759.67
456.941	21634.74
457.147	21053.12
457.352	20307.66
457.558	20481.74
457.764	20430.54
457.97	20012.75
458.176	19363.54
458.381	19822.29
458.587	18591.46
458.793	18591.46
458.999	17487.61
459.204	19154.65
459.41	18464.49
459.616	17297.14
459.821	17231.61
460.027	17346.3
460.233	16793.34
460.438	15982.35
460.644	16217.86
460.85	15548.18
461.055	15228.7
461.261	15245.08
461.466	14120.74
461.672	13528.88
461.878	14565.15
462.083	13780.78
462.289	13369.14
462.494	13305.65
462.7	12756.8
462.905	12334.92
463.111	12883.77
463.316	12932.92
463.522	12355.4
463.727	12709.69
463.932	12470.08
464.138	12341.06
464.343	12386.11
464.549	12099.4
464.754	12486.47
464.959	12302.15
465.165	12035.91
465.37	11833.16
465.575	11550.54
465.781	11935.56
465.986	11951.95
466.191	11743.05
466.397	11312.98
466.602	10854.23
466.807	11050.84
467.012	11362.13
467.218	10993.5
467.423	10930.01
467.628	11009.88
467.833	11568.98
468.038	11126.61
468.244	10719.07
468.449	11243.35
468.654	10674.01
468.859	10995.54
469.064	10835.8
469.269	10293.09
469.474	10487.65
469.679	10520.42
469.885	10235.75
470.09	10415.97
470.295	10399.59
470.5	10164.07
470.705	10254.18
470.91	10121.06
471.115	9869.16
471.32	10039.14
471.525	9955.18
471.73	9891.69
471.935	9742.19
472.139	9457.52
472.344	9496.43
472.549	9469.81
472.754	9193.33
472.959	9187.19
473.164	8925.05
473.369	8841.08
473.574	9035.64
473.778	8916.86
473.983	8939.38
474.188	9025.4
474.393	8535.93
474.598	8800.12
474.802	8544.13
475.007	8456.06
475.212	8478.59
475.417	8150.92
475.621	8136.58
475.826	8284.03
476.031	7956.36
476.235	8075.14
476.44	7974.79
476.645	7931.78
476.849	7864.2
477.054	7767.95
477.259	7618.44
477.463	7677.83
477.668	7407.5
477.872	7653.26
478.077	7364.5
478.282	7241.62
478.486	7339.92
478.691	7085.97
478.895	7180.18
479.1	7063.44
479.304	7008.15
479.509	6909.85
479.713	7094.16
479.918	6897.56
480.122	6762.39
480.326	6797.21
480.531	6971.29
480.735	6836.12
480.94	6750.1
481.144	6930.33
481.348	6522.78
481.553	6817.69
481.757	6729.63
481.961	6799.26
482.166	6772.63
482.37	6741.91
482.574	6492.06
482.778	6526.88
482.983	6717.34
483.187	6637.47
483.391	6584.22
483.595	6545.31
483.8	6377.37
484.004	6610.84
484.208	6705.05
484.412	6600.6
484.616	6606.75
484.821	6569.88
485.025	6522.78
485.229	6541.21
485.433	6621.08
485.637	6457.25
485.841	6571.93
486.045	6649.75
486.249	6569.88
486.453	6483.87
486.657	6571.93
486.861	6514.59
487.065	6322.08
487.269	6606.75
487.473	6483.87
487.677	6598.56
487.881	6598.56
488.085	6567.84
488.289	6670.23
488.493	6463.39
488.697	6739.87
488.901	6557.6
489.105	6692.76
489.309	6631.32
489.512	6877.08
489.716	6598.56
489.92	6637.47
490.124	6541.21
490.328	6864.79
490.531	6698.91
490.735	6815.64
490.939	6725.53
491.143	6729.63
491.346	6795.16
491.55	6907.8
491.754	6846.36
491.958	6969.24
492.161	6932.37
492.365	6977.43
492.569	6999.96
492.772	6797.21
492.976	7008.15
493.18	7102.36
493.383	7208.85
493.587	7227.28
493.79	7405.45
493.994	7221.14
494.197	7298.96
494.401	7266.19
494.605	7188.37
494.808	7544.72
495.012	7522.19
495.215	7647.12
495.419	7581.58
495.622	7587.72
495.825	7659.4
496.029	7765.9
496.232	7749.51
496.436	7790.47
496.639	7860.1
496.843	7995.27
497.046	8130.44
497.249	8343.42
497.453	8181.64
497.656	8470.4
497.859	8449.92
498.063	8521.6
498.266	8503.17
498.469	8585.08
498.673	8675.2
498.876	9105.27
499.079	9144.18
499.282	9133.94
499.485	9166.71
499.689	9404.27
499.892	9226.1
500.095	9471.86
500.298	9723.76
500.501	9342.83
500.705	9895.78
500.908	9787.24
501.111	9955.18
501.314	9971.56
501.517	10164.07
501.72	10477.41
501.923	10241.89
502.126	10649.44
502.329	10710.88
502.532	10944.34
502.735	10819.42
502.938	11153.24
503.141	11110.23
503.344	11126.61
503.547	11282.26
503.75	11497.3
503.953	11773.77
504.156	11624.27
504.359	11853.64
504.562	11986.76
504.765	12302.15
504.968	12379.97
505.17	12410.69
505.373	12351.3
505.576	12648.25
505.779	12816.19
505.982	13059.9
506.185	13199.16
506.387	13227.83
506.59	13518.64
506.793	13651.76
506.996	13432.63
507.198	13942.57
507.401	13823.79
507.604	14073.64
507.807	14524.19
508.009	14440.23
508.212	14606.11
508.415	14675.74
508.617	14888.73
508.82	15085.34
509.022	15181.59
509.225	15533.84
509.428	15494.93
509.63	15769.36
509.833	15906.57
510.035	16285.45
510.238	15943.44
510.44	16408.33
510.643	16387.85
510.845	16441.09
511.048	16639.75
511.25	17000.19
511.453	17284.86
511.655	17624.82
511.858	17331.96
512.06	17690.35
512.262	17948.4
512.465	17934.06
512.667	18040.56
512.87	18310.89
513.072	18450.15
513.274	18937.57
513.477	18781.92
513.679	19119.84
513.881	19435.22
514.084	19525.33
514.286	19459.8
514.488	19646.16
514.69	19971.79
514.893	20088.53
515.095	20229.84
515.297	20723.4
515.499	20913.86
515.701	20868.8
515.904	20960.96
516.106	21446.33
516.308	21683.89
516.51	21753.52
516.712	21405.37
516.914	22105.77
517.116	22304.43
517.318	22202.03
517.52	22507.18
517.722	22720.17
517.925	22810.28
518.127	23340.7
518.329	23408.28
518.531	23348.89
518.733	23869.08
518.935	24012.43
519.136	24077.97
519.338	24589.96
519.54	24616.58
519.742	24561.29
519.944	24768.13
520.146	25443.96
520.348	25263.74
520.55	25579.13
520.752	25460.35
520.954	26125.94
521.155	26138.23
521.357	26201.71
521.559	26558.06
521.761	26973.8
521.963	26900.07
522.164	27082.34
522.366	27256.42
522.568	27553.37
522.77	27303.52
522.971	27835.99
523.173	27928.15
523.375	28048.98
523.576	27967.06
523.778	28456.53
523.98	28390.99
524.181	28724.81
524.383	28718.67
524.584	28804.68
524.786	29167.17
524.988	29062.72
525.189	29482.56
525.391	29355.58
525.592	29605.44
525.794	29638.2
525.995	29820.47
526.197	29797.95
526.398	29982.26
526.6	30271.03
526.801	30535.21
527.003	30625.32
527.204	30715.44
527.406	30848.55
527.607	30830.12
527.808	31059.49
528.01	30793.26
528.211	30983.72
528.412	31122.98
528.614	31307.3
528.815	31313.44
529.016	32126.49
529.218	31274.53
529.419	31802.91
529.62	31845.91
529.822	31213.09
530.023	31645.21
530.224	31757.85
530.425	31876.63
530.626	31639.07
530.828	31391.26
531.029	32362
531.23	31927.83
531.431	31933.98
531.632	32122.39
531.833	32216.6
532.035	32237.08
532.236	32374.29
532.437	32220.69
532.638	31976.98
532.839	32251.41
533.04	32464.4
533.241	31954.46
533.442	32878.09
533.643	32476.69
533.844	32122.39
534.045	32396.82
534.246	32079.38
534.447	32511.5
534.648	32439.83
534.849	32228.88
535.05	32405.01
535.251	32583.18
535.451	32624.14
535.652	32611.85
535.853	32468.5
536.054	32507.41
536.255	32577.04
536.456	32284.18
536.657	32882.19
536.857	32445.97
537.058	32603.66
537.259	32335.38
537.46	32757.26
537.66	32519.7
537.861	32689.68
538.062	32411.15
538.263	32486.93
538.463	32439.83
538.664	32318.99
538.865	32673.29
539.065	32667.15
539.266	32271.89
539.466	32656.91
539.667	32269.84
539.868	32755.21
540.068	32267.8
540.269	32642.57
540.469	32837.13
540.67	32392.72
540.87	32466.45
541.071	32650.77
541.271	32273.94
541.472	32380.43
541.672	32669.2
541.873	32503.31
542.073	32007.7
542.274	32949.77
542.474	32411.15
542.675	32368.15
542.875	32525.84
543.075	32437.78
543.276	32058.9
543.476	32462.35
543.676	32081.43
543.877	32034.33
544.077	32372.24
544.277	32421.39
544.478	32171.54
544.678	32480.78
544.878	32566.8
545.078	32753.16
545.279	32247.32
545.479	32235.03
545.679	32140.82
545.879	32347.67
546.079	32065.05
546.28	32003.61
546.48	32058.9
546.68	32495.12
546.88	32204.31
547.08	32347.67
547.28	32161.3
547.48	31858.2
547.68	32157.21
547.88	31870.49
548.081	32359.95
548.281	32075.29
548.481	31700.51
548.681	32337.43
548.881	32329.23
549.081	31991.32
549.28	32017.94
549.48	32298.52
549.68	32114.2
549.88	32624.14
550.08	31843.87
550.28	32198.16
550.48	32087.57
550.68	32161.3
550.88	31948.31
551.08	31589.92
551.279	32120.34
551.479	31446.56
551.679	31888.92
551.879	31952.41
552.079	32046.62
552.278	31866.39
552.478	32251.41
552.678	32013.85
552.878	31972.89
553.077	31759.9
553.277	31475.23
553.477	32208.4
553.676	31790.62
553.876	31735.32
554.076	31536.67
554.275	31436.32
554.475	31286.82
554.674	31522.33
554.874	31743.52
555.074	31348.26
555.273	31489.57
555.473	31481.38
555.672	31387.17
555.872	31450.66
556.071	31229.48
556.271	31514.14
556.47	31385.12
556.67	30983.72
556.869	31426.08
557.068	31364.64
557.268	31151.65
557.467	31475.23
557.667	31182.37
557.866	31319.59
558.065	31249.96
558.265	30803.5
558.464	30623.28
558.663	31157.8
558.863	30737.96
559.062	31129.12
559.261	31014.44
559.461	31194.66
559.66	30776.87
559.859	30750.25
560.058	30703.15
560.258	31102.5
560.457	30348.85
560.656	30887.46
560.855	30434.86
561.054	30621.23
561.253	30322.23
561.453	30608.94
561.652	30512.69
561.851	30475.82
562.05	30400.05
562.249	30193.2
562.448	30336.56
562.647	30318.13
562.846	29902.39
563.045	30154.29
563.244	29890.1
563.443	30234.16
563.642	29574.72
563.841	30182.96
564.04	29873.72
564.239	29929.02
564.438	29982.26
564.637	30033.46
564.836	29673.02
565.035	29421.12
565.234	29793.85
565.432	29414.98
565.631	29474.37
565.83	29576.76
566.029	29265.47
566.228	28948.04
566.427	28825.16
566.625	29204.03
566.824	28833.35
567.023	28980.81
567.222	28665.42
567.42	29081.16
567.619	28999.24
567.818	28698.19
568.016	28630.6
568.215	28905.03
568.414	28556.88
568.612	29009.48
568.811	28692.04
569.01	28382.8
569.208	28216.91
569.407	28405.33
569.605	28298.83
569.804	28411.47
570.002	28005.97
570.201	28296.78
570.4	27848.28
570.598	28186.19
570.797	27776.6
570.995	28014.16
571.193	27696.73
571.392	27795.03
571.59	27680.35
571.789	27905.62
571.987	27438.69
572.186	27473.5
572.384	27287.14
572.582	27504.22
572.781	27465.31
572.979	27164.26
573.177	27254.37
573.376	27025
573.574	26840.68
573.772	27137.63
573.971	27307.62
574.169	26705.51
574.367	26205.81
574.565	26590.83
574.763	26664.55
574.962	26605.16
575.16	26158.7
575.358	26629.74
575.556	26244.72
575.754	26549.87
575.952	25792.12
576.151	26148.47
576.349	25988.72
576.547	26162.8
576.745	26076.79
576.943	26084.98
577.141	25816.69
577.339	26115.7
577.537	25396.86
577.735	25431.68
577.933	25917.04
578.131	25546.36
578.329	25691.77
578.527	25239.17
578.725	25263.74
578.923	25484.92
579.121	25161.34
579.319	25161.34
579.516	24991.36
579.714	24966.79
579.912	24641.16
580.11	25159.3
580.308	24759.94
580.506	24784.52
580.704	24440.46
580.901	24692.36
581.099	24995.46
581.297	24530.57
581.495	24209.04
581.692	24501.9
581.89	24233.61
582.088	24675.98
582.285	23950.99
582.483	24192.65
582.681	24116.88
582.878	23953.04
583.076	23920.27
583.274	24024.72
583.471	23776.92
583.669	24039.06
583.866	23651.99
584.064	23682.71
584.262	23234.21
584.459	23871.12
584.657	23258.78
584.854	23789.2
585.052	22931.11
585.249	22959.78
585.447	23230.11
585.644	23334.56
585.841	23105.18
586.039	23242.4
586.236	22552.23
586.434	23002.78
586.631	22750.88
586.828	22767.27
587.026	22537.9
587.223	22662.82
587.42	22490.79
587.618	22544.04
587.815	22271.66
588.012	22433.45
588.21	22216.36
588.407	22515.37
588.604	22290.09
588.801	22019.76
588.999	22189.74
589.196	21825.2
589.393	21812.92
589.59	21749.43
589.787	21757.62
589.984	21663.41
590.182	21558.97
590.379	21683.89
590.576	21415.61
590.773	21448.38
590.97	21235.39
591.167	21376.7
591.364	21212.86
591.561	21130.94
591.758	21300.92
591.955	21204.67
592.152	21309.11
592.349	20809.41
592.546	21073.6
592.743	21137.09
592.94	20643.52
593.137	20694.72
593.334	20922.05
593.531	20471.5
593.727	20711.11
593.924	20563.65
594.121	20471.5
594.318	20586.18
594.515	20131.53
594.712	20405.96
594.908	20555.46
595.105	20233.93
595.302	20164.3
595.499	20223.69
595.696	20088.53
595.892	19965.65
596.089	19945.17
596.286	19990.22
596.482	19746.51
596.679	19832.53
596.876	19793.62
597.072	19558.1
597.269	19726.03
597.466	19543.77
597.662	19361.5
597.859	19263.19
598.055	19252.95
598.252	19324.63
598.448	19150.56
598.645	19085.02
598.841	19089.12
599.038	19027.68
599.234	18929.38
599.431	18892.51
599.627	18702.05
599.824	19095.26
600.02	18804.45
600.217	18669.28
600.413	18702.05
600.609	18581.22
600.806	18370.28
601.002	18579.17
601.198	18413.29
601.395	18128.62
601.591	18341.61
601.787	18192.11
601.984	18325.22
602.18	18337.51
602.376	18071.28
602.572	18032.36
602.769	18231.02
602.965	17927.92
603.161	17735.41
603.357	17688.31
603.553	17604.34
603.75	17723.12
603.946	17293.05
604.142	17364.73
604.338	17188.6
604.534	17667.83
604.73	17258.23
604.926	17342.2
605.122	17291
605.318	17319.67
605.514	17088.25
605.71	17243.9
605.906	17350.39
606.102	17121.02
606.298	17176.31
606.494	16871.17
606.69	17014.52
606.886	16920.32
607.082	16443.14
607.278	17053.44
607.474	16744.19
607.67	16809.73
607.866	16578.31
608.062	16668.42
608.257	16733.95
608.453	16414.47
608.649	16330.5
608.845	16404.23
609.041	16465.67
609.236	16582.4
609.432	16426.76
609.628	16510.72
609.824	16154.38
610.019	16256.78
610.215	16396.04
610.411	16504.58
610.606	16256.78
610.802	16203.53
610.998	16041.74
611.193	15970.06
611.389	15902.48
611.584	15869.71
611.78	15642.39
611.976	15720.21
612.171	15828.75
612.367	15724.3
612.562	15695.63
612.758	15537.94
612.953	15826.7
613.149	15453.97
613.344	15697.68
613.539	15941.39
613.735	15376.15
613.93	15675.15
614.126	15245.08
614.321	15355.67
614.517	15628.05
614.712	15355.67
614.907	15374.1
615.103	15206.17
615.298	15421.2
615.493	15423.25
615.688	15003.42
615.884	15456.02
616.079	14821.15
616.274	15114.01
616.47	15027.99
616.665	15253.27
616.86	15091.48
617.055	14917.4
617.25	14962.46
617.445	14847.77
617.641	14704.42
617.836	15044.38
618.031	14761.76
618.226	14784.29
618.421	14722.85
618.616	14735.14
618.811	14503.71
619.006	14710.56
619.201	14313.25
619.396	14614.31
619.591	14200.62
619.786	14442.28
619.981	14229.29
620.176	14149.42
620.371	13999.91
620.566	14159.66
620.761	13870.89
620.956	14018.35
621.151	14327.59
621.346	13944.62
621.541	13739.82
621.735	13719.34
621.93	13784.88
622.125	13578.03
622.32	13416.24
622.515	13487.92
622.709	13379.38
622.904	13258.55
623.099	13139.77
623.294	13408.05
623.488	13016.89
623.683	13223.73
623.878	12969.79
624.072	13002.55
624.267	12762.94
624.462	12828.48
624.656	12584.77
624.851	12484.42
625.046	12771.13
625.24	12447.55
625.435	12459.84
625.629	12359.49
625.824	12345.16
626.018	12216.13
626.213	11923.27
626.407	12189.51
626.602	11876.17
626.796	12250.95
626.991	12019.53
627.185	11843.4
627.38	11626.32
627.574	11632.46
627.768	11657.04
627.963	11611.98
628.157	11315.03
628.352	11765.58
628.546	11364.18
628.74	11478.86
628.935	11163.48
629.129	10923.87
629.323	11243.35
629.517	11122.52
629.712	11163.48
629.906	11024.22
630.1	10989.4
630.294	11026.26
630.489	10561.37
630.683	10817.37
630.877	10690.4
631.071	10651.49
631.265	10641.25
631.459	10495.84
631.653	10383.2
631.848	10456.93
632.042	10438.5
632.236	10522.46
632.43	10360.67
632.624	10303.33
632.818	10217.32
633.012	9936.74
633.206	9850.73
633.4	10078.05
633.594	9949.03
633.788	9981.8
633.982	9887.59
634.176	9895.78
634.369	9625.45
634.563	9613.17
634.757	9637.74
634.951	9645.93
635.145	9539.44
635.339	9553.77
635.533	9285.49
635.726	9537.39
635.92	9275.25
636.114	9105.27
636.308	9097.08
636.501	9363.31
636.695	9166.71
636.889	9002.87
637.083	8920.95
637.276	9058.17
637.47	9004.92
637.664	8656.76
637.857	8808.31
638.051	8929.14
638.244	8759.16
638.438	8615.8
638.632	8517.5
638.825	8568.7
639.019	8482.69
639.212	8413.06
639.406	8511.36
639.599	8576.89
639.793	8466.3
639.986	8216.45
640.18	8396.67
640.373	8277.89
640.567	8062.85
640.76	8171.4
640.954	8093.57
641.147	7987.08
641.34	8060.81
641.534	8011.65
641.727	7944.07
641.92	7749.51
642.114	7808.9
642.307	7882.63
642.5	7806.86
642.694	7516.05
642.887	7438.22
643.08	7755.66
643.273	7548.81
643.467	7628.68
643.66	7542.67
643.853	7544.72
644.046	7450.51
644.239	7493.52
644.432	7258
644.626	7317.39
644.819	7341.97
645.012	7264.15
645.205	7022.48
645.398	7137.17
645.591	7176.08
645.784	7126.93
645.977	7053.2
646.17	7061.4
646.363	6987.67
646.556	6946.71
646.749	6782.87
646.942	6860.7
647.135	6782.87
647.328	6854.55
647.521	6653.85
647.714	6721.43
647.907	6668.19
648.099	6520.73
648.292	6727.58
648.485	6672.28
648.678	6528.92
648.871	6557.6
649.064	6530.97
649.256	6350.75
649.449	6309.79
649.642	6375.33
649.835	6371.23
650.027	6336.42
650.22	6424.48
650.413	6277.02
650.605	6211.49
650.798	6234.02
650.991	6104.99
651.183	6158.24
651.376	5949.35
651.568	6113.19
651.761	6004.64
651.954	6080.42
652.146	5818.28
652.339	5844.9
652.531	5808.04
652.724	5994.4
652.916	5756.84
653.109	5783.46
653.301	5715.88
653.494	5707.69
653.686	5533.61
653.879	5597.1
654.071	5621.67
654.263	5367.73
654.456	5449.64
654.648	5595.05
654.84	5476.27
655.033	5443.5
655.225	5318.57
655.417	5363.63
655.61	5441.45
655.802	5439.4
655.994	5267.38
656.186	5128.11
656.379	5146.55
656.571	5296.05
656.763	5164.98
656.955	5095.35
657.148	5124.02
657.34	5087.15
657.532	4988.85
657.724	4997.04
657.916	4988.85
658.108	5040.05
658.3	4833.21
658.492	4771.77
658.684	4925.36
658.876	4900.79
659.068	4816.82
659.26	4603.83
659.452	4775.86
659.644	4646.84
659.836	4784.06
660.028	4736.95
660.22	4628.41
660.412	4564.92
660.604	4609.98
660.796	4655.03
660.988	4595.64
661.18	4534.2
661.372	4507.58
661.563	4489.15
661.755	4358.08
661.947	4478.91
662.139	4415.42
662.331	4396.99
662.522	4343.74
662.714	4317.12
662.906	4263.87
663.097	4235.2
663.289	4204.48
663.481	4333.5
663.673	4259.78
663.864	4208.58
664.056	4130.75
664.247	4091.84
664.439	4153.28
664.631	4079.55
664.822	4067.27
665.014	4054.98
665.205	4005.83
665.397	3964.87
665.588	3934.15
665.78	4034.5
665.971	3956.68
666.163	3944.39
666.354	3923.91
666.546	3956.68
666.737	3723.21
666.929	3784.65
667.12	3719.11
667.311	3764.17
667.503	3866.57
667.694	3729.35
667.885	3665.86
668.077	3715.02
668.268	3702.73
668.459	3735.49
668.651	3733.45
668.842	3663.82
669.033	3649.48
669.224	3579.85
669.416	3522.51
669.607	3436.49
669.798	3506.12
669.989	3614.66
670.18	3416.01
670.371	3624.9
670.563	3305.42
670.754	3479.5
670.945	3461.07
671.136	3448.78
671.327	3424.2
671.518	3311.57
671.709	3518.41
671.9	3416.01
672.091	3538.89
672.282	3311.57
672.473	3311.57
672.664	3190.74
672.855	3317.71
673.046	3366.86
673.237	3317.71
673.428	3354.57
673.619	3260.37
673.809	3301.33
674	3147.73
674.191	3309.52
674.382	3323.85
674.573	3221.45
674.764	3223.5
674.954	3272.65
675.145	3071.95
675.336	3219.41
675.527	3051.47
675.717	3174.35
675.908	2983.89
676.099	3137.49
676.289	2990.03
676.48	3100.62
676.671	3059.67
676.861	3100.62
677.052	3030.99
677.243	3084.24
677.433	2924.5
677.624	2981.84
677.814	3074
678.005	3121.1
678.195	2891.73
678.386	2961.36
678.576	2875.35
678.767	2838.48
678.957	2932.69
679.148	2904.02
679.338	3018.71
679.529	3002.32
679.719	2850.77
679.909	2963.41
680.1	2826.2
680.29	2924.5
680.481	2879.44
680.671	2926.55
680.861	2834.39
681.052	2826.2
681.242	2856.92
681.432	2877.4
681.622	2822.1
681.813	2727.89
682.003	2863.06
682.193	2807.77
682.383	2834.39
682.573	2797.53
682.764	2760.66
682.954	2768.85
683.144	2803.67
683.334	2756.57
683.524	2760.66
683.714	2803.67
683.904	2727.89
684.094	2762.71
684.284	2736.09
684.474	2680.79
684.664	2889.68
684.854	2680.79
685.044	2629.59
685.234	2715.61
685.424	2631.64
685.614	2670.55
685.804	2672.6
685.994	2600.92
686.184	2678.74
686.374	2588.63
686.564	2541.53
686.753	2686.94
686.943	2731.99
687.133	2435.03
687.323	2521.05
687.513	2521.05
687.702	2629.59
687.892	2537.43
688.082	2623.45
688.272	2529.24
688.461	2625.5
688.651	2580.44
688.841	2484.19
689.03	2414.56
689.22	2490.33
689.41	2568.15
689.599	2539.48
689.789	2422.75
689.979	2533.34
690.168	2453.47
690.358	2451.42
690.547	2502.62
690.737	2400.22
690.926	2404.32
691.116	2383.84
691.305	2445.27
691.495	2373.6
691.684	2215.9
691.874	2375.64
692.063	2334.68
692.252	2375.64
692.442	2289.63
692.631	2404.32
692.82	2306.01
693.01	2420.7
693.199	2265.05
693.388	2211.81
693.578	2351.07
693.767	2334.68
693.956	2273.25
694.146	2351.07
694.335	2265.05
694.524	2244.57
694.713	2172.89
694.902	2146.27
695.092	2220
695.281	2193.37
695.47	2248.67
695.659	2174.94
695.848	2291.68
696.037	2164.7
696.226	2224.09
696.415	2138.08
696.604	2203.61
696.793	2146.27
696.982	1994.72
697.171	2023.39
697.36	2213.85
697.549	2195.42
697.738	2156.51
697.927	2088.93
698.116	2031.58
698.305	2080.74
698.494	2148.32
698.683	2090.98
698.872	2166.75
699.061	2189.28
699.25	2064.35
699.438	2162.65
699.627	2037.73
699.816	2158.56
700.005	2090.98
700.193	2037.73
700.382	1966.05
700.571	2082.78
700.76	2007.01
700.948	2093.02
701.137	2045.92
701.326	2017.25
701.514	1998.82
701.703	2072.54
701.892	2039.78
702.08	2138.08
702.269	2080.74
702.457	2062.3
702.646	2099.17
702.834	1957.86
703.023	1908.71
703.212	2015.2
703.4	1918.95
703.589	1892.32
703.777	2047.97
703.965	1914.85
704.154	2019.3
704.342	1959.91
704.531	1968.1
704.719	1945.57
704.907	2097.12
705.096	1949.67
705.284	1982.43
705.472	2043.87
705.661	1947.62
705.849	2041.82
706.037	2050.02
706.226	1961.95
706.414	1951.71
706.602	1957.86
706.79	1959.91
706.979	1902.56
707.167	1953.76
707.355	1855.46
707.543	1974.24
707.731	1961.95
707.919	1886.18
708.107	1877.99
708.296	1753.06
708.484	1990.63
708.672	1982.43
708.86	1959.91
709.048	1927.14
709.236	1894.37
709.424	2009.06
709.612	1941.47
709.8	1820.64
709.988	1970.15
710.176	2105.31
710.364	1961.95
710.551	1914.85
710.739	1867.75
710.927	1869.8
711.115	1953.76
711.303	1880.04
711.491	1886.18
711.679	1834.98
711.866	1951.71
712.054	1880.04
712.242	1853.41
712.43	1830.88
712.617	1912.8
712.805	1865.7
712.993	1927.14
713.181	1863.65
713.368	1925.09
713.556	1957.86
713.744	1933.28
713.931	1894.37
714.119	1867.75
714.306	1925.09
714.494	1830.88
714.682	1855.46
714.869	1886.18
715.057	1839.08
715.244	1859.56
715.432	2011.11
715.619	1894.37
715.807	1826.79
715.994	1943.52
716.182	1994.72
716.369	1877.99
716.556	1830.88
716.744	1810.4
716.931	1941.47
717.119	1904.61
717.306	1964
717.493	1908.71
717.681	1824.74
717.868	1867.75
718.055	1822.69
718.242	1892.32
718.43	1910.75
718.617	1834.98
718.804	1794.02
718.991	1882.08
719.179	1771.49
719.366	1875.94
719.553	1761.25
719.74	1875.94
719.927	1966.05
720.114	1814.5
720.301	1810.4
720.488	1867.75
720.676	1810.4
720.863	1834.98
721.05	1871.84
721.237	1945.57
721.424	1877.99
721.611	1941.47
721.798	1814.5
721.985	1814.5
722.172	1810.4
722.358	1802.21
722.545	1884.13
722.732	1769.44
722.919	1804.26
723.106	1814.5
723.293	1810.4
723.48	1886.18
723.667	1814.5
723.853	1697.77
724.04	1904.61
724.227	1931.23
724.414	1736.68
724.6	1834.98
724.787	1869.8
724.974	1933.28
725.161	1767.4
725.347	1810.4
725.534	1806.31
725.72	1867.75
725.907	1857.51
726.094	1828.84
726.28	1867.75
726.467	1865.7
726.653	1896.42
726.84	1851.36
727.027	1861.6
727.213	1744.87
727.4	1802.21
727.586	1867.75
727.773	1822.69
727.959	1791.97
728.145	1908.71
728.332	1759.21
728.518	1744.87
728.705	1765.35
728.891	1730.53
729.077	1714.15
729.264	1875.94
729.45	1712.1
729.636	1851.36
729.823	1695.72
730.009	1804.26
730.195	1902.56
730.382	1722.34
730.568	1851.36
730.754	1775.59
730.94	1820.64
731.126	1810.4
731.313	1785.83
731.499	1927.14
731.685	1957.86
731.871	1837.03
732.057	1873.89
732.243	1787.88
732.429	1902.56
732.615	1781.73
732.801	1853.41
732.987	1892.32
733.173	1753.06
733.359	1802.21
733.545	1851.36
733.731	1730.53
733.917	1744.87
734.103	1808.36
734.289	1839.08
734.475	1794.02
734.661	1875.94
734.847	1789.92
735.033	1779.68
735.219	1814.5
735.404	1738.73
735.59	1646.57
735.776	1777.64
735.962	1787.88
736.148	1861.6
736.333	1777.64
736.519	1738.73
736.705	1751.01
736.89	1777.64
737.076	1734.63
737.262	1851.36
737.447	1742.82
737.633	1716.2
737.819	1785.83
738.004	1691.62
738.19	1861.6
738.375	1732.58
738.561	1806.31
738.747	1679.33
738.932	1687.53
739.118	1779.68
739.303	1689.57
739.489	1683.43
739.674	1613.8
739.859	1632.23
740.045	1630.18
740.23	1777.64
740.416	1589.22
740.601	1687.53
740.786	1644.52
740.972	1658.85
741.157	1748.97
741.342	1728.49
741.528	1650.66
741.713	1789.92
741.898	1669.09
742.084	1665
742.269	1675.24
742.454	1542.12
742.639	1691.62
742.824	1699.81
743.01	1697.77
743.195	1640.42
743.38	1587.18
743.565	1523.69
743.75	1589.22
743.935	1495.02
744.12	1527.78
744.305	1572.84
744.49	1560.55
744.675	1605.61
744.86	1517.54
745.045	1624.04
745.23	1470.44
745.415	1634.28
745.6	1527.78
745.785	1460.2
745.97	1581.03
746.155	1441.77
746.34	1462.25
746.525	1343.47
746.71	1525.74
746.895	1433.58
747.079	1443.82
747.264	1437.67
747.449	1435.63
747.634	1466.35
747.819	1406.95
748.003	1392.62
748.188	1499.11
748.373	1400.81
748.557	1361.9
748.742	1320.94
748.927	1329.13
749.111	1345.52
749.296	1345.52
749.481	1286.12
749.665	1368.04
749.85	1357.8
750.034	1384.43
750.219	1368.04
750.404	1247.21
750.588	1429.48
750.773	1304.56
750.957	1318.89
751.141	1288.17
751.326	1198.06
751.51	1314.8
751.695	1294.32
751.879	1308.65
752.064	1386.47
752.248	1282.03
752.432	1310.7
752.617	1300.46
752.801	1267.69
752.985	1290.22
753.17	1234.93
753.354	1187.82
753.538	1222.64
753.722	1142.77
753.907	1218.54
754.091	1122.29
754.275	1230.83
754.459	1112.05
754.643	1089.52
754.828	1132.53
755.012	1105.9
755.196	1122.29
755.38	1093.62
755.564	1030.13
755.748	1017.84
755.932	1118.19
756.116	1130.48
756.3	1105.9
756.484	1071.09
756.668	1091.57
756.852	1058.8
757.036	1015.79
757.22	983.02
757.404	1036.27
757.588	1015.79
757.772	1114.1
757.956	1001.46
758.14	1136.62
758.323	1060.85
758.507	964.59
758.691	966.64
758.875	901.11
759.059	983.02
759.242	958.45
759.426	985.07
759.61	1001.46
759.794	935.92
759.977	976.88
760.161	991.22
760.345	997.36
760.528	927.73
760.712	1026.03
760.895	935.92
761.079	876.53
761.263	868.34
761.446	858.1
761.63	870.39
761.813	808.95
761.997	880.63
762.18	811
762.364	894.96
762.547	825.33
762.731	845.81
762.914	868.34
763.098	860.15
763.281	897.01
763.464	886.77
763.648	909.3
763.831	905.2
764.015	878.58
764.198	765.94
764.381	743.41
764.564	782.32
764.748	747.51
764.931	843.76
765.114	823.28
765.297	819.19
765.481	788.47
765.664	837.62
765.847	761.84
766.03	903.15
766.213	876.53
766.397	831.48
766.58	688.12
766.763	778.23
766.946	761.84
767.129	696.31
767.312	780.28
767.495	759.8
767.678	767.99
767.861	741.36
768.044	737.27
768.227	819.19
768.41	704.5
768.593	843.76
768.776	712.69
768.959	794.61
769.142	802.8
769.324	794.61
769.507	735.22
769.69	704.5
769.873	757.75
770.056	811
770.239	811
770.421	729.08
770.604	714.74
770.787	720.88
770.97	747.51
771.152	688.12
771.335	741.36
771.518	700.41
771.7	722.93
771.883	704.5
772.066	665.59
772.248	716.79
772.431	688.12
772.613	755.7
772.796	651.25
772.978	649.21
773.161	739.32
773.343	731.12
773.526	651.25
773.708	630.77
773.891	661.49
774.073	647.16
774.256	626.68
774.438	655.35
774.621	675.83
774.803	724.98
774.985	686.07
775.168	663.54
775.35	579.58
775.532	606.2
775.715	583.67
775.897	622.58
776.079	632.82
776.261	598.01
776.444	602.1
776.626	655.35
776.808	534.52
776.99	507.9
777.173	540.66
777.355	591.86
777.537	565.24
777.719	509.94
777.901	602.1
778.083	598.01
778.265	468.98
778.447	569.34
778.629	534.52
778.811	542.71
778.993	532.47
779.175	542.71
779.357	499.7
779.539	458.75
779.721	511.99
779.903	483.32
780.085	481.27
780.267	419.83
780.449	532.47
780.631	425.98
780.812	542.71
780.994	516.09
781.176	501.75
781.358	491.51
781.54	514.04
781.721	460.79
781.903	516.09
782.085	540.66
782.267	454.65
782.448	479.22
782.63	407.55
782.812	405.5
782.993	485.37
783.175	438.27
783.357	413.69
783.538	471.03
783.72	360.44
783.901	528.38
784.083	425.98
784.264	468.98
784.446	327.67
784.627	405.5
784.809	419.83
784.99	403.45
785.172	417.79
785.353	434.17
785.535	421.88
785.716	352.25
785.897	309.24
786.079	368.63
786.26	370.68
786.441	475.13
786.623	342.01
786.804	303.1
786.985	417.79
787.167	458.75
787.348	335.87
787.529	337.91
787.71	411.64
787.891	344.06
788.073	337.91
788.254	346.11
788.435	348.15
788.616	366.59
788.797	256
788.978	217.08
789.159	323.58
789.34	272.38
789.522	376.83
789.703	204.8
789.884	280.57
790.065	278.52
790.246	382.97
790.427	368.63
790.607	278.52
790.788	311.29
790.969	360.44
791.15	327.67
791.331	249.85
791.512	294.91
791.693	321.53
791.874	225.28
792.054	346.11
792.235	286.72
792.416	231.42
792.597	329.72
792.778	247.8
792.958	342.01
793.139	258.04
793.32	245.76
793.5	268.28
793.681	323.58
793.862	339.96
794.042	266.24
794.223	262.14
794.404	237.56
794.584	241.66
794.765	198.65
794.945	270.33
795.126	196.61
795.306	280.57
795.487	278.52
795.667	258.04
795.848	241.66
796.028	184.32
796.209	274.43
796.389	344.06
796.57	192.51
796.75	313.34
796.93	262.14
797.111	253.95
797.291	225.28
797.471	270.33
797.652	247.8
797.832	221.18
798.012	229.37
798.192	145.41
798.373	147.45
798.553	135.17
798.733	172.03
798.913	231.42
799.093	196.61
799.274	237.56
799.454	307.2
799.634	262.14
799.814	270.33
799.994	182.27
800.174	176.13
800.354	155.65
800.534	141.31
800.714	212.99
800.894	106.49
801.074	231.42
801.254	188.41
801.434	294.91
801.614	86.01
801.794	184.32
801.974	659.45
802.154	174.08
802.334	206.84
802.514	188.41
802.693	190.46
802.873	192.51
803.053	215.04
803.233	210.94
803.413	135.17
803.592	147.45
803.772	90.11
803.952	186.37
804.131	180.22
804.311	184.32
804.491	172.03
804.67	198.65
804.85	176.13
805.03	122.88
805.209	221.18
805.389	157.69
805.568	92.16
805.748	124.93
805.928	190.46
806.107	157.69
806.287	182.27
806.466	245.76
806.646	149.5
806.825	180.22
807.004	182.27
807.184	180.22
807.363	126.97
807.543	96.25
807.722	139.26
807.901	196.61
808.081	192.51
808.26	102.4
808.439	139.26
808.619	143.36
808.798	108.54
808.977	161.79
809.156	159.74
809.336	155.65
809.515	155.65
809.694	133.12
809.873	159.74
810.052	176.13
810.231	176.13
810.411	147.45
810.59	143.36
810.769	118.78
810.948	139.26
811.127	163.84
811.306	182.27
811.485	141.31
811.664	118.78
811.843	90.11
812.022	147.45
812.201	147.45
812.38	131.07
812.559	49.15
812.737	81.92
812.916	-16.38
813.095	75.77
813.274	133.12
813.453	129.02
813.632	180.22
813.811	102.4
813.989	143.36
814.168	57.34
814.347	86.01
814.526	69.63
814.704	100.35
814.883	137.21
815.062	161.79
815.24	116.73
815.419	86.01
815.598	118.78
815.776	16.38
815.955	53.25
816.133	69.63
816.312	174.08
816.49	53.25
816.669	98.3
816.847	106.49
817.026	116.73
817.204	114.69
817.383	83.97
817.561	61.44
817.74	92.16
817.918	-16.38
818.097	98.3
818.275	49.15
818.453	221.18
818.632	163.84
818.81	122.88
818.988	75.77
819.167	106.49
819.345	102.4
819.523	81.92
819.701	90.11
819.879	114.69
820.058	122.88
820.236	55.3
820.414	196.61
820.592	114.69
820.77	86.01
820.948	77.82
821.127	47.1
821.305	122.88
821.483	129.02
821.661	135.17
821.839	34.82
822.017	0
822.195	53.25
822.373	45.06
822.551	83.97
822.729	83.97
822.907	69.63
823.085	65.54
823.262	40.96
823.44	32.77
823.618	26.62
823.796	141.31
823.974	100.35
824.152	16.38
824.329	18.43
824.507	110.59
824.685	69.63
824.863	106.49
825.04	131.07
825.218	147.45
825.396	69.63
825.574	104.45
825.751	77.82
825.929	90.11
826.107	40.96
826.284	32.77
826.462	0
826.639	110.59
826.817	55.3
826.994	36.86
827.172	-16.38
827.349	131.07
827.527	77.82
827.704	20.48
827.882	32.77
828.059	51.2
828.237	-8.19
828.414	143.36
828.591	4.1
828.769	16.38
828.946	51.2
829.124	94.21
829.301	90.11
829.478	98.3
829.655	67.58
829.833	8.19
830.01	67.58
830.187	147.45
830.364	110.59
830.542	100.35
830.719	139.26
830.896	90.11
831.073	18.43
831.25	20.48
831.427	24.58
831.604	94.21
831.782	8.19
831.959	90.11
832.136	59.39
832.313	30.72
832.49	81.92
832.667	124.93
832.844	-34.82
833.021	104.45
833.198	28.67
833.374	34.82
833.551	69.63
833.728	-24.58
833.905	83.97
834.082	-2.05
834.259	51.2
834.436	45.06
834.612	-4.1
834.789	63.49
834.966	10.24
835.143	126.97
835.319	81.92
835.496	94.21
835.673	83.97
835.85	28.67
836.026	49.15
836.203	104.45
836.38	-36.86
836.556	92.16
836.733	53.25
836.909	40.96
837.086	-36.86
837.262	20.48
837.439	57.34
837.616	34.82
837.792	92.16
837.968	36.86
838.145	8.19
838.321	139.26
838.498	0
838.674	-22.53
838.851	83.97
839.027	45.06
839.203	61.44
839.38	-14.34
839.556	51.2
839.732	73.73
839.909	47.1
840.085	45.06
840.261	16.38
840.437	-4.1
840.614	34.82
840.79	69.63
840.966	-2.05
841.142	49.15
841.318	40.96
841.494	61.44
841.671	77.82
841.847	75.77
842.023	-18.43
842.199	24.58
842.375	75.77
842.551	16.38
842.727	0
842.903	73.73
843.079	-55.3
843.255	59.39
843.431	-12.29
843.607	69.63
843.783	8.19
843.959	73.73
844.134	-32.77
844.31	61.44
844.486	34.82
844.662	-32.77
844.838	-18.43
845.013	-30.72
845.189	49.15
845.365	83.97
845.541	-57.34
845.716	77.82
845.892	-6.14
846.068	-8.19
846.244	-32.77
846.419	38.91
846.595	10.24
846.77	18.43
846.946	51.2
847.122	81.92
847.297	-47.1
847.473	26.62
847.648	-49.15
847.824	-6.14
847.999	-30.72
848.175	28.67
848.35	-98.3
848.526	-30.72
848.701	-24.58
848.876	18.43
849.052	40.96
849.227	61.44
849.403	55.3
849.578	36.86
849.753	-12.29
849.929	40.96
850.104	-18.43
850.279	10.24
850.454	90.11
850.63	8.19
850.805	-49.15
850.98	32.77
851.155	-10.24
851.33	26.62
851.505	2.05
851.681	34.82
851.856	30.72
852.031	-8.19
852.206	51.2
852.381	-67.58
852.556	65.54
852.731	67.58
852.906	45.06
853.081	51.2
853.256	43.01
853.431	67.58
853.606	-69.63
853.781	-53.25
853.956	-30.72
854.131	36.86
854.305	-24.58
854.48	43.01
854.655	22.53
854.83	22.53
855.005	28.67
855.18	16.38
855.354	-36.86
855.529	24.58
855.704	-53.25
855.879	47.1
856.053	18.43
856.228	-59.39
856.403	26.62
856.577	12.29
856.752	-8.19
856.926	-32.77
857.101	-20.48
857.276	24.58
857.45	59.39
857.625	40.96
857.799	-47.1
857.974	-16.38
858.148	2.05
858.323	63.49
858.497	-30.72
858.672	-65.53
858.846	-8.19
859.02	8.19
859.195	4.1
859.369	0
859.543	-49.15
859.718	45.06
859.892	-2.05
860.066	10.24
860.241	-16.38
860.415	14.34
860.589	28.67
860.763	-45.06
860.938	59.39
861.112	0
861.286	-34.82
861.46	43.01
861.634	43.01
861.808	73.73
861.982	-22.53
862.157	-30.72
862.331	6.14
862.505	-77.82
862.679	-45.06
862.853	8.19
863.027	-4.1
863.201	51.2
863.375	8.19
863.549	26.62
863.722	-43.01
863.896	-49.15
864.07	24.58
864.244	-32.77
864.418	4.1
864.592	-57.34
864.766	10.24
864.939	61.44
865.113	28.67
865.287	49.15
865.461	-30.72
865.634	57.34
865.808	-22.53
865.982	-81.92
866.156	12.29
866.329	-53.25
866.503	-26.62
866.676	32.77
866.85	18.43
867.024	-32.77
867.197	-26.62
867.371	38.91
867.544	-28.67
867.718	-63.49
867.891	-8.19
868.065	-4.1
868.238	28.67
868.412	8.19
868.585	-2.05
868.759	-4.1
868.932	49.15
869.105	-38.91
869.279	-65.53
869.452	20.48
869.625	34.82
869.799	-22.53
869.972	-32.77
870.145	-45.06
870.319	-65.53
870.492	32.77
870.665	45.06
870.838	-55.3
871.011	0
871.185	-32.77
871.358	-88.06
871.531	92.16
871.704	-12.29
871.877	-16.38
872.05	16.38
872.223	-8.19
872.396	30.72
872.569	-30.72
872.742	-28.67
872.915	-45.06
873.088	-112.64
873.261	-40.96
873.434	8.19
873.607	24.58
873.78	8.19
873.953	-4.1
874.126	-22.53
874.299	6.14
874.471	61.44
874.644	-6.14
874.817	-12.29
874.99	65.54
875.163	-100.35
875.335	36.86
875.508	-6.14
875.681	0
875.853	24.58
876.026	-8.19
876.199	-55.3
876.371	-16.38
876.544	30.72
876.717	8.19
876.889	-4.1
877.062	34.82
877.234	-49.15
877.407	0
877.579	-8.19
877.752	-4.1
877.924	-8.19
878.097	2.05
878.269	57.34
878.442	36.86
878.614	-57.34
878.786	-40.96
878.959	-8.19
879.131	73.73
879.303	-30.72
879.476	-92.16
879.648	53.25
879.82	-8.19
879.993	-45.06
880.165	8.19
880.337	32.77
880.509	59.39
880.681	16.38
880.854	-22.53
881.026	-24.58
881.198	73.73
881.37	28.67
881.542	-43.01
881.714	18.43
881.886	40.96
882.058	8.19
882.23	0
882.402	57.34
882.574	67.58
882.746	-10.24
882.918	45.06
883.09	20.48
883.262	-28.67
883.434	-14.34
883.606	-45.06
883.778	2.05
883.95	63.49
884.122	-16.38
884.293	26.62
884.465	-20.48
884.637	-30.72
884.809	-59.39
884.98	0
885.152	67.58
885.324	16.38
885.496	-6.14
885.667	26.62
885.839	24.58
886.011	59.39
886.182	-2.05
886.354	12.29
886.525	24.58
886.697	20.48
886.869	-86.01
887.04	65.54
887.212	22.53
887.383	8.19
887.555	-22.53
887.726	8.19
887.897	-40.96
888.069	10.24
888.24	26.62
888.412	34.82
888.583	-83.97
888.754	-8.19
888.926	-98.3
889.097	-40.96
889.268	-63.49
889.44	-96.25
889.611	-73.73
889.782	49.15
889.953	-51.2
890.125	34.82
890.296	26.62
890.467	-8.19
890.638	-53.25
890.809	40.96
890.98	-10.24
891.151	67.58
891.323	28.67
891.494	32.77
891.665	-6.14
891.836	61.44
892.007	-45.06
892.178	0
892.349	-32.77
892.52	-55.3
892.691	-43.01
892.862	2.05
893.032	-147.45
893.203	-32.77
893.374	-79.87
893.545	45.06
893.716	-36.86
893.887	-69.63
894.057	-53.25
894.228	45.06
894.399	16.38
894.57	45.06
894.74	-34.82
894.911	-12.29
895.082	12.29
895.253	43.01
895.423	-53.25
895.594	-30.72
895.764	4.1
895.935	16.38
896.106	-4.1
896.276	-55.3
896.447	28.67
896.617	-36.86
896.788	16.38
896.958	-133.12
897.129	-16.38
897.299	-112.64
897.47	-8.19
897.64	73.73
897.81	-32.77
897.981	-43.01
898.151	-32.77
898.322	32.77
898.492	43.01
898.662	-63.49
898.832	16.38
899.003	-65.53
899.173	-14.34
899.343	-47.1
899.513	-65.53
