Data from USB4F104151__303__14-46-39-548.txt Node

Date: Thu Mar 13 14:46:39 EDT 2025
User: louis
Spectrometer: USB4F10415
Trigger mode: 4
Integration Time (sec): 2.000000E-2
Scans to average: 1
Electric dark correction enabled: true
Nonlinearity correction enabled: false
Boxcar width: 0
XAxis mode: Wavelengths
Number of Pixels in Spectrum: 3648
>>>>>Begin Spectral Data<<<<<
178.204	-88.75
178.424	-88.75
178.644	-88.75
178.864	-187.05
179.084	-113.32
179.304	13.65
179.524	-6.83
179.744	-90.79
179.964	83.28
180.184	-45.74
180.404	34.13
180.624	54.61
180.844	-29.35
181.064	-23.21
181.283	42.32
181.503	-17.07
181.723	-15.02
181.943	-23.21
182.163	21.85
182.383	17.75
182.602	7.51
182.822	34.13
183.042	-37.55
183.262	-0.68
183.482	30.04
183.701	27.99
183.921	25.94
184.141	7.51
184.361	71
184.58	62.8
184.8	50.52
185.02	-21.16
185.239	109.91
185.459	19.8
185.679	52.56
185.898	-72.36
186.118	-2.73
186.338	17.75
186.557	-19.11
186.777	91.48
186.997	75.09
187.216	-45.74
187.436	107.86
187.655	9.56
187.875	77.14
188.095	9.56
188.314	101.72
188.534	54.61
188.753	34.13
188.973	13.65
189.192	21.85
189.412	13.65
189.631	-6.83
189.851	1.37
190.07	101.72
190.29	-25.26
190.509	34.13
190.729	38.23
190.948	52.56
191.168	173.39
191.387	42.32
191.607	48.47
191.826	-2.73
192.045	30.04
192.265	-12.97
192.484	71
192.704	1.37
192.923	1.37
193.142	134.48
193.362	144.72
193.581	71
193.8	1.37
194.02	75.09
194.239	1.37
194.458	36.18
194.678	-15.02
194.897	54.61
195.116	34.13
195.335	99.67
195.555	25.94
195.774	32.08
195.993	50.52
196.212	62.8
196.432	34.13
196.651	27.99
196.87	-39.59
197.089	103.76
197.308	50.52
197.528	38.23
197.747	48.47
197.966	52.56
198.185	48.47
198.404	81.24
198.623	-15.02
198.842	64.85
199.062	124.24
199.281	40.28
199.5	-12.97
199.719	91.48
199.938	109.91
200.157	83.28
200.376	7.51
200.595	56.66
200.814	101.72
201.033	11.61
201.252	9.56
201.471	36.18
201.69	48.47
201.909	1.37
202.128	75.09
202.347	25.94
202.566	21.85
202.785	52.56
203.004	-8.87
203.223	150.87
203.442	19.8
203.661	23.89
203.879	-19.11
204.098	19.8
204.317	9.56
204.536	34.13
204.755	38.23
204.974	52.56
205.193	17.75
205.411	107.86
205.63	34.13
205.849	54.61
206.068	-23.21
206.287	-6.83
206.505	50.52
206.724	1.37
206.943	-19.11
207.162	36.18
207.381	66.9
207.599	11.61
207.818	34.13
208.037	-39.59
208.255	19.8
208.474	9.56
208.693	19.8
208.911	50.52
209.13	38.23
209.349	30.04
209.567	-6.83
209.786	89.43
210.005	17.75
210.223	91.48
210.442	-21.16
210.661	42.32
210.879	71
211.098	34.13
211.316	144.72
211.535	93.52
211.753	17.75
211.972	21.85
212.191	-29.35
212.409	38.23
212.628	46.42
212.846	-37.55
213.065	42.32
213.283	30.04
213.502	38.23
213.72	93.52
213.938	66.9
214.157	77.14
214.375	62.8
214.594	25.94
214.812	-6.83
215.031	30.04
215.249	-2.73
215.467	-2.73
215.686	54.61
215.904	97.62
216.122	-4.78
216.341	116.05
216.559	56.66
216.778	11.61
216.996	44.37
217.214	83.28
217.432	-25.26
217.651	27.99
217.869	-21.16
218.087	1.37
218.306	-12.97
218.524	23.89
218.742	101.72
218.96	50.52
219.179	25.94
219.397	54.61
219.615	116.05
219.833	50.52
220.051	-19.11
220.27	68.95
220.488	58.71
220.706	75.09
220.924	66.9
221.142	-6.83
221.36	9.56
221.578	-6.83
221.796	40.28
222.015	1.37
222.233	56.66
222.451	30.04
222.669	-4.78
222.887	91.48
223.105	38.23
223.323	50.52
223.541	83.28
223.759	50.52
223.977	25.94
224.195	77.14
224.413	42.32
224.631	52.56
224.849	68.95
225.067	34.13
225.285	75.09
225.503	50.52
225.721	-31.4
225.939	109.91
226.157	95.57
226.375	130.39
226.592	60.76
226.81	19.8
227.028	-0.68
227.246	79.19
227.464	66.9
227.682	91.48
227.9	52.56
228.117	77.14
228.335	-29.35
228.553	21.85
228.771	62.8
228.989	38.23
229.206	34.13
229.424	5.46
229.642	34.13
229.86	25.94
230.077	50.52
230.295	-21.16
230.513	95.57
230.731	99.67
230.948	93.52
231.166	91.48
231.384	17.75
231.601	-37.55
231.819	87.38
232.037	11.61
232.254	-19.11
232.472	62.8
232.689	-6.83
232.907	44.37
233.125	5.46
233.342	38.23
233.56	21.85
233.777	25.94
233.995	38.23
234.213	97.62
234.43	-51.88
234.648	27.99
234.865	-4.78
235.083	50.52
235.3	-12.97
235.518	27.99
235.735	91.48
235.953	116.05
236.17	-2.73
236.388	42.32
236.605	27.99
236.822	-23.21
237.04	32.08
237.257	-2.73
237.475	36.18
237.692	79.19
237.909	54.61
238.127	3.41
238.344	75.09
238.562	21.85
238.779	-39.59
238.996	66.9
239.214	-23.21
239.431	85.33
239.648	-23.21
239.865	13.65
240.083	13.65
240.3	5.46
240.517	11.61
240.735	32.08
240.952	-35.5
241.169	36.18
241.386	58.71
241.603	11.61
241.821	-51.88
242.038	68.95
242.255	34.13
242.472	9.56
242.689	44.37
242.907	58.71
243.124	87.38
243.341	13.65
243.558	27.99
243.775	50.52
243.992	-53.93
244.209	25.94
244.426	87.38
244.643	77.14
244.86	68.95
245.078	60.76
245.295	54.61
245.512	25.94
245.729	3.41
245.946	83.28
246.163	62.8
246.38	50.52
246.597	154.96
246.814	27.99
247.031	9.56
247.248	60.76
247.464	50.52
247.681	25.94
247.898	66.9
248.115	27.99
248.332	25.94
248.549	83.28
248.766	109.91
248.983	52.56
249.2	54.61
249.417	-6.83
249.633	52.56
249.85	9.56
250.067	71
250.284	30.04
250.501	71
250.717	-15.02
250.934	-43.69
251.151	-10.92
251.368	21.85
251.585	116.05
251.801	75.09
252.018	42.32
252.235	99.67
252.451	-2.73
252.668	15.7
252.885	54.61
253.102	13.65
253.318	3.41
253.535	52.56
253.752	11.61
253.968	19.8
254.185	-23.21
254.401	3.41
254.618	-15.02
254.835	46.42
255.051	21.85
255.268	66.9
255.484	130.39
255.701	19.8
255.917	42.32
256.134	-10.92
256.351	48.47
256.567	-21.16
256.784	62.8
257	46.42
257.217	1.37
257.433	87.38
257.65	95.57
257.866	60.76
258.082	83.28
258.299	5.46
258.515	17.75
258.732	11.61
258.948	60.76
259.165	25.94
259.381	-0.68
259.597	19.8
259.814	79.19
260.03	-10.92
260.246	62.8
260.463	34.13
260.679	62.8
260.895	-6.83
261.112	79.19
261.328	30.04
261.544	25.94
261.761	124.24
261.977	17.75
262.193	-4.78
262.409	27.99
262.626	-19.11
262.842	52.56
263.058	19.8
263.274	13.65
263.49	21.85
263.707	17.75
263.923	30.04
264.139	38.23
264.355	-19.11
264.571	83.28
264.787	30.04
265.004	109.91
265.22	77.14
265.436	1.37
265.652	93.52
265.868	50.52
266.084	-53.93
266.3	17.75
266.516	17.75
266.732	46.42
266.948	13.65
267.164	48.47
267.38	-19.11
267.596	-0.68
267.812	9.56
268.028	93.52
268.244	25.94
268.46	62.8
268.676	50.52
268.892	27.99
269.108	-15.02
269.324	-43.69
269.54	13.65
269.756	105.81
269.972	9.56
270.188	52.56
270.403	44.37
270.619	9.56
270.835	50.52
271.051	25.94
271.267	5.46
271.483	25.94
271.698	9.56
271.914	60.76
272.13	46.42
272.346	34.13
272.562	68.95
272.777	38.23
272.993	64.85
273.209	11.61
273.425	73.04
273.64	34.13
273.856	54.61
274.072	13.65
274.287	27.99
274.503	71
274.719	-21.16
274.934	83.28
275.15	21.85
275.366	1.37
275.581	-39.59
275.797	44.37
276.012	21.85
276.228	75.09
276.444	60.76
276.659	66.9
276.875	9.56
277.09	-47.79
277.306	-51.88
277.521	15.7
277.737	87.38
277.952	27.99
278.168	99.67
278.383	81.24
278.599	21.85
278.814	134.48
279.03	-2.73
279.245	118.1
279.461	58.71
279.676	11.61
279.892	-2.73
280.107	64.85
280.322	15.7
280.538	91.48
280.753	-21.16
280.969	48.47
281.184	75.09
281.399	50.52
281.615	25.94
281.83	62.8
282.045	19.8
282.26	13.65
282.476	42.32
282.691	85.33
282.906	85.33
283.122	42.32
283.337	-15.02
283.552	50.52
283.767	-8.87
283.983	42.32
284.198	71
284.413	58.71
284.628	-49.83
284.843	17.75
285.058	50.52
285.274	-6.83
285.489	-19.11
285.704	3.41
285.919	-31.4
286.134	40.28
286.349	-37.55
286.564	50.52
286.779	66.9
286.995	-51.88
287.21	-6.83
287.425	60.76
287.64	17.75
287.855	99.67
288.07	60.76
288.285	107.86
288.5	83.28
288.715	25.94
288.93	-21.16
289.145	9.56
289.36	83.28
289.575	25.94
289.79	42.32
290.004	9.56
290.219	71
290.434	-15.02
290.649	46.42
290.864	30.04
291.079	64.85
291.294	99.67
291.509	34.13
291.724	13.65
291.938	66.9
292.153	34.13
292.368	81.24
292.583	36.18
292.798	46.42
293.012	124.24
293.227	58.71
293.442	50.52
293.657	1.37
293.871	107.86
294.086	79.19
294.301	93.52
294.516	83.28
294.73	42.32
294.945	-8.87
295.16	1.37
295.374	107.86
295.589	83.28
295.804	21.85
296.018	77.14
296.233	17.75
296.447	116.05
296.662	40.28
296.877	95.57
297.091	105.81
297.306	15.7
297.52	23.89
297.735	13.65
297.949	46.42
298.164	34.13
298.378	11.61
298.593	13.65
298.807	95.57
299.022	50.52
299.236	97.62
299.451	21.85
299.665	5.46
299.88	77.14
300.094	21.85
300.309	25.94
300.523	38.23
300.737	81.24
300.952	50.52
301.166	46.42
301.381	89.43
301.595	60.76
301.809	50.52
302.024	-27.31
302.238	42.32
302.452	62.8
302.667	32.08
302.881	91.48
303.095	42.32
303.309	38.23
303.524	34.13
303.738	42.32
303.952	19.8
304.166	52.56
304.381	-31.4
304.595	111.96
304.809	-10.92
305.023	34.13
305.237	-15.02
305.452	89.43
305.666	87.38
305.88	75.09
306.094	38.23
306.308	34.13
306.522	83.28
306.736	60.76
306.95	46.42
307.164	68.95
307.379	15.7
307.593	46.42
307.807	13.65
308.021	19.8
308.235	97.62
308.449	-27.31
308.663	66.9
308.877	136.53
309.091	9.56
309.305	-15.02
309.519	3.41
309.733	-6.83
309.947	17.75
310.161	1.37
310.374	77.14
310.588	38.23
310.802	1.37
311.016	25.94
311.23	13.65
311.444	1.37
311.658	81.24
311.872	138.58
312.085	-19.11
312.299	60.76
312.513	101.72
312.727	3.41
312.941	44.37
313.154	36.18
313.368	34.13
313.582	-43.69
313.796	56.66
314.009	52.56
314.223	77.14
314.437	105.81
314.651	142.68
314.864	99.67
315.078	62.8
315.292	40.28
315.505	77.14
315.719	25.94
315.933	19.8
316.146	27.99
316.36	32.08
316.573	93.52
316.787	25.94
317.001	87.38
317.214	19.8
317.428	42.32
317.641	54.61
317.855	85.33
318.068	1.37
318.282	71
318.495	83.28
318.709	85.33
318.922	-8.87
319.136	34.13
319.349	103.76
319.563	66.9
319.776	38.23
319.99	17.75
320.203	66.9
320.417	54.61
320.63	87.38
320.843	87.38
321.057	25.94
321.27	66.9
321.483	58.71
321.697	50.52
321.91	36.18
322.124	52.56
322.337	38.23
322.55	64.85
322.763	54.61
322.977	54.61
323.19	-10.92
323.403	34.13
323.617	83.28
323.83	9.56
324.043	60.76
324.256	66.9
324.469	11.61
324.683	44.37
324.896	13.65
325.109	36.18
325.322	13.65
325.535	116.05
325.748	-10.92
325.962	130.39
326.175	75.09
326.388	17.75
326.601	97.62
326.814	75.09
327.027	13.65
327.24	77.14
327.453	34.13
327.666	50.52
327.879	34.13
328.092	126.29
328.305	-33.45
328.518	71
328.731	50.52
328.944	21.85
329.157	99.67
329.37	-23.21
329.583	42.32
329.796	71
330.009	17.75
330.222	11.61
330.435	34.13
330.648	50.52
330.861	1.37
331.073	3.41
331.286	27.99
331.499	11.61
331.712	19.8
331.925	103.76
332.138	-4.78
332.35	36.18
332.563	-12.97
332.776	50.52
332.989	1.37
333.202	99.67
333.414	81.24
333.627	62.8
333.84	17.75
334.053	27.99
334.265	34.13
334.478	17.75
334.691	85.33
334.903	85.33
335.116	75.09
335.329	23.89
335.541	87.38
335.754	83.28
335.966	25.94
336.179	44.37
336.392	-23.21
336.604	48.47
336.817	77.14
337.029	13.65
337.242	52.56
337.454	118.1
337.667	-6.83
337.88	58.71
338.092	34.13
338.305	58.71
338.517	-19.11
338.729	109.91
338.942	103.76
339.154	116.05
339.367	27.99
339.579	87.38
339.792	58.71
340.004	19.8
340.217	17.75
340.429	11.61
340.641	25.94
340.854	73.04
341.066	34.13
341.278	54.61
341.491	132.44
341.703	54.61
341.915	17.75
342.128	38.23
342.34	-10.92
342.552	9.56
342.764	58.71
342.977	42.32
343.189	52.56
343.401	52.56
343.613	-12.97
343.826	44.37
344.038	-10.92
344.25	93.52
344.462	44.37
344.674	30.04
344.886	-10.92
345.099	54.61
345.311	-23.21
345.523	-15.02
345.735	54.61
345.947	44.37
346.159	79.19
346.371	-10.92
346.583	17.75
346.795	93.52
347.007	46.42
347.219	50.52
347.431	21.85
347.643	27.99
347.855	-6.83
348.067	36.18
348.279	19.8
348.491	42.32
348.703	107.86
348.915	17.75
349.127	1.37
349.339	17.75
349.551	58.71
349.763	44.37
349.975	34.13
350.187	107.86
350.399	60.76
350.61	87.38
350.822	42.32
351.034	60.76
351.246	38.23
351.458	66.9
351.669	42.32
351.881	52.56
352.093	-47.79
352.305	85.33
352.517	91.48
352.728	83.28
352.94	50.52
353.152	56.66
353.363	25.94
353.575	71
353.787	44.37
353.999	134.48
354.21	46.42
354.422	79.19
354.633	56.66
354.845	42.32
355.057	60.76
355.268	-4.78
355.48	77.14
355.692	-6.83
355.903	42.32
356.115	3.41
356.326	19.8
356.538	111.96
356.749	120.15
356.961	109.91
357.172	5.46
357.384	19.8
357.595	83.28
357.807	34.13
358.018	-62.12
358.23	44.37
358.441	-10.92
358.653	56.66
358.864	66.9
359.075	44.37
359.287	17.75
359.498	58.71
359.709	17.75
359.921	107.86
360.132	109.91
360.344	21.85
360.555	54.61
360.766	79.19
360.977	68.95
361.189	50.52
361.4	9.56
361.611	7.51
361.823	58.71
362.034	105.81
362.245	17.75
362.456	109.91
362.667	68.95
362.879	17.75
363.09	27.99
363.301	62.8
363.512	13.65
363.723	-47.79
363.935	62.8
364.146	25.94
364.357	19.8
364.568	85.33
364.779	-4.78
364.99	95.57
365.201	-47.79
365.412	77.14
365.623	34.13
365.834	46.42
366.045	11.61
366.256	58.71
366.467	66.9
366.678	58.71
366.889	38.23
367.1	25.94
367.311	64.85
367.522	75.09
367.733	107.86
367.944	79.19
368.155	66.9
368.366	68.95
368.577	1.37
368.788	101.72
368.999	40.28
369.209	58.71
369.42	83.28
369.631	126.29
369.842	136.53
370.053	32.08
370.264	46.42
370.474	3.41
370.685	40.28
370.896	44.37
371.107	-0.68
371.317	109.91
371.528	-4.78
371.739	44.37
371.95	75.09
372.16	75.09
372.371	60.76
372.582	44.37
372.792	66.9
373.003	25.94
373.214	17.75
373.424	71
373.635	1.37
373.846	150.87
374.056	75.09
374.267	19.8
374.477	25.94
374.688	-12.97
374.898	50.52
375.109	-19.11
375.319	52.56
375.53	91.48
375.74	42.32
375.951	25.94
376.161	21.85
376.372	161.11
376.582	25.94
376.793	58.71
377.003	46.42
377.214	-2.73
377.424	36.18
377.635	73.04
377.845	34.13
378.055	114
378.266	58.71
378.476	71
378.686	62.8
378.897	91.48
379.107	99.67
379.317	30.04
379.528	27.99
379.738	85.33
379.948	-6.83
380.158	66.9
380.369	-6.83
380.579	46.42
380.789	11.61
380.999	50.52
381.21	13.65
381.42	99.67
381.63	-15.02
381.84	68.95
382.05	-2.73
382.261	128.34
382.471	42.32
382.681	15.7
382.891	52.56
383.101	60.76
383.311	62.8
383.521	97.62
383.731	66.9
383.941	75.09
384.151	124.24
384.361	58.71
384.571	83.28
384.781	87.38
384.991	79.19
385.201	107.86
385.411	44.37
385.621	58.71
385.831	32.08
386.041	48.47
386.251	-6.83
386.461	50.52
386.671	128.34
386.881	66.9
387.091	34.13
387.301	132.44
387.511	38.23
387.72	62.8
387.93	52.56
388.14	54.61
388.35	30.04
388.56	128.34
388.769	85.33
388.979	126.29
389.189	60.76
389.399	54.61
389.609	32.08
389.818	116.05
390.028	75.09
390.238	159.06
390.447	83.28
390.657	17.75
390.867	77.14
391.076	-25.26
391.286	144.72
391.496	132.44
391.705	15.7
391.915	124.24
392.125	79.19
392.334	52.56
392.544	109.91
392.753	75.09
392.963	148.82
393.172	42.32
393.382	75.09
393.591	111.96
393.801	93.52
394.01	173.39
394.22	42.32
394.429	77.14
394.639	103.76
394.848	36.18
395.058	27.99
395.267	124.24
395.477	71
395.686	95.57
395.895	89.43
396.105	134.48
396.314	87.38
396.524	38.23
396.733	111.96
396.942	91.48
397.152	75.09
397.361	91.48
397.57	138.58
397.78	124.24
397.989	95.57
398.198	183.63
398.407	99.67
398.617	85.33
398.826	73.04
399.035	132.44
399.244	91.48
399.453	91.48
399.663	118.1
399.872	91.48
400.081	116.05
400.29	116.05
400.499	95.57
400.708	161.11
400.917	132.44
401.127	142.68
401.336	50.52
401.545	183.63
401.754	159.06
401.963	146.77
402.172	52.56
402.381	95.57
402.59	116.05
402.799	107.86
403.008	124.24
403.217	101.72
403.426	165.2
403.635	77.14
403.844	159.06
404.053	-2.73
404.262	54.61
404.471	238.93
404.68	187.73
404.888	116.05
405.097	197.97
405.306	200.02
405.515	165.2
405.724	197.97
405.933	134.48
406.142	189.78
406.35	210.26
406.559	167.25
406.768	195.92
406.977	255.31
407.185	214.35
407.394	216.4
407.603	214.35
407.812	230.74
408.02	304.46
408.229	173.39
408.438	230.74
408.646	222.55
408.855	230.74
409.064	275.79
409.272	247.12
409.481	361.81
409.69	255.31
409.898	308.56
410.107	324.94
410.315	357.71
410.524	372.05
410.733	341.33
410.941	361.81
411.15	353.62
411.358	486.73
411.567	427.34
411.775	386.38
411.984	501.07
412.192	501.07
412.401	537.93
412.609	535.89
412.818	558.41
413.026	591.18
413.234	550.22
413.443	476.49
413.651	527.69
413.86	574.8
414.068	605.52
414.276	589.13
414.485	691.53
414.693	697.67
414.901	695.63
415.11	775.5
415.318	734.54
415.526	808.27
415.734	724.3
415.943	732.49
416.151	894.28
416.359	791.88
416.567	820.55
416.776	1000.77
416.984	1045.83
417.192	1027.4
417.4	1027.4
417.608	1084.74
417.817	1070.4
418.025	1125.7
418.233	1246.53
418.441	1254.72
418.649	1256.77
418.857	1344.83
419.065	1377.6
419.273	1336.64
419.481	1332.54
419.689	1445.18
419.897	1537.34
420.105	1516.86
420.313	1609.02
420.521	1664.32
420.729	1627.45
420.937	1738.04
421.145	1733.95
421.353	1862.97
421.561	1901.88
421.769	2008.37
421.977	2141.49
422.185	2045.24
422.393	2151.73
422.601	2278.71
422.809	2383.15
423.017	2336.05
423.224	2551.09
423.432	2575.66
423.64	2655.53
423.848	2843.95
424.056	2716.97
424.263	2936.1
424.471	2966.82
424.679	2968.87
424.887	3214.63
425.094	3220.77
425.302	3304.74
425.51	3310.88
425.718	3425.57
425.925	3505.44
426.133	3773.72
426.341	3822.88
426.548	3949.85
426.756	3990.81
426.964	4173.08
427.171	4300.05
427.379	4379.92
427.586	4394.26
427.794	4615.44
428.001	4769.04
428.209	5010.7
428.417	4853
428.624	5141.77
428.832	5215.49
429.039	5303.56
429.247	5219.59
429.454	5860.6
429.662	6147.32
429.869	5702.91
430.076	6126.84
430.284	5915.9
430.491	6239.48
430.699	6614.26
430.906	6620.4
431.114	6573.3
431.321	6876.4
431.528	7144.68
431.736	7501.03
431.943	7714.02
432.15	7640.29
432.358	7744.74
432.565	8133.85
432.772	8084.7
432.979	8572.11
433.187	8582.35
433.394	8541.4
433.601	9039.05
433.808	9364.68
434.016	9231.56
434.223	9512.13
434.43	10300.6
434.637	9895.1
434.844	10585.27
435.052	10818.74
435.259	10751.15
435.466	10708.15
435.673	10845.36
435.88	11408.55
436.087	11926.69
436.294	12010.65
436.501	11576.48
436.708	11879.58
436.915	12233.88
437.122	12952.72
437.329	12950.67
437.537	13329.55
437.743	13493.38
437.95	13491.34
438.157	14009.47
438.364	14488.7
438.571	14275.71
438.778	14593.14
438.985	15770.72
439.192	15199.34
439.399	15608.94
439.606	15232.11
439.813	16311.39
440.02	17392.72
440.227	16778.33
440.433	16931.92
440.64	17329.23
440.847	17214.54
441.054	17796.17
441.261	18822.2
441.467	18824.25
441.674	19051.57
441.881	19491.88
442.088	19504.17
442.294	19264.56
442.501	19967.01
442.708	20364.32
442.914	20882.45
443.121	21820.42
443.328	21337.1
443.534	22862.84
443.741	22148.1
443.948	21914.63
444.154	23395.31
444.361	23237.62
444.568	23405.55
444.774	23358.45
444.981	23714.8
445.187	24257.51
445.394	25318.35
445.6	25207.76
445.807	27737.01
446.013	26227.65
446.22	26844.09
446.426	27859.88
446.633	28085.16
446.839	28896.16
447.046	27876.27
447.252	29164.44
447.459	29442.96
447.665	29299.61
447.871	30641.03
448.078	31886.19
448.284	30178.18
448.491	31056.76
448.697	32426.85
448.903	33094.49
449.11	32775.01
449.316	32742.24
449.522	33045.34
449.728	34032.46
449.935	34411.34
450.141	34390.86
450.347	34642.76
450.553	34143.05
450.76	34437.96
450.966	35623.73
451.172	35277.63
451.378	35894.07
451.584	35605.3
451.791	36385.58
451.997	36014.9
452.203	36514.6
452.409	37059.36
452.615	36881.19
452.821	35310.39
453.027	34724.68
453.233	36895.52
453.44	35318.59
453.646	35908.4
453.852	36158.25
454.058	36573.99
454.264	35359.55
454.47	36350.76
454.676	35527.48
454.882	36748.07
455.088	33393.5
455.294	34474.82
455.5	34372.42
455.705	34865.99
455.911	33262.43
456.117	32846.69
456.323	32715.62
456.529	30911.36
456.735	32367.46
456.941	31456.12
457.147	31095.67
457.352	30065.55
457.558	29948.81
457.764	29918.09
457.97	29289.37
458.176	28550.05
458.381	28990.36
458.587	27521.97
458.793	27124.66
458.999	25904.07
459.204	28054.44
459.41	26852.28
459.616	25066.45
459.821	25238.48
460.027	25168.85
460.233	24499.17
460.438	23653.36
460.644	23962.6
460.85	22709.24
461.055	22328.32
461.261	22270.98
461.466	20577.31
461.672	19860.52
461.878	21429.26
462.083	20079.65
462.289	19874.85
462.494	19622.95
462.7	18494.52
462.905	18058.31
463.111	18809.91
463.316	18711.61
463.522	18740.28
463.727	18146.37
463.932	18246.72
464.138	18025.54
464.343	18353.21
464.549	17679.43
464.754	18318.4
464.959	17695.82
465.165	17812.55
465.37	17362
465.575	16731.22
465.781	17607.75
465.986	17409.1
466.191	17093.71
466.397	16655.45
466.602	15737.96
466.807	16407.64
467.012	16405.6
467.218	16247.9
467.423	15950.95
467.628	16174.17
467.833	16876.63
468.038	16008.29
468.244	15678.57
468.449	16233.57
468.654	16026.72
468.859	15756.39
469.064	15471.72
469.269	14967.92
469.474	15066.22
469.679	15395.95
469.885	15053.94
470.09	15213.68
470.295	14986.35
470.5	14756.98
470.705	14828.66
470.91	14365.82
471.115	14273.66
471.32	14656.63
471.525	14509.18
471.73	14263.42
471.935	14275.71
472.139	13786.24
472.344	14050.43
472.549	13481.1
472.754	13421.7
472.959	13261.96
473.164	12768.4
473.369	13053.07
473.574	13433.99
473.778	12858.51
473.983	13134.99
474.188	13223.05
474.393	12381.34
474.598	12614.8
474.802	12465.3
475.007	12297.37
475.212	12145.82
475.417	11928.74
475.621	11801.76
475.826	12024.99
476.031	11621.54
476.235	11443.37
476.44	11670.69
476.645	11404.46
476.849	11412.65
477.054	11312.3
477.259	11148.46
477.463	11144.36
477.668	10665.14
477.872	10808.5
478.077	10706.1
478.282	10499.25
478.486	10423.48
478.691	10486.97
478.895	10204.35
479.1	10321.08
479.304	10218.68
479.509	9782.46
479.713	10276.02
479.918	10042.56
480.122	9764.03
480.326	10167.48
480.531	9753.79
480.735	9852.09
480.94	9614.53
481.144	9958.59
481.348	9503.94
481.553	9725.12
481.757	9417.93
481.961	9323.72
482.166	9663.68
482.37	9399.49
482.574	9495.75
482.778	9571.52
482.983	9741.5
483.187	9493.7
483.391	9673.92
483.595	9438.41
483.8	9176.27
484.004	9524.42
484.208	9536.71
484.412	9612.48
484.616	9430.21
484.821	9546.95
485.025	9424.07
485.229	9442.5
485.433	9233.61
485.637	9403.59
485.841	9415.88
486.045	9258.18
486.249	9323.72
486.453	9215.18
486.657	9520.32
486.861	9376.97
487.065	9424.07
487.269	9450.69
487.473	9282.76
487.677	9501.89
487.881	9581.76
488.085	9356.49
488.289	9735.36
488.493	9428.17
488.697	9483.46
488.901	9229.51
489.105	9438.41
489.309	9532.61
489.512	9536.71
489.716	9596.1
489.92	9510.08
490.124	9454.79
490.328	9729.22
490.531	9596.1
490.735	9657.54
490.939	9583.81
491.143	9473.22
491.346	9790.66
491.55	9891.01
491.754	9807.04
491.958	9946.3
492.161	9974.97
492.365	9905.34
492.569	9884.86
492.772	9948.35
492.976	10069.18
493.18	10175.67
493.383	10161.34
493.587	10269.88
493.79	10288.31
493.994	9884.86
494.197	10544.31
494.401	10407.09
494.605	10521.78
494.808	10771.63
495.012	10519.73
495.215	10642.61
495.419	10859.7
495.622	10734.77
495.825	10708.15
496.029	10822.83
496.232	11023.53
496.436	11035.82
496.639	11261.1
496.843	11306.15
497.046	11381.93
497.249	11750.56
497.453	11631.78
497.656	11861.15
497.859	11820.19
498.063	11945.12
498.266	12252.31
498.469	11928.74
498.673	12080.28
498.876	12586.13
499.079	12418.2
499.282	12385.43
499.485	12936.34
499.689	13014.16
499.892	13157.52
500.095	13061.26
500.298	13362.31
500.501	13186.19
500.705	13702.28
500.908	13935.74
501.111	14032
501.314	13773.96
501.517	14072.96
501.72	14326.91
501.923	14232.7
502.126	14587
502.329	14806.13
502.532	14754.93
502.735	15068.27
502.938	15082.61
503.141	15262.83
503.344	15438.95
503.547	15744.1
503.75	15451.24
503.953	15977.57
504.156	15998.05
504.359	16217.18
504.562	16483.42
504.765	16485.47
504.968	16946.26
505.17	17019.99
505.373	17079.38
505.576	17474.63
505.779	17550.41
505.982	17759.3
506.185	18084.93
506.387	17835.08
506.59	18330.69
506.793	18734.14
506.996	18459.71
507.198	18824.25
507.401	18924.6
507.604	19096.63
507.807	19588.14
508.009	19541.04
508.212	19686.44
508.415	19901.48
508.617	20194.34
508.82	20493.34
509.022	20247.58
509.225	21062.68
509.428	21140.5
509.63	21281.81
509.833	21216.27
510.035	21801.99
510.238	21359.63
510.44	21908.49
510.643	21924.87
510.845	22498.3
511.048	22301.7
511.25	22701.05
511.453	22877.18
511.655	23499.76
511.858	23342.07
512.06	23585.77
512.262	23880.68
512.465	23452.66
512.667	24056.81
512.87	24364
513.072	24468.45
513.274	25076.69
513.477	24941.53
513.679	25193.43
513.881	25363.41
514.084	25762.76
514.286	25756.62
514.488	25867.21
514.69	26495.94
514.893	26758.08
515.095	26903.48
515.297	27161.53
515.499	26944.44
515.701	27382.71
515.904	27896.75
516.106	27560.88
516.308	28337.06
516.51	28468.13
516.712	28603.3
516.914	28834.72
517.116	29324.18
517.318	29381.52
517.52	29553.55
517.722	29754.26
517.925	29877.13
518.127	30407.56
518.329	30405.51
518.531	30464.9
518.733	31128.44
518.935	31165.31
519.136	31556.47
519.338	31923.05
519.54	32080.75
519.742	32463.72
519.944	32568.16
520.146	33059.68
520.348	33233.75
520.55	32830.3
520.752	33293.15
520.954	33710.93
521.155	33420.12
521.357	34046.8
521.559	34298.7
521.761	34810.69
521.963	34700.1
522.164	35191.61
522.366	35003.2
522.568	35375.93
522.77	35650.36
522.971	36125.49
523.173	36107.05
523.375	35912.5
523.576	36481.83
523.778	36180.78
523.98	36936.48
524.181	37137.18
524.383	36993.82
524.584	37493.53
524.786	37337.88
524.988	37260.06
525.189	37958.42
525.391	38122.26
525.592	38419.21
525.794	38347.53
525.995	38302.48
526.197	38486.79
526.398	38722.31
526.6	39191.3
526.801	38707.97
527.003	38996.74
527.204	39017.22
527.406	39637.75
527.607	39377.66
527.808	39764.73
528.01	39385.85
528.211	39693.05
528.412	40223.47
528.614	40170.22
528.815	40301.29
529.016	40440.56
529.218	39691
529.419	40213.23
529.62	40364.78
529.822	40309.49
530.023	40368.88
530.224	40616.68
530.425	40817.38
530.626	40442.6
530.828	40151.79
531.029	41411.29
531.23	40751.85
531.431	41007.84
531.632	40987.36
531.833	40690.41
532.035	40966.88
532.236	41159.39
532.437	41220.83
532.638	40868.58
532.839	41147.11
533.04	41333.47
533.241	41063.14
533.442	41779.93
533.643	41071.33
533.844	41485.02
534.045	41208.54
534.246	41306.85
534.447	41245.41
534.648	41253.6
534.849	41157.35
535.05	40637.16
535.251	41456.35
535.451	41052.9
535.652	41306.85
535.853	41507.55
536.054	41229.02
536.255	41480.92
536.456	40870.63
536.657	41757.4
536.857	41208.54
537.058	41089.76
537.259	41650.91
537.46	41843.41
537.66	41540.32
537.861	41890.52
538.062	41329.37
538.263	41472.73
538.463	41419.49
538.664	41226.98
538.865	41163.49
539.065	41620.19
539.266	40844.01
539.466	41188.06
539.667	41011.94
539.868	41652.95
540.068	41302.75
540.269	40956.64
540.469	41390.81
540.67	41468.64
540.87	41286.37
541.071	41153.25
541.271	41720.54
541.472	41106.15
541.672	40856.29
541.873	40858.34
542.073	40913.64
542.274	41562.84
542.474	40860.39
542.675	40717.03
542.875	41519.84
543.075	41108.19
543.276	40735.46
543.476	41439.96
543.676	40973.03
543.877	41206.5
544.077	41173.73
544.277	41097.95
544.478	40776.42
544.678	41288.42
544.878	41134.82
545.078	41183.97
545.279	40514.28
545.479	40639.21
545.679	40866.53
545.879	41040.61
546.079	41132.77
546.28	41114.34
546.48	40698.6
546.68	40866.53
546.88	41059.04
547.08	40911.59
547.28	40614.63
547.48	40340.21
547.68	40936.16
547.88	40452.84
548.081	41210.59
548.281	40868.58
548.481	40721.13
548.681	40776.42
548.881	40913.64
549.081	40692.46
549.28	40317.68
549.48	40786.66
549.68	40407.79
549.88	40590.06
550.08	40692.46
550.28	40839.91
550.48	40504.04
550.68	40858.34
550.88	40481.52
551.08	40422.12
551.279	40905.45
551.479	40415.98
551.679	40477.42
551.879	40262.38
552.079	40708.84
552.278	40153.84
552.478	40667.88
552.678	40168.18
552.878	40764.14
553.077	40377.07
553.277	40207.09
553.477	40772.33
553.676	39951.09
553.876	40434.41
554.076	40092.4
554.275	40504.04
554.475	40002.29
554.674	39940.85
554.874	40211.18
555.074	39942.9
555.273	40338.16
555.473	40370.93
555.672	39873.27
555.872	39672.57
556.071	40041.2
556.271	40432.36
556.47	39867.12
556.67	39443.2
556.869	39647.99
557.068	39611.13
557.268	39656.18
557.467	39549.69
557.667	39803.64
557.866	39609.08
558.065	39457.53
558.265	39197.44
558.464	39133.95
558.663	39754.49
558.863	39099.14
559.062	39985.91
559.261	38820.61
559.461	39080.7
559.66	38619.91
559.859	39129.86
560.058	39136
560.258	39131.9
560.457	38673.16
560.656	39359.23
560.855	38837
561.054	38994.69
561.253	38501.13
561.453	38712.07
561.652	38494.99
561.851	38828.8
562.05	38413.07
562.249	38335.24
562.448	38556.42
562.647	38873.86
562.846	38392.59
563.045	38605.58
563.244	37997.33
563.443	38525.71
563.642	37600.02
563.841	38015.76
564.04	37577.5
564.239	38249.23
564.438	37559.06
564.637	37813.01
564.836	38107.92
565.035	37561.11
565.234	37849.88
565.432	37477.15
565.631	37104.42
565.83	37581.59
566.029	37153.57
566.228	37055.26
566.427	37405.47
566.625	36705.06
566.824	36815.65
567.023	37284.64
567.222	36680.49
567.42	37368.6
567.619	36856.61
567.818	36786.98
568.016	36385.58
568.215	36936.48
568.414	36424.49
568.612	36780.84
568.811	36285.23
569.01	36397.87
569.208	36119.34
569.407	36463.4
569.605	35758.9
569.804	36049.71
570.002	35816.24
570.201	36115.25
570.4	35826.48
570.598	35558.2
570.797	35404.6
570.995	35707.7
571.193	35558.2
571.392	35253.05
571.59	35115.84
571.789	35126.08
571.987	35412.79
572.186	35027.77
572.384	35140.41
572.582	34992.96
572.781	34839.36
572.979	34186.06
573.177	34700.1
573.376	34976.58
573.574	34270.03
573.772	34407.24
573.971	34243.4
574.169	34147.15
574.367	33989.45
574.565	34440.01
574.763	34083.66
574.962	34265.93
575.16	33891.15
575.358	33684.31
575.556	33686.36
575.754	33993.55
575.952	33465.17
576.151	33573.72
576.349	33168.22
576.547	33618.77
576.745	33135.45
576.943	33262.43
577.141	33143.64
577.339	33338.2
577.537	32994.14
577.735	32930.65
577.933	32500.58
578.131	33127.26
578.329	32527.2
578.527	32738.15
578.725	32732
578.923	32533.35
579.121	32736.1
579.319	32308.07
579.516	32625.51
579.714	31882.09
579.912	31988.59
580.11	32142.19
580.308	32019.31
580.506	32058.22
580.704	31626.1
580.901	31755.12
581.099	32031.6
581.297	31380.34
581.495	31478.65
581.692	31535.99
581.89	31212.41
582.088	31329.14
582.285	30788.48
582.483	31339.38
582.681	31073.15
582.878	31167.35
583.076	30620.55
583.274	30870.4
583.471	30366.6
583.669	30641.03
583.866	30376.84
584.064	30501.76
584.262	30167.94
584.459	30872.45
584.657	30305.16
584.854	30540.68
585.052	29961.1
585.249	30299.01
585.447	30352.26
585.644	29690.77
585.841	29387.67
586.039	30086.03
586.236	29395.86
586.434	29440.92
586.631	29436.82
586.828	29346.71
587.026	28967.84
587.223	29229.98
587.42	29320.09
587.618	29580.18
587.815	28879.77
588.012	28740.51
588.21	28799.9
588.407	29143.96
588.604	28681.12
588.801	28750.75
588.999	28752.8
589.196	28603.3
589.393	28564.39
589.59	28312.49
589.787	28128.17
589.984	28189.61
590.182	28103.59
590.379	28052.39
590.576	27726.77
590.773	27577.26
590.97	27458.48
591.167	28044.2
591.364	27593.65
591.561	27825.07
591.758	27362.23
591.955	27556.78
592.152	27427.76
592.349	27087.8
592.546	27491.25
592.743	27261.88
592.94	26604.48
593.137	26868.67
593.334	27165.62
593.531	26688.45
593.727	26823.61
593.924	26756.03
594.121	26215.37
594.318	26706.88
594.515	26231.75
594.712	26547.14
594.908	26188.74
595.105	26315.72
595.302	26063.82
595.499	26276.8
595.696	26145.73
595.892	25791.44
596.089	25887.69
596.286	25617.36
596.482	26209.22
596.679	25824.2
596.876	25867.21
597.072	25502.67
597.269	25588.69
597.466	25433.04
597.662	24992.73
597.859	25091.03
598.055	25269.2
598.252	24998.87
598.448	25109.46
598.645	25117.65
598.841	24873.95
599.038	24937.43
599.234	24808.41
599.431	24441.82
599.627	24318.95
599.824	24669.15
600.02	24320.99
600.217	24384.48
600.413	24058.85
600.609	24021.99
600.806	24191.97
601.002	24345.57
601.198	23772.14
601.395	23989.22
601.591	23643.12
601.787	23608.3
601.984	23544.81
602.18	23874.54
602.376	23499.76
602.572	23407.6
602.769	23327.73
602.965	23149.56
603.161	23133.17
603.357	23127.03
603.553	22793.21
603.75	23151.6
603.946	22889.46
604.142	22903.8
604.338	22727.67
604.534	22955
604.73	22590.46
604.926	22561.79
605.122	22735.87
605.318	22430.72
605.514	22486.01
605.71	22445.05
605.906	22918.14
606.102	22346.75
606.298	22266.88
606.494	22162.44
606.69	21935.11
606.886	22074.37
607.082	21851.14
607.278	21963.78
607.474	21836.81
607.67	22193.15
607.866	21609.48
608.062	21890.06
608.257	21861.38
608.453	21605.39
608.649	21584.91
608.845	21410.83
609.041	21582.86
609.236	21640.2
609.432	21595.15
609.628	21326.86
609.824	21292.05
610.019	21216.27
610.215	21058.58
610.411	21505.04
610.606	21130.26
610.802	20978.71
610.998	20892.69
611.193	20808.73
611.389	20954.13
611.584	20886.55
611.78	20780.06
611.976	20583.45
612.171	20839.45
612.367	20745.24
612.562	20595.74
612.758	20685.85
612.953	20143.14
613.149	20696.09
613.344	20335.65
613.539	20706.33
613.735	20655.13
613.93	20538.4
614.126	20311.07
614.321	20538.4
614.517	20280.35
614.712	20458.53
614.907	20237.34
615.103	20247.58
615.298	20096.03
615.493	20120.61
615.688	20038.69
615.884	20536.35
616.079	19811.37
616.274	19852.33
616.47	19921.96
616.665	19979.3
616.86	19833.89
617.055	19837.99
617.25	19690.54
617.445	20014.12
617.641	19573.8
617.836	19651.63
618.031	19358.77
618.226	19614.76
618.421	19276.85
618.616	19598.38
618.811	19119.15
619.006	19547.18
619.201	18869.3
619.396	19012.66
619.591	18768.95
619.786	19082.29
619.981	18621.5
620.176	19229.74
620.371	18560.06
620.566	18842.68
620.761	18531.39
620.956	18562.11
621.151	18502.72
621.346	18394.17
621.541	17982.53
621.735	18363.45
621.93	17894.47
622.125	18156.61
622.32	17679.43
622.515	18015.3
622.709	17572.94
622.904	17710.15
623.099	17622.09
623.294	17534.03
623.488	17228.88
623.683	17407.05
623.878	17073.23
624.072	17081.42
624.267	17146.96
624.462	17155.15
624.656	16778.33
624.851	16716.89
625.046	16634.97
625.24	16444.51
625.435	16452.7
625.629	16235.61
625.824	16368.73
626.018	16178.27
626.213	15883.36
626.407	15912.03
626.602	15965.28
626.796	16086.11
626.991	15944.8
627.185	15803.49
627.38	15565.93
627.574	15484.01
627.768	15486.06
627.963	15254.64
628.157	15090.8
628.352	15338.6
628.546	15170.67
628.74	14988.4
628.935	15168.62
629.129	14980.21
629.323	14576.76
629.517	14834.8
629.712	14746.74
629.906	14587
630.1	14247.04
630.294	14500.98
630.489	14341.24
630.683	14290.04
630.877	13888.64
631.071	14130.3
631.265	14134.4
631.459	13941.89
631.653	13837.44
631.848	13902.98
632.042	13833.35
632.236	13905.03
632.43	13569.16
632.624	13653.12
632.818	13460.62
633.012	13382.79
633.206	13477
633.4	13382.79
633.594	13102.22
633.788	13171.85
633.982	13302.92
634.176	13153.42
634.369	12928.14
634.563	12913.81
634.757	12825.75
634.951	12944.53
635.145	12596.37
635.339	12715.16
635.533	12479.64
635.726	12672.15
635.92	12399.77
636.114	12297.37
636.308	12231.83
636.501	12264.6
636.695	12215.45
636.889	12133.53
637.083	12047.52
637.276	11822.24
637.47	11879.58
637.664	11887.78
637.857	11805.86
638.051	11670.69
638.244	11685.03
638.438	11775.14
638.632	11619.49
638.825	11539.62
639.019	11424.93
639.212	11365.54
639.406	11367.59
639.599	11287.72
639.793	11300.01
639.986	10878.13
640.18	11097.26
640.373	11107.5
640.567	10880.18
640.76	11052.2
640.954	10876.08
641.147	10527.92
641.34	10869.94
641.534	10677.43
641.727	10550.45
641.92	10796.21
642.114	10630.32
642.307	10464.44
642.5	10300.6
642.694	10149.05
642.887	10099.9
643.08	10233.02
643.273	10169.53
643.467	10134.71
643.66	10136.76
643.853	10013.88
644.046	9979.07
644.239	10083.52
644.432	9712.83
644.626	9723.07
644.819	9837.76
645.012	9843.9
645.205	9743.55
645.398	9530.56
645.591	9600.19
645.784	9807.04
645.977	9434.31
646.17	9569.48
646.363	9276.62
646.556	9286.86
646.749	9305.29
646.942	9125.07
647.135	9258.18
647.328	8936.65
647.521	9131.21
647.714	8955.08
647.907	8975.56
648.099	8895.69
648.292	9241.8
648.485	8998.09
648.678	8781.01
648.871	8875.21
649.064	8547.54
649.256	8623.31
649.449	8539.35
649.642	8422.61
649.835	8428.76
650.027	8377.56
650.22	8242.39
650.413	8365.27
650.605	8266.97
650.798	8256.73
650.991	8139.99
651.183	8123.61
651.376	8269.02
651.568	8144.09
651.761	8041.69
651.954	8129.75
652.146	8094.94
652.339	7996.64
652.531	7939.29
652.724	7970.01
652.916	7912.67
653.109	7947.48
653.301	7857.37
653.494	7740.64
653.686	7748.83
653.879	7802.08
654.071	7513.31
654.263	7447.78
654.456	7564.51
654.648	7619.81
654.84	7472.36
655.033	7412.96
655.225	7353.57
655.417	7285.99
655.61	7376.1
655.802	7146.73
655.994	6954.22
656.186	7267.56
656.379	7062.76
656.571	7169.26
656.763	6980.84
656.955	6948.08
657.148	6845.68
657.34	6876.4
657.532	6952.17
657.724	6776.05
657.916	6798.57
658.108	6890.73
658.3	6714.61
658.492	6647.02
658.684	6759.66
658.876	6649.07
659.068	6784.24
659.26	6454.51
659.452	6642.93
659.644	6491.38
659.836	6448.37
660.028	6448.37
660.22	6419.7
660.412	6321.4
660.604	6266.1
660.796	6427.89
660.988	6350.07
661.18	6259.96
661.372	6087.93
661.563	6264.05
661.755	6049.02
661.947	6087.93
662.139	6104.31
662.331	5967.1
662.522	6030.59
662.714	5987.58
662.906	6022.39
663.097	5985.53
663.289	5893.37
663.481	5811.45
663.673	5907.71
663.864	5768.45
664.056	5623.04
664.247	5795.07
664.439	5586.18
664.631	5752.06
664.822	5592.32
665.014	5625.09
665.205	5666.05
665.397	5651.71
665.588	5457.15
665.78	5360.9
665.971	5522.69
666.163	5522.69
666.354	5489.92
666.546	5324.04
666.737	5362.95
666.929	5287.17
667.12	5291.27
667.311	5303.56
667.503	5262.6
667.694	5348.61
667.885	5233.93
668.077	5123.34
668.268	5139.72
668.459	5238.02
668.651	5025.03
668.842	5180.68
669.033	5147.91
669.224	4984.07
669.416	5166.34
669.607	5152.01
669.798	4975.88
669.989	5006.6
670.18	5002.51
670.371	4916.49
670.563	4934.92
670.754	4859.15
670.945	4896.01
671.136	4867.34
671.327	4797.71
671.518	4648.21
671.709	4793.61
671.9	4795.66
672.091	4738.32
672.282	4519.18
672.473	4728.08
672.664	4799.76
672.855	4531.47
673.046	4646.16
673.237	4533.52
673.428	4517.14
673.619	4629.77
673.809	4453.65
674	4594.96
674.191	4500.75
674.382	4363.54
674.573	4449.55
674.764	4386.07
674.954	4287.76
675.145	4361.49
675.336	4367.63
675.527	4384.02
675.717	4322.58
675.908	4211.99
676.099	4314.39
676.289	4236.56
676.48	4353.3
676.671	4109.59
676.861	4152.6
677.052	4207.89
677.243	4130.07
677.433	4089.11
677.624	4134.17
677.814	4078.87
678.005	4105.49
678.195	4218.13
678.386	3988.76
678.576	3941.66
678.767	3919.13
678.957	4076.82
679.148	3966.23
679.338	3958.04
679.529	4031.77
679.719	3818.78
679.909	3863.83
680.1	3908.89
680.29	3927.32
680.481	3771.68
680.671	3917.08
680.861	3806.49
681.052	3794.2
681.242	3753.24
681.432	3796.25
681.622	3777.82
681.813	3704.09
682.003	3845.4
682.193	3769.63
682.383	3712.28
682.573	3704.09
682.764	3650.85
682.954	3693.85
683.144	3685.66
683.334	3640.61
683.524	3683.61
683.714	3732.76
683.904	3562.78
684.094	3540.26
684.284	3656.99
684.474	3697.95
684.664	3493.15
684.854	3607.84
685.044	3573.02
685.234	3523.87
685.424	3613.98
685.614	3417.38
685.804	3484.96
685.994	3499.3
686.184	3509.54
686.374	3495.2
686.564	3274.02
686.753	3314.98
686.943	3540.26
687.133	3468.58
687.323	3487.01
687.513	3380.51
687.702	3294.5
687.892	3372.32
688.082	3274.02
688.272	3306.79
688.461	3292.45
688.651	3101.99
688.841	3153.19
689.03	3292.45
689.22	3302.69
689.41	3147.05
689.599	3114.28
689.789	3208.48
689.979	3181.86
690.168	3038.5
690.358	3056.93
690.547	3097.89
690.737	3179.81
690.926	3228.96
691.116	3151.14
691.305	3034.41
691.495	2946.34
691.684	2979.11
691.874	3077.41
692.063	3058.98
692.252	3009.83
692.442	2966.82
692.631	2880.81
692.82	3167.53
693.01	2921.77
693.199	3007.78
693.388	2950.44
693.578	2833.71
693.767	2972.97
693.956	2882.86
694.146	2952.49
694.335	2753.84
694.524	2850.09
694.713	2917.67
694.902	2884.91
695.092	2782.51
695.281	2934.06
695.47	2843.95
695.659	2725.16
695.848	2753.84
696.037	2716.97
696.226	2792.75
696.415	2764.08
696.604	2807.08
696.793	2778.41
696.982	2747.69
697.171	2841.9
697.36	2833.71
697.549	2755.88
697.738	2673.96
697.927	2755.88
698.116	2667.82
698.305	2737.45
698.494	2522.41
698.683	2690.35
698.872	2782.51
699.061	2688.3
699.25	2565.42
699.438	2665.77
699.627	2616.62
699.816	2712.88
700.005	2592.05
700.193	2659.63
700.382	2676.01
700.571	2612.53
700.76	2549.04
700.948	2649.39
701.137	2630.96
701.326	2608.43
701.514	2598.19
701.703	2581.81
701.892	2624.81
702.08	2635.05
702.269	2458.93
702.457	2485.55
702.646	2544.94
702.834	2442.54
703.023	2475.31
703.212	2602.29
703.4	2608.43
703.589	2499.89
703.777	2389.3
703.965	2446.64
704.154	2524.46
704.342	2438.45
704.531	2417.97
704.719	2553.13
704.907	2542.89
705.096	2440.5
705.284	2581.81
705.472	2497.84
705.661	2516.27
705.849	2430.26
706.037	2563.37
706.226	2512.18
706.414	2436.4
706.602	2417.97
706.79	2432.3
706.979	2426.16
707.167	2393.39
707.355	2383.15
707.543	2346.29
707.731	2524.46
707.919	2409.78
708.107	2436.4
708.296	2551.09
708.484	2389.3
708.672	2432.3
708.86	2477.36
709.048	2426.16
709.236	2352.43
709.424	2395.44
709.612	2415.92
709.8	2278.71
709.988	2336.05
710.176	2407.73
710.364	2508.08
710.551	2479.41
710.739	2581.81
710.927	2297.14
711.115	2440.5
711.303	2483.5
711.491	2368.82
711.679	2364.72
711.866	2364.72
712.054	2450.74
712.242	2385.2
712.43	2442.54
712.617	2483.5
712.805	2428.21
712.993	2426.16
713.181	2338.1
713.368	2354.48
713.556	2315.57
713.744	2264.37
713.931	2377.01
714.119	2278.71
714.306	2331.95
714.494	2311.47
714.682	2278.71
714.869	2350.39
715.057	2379.06
715.244	2290.99
715.432	2469.17
715.619	2311.47
715.807	2307.38
715.994	2381.1
716.182	2305.33
716.369	2286.9
716.556	2389.3
716.744	2327.86
716.931	2301.23
717.119	2321.71
717.306	2350.39
717.493	2458.93
717.681	2295.09
717.868	2434.35
718.055	2286.9
718.242	2284.85
718.43	2354.48
718.617	2393.39
718.804	2325.81
718.991	2354.48
719.179	2295.09
719.366	2290.99
719.553	2360.63
719.74	2342.19
719.927	2401.58
720.114	2311.47
720.301	2395.44
720.488	2301.23
720.676	2356.53
720.863	2327.86
721.05	2282.8
721.237	2405.68
721.424	2409.78
721.611	2192.69
721.798	2245.94
721.985	2254.13
722.172	2282.8
722.358	2295.09
722.545	2250.03
722.732	2286.9
722.919	2331.95
723.106	2278.71
723.293	2229.56
723.48	2262.32
723.667	2221.36
723.853	2237.75
724.04	2250.03
724.227	2241.84
724.414	2293.04
724.6	2284.85
724.787	2317.62
724.974	2288.95
725.161	2405.68
725.347	2161.97
725.534	2303.28
725.72	2239.8
725.907	2274.61
726.094	2319.67
726.28	2133.3
726.467	2321.71
726.653	2284.85
726.84	2297.14
727.027	2311.47
727.213	2297.14
727.4	2379.06
727.586	2243.89
727.773	2323.76
727.959	2278.71
728.145	2266.42
728.332	2182.45
728.518	2231.6
728.705	2340.15
728.891	2239.8
729.077	2231.6
729.264	2254.13
729.45	2233.65
729.636	2303.28
729.823	2217.27
730.009	2280.75
730.195	2168.12
730.382	2280.75
730.568	2293.04
730.754	2180.4
730.94	2317.62
731.126	2286.9
731.313	2221.36
731.499	2315.57
731.685	2174.26
731.871	2262.32
732.057	2286.9
732.243	2215.22
732.429	2247.99
732.615	2172.21
732.801	2219.32
732.987	2213.17
733.173	2270.51
733.359	2149.68
733.545	2133.3
733.731	2233.65
733.917	2227.51
734.103	2155.83
734.289	2264.37
734.475	2082.1
734.661	2301.23
734.847	2188.6
735.033	2166.07
735.219	2233.65
735.404	2057.53
735.59	2223.41
735.776	2084.15
735.962	2123.06
736.148	2225.46
736.333	2264.37
736.519	2166.07
736.705	2288.95
736.89	2135.35
737.076	2159.92
737.262	2114.87
737.447	2221.36
737.633	2051.38
737.819	2143.54
738.004	2080.05
738.19	2123.06
738.375	2131.25
738.561	2204.98
738.747	2082.1
738.932	2168.12
739.118	2188.6
739.303	2106.68
739.489	2100.53
739.674	2051.38
739.859	2051.38
740.045	2170.16
740.23	2041.14
740.416	2000.18
740.601	2139.44
740.786	2045.24
740.972	2108.73
741.157	2086.2
741.342	2051.38
741.528	2020.66
741.713	2018.61
741.898	2168.12
742.084	2098.49
742.269	2059.57
742.454	2080.05
742.639	2063.67
742.824	2043.19
743.01	2030.9
743.195	2008.37
743.38	1977.66
743.565	2008.37
743.75	1932.6
743.935	1920.31
744.12	1965.37
744.305	1944.89
744.49	1951.03
744.675	1914.17
744.86	1828.15
745.045	1934.65
745.23	1824.06
745.415	1877.3
745.6	1826.11
745.785	1844.54
745.97	1905.98
746.155	1817.91
746.34	1750.33
746.525	1893.69
746.71	1844.54
746.895	1791.29
747.079	1713.47
747.264	1844.54
747.449	1770.81
747.634	1768.76
747.819	1910.07
748.003	1795.39
748.188	1690.94
748.373	1754.43
748.557	1668.41
748.742	1697.08
748.927	1697.08
749.111	1742.14
749.296	1600.83
749.481	1721.66
749.665	1660.22
749.85	1586.49
750.034	1719.61
750.219	1639.74
750.404	1580.35
750.588	1574.21
750.773	1623.36
750.957	1639.74
751.141	1633.6
751.326	1615.16
751.51	1508.67
751.695	1498.43
751.879	1475.9
752.064	1578.3
752.248	1537.34
752.432	1629.5
752.617	1451.33
752.801	1512.77
752.985	1492.29
753.17	1557.82
753.354	1572.16
753.538	1393.98
753.722	1486.14
753.907	1451.33
754.091	1475.9
754.275	1516.86
754.459	1330.5
754.643	1447.23
754.828	1445.18
755.012	1404.22
755.196	1320.26
755.38	1273.15
755.564	1330.5
755.748	1289.54
755.932	1379.65
756.116	1410.37
756.3	1312.07
756.484	1312.07
756.668	1332.54
756.852	1297.73
757.036	1246.53
757.22	1295.68
757.404	1279.3
757.588	1273.15
757.772	1301.83
757.956	1195.33
758.14	1258.82
758.323	1160.52
758.507	1172.8
758.691	1189.19
758.875	1205.57
759.059	1199.43
759.242	1205.57
759.426	1250.63
759.61	1082.69
759.794	1217.86
759.977	1133.89
760.161	1209.67
760.345	1127.75
760.528	1074.5
760.712	1084.74
760.895	1199.43
761.079	1086.79
761.263	1090.88
761.446	1090.88
761.63	1121.6
761.813	1074.5
761.997	1070.4
762.18	1013.06
762.364	1078.6
762.547	1076.55
762.731	1082.69
762.914	1115.46
763.098	965.96
763.281	1021.25
763.464	1041.73
763.648	1127.75
763.831	1045.83
764.015	992.58
764.198	943.43
764.381	1000.77
764.564	1074.5
764.748	1045.83
764.931	1033.54
765.114	986.44
765.297	955.72
765.481	900.42
765.664	910.66
765.847	990.53
766.03	955.72
766.213	994.63
766.397	976.2
766.58	918.86
766.763	1037.64
766.946	959.81
767.129	976.2
767.312	875.85
767.495	1002.82
767.678	886.09
767.861	935.24
768.044	984.39
768.227	918.86
768.41	898.38
768.593	992.58
768.776	927.05
768.959	912.71
769.142	947.53
769.324	853.32
769.507	898.38
769.69	951.62
769.873	955.72
770.056	918.86
770.239	873.8
770.421	914.76
770.604	929.1
770.787	914.76
770.97	886.09
771.152	890.18
771.335	863.56
771.518	849.22
771.7	888.14
771.883	867.66
772.066	820.55
772.248	873.8
772.431	922.95
772.613	812.36
772.796	795.98
772.978	834.89
773.161	855.37
773.343	853.32
773.526	755.02
773.708	814.41
773.891	777.55
774.073	759.11
774.256	718.15
774.438	863.56
774.621	800.07
774.803	675.15
774.985	767.31
775.168	734.54
775.35	763.21
775.532	775.5
775.715	726.35
775.897	705.87
776.079	740.68
776.261	693.58
776.444	691.53
776.626	716.11
776.808	681.29
776.99	683.34
777.173	660.81
777.355	755.02
777.537	685.39
777.719	730.44
777.901	705.87
778.083	619.85
778.265	632.14
778.447	693.58
778.629	664.91
778.811	658.76
778.993	722.25
779.175	697.67
779.357	623.95
779.539	648.52
779.721	660.81
779.903	617.8
780.085	576.84
780.267	693.58
780.449	617.8
780.631	654.67
780.812	623.95
780.994	599.37
781.176	529.74
781.358	535.89
781.54	582.99
781.721	544.08
781.903	570.7
782.085	574.8
782.267	542.03
782.448	533.84
782.63	607.56
782.812	546.13
782.993	568.65
783.175	542.03
783.357	599.37
783.538	527.69
783.72	525.65
783.901	443.73
784.083	576.84
784.264	472.4
784.446	464.21
784.627	478.54
784.809	460.11
784.99	492.88
785.172	490.83
785.353	496.97
785.535	472.4
785.716	415.06
785.897	419.15
786.079	460.11
786.26	478.54
786.441	521.55
786.623	419.15
786.804	470.35
786.985	413.01
787.167	447.82
787.348	451.92
787.529	460.11
787.71	419.15
787.891	476.49
788.073	396.62
788.254	415.06
788.435	462.16
788.616	425.29
788.797	341.33
788.978	427.34
789.159	410.96
789.34	402.77
789.522	398.67
789.703	453.97
789.884	427.34
790.065	419.15
790.246	503.12
790.427	382.29
790.607	433.49
790.788	394.58
790.969	341.33
791.15	406.86
791.331	439.63
791.512	347.47
791.693	271.7
791.874	417.1
792.054	431.44
792.235	363.86
792.416	322.9
792.597	300.37
792.778	322.9
792.958	406.86
793.139	333.14
793.32	324.94
793.5	314.7
793.681	345.42
793.862	347.47
794.042	386.38
794.223	265.55
794.404	283.99
794.584	238.93
794.765	288.08
794.945	308.56
795.126	357.71
795.306	361.81
795.487	378.19
795.667	306.51
795.848	331.09
796.028	324.94
796.209	320.85
796.389	267.6
796.57	339.28
796.75	279.89
796.93	277.84
797.111	290.13
797.291	324.94
797.471	331.09
797.652	306.51
797.832	257.36
798.012	353.62
798.192	218.45
798.373	245.07
798.553	238.93
798.733	349.52
798.913	259.41
799.093	224.59
799.274	283.99
799.454	275.79
799.634	271.7
799.814	333.14
799.994	255.31
800.174	226.64
800.354	206.16
800.534	200.02
800.714	259.41
800.894	173.39
801.074	247.12
801.254	298.32
801.434	214.35
801.614	226.64
801.794	216.4
801.974	865.61
802.154	318.8
802.334	200.02
802.514	261.46
802.693	288.08
802.873	218.45
803.053	312.66
803.233	269.65
803.413	296.27
803.592	183.63
803.772	238.93
803.952	228.69
804.131	220.5
804.311	165.2
804.491	208.21
804.67	181.59
804.85	200.02
805.03	236.88
805.209	230.74
805.389	255.31
805.568	232.79
805.748	167.25
805.928	165.2
806.107	208.21
806.287	232.79
806.466	243.03
806.646	173.39
806.825	167.25
807.004	259.41
807.184	189.78
807.363	214.35
807.543	210.26
807.722	200.02
807.901	230.74
808.081	249.17
808.26	163.15
808.439	157.01
808.619	191.83
808.798	288.08
808.977	197.97
809.156	210.26
809.336	159.06
809.515	214.35
809.694	181.59
809.873	212.31
810.052	157.01
810.231	185.68
810.411	271.7
810.59	232.79
810.769	189.78
810.948	238.93
811.127	140.63
811.306	173.39
811.485	118.1
811.664	247.12
811.843	212.31
812.022	185.68
812.201	210.26
812.38	148.82
812.559	181.59
812.737	171.35
812.916	173.39
813.095	126.29
813.274	120.15
813.453	238.93
813.632	173.39
813.811	189.78
813.989	157.01
814.168	109.91
814.347	171.35
814.526	132.44
814.704	157.01
814.883	134.48
815.062	128.34
815.24	173.39
815.419	165.2
815.598	148.82
815.776	101.72
815.955	167.25
816.133	91.48
816.312	202.07
816.49	157.01
816.669	165.2
816.847	148.82
817.026	124.24
817.204	144.72
817.383	132.44
817.561	91.48
817.74	132.44
817.918	136.53
818.097	77.14
818.275	93.52
818.453	138.58
818.632	101.72
818.81	91.48
818.988	68.95
819.167	83.28
819.345	189.78
819.523	148.82
819.701	132.44
819.879	191.83
820.058	128.34
820.236	144.72
820.414	52.56
820.592	83.28
820.77	152.92
820.948	159.06
821.127	152.92
821.305	173.39
821.483	132.44
821.661	132.44
821.839	91.48
822.017	116.05
822.195	79.19
822.373	120.15
822.551	99.67
822.729	152.92
822.907	130.39
823.085	95.57
823.262	107.86
823.44	161.11
823.618	189.78
823.796	107.86
823.974	91.48
824.152	91.48
824.329	132.44
824.507	99.67
824.685	118.1
824.863	167.25
825.04	175.44
825.218	79.19
825.396	132.44
825.574	120.15
825.751	114
825.929	124.24
826.107	56.66
826.284	159.06
826.462	165.2
826.639	91.48
826.817	17.75
826.994	48.47
827.172	107.86
827.349	116.05
827.527	107.86
827.704	60.76
827.882	101.72
828.059	66.9
828.237	152.92
828.414	128.34
828.591	30.04
828.769	130.39
828.946	75.09
829.124	124.24
829.301	50.52
829.478	89.43
829.655	62.8
829.833	83.28
830.01	95.57
830.187	114
830.364	9.56
830.542	75.09
830.719	77.14
830.896	161.11
831.073	87.38
831.25	7.51
831.427	91.48
831.604	97.62
831.782	71
831.959	56.66
832.136	75.09
832.313	77.14
832.49	152.92
832.667	46.42
832.844	116.05
833.021	171.35
833.198	83.28
833.374	75.09
833.551	48.47
833.728	15.7
833.905	54.61
834.082	44.37
834.259	157.01
834.436	34.13
834.612	62.8
834.789	173.39
834.966	107.86
835.143	75.09
835.319	99.67
835.496	118.1
835.673	19.8
835.85	91.48
836.026	103.76
836.203	169.3
836.38	87.38
836.556	46.42
836.733	68.95
836.909	77.14
837.086	52.56
837.262	75.09
837.439	25.94
837.616	91.48
837.792	50.52
837.968	46.42
838.145	17.75
838.321	136.53
838.498	68.95
838.674	118.1
838.851	66.9
839.027	58.71
839.203	42.32
839.38	73.04
839.556	27.99
839.732	52.56
839.909	50.52
840.085	89.43
840.261	11.61
840.437	30.04
840.614	-2.73
840.79	124.24
840.966	95.57
841.142	116.05
841.318	40.28
841.494	140.63
841.671	85.33
841.847	44.37
842.023	5.46
842.199	75.09
842.375	109.91
842.551	17.75
842.727	44.37
842.903	140.63
843.079	40.28
843.255	19.8
843.431	36.18
843.607	71
843.783	54.61
843.959	52.56
844.134	19.8
844.31	68.95
844.486	27.99
844.662	91.48
844.838	3.41
845.013	13.65
845.189	73.04
845.365	66.9
845.541	66.9
845.716	25.94
845.892	124.24
846.068	-6.83
846.244	42.32
846.419	50.52
846.595	25.94
846.77	64.85
846.946	19.8
847.122	17.75
847.297	148.82
847.473	120.15
847.648	46.42
847.824	79.19
847.999	-37.55
848.175	52.56
848.35	66.9
848.526	13.65
848.701	111.96
848.876	52.56
849.052	27.99
849.227	-4.78
849.403	40.28
849.578	11.61
849.753	42.32
849.929	75.09
850.104	19.8
850.279	62.8
850.454	79.19
850.63	66.9
850.805	79.19
850.98	83.28
851.155	85.33
851.33	85.33
851.505	19.8
851.681	68.95
851.856	3.41
852.031	50.52
852.206	46.42
852.381	1.37
852.556	9.56
852.731	46.42
852.906	68.95
853.081	64.85
853.256	32.08
853.431	58.71
853.606	52.56
853.781	75.09
853.956	-31.4
854.131	15.7
854.305	27.99
854.48	17.75
854.655	25.94
854.83	48.47
855.005	58.71
855.18	5.46
855.354	99.67
855.529	38.23
855.704	-6.83
855.879	68.95
856.053	9.56
856.228	58.71
856.403	34.13
856.577	42.32
856.752	-29.35
856.926	30.04
857.101	93.52
857.276	11.61
857.45	11.61
857.625	19.8
857.799	30.04
857.974	48.47
858.148	1.37
858.323	56.66
858.497	23.89
858.672	-94.89
858.846	44.37
859.02	19.8
859.195	-15.02
859.369	42.32
859.543	11.61
859.718	62.8
859.892	91.48
860.066	77.14
860.241	19.8
860.415	27.99
860.589	1.37
860.763	83.28
860.938	11.61
861.112	66.9
861.286	60.76
861.46	91.48
861.634	30.04
861.808	-19.11
861.982	62.8
862.157	-15.02
862.331	-0.68
862.505	11.61
862.679	-10.92
862.853	34.13
863.027	34.13
863.201	101.72
863.375	15.7
863.549	85.33
863.722	-19.11
863.896	62.8
864.07	62.8
864.244	58.71
864.418	-10.92
864.592	34.13
864.766	36.18
864.939	25.94
865.113	-6.83
865.287	21.85
865.461	21.85
865.634	99.67
865.808	44.37
865.982	-6.83
866.156	-23.21
866.329	-27.31
866.503	17.75
866.676	-80.55
866.85	77.14
867.024	30.04
867.197	42.32
867.371	107.86
867.544	38.23
867.718	-58.03
867.891	52.56
868.065	42.32
868.238	36.18
868.412	91.48
868.585	-19.11
868.759	1.37
868.932	54.61
869.105	-19.11
869.279	50.52
869.452	38.23
869.625	77.14
869.799	60.76
869.972	-23.21
870.145	11.61
870.319	27.99
870.492	13.65
870.665	-2.73
870.838	-6.83
871.011	5.46
871.185	54.61
871.358	-23.21
871.531	17.75
871.704	17.75
871.877	42.32
872.05	-37.55
872.223	-51.88
872.396	38.23
872.569	23.89
872.742	40.28
872.915	13.65
873.088	-31.4
873.261	107.86
873.434	32.08
873.607	25.94
873.78	42.32
873.953	19.8
874.126	13.65
874.299	-6.83
874.471	36.18
874.644	-12.97
874.817	32.08
874.99	-2.73
875.163	13.65
875.335	58.71
875.508	50.52
875.681	48.47
875.853	-41.64
876.026	30.04
876.199	48.47
876.371	56.66
876.544	38.23
876.717	-6.83
876.889	60.76
877.062	95.57
877.234	38.23
877.407	124.24
877.579	-23.21
877.752	40.28
877.924	9.56
878.097	58.71
878.269	107.86
878.442	-17.07
878.614	25.94
878.786	25.94
878.959	-19.11
879.131	79.19
879.303	-39.59
879.476	27.99
879.648	52.56
879.82	-12.97
879.993	-47.79
880.165	-6.83
880.337	-43.69
880.509	42.32
880.681	-47.79
880.854	75.09
881.026	5.46
881.198	54.61
881.37	46.42
881.542	-12.97
881.714	-2.73
881.886	79.19
882.058	-29.35
882.23	19.8
882.402	-2.73
882.574	9.56
882.746	25.94
882.918	34.13
883.09	25.94
883.262	17.75
883.434	77.14
883.606	95.57
883.778	-31.4
883.95	30.04
884.122	-15.02
884.293	-55.98
884.465	-31.4
884.637	66.9
884.809	40.28
884.98	27.99
885.152	42.32
885.324	52.56
885.496	17.75
885.667	-6.83
885.839	85.33
886.011	-4.78
886.182	-6.83
886.354	36.18
886.525	111.96
886.697	11.61
886.869	-15.02
887.04	-12.97
887.212	62.8
887.383	71
887.555	75.09
887.726	-6.83
887.897	-10.92
888.069	-29.35
888.24	11.61
888.412	23.89
888.583	60.76
888.754	50.52
888.926	3.41
889.097	34.13
889.268	-45.74
889.44	-23.21
889.611	-4.78
889.782	-12.97
889.953	-72.36
890.125	75.09
890.296	93.52
890.467	-6.83
890.638	-47.79
890.809	19.8
890.98	1.37
891.151	3.41
891.323	75.09
891.494	-19.11
891.665	19.8
891.836	19.8
892.007	-39.59
892.178	-19.11
892.349	-6.83
892.52	23.89
892.691	-39.59
892.862	-23.21
893.032	-15.02
893.203	1.37
893.374	17.75
893.545	11.61
893.716	-15.02
893.887	27.99
894.057	38.23
894.228	66.9
894.399	36.18
894.57	34.13
894.74	27.99
894.911	-35.5
895.082	42.32
895.253	-37.55
895.423	-8.87
895.594	99.67
895.764	40.28
895.935	7.51
896.106	42.32
896.276	9.56
896.447	58.71
896.617	-0.68
896.788	-6.83
896.958	3.41
897.129	68.95
897.299	9.56
897.47	71
897.64	-33.45
897.81	-23.21
897.981	-12.97
898.151	-64.17
898.322	83.28
898.492	3.41
898.662	-12.97
898.832	-72.36
899.003	25.94
899.173	-39.59
899.343	-37.55
899.513	-33.45
