Data from USB4F104151__217__14-45-29-887.txt Node

Date: Thu Mar 13 14:45:29 EDT 2025
User: louis
Spectrometer: USB4F10415
Trigger mode: 4
Integration Time (sec): 2.000000E-2
Scans to average: 1
Electric dark correction enabled: true
Nonlinearity correction enabled: false
Boxcar width: 0
XAxis mode: Wavelengths
Number of Pixels in Spectrum: 3648
>>>>>Begin Spectral Data<<<<<
178.204	-139.6
178.424	-139.6
178.644	-139.6
178.864	-102.74
179.084	-106.84
179.304	-0.34
179.524	52.91
179.744	28.33
179.964	89.77
180.184	-76.12
180.404	-16.73
180.624	28.33
180.844	-22.87
181.064	-8.53
181.283	-4.44
181.503	-57.68
181.723	-12.63
181.943	-31.06
182.163	42.67
182.383	-14.68
182.602	50.86
182.822	40.62
183.042	85.67
183.262	-41.3
183.482	50.86
183.701	42.67
183.921	1.71
184.141	-57.68
184.361	67.24
184.58	81.58
184.8	75.43
185.02	81.58
185.239	20.14
185.459	-4.44
185.679	57
185.898	-90.45
186.118	57
186.338	69.29
186.557	91.82
186.777	7.85
186.997	26.28
187.216	65.19
187.436	57
187.655	50.86
187.875	83.63
188.095	36.52
188.314	65.19
188.534	11.95
188.753	-6.49
188.973	24.23
189.192	102.06
189.412	3.75
189.631	-14.68
189.851	36.52
190.07	61.1
190.29	-20.82
190.509	3.75
190.729	32.43
190.948	34.47
191.168	134.82
191.387	108.2
191.607	24.23
191.826	-31.06
192.045	-26.96
192.265	7.85
192.484	81.58
192.704	132.78
192.923	-33.11
193.142	143.02
193.362	24.23
193.581	18.09
193.8	9.9
194.02	52.91
194.239	-12.63
194.458	28.33
194.678	7.85
194.897	40.62
195.116	-6.49
195.335	52.91
195.555	18.09
195.774	30.38
195.993	-0.34
196.212	40.62
196.432	3.75
196.651	40.62
196.87	32.43
197.089	81.58
197.308	24.23
197.528	24.23
197.747	-12.63
197.966	-0.34
198.185	73.39
198.404	-12.63
198.623	-4.44
198.842	34.47
199.062	32.43
199.281	75.43
199.5	-29.01
199.719	16.04
199.938	54.95
200.157	91.82
200.376	-61.78
200.595	36.52
200.814	16.04
201.033	61.1
201.252	83.63
201.471	9.9
201.69	11.95
201.909	65.19
202.128	95.91
202.347	52.91
202.566	77.48
202.785	-41.3
203.004	34.47
203.223	54.95
203.442	7.85
203.661	1.71
203.879	104.11
204.098	71.34
204.317	40.62
204.536	61.1
204.755	-18.77
204.974	1.71
205.193	59.05
205.411	65.19
205.63	24.23
205.849	20.14
206.068	30.38
206.287	-69.97
206.505	83.63
206.724	-8.53
206.943	-0.34
207.162	-22.87
207.381	20.14
207.599	73.39
207.818	48.81
208.037	44.71
208.255	20.14
208.474	26.28
208.693	81.58
208.911	-8.53
209.13	40.62
209.349	-24.92
209.567	67.24
209.786	-6.49
210.005	67.24
210.223	97.96
210.442	36.52
210.661	50.86
210.879	9.9
211.098	16.04
211.316	-16.73
211.535	91.82
211.753	24.23
211.972	52.91
212.191	38.57
212.409	9.9
212.628	-2.39
212.846	32.43
213.065	65.19
213.283	89.77
213.502	93.87
213.72	-14.68
213.938	73.39
214.157	69.29
214.375	-24.92
214.594	-16.73
214.812	36.52
215.031	-33.11
215.249	-26.96
215.467	75.43
215.686	7.85
215.904	73.39
216.122	-33.11
216.341	26.28
216.559	100.01
216.778	42.67
216.996	11.95
217.214	75.43
217.432	89.77
217.651	-4.44
217.869	24.23
218.087	-0.34
218.306	-49.49
218.524	48.81
218.742	-33.11
218.96	75.43
219.179	5.8
219.397	28.33
219.615	50.86
219.833	97.96
220.051	-24.92
220.27	3.75
220.488	65.19
220.706	61.1
220.924	-16.73
221.142	32.43
221.36	28.33
221.578	-16.73
221.796	32.43
222.015	-22.87
222.233	7.85
222.451	75.43
222.669	40.62
222.887	-16.73
223.105	-47.44
223.323	97.96
223.541	26.28
223.759	69.29
223.977	16.04
224.195	52.91
224.413	13.99
224.631	42.67
224.849	69.29
225.067	48.81
225.285	-67.92
225.503	54.95
225.721	-53.59
225.939	32.43
226.157	-26.96
226.375	36.52
226.592	-4.44
226.81	-57.68
227.028	48.81
227.246	57
227.464	20.14
227.682	-2.39
227.9	73.39
228.117	20.14
228.335	65.19
228.553	-16.73
228.771	57
228.989	50.86
229.206	104.11
229.424	24.23
229.642	32.43
229.86	24.23
230.077	34.47
230.295	26.28
230.513	73.39
230.731	48.81
230.948	20.14
231.166	57
231.384	81.58
231.601	18.09
231.819	30.38
232.037	22.19
232.254	32.43
232.472	87.72
232.689	-8.53
232.907	42.67
233.125	42.67
233.342	52.91
233.56	48.81
233.777	11.95
233.995	91.82
234.213	122.54
234.43	-16.73
234.648	-8.53
234.865	83.63
235.083	-0.34
235.3	11.95
235.518	97.96
235.735	65.19
235.953	67.24
236.17	59.05
236.388	26.28
236.605	69.29
236.822	73.39
237.04	91.82
237.257	34.47
237.475	44.71
237.692	118.44
237.909	32.43
238.127	57
238.344	57
238.562	81.58
238.779	-22.87
238.996	-0.34
239.214	28.33
239.431	-14.68
239.648	11.95
239.865	95.91
240.083	16.04
240.3	-20.82
240.517	42.67
240.735	110.25
240.952	118.44
241.169	9.9
241.386	-8.53
241.603	-4.44
241.821	26.28
242.038	22.19
242.255	40.62
242.472	59.05
242.689	67.24
242.907	75.43
243.124	46.76
243.341	16.04
243.558	-51.54
243.775	3.75
243.992	36.52
244.209	81.58
244.426	124.58
244.643	5.8
244.86	54.95
245.078	63.15
245.295	81.58
245.512	85.67
245.729	36.52
245.946	57
246.163	73.39
246.38	28.33
246.597	57
246.814	-4.44
247.031	65.19
247.248	65.19
247.464	24.23
247.681	57
247.898	16.04
248.115	167.59
248.332	5.8
248.549	18.09
248.766	75.43
248.983	-0.34
249.2	9.9
249.417	7.85
249.633	-12.63
249.85	36.52
250.067	32.43
250.284	24.23
250.501	30.38
250.717	36.52
250.934	32.43
251.151	40.62
251.368	36.52
251.585	106.15
251.801	48.81
252.018	-10.58
252.235	44.71
252.451	-6.49
252.668	-0.34
252.885	24.23
253.102	24.23
253.318	38.57
253.535	79.53
253.752	-8.53
253.968	16.04
254.185	-12.63
254.401	42.67
254.618	87.72
254.835	75.43
255.051	32.43
255.268	93.87
255.484	48.81
255.701	-35.16
255.917	85.67
256.134	-12.63
256.351	57
256.567	-37.2
256.784	67.24
257	26.28
257.217	75.43
257.433	20.14
257.65	65.19
257.866	1.71
258.082	48.81
258.299	-65.88
258.515	-65.88
258.732	40.62
258.948	-20.82
259.165	52.91
259.381	-33.11
259.597	61.1
259.814	61.1
260.03	89.77
260.246	18.09
260.463	93.87
260.679	61.1
260.895	7.85
261.112	16.04
261.328	57
261.544	3.75
261.761	126.63
261.977	57
262.193	-10.58
262.409	89.77
262.626	-8.53
262.842	40.62
263.058	42.67
263.274	1.71
263.49	32.43
263.707	91.82
263.923	-6.49
264.139	-0.34
264.355	73.39
264.571	65.19
264.787	16.04
265.004	1.71
265.22	50.86
265.436	-24.92
265.652	32.43
265.868	40.62
266.084	-47.44
266.3	52.91
266.516	-20.82
266.732	-8.53
266.948	-0.34
267.164	-8.53
267.38	24.23
267.596	50.86
267.812	48.81
268.028	-8.53
268.244	81.58
268.46	-16.73
268.676	-8.53
268.892	73.39
269.108	-41.3
269.324	16.04
269.54	48.81
269.756	48.81
269.972	-0.34
270.188	-22.87
270.403	40.62
270.619	-0.34
270.835	89.77
271.051	16.04
271.267	-41.3
271.483	-22.87
271.698	44.71
271.914	18.09
272.13	69.29
272.346	16.04
272.562	134.82
272.777	75.43
272.993	-0.34
273.209	3.75
273.425	18.09
273.64	42.67
273.856	73.39
274.072	50.86
274.287	40.62
274.503	-26.96
274.719	7.85
274.934	-16.73
275.15	-22.87
275.366	48.81
275.581	7.85
275.797	16.04
276.012	46.76
276.228	-24.92
276.444	42.67
276.659	36.52
276.875	-63.83
277.09	65.19
277.306	26.28
277.521	52.91
277.737	-18.77
277.952	34.47
278.168	69.29
278.383	32.43
278.599	44.71
278.814	102.06
279.03	5.8
279.245	40.62
279.461	-20.82
279.676	81.58
279.892	22.19
280.107	18.09
280.322	-12.63
280.538	-45.4
280.753	85.67
280.969	50.86
281.184	32.43
281.399	67.24
281.615	18.09
281.83	75.43
282.045	-45.4
282.26	-43.35
282.476	3.75
282.691	52.91
282.906	65.19
283.122	65.19
283.337	102.06
283.552	11.95
283.767	69.29
283.983	48.81
284.198	50.86
284.413	52.91
284.628	34.47
284.843	118.44
285.058	77.48
285.274	9.9
285.489	54.95
285.704	40.62
285.919	-98.64
286.134	59.05
286.349	65.19
286.564	57
286.779	89.77
286.995	9.9
287.21	-39.25
287.425	24.23
287.64	50.86
287.855	73.39
288.07	40.62
288.285	28.33
288.5	16.04
288.715	11.95
288.93	-0.34
289.145	32.43
289.36	50.86
289.575	16.04
289.79	57
290.004	83.63
290.219	-2.39
290.434	52.91
290.649	40.62
290.864	-33.11
291.079	-20.82
291.294	130.73
291.509	71.34
291.724	81.58
291.938	87.72
292.153	9.9
292.368	-24.92
292.583	18.09
292.798	18.09
293.012	-4.44
293.227	-96.6
293.442	48.81
293.657	5.8
293.871	44.71
294.086	100.01
294.301	97.96
294.516	50.86
294.73	67.24
294.945	28.33
295.16	147.11
295.374	65.19
295.589	42.67
295.804	28.33
296.018	3.75
296.233	-16.73
296.447	28.33
296.662	32.43
296.877	73.39
297.091	-8.53
297.306	48.81
297.52	26.28
297.735	57
297.949	38.57
298.164	42.67
298.378	-22.87
298.593	24.23
298.807	-47.44
299.022	36.52
299.236	32.43
299.451	-8.53
299.665	-18.77
299.88	-8.53
300.094	59.05
300.309	7.85
300.523	48.81
300.737	-16.73
300.952	54.95
301.166	69.29
301.381	20.14
301.595	83.63
301.809	18.09
302.024	-0.34
302.238	52.91
302.452	73.39
302.667	-31.06
302.881	97.96
303.095	85.67
303.309	34.47
303.524	-4.44
303.738	36.52
303.952	57
304.166	73.39
304.381	3.75
304.595	75.43
304.809	9.9
305.023	65.19
305.237	-33.11
305.452	73.39
305.666	40.62
305.88	52.91
306.094	81.58
306.308	-0.34
306.522	44.71
306.736	-6.49
306.95	50.86
307.164	85.67
307.379	34.47
307.593	48.81
307.807	85.67
308.021	50.86
308.235	54.95
308.449	16.04
308.663	40.62
308.877	134.82
309.091	22.19
309.305	65.19
309.519	-4.44
309.733	95.91
309.947	11.95
310.161	63.15
310.374	16.04
310.588	97.96
310.802	36.52
311.016	32.43
311.23	106.15
311.444	67.24
311.658	9.9
311.872	48.81
312.085	102.06
312.299	59.05
312.513	81.58
312.727	-22.87
312.941	-22.87
313.154	110.25
313.368	36.52
313.582	67.24
313.796	40.62
314.009	104.11
314.223	77.48
314.437	36.52
314.651	91.82
314.864	65.19
315.078	-20.82
315.292	16.04
315.505	7.85
315.719	3.75
315.933	32.43
316.146	42.67
316.36	18.09
316.573	40.62
316.787	108.2
317.001	34.47
317.214	24.23
317.428	85.67
317.641	16.04
317.855	48.81
318.068	34.47
318.282	34.47
318.495	108.2
318.709	81.58
318.922	-24.92
319.136	81.58
319.349	24.23
319.563	-24.92
319.776	-16.73
319.99	16.04
320.203	89.77
320.417	130.73
320.63	-26.96
320.843	36.52
321.057	-4.44
321.27	-8.53
321.483	67.24
321.697	81.58
321.91	-8.53
322.124	-8.53
322.337	77.48
322.55	57
322.763	44.71
322.977	91.82
323.19	26.28
323.403	-22.87
323.617	151.21
323.83	120.49
324.043	-4.44
324.256	48.81
324.469	83.63
324.683	48.81
324.896	26.28
325.109	67.24
325.322	-39.25
325.535	73.39
325.748	-8.53
325.962	36.52
326.175	93.87
326.388	83.63
326.601	-41.3
326.814	7.85
327.027	-4.44
327.24	87.72
327.453	40.62
327.666	77.48
327.879	32.43
328.092	71.34
328.305	-8.53
328.518	40.62
328.731	-20.82
328.944	26.28
329.157	24.23
329.37	48.81
329.583	9.9
329.796	44.71
330.009	-61.78
330.222	-6.49
330.435	3.75
330.648	65.19
330.861	9.9
331.073	28.33
331.286	52.91
331.499	18.09
331.712	-49.49
331.925	122.54
332.138	-16.73
332.35	-8.53
332.563	77.48
332.776	93.87
332.989	57
333.202	22.19
333.414	-16.73
333.627	9.9
333.84	7.85
334.053	65.19
334.265	-14.68
334.478	18.09
334.691	20.14
334.903	7.85
335.116	38.57
335.329	83.63
335.541	32.43
335.754	87.72
335.966	-8.53
336.179	-12.63
336.392	13.99
336.604	24.23
336.817	40.62
337.029	3.75
337.242	67.24
337.454	81.58
337.667	32.43
337.88	73.39
338.092	36.52
338.305	54.95
338.517	-29.01
338.729	79.53
338.942	126.63
339.154	5.8
339.367	89.77
339.579	57
339.792	26.28
340.004	-33.11
340.217	54.95
340.429	-12.63
340.641	42.67
340.854	81.58
341.066	63.15
341.278	73.39
341.491	57
341.703	36.52
341.915	52.91
342.128	75.43
342.34	16.04
342.552	1.71
342.764	24.23
342.977	46.76
343.189	-24.92
343.401	16.04
343.613	57
343.826	40.62
344.038	-4.44
344.25	9.9
344.462	-8.53
344.674	11.95
344.886	65.19
345.099	42.67
345.311	16.04
345.523	26.28
345.735	42.67
345.947	69.29
346.159	93.87
346.371	59.05
346.583	22.19
346.795	138.92
347.007	61.1
347.219	106.15
347.431	67.24
347.643	-0.34
347.855	65.19
348.067	81.58
348.279	24.23
348.491	77.48
348.703	42.67
348.915	22.19
349.127	-12.63
349.339	11.95
349.551	67.24
349.763	3.75
349.975	-2.39
350.187	-10.58
350.399	24.23
350.61	16.04
350.822	48.81
351.034	89.77
351.246	13.99
351.458	75.43
351.669	-22.87
351.881	24.23
352.093	69.29
352.305	3.75
352.517	38.57
352.728	81.58
352.94	48.81
353.152	100.01
353.363	48.81
353.575	110.25
353.787	108.2
353.999	30.38
354.21	120.49
354.422	18.09
354.633	100.01
354.845	18.09
355.057	63.15
355.268	40.62
355.48	48.81
355.692	67.24
355.903	-29.01
356.115	24.23
356.326	-8.53
356.538	108.2
356.749	73.39
356.961	89.77
357.172	1.71
357.384	16.04
357.595	163.5
357.807	28.33
358.018	69.29
358.23	65.19
358.441	69.29
358.653	44.71
358.864	57
359.075	-12.63
359.287	73.39
359.498	18.09
359.709	40.62
359.921	65.19
360.132	52.91
360.344	34.47
360.555	71.34
360.766	32.43
360.977	83.63
361.189	44.71
361.4	89.77
361.611	42.67
361.823	65.19
362.034	59.05
362.245	-57.68
362.456	24.23
362.667	100.01
362.879	7.85
363.09	7.85
363.301	61.1
363.512	97.96
363.723	40.62
363.935	50.86
364.146	81.58
364.357	61.1
364.568	75.43
364.779	40.62
364.99	100.01
365.201	-22.87
365.412	91.82
365.623	59.05
365.834	89.77
366.045	9.9
366.256	93.87
366.467	-6.49
366.678	1.71
366.889	69.29
367.1	13.99
367.311	106.15
367.522	69.29
367.733	75.43
367.944	71.34
368.155	3.75
368.366	83.63
368.577	116.39
368.788	36.52
368.999	-29.01
369.209	65.19
369.42	83.63
369.631	106.15
369.842	83.63
370.053	67.24
370.264	65.19
370.474	57
370.685	59.05
370.896	65.19
371.107	24.23
371.317	108.2
371.528	-49.49
371.739	65.19
371.95	67.24
372.16	9.9
372.371	42.67
372.582	7.85
372.792	69.29
373.003	34.47
373.214	83.63
373.424	44.71
373.635	38.57
373.846	89.77
374.056	11.95
374.267	65.19
374.477	69.29
374.688	16.04
374.898	65.19
375.109	30.38
375.319	57
375.53	42.67
375.74	40.62
375.951	-24.92
376.161	16.04
376.372	42.67
376.582	-35.16
376.793	-6.49
377.003	48.81
377.214	9.9
377.424	89.77
377.635	67.24
377.845	36.52
378.055	89.77
378.266	7.85
378.476	36.52
378.686	83.63
378.897	44.71
379.107	73.39
379.317	95.91
379.528	44.71
379.738	79.53
379.948	65.19
380.158	57
380.369	3.75
380.579	40.62
380.789	54.95
380.999	13.99
381.21	87.72
381.42	69.29
381.63	11.95
381.84	69.29
382.05	73.39
382.261	85.67
382.471	30.38
382.681	32.43
382.891	30.38
383.101	134.82
383.311	75.43
383.521	20.14
383.731	28.33
383.941	122.54
384.151	-4.44
384.361	-10.58
384.571	-14.68
384.781	46.76
384.991	104.11
385.201	77.48
385.411	46.76
385.621	73.39
385.831	-37.2
386.041	67.24
386.251	11.95
386.461	106.15
386.671	-10.58
386.881	36.52
387.091	24.23
387.301	106.15
387.511	73.39
387.72	122.54
387.93	61.1
388.14	-8.53
388.35	38.57
388.56	130.73
388.769	24.23
388.979	38.57
389.189	32.43
389.399	36.52
389.609	65.19
389.818	65.19
390.028	28.33
390.238	108.2
390.447	-8.53
390.657	42.67
390.867	85.67
391.076	-8.53
391.286	69.29
391.496	83.63
391.705	9.9
391.915	50.86
392.125	-6.49
392.334	20.14
392.544	93.87
392.753	95.91
392.963	-0.34
393.172	-0.34
393.382	-39.25
393.591	102.06
393.801	24.23
394.01	122.54
394.22	85.67
394.429	67.24
394.639	-0.34
394.848	59.05
395.058	57
395.267	28.33
395.477	42.67
395.686	108.2
395.895	77.48
396.105	132.78
396.314	91.82
396.524	52.91
396.733	52.91
396.942	69.29
397.152	11.95
397.361	126.63
397.57	89.77
397.78	57
397.989	73.39
398.198	106.15
398.407	26.28
398.617	81.58
398.826	75.43
399.035	102.06
399.244	110.25
399.453	89.77
399.663	124.58
399.872	100.01
400.081	7.85
400.29	183.98
400.499	40.62
400.708	89.77
400.917	155.3
401.127	97.96
401.336	38.57
401.545	122.54
401.754	118.44
401.963	57
402.172	106.15
402.381	138.92
402.59	97.96
402.799	155.3
403.008	175.78
403.217	136.87
403.426	24.23
403.635	138.92
403.844	100.01
404.053	130.73
404.262	75.43
404.471	138.92
404.68	159.4
404.888	130.73
405.097	73.39
405.306	138.92
405.515	106.15
405.724	138.92
405.933	173.74
406.142	108.2
406.35	157.35
406.559	218.79
406.768	165.54
406.977	233.13
407.185	138.92
407.394	192.17
407.603	138.92
407.812	249.51
408.02	171.69
408.229	212.65
408.438	220.84
408.646	222.89
408.855	245.41
409.064	259.75
409.272	253.61
409.481	249.51
409.69	143.02
409.898	284.33
410.107	245.41
410.315	323.24
410.524	222.89
410.733	247.46
410.941	321.19
411.15	362.15
411.358	368.29
411.567	384.68
411.775	335.53
411.984	368.29
412.192	394.92
412.401	401.06
412.609	394.92
412.818	450.21
413.026	401.06
413.234	470.69
413.443	347.81
413.651	417.44
413.86	392.87
414.068	417.44
414.276	579.23
414.485	503.46
414.693	534.18
414.901	519.84
415.11	560.8
415.318	646.82
415.526	585.38
415.734	616.1
415.943	741.02
416.151	679.58
416.359	695.97
416.567	663.2
416.776	753.31
416.984	853.66
417.192	824.99
417.4	925.34
417.608	888.48
417.817	882.33
418.025	822.94
418.233	1033.88
418.441	906.91
418.649	984.73
418.857	1060.51
419.065	1220.25
419.273	1072.79
419.481	1123.99
419.689	1175.19
419.897	1253.02
420.105	1316.5
420.313	1400.47
420.521	1343.13
420.729	1308.31
420.937	1449.62
421.145	1502.87
421.353	1631.89
421.561	1615.51
421.769	1554.07
421.977	1717.9
422.185	1654.42
422.393	1670.8
422.601	1937.04
422.809	1967.76
423.017	1967.76
423.224	1959.56
423.432	2021
423.64	2002.57
423.848	2281.1
424.056	2262.66
424.263	2424.45
424.471	2379.4
424.679	2487.94
424.887	2614.91
425.094	2584.2
425.302	2711.17
425.51	2621.06
425.718	2875.01
425.925	2991.74
426.133	2893.44
426.341	3133.05
426.548	3237.5
426.756	3182.2
426.964	3288.7
427.171	3513.97
427.379	3608.18
427.586	3661.43
427.794	3866.22
428.001	3958.38
428.209	4015.73
428.417	4073.07
428.624	4367.98
428.832	4300.39
429.039	4247.15
429.247	4202.09
429.454	4722.27
429.662	4992.61
429.869	4603.49
430.076	4968.03
430.284	4882.02
430.491	5195.36
430.699	5291.61
430.906	5244.51
431.114	5381.72
431.321	5619.28
431.528	5799.51
431.736	6196.81
431.943	6397.51
432.15	6118.99
432.358	6147.66
432.565	6590.02
432.772	6520.39
432.979	6790.72
433.187	6940.22
433.394	7126.59
433.601	7644.73
433.808	7495.22
434.016	7495.22
434.223	7831.09
434.43	8244.78
434.637	8166.96
434.844	8539.69
435.052	8781.35
435.259	8838.69
435.466	8767.01
435.673	8810.02
435.88	9342.49
436.087	9717.27
436.294	9805.33
436.501	9623.06
436.708	9868.82
436.915	10307.09
437.122	10550.79
437.329	10421.77
437.537	10870.28
437.743	10935.81
437.95	10874.37
438.157	11488.76
438.364	11619.83
438.571	11972.08
438.778	11795.96
438.985	13082.08
439.192	12328.43
439.399	12721.64
439.606	12590.57
439.813	13010.4
440.02	14042.58
440.227	13936.09
440.433	13667.8
440.64	14026.2
440.847	14175.7
441.054	14435.79
441.261	15494.59
441.467	15300.03
441.674	15508.93
441.881	16076.21
442.088	16090.55
442.294	15801.79
442.501	16225.72
442.708	16410.03
442.914	17417.63
443.121	17956.25
443.328	17352.1
443.534	18517.39
443.741	17943.96
443.948	18048.41
444.154	19316.1
444.361	19209.61
444.568	18972.04
444.774	19305.86
444.981	19273.09
445.187	19815.8
445.394	20712.81
445.6	20602.22
445.807	22447.44
446.013	21527.91
446.22	21679.46
446.426	22685.01
446.633	23004.49
446.839	23766.34
447.046	22838.61
447.252	24028.48
447.459	24307
447.665	24182.07
447.871	25210.15
448.078	26113.31
448.284	24976.69
448.491	25718.05
448.697	26709.27
448.903	26936.59
449.11	26934.54
449.316	26500.37
449.522	26856.72
449.728	27909.38
449.935	28216.57
450.141	28192
450.347	28654.84
450.553	27989.25
450.76	28226.81
450.966	29000.94
451.172	28796.15
451.378	29506.79
451.584	29033.71
451.791	29930.72
451.997	29721.83
452.203	30303.45
452.409	30031.07
452.615	30106.85
452.821	29195.5
453.027	28368.12
453.233	29904.1
453.44	28925.17
453.646	29314.28
453.852	29103.34
454.058	30170.33
454.264	29013.23
454.47	29910.24
454.676	29005.04
454.882	30362.84
455.088	27477.26
455.294	27825.41
455.5	28325.11
455.705	28634.36
455.911	27053.33
456.117	26965.26
456.323	26692.88
456.529	25519.4
456.735	26684.69
456.941	25781.54
457.147	25611.56
457.352	24593.72
457.558	24190.27
457.764	24311.1
457.97	23891.26
458.176	23516.48
458.381	23305.54
458.587	22291.8
458.793	21882.2
458.999	21155.18
459.204	22658.38
459.41	22142.3
459.616	20493.68
459.821	20624.75
460.027	20596.08
460.233	20012.41
460.438	19056.01
460.644	19422.59
460.85	18466.19
461.055	18060.7
461.261	18115.99
461.466	16780.71
461.672	16299.44
461.878	17491.36
462.083	16358.83
462.289	16096.69
462.494	15736.25
462.7	14992.84
462.905	14755.27
463.111	15193.54
463.316	15250.88
463.522	15062.47
463.727	14986.69
463.932	15007.17
464.138	14915.02
464.343	14853.58
464.549	14370.26
464.754	14751.18
464.959	14958.02
465.165	14626.25
465.37	13975
465.575	13690.33
465.781	14054.87
465.986	14181.84
466.191	13743.58
466.397	13376.99
466.602	12629.48
466.807	13213.15
467.012	13096.42
467.218	13198.82
467.423	12938.73
467.628	12973.54
467.833	13581.79
468.038	13012.45
468.244	12824.04
468.449	13239.78
468.654	12844.52
468.859	12684.78
469.064	12574.19
469.269	12234.22
469.474	12494.32
469.679	12635.63
469.885	12248.56
470.09	12445.16
470.295	12127.73
470.5	12017.14
470.705	12156.4
470.91	11841.01
471.115	11789.81
471.32	11941.36
471.525	12258.8
471.73	11693.56
471.935	11394.56
472.139	11042.31
472.344	11439.61
472.549	11140.61
472.754	10976.77
472.959	10683.91
473.164	10741.25
473.369	10429.96
473.574	10798.6
473.778	10784.26
473.983	10839.56
474.188	10632.71
474.393	10126.86
474.598	10118.67
474.802	9936.4
475.007	10102.29
475.212	9960.98
475.417	9578.01
475.621	9715.22
475.826	9784.85
476.031	9494.04
476.235	9233.95
476.44	9512.47
476.645	9223.71
476.849	9225.76
477.054	9068.06
477.259	9029.15
477.463	9121.31
477.668	8822.31
477.872	9203.23
478.077	8738.34
478.282	8347.18
478.486	8519.21
478.691	8310.32
478.895	8599.08
479.1	8250.92
479.304	8355.37
479.509	8093.23
479.713	8236.59
479.918	8187.44
480.122	8126
480.326	7992.88
480.531	8240.68
480.735	8027.7
480.94	7751.22
481.144	8351.28
481.348	7802.42
481.553	7923.25
481.757	7697.97
481.961	7786.04
482.166	7847.47
482.37	7878.19
482.574	7654.97
482.778	7818.8
482.983	7867.95
483.187	7757.36
483.391	7824.95
483.595	7837.24
483.8	7687.73
484.004	7693.88
484.208	7966.26
484.412	7757.36
484.616	7685.69
484.821	7609.91
485.025	7568.95
485.229	7863.86
485.433	7562.81
485.637	7605.81
485.841	7634.49
486.045	7589.43
486.249	7697.97
486.453	7579.19
486.657	7710.26
486.861	7906.87
487.065	7484.98
487.269	7724.6
487.473	7472.7
487.677	7802.42
487.881	7827
488.085	7896.63
488.289	7769.65
488.493	7663.16
488.697	7757.36
488.901	7716.4
489.105	7814.71
489.309	8076.85
489.512	7775.8
489.716	8019.5
489.92	7566.9
490.124	7872.05
490.328	7937.59
490.531	7818.8
490.735	8029.74
490.939	8039.98
491.143	7718.45
491.346	7880.24
491.55	8107.57
491.754	8193.58
491.958	8031.79
492.161	8099.38
492.365	8044.08
492.569	8121.9
492.772	8013.36
492.976	8287.79
493.18	8259.12
493.383	8298.03
493.587	8429.1
493.79	8371.75
493.994	8109.61
494.197	8502.82
494.401	8547.88
494.605	8435.24
494.808	8781.35
495.012	8576.55
495.215	8797.73
495.419	8902.18
495.622	8816.16
495.825	8828.45
496.029	8982.05
496.232	8947.23
496.436	9037.34
496.639	9393.69
496.843	9299.48
497.046	9535
497.249	9332.25
497.453	9758.23
497.656	9680.41
497.859	9758.23
498.063	9664.02
498.266	9928.21
498.469	10010.13
498.673	10112.53
498.876	10294.8
499.079	10284.56
499.282	10184.21
499.485	10440.2
499.689	10731.01
499.892	10659.34
500.095	10495.5
500.298	10972.68
500.501	10960.39
500.705	10952.2
500.908	11339.26
501.111	11451.9
501.314	11587.07
501.517	11707.9
501.72	11804.15
501.923	11677.18
502.126	12021.24
502.329	12301.81
502.532	12314.09
502.735	12353.01
502.938	12576.23
503.141	12735.98
503.344	12674.54
503.547	12942.82
503.75	13174.24
503.953	13051.36
504.156	13446.62
504.359	13344.22
504.562	13604.32
504.765	13952.47
504.968	13774.3
505.17	13995.48
505.373	14257.62
505.576	14278.1
505.779	14446.03
505.982	14646.73
506.185	14798.28
506.387	14931.4
506.59	14974.41
506.793	15322.56
506.996	15332.8
507.198	15797.69
507.401	15502.78
507.604	15879.61
507.807	16010.68
508.009	16233.91
508.212	16293.3
508.415	16647.6
508.617	16598.45
508.82	16614.83
509.022	16846.25
509.225	17292.71
509.428	17337.76
509.63	17554.85
509.833	17466.78
510.035	17829.27
510.238	17704.35
510.44	18136.47
510.643	18331.03
510.845	18529.68
511.048	18302.36
511.25	18763.15
511.453	18711.95
511.655	19516.8
511.858	19246.47
512.06	19633.54
512.262	19742.08
512.465	19795.32
512.667	20135.29
512.87	20499.83
513.072	20512.11
513.274	20733.29
513.477	20923.76
513.679	21163.37
513.881	21298.53
514.084	21419.36
514.286	21429.6
514.488	21468.52
514.69	22113.63
514.893	22246.74
515.095	22478.16
515.297	22652.24
515.499	22777.17
515.701	22918.48
515.904	22986.06
516.106	23428.42
516.308	23469.38
516.51	23559.49
516.712	23762.24
516.914	24313.14
517.116	24223.03
517.318	24497.46
517.52	24685.87
517.722	24642.87
517.925	24800.56
518.127	25294.12
518.329	25773.35
518.531	25447.72
518.733	26064.16
518.935	26074.4
519.136	26410.26
519.338	26580.25
519.54	26727.7
519.742	27036.94
519.944	27127.05
520.146	27424.01
520.348	27606.28
520.55	27999.49
520.752	27698.44
520.954	28108.03
521.155	28374.27
521.357	28783.86
521.559	28488.95
521.761	29142.25
521.963	29166.83
522.164	29179.12
522.366	29605.09
522.568	29672.68
522.77	29830.37
522.971	30172.38
523.173	30098.66
523.375	30485.72
523.576	30338.27
523.778	30172.38
523.98	30657.75
524.181	31003.86
524.383	31233.23
524.584	31247.57
524.786	31454.41
524.988	31421.64
525.189	31833.28
525.391	32001.22
525.592	32001.22
525.794	32478.4
525.995	32410.81
526.197	32380.09
526.398	32400.57
526.6	32560.31
526.801	32650.42
527.003	32552.12
527.204	32916.66
527.406	33057.97
527.607	33057.97
527.808	33322.16
528.01	32744.63
528.211	33393.84
528.412	34086.05
528.614	33897.64
528.815	33987.75
529.016	33928.36
529.218	34118.82
529.419	34004.13
529.62	34002.08
529.822	34120.87
530.023	34055.33
530.224	34051.24
530.425	34210.98
530.626	34233.5
530.828	33770.66
531.029	34729.11
531.23	34505.88
531.431	34563.23
531.632	34589.85
531.833	34831.51
532.035	34329.76
532.236	34534.56
532.437	34763.93
532.638	34616.47
532.839	34895
533.04	35011.73
533.241	34706.59
533.442	35591.31
533.643	34841.75
533.844	34630.81
534.045	35042.45
534.246	34868.37
534.447	35228.82
534.648	34966.68
534.849	35181.71
535.05	34651.29
535.251	34815.13
535.451	34702.49
535.652	35220.63
535.853	35097.75
536.054	35374.22
536.255	35292.3
536.456	34868.37
536.657	35425.42
536.857	34729.11
537.058	34649.24
537.259	35062.93
537.46	35261.58
537.66	35241.1
537.861	35001.49
538.062	34895
538.263	35462.29
538.463	34950.29
538.664	34819.22
538.865	34923.67
539.065	35011.73
539.266	34776.22
539.466	35607.69
539.667	34442.4
539.868	35083.41
540.068	34970.77
540.269	34960.53
540.469	35353.74
540.67	34745.5
540.87	34798.74
541.071	34577.56
541.271	35058.84
541.472	34796.7
541.672	34610.33
541.873	34710.68
542.073	34378.91
542.274	34870.42
542.474	34835.61
542.675	34407.58
542.875	34706.59
543.075	34651.29
543.276	34677.91
543.476	34796.7
543.676	34684.06
543.877	35003.54
544.077	34935.96
544.277	35054.74
544.478	34598.04
544.678	34835.61
544.878	34679.96
545.078	34591.9
545.279	34573.47
545.479	34557.08
545.679	34610.33
545.879	34446.49
546.079	34452.64
546.28	34096.29
546.48	34296.99
546.68	34604.19
546.88	35015.83
547.08	34854.04
547.28	34606.23
547.48	34331.81
547.68	34466.97
547.88	34006.18
548.081	34755.74
548.281	34331.81
548.481	34024.61
548.681	34516.12
548.881	34206.88
549.081	34395.29
549.28	34237.6
549.48	34696.35
549.68	34403.49
549.88	34716.82
550.08	34294.94
550.28	34387.1
550.48	33887.4
550.68	34520.22
550.88	34507.93
551.08	34315.42
551.279	34239.65
551.479	34073.76
551.679	34342.05
551.879	34176.16
552.079	34354.33
552.278	34274.46
552.478	34215.07
552.678	33764.52
552.878	34143.39
553.077	34305.18
553.277	33655.98
553.477	34129.06
553.676	34321.57
553.876	34428.06
554.076	33782.95
554.275	34256.03
554.475	33481.9
554.674	34141.35
554.874	34170.02
555.074	33838.25
555.273	34262.18
555.473	34184.35
555.672	33311.92
555.872	33754.28
556.071	33766.57
556.271	34350.24
556.47	33741.99
556.67	33160.37
556.869	33963.17
557.068	33612.97
557.268	33465.52
557.467	33615.02
557.667	33262.77
557.866	34026.66
558.065	33760.42
558.265	33150.13
558.464	33195.18
558.663	33719.46
558.863	32902.32
559.062	33275.05
559.261	32926.9
559.461	33508.52
559.66	32584.89
559.859	33076.4
560.058	32840.89
560.258	33105.07
560.457	32718.01
560.656	33209.52
560.855	32693.43
561.054	33098.93
561.253	32234.69
561.453	33047.73
561.652	32707.77
561.851	32439.48
562.05	32052.42
562.249	32419
562.448	32464.06
562.647	32289.98
562.846	32578.75
563.045	32386.24
563.244	32015.55
563.443	32853.17
563.642	31454.41
563.841	32107.71
564.04	32134.34
564.239	32378.04
564.438	32033.99
564.637	32289.98
564.836	32054.47
565.035	31368.4
565.234	32001.22
565.432	31724.74
565.631	31585.48
565.83	31526.09
566.029	31335.63
566.228	31325.39
566.427	31599.82
566.625	31444.17
566.824	31026.39
567.023	31120.59
567.222	30758.1
567.42	31206.61
567.619	31030.48
567.818	30895.32
568.016	30639.32
568.215	31098.06
568.414	30952.66
568.612	31259.85
568.811	30311.64
569.01	30823.64
569.208	30274.78
569.407	30586.07
569.605	30403.8
569.804	30655.7
570.002	30108.9
570.201	30170.33
570.4	29764.84
570.598	29859.04
570.797	29930.72
570.995	29916.39
571.193	29998.3
571.392	29848.8
571.59	29572.33
571.789	29607.14
571.987	29494.5
572.186	29351.15
572.384	29297.9
572.582	29687.01
572.781	29502.7
572.979	29021.42
573.177	29125.87
573.376	29437.16
573.574	28982.51
573.772	28978.42
573.971	29146.35
574.169	28585.21
574.367	28765.43
574.565	28857.59
574.763	28566.77
574.962	28648.69
575.16	28468.47
575.358	28491
575.556	28237.05
575.754	28517.62
575.952	28235
576.151	28484.86
576.349	28089.6
576.547	28093.69
576.745	28081.41
576.943	27870.47
577.141	27804.93
577.339	27755.78
577.537	27796.74
577.735	27569.41
577.933	27335.95
578.131	27473.16
578.329	27477.26
578.527	27176.2
578.725	27333.9
578.923	27395.34
579.121	26948.88
579.319	26869.01
579.516	26942.74
579.714	26959.12
579.912	26705.17
580.11	26699.03
580.308	26680.6
580.506	26733.84
580.704	26256.67
580.901	26475.8
581.099	26543.38
581.297	26412.31
581.495	26162.46
581.692	26541.33
581.89	26275.1
582.088	26410.26
582.285	26324.25
582.483	26230.04
582.681	25550.12
582.878	25634.08
583.076	25767.2
583.274	25894.18
583.471	25312.55
583.669	25322.79
583.866	25503.01
584.064	25394.47
584.262	25320.74
584.459	25277.74
584.657	25240.87
584.854	25429.29
585.052	25396.52
585.249	25130.28
585.447	25087.28
585.644	25015.6
585.841	24780.08
586.039	25285.93
586.236	24716.59
586.434	24665.39
586.631	24618.29
586.828	24841.52
587.026	24778.03
587.223	24751.41
587.42	24399.16
587.618	24403.25
587.815	23788.86
588.012	23944.51
588.21	24024.38
588.407	24175.93
588.604	24124.73
588.801	23711.04
588.999	24073.53
589.196	23682.37
589.393	23803.2
589.59	23665.99
589.787	23432.52
589.984	23192.9
590.182	23330.12
590.379	23283.02
590.576	23113.03
590.773	23412.04
590.97	23092.55
591.167	23065.93
591.364	22893.9
591.561	23110.99
591.758	22850.89
591.955	22867.28
592.152	22736.21
592.349	22379.86
592.546	22785.36
592.743	22519.12
592.94	22484.31
593.137	22787.41
593.334	22642
593.531	21982.56
593.727	22424.92
593.924	22150.49
594.121	21986.65
594.318	22175.06
594.515	21861.73
594.712	22191.45
594.908	22013.27
595.105	21892.44
595.302	21706.08
595.499	21675.36
595.696	21648.74
595.892	21470.56
596.089	21611.87
596.286	21640.54
596.482	21433.7
596.679	21319.01
596.876	21368.16
597.072	21089.64
597.269	21169.51
597.466	21134.7
597.662	21087.59
597.859	20856.17
598.055	20905.32
598.252	20704.62
598.448	20845.93
598.645	20907.37
598.841	20698.48
599.038	20612.46
599.234	20604.27
599.431	20274.55
599.627	20491.63
599.824	20307.32
600.02	20200.82
600.217	20290.93
600.413	19864.96
600.609	20249.97
600.806	19950.97
601.002	20139.38
601.198	19979.64
601.395	19950.97
601.591	19897.72
601.787	19817.85
601.984	19758.46
602.18	19819.9
602.376	19619.2
602.572	19422.59
602.769	19711.36
602.965	19459.46
603.161	19551.62
603.357	19080.58
603.553	19172.74
603.75	19135.88
603.946	19084.68
604.142	18998.66
604.338	18714
604.534	18931.08
604.73	18726.28
604.926	18484.62
605.122	18845.07
605.318	18593.17
605.514	18341.27
605.71	18353.55
605.906	18367.89
606.102	18693.52
606.298	18562.45
606.494	18365.84
606.69	18453.91
606.886	18515.34
607.082	18003.35
607.278	17972.63
607.474	17972.63
607.67	18259.35
607.866	17925.53
608.062	18453.91
608.257	18015.64
608.453	17739.16
608.649	17980.82
608.845	17780.12
609.041	17886.62
609.236	17835.42
609.432	17800.6
609.628	17753.5
609.824	17587.61
610.019	17362.34
610.215	17841.56
610.411	17573.28
610.606	17421.73
610.802	17526.18
610.998	17614.24
611.193	17560.99
611.389	17186.21
611.584	17137.06
611.78	17251.75
611.976	17139.11
612.171	17464.74
612.367	17126.82
612.562	17286.56
612.758	17053.09
612.953	16952.74
613.149	17085.86
613.344	17038.76
613.539	17067.43
613.735	16911.78
613.93	17065.38
614.126	17051.05
614.321	17137.06
614.517	17116.58
614.712	16668.08
614.907	16833.96
615.103	16776.62
615.298	16776.62
615.493	16887.21
615.688	16467.38
615.884	16795.05
616.079	16479.66
616.274	16620.97
616.47	16588.21
616.665	16371.12
616.86	16475.57
617.055	16537.01
617.25	16262.58
617.445	16383.41
617.641	16160.18
617.836	16379.31
618.031	16057.78
618.226	16244.15
618.421	15891.9
618.616	16082.36
618.811	15676.86
619.006	16172.47
619.201	15963.58
619.396	15971.77
619.591	15689.15
619.786	15711.67
619.981	15353.28
620.176	15740.35
620.371	15402.43
620.566	15617.47
620.761	15367.62
620.956	15498.69
621.151	15095.24
621.346	15044.04
621.541	14970.31
621.735	15343.04
621.93	14800.33
622.125	14886.34
622.32	14599.63
622.515	14753.23
622.709	14820.81
622.904	14587.34
623.099	14486.99
623.294	14585.29
623.488	14286.29
623.683	14296.53
623.878	14015.96
624.072	13970.9
624.267	14026.2
624.462	14028.24
624.656	13508.06
624.851	13645.27
625.046	13868.5
625.24	13577.69
625.435	13524.44
625.629	13614.55
625.824	13356.51
626.018	13376.99
626.213	13155.81
626.407	13192.67
626.602	13213.15
626.796	13272.54
626.991	13327.84
627.185	12944.87
627.38	12901.86
627.574	12705.26
627.768	12695.02
627.963	12557.8
628.157	12582.38
628.352	12574.19
628.546	12549.61
628.74	12500.46
628.935	12168.69
629.129	12221.94
629.323	12002.8
629.517	12080.63
629.712	12074.48
629.906	12140.02
630.1	11785.72
630.294	11931.12
630.489	12060.15
630.683	11634.17
630.877	11419.13
631.071	11554.3
631.265	11456
631.459	11609.59
631.653	11378.17
631.848	11394.56
632.042	11466.24
632.236	11441.66
632.43	11156.99
632.624	11197.95
632.818	11052.55
633.012	11034.11
633.206	10898.95
633.4	10964.48
633.594	10642.95
633.788	10614.28
633.982	10853.89
634.176	10640.9
634.369	10571.27
634.563	10665.48
634.757	10325.52
634.951	10532.36
635.145	10432.01
635.339	10184.21
635.533	10522.12
635.726	10356.24
635.92	10116.62
636.114	10104.34
636.308	10096.14
636.501	9977.36
636.695	10028.56
636.889	9895.44
637.083	9936.4
637.276	9862.68
637.47	9848.34
637.664	9674.26
637.857	9866.77
638.051	9823.76
638.244	9690.65
638.438	9575.96
638.632	9610.78
638.825	9362.97
639.019	9297.44
639.212	9094.69
639.406	9281.05
639.599	9365.02
639.793	9223.71
639.986	9129.5
640.18	9076.26
640.373	9080.35
640.567	9039.39
640.76	8980
640.954	8865.32
641.147	8750.63
641.34	8713.77
641.534	8728.1
641.727	8883.75
641.92	8617.51
642.114	8549.93
642.307	8672.81
642.5	8429.1
642.694	8502.82
642.887	8437.29
643.08	8592.94
643.273	8334.89
643.467	8392.23
643.66	8142.38
643.853	8148.53
644.046	7992.88
644.239	8224.3
644.432	8199.73
644.626	8171.05
644.819	7974.45
645.012	7939.63
645.205	7933.49
645.398	7962.16
645.591	7757.36
645.784	7900.72
645.977	7822.9
646.17	7771.7
646.363	7794.23
646.556	7683.64
646.749	7564.86
646.942	7603.77
647.135	7487.03
647.328	7562.81
647.521	7341.63
647.714	7235.13
647.907	7372.35
648.099	7224.89
648.292	7405.11
648.485	7298.62
648.678	7220.8
648.871	7169.6
649.064	7140.93
649.256	7075.39
649.449	7087.68
649.642	6987.33
649.835	7071.29
650.027	7065.15
650.22	6946.37
650.413	6938.18
650.605	6889.03
650.798	6776.39
650.991	6768.2
651.183	6723.14
651.376	6639.17
651.568	6684.23
651.761	6544.97
651.954	6643.27
652.146	6628.93
652.339	6622.79
652.531	6454.86
652.724	6385.23
652.916	6364.75
653.109	6241.87
653.301	6461
653.494	6340.17
653.686	6104.65
653.879	6299.21
654.071	6315.59
654.263	6291.02
654.456	6004.3
654.648	6075.98
654.84	6057.55
655.033	6194.76
655.225	5985.87
655.417	6004.3
655.61	5987.92
655.802	6112.85
655.994	5836.37
656.186	5883.47
656.379	5889.62
656.571	5811.79
656.763	5766.74
656.955	5789.27
657.148	5768.79
657.34	5707.35
657.532	5500.5
657.724	5637.72
657.916	5498.45
658.108	5580.37
658.3	5539.41
658.492	5586.52
658.684	5465.69
658.876	5398.1
659.068	5379.67
659.26	5342.81
659.452	5238.36
659.644	5402.2
659.836	5416.54
660.028	5418.58
660.22	5189.21
660.412	5256.79
660.604	5127.77
660.796	5160.54
660.988	5168.73
661.18	5135.96
661.372	5103.2
661.563	5025.37
661.755	4802.15
661.947	5127.77
662.139	5029.47
662.331	4900.45
662.522	5023.33
662.714	4972.13
662.906	4906.59
663.097	4882.02
663.289	4925.02
663.481	4810.34
663.673	4775.52
663.864	4709.99
664.056	4771.43
664.247	4763.23
664.439	4552.29
664.631	4800.1
664.822	4648.55
665.014	4589.16
665.205	4607.59
665.397	4726.37
665.588	4531.81
665.78	4472.42
665.971	4398.7
666.163	4513.38
666.354	4443.75
666.546	4382.31
666.737	4431.46
666.929	4372.07
667.12	4429.42
667.311	4216.43
667.503	4259.43
667.694	4243.05
667.885	4161.13
668.077	4310.63
668.268	4202.09
668.459	4154.99
668.651	4165.23
668.842	4181.61
669.033	4191.85
669.224	4128.36
669.416	4058.73
669.607	4222.57
669.798	4138.6
669.989	4128.36
670.18	4107.88
670.371	3978.86
670.563	4003.44
670.754	3982.96
670.945	3874.42
671.136	3872.37
671.327	4025.97
671.518	3833.46
671.709	3985.01
671.9	3876.46
672.091	3669.62
672.282	3884.66
672.473	3960.43
672.664	3767.92
672.855	3653.23
673.046	3653.23
673.237	3751.54
673.428	3749.49
673.619	3784.3
673.809	3671.67
674	3874.42
674.191	3700.34
674.382	3647.09
674.573	3565.17
674.764	3645.04
674.954	3645.04
675.145	3507.83
675.336	3735.15
675.527	3581.56
675.717	3354.23
675.908	3616.37
676.099	3581.56
676.289	3534.45
676.48	3645.04
676.671	3374.71
676.861	3497.59
677.052	3333.75
677.243	3368.57
677.433	3440.25
677.624	3423.86
677.814	3417.72
678.005	3522.16
678.195	3524.21
678.386	3387
678.576	3233.4
678.767	3432.05
678.957	3497.59
679.148	3372.66
679.338	3188.35
679.529	3356.28
679.719	3247.74
679.909	3309.18
680.1	3221.11
680.29	3339.9
680.481	3305.08
680.671	3333.75
680.861	3243.64
681.052	3276.41
681.242	3217.02
681.432	3387
681.622	3278.46
681.813	3227.26
682.003	3122.81
682.193	3120.76
682.383	3112.57
682.573	3194.49
682.764	3214.97
682.954	3237.5
683.144	3112.57
683.334	3040.89
683.524	3153.53
683.714	3196.54
683.904	3090.04
684.094	3100.28
684.284	3022.46
684.474	3098.24
684.664	3071.61
684.854	2956.93
685.044	3016.32
685.234	2989.69
685.424	2952.83
685.614	3153.53
685.804	2963.07
685.994	2838.14
686.184	2961.02
686.374	2838.14
686.564	2993.79
686.753	2899.58
686.943	2938.49
687.133	2881.15
687.323	2891.39
687.513	2854.53
687.702	2889.34
687.892	2891.39
688.082	2909.82
688.272	2934.4
688.461	2762.37
688.651	2875.01
688.841	2735.74
689.03	2705.03
689.22	2795.14
689.41	2698.88
689.599	2678.4
689.789	2623.11
689.979	2719.36
690.168	2770.56
690.358	2721.41
690.547	2664.07
690.737	2678.4
690.926	2627.2
691.116	2727.55
691.305	2690.69
691.495	2543.24
691.684	2584.2
691.874	2535.04
692.063	2588.29
692.252	2612.87
692.442	2664.07
692.631	2502.28
692.82	2473.6
693.01	2492.04
693.199	2461.32
693.388	2514.56
693.578	2465.41
693.767	2592.39
693.956	2428.55
694.146	2494.08
694.335	2436.74
694.524	2504.32
694.713	2399.88
694.902	2465.41
695.092	2403.97
695.281	2340.49
695.47	2414.21
695.659	2338.44
695.848	2238.09
696.037	2399.88
696.226	2301.58
696.415	2324.1
696.604	2244.23
696.793	2311.82
696.982	2244.23
697.171	2344.58
697.36	2305.67
697.549	2238.09
697.738	2188.94
697.927	2250.38
698.116	2289.29
698.305	2244.23
698.494	2090.63
698.683	2186.89
698.872	2371.21
699.061	2170.51
699.25	2164.36
699.438	2256.52
699.627	2277
699.816	2195.08
700.005	2178.7
700.193	2262.66
700.382	2350.73
700.571	2236.04
700.76	2219.66
700.948	2246.28
701.137	2129.55
701.326	2215.56
701.514	2131.59
701.703	2246.28
701.892	2113.16
702.08	2219.66
702.269	2104.97
702.457	2168.46
702.646	2162.31
702.834	2197.13
703.023	2254.47
703.212	2123.4
703.4	2123.4
703.589	2072.2
703.777	2084.49
703.965	2053.77
704.154	2002.57
704.342	2074.25
704.531	2080.39
704.719	2068.11
704.907	2164.36
705.096	2119.31
705.284	2031.24
705.472	2074.25
705.661	2088.59
705.849	2158.22
706.037	2147.98
706.226	2170.51
706.414	2049.68
706.602	2055.82
706.79	2043.53
706.979	2104.97
707.167	2207.37
707.355	2078.35
707.543	2096.78
707.731	2033.29
707.919	2037.39
708.107	2057.87
708.296	2078.35
708.484	1973.9
708.672	2180.75
708.86	2029.2
709.048	2053.77
709.236	2010.76
709.424	1990.28
709.612	2014.86
709.8	2045.58
709.988	2066.06
710.176	2047.63
710.364	1990.28
710.551	1975.95
710.739	1963.66
710.927	2080.39
711.115	2018.96
711.303	2098.83
711.491	2104.97
711.679	2045.58
711.866	2104.97
712.054	2018.96
712.242	2061.96
712.43	2080.39
712.617	1992.33
712.805	2006.67
712.993	2025.1
713.181	2088.59
713.368	2059.92
713.556	1998.48
713.744	1912.46
713.931	2162.31
714.119	2053.77
714.306	2035.34
714.494	2145.93
714.682	2018.96
714.869	2055.82
715.057	2084.49
715.244	1965.71
715.432	2035.34
715.619	1984.14
715.807	1973.9
715.994	2025.1
716.182	1916.56
716.369	2055.82
716.556	2137.74
716.744	1912.46
716.931	2025.1
717.119	2129.55
717.306	2041.48
717.493	2041.48
717.681	1998.48
717.868	2119.31
718.055	2010.76
718.242	2076.3
718.43	2051.72
718.617	1961.61
718.804	1986.19
718.991	2061.96
719.179	2125.45
719.366	2008.72
719.553	2014.86
719.74	2008.72
719.927	1949.32
720.114	2131.59
720.301	1984.14
720.488	1965.71
720.676	2010.76
720.863	2047.63
721.05	2115.21
721.237	2025.1
721.424	2088.59
721.611	1984.14
721.798	2014.86
721.985	1975.95
722.172	1953.42
722.358	2041.48
722.545	2023.05
722.732	1998.48
722.919	2098.83
723.106	1975.95
723.293	1924.75
723.48	2008.72
723.667	1965.71
723.853	1949.32
724.04	1994.38
724.227	2004.62
724.414	2166.41
724.6	1941.13
724.787	2068.11
724.974	2031.24
725.161	1918.61
725.347	2006.67
725.534	2021
725.72	1990.28
725.907	1998.48
726.094	2055.82
726.28	2049.68
726.467	1957.52
726.653	1988.24
726.84	2100.87
727.027	2092.68
727.213	2035.34
727.4	2084.49
727.586	2113.16
727.773	1986.19
727.959	2035.34
728.145	2064.01
728.332	1937.04
728.518	1963.66
728.705	1982.09
728.891	2010.76
729.077	1975.95
729.264	2072.2
729.45	2154.12
729.636	2059.92
729.823	2074.25
730.009	2002.57
730.195	2023.05
730.382	1990.28
730.568	2008.72
730.754	1951.37
730.94	1973.9
731.126	2006.67
731.313	2014.86
731.499	2037.39
731.685	1990.28
731.871	2008.72
732.057	2031.24
732.243	1978
732.429	1939.09
732.615	2047.63
732.801	2131.59
732.987	2072.2
733.173	2098.83
733.359	1969.8
733.545	2037.39
733.731	1949.32
733.917	2117.26
734.103	2016.91
734.289	1988.24
734.475	1934.99
734.661	1992.33
734.847	2043.53
735.033	1965.71
735.219	2000.52
735.404	1959.56
735.59	2000.52
735.776	1967.76
735.962	1990.28
736.148	1965.71
736.333	1947.28
736.519	2043.53
736.705	2016.91
736.89	2008.72
737.076	1984.14
737.262	1883.79
737.447	2104.97
737.633	1787.54
737.819	1965.71
738.004	1937.04
738.19	1975.95
738.375	1871.5
738.561	2014.86
738.747	1980.04
738.932	1934.99
739.118	1990.28
739.303	1941.13
739.489	2096.78
739.674	1900.17
739.859	1937.04
740.045	1957.52
740.23	1982.09
740.416	1846.93
740.601	1926.8
740.786	1881.74
740.972	1885.84
741.157	1891.98
741.342	1846.93
741.528	1894.03
741.713	1887.89
741.898	1848.97
742.084	1851.02
742.269	1879.69
742.454	1945.23
742.639	1943.18
742.824	1820.3
743.01	1900.17
743.195	1826.45
743.38	1797.78
743.565	1762.96
743.75	1879.69
743.935	1773.2
744.12	1769.1
744.305	1705.62
744.49	1805.97
744.675	1728.14
744.86	1754.77
745.045	1752.72
745.23	1795.73
745.415	1717.9
745.6	1801.87
745.785	1711.76
745.97	1746.58
746.155	1670.8
746.34	1619.6
746.525	1640.08
746.71	1683.09
746.895	1625.75
747.079	1652.37
747.264	1689.23
747.449	1631.89
747.634	1648.27
747.819	1715.86
748.003	1670.8
748.188	1547.92
748.373	1609.36
748.557	1646.23
748.742	1502.87
748.927	1576.59
749.111	1590.93
749.296	1588.88
749.481	1492.63
749.665	1470.1
749.85	1506.96
750.034	1572.5
750.219	1525.4
750.404	1416.85
750.588	1531.54
750.773	1367.7
750.957	1443.48
751.141	1435.28
751.326	1490.58
751.51	1392.28
751.695	1416.85
751.879	1441.43
752.064	1468.05
752.248	1494.68
752.432	1384.09
752.617	1371.8
752.801	1474.2
752.985	1390.23
753.17	1396.37
753.354	1379.99
753.538	1379.99
753.722	1298.07
753.907	1263.26
754.091	1214.1
754.275	1214.1
754.459	1304.21
754.643	1322.65
754.828	1408.66
755.012	1253.02
755.196	1273.5
755.38	1281.69
755.564	1212.06
755.748	1279.64
755.932	1269.4
756.116	1224.34
756.3	1195.67
756.484	1216.15
756.668	1187.48
756.852	1154.71
757.036	1195.67
757.22	1181.34
757.404	1222.3
757.588	1162.9
757.772	1167
757.956	1130.14
758.14	1152.67
758.323	1107.61
758.507	1070.75
758.691	1142.43
758.875	1134.23
759.059	1058.46
759.242	1132.19
759.426	1130.14
759.61	1111.71
759.794	994.97
759.977	1154.71
760.161	1107.61
760.345	1121.95
760.528	1011.36
760.712	1031.83
760.895	1058.46
761.079	1064.6
761.263	1048.22
761.446	1064.6
761.63	964.25
761.813	1035.93
761.997	986.78
762.18	962.2
762.364	990.88
762.547	927.39
762.731	978.59
762.914	976.54
763.098	904.86
763.281	984.73
763.464	1005.21
763.648	949.92
763.831	990.88
764.015	966.3
764.198	1029.79
764.381	1021.6
764.564	984.73
764.748	904.86
764.931	917.15
765.114	868
765.297	954.01
765.481	872.09
765.664	917.15
765.847	894.62
766.03	951.96
766.213	851.61
766.397	816.8
766.58	820.89
766.763	978.59
766.946	853.66
767.129	876.19
767.312	933.53
767.495	958.11
767.678	820.89
767.861	870.05
768.044	974.49
768.227	843.42
768.41	876.19
768.593	839.33
768.776	845.47
768.959	845.47
769.142	888.48
769.324	853.66
769.507	884.38
769.69	845.47
769.873	786.08
770.056	927.39
770.239	892.57
770.421	919.2
770.604	777.89
770.787	822.94
770.97	765.6
771.152	753.31
771.335	720.54
771.518	773.79
771.7	861.85
771.883	824.99
772.066	843.42
772.248	796.32
772.431	847.52
772.613	868
772.796	763.55
772.978	808.61
773.161	790.17
773.343	804.51
773.526	716.45
773.708	745.12
773.891	673.44
774.073	687.78
774.256	786.08
774.438	810.65
774.621	753.31
774.803	802.46
774.985	708.26
775.168	755.36
775.35	681.63
775.532	716.45
775.715	722.59
775.897	773.79
776.079	652.96
776.261	728.74
776.444	753.31
776.626	632.48
776.808	652.96
776.99	712.35
777.173	657.06
777.355	638.62
777.537	679.58
777.719	646.82
777.901	614.05
778.083	655.01
778.265	487.08
778.447	540.32
778.629	646.82
778.811	687.78
778.993	607.91
779.175	581.28
779.357	667.3
779.539	614.05
779.721	597.67
779.903	638.62
780.085	558.75
780.267	642.72
780.449	573.09
780.631	583.33
780.812	624.29
780.994	544.42
781.176	554.66
781.358	515.75
781.54	560.8
781.721	528.03
781.903	552.61
782.085	458.4
782.267	573.09
782.448	480.93
782.63	499.36
782.812	546.47
782.993	519.84
783.175	501.41
783.357	466.6
783.538	585.38
783.72	462.5
783.901	505.51
784.083	515.75
784.264	462.5
784.446	452.26
784.627	515.75
784.809	493.22
784.99	515.75
785.172	466.6
785.353	509.6
785.535	474.79
785.716	464.55
785.897	464.55
786.079	433.83
786.26	448.16
786.441	446.12
786.623	442.02
786.804	399.01
786.985	319.14
787.167	407.2
787.348	392.87
787.529	386.72
787.71	487.08
787.891	429.73
788.073	392.87
788.254	345.77
788.435	456.36
788.616	384.68
788.797	343.72
788.978	384.68
789.159	401.06
789.34	335.53
789.522	353.96
789.703	384.68
789.884	345.77
790.065	425.64
790.246	384.68
790.427	366.25
790.607	384.68
790.788	341.67
790.969	313
791.15	415.4
791.331	319.14
791.512	372.39
791.693	356.01
791.874	341.67
792.054	401.06
792.235	458.4
792.416	335.53
792.597	325.29
792.778	296.61
792.958	253.61
793.139	376.48
793.32	376.48
793.5	323.24
793.681	411.3
793.862	304.81
794.042	222.89
794.223	229.03
794.404	335.53
794.584	296.61
794.765	265.89
794.945	302.76
795.126	321.19
795.306	335.53
795.487	286.37
795.667	351.91
795.848	310.95
796.028	329.38
796.209	343.72
796.389	296.61
796.57	317.09
796.75	288.42
796.93	288.42
797.111	245.41
797.291	321.19
797.471	231.08
797.652	341.67
797.832	210.6
798.012	280.23
798.192	237.22
798.373	261.8
798.553	204.46
798.733	237.22
798.913	278.18
799.093	286.37
799.274	233.13
799.454	241.32
799.634	239.27
799.814	364.2
799.994	304.81
800.174	245.41
800.354	235.18
800.534	159.4
800.714	183.98
800.894	224.94
801.074	255.65
801.254	269.99
801.434	265.89
801.614	163.5
801.794	251.56
801.974	831.13
802.154	218.79
802.334	278.18
802.514	196.26
802.693	159.4
802.873	165.54
803.053	177.83
803.233	237.22
803.413	192.17
803.592	163.5
803.772	186.02
803.952	124.58
804.131	104.11
804.311	218.79
804.491	220.84
804.67	122.54
804.85	198.31
805.03	278.18
805.209	188.07
805.389	216.74
805.568	175.78
805.748	155.3
805.928	220.84
806.107	171.69
806.287	186.02
806.466	241.32
806.646	179.88
806.825	151.21
807.004	226.98
807.184	159.4
807.363	237.22
807.543	220.84
807.722	183.98
807.901	192.17
808.081	269.99
808.26	114.34
808.439	165.54
808.619	149.16
808.798	179.88
808.977	169.64
809.156	120.49
809.336	167.59
809.515	155.3
809.694	138.92
809.873	212.65
810.052	200.36
810.231	190.12
810.411	188.07
810.59	198.31
810.769	188.07
810.948	226.98
811.127	138.92
811.306	155.3
811.485	69.29
811.664	220.84
811.843	138.92
812.022	100.01
812.201	196.26
812.38	233.13
812.559	102.06
812.737	145.06
812.916	118.44
813.095	159.4
813.274	190.12
813.453	165.54
813.632	114.34
813.811	169.64
813.989	186.02
814.168	151.21
814.347	110.25
814.526	143.02
814.704	198.31
814.883	196.26
815.062	200.36
815.24	116.39
815.419	138.92
815.598	173.74
815.776	138.92
815.955	100.01
816.133	65.19
816.312	126.63
816.49	69.29
816.669	134.82
816.847	110.25
817.026	136.87
817.204	122.54
817.383	196.26
817.561	138.92
817.74	165.54
817.918	145.06
818.097	83.63
818.275	112.3
818.453	114.34
818.632	93.87
818.81	57
818.988	61.1
819.167	138.92
819.345	91.82
819.523	93.87
819.701	73.39
819.879	143.02
820.058	97.96
820.236	140.97
820.414	73.39
820.592	149.16
820.77	149.16
820.948	145.06
821.127	122.54
821.305	149.16
821.483	81.58
821.661	130.73
821.839	130.73
822.017	138.92
822.195	32.43
822.373	97.96
822.551	77.48
822.729	59.05
822.907	145.06
823.085	116.39
823.262	155.3
823.44	71.34
823.618	81.58
823.796	138.92
823.974	114.34
824.152	128.68
824.329	89.77
824.507	130.73
824.685	89.77
824.863	116.39
825.04	95.91
825.218	151.21
825.396	52.91
825.574	67.24
825.751	48.81
825.929	114.34
826.107	83.63
826.284	100.01
826.462	85.67
826.639	65.19
826.817	91.82
826.994	108.2
827.172	67.24
827.349	57
827.527	126.63
827.704	-10.58
827.882	147.11
828.059	73.39
828.237	48.81
828.414	89.77
828.591	65.19
828.769	95.91
828.946	114.34
829.124	112.3
829.301	106.15
829.478	57
829.655	81.58
829.833	122.54
830.01	48.81
830.187	57
830.364	85.67
830.542	65.19
830.719	116.39
830.896	106.15
831.073	50.86
831.25	77.48
831.427	212.65
831.604	69.29
831.782	48.81
831.959	7.85
832.136	65.19
832.313	46.76
832.49	59.05
832.667	40.62
832.844	9.9
833.021	89.77
833.198	36.52
833.374	52.91
833.551	32.43
833.728	24.23
833.905	87.72
834.082	40.62
834.259	179.88
834.436	140.97
834.612	97.96
834.789	75.43
834.966	65.19
835.143	44.71
835.319	34.47
835.496	65.19
835.673	28.33
835.85	1.71
836.026	52.91
836.203	179.88
836.38	186.02
836.556	100.01
836.733	116.39
836.909	120.49
837.086	91.82
837.262	30.38
837.439	9.9
837.616	138.92
837.792	81.58
837.968	24.23
838.145	100.01
838.321	73.39
838.498	42.67
838.674	28.33
838.851	151.21
839.027	7.85
839.203	89.77
839.38	71.34
839.556	67.24
839.732	136.87
839.909	54.95
840.085	50.86
840.261	40.62
840.437	38.57
840.614	46.76
840.79	48.81
840.966	54.95
841.142	85.67
841.318	-6.49
841.494	93.87
841.671	69.29
841.847	97.96
842.023	32.43
842.199	100.01
842.375	102.06
842.551	61.1
842.727	-0.34
842.903	81.58
843.079	73.39
843.255	20.14
843.431	9.9
843.607	54.95
843.783	20.14
843.959	5.8
844.134	7.85
844.31	32.43
844.486	40.62
844.662	9.9
844.838	42.67
845.013	61.1
845.189	24.23
845.365	77.48
845.541	157.35
845.716	77.48
845.892	77.48
846.068	34.47
846.244	38.57
846.419	34.47
846.595	-4.44
846.77	69.29
846.946	81.58
847.122	42.67
847.297	22.19
847.473	61.1
847.648	57
847.824	16.04
847.999	-47.44
848.175	48.81
848.35	52.91
848.526	85.67
848.701	-47.44
848.876	112.3
849.052	36.52
849.227	42.67
849.403	65.19
849.578	38.57
849.753	-14.68
849.929	69.29
850.104	-37.2
850.279	57
850.454	-12.63
850.63	120.49
850.805	-49.49
850.98	85.67
851.155	-14.68
851.33	40.62
851.505	-8.53
851.681	110.25
851.856	18.09
852.031	50.86
852.206	20.14
852.381	42.67
852.556	-10.58
852.731	57
852.906	83.63
853.081	65.19
853.256	57
853.431	38.57
853.606	65.19
853.781	20.14
853.956	-33.11
854.131	73.39
854.305	-0.34
854.48	54.95
854.655	-10.58
854.83	-14.68
855.005	50.86
855.18	46.76
855.354	13.99
855.529	48.81
855.704	-65.88
855.879	57
856.053	-41.3
856.228	67.24
856.403	-29.01
856.577	75.43
856.752	40.62
856.926	69.29
857.101	34.47
857.276	3.75
857.45	5.8
857.625	106.15
857.799	-41.3
857.974	-4.44
858.148	-63.83
858.323	-8.53
858.497	30.38
858.672	50.86
858.846	28.33
859.02	11.95
859.195	-10.58
859.369	-31.06
859.543	7.85
859.718	34.47
859.892	-26.96
860.066	26.28
860.241	24.23
860.415	57
860.589	20.14
860.763	61.1
860.938	-0.34
861.112	9.9
861.286	16.04
861.46	16.04
861.634	42.67
861.808	75.43
861.982	18.09
862.157	61.1
862.331	-78.16
862.505	22.19
862.679	59.05
862.853	77.48
863.027	42.67
863.201	89.77
863.375	57
863.549	24.23
863.722	22.19
863.896	30.38
864.07	32.43
864.244	3.75
864.418	42.67
864.592	22.19
864.766	52.91
864.939	-0.34
865.113	-41.3
865.287	38.57
865.461	-18.77
865.634	20.14
865.808	-29.01
865.982	69.29
866.156	-94.55
866.329	59.05
866.503	24.23
866.676	18.09
866.85	36.52
867.024	24.23
867.197	65.19
867.371	97.96
867.544	16.04
867.718	48.81
867.891	48.81
868.065	24.23
868.238	-8.53
868.412	106.15
868.585	24.23
868.759	59.05
868.932	7.85
869.105	-29.01
869.279	-29.01
869.452	9.9
869.625	83.63
869.799	-18.77
869.972	34.47
870.145	89.77
870.319	-6.49
870.492	-8.53
870.665	65.19
870.838	44.71
871.011	-76.12
871.185	-0.34
871.358	11.95
871.531	40.62
871.704	11.95
871.877	50.86
872.05	11.95
872.223	-41.3
872.396	-8.53
872.569	-4.44
872.742	-49.49
872.915	26.28
873.088	-33.11
873.261	36.52
873.434	-0.34
873.607	42.67
873.78	44.71
873.953	-33.11
874.126	-20.82
874.299	20.14
874.471	32.43
874.644	34.47
874.817	24.23
874.99	59.05
875.163	-31.06
875.335	-14.68
875.508	81.58
875.681	65.19
875.853	-0.34
876.026	-53.59
876.199	-12.63
876.371	18.09
876.544	9.9
876.717	1.71
876.889	7.85
877.062	-8.53
877.234	-35.16
877.407	-39.25
877.579	-20.82
877.752	40.62
877.924	52.91
878.097	67.24
878.269	65.19
878.442	40.62
878.614	-33.11
878.786	-20.82
878.959	34.47
879.131	7.85
879.303	-39.25
879.476	-0.34
879.648	32.43
879.82	22.19
879.993	50.86
880.165	91.82
880.337	-29.01
880.509	-16.73
880.681	-45.4
880.854	-12.63
881.026	36.52
881.198	85.67
881.37	-20.82
881.542	26.28
881.714	18.09
881.886	-24.92
882.058	-8.53
882.23	-39.25
882.402	11.95
882.574	44.71
882.746	3.75
882.918	48.81
883.09	13.99
883.262	16.04
883.434	-4.44
883.606	-49.49
883.778	26.28
883.95	69.29
884.122	22.19
884.293	69.29
884.465	16.04
884.637	100.01
884.809	11.95
884.98	18.09
885.152	20.14
885.324	1.71
885.496	3.75
885.667	46.76
885.839	16.04
886.011	28.33
886.182	-6.49
886.354	7.85
886.525	-33.11
886.697	-22.87
886.869	9.9
887.04	26.28
887.212	24.23
887.383	52.91
887.555	-55.64
887.726	57
887.897	7.85
888.069	24.23
888.24	18.09
888.412	83.63
888.583	-53.59
888.754	-61.78
888.926	34.47
889.097	16.04
889.268	-33.11
889.44	32.43
889.611	-22.87
889.782	-8.53
889.953	-12.63
890.125	57
890.296	1.71
890.467	110.25
890.638	13.99
890.809	-24.92
890.98	59.05
891.151	59.05
891.323	-14.68
891.494	-8.53
891.665	-20.82
891.836	67.24
892.007	-31.06
892.178	67.24
892.349	28.33
892.52	-2.39
892.691	-4.44
892.862	-33.11
893.032	-24.92
893.203	9.9
893.374	-2.39
893.545	46.76
893.716	-29.01
893.887	61.1
894.057	46.76
894.228	-0.34
894.399	-6.49
894.57	44.71
894.74	-0.34
894.911	-74.07
895.082	40.62
895.253	-57.68
895.423	-16.73
895.594	-33.11
895.764	-16.73
895.935	18.09
896.106	-59.73
896.276	57
896.447	-24.92
896.617	-6.49
896.788	-16.73
896.958	36.52
897.129	-12.63
897.299	18.09
897.47	18.09
897.64	7.85
897.81	26.28
897.981	61.1
898.151	1.71
898.322	52.91
898.492	-0.34
898.662	28.33
898.832	-16.73
899.003	20.14
899.173	40.62
899.343	-29.01
899.513	44.71
