Data from USB4F104151__263__14-46-02-740.txt Node

Date: Thu Mar 13 14:46:02 EDT 2025
User: louis
Spectrometer: USB4F10415
Trigger mode: 4
Integration Time (sec): 2.000000E-2
Scans to average: 1
Electric dark correction enabled: true
Nonlinearity correction enabled: false
Boxcar width: 0
XAxis mode: Wavelengths
Number of Pixels in Spectrum: 3648
>>>>>Begin Spectral Data<<<<<
178.204	-107.52
178.424	-107.52
178.644	-107.52
178.864	-181.25
179.084	-146.43
179.304	-72.7
179.524	-11.26
179.744	9.22
179.964	15.36
180.184	11.26
180.404	56.32
180.624	25.6
180.844	23.55
181.064	-25.6
181.283	66.56
181.503	-31.74
181.723	-66.56
181.943	-48.13
182.163	-31.74
182.383	121.85
182.602	13.31
182.822	-9.22
183.042	5.12
183.262	48.13
183.482	-5.12
183.701	-5.12
183.921	25.6
184.141	-15.36
184.361	50.18
184.58	11.26
184.8	25.6
185.02	56.32
185.239	35.84
185.459	41.98
185.679	91.13
185.898	-87.04
186.118	29.7
186.338	15.36
186.557	121.85
186.777	9.22
186.997	-46.08
187.216	-5.12
187.436	-17.41
187.655	60.42
187.875	52.22
188.095	-13.31
188.314	80.89
188.534	31.74
188.753	-17.41
188.973	66.56
189.192	7.17
189.412	68.61
189.631	60.42
189.851	25.6
190.07	33.79
190.29	-1.02
190.509	66.56
190.729	39.94
190.948	-29.7
191.168	134.14
191.387	58.37
191.607	31.74
191.826	41.98
192.045	-1.02
192.265	9.22
192.484	-1.02
192.704	23.55
192.923	-56.32
193.142	39.94
193.362	91.13
193.581	66.56
193.8	52.22
194.02	23.55
194.239	-5.12
194.458	15.36
194.678	-1.02
194.897	23.55
195.116	31.74
195.335	50.18
195.555	23.55
195.774	25.6
195.993	101.37
196.212	25.6
196.432	27.65
196.651	15.36
196.87	82.94
197.089	80.89
197.308	72.7
197.528	64.51
197.747	-31.74
197.966	5.12
198.185	113.66
198.404	-13.31
198.623	-7.17
198.842	15.36
199.062	15.36
199.281	52.22
199.5	31.74
199.719	21.5
199.938	72.7
200.157	23.55
200.376	-7.17
200.595	35.84
200.814	-11.26
201.033	3.07
201.252	41.98
201.471	-17.41
201.69	37.89
201.909	11.26
202.128	35.84
202.347	-1.02
202.566	64.51
202.785	70.65
203.004	19.46
203.223	76.8
203.442	11.26
203.661	-33.79
203.879	23.55
204.098	62.46
204.317	17.41
204.536	48.13
204.755	97.28
204.974	37.89
205.193	37.89
205.411	121.85
205.63	9.22
205.849	68.61
206.068	29.7
206.287	-23.55
206.505	15.36
206.724	48.13
206.943	17.41
207.162	41.98
207.381	19.46
207.599	39.94
207.818	31.74
208.037	-9.22
208.255	52.22
208.474	15.36
208.693	-1.02
208.911	50.18
209.13	-13.31
209.349	48.13
209.567	23.55
209.786	48.13
210.005	-25.6
210.223	-11.26
210.442	-15.36
210.661	50.18
210.879	-21.5
211.098	33.79
211.316	-11.26
211.535	66.56
211.753	33.79
211.972	31.74
212.191	-13.31
212.409	-25.6
212.628	19.46
212.846	1.02
213.065	82.94
213.283	56.32
213.502	76.8
213.72	60.42
213.938	-7.17
214.157	52.22
214.375	48.13
214.594	48.13
214.812	35.84
215.031	15.36
215.249	-13.31
215.467	105.47
215.686	87.04
215.904	107.52
216.122	50.18
216.341	-21.5
216.559	15.36
216.778	31.74
216.996	64.51
217.214	1.02
217.432	7.17
217.651	39.94
217.869	-1.02
218.087	-17.41
218.306	48.13
218.524	101.37
218.742	13.31
218.96	13.31
219.179	-5.12
219.397	72.7
219.615	105.47
219.833	15.36
220.051	27.65
220.27	33.79
220.488	99.33
220.706	50.18
220.924	-37.89
221.142	72.7
221.36	-41.98
221.578	76.8
221.796	44.03
222.015	41.98
222.233	-41.98
222.451	7.17
222.669	15.36
222.887	99.33
223.105	-13.31
223.323	58.37
223.541	11.26
223.759	48.13
223.977	50.18
224.195	35.84
224.413	52.22
224.631	19.46
224.849	1.02
225.067	41.98
225.285	17.41
225.503	44.03
225.721	-25.6
225.939	39.94
226.157	39.94
226.375	80.89
226.592	-5.12
226.81	7.17
227.028	-9.22
227.246	41.98
227.464	142.33
227.682	17.41
227.9	27.65
228.117	89.09
228.335	27.65
228.553	-17.41
228.771	58.37
228.989	89.09
229.206	-9.22
229.424	17.41
229.642	27.65
229.86	107.52
230.077	50.18
230.295	48.13
230.513	9.22
230.731	-1.02
230.948	9.22
231.166	58.37
231.384	15.36
231.601	44.03
231.819	37.89
232.037	46.08
232.254	72.7
232.472	78.85
232.689	87.04
232.907	105.47
233.125	1.02
233.342	50.18
233.56	-1.02
233.777	35.84
233.995	15.36
234.213	97.28
234.43	50.18
234.648	95.23
234.865	66.56
235.083	84.99
235.3	62.46
235.518	-5.12
235.735	82.94
235.953	39.94
236.17	17.41
236.388	19.46
236.605	3.07
236.822	84.99
237.04	74.75
237.257	72.7
237.475	-15.36
237.692	56.32
237.909	56.32
238.127	21.5
238.344	21.5
238.562	-1.02
238.779	48.13
238.996	72.7
239.214	15.36
239.431	80.89
239.648	48.13
239.865	9.22
240.083	72.7
240.3	82.94
240.517	35.84
240.735	-13.31
240.952	64.51
241.169	25.6
241.386	33.79
241.603	35.84
241.821	-29.7
242.038	74.75
242.255	91.13
242.472	39.94
242.689	72.7
242.907	74.75
243.124	138.24
243.341	25.6
243.558	1.02
243.775	68.61
243.992	41.98
244.209	23.55
244.426	97.28
244.643	-3.07
244.86	5.12
245.078	74.75
245.295	-9.22
245.512	97.28
245.729	-5.12
245.946	7.17
246.163	93.18
246.38	68.61
246.597	56.32
246.814	7.17
247.031	56.32
247.248	58.37
247.464	-17.41
247.681	5.12
247.898	35.84
248.115	74.75
248.332	1.02
248.549	72.7
248.766	123.9
248.983	80.89
249.2	101.37
249.417	3.07
249.633	44.03
249.85	46.08
250.067	44.03
250.284	93.18
250.501	-13.31
250.717	21.5
250.934	-7.17
251.151	-17.41
251.368	29.7
251.585	66.56
251.801	21.5
252.018	5.12
252.235	68.61
252.451	23.55
252.668	41.98
252.885	23.55
253.102	17.41
253.318	41.98
253.535	1.02
253.752	35.84
253.968	1.02
254.185	-25.6
254.401	-33.79
254.618	31.74
254.835	7.17
255.051	89.09
255.268	27.65
255.484	11.26
255.701	23.55
255.917	29.7
256.134	-9.22
256.351	-17.41
256.567	-9.22
256.784	39.94
257	52.22
257.217	64.51
257.433	7.17
257.65	31.74
257.866	101.37
258.082	-31.74
258.299	29.7
258.515	80.89
258.732	7.17
258.948	-21.5
259.165	76.8
259.381	58.37
259.597	99.33
259.814	9.22
260.03	17.41
260.246	31.74
260.463	44.03
260.679	84.99
260.895	56.32
261.112	66.56
261.328	72.7
261.544	44.03
261.761	64.51
261.977	3.07
262.193	-17.41
262.409	68.61
262.626	60.42
262.842	84.99
263.058	27.65
263.274	74.75
263.49	52.22
263.707	70.65
263.923	99.33
264.139	107.52
264.355	-9.22
264.571	48.13
264.787	68.61
265.004	52.22
265.22	23.55
265.436	-25.6
265.652	1.02
265.868	64.51
266.084	-7.17
266.3	7.17
266.516	93.18
266.732	1.02
266.948	37.89
267.164	48.13
267.38	15.36
267.596	80.89
267.812	39.94
268.028	56.32
268.244	64.51
268.46	-5.12
268.676	27.65
268.892	64.51
269.108	-29.7
269.324	15.36
269.54	-35.84
269.756	105.47
269.972	64.51
270.188	39.94
270.403	-3.07
270.619	68.61
270.835	68.61
271.051	52.22
271.267	82.94
271.483	52.22
271.698	15.36
271.914	25.6
272.13	78.85
272.346	44.03
272.562	56.32
272.777	113.66
272.993	11.26
273.209	33.79
273.425	91.13
273.64	-29.7
273.856	80.89
274.072	7.17
274.287	17.41
274.503	27.65
274.719	117.76
274.934	72.7
275.15	-37.89
275.366	60.42
275.581	44.03
275.797	35.84
276.012	-1.02
276.228	46.08
276.444	13.31
276.659	50.18
276.875	15.36
277.09	58.37
277.306	35.84
277.521	72.7
277.737	31.74
277.952	15.36
278.168	93.18
278.383	76.8
278.599	39.94
278.814	-82.94
279.03	-31.74
279.245	97.28
279.461	-19.46
279.676	-39.94
279.892	23.55
280.107	-39.94
280.322	56.32
280.538	35.84
280.753	27.65
280.969	19.46
281.184	-35.84
281.399	64.51
281.615	-1.02
281.83	39.94
282.045	-1.02
282.26	48.13
282.476	44.03
282.691	64.51
282.906	62.46
283.122	52.22
283.337	35.84
283.552	19.46
283.767	-25.6
283.983	72.7
284.198	60.42
284.413	66.56
284.628	-37.89
284.843	-33.79
285.058	23.55
285.274	123.9
285.489	19.46
285.704	-17.41
285.919	15.36
286.134	56.32
286.349	-23.55
286.564	72.7
286.779	99.33
286.995	11.26
287.21	9.22
287.425	54.27
287.64	7.17
287.855	44.03
288.07	35.84
288.285	41.98
288.5	87.04
288.715	82.94
288.93	50.18
289.145	-1.02
289.36	54.27
289.575	9.22
289.79	66.56
290.004	46.08
290.219	60.42
290.434	31.74
290.649	48.13
290.864	72.7
291.079	-25.6
291.294	5.12
291.509	48.13
291.724	97.28
291.938	56.32
292.153	-5.12
292.368	7.17
292.583	44.03
292.798	35.84
293.012	39.94
293.227	23.55
293.442	56.32
293.657	60.42
293.871	35.84
294.086	19.46
294.301	82.94
294.516	-33.79
294.73	17.41
294.945	15.36
295.16	31.74
295.374	15.36
295.589	89.09
295.804	3.07
296.018	99.33
296.233	91.13
296.447	21.5
296.662	7.17
296.877	15.36
297.091	76.8
297.306	41.98
297.52	-66.56
297.735	-25.6
297.949	66.56
298.164	48.13
298.378	54.27
298.593	44.03
298.807	87.04
299.022	99.33
299.236	31.74
299.451	66.56
299.665	15.36
299.88	74.75
300.094	91.13
300.309	31.74
300.523	39.94
300.737	9.22
300.952	-9.22
301.166	3.07
301.381	-15.36
301.595	27.65
301.809	23.55
302.024	-1.02
302.238	62.46
302.452	39.94
302.667	21.5
302.881	11.26
303.095	44.03
303.309	50.18
303.524	19.46
303.738	58.37
303.952	-21.5
304.166	44.03
304.381	-33.79
304.595	58.37
304.809	15.36
305.023	80.89
305.237	-50.18
305.452	-17.41
305.666	89.09
305.88	72.7
306.094	70.65
306.308	117.76
306.522	39.94
306.736	58.37
306.95	58.37
307.164	-17.41
307.379	23.55
307.593	80.89
307.807	21.5
308.021	60.42
308.235	89.09
308.449	-15.36
308.663	72.7
308.877	68.61
309.091	56.32
309.305	48.13
309.519	-9.22
309.733	58.37
309.947	7.17
310.161	99.33
310.374	146.43
310.588	35.84
310.802	25.6
311.016	27.65
311.23	3.07
311.444	15.36
311.658	56.32
311.872	58.37
312.085	72.7
312.299	130.05
312.513	105.47
312.727	17.41
312.941	9.22
313.154	11.26
313.368	23.55
313.582	56.32
313.796	35.84
314.009	17.41
314.223	9.22
314.437	29.7
314.651	58.37
314.864	52.22
315.078	64.51
315.292	-56.32
315.505	7.17
315.719	15.36
315.933	-17.41
316.146	123.9
316.36	23.55
316.573	154.62
316.787	-29.7
317.001	9.22
317.214	27.65
317.428	58.37
317.641	17.41
317.855	70.65
318.068	17.41
318.282	27.65
318.495	87.04
318.709	60.42
318.922	-5.12
319.136	74.75
319.349	19.46
319.563	39.94
319.776	93.18
319.99	15.36
320.203	76.8
320.417	23.55
320.63	23.55
320.843	-1.02
321.057	56.32
321.27	29.7
321.483	109.57
321.697	60.42
321.91	64.51
322.124	44.03
322.337	-21.5
322.55	-11.26
322.763	15.36
322.977	15.36
323.19	11.26
323.403	3.07
323.617	72.7
323.83	68.61
324.043	107.52
324.256	44.03
324.469	1.02
324.683	56.32
324.896	64.51
325.109	39.94
325.322	3.07
325.535	31.74
325.748	7.17
325.962	1.02
326.175	19.46
326.388	19.46
326.601	-9.22
326.814	84.99
327.027	31.74
327.24	44.03
327.453	-19.46
327.666	66.56
327.879	25.6
328.092	1.02
328.305	15.36
328.518	80.89
328.731	-17.41
328.944	72.7
329.157	-25.6
329.37	-29.7
329.583	91.13
329.796	87.04
330.009	27.65
330.222	31.74
330.435	68.61
330.648	39.94
330.861	-5.12
331.073	78.85
331.286	148.48
331.499	3.07
331.712	-7.17
331.925	1.02
332.138	17.41
332.35	115.71
332.563	56.32
332.776	64.51
332.989	-17.41
333.202	74.75
333.414	35.84
333.627	9.22
333.84	3.07
334.053	128
334.265	48.13
334.478	-25.6
334.691	-5.12
334.903	72.7
335.116	25.6
335.329	39.94
335.541	82.94
335.754	113.66
335.966	54.27
336.179	158.72
336.392	50.18
336.604	74.75
336.817	64.51
337.029	109.57
337.242	-3.07
337.454	48.13
337.667	25.6
337.88	89.09
338.092	-27.65
338.305	72.7
338.517	-35.84
338.729	31.74
338.942	158.72
339.154	15.36
339.367	-19.46
339.579	93.18
339.792	-17.41
340.004	3.07
340.217	72.7
340.429	78.85
340.641	50.18
340.854	15.36
341.066	19.46
341.278	89.09
341.491	99.33
341.703	52.22
341.915	-21.5
342.128	97.28
342.34	25.6
342.552	11.26
342.764	56.32
342.977	52.22
343.189	105.47
343.401	82.94
343.613	-3.07
343.826	97.28
344.038	58.37
344.25	105.47
344.462	58.37
344.674	68.61
344.886	33.79
345.099	84.99
345.311	41.98
345.523	15.36
345.735	-21.5
345.947	15.36
346.159	31.74
346.371	50.18
346.583	101.37
346.795	74.75
347.007	29.7
347.219	66.56
347.431	7.17
347.643	56.32
347.855	33.79
348.067	80.89
348.279	80.89
348.491	48.13
348.703	105.47
348.915	41.98
349.127	-17.41
349.339	41.98
349.551	21.5
349.763	41.98
349.975	-11.26
350.187	25.6
350.399	74.75
350.61	48.13
350.822	84.99
351.034	56.32
351.246	76.8
351.458	82.94
351.669	109.57
351.881	80.89
352.093	25.6
352.305	46.08
352.517	84.99
352.728	74.75
352.94	-31.74
353.152	39.94
353.363	72.7
353.575	-27.65
353.787	74.75
353.999	50.18
354.21	68.61
354.422	15.36
354.633	56.32
354.845	-41.98
355.057	48.13
355.268	35.84
355.48	80.89
355.692	11.26
355.903	27.65
356.115	-37.89
356.326	-1.02
356.538	41.98
356.749	23.55
356.961	80.89
357.172	23.55
357.384	7.17
357.595	80.89
357.807	68.61
358.018	1.02
358.23	-7.17
358.441	123.9
358.653	84.99
358.864	9.22
359.075	64.51
359.287	3.07
359.498	29.7
359.709	31.74
359.921	25.6
360.132	23.55
360.344	64.51
360.555	89.09
360.766	64.51
360.977	72.7
361.189	58.37
361.4	9.22
361.611	84.99
361.823	66.56
362.034	93.18
362.245	-23.55
362.456	64.51
362.667	44.03
362.879	39.94
363.09	7.17
363.301	95.23
363.512	80.89
363.723	17.41
363.935	23.55
364.146	72.7
364.357	27.65
364.568	80.89
364.779	-27.65
364.99	125.95
365.201	-15.36
365.412	93.18
365.623	97.28
365.834	44.03
366.045	39.94
366.256	72.7
366.467	87.04
366.678	72.7
366.889	125.95
367.1	-19.46
367.311	72.7
367.522	31.74
367.733	97.28
367.944	39.94
368.155	33.79
368.366	123.9
368.577	138.24
368.788	82.94
368.999	50.18
369.209	1.02
369.42	68.61
369.631	197.63
369.842	78.85
370.053	31.74
370.264	146.43
370.474	82.94
370.685	97.28
370.896	-1.02
371.107	64.51
371.317	48.13
371.528	35.84
371.739	87.04
371.95	72.7
372.16	103.42
372.371	44.03
372.582	31.74
372.792	62.46
373.003	72.7
373.214	113.66
373.424	39.94
373.635	48.13
373.846	156.67
374.056	-11.26
374.267	78.85
374.477	54.27
374.688	27.65
374.898	-1.02
375.109	76.8
375.319	78.85
375.53	80.89
375.74	117.76
375.951	35.84
376.161	15.36
376.372	52.22
376.582	27.65
376.793	87.04
377.003	25.6
377.214	-7.17
377.424	82.94
377.635	76.8
377.845	-33.79
378.055	39.94
378.266	56.32
378.476	105.47
378.686	11.26
378.897	80.89
379.107	117.76
379.317	80.89
379.528	54.27
379.738	74.75
379.948	29.7
380.158	115.71
380.369	58.37
380.579	31.74
380.789	39.94
380.999	56.32
381.21	101.37
381.42	136.19
381.63	101.37
381.84	82.94
382.05	80.89
382.261	123.9
382.471	97.28
382.681	-9.22
382.891	72.7
383.101	64.51
383.311	35.84
383.521	31.74
383.731	64.51
383.941	89.09
384.151	97.28
384.361	-33.79
384.571	142.33
384.781	64.51
384.991	50.18
385.201	66.56
385.411	46.08
385.621	56.32
385.831	52.22
386.041	164.86
386.251	76.8
386.461	72.7
386.671	99.33
386.881	39.94
387.091	1.02
387.301	82.94
387.511	82.94
387.72	111.61
387.93	72.7
388.14	41.98
388.35	105.47
388.56	89.09
388.769	80.89
388.979	136.19
389.189	3.07
389.399	39.94
389.609	132.09
389.818	97.28
390.028	82.94
390.238	105.47
390.447	64.51
390.657	132.09
390.867	27.65
391.076	17.41
391.286	33.79
391.496	91.13
391.705	80.89
391.915	146.43
392.125	70.65
392.334	68.61
392.544	142.33
392.753	72.7
392.963	99.33
393.172	101.37
393.382	72.7
393.591	113.66
393.801	121.85
394.01	109.57
394.22	23.55
394.429	64.51
394.639	103.42
394.848	48.13
395.058	76.8
395.267	91.13
395.477	74.75
395.686	54.27
395.895	101.37
396.105	107.52
396.314	142.33
396.524	132.09
396.733	130.05
396.942	158.72
397.152	99.33
397.361	97.28
397.57	128
397.78	134.14
397.989	76.8
398.198	197.63
398.407	70.65
398.617	146.43
398.826	64.51
399.035	99.33
399.244	152.57
399.453	35.84
399.663	80.89
399.872	121.85
400.081	64.51
400.29	146.43
400.499	138.24
400.708	195.58
400.917	111.61
401.127	179.2
401.336	117.76
401.545	187.39
401.754	105.47
401.963	107.52
402.172	41.98
402.381	107.52
402.59	101.37
402.799	142.33
403.008	209.92
403.217	72.7
403.426	179.2
403.635	130.05
403.844	162.81
404.053	205.82
404.262	111.61
404.471	187.39
404.68	95.23
404.888	117.76
405.097	211.96
405.306	187.39
405.515	189.44
405.724	191.49
405.933	187.39
406.142	199.68
406.35	199.68
406.559	134.14
406.768	158.72
406.977	203.77
407.185	242.68
407.394	150.53
407.603	199.68
407.812	248.83
408.02	254.97
408.229	166.91
408.438	246.78
408.646	173.05
408.855	195.58
409.064	232.44
409.272	211.96
409.481	302.08
409.69	269.31
409.898	310.27
410.107	304.12
410.315	343.03
410.524	388.09
410.733	355.32
410.941	377.85
411.15	306.17
411.358	359.42
411.567	369.66
411.775	420.86
411.984	310.27
412.192	371.71
412.401	490.49
412.609	500.73
412.818	457.72
413.026	566.26
413.234	529.4
413.443	611.32
413.651	506.87
413.86	515.06
414.068	672.76
414.276	609.27
414.485	531.45
414.693	728.05
414.901	719.86
415.11	760.82
415.318	746.48
415.526	670.71
415.734	746.48
415.943	805.88
416.151	728.05
416.359	818.16
416.567	877.55
416.776	871.41
416.984	988.14
417.192	982
417.4	1039.34
417.608	965.62
417.817	1002.48
418.025	1088.5
418.233	1168.37
418.441	1145.84
418.649	1108.98
418.857	1242.09
419.065	1367.02
419.273	1307.63
419.481	1328.11
419.689	1285.1
419.897	1438.7
420.105	1551.34
420.313	1571.82
420.521	1604.58
420.729	1614.82
420.937	1655.78
421.145	1717.22
421.353	1803.24
421.561	1942.5
421.769	1946.59
421.977	2032.61
422.185	2046.94
422.393	2104.29
422.601	2227.17
422.809	2280.41
423.017	2360.28
423.224	2362.33
423.432	2489.31
423.64	2436.06
423.848	2685.91
424.056	2655.19
424.263	2841.56
424.471	2888.66
424.679	2898.9
424.887	3015.63
425.094	3161.04
425.302	3181.52
425.51	3185.62
425.718	3505.1
425.925	3523.53
426.133	3433.42
426.341	3726.28
426.548	3857.35
426.756	4037.57
426.964	3843.01
427.171	4185.02
427.379	4287.42
427.586	4246.46
427.794	4557.75
428.001	4578.23
428.209	4998.07
428.417	4826.04
428.624	5170.1
428.832	5135.28
429.039	5047.22
429.247	4924.34
429.454	5628.84
429.662	5888.93
429.869	5538.73
430.076	6075.3
430.284	5800.87
430.491	6138.79
430.699	6398.88
430.906	6300.58
431.114	6552.48
431.321	6736.79
431.528	6726.55
431.736	7216.02
431.943	7512.97
432.15	7338.9
432.358	7535.5
432.565	7916.42
432.772	7850.89
432.979	8108.93
433.187	8141.7
433.394	8409.98
433.601	8844.15
433.808	9087.86
434.016	8962.94
434.223	9296.75
434.43	9878.38
434.637	9710.44
434.844	10175.33
435.052	10404.71
435.259	10541.92
435.466	10795.87
435.673	10337.12
435.88	11170.65
436.087	11838.28
436.294	11799.37
436.501	11440.98
436.708	11629.39
436.915	12114.76
437.122	12757.82
437.329	12559.17
437.537	13159.22
437.743	13413.17
437.95	13042.49
438.157	14019.37
438.364	14156.58
438.571	14406.44
438.778	14324.52
438.985	15455
439.192	15194.9
439.399	15342.36
439.606	15143.7
439.813	16102.15
440.02	16900.86
440.227	16579.33
440.433	16399.11
440.64	17130.23
440.847	16960.25
441.054	17455.86
441.261	18576.1
441.467	18186.99
441.674	18586.34
441.881	19372.76
442.088	19241.69
442.294	18934.5
442.501	19630.8
442.708	20267.72
442.914	20806.34
443.121	21684.92
443.328	21351.1
443.534	22569.64
443.741	21852.85
443.948	21682.87
444.154	23548.57
444.361	23448.22
444.568	23255.71
444.774	23304.86
444.981	23675.54
445.187	24089.23
445.394	25451.13
445.6	25193.09
445.807	27693.66
446.013	26172.02
446.22	26653.29
446.426	27675.23
446.633	27781.72
446.839	29217.35
447.046	28090.96
447.252	29465.15
447.459	29618.75
447.665	29407.81
447.871	30781.99
448.078	32055.83
448.284	30695.98
448.491	31427.1
448.697	32895.5
448.903	33434.11
449.11	33397.25
449.316	32852.49
449.522	33702.4
449.728	34281.97
449.935	34593.26
450.141	34609.65
450.347	35391.97
450.553	34677.23
450.76	34992.62
450.966	36045.27
451.172	35795.42
451.378	36946.38
451.584	36000.22
451.791	36866.51
451.997	37003.72
452.203	37286.34
452.409	37505.48
452.615	36958.67
452.821	35875.29
453.027	35287.53
453.233	37894.59
453.44	36215.26
453.646	36819.41
453.852	36538.83
454.058	37648.83
454.264	36301.27
454.47	37089.74
454.676	36231.64
454.882	37540.29
455.088	34003.45
455.294	34988.52
455.5	35498.47
455.705	36078.04
455.911	34388.47
456.117	34056.7
456.323	33526.27
456.529	31650.33
456.735	33233.41
456.941	32074.26
457.147	31730.2
457.352	30915.11
457.558	30612.01
457.764	30689.84
457.97	30313.01
458.176	29538.88
458.381	29649.47
458.587	28160.59
458.793	28246.61
458.999	26862.18
459.204	28709.45
459.41	28019.28
459.616	25762.42
459.821	25727.61
460.027	25899.64
460.233	25459.32
460.438	24296.08
460.644	24461.96
460.85	23696.02
461.055	22909.6
461.261	23089.82
461.466	21299.9
461.672	20906.69
461.878	22284.97
462.083	20640.45
462.289	20320.97
462.494	19825.36
462.7	18965.21
462.905	18590.44
463.111	19626.71
463.316	19614.42
463.522	19034.85
463.727	19047.13
463.932	18969.31
464.138	18899.68
464.343	19147.48
464.549	18670.31
464.754	19241.69
464.959	18850.53
465.165	18705.12
465.37	17734.39
465.575	17515.25
465.781	18240.23
465.986	18586.34
466.191	17650.42
466.397	17341.18
466.602	16546.56
466.807	17183.48
467.012	17298.17
467.218	17132.28
467.423	16904.96
467.628	17007.36
467.833	17656.56
468.038	17130.23
468.244	16730.88
468.449	17187.58
468.654	17001.21
468.859	16360.2
469.064	16317.19
469.269	15952.65
469.474	16053
469.679	16161.55
469.885	15948.56
470.09	15960.84
470.295	15962.89
470.5	15618.83
470.705	16139.02
470.91	15395.61
471.115	15164.18
471.32	15440.66
471.525	15524.63
471.73	15123.23
471.935	15117.08
472.139	14588.71
472.344	14605.09
472.549	14199.59
472.754	14279.46
472.959	14033.71
473.164	13740.85
473.369	13746.99
473.574	14013.23
473.778	14097.19
473.983	13927.21
474.188	13777.71
474.393	13210.42
474.598	13159.22
474.802	13368.12
475.007	13083.45
475.212	13015.87
475.417	12585.79
475.621	12540.74
475.826	12589.89
476.031	12399.43
476.235	12237.64
476.44	12378.95
476.645	12321.6
476.849	12092.23
477.054	11881.29
477.259	11744.08
477.463	11664.21
477.668	11539.28
477.872	11860.81
478.077	11434.83
478.282	11225.94
478.486	11330.39
478.691	10963.8
478.895	10943.32
479.1	10992.47
479.304	10836.83
479.509	10695.52
479.713	10879.83
479.918	10570.59
480.122	10586.97
480.326	10644.32
480.531	10685.28
480.735	10589.02
480.94	10265.44
481.144	10775.39
481.348	10394.47
481.553	10275.68
481.757	10376.03
481.961	10318.69
482.166	10431.33
482.37	10308.45
482.574	10005.35
482.778	10199.91
482.983	10206.05
483.187	10163.04
483.391	10365.79
483.595	10169.19
483.8	10189.67
484.004	10226.53
484.208	10353.51
484.412	10132.33
484.616	10496.86
484.821	10287.97
485.025	10126.18
485.229	10394.47
485.433	10120.04
485.637	10064.74
485.841	9997.16
486.045	10310.5
486.249	10152.81
486.453	10357.6
486.657	10290.02
486.861	10347.36
487.065	9976.68
487.269	10271.59
487.473	9995.11
487.677	10431.33
487.881	10396.51
488.085	10363.75
488.289	10394.47
488.493	10165.09
488.697	10345.31
488.901	10384.23
489.105	10468.19
489.309	10238.82
489.512	10421.09
489.716	10349.41
489.92	10511.2
490.124	10212.2
490.328	10756.96
490.531	10437.47
490.735	10636.13
490.939	10621.79
491.143	10550.11
491.346	10750.81
491.55	10724.19
491.754	10824.54
491.958	10648.41
492.161	10795.87
492.365	11133.78
492.569	10865.5
492.772	10978.14
492.976	11184.98
493.18	11381.59
493.383	11223.89
493.587	11377.49
493.79	11516.75
493.994	11494.22
494.197	11770.7
494.401	11651.92
494.605	11623.25
494.808	11893.58
495.012	11873.1
495.215	11948.87
495.419	12026.7
495.622	12041.03
495.825	12321.6
496.029	12292.93
496.232	12563.26
496.436	12454.72
496.639	13019.96
496.843	12786.49
497.046	12923.71
497.249	13304.63
497.453	13339.44
497.656	13454.13
497.859	13368.12
498.063	13708.08
498.266	13730.61
498.469	13744.94
498.673	13923.12
498.876	14234.41
499.079	14205.74
499.282	14385.96
499.485	14807.84
499.689	14799.65
499.892	15078.17
500.095	15194.9
500.298	15588.11
500.501	15383.32
500.705	15864.59
500.908	16163.59
501.111	16397.06
501.314	16579.33
501.517	16397.06
501.72	16878.33
501.923	16685.83
502.126	17230.59
502.329	17513.2
502.532	17476.34
502.735	17621.75
502.938	18025.2
503.141	18062.06
503.344	18379.5
503.547	18705.12
503.75	19139.29
503.953	19430.1
504.156	19253.98
504.359	19639
504.562	19774.16
504.765	20210.38
504.968	20257.48
505.17	20609.73
505.373	20550.34
505.576	20890.31
505.779	21246.65
505.982	21189.31
506.185	21701.3
506.387	21764.79
506.59	21959.34
506.793	22516.39
506.996	22508.2
507.198	23134.88
507.401	23132.83
507.604	23610.01
507.807	23747.22
508.009	24165.01
508.212	24283.79
508.415	25033.35
508.617	24988.29
508.82	25109.12
509.022	24840.84
509.225	25309.82
509.428	25942.64
509.63	26286.7
509.833	26372.72
510.035	26937.96
510.238	26937.96
510.44	27327.07
510.643	28203.6
510.845	27951.7
511.048	28148.31
511.25	28426.83
511.453	28662.35
511.655	29561.4
511.858	29469.25
512.06	29712.95
512.262	30001.72
512.465	29745.72
512.667	30437.94
512.87	31044.13
513.072	31017.51
513.274	31541.79
513.477	31773.21
513.679	32244.24
513.881	32557.58
514.084	32887.31
514.286	33108.49
514.488	33323.52
514.69	34167.29
514.893	34066.94
515.095	34417.14
515.297	34769.39
515.499	34957.8
515.701	35252.71
515.904	35824.09
516.106	36317.65
516.308	36598.23
516.51	37059.02
516.712	37089.74
516.914	37673.41
517.116	38152.63
517.318	38136.25
517.52	38318.52
517.722	38496.69
517.925	39047.6
518.127	39430.57
518.329	39436.71
518.531	39657.89
518.733	40776.08
518.935	40753.55
519.136	40343.96
519.338	41372.04
519.54	41798.02
519.742	41970.05
519.944	41802.11
520.146	43225.45
520.348	42668.4
520.55	43360.62
520.752	43358.57
520.954	44376.41
521.155	43725.16
521.357	44593.5
521.559	44777.81
521.761	45306.19
521.963	45566.28
522.164	45998.4
522.366	46051.65
522.568	46600.5
522.77	47042.87
522.971	46911.8
523.173	46924.08
523.375	47632.68
523.576	48005.41
523.778	47483.18
523.98	48458.01
524.181	48484.64
524.383	48787.74
524.584	49049.88
524.786	48943.38
524.988	48898.33
525.189	49676.55
525.391	49969.41
525.592	50254.08
525.794	50864.38
525.995	50487.55
526.197	50673.91
526.398	51177.72
526.6	50907.38
526.801	50895.1
527.003	51691.76
527.204	51513.58
527.406	52027.62
527.607	51806.44
527.808	52504.8
528.01	51648.75
528.211	52517.09
528.412	52900.06
528.614	52670.68
528.815	52553.95
529.016	53444.82
529.218	53078.23
529.419	53362.9
529.62	52906.2
529.822	53047.51
530.023	53289.17
530.224	53776.59
530.425	53842.12
530.626	53020.89
530.828	53080.28
531.029	54292.68
531.23	53645.52
531.431	53618.89
531.632	53637.33
531.833	53711.05
532.035	53913.8
532.236	54149.32
532.437	54184.13
532.638	53653.71
532.839	54298.82
533.04	54505.66
533.241	53702.86
533.442	54927.55
533.643	54597.82
533.844	54472.9
534.045	54497.47
534.246	54032.58
534.447	54417.6
534.648	54530.24
534.849	54427.84
535.05	54524.1
535.251	54268.1
535.451	54462.66
535.652	54864.06
535.853	54397.12
536.054	55052.47
536.255	55171.25
536.456	54292.68
536.657	55259.32
536.857	54888.63
537.058	54241.48
537.259	54816.96
537.46	54819
537.66	54128.84
537.861	54902.97
538.062	54612.16
538.263	54726.84
538.463	54857.91
538.664	54669.5
538.865	54706.37
539.065	55167.16
539.266	54599.87
539.466	55181.49
539.667	54110.41
539.868	54661.31
540.068	54534.34
540.269	54360.26
540.469	54696.13
540.67	54302.92
540.87	54751.42
541.071	54560.96
541.271	54579.39
541.472	54642.88
541.672	54681.79
541.873	54329.54
542.073	53792.97
542.274	55072.95
542.474	54423.75
542.675	54257.86
542.875	54702.27
543.075	54329.54
543.276	54118.6
543.476	55021.75
543.676	54403.27
543.877	54806.72
544.077	54649.02
544.277	54333.63
544.478	54487.23
544.678	54882.49
544.878	54470.85
545.078	54235.33
545.279	54640.83
545.479	54126.79
545.679	54606.01
545.879	54161.61
546.079	54573.25
546.28	54546.62
546.48	53713.1
546.68	54853.82
546.88	54575.3
547.08	54372.55
547.28	54276.29
547.48	54134.98
547.68	54753.47
547.88	53770.44
548.081	54624.45
548.281	54169.8
548.481	54300.87
548.681	54771.9
548.881	54012.1
549.081	54425.79
549.28	54341.83
549.48	54358.21
549.68	54374.59
549.88	54792.38
550.08	53883.08
550.28	54528.19
550.48	54438.08
550.68	54659.26
550.88	53967.05
551.08	54192.33
551.279	54079.69
551.479	53610.7
551.679	53977.29
551.879	54194.37
552.079	54128.84
552.278	54282.44
552.478	54393.03
552.678	54223.04
552.878	54098.12
553.077	53928.14
553.277	53833.93
553.477	54534.34
553.676	54153.41
553.876	53704.91
554.076	54089.93
554.275	53776.59
554.475	53418.19
554.674	53936.33
554.874	53563.6
555.074	53371.09
555.273	53428.43
555.473	53637.33
555.672	53440.72
555.872	53749.96
556.071	53145.81
556.271	53788.88
556.47	53369.04
556.67	53453.01
556.869	52756.7
557.068	53268.69
557.268	53051.61
557.467	53254.36
557.667	53373.14
557.866	52981.98
558.065	53164.24
558.265	53285.07
558.464	52834.52
558.663	53547.21
558.863	52433.12
559.062	53539.02
559.261	52529.37
559.461	53326.03
559.66	51982.57
559.859	52803.8
560.058	52496.61
560.258	52713.69
560.457	52265.19
560.656	52515.04
560.855	52318.43
561.054	52596.96
561.253	52062.44
561.453	52701.4
561.652	52613.34
561.851	52498.65
562.05	52179.17
562.249	51835.11
562.448	52420.83
562.647	51953.9
562.846	52023.53
563.045	51687.66
563.244	51392.75
563.443	52412.64
563.642	50653.44
563.841	51630.32
564.04	51294.45
564.239	51849.45
564.438	51237.11
564.637	51407.09
564.836	51607.79
565.035	51028.21
565.234	51130.61
565.432	51101.94
565.631	50526.46
565.83	50958.58
566.029	50987.25
566.228	51052.79
566.427	50360.58
566.625	50569.47
566.824	50272.51
567.023	50721.02
567.222	49361.17
567.42	50749.69
567.619	50340.1
567.818	49897.73
568.016	49701.13
568.215	50137.35
568.414	49729.8
568.612	50161.92
568.811	49764.62
569.01	49989.89
569.208	49377.55
569.407	49787.14
569.605	49006.87
569.804	49688.84
570.002	48859.41
570.201	49637.64
570.4	48818.46
570.598	48845.08
570.797	48435.48
570.995	48625.95
571.193	48742.68
571.392	48767.26
571.59	48251.17
571.789	48349.47
571.987	48468.25
572.186	48230.69
572.384	47974.69
572.582	48038.18
572.781	48183.58
572.979	47616.3
573.177	48214.3
573.376	47724.84
573.574	47655.21
573.772	47769.9
573.971	47188.27
574.169	47165.74
574.367	47249.71
574.565	46932.28
574.763	47077.68
574.962	46758.2
575.16	46559.55
575.358	46274.88
575.556	46080.32
575.754	46813.49
575.952	45896
576.151	46293.31
576.349	45869.38
576.547	46068.03
576.745	45887.81
576.943	46084.42
577.141	45635.91
577.339	45803.85
577.537	45250.89
577.735	45590.86
577.933	45123.92
578.131	45351.24
578.329	44998.99
578.527	44908.88
578.725	44947.79
578.923	44853.59
579.121	44751.19
579.319	44314.97
579.516	44484.95
579.714	44327.26
579.912	44185.95
580.11	43966.82
580.308	44167.52
580.506	43970.91
580.704	43696.49
580.901	43546.98
581.099	43989.34
581.297	43084.14
581.495	43135.34
581.692	43436.39
581.89	42989.94
582.088	43223.4
582.285	42897.78
582.483	42928.5
582.681	42762.61
582.878	42445.18
583.076	42563.96
583.274	42774.9
583.471	41980.29
583.669	41898.37
583.866	41521.54
584.064	42250.62
584.262	41378.18
584.459	42133.89
584.657	41841.03
584.854	41812.35
585.052	41128.33
585.249	41243.02
585.447	41214.35
585.644	41062.8
585.841	41269.64
586.039	41261.45
586.236	40366.49
586.434	40493.46
586.631	40143.26
586.828	40223.13
587.026	40763.79
587.223	40307.1
587.42	40012.19
587.618	40073.63
587.815	39883.17
588.012	39272.87
588.21	39578.02
588.407	39971.23
588.604	39627.17
588.801	39264.68
588.999	39338.41
589.196	39184.81
589.393	39190.95
589.59	38771.12
589.787	38797.74
589.984	38832.56
590.182	38291.9
590.379	38867.37
590.576	38414.77
590.773	38212.02
590.97	38480.31
591.167	37972.41
591.364	38029.76
591.561	37804.48
591.758	37571.01
591.955	37589.44
592.152	37861.82
592.349	37538.24
592.546	37704.13
592.743	37476.8
592.94	36454.87
593.137	37224.9
593.334	37343.69
593.531	36614.61
593.727	36960.72
593.924	36794.83
594.121	36270.55
594.318	36768.21
594.515	35992.03
594.712	36753.87
594.908	36028.89
595.105	36202.97
595.302	35828.19
595.499	35934.68
595.696	35488.23
595.892	35537.38
596.089	35424.74
596.286	35717.6
596.482	35103.21
596.679	35219.94
596.876	35385.83
597.072	34886.12
597.269	35088.87
597.466	34853.36
597.662	34392.56
597.859	34380.28
598.055	34454
598.252	34388.47
598.448	34507.25
598.645	34402.8
598.841	34152.95
599.038	34183.67
599.234	33882.62
599.431	33692.16
599.627	33356.29
599.824	34073.08
600.02	33542.66
600.217	33380.87
600.413	33387.01
600.609	33618.43
600.806	33243.65
601.002	33157.64
601.198	32481.81
601.395	32915.98
601.591	32969.22
601.787	32684.56
601.984	32602.64
602.18	32989.7
602.376	32436.75
602.572	32221.72
602.769	32182.8
602.965	31762.97
603.161	32145.94
603.357	31787.55
603.553	31863.32
603.75	31961.62
603.946	31654.43
604.142	31722.01
604.338	31044.13
604.534	31255.08
604.73	31060.52
604.926	31210.02
605.122	31394.34
605.318	30839.34
605.514	30749.23
605.71	30583.34
605.906	30718.51
606.102	30183.99
606.298	30310.96
606.494	30327.35
606.69	30204.47
606.886	30476.85
607.082	30048.82
607.278	29983.29
607.474	29942.33
607.67	29772.35
607.866	29526.59
608.062	29751.87
608.257	29610.56
608.453	29383.23
608.649	29719.1
608.845	29301.31
609.041	29303.36
609.236	29121.09
609.432	29385.28
609.628	29305.41
609.824	28983.88
610.019	29051.46
610.215	28688.97
610.411	29413.95
610.606	28920.39
610.802	29053.51
610.998	28770.89
611.193	28629.58
611.389	28549.71
611.584	28541.52
611.78	28484.17
611.976	28314.19
612.171	28619.34
612.367	28023.38
612.562	28240.47
612.758	27808.34
612.953	27763.29
613.149	28164.69
613.344	27646.55
613.539	28086.87
613.735	27785.82
613.93	27748.95
614.126	27642.46
614.321	27570.78
614.517	27902.55
614.712	27763.29
614.907	27554.4
615.103	27452
615.298	27312.74
615.493	27642.46
615.688	27058.79
615.884	27650.65
616.079	26935.91
616.274	26956.39
616.47	27101.79
616.665	26980.96
616.86	26950.24
617.055	26901.09
617.25	26722.92
617.445	26761.83
617.641	26008.18
617.836	26536.56
618.031	26401.39
618.226	26759.78
618.421	25934.45
618.616	26493.55
618.811	25991.8
619.006	26110.58
619.201	25662.07
619.396	25768.57
619.591	25774.71
619.786	25920.12
619.981	25578.11
620.176	25842.29
620.371	25248.38
620.566	24883.84
620.761	25049.73
620.956	25129.6
621.151	24638.09
621.346	24732.29
621.541	24375.95
621.735	24380.04
621.93	24238.73
622.125	24461.96
622.32	23808.66
622.515	23800.47
622.709	23794.32
622.904	23712.41
623.099	23458.46
623.294	23556.76
623.488	23257.76
623.683	23474.84
623.878	23003.81
624.072	23159.45
624.267	23098.02
624.462	22938.27
624.656	22334.12
624.851	22667.94
625.046	22405.8
625.24	22528.68
625.435	22227.63
625.629	22205.1
625.824	21881.52
626.018	21883.57
626.213	21537.46
626.407	21988.02
626.602	21271.23
626.796	21451.45
626.991	21406.39
627.185	21142.21
627.38	20914.88
627.574	20626.12
627.768	20847.3
627.963	20400.84
628.157	20286.15
628.352	20761.28
628.546	20230.86
628.74	20540.1
628.935	19905.23
629.129	20064.97
629.323	19966.67
629.517	19878.61
629.712	19643.09
629.906	19385.05
630.1	19170.01
630.294	19356.38
630.489	19116.76
630.683	19469.01
630.877	18860.77
631.071	18932.45
631.265	18907.87
631.459	18721.51
631.653	18606.82
631.848	18739.94
632.042	18457.32
632.236	18490.09
632.43	18244.33
632.624	18426.6
632.818	17857.26
633.012	17890.03
633.206	17824.5
633.4	17767.15
633.594	17814.26
633.788	17457.91
633.982	17750.77
634.176	17556.21
634.369	17167.1
634.563	17521.4
634.757	17158.91
634.951	17185.53
635.145	17095.42
635.339	17246.97
635.533	16864
635.726	16837.38
635.92	16413.45
636.114	16487.17
636.308	16368.39
636.501	16470.79
636.695	16452.36
636.889	16229.13
637.083	16196.36
637.276	16022.28
637.47	15923.98
637.664	15797.01
637.857	16069.39
638.051	15688.46
638.244	15526.68
638.438	15452.95
638.632	15534.87
638.825	15252.25
639.019	15278.87
639.212	15272.73
639.406	15213.34
639.599	15014.68
639.793	14977.82
639.986	14568.23
640.18	14975.77
640.373	14588.71
640.567	14625.57
640.76	14545.7
640.954	14529.31
641.147	14568.23
641.34	14320.42
641.534	14345
641.727	14058.28
641.92	14023.47
642.114	13912.88
642.307	13845.29
642.5	13665.07
642.694	13411.12
642.887	13394.74
643.08	13638.45
643.273	13314.87
643.467	13407.03
643.66	13181.75
643.853	13161.27
644.046	12866.36
644.239	13071.16
644.432	13228.85
644.626	12663.61
644.819	12944.19
645.012	12768.06
645.205	12610.37
645.398	12458.82
645.591	12602.18
645.784	12600.13
645.977	12505.92
646.17	12458.82
646.363	12096.33
646.556	12063.56
646.749	12106.57
646.942	12127.05
647.135	11918.15
647.328	11989.83
647.521	11725.65
647.714	11746.12
647.907	11717.45
648.099	11641.68
648.292	11731.79
648.485	11445.07
648.678	11275.09
648.871	11346.77
649.064	11152.21
649.256	11217.75
649.449	11248.47
649.642	11189.08
649.835	10898.27
650.027	10910.55
650.22	11105.11
650.413	10810.2
650.605	10742.62
650.798	10566.49
650.991	10636.13
651.183	10623.84
651.376	10533.73
651.568	10726.24
651.761	10427.23
651.954	10361.7
652.146	10322.79
652.339	10181.48
652.531	10148.71
652.724	10068.84
652.916	10062.69
653.109	9980.78
653.301	10027.88
653.494	9823.08
653.686	9689.96
653.879	9745.26
654.071	9675.63
654.263	9501.55
654.456	9698.16
654.648	9681.77
654.84	9522.03
655.033	9288.56
655.225	9438.06
655.417	9395.06
655.61	9448.3
655.802	9128.82
655.994	9102.2
656.186	9161.59
656.379	8936.31
656.571	8936.31
656.763	8846.2
656.955	8893.3
657.148	8768.38
657.34	8745.85
657.532	8733.56
657.724	8790.91
657.916	8637.31
658.108	8645.5
658.3	8571.77
658.492	8493.95
658.684	8391.55
658.876	8334.21
659.068	8283.01
659.26	8215.43
659.452	8199.04
659.644	8215.43
659.836	8274.82
660.028	7990.15
660.22	7859.08
660.412	7832.46
660.604	7654.28
660.796	7766.92
660.988	7740.3
661.18	7752.59
661.372	7621.52
661.563	7725.96
661.755	7484.3
661.947	7500.69
662.139	7277.46
662.331	7195.54
662.522	7439.25
662.714	7289.74
662.906	7269.27
663.097	7250.83
663.289	7136.15
663.481	7146.39
663.673	7064.47
663.864	6949.78
664.056	7021.46
664.247	6945.69
664.439	7007.13
664.631	6949.78
664.822	6941.59
665.014	6730.65
665.205	6896.53
665.397	6675.35
665.588	6515.61
665.78	6421.41
665.971	6515.61
666.163	6568.86
666.354	6421.41
666.546	6398.88
666.737	6439.84
666.929	6423.45
667.12	6169.51
667.311	6314.91
667.503	6200.23
667.694	6347.68
667.885	6167.46
668.077	6089.64
668.268	5995.43
668.459	6017.96
668.651	5964.71
668.842	6007.72
669.033	5864.36
669.224	5927.85
669.416	5831.59
669.607	5548.97
669.798	5847.97
669.989	5794.73
670.18	5782.44
670.371	5528.49
670.563	5663.66
670.754	5624.75
670.945	5528.49
671.136	5618.6
671.327	5579.69
671.518	5530.54
671.709	5422
671.9	5602.22
672.091	5405.61
672.282	5520.3
672.473	5376.94
672.664	5415.85
672.855	5311.41
673.046	5245.87
673.237	5301.17
673.428	5276.59
673.619	5329.84
673.809	5172.15
674	5204.91
674.191	5174.19
674.382	5102.51
674.573	5112.75
674.764	5106.61
674.954	5073.84
675.145	5178.29
675.336	4973.49
675.527	4979.64
675.717	5039.03
675.908	4938.68
676.099	4981.68
676.289	4881.33
676.48	4942.77
676.671	4754.36
676.861	4930.48
677.052	4807.61
677.243	4676.54
677.433	4717.5
677.624	4703.16
677.814	4654.01
678.005	4662.2
678.195	4733.88
678.386	4602.81
678.576	4746.17
678.767	4627.39
678.957	4701.11
679.148	4645.82
679.338	4678.58
679.529	4629.43
679.719	4424.64
679.909	4697.02
680.1	4604.86
680.29	4631.48
680.481	4596.67
680.671	4576.19
680.861	4608.95
681.052	4565.95
681.242	4496.32
681.432	4539.32
681.622	4445.12
681.813	4441.02
682.003	4490.17
682.193	4400.06
682.383	4232.13
682.573	4434.88
682.764	4414.4
682.954	4307.9
683.144	4332.48
683.334	4393.92
683.524	4266.94
683.714	4324.29
683.904	4365.25
684.094	4299.71
684.284	4309.95
684.474	4266.94
684.664	4250.56
684.854	4250.56
685.044	4217.79
685.234	4207.55
685.424	4209.6
685.614	4180.93
685.804	4307.9
685.994	4221.89
686.184	4225.98
686.374	4201.41
686.564	4105.15
686.753	4180.93
686.943	4135.87
687.133	4119.49
687.323	4058.05
687.513	4324.29
687.702	4078.53
687.892	4080.58
688.082	4039.62
688.272	4217.79
688.461	4056
688.651	4152.26
688.841	4056
689.03	4076.48
689.22	3963.84
689.41	4043.71
689.599	4088.77
689.789	4017.09
689.979	4105.15
690.168	4058.05
690.358	3945.41
690.547	4019.14
690.737	4031.43
690.926	3974.08
691.116	3738.57
691.305	3998.66
691.495	3769.29
691.684	3791.81
691.874	3873.73
692.063	3808.2
692.252	3836.87
692.442	3744.71
692.631	3781.57
692.82	3976.13
693.01	3759.05
693.199	3916.74
693.388	3662.79
693.578	3728.33
693.767	3900.36
693.956	3666.89
694.146	3703.75
694.335	3646.41
694.524	3746.76
694.713	3769.29
694.902	3668.94
695.092	3812.29
695.281	3777.48
695.47	3662.79
695.659	3552.2
695.848	3689.42
696.037	3636.17
696.226	3587.02
696.415	3636.17
696.604	3640.26
696.793	3576.78
696.982	3621.83
697.171	3673.03
697.36	3595.21
697.549	3707.85
697.738	3537.87
697.927	3523.53
698.116	3521.48
698.305	3464.14
698.494	3480.52
698.683	3603.4
698.872	3529.67
699.061	3517.39
699.25	3455.95
699.438	3515.34
699.627	3365.84
699.816	3556.3
700.005	3472.33
700.193	3408.84
700.382	3486.67
700.571	3501
700.76	3544.01
700.948	3498.95
701.137	3537.87
701.326	3417.04
701.514	3431.37
701.703	3384.27
701.892	3236.81
702.08	3425.23
702.269	3288.01
702.457	3310.54
702.646	3345.36
702.834	3496.91
703.023	3271.63
703.212	3431.37
703.4	3292.11
703.589	3101.65
703.777	3177.42
703.965	3283.92
704.154	3210.19
704.342	3187.66
704.531	3259.34
704.719	3083.22
704.907	3220.43
705.096	3152.85
705.284	3034.07
705.472	3122.13
705.661	3152.85
705.849	3161.04
706.037	3195.86
706.226	3128.27
706.414	3228.62
706.602	3058.64
706.79	3115.98
706.979	2984.91
707.167	3115.98
707.355	2952.15
707.543	3146.7
707.731	2972.63
707.919	3101.65
708.107	3015.63
708.296	2939.86
708.484	3142.61
708.672	3027.92
708.86	3005.39
709.048	2896.85
709.236	2876.37
709.424	2915.28
709.612	2868.18
709.8	2831.32
709.988	2751.45
710.176	2839.51
710.364	2964.43
710.551	2907.09
710.739	3007.44
710.927	2946
711.115	2962.39
711.303	2649.05
711.491	2913.24
711.679	2780.12
711.866	2845.65
712.054	2876.37
712.242	2702.29
712.43	2671.58
712.617	2728.92
712.805	2802.65
712.993	2669.53
713.181	2665.43
713.368	2739.16
713.556	2692.05
713.744	2563.03
713.931	2696.15
714.119	2653.14
714.306	2743.25
714.494	2698.2
714.682	2618.33
714.869	2626.52
715.057	2581.46
715.244	2640.86
715.432	2624.47
715.619	2690.01
715.807	2491.35
715.994	2434.01
716.182	2669.53
716.369	2595.8
716.556	2583.51
716.744	2532.31
716.931	2370.52
717.119	2509.79
717.306	2442.2
717.493	2458.59
717.681	2350.04
717.868	2522.07
718.055	2376.67
718.242	2446.3
718.43	2425.82
718.617	2503.64
718.804	2442.2
718.991	2413.53
719.179	2335.71
719.366	2411.48
719.553	2434.01
719.74	2358.24
719.927	2386.91
720.114	2407.39
720.301	2337.76
720.488	2206.69
720.676	2284.51
720.863	2335.71
721.05	2356.19
721.237	2282.46
721.424	2329.56
721.611	2317.28
721.798	2210.78
721.985	2298.84
722.172	2374.62
722.358	2261.98
722.545	2231.26
722.732	2198.49
722.919	2284.51
723.106	2155.49
723.293	2167.77
723.48	2149.34
723.667	2165.73
723.853	2143.2
724.04	2190.3
724.227	2194.4
724.414	2059.23
724.6	2073.57
724.787	2108.38
724.974	2153.44
725.161	2089.95
725.347	2005.99
725.534	2030.56
725.72	2114.53
725.907	2149.34
726.094	2143.2
726.28	2071.52
726.467	2096.1
726.653	2112.48
726.84	1977.31
727.027	2141.15
727.213	1999.84
727.4	2081.76
727.586	2081.76
727.773	2038.75
727.959	2057.18
728.145	1950.69
728.332	1924.07
728.518	1905.63
728.705	1952.74
728.891	1903.59
729.077	1907.68
729.264	1926.11
729.45	2005.99
729.636	1985.51
729.823	1848.29
730.009	1985.51
730.195	1928.16
730.382	1854.44
730.568	1868.77
730.754	1809.38
730.94	1809.38
731.126	1788.9
731.313	1860.58
731.499	1815.52
731.685	1768.42
731.871	1874.92
732.057	1932.26
732.243	1803.24
732.429	1846.24
732.615	1866.72
732.801	1727.46
732.987	1754.09
733.173	1879.01
733.359	1733.61
733.545	1735.65
733.731	1815.52
733.917	1686.5
734.103	1645.54
734.289	1735.65
734.475	1672.17
734.661	1899.49
734.847	1731.56
735.033	1747.94
735.219	1788.9
735.404	1620.97
735.59	1688.55
735.776	1651.69
735.962	1666.02
736.148	1727.46
736.333	1735.65
736.519	1661.93
736.705	1657.83
736.89	1620.97
737.076	1565.67
737.262	1582.06
737.447	1612.78
737.633	1661.93
737.819	1706.98
738.004	1696.74
738.19	1645.54
738.375	1555.43
738.561	1522.66
738.747	1584.1
738.932	1620.97
739.118	1604.58
739.303	1571.82
739.489	1610.73
739.674	1563.62
739.859	1547.24
740.045	1526.76
740.23	1467.37
740.416	1530.86
740.601	1510.38
740.786	1481.71
740.972	1481.71
741.157	1530.86
741.342	1493.99
741.528	1516.52
741.713	1508.33
741.898	1438.7
742.084	1450.99
742.269	1459.18
742.454	1532.9
742.639	1444.84
742.824	1414.12
743.01	1498.09
743.195	1457.13
743.38	1473.51
743.565	1420.27
743.75	1436.65
743.935	1407.98
744.12	1457.13
744.305	1379.31
744.49	1334.25
744.675	1377.26
744.86	1328.11
745.045	1319.92
745.23	1283.05
745.415	1328.11
745.6	1285.1
745.785	1379.31
745.97	1258.48
746.155	1211.37
746.34	1268.72
746.525	1194.99
746.71	1369.07
746.895	1297.39
747.079	1217.52
747.264	1252.33
747.449	1260.52
747.634	1123.31
747.819	1264.62
748.003	1317.87
748.188	1186.8
748.373	1082.35
748.557	1258.48
748.742	1127.41
748.927	1235.95
749.111	1147.89
749.296	1098.74
749.481	1246.19
749.665	1184.75
749.85	1219.57
750.034	1141.74
750.219	1176.56
750.404	1180.65
750.588	1041.39
750.773	1031.15
750.957	1147.89
751.141	1145.84
751.326	1055.73
751.51	1029.1
751.695	1092.59
751.879	1084.4
752.064	1104.88
752.248	1090.54
752.432	1057.78
752.617	1014.77
752.801	1045.49
752.985	918.51
753.17	1156.08
753.354	994.29
753.538	1004.53
753.722	924.66
753.907	973.81
754.091	912.37
754.275	982
754.459	953.33
754.643	891.89
754.828	885.75
755.012	916.47
755.196	908.27
755.38	1014.77
755.564	834.55
755.748	990.19
755.932	932.85
756.116	992.24
756.3	986.1
756.484	990.19
756.668	945.14
756.852	838.64
757.036	877.55
757.22	840.69
757.404	842.74
757.588	842.74
757.772	879.6
757.956	930.8
758.14	852.98
758.323	877.55
758.507	793.59
758.691	865.27
758.875	766.96
759.059	805.88
759.242	820.21
759.426	842.74
759.61	830.45
759.794	855.03
759.977	863.22
760.161	932.85
760.345	793.59
760.528	779.25
760.712	801.78
760.895	818.16
761.079	807.92
761.263	719.86
761.446	689.14
761.63	728.05
761.813	834.55
761.997	744.44
762.18	637.94
762.364	748.53
762.547	703.48
762.731	719.86
762.914	672.76
763.098	777.2
763.281	748.53
763.464	734.2
763.648	721.91
763.831	771.06
764.015	760.82
764.198	670.71
764.381	556.02
764.564	758.77
764.748	703.48
764.931	695.29
765.114	664.57
765.297	740.34
765.481	680.95
765.664	685.05
765.847	736.24
766.03	762.87
766.213	654.33
766.397	695.29
766.58	605.17
766.763	744.44
766.946	726
767.129	654.33
767.312	644.09
767.495	730.1
767.678	613.37
767.861	568.31
768.044	717.81
768.227	656.37
768.41	687.09
768.593	674.81
768.776	615.41
768.959	637.94
769.142	662.52
769.324	584.7
769.507	691.19
769.69	635.89
769.873	560.12
770.056	629.75
770.239	596.98
770.421	637.94
770.604	654.33
770.787	596.98
770.97	586.74
771.152	580.6
771.335	689.14
771.518	683
771.7	570.36
771.883	549.88
772.066	642.04
772.248	625.65
772.431	605.17
772.613	660.47
772.796	623.61
772.978	568.31
773.161	613.37
773.343	621.56
773.526	578.55
773.708	607.22
773.891	539.64
774.073	572.41
774.256	556.02
774.438	609.27
774.621	596.98
774.803	580.6
774.985	494.58
775.168	615.41
775.35	498.68
775.532	590.84
775.715	472.06
775.897	519.16
776.079	525.3
776.261	510.97
776.444	500.73
776.626	484.34
776.808	547.83
776.99	408.57
777.173	576.5
777.355	513.02
777.537	506.87
777.719	500.73
777.901	517.11
778.083	465.91
778.265	420.86
778.447	519.16
778.629	400.38
778.811	490.49
778.993	533.5
779.175	492.54
779.357	478.2
779.539	486.39
779.721	482.3
779.903	527.35
780.085	510.97
780.267	451.58
780.449	486.39
780.631	443.39
780.812	457.72
780.994	427
781.176	427
781.358	367.61
781.54	369.66
781.721	408.57
781.903	470.01
782.085	334.84
782.267	490.49
782.448	418.81
782.63	396.28
782.812	474.1
782.993	451.58
783.175	441.34
783.357	367.61
783.538	443.39
783.72	388.09
783.901	367.61
784.083	379.9
784.264	318.46
784.446	320.51
784.627	291.84
784.809	336.89
784.99	375.8
785.172	400.38
785.353	314.36
785.535	336.89
785.716	326.65
785.897	357.37
786.079	408.57
786.26	388.09
786.441	320.51
786.623	330.75
786.804	293.88
786.985	336.89
787.167	418.81
787.348	320.51
787.529	347.13
787.71	408.57
787.891	304.12
788.073	279.55
788.254	302.08
788.435	453.63
788.616	226.3
788.797	195.58
788.978	285.69
789.159	269.31
789.34	326.65
789.522	281.6
789.703	297.98
789.884	365.56
790.065	232.44
790.246	343.03
790.427	211.96
790.607	246.78
790.788	295.93
790.969	316.41
791.15	312.32
791.331	246.78
791.512	343.03
791.693	222.2
791.874	261.12
792.054	269.31
792.235	236.54
792.416	222.2
792.597	228.35
792.778	240.64
792.958	269.31
793.139	289.79
793.32	271.36
793.5	244.73
793.681	242.68
793.862	259.07
794.042	250.88
794.223	318.46
794.404	277.5
794.584	166.91
794.765	154.62
794.945	236.54
795.126	236.54
795.306	244.73
795.487	216.06
795.667	214.01
795.848	302.08
796.028	171.01
796.209	246.78
796.389	211.96
796.57	277.5
796.75	185.34
796.93	216.06
797.111	197.63
797.291	199.68
797.471	162.81
797.652	197.63
797.832	189.44
798.012	252.92
798.192	265.21
798.373	171.01
798.553	236.54
798.733	195.58
798.913	130.05
799.093	164.86
799.274	179.2
799.454	230.4
799.634	175.1
799.814	181.25
799.994	185.34
800.174	138.24
800.354	183.29
800.534	152.57
800.714	171.01
800.894	195.58
801.074	148.48
801.254	277.5
801.434	214.01
801.614	228.35
801.794	189.44
801.974	834.55
802.154	228.35
802.334	175.1
802.514	187.39
802.693	132.09
802.873	201.72
803.053	181.25
803.233	220.16
803.413	199.68
803.592	193.53
803.772	125.95
803.952	113.66
804.131	160.77
804.311	203.77
804.491	197.63
804.67	179.2
804.85	138.24
805.03	211.96
805.209	179.2
805.389	134.14
805.568	123.9
805.748	199.68
805.928	97.28
806.107	154.62
806.287	128
806.466	203.77
806.646	140.29
806.825	150.53
807.004	183.29
807.184	113.66
807.363	228.35
807.543	128
807.722	154.62
807.901	162.81
808.081	107.52
808.26	121.85
808.439	181.25
808.619	150.53
808.798	205.82
808.977	142.33
809.156	179.2
809.336	150.53
809.515	115.71
809.694	60.42
809.873	109.57
810.052	144.38
810.231	89.09
810.411	146.43
810.59	84.99
810.769	111.61
810.948	130.05
811.127	148.48
811.306	123.9
811.485	52.22
811.664	99.33
811.843	158.72
812.022	89.09
812.201	46.08
812.38	95.23
812.559	89.09
812.737	121.85
812.916	72.7
813.095	76.8
813.274	89.09
813.453	117.76
813.632	82.94
813.811	148.48
813.989	115.71
814.168	125.95
814.347	121.85
814.526	82.94
814.704	146.43
814.883	138.24
815.062	130.05
815.24	89.09
815.419	35.84
815.598	70.65
815.776	150.53
815.955	72.7
816.133	56.32
816.312	132.09
816.49	162.81
816.669	72.7
816.847	91.13
817.026	68.61
817.204	138.24
817.383	72.7
817.561	84.99
817.74	179.2
817.918	50.18
818.097	97.28
818.275	48.13
818.453	230.4
818.632	134.14
818.81	76.8
818.988	46.08
819.167	58.37
819.345	68.61
819.523	64.51
819.701	74.75
819.879	121.85
820.058	146.43
820.236	33.79
820.414	91.13
820.592	95.23
820.77	19.46
820.948	91.13
821.127	68.61
821.305	130.05
821.483	74.75
821.661	138.24
821.839	84.99
822.017	132.09
822.195	68.61
822.373	72.7
822.551	97.28
822.729	119.81
822.907	115.71
823.085	31.74
823.262	80.89
823.44	56.32
823.618	1.02
823.796	93.18
823.974	44.03
824.152	78.85
824.329	105.47
824.507	41.98
824.685	50.18
824.863	56.32
825.04	101.37
825.218	48.13
825.396	50.18
825.574	89.09
825.751	50.18
825.929	113.66
826.107	91.13
826.284	105.47
826.462	148.48
826.639	78.85
826.817	44.03
826.994	125.95
827.172	64.51
827.349	121.85
827.527	64.51
827.704	82.94
827.882	46.08
828.059	54.27
828.237	82.94
828.414	89.09
828.591	52.22
828.769	64.51
828.946	-13.31
829.124	91.13
829.301	27.65
829.478	25.6
829.655	58.37
829.833	144.38
830.01	17.41
830.187	50.18
830.364	58.37
830.542	76.8
830.719	76.8
830.896	156.67
831.073	134.14
831.25	54.27
831.427	66.56
831.604	-1.02
831.782	31.74
831.959	138.24
832.136	35.84
832.313	56.32
832.49	39.94
832.667	80.89
832.844	50.18
833.021	56.32
833.198	113.66
833.374	72.7
833.551	107.52
833.728	62.46
833.905	78.85
834.082	25.6
834.259	56.32
834.436	76.8
834.612	21.5
834.789	23.55
834.966	60.42
835.143	113.66
835.319	9.22
835.496	68.61
835.673	80.89
835.85	68.61
836.026	11.26
836.203	52.22
836.38	5.12
836.556	9.22
836.733	48.13
836.909	130.05
837.086	72.7
837.262	15.36
837.439	91.13
837.616	58.37
837.792	60.42
837.968	64.51
838.145	52.22
838.321	70.65
838.498	-15.36
838.674	72.7
838.851	48.13
839.027	72.7
839.203	179.2
839.38	80.89
839.556	56.32
839.732	39.94
839.909	23.55
840.085	52.22
840.261	-17.41
840.437	39.94
840.614	68.61
840.79	158.72
840.966	74.75
841.142	138.24
841.318	7.17
841.494	23.55
841.671	44.03
841.847	66.56
842.023	1.02
842.199	-13.31
842.375	103.42
842.551	-31.74
842.727	44.03
842.903	101.37
843.079	-46.08
843.255	7.17
843.431	7.17
843.607	64.51
843.783	-99.33
843.959	17.41
844.134	74.75
844.31	58.37
844.486	39.94
844.662	27.65
844.838	27.65
845.013	87.04
845.189	52.22
845.365	64.51
845.541	-23.55
845.716	29.7
845.892	-13.31
846.068	33.79
846.244	5.12
846.419	23.55
846.595	17.41
846.77	25.6
846.946	91.13
847.122	23.55
847.297	-7.17
847.473	13.31
847.648	87.04
847.824	15.36
847.999	7.17
848.175	-41.98
848.35	50.18
848.526	113.66
848.701	84.99
848.876	1.02
849.052	3.07
849.227	58.37
849.403	52.22
849.578	89.09
849.753	-48.13
849.929	7.17
850.104	-25.6
850.279	-1.02
850.454	-31.74
850.63	54.27
850.805	23.55
850.98	23.55
851.155	-15.36
851.33	7.17
851.505	-1.02
851.681	41.98
851.856	39.94
852.031	27.65
852.206	27.65
852.381	-46.08
852.556	15.36
852.731	29.7
852.906	-1.02
853.081	1.02
853.256	48.13
853.431	31.74
853.606	35.84
853.781	3.07
853.956	-25.6
854.131	17.41
854.305	27.65
854.48	1.02
854.655	25.6
854.83	80.89
855.005	64.51
855.18	48.13
855.354	15.36
855.529	39.94
855.704	-17.41
855.879	23.55
856.053	44.03
856.228	31.74
856.403	54.27
856.577	66.56
856.752	-58.37
856.926	48.13
857.101	68.61
857.276	-58.37
857.45	41.98
857.625	11.26
857.799	-25.6
857.974	66.56
858.148	-13.31
858.323	58.37
858.497	39.94
858.672	-46.08
858.846	72.7
859.02	-13.31
859.195	-37.89
859.369	72.7
859.543	15.36
859.718	9.22
859.892	56.32
860.066	58.37
860.241	31.74
860.415	13.31
860.589	-11.26
860.763	17.41
860.938	9.22
861.112	-9.22
861.286	64.51
861.46	93.18
861.634	-74.75
861.808	70.65
861.982	-48.13
862.157	1.02
862.331	-54.27
862.505	-5.12
862.679	-37.89
862.853	-1.02
863.027	-17.41
863.201	74.75
863.375	44.03
863.549	1.02
863.722	21.5
863.896	76.8
864.07	1.02
864.244	-1.02
864.418	76.8
864.592	39.94
864.766	-13.31
864.939	7.17
865.113	-25.6
865.287	21.5
865.461	9.22
865.634	39.94
865.808	-15.36
865.982	-37.89
866.156	35.84
866.329	5.12
866.503	29.7
866.676	17.41
866.85	41.98
867.024	39.94
867.197	44.03
867.371	-9.22
867.544	-44.03
867.718	-33.79
867.891	68.61
868.065	-64.51
868.238	-7.17
868.412	56.32
868.585	-56.32
868.759	-1.02
868.932	-7.17
869.105	11.26
869.279	-54.27
869.452	-9.22
869.625	56.32
869.799	-39.94
869.972	-39.94
870.145	11.26
870.319	48.13
870.492	-23.55
870.665	9.22
870.838	-48.13
871.011	-56.32
871.185	74.75
871.358	11.26
871.531	23.55
871.704	37.89
871.877	15.36
872.05	-3.07
872.223	-31.74
872.396	31.74
872.569	-1.02
872.742	-17.41
872.915	31.74
873.088	23.55
873.261	-58.37
873.434	39.94
873.607	41.98
873.78	48.13
873.953	-3.07
874.126	-35.84
874.299	35.84
874.471	-7.17
874.644	-17.41
874.817	64.51
874.99	56.32
875.163	35.84
875.335	29.7
875.508	-1.02
875.681	80.89
875.853	-95.23
876.026	27.65
876.199	31.74
876.371	68.61
876.544	-48.13
876.717	-29.7
876.889	-9.22
877.062	78.85
877.234	-82.94
877.407	-48.13
877.579	17.41
877.752	11.26
877.924	58.37
878.097	66.56
878.269	39.94
878.442	7.17
878.614	9.22
878.786	33.79
878.959	-7.17
879.131	-7.17
879.303	-25.6
879.476	37.89
879.648	-11.26
879.82	41.98
879.993	35.84
880.165	23.55
880.337	31.74
880.509	1.02
880.681	-13.31
880.854	-9.22
881.026	-46.08
881.198	56.32
881.37	-9.22
881.542	1.02
881.714	21.5
881.886	41.98
882.058	44.03
882.23	7.17
882.402	66.56
882.574	-11.26
882.746	31.74
882.918	46.08
883.09	109.57
883.262	19.46
883.434	-33.79
883.606	-48.13
883.778	23.55
883.95	97.28
884.122	-23.55
884.293	52.22
884.465	31.74
884.637	-48.13
884.809	23.55
884.98	9.22
885.152	23.55
885.324	66.56
885.496	7.17
885.667	1.02
885.839	-9.22
886.011	15.36
886.182	19.46
886.354	64.51
886.525	52.22
886.697	-37.89
886.869	-7.17
887.04	15.36
887.212	21.5
887.383	31.74
887.555	-33.79
887.726	-1.02
887.897	33.79
888.069	-46.08
888.24	3.07
888.412	-27.65
888.583	-29.7
888.754	31.74
888.926	-37.89
889.097	11.26
889.268	33.79
889.44	-37.89
889.611	19.46
889.782	-60.42
889.953	9.22
890.125	15.36
890.296	-60.42
890.467	15.36
890.638	7.17
890.809	-1.02
890.98	-89.09
891.151	33.79
891.323	35.84
891.494	-68.61
891.665	-19.46
891.836	1.02
892.007	35.84
892.178	23.55
892.349	1.02
892.52	31.74
892.691	-13.31
892.862	-72.7
893.032	7.17
893.203	60.42
893.374	5.12
893.545	3.07
893.716	19.46
893.887	29.7
894.057	50.18
894.228	-1.02
894.399	19.46
894.57	25.6
894.74	93.18
894.911	15.36
895.082	-41.98
895.253	-39.94
895.423	-15.36
895.594	29.7
895.764	-31.74
895.935	15.36
896.106	7.17
896.276	56.32
896.447	-15.36
896.617	66.56
896.788	1.02
896.958	-39.94
897.129	-33.79
897.299	-138.24
897.47	1.02
897.64	-33.79
897.81	27.65
897.981	-39.94
898.151	23.55
898.322	87.04
898.492	50.18
898.662	-56.32
898.832	-7.17
899.003	29.7
899.173	-25.6
899.343	-70.65
899.513	-3.07
