Data from USB4F104151__95__14-43-36-854.txt Node

Date: Thu Mar 13 14:43:36 EDT 2025
User: louis
Spectrometer: USB4F10415
Trigger mode: 4
Integration Time (sec): 2.000000E-2
Scans to average: 1
Electric dark correction enabled: true
Nonlinearity correction enabled: false
Boxcar width: 0
XAxis mode: Wavelengths
Number of Pixels in Spectrum: 3648
>>>>>Begin Spectral Data<<<<<
178.204	-75.6
178.424	-75.6
178.644	-75.6
178.864	-85.84
179.084	-173.91
179.304	-1.88
179.524	-24.4
179.744	0.17
179.964	-8.02
180.184	37.03
180.404	-16.21
180.624	-32.6
180.844	10.41
181.064	-18.26
181.283	51.37
181.503	-42.84
181.723	45.23
181.943	-63.32
182.163	-20.31
182.383	-26.45
182.602	51.37
182.822	0.17
183.042	26.79
183.262	63.66
183.482	-8.02
183.701	-28.5
183.921	-67.41
184.141	-34.64
184.361	-14.17
184.58	-34.64
184.8	10.41
185.02	26.79
185.239	41.13
185.459	39.08
185.679	114.86
185.898	-34.64
186.118	-22.36
186.338	84.14
186.557	55.47
186.777	59.56
186.997	43.18
187.216	22.7
187.436	18.6
187.655	6.31
187.875	6.31
188.095	-30.55
188.314	30.89
188.534	59.56
188.753	-42.84
188.973	39.08
189.192	80.04
189.412	53.42
189.631	47.27
189.851	104.62
190.07	14.51
190.29	-10.07
190.509	8.36
190.729	24.75
190.948	71.85
191.168	-10.07
191.387	98.47
191.607	39.08
191.826	43.18
192.045	47.27
192.265	-14.17
192.484	51.37
192.704	18.6
192.923	-10.07
193.142	65.71
193.362	73.9
193.581	22.7
193.8	90.28
194.02	100.52
194.239	-65.36
194.458	16.55
194.678	8.36
194.897	6.31
195.116	-30.55
195.335	49.32
195.555	4.27
195.774	22.7
195.993	71.85
196.212	32.94
196.432	82.09
196.651	32.94
196.87	-5.97
197.089	-5.97
197.308	63.66
197.528	59.56
197.747	55.47
197.966	43.18
198.185	57.51
198.404	-51.03
198.623	32.94
198.842	82.09
199.062	10.41
199.281	16.55
199.5	2.22
199.719	18.6
199.938	63.66
200.157	43.18
200.376	51.37
200.595	-32.6
200.814	-8.02
201.033	-1.88
201.252	77.99
201.471	32.94
201.69	98.47
201.909	-8.02
202.128	71.85
202.347	30.89
202.566	22.7
202.785	-10.07
203.004	-87.89
203.223	102.57
203.442	-24.4
203.661	2.22
203.879	-30.55
204.098	88.23
204.317	10.41
204.536	-5.97
204.755	39.08
204.974	55.47
205.193	16.55
205.411	69.8
205.63	75.95
205.849	43.18
206.068	-55.12
206.287	-51.03
206.505	18.6
206.724	55.47
206.943	-1.88
207.162	129.19
207.381	39.08
207.599	-59.22
207.818	30.89
208.037	47.27
208.255	73.9
208.474	-40.79
208.693	16.55
208.911	-8.02
209.13	-18.26
209.349	39.08
209.567	90.28
209.786	123.05
210.005	26.79
210.223	-22.36
210.442	-32.6
210.661	63.66
210.879	45.23
211.098	6.31
211.316	16.55
211.535	39.08
211.753	6.31
211.972	63.66
212.191	34.99
212.409	55.47
212.628	63.66
212.846	-32.6
213.065	96.43
213.283	53.42
213.502	92.33
213.72	-65.36
213.938	-18.26
214.157	61.61
214.375	47.27
214.594	-5.97
214.812	53.42
215.031	-48.98
215.249	6.31
215.467	26.79
215.686	39.08
215.904	39.08
216.122	-38.74
216.341	90.28
216.559	49.32
216.778	71.85
216.996	45.23
217.214	39.08
217.432	51.37
217.651	0.17
217.869	-32.6
218.087	24.75
218.306	-42.84
218.524	39.08
218.742	-8.02
218.96	41.13
219.179	18.6
219.397	41.13
219.615	108.71
219.833	14.51
220.051	49.32
220.27	24.75
220.488	92.33
220.706	6.31
220.924	6.31
221.142	59.56
221.36	51.37
221.578	39.08
221.796	8.36
222.015	-51.03
222.233	63.66
222.451	51.37
222.669	-12.12
222.887	47.27
223.105	39.08
223.323	-30.55
223.541	-30.55
223.759	63.66
223.977	20.65
224.195	61.61
224.413	39.08
224.631	39.08
224.849	47.27
225.067	51.37
225.285	14.51
225.503	14.51
225.721	-1.88
225.939	8.36
226.157	69.8
226.375	108.71
226.592	-26.45
226.81	14.51
227.028	32.94
227.246	82.09
227.464	63.66
227.682	18.6
227.9	39.08
228.117	39.08
228.335	71.85
228.553	14.51
228.771	-1.88
228.989	0.17
229.206	16.55
229.424	-8.02
229.642	0.17
229.86	-24.4
230.077	-5.97
230.295	-1.88
230.513	-12.12
230.731	92.33
230.948	71.85
231.166	-36.69
231.384	59.56
231.601	-3.93
231.819	8.36
232.037	-26.45
232.254	14.51
232.472	34.99
232.689	6.31
232.907	8.36
233.125	2.22
233.342	80.04
233.56	-12.12
233.777	-1.88
233.995	-26.45
234.213	20.65
234.43	39.08
234.648	8.36
234.865	10.41
235.083	-8.02
235.3	-1.88
235.518	92.33
235.735	14.51
235.953	26.79
236.17	-14.17
236.388	-22.36
236.605	53.42
236.822	104.62
237.04	51.37
237.257	57.51
237.475	6.31
237.692	47.27
237.909	8.36
238.127	34.99
238.344	75.95
238.562	80.04
238.779	0.17
238.996	-46.93
239.214	47.27
239.431	0.17
239.648	-8.02
239.865	34.99
240.083	18.6
240.3	-57.17
240.517	-16.21
240.735	16.55
240.952	118.95
241.169	53.42
241.386	30.89
241.603	41.13
241.821	49.32
242.038	55.47
242.255	18.6
242.472	22.7
242.689	114.86
242.907	-18.26
243.124	16.55
243.341	57.51
243.558	-8.02
243.775	24.75
243.992	26.79
244.209	-5.97
244.426	75.95
244.643	32.94
244.86	90.28
245.078	6.31
245.295	26.79
245.512	32.94
245.729	55.47
245.946	63.66
246.163	47.27
246.38	-20.31
246.597	2.22
246.814	49.32
247.031	10.41
247.248	-1.88
247.464	90.28
247.681	61.61
247.898	22.7
248.115	-18.26
248.332	-104.28
248.549	-59.22
248.766	41.13
248.983	118.95
249.2	34.99
249.417	137.38
249.633	28.84
249.85	30.89
250.067	-91.99
250.284	6.31
250.501	26.79
250.717	39.08
250.934	16.55
251.151	-77.65
251.368	59.56
251.585	26.79
251.801	14.51
252.018	30.89
252.235	67.75
252.451	-26.45
252.668	16.55
252.885	-5.97
253.102	16.55
253.318	30.89
253.535	-34.64
253.752	-10.07
253.968	24.75
254.185	-1.88
254.401	-8.02
254.618	34.99
254.835	30.89
255.051	26.79
255.268	41.13
255.484	55.47
255.701	16.55
255.917	59.56
256.134	-5.97
256.351	26.79
256.567	51.37
256.784	51.37
257	-38.74
257.217	22.7
257.433	71.85
257.65	84.14
257.866	65.71
258.082	8.36
258.299	14.51
258.515	39.08
258.732	-1.88
258.948	-42.84
259.165	16.55
259.381	6.31
259.597	-1.88
259.814	32.94
260.03	51.37
260.246	24.75
260.463	59.56
260.679	49.32
260.895	22.7
261.112	26.79
261.328	55.47
261.544	24.75
261.761	96.43
261.977	-26.45
262.193	-1.88
262.409	-55.12
262.626	-18.26
262.842	32.94
263.058	-5.97
263.274	6.31
263.49	34.99
263.707	16.55
263.923	43.18
264.139	8.36
264.355	34.99
264.571	-63.32
264.787	41.13
265.004	59.56
265.22	-30.55
265.436	6.31
265.652	-22.36
265.868	6.31
266.084	-22.36
266.3	28.84
266.516	-59.22
266.732	80.04
266.948	39.08
267.164	22.7
267.38	77.99
267.596	-14.17
267.812	53.42
268.028	-10.07
268.244	34.99
268.46	82.09
268.676	-10.07
268.892	12.46
269.108	8.36
269.324	0.17
269.54	-18.26
269.756	43.18
269.972	-5.97
270.188	57.51
270.403	-22.36
270.619	49.32
270.835	37.03
271.051	16.55
271.267	8.36
271.483	16.55
271.698	63.66
271.914	61.61
272.13	34.99
272.346	10.41
272.562	-5.97
272.777	-30.55
272.993	65.71
273.209	26.79
273.425	71.85
273.64	6.31
273.856	57.51
274.072	22.7
274.287	-18.26
274.503	10.41
274.719	65.71
274.934	-1.88
275.15	-51.03
275.366	39.08
275.581	47.27
275.797	59.56
276.012	47.27
276.228	59.56
276.444	22.7
276.659	22.7
276.875	16.55
277.09	67.75
277.306	0.17
277.521	94.38
277.737	-14.17
277.952	41.13
278.168	-26.45
278.383	-24.4
278.599	14.51
278.814	6.31
279.03	-18.26
279.245	37.03
279.461	47.27
279.676	49.32
279.892	-26.45
280.107	26.79
280.322	-5.97
280.538	16.55
280.753	-63.32
280.969	6.31
281.184	34.99
281.399	-42.84
281.615	100.52
281.83	22.7
282.045	8.36
282.26	18.6
282.476	-3.93
282.691	59.56
282.906	14.51
283.122	88.23
283.337	12.46
283.552	-42.84
283.767	-16.21
283.983	55.47
284.198	-22.36
284.413	39.08
284.628	61.61
284.843	-40.79
285.058	-16.21
285.274	20.65
285.489	-44.88
285.704	63.66
285.919	-46.93
286.134	-10.07
286.349	-79.7
286.564	73.9
286.779	8.36
286.995	51.37
287.21	-38.74
287.425	63.66
287.64	80.04
287.855	57.51
288.07	45.23
288.285	139.43
288.5	49.32
288.715	24.75
288.93	-69.46
289.145	32.94
289.36	20.65
289.575	16.55
289.79	39.08
290.004	53.42
290.219	22.7
290.434	6.31
290.649	14.51
290.864	73.9
291.079	37.03
291.294	73.9
291.509	47.27
291.724	32.94
291.938	57.51
292.153	47.27
292.368	-20.31
292.583	55.47
292.798	28.84
293.012	121
293.227	22.7
293.442	30.89
293.657	94.38
293.871	75.95
294.086	26.79
294.301	39.08
294.516	92.33
294.73	-48.98
294.945	-22.36
295.16	65.71
295.374	61.61
295.589	98.47
295.804	59.56
296.018	22.7
296.233	43.18
296.447	-40.79
296.662	-55.12
296.877	75.95
297.091	71.85
297.306	30.89
297.52	32.94
297.735	-24.4
297.949	10.41
298.164	20.65
298.378	16.55
298.593	-14.17
298.807	55.47
299.022	121
299.236	86.19
299.451	37.03
299.665	55.47
299.88	51.37
300.094	-18.26
300.309	22.7
300.523	6.31
300.737	26.79
300.952	100.52
301.166	49.32
301.381	-26.45
301.595	14.51
301.809	112.81
302.024	39.08
302.238	-28.5
302.452	116.9
302.667	55.47
302.881	96.43
303.095	71.85
303.309	14.51
303.524	-40.79
303.738	-5.97
303.952	84.14
304.166	63.66
304.381	-69.46
304.595	6.31
304.809	-26.45
305.023	39.08
305.237	30.89
305.452	41.13
305.666	106.67
305.88	57.51
306.094	12.46
306.308	49.32
306.522	63.66
306.736	67.75
306.95	39.08
307.164	-28.5
307.379	-14.17
307.593	67.75
307.807	26.79
308.021	47.27
308.235	-22.36
308.449	-57.17
308.663	20.65
308.877	14.51
309.091	37.03
309.305	47.27
309.519	-38.74
309.733	65.71
309.947	22.7
310.161	-26.45
310.374	-22.36
310.588	47.27
310.802	-32.6
311.016	6.31
311.23	-40.79
311.444	71.85
311.658	4.27
311.872	80.04
312.085	55.47
312.299	53.42
312.513	30.89
312.727	8.36
312.941	2.22
313.154	86.19
313.368	2.22
313.582	88.23
313.796	-8.02
314.009	-42.84
314.223	114.86
314.437	80.04
314.651	-5.97
314.864	30.89
315.078	18.6
315.292	18.6
315.505	-10.07
315.719	32.94
315.933	0.17
316.146	10.41
316.36	26.79
316.573	73.9
316.787	10.41
317.001	71.85
317.214	30.89
317.428	39.08
317.641	82.09
317.855	-18.26
318.068	63.66
318.282	16.55
318.495	96.43
318.709	-26.45
318.922	92.33
319.136	65.71
319.349	18.6
319.563	6.31
319.776	12.46
319.99	-3.93
320.203	-24.4
320.417	32.94
320.63	-1.88
320.843	-1.88
321.057	8.36
321.27	71.85
321.483	37.03
321.697	96.43
321.91	88.23
322.124	30.89
322.337	43.18
322.55	39.08
322.763	34.99
322.977	71.85
323.19	8.36
323.403	22.7
323.617	32.94
323.83	26.79
324.043	30.89
324.256	63.66
324.469	24.75
324.683	6.31
324.896	39.08
325.109	32.94
325.322	0.17
325.535	84.14
325.748	51.37
325.962	-16.21
326.175	73.9
326.388	77.99
326.601	96.43
326.814	-8.02
327.027	41.13
327.24	-8.02
327.453	-89.94
327.666	49.32
327.879	47.27
328.092	-26.45
328.305	32.94
328.518	55.47
328.731	-5.97
328.944	84.14
329.157	24.75
329.37	30.89
329.583	12.46
329.796	47.27
330.009	-8.02
330.222	12.46
330.435	14.51
330.648	22.7
330.861	-1.88
331.073	14.51
331.286	43.18
331.499	22.7
331.712	-8.02
331.925	-26.45
332.138	63.66
332.35	84.14
332.563	49.32
332.776	8.36
332.989	-51.03
333.202	32.94
333.414	-26.45
333.627	49.32
333.84	-5.97
334.053	55.47
334.265	-34.64
334.478	51.37
334.691	104.62
334.903	65.71
335.116	-22.36
335.329	-18.26
335.541	-30.55
335.754	90.28
335.966	49.32
336.179	-22.36
336.392	39.08
336.604	55.47
336.817	24.75
337.029	-8.02
337.242	30.89
337.454	-18.26
337.667	30.89
337.88	22.7
338.092	80.04
338.305	73.9
338.517	55.47
338.729	32.94
338.942	49.32
339.154	-26.45
339.367	14.51
339.579	80.04
339.792	-1.88
340.004	28.84
340.217	30.89
340.429	-1.88
340.641	-1.88
340.854	-10.07
341.066	16.55
341.278	26.79
341.491	166.06
341.703	26.79
341.915	-73.56
342.128	22.7
342.34	65.71
342.552	-24.4
342.764	-10.07
342.977	22.7
343.189	20.65
343.401	12.46
343.613	22.7
343.826	121
344.038	-10.07
344.25	0.17
344.462	2.22
344.674	98.47
344.886	14.51
345.099	71.85
345.311	67.75
345.523	41.13
345.735	-30.55
345.947	47.27
346.159	47.27
346.371	-26.45
346.583	37.03
346.795	92.33
347.007	49.32
347.219	22.7
347.431	55.47
347.643	71.85
347.855	-22.36
348.067	71.85
348.279	32.94
348.491	-14.17
348.703	10.41
348.915	30.89
349.127	6.31
349.339	14.51
349.551	32.94
349.763	106.67
349.975	73.9
350.187	34.99
350.399	16.55
350.61	41.13
350.822	-1.88
351.034	6.31
351.246	6.31
351.458	98.47
351.669	-1.88
351.881	2.22
352.093	43.18
352.305	80.04
352.517	73.9
352.728	75.95
352.94	28.84
353.152	10.41
353.363	6.31
353.575	0.17
353.787	155.82
353.999	49.32
354.21	57.51
354.422	67.75
354.633	49.32
354.845	71.85
355.057	16.55
355.268	-20.31
355.48	98.47
355.692	-42.84
355.903	59.56
356.115	47.27
356.326	41.13
356.538	55.47
356.749	123.05
356.961	71.85
357.172	20.65
357.384	-8.02
357.595	133.29
357.807	39.08
358.018	-10.07
358.23	22.7
358.441	65.71
358.653	26.79
358.864	41.13
359.075	26.79
359.287	47.27
359.498	43.18
359.709	55.47
359.921	100.52
360.132	14.51
360.344	98.47
360.555	37.03
360.766	67.75
360.977	14.51
361.189	0.17
361.4	-14.17
361.611	141.48
361.823	65.71
362.034	24.75
362.245	43.18
362.456	49.32
362.667	73.9
362.879	24.75
363.09	80.04
363.301	47.27
363.512	-14.17
363.723	18.6
363.935	16.55
364.146	-1.88
364.357	-1.88
364.568	22.7
364.779	30.89
364.99	57.51
365.201	10.41
365.412	18.6
365.623	18.6
365.834	14.51
366.045	14.51
366.256	94.38
366.467	82.09
366.678	-26.45
366.889	6.31
367.1	61.61
367.311	-3.93
367.522	41.13
367.733	80.04
367.944	104.62
368.155	-26.45
368.366	63.66
368.577	121
368.788	41.13
368.999	-3.93
369.209	47.27
369.42	133.29
369.631	86.19
369.842	57.51
370.053	65.71
370.264	59.56
370.474	73.9
370.685	39.08
370.896	57.51
371.107	39.08
371.317	63.66
371.528	12.46
371.739	30.89
371.95	55.47
372.16	123.05
372.371	14.51
372.582	118.95
372.792	55.47
373.003	-26.45
373.214	30.89
373.424	123.05
373.635	67.75
373.846	106.67
374.056	18.6
374.267	96.43
374.477	41.13
374.688	22.7
374.898	43.18
375.109	47.27
375.319	24.75
375.53	16.55
375.74	30.89
375.951	30.89
376.161	63.66
376.372	65.71
376.582	8.36
376.793	41.13
377.003	-8.02
377.214	88.23
377.424	-1.88
377.635	-30.55
377.845	8.36
378.055	41.13
378.266	34.99
378.476	57.51
378.686	6.31
378.897	59.56
379.107	34.99
379.317	2.22
379.528	6.31
379.738	80.04
379.948	-55.12
380.158	82.09
380.369	69.8
380.579	-22.36
380.789	-16.21
380.999	51.37
381.21	47.27
381.42	104.62
381.63	-10.07
381.84	75.95
382.05	75.95
382.261	112.81
382.471	49.32
382.681	57.51
382.891	39.08
383.101	49.32
383.311	63.66
383.521	82.09
383.731	-28.5
383.941	16.55
384.151	63.66
384.361	96.43
384.571	-32.6
384.781	34.99
384.991	80.04
385.201	30.89
385.411	71.85
385.621	0.17
385.831	98.47
386.041	37.03
386.251	2.22
386.461	8.36
386.671	18.6
386.881	16.55
387.091	39.08
387.301	24.75
387.511	121
387.72	86.19
387.93	55.47
388.14	41.13
388.35	55.47
388.56	108.71
388.769	10.41
388.979	84.14
389.189	-3.93
389.399	55.47
389.609	73.9
389.818	98.47
390.028	67.75
390.238	30.89
390.447	-14.17
390.657	43.18
390.867	-16.21
391.076	65.71
391.286	37.03
391.496	8.36
391.705	24.75
391.915	43.18
392.125	34.99
392.334	59.56
392.544	55.47
392.753	2.22
392.963	-26.45
393.172	47.27
393.382	22.7
393.591	71.85
393.801	26.79
394.01	90.28
394.22	84.14
394.429	92.33
394.639	43.18
394.848	84.14
395.058	88.23
395.267	139.43
395.477	71.85
395.686	92.33
395.895	143.53
396.105	114.86
396.314	73.9
396.524	131.24
396.733	30.89
396.942	30.89
397.152	75.95
397.361	88.23
397.57	121
397.78	65.71
397.989	106.67
398.198	80.04
398.407	41.13
398.617	34.99
398.826	96.43
399.035	84.14
399.244	80.04
399.453	125.1
399.663	51.37
399.872	55.47
400.081	90.28
400.29	110.76
400.499	67.75
400.708	123.05
400.917	61.61
401.127	112.81
401.336	75.95
401.545	96.43
401.754	170.15
401.963	149.67
402.172	131.24
402.381	77.99
402.59	133.29
402.799	157.86
403.008	155.82
403.217	106.67
403.426	112.81
403.635	114.86
403.844	67.75
404.053	94.38
404.262	69.8
404.471	174.25
404.68	104.62
404.888	131.24
405.097	123.05
405.306	143.53
405.515	196.78
405.724	96.43
405.933	192.68
406.142	112.81
406.35	227.5
406.559	164.01
406.768	116.9
406.977	161.96
407.185	260.26
407.394	149.67
407.603	161.96
407.812	239.78
408.02	252.07
408.229	202.92
408.438	190.63
408.646	268.45
408.855	180.39
409.064	311.46
409.272	161.96
409.481	221.35
409.69	256.17
409.898	243.88
410.107	258.21
410.315	260.26
410.524	233.64
410.733	350.37
410.941	303.27
411.15	317.61
411.358	333.99
411.567	407.72
411.775	368.81
411.984	407.72
412.192	313.51
412.401	440.48
412.609	481.44
412.818	434.34
413.026	391.33
413.234	456.87
413.443	417.96
413.651	411.81
413.86	460.96
414.068	587.94
414.276	608.42
414.485	555.17
414.693	555.17
414.901	649.38
415.11	551.07
415.318	649.38
415.526	616.61
415.734	661.66
415.943	696.48
416.151	731.3
416.359	747.68
416.567	788.64
416.776	819.36
416.984	856.22
417.192	802.97
417.4	837.79
417.608	913.56
417.817	854.17
418.025	1063.07
418.233	1005.72
418.441	921.76
418.649	1091.74
418.857	1136.79
419.065	1075.35
419.273	1157.27
419.481	1165.46
419.689	1235.1
419.897	1286.3
420.105	1337.49
420.313	1333.4
420.521	1427.6
420.729	1380.5
420.937	1460.37
421.145	1507.48
421.353	1599.63
421.561	1777.81
421.769	1777.81
421.977	1833.1
422.185	1747.09
422.393	1955.98
422.601	2031.76
422.809	1906.83
423.017	2029.71
423.224	2037.9
423.432	2220.17
423.64	2216.07
423.848	2463.88
424.056	2300.04
424.263	2490.5
424.471	2492.55
424.679	2521.22
424.887	2680.96
425.094	2824.32
425.302	2699.39
425.51	2793.6
425.718	2902.14
425.925	2957.44
426.133	3123.32
426.341	3266.68
426.548	3326.07
426.756	3467.38
426.964	3524.72
427.171	3512.44
427.379	3659.89
427.586	3756.15
427.794	3827.82
428.001	4046.96
428.209	4255.85
428.417	4182.12
428.624	4446.31
428.832	4388.97
429.039	4454.5
429.247	4399.21
429.454	4806.75
429.662	5347.42
429.869	4999.26
430.076	5269.59
430.284	5095.52
430.491	5337.18
430.699	5546.07
430.906	5572.69
431.114	5806.16
431.321	5871.7
431.528	5857.36
431.736	6400.07
431.943	6645.83
432.15	6385.74
432.358	6553.67
432.565	6854.72
432.772	6903.87
432.979	7168.06
433.187	7288.89
433.394	7217.21
433.601	7888.95
433.808	7714.87
434.016	7618.61
434.223	8245.29
434.43	8607.78
434.637	8558.63
434.844	9025.57
435.052	9130.02
435.259	9054.24
435.466	9044
435.673	9091.1
435.88	9668.63
436.087	10092.56
436.294	10197.01
436.501	9910.29
436.708	10078.22
436.915	10297.36
437.122	10829.83
437.329	10790.92
437.537	11216.9
437.743	11358.21
437.95	11157.5
438.157	11726.84
438.364	12318.7
438.571	12091.38
438.778	12595.18
438.985	13535.2
439.192	13029.35
439.399	13467.61
439.606	13146.08
439.813	13817.82
440.02	14669.77
440.227	14411.73
440.433	14235.6
440.64	14858.18
440.847	14925.77
441.054	15038.41
441.261	15937.46
441.467	15861.69
441.674	16136.12
441.881	16644.01
442.088	16416.69
442.294	16258.99
442.501	16938.92
442.708	17239.97
442.914	17575.84
443.121	18444.18
443.328	18112.41
443.534	19267.46
443.741	18595.73
443.948	18661.26
444.154	19900.28
444.361	19838.84
444.568	19873.66
444.774	20037.5
444.981	20244.34
445.187	20721.52
445.394	21673.82
445.6	21485.41
445.807	23461.7
446.013	22493.01
446.22	22624.08
446.426	23684.93
446.633	23809.86
446.839	24909.61
447.046	23549.76
447.252	24950.57
447.459	25141.04
447.665	24848.18
447.871	25872.16
448.078	27152.14
448.284	25673.51
448.491	26470.17
448.697	27662.08
448.903	28108.54
449.11	28180.22
449.316	27889.41
449.522	28299
449.728	29110
449.935	29302.51
450.141	29529.83
450.347	30082.78
450.553	29112.05
450.76	29503.21
450.966	30232.29
451.172	30291.68
451.378	30942.93
451.584	30308.06
451.791	30934.74
451.997	31170.26
452.203	31420.11
452.409	31502.03
452.615	31315.66
452.821	29880.03
453.027	30142.17
453.233	31637.19
453.44	30263
453.646	30666.45
453.852	30639.83
454.058	31069.9
454.264	30510.81
454.47	31168.21
454.676	30269.15
454.882	31360.72
455.088	28935.92
455.294	28901.11
455.5	29462.25
455.705	29632.23
455.911	28724.98
456.117	28057.34
456.323	28178.17
456.529	26564.37
456.735	27498.25
456.941	26777.36
457.147	26504.98
457.352	25976.61
457.558	25440.04
457.764	25427.75
457.97	25351.98
458.176	24534.84
458.381	24626.99
458.587	23721.79
458.793	23353.16
458.999	22286.17
459.204	24049.47
459.41	23064.39
459.616	21743.45
459.821	21780.32
460.027	21321.57
460.233	21131.11
460.438	20193.14
460.644	20438.9
460.85	19570.56
461.055	19048.33
461.261	19085.19
461.466	17469.34
461.672	17344.42
461.878	18360.21
462.083	17168.29
462.289	16783.27
462.494	16656.3
462.7	15968.18
462.905	15398.85
463.111	15888.31
463.316	16086.97
463.522	15925.18
463.727	15806.39
463.932	15849.4
464.138	15464.38
464.343	15763.39
464.549	15386.56
464.754	15683.52
464.959	15294.4
465.165	15431.62
465.37	14630.86
465.575	14387.15
465.781	14696.39
465.986	14931.91
466.191	14424.01
466.397	14251.99
466.602	13529.05
466.807	14014.42
467.012	13858.78
467.218	13809.62
467.423	13723.61
467.628	13758.42
467.833	14448.59
468.038	13701.08
468.244	13357.02
468.449	14061.52
468.654	13473.76
468.859	13598.68
469.064	13277.15
469.269	12777.45
469.474	13033.44
469.679	13238.24
469.885	12875.75
470.09	13041.64
470.295	12978.15
470.5	12836.84
470.705	12828.65
470.91	12261.36
471.115	12312.56
471.32	12548.08
471.525	12517.36
471.73	12144.63
471.935	12122.1
472.139	11712.5
472.344	11810.81
472.549	11798.52
472.754	11470.84
472.959	11241.47
473.164	11108.35
473.369	11130.88
473.574	11335.68
473.778	11233.28
473.983	11190.27
474.188	11360.25
474.393	10762.25
474.598	10661.9
474.802	10688.52
475.007	10483.72
475.212	10653.7
475.417	10090.51
475.621	10270.73
475.826	10387.47
476.031	10010.64
476.235	9846.8
476.44	10131.47
476.645	9494.55
476.849	9685.01
477.054	9744.41
477.259	9582.62
477.463	9599
477.668	9240.61
477.872	9472.03
478.077	9302.04
478.282	9062.43
478.486	9211.93
478.691	8943.65
478.895	8962.08
479.1	8820.77
479.304	8980.51
479.509	8519.72
479.713	8894.5
479.918	8788
480.122	8476.71
480.326	8575.02
480.531	8513.58
480.735	8423.47
480.94	8386.6
481.144	8611.88
481.348	8169.52
481.553	8345.64
481.757	8132.65
481.961	8347.69
482.166	8355.88
482.37	8288.3
482.574	8042.54
482.778	8075.31
482.983	8290.35
483.187	8337.45
483.391	8314.92
483.595	8210.48
483.8	8009.78
484.004	8089.65
484.208	8192.05
484.412	8056.88
484.616	8230.96
484.821	8149.04
485.025	7825.46
485.229	8171.57
485.433	7977.01
485.637	8255.53
485.841	7927.86
486.045	8140.85
486.249	8175.66
486.453	8073.26
486.657	8085.55
486.861	8429.61
487.065	8056.88
487.269	8132.65
487.473	7946.29
487.677	8144.94
487.881	8216.62
488.085	8079.41
488.289	8173.61
488.493	8089.65
488.697	8202.29
488.901	8273.96
489.105	8347.69
489.309	8280.11
489.512	8233.01
489.716	8249.39
489.92	8394.79
490.124	8058.93
490.328	8407.08
490.531	8288.3
490.735	8415.27
490.939	8429.61
491.143	8251.44
491.346	8413.23
491.55	8398.89
491.754	8312.88
491.958	8499.24
492.161	8402.99
492.365	8468.52
492.569	8437.8
492.772	8597.54
492.976	8849.44
493.18	8761.38
493.383	8648.74
493.587	8849.44
493.79	8890.4
493.994	8822.82
494.197	8984.61
494.401	9050.14
494.605	8976.42
494.808	9105.44
495.012	9125.92
495.215	9238.56
495.419	9318.43
495.622	9304.09
495.825	9242.65
496.029	9359.39
496.232	9732.12
496.436	9521.18
496.639	9768.98
496.843	9814.04
497.046	9996.31
497.249	9902.1
497.453	10106.9
497.656	10344.46
497.859	10256.4
498.063	10246.16
498.266	10797.06
498.469	10473.48
498.673	10686.47
498.876	10885.12
499.079	10782.73
499.282	10926.08
499.485	11016.19
499.689	11110.4
499.892	11591.67
500.095	11438.08
500.298	11483.13
500.501	11747.32
500.705	12017.65
500.908	12050.42
501.111	12099.57
501.314	12056.56
501.517	12310.51
501.72	12613.61
501.923	12525.55
502.126	12744.68
502.329	12926.95
502.532	13000.68
502.735	13113.31
502.938	13383.65
503.141	13344.74
503.344	13563.87
503.547	13397.98
503.75	13875.16
503.953	13928.41
504.156	14102.48
504.359	14221.27
504.562	14352.34
504.765	14589.9
504.968	14753.74
505.17	14796.74
505.373	15073.22
505.576	15300.55
505.779	15718.33
505.982	15685.56
506.185	15697.85
506.387	15904.7
506.59	15931.32
506.793	16471.98
506.996	16695.21
507.198	17041.32
507.401	16697.26
507.604	17123.24
507.807	17127.33
508.009	17315.75
508.212	17293.22
508.415	17670.05
508.617	18182.04
508.82	18145.17
509.022	18139.03
509.225	18450.32
509.428	18399.12
509.63	18892.68
509.833	18853.77
510.035	19203.97
510.238	19197.83
510.44	19410.82
510.643	19623.81
510.845	19881.85
511.048	19713.92
511.25	20162.42
511.453	20346.74
511.655	21165.93
511.858	20809.58
512.06	20881.26
512.262	21487.46
512.465	21194.6
512.667	21618.53
512.87	21686.11
513.072	22015.83
513.274	21989.21
513.477	22738.77
513.679	22660.94
513.881	22972.24
514.084	23228.23
514.286	22890.32
514.488	23119.69
514.69	23897.92
514.893	23908.16
515.095	23940.93
515.297	24158.01
515.499	24301.37
515.701	24426.29
515.904	24913.71
516.106	25241.39
516.308	25214.76
516.51	25626.4
516.712	25734.95
516.914	25992.99
517.116	26367.77
517.318	26324.76
517.52	26296.09
517.722	26613.52
517.925	27002.64
518.127	27348.75
518.329	27463.43
518.531	27469.58
518.733	28159.74
518.935	28249.85
519.136	28184.32
519.338	29095.66
519.54	28602.1
519.742	28917.49
519.944	29157.1
520.146	29388.52
520.348	30052.06
520.55	29652.71
520.752	29955.81
520.954	30645.98
521.155	30127.84
521.357	30838.48
521.559	31117.01
521.761	31289.04
521.963	31362.76
522.164	31416.01
522.366	31760.07
522.568	31979.2
522.77	32040.64
522.971	32657.08
523.173	32380.6
523.375	32446.14
523.576	32911.03
523.778	32812.73
523.98	33345.2
524.181	33560.23
524.383	33337.01
524.584	34152.1
524.786	33883.81
524.988	33676.97
525.189	34111.14
525.391	34432.67
525.592	34287.26
525.794	34461.34
525.995	34360.99
526.197	34629.27
526.398	34567.84
526.6	35301.01
526.801	35174.03
527.003	35325.58
527.204	35507.85
527.406	35876.49
527.607	35387.02
527.808	35931.78
528.01	35491.47
528.211	35927.69
528.412	36892.28
528.614	36347.52
528.815	36365.95
529.016	35950.21
529.218	36193.92
529.419	36433.53
529.62	36497.02
529.822	36343.42
530.023	36558.46
530.224	36509.31
530.425	36540.03
530.626	36740.73
530.828	36789.88
531.029	37418.61
531.23	36963.96
531.431	37056.12
531.632	37119.6
531.833	37303.92
532.035	37117.56
532.236	37326.45
532.437	37322.35
532.638	37129.84
532.839	37449.33
533.04	37535.34
533.241	37066.36
533.442	37889.64
533.643	37269.11
533.844	37209.71
534.045	37564.01
534.246	37351.02
534.447	37355.12
534.648	37447.28
534.849	37461.62
535.05	37432.94
535.251	37494.38
535.451	37451.38
535.652	37736.04
535.853	37406.32
536.054	37666.41
536.255	37584.49
536.456	37502.57
536.657	37600.88
536.857	37301.87
537.058	37129.84
537.259	37781.1
537.46	37512.81
537.66	37387.89
537.861	37256.82
538.062	37361.26
538.263	37355.12
538.463	37222
538.664	37762.67
538.865	37594.73
539.065	37758.57
539.266	37455.47
539.466	37645.93
539.667	37039.73
539.868	37799.53
540.068	37529.2
540.269	37387.89
540.469	37582.45
540.67	37275.25
540.87	37334.64
541.071	37142.13
541.271	37633.64
541.472	37631.6
541.672	37234.29
541.873	37166.71
542.073	37121.65
542.274	37176.95
542.474	37387.89
542.675	36873.85
542.875	37676.65
543.075	37467.76
543.276	36685.43
543.476	37332.59
543.676	37205.62
543.877	37305.97
544.077	37408.37
544.277	36892.28
544.478	37066.36
544.678	37109.36
544.878	37146.23
545.078	37256.82
545.279	36615.8
545.479	36982.39
545.679	37138.04
545.879	36728.44
546.079	37080.69
546.28	37115.51
546.48	37029.49
546.68	36972.15
546.88	37346.93
547.08	37074.55
547.28	36785.79
547.48	36632.19
547.68	36798.07
547.88	36527.74
548.081	37570.16
548.281	37035.64
548.481	36771.45
548.681	37275.25
548.881	37025.4
549.081	36884.09
549.28	36798.07
549.48	36894.33
549.68	36732.54
549.88	37256.82
550.08	36994.68
550.28	36886.14
550.48	36427.39
550.68	37119.6
550.88	36443.77
551.08	36814.46
551.279	36804.22
551.479	36601.47
551.679	36966.01
551.879	36433.53
552.079	36830.84
552.278	36564.6
552.478	36273.79
552.678	36552.32
552.878	36984.44
553.077	36591.23
553.277	36124.29
553.477	36963.96
553.676	36187.78
553.876	36312.7
554.076	36580.99
554.275	36525.69
554.475	35847.82
554.674	36206.21
554.874	36423.29
555.074	36212.35
555.273	36396.67
555.473	36259.46
555.672	36275.84
555.872	36818.55
556.071	36509.31
556.271	36454.01
556.47	36079.24
556.67	35991.17
556.869	36097.67
557.068	35993.22
557.268	35815.05
557.467	36134.53
557.667	35794.57
557.866	36017.8
558.065	36159.11
558.265	35589.77
558.464	35563.15
558.663	36114.05
558.863	35579.53
559.062	36210.31
559.261	35606.16
559.461	35759.75
559.66	35282.58
559.859	35360.4
560.058	35276.43
560.258	35630.73
560.457	35178.13
560.656	35892.87
560.855	35077.78
561.054	35219.09
561.253	35137.17
561.453	35331.73
561.652	35004.05
561.851	35092.12
562.05	34954.9
562.249	34875.03
562.448	35378.83
562.647	34954.9
562.846	34895.51
563.045	34561.69
563.244	34576.03
563.443	35004.05
563.642	34277.02
563.841	34481.82
564.04	34418.33
564.239	34524.83
564.438	34180.77
564.637	34090.66
564.836	34592.41
565.035	34014.88
565.234	34459.29
565.432	34064.03
565.631	34104.99
565.83	34350.75
566.029	33687.21
566.228	33941.16
566.427	33828.52
566.625	33822.37
566.824	33431.21
567.023	33795.75
567.222	33162.93
567.42	33742.5
567.619	33490.6
567.818	33257.14
568.016	33576.62
568.215	33728.17
568.414	33386.16
568.612	33377.97
568.811	33072.82
569.01	33341.1
569.208	32980.66
569.407	33474.22
569.605	32951.99
569.804	33083.06
570.002	32431.8
570.201	32630.46
570.4	32440
570.598	32349.89
570.797	32276.16
570.995	32513.72
571.193	32157.38
571.392	32493.24
571.59	31975.11
571.789	32018.11
571.987	31876.8
572.186	32007.87
572.384	31594.18
572.582	32112.32
572.781	31635.14
572.979	31313.61
573.177	31758.02
573.376	31768.26
573.574	31227.6
573.772	31489.74
573.971	31278.8
574.169	31055.57
574.367	30987.99
574.565	31286.99
574.763	31360.72
574.962	30752.47
575.16	30762.71
575.358	30885.59
575.556	30705.37
575.754	30738.13
575.952	30363.36
576.151	30818
576.349	30064.35
576.547	30226.14
576.745	30353.12
576.943	30324.44
577.141	30023.39
577.339	30195.42
577.537	29773.54
577.735	29986.53
577.933	29820.64
578.131	30103.26
578.329	29683.43
578.527	29540.07
578.725	29400.81
578.923	29714.15
579.121	29277.93
579.319	29363.95
579.516	29492.97
579.714	29097.71
579.912	29429.48
580.11	29001.46
580.308	28823.28
580.506	29036.27
580.704	28339.96
580.901	28911.35
581.099	29191.92
581.297	28542.71
581.495	28471.03
581.692	28579.57
581.89	28561.14
582.088	28282.62
582.285	28333.82
582.483	28397.31
582.681	28206.84
582.878	28217.08
583.076	27834.11
583.274	28204.8
583.471	27952.9
583.669	28036.86
583.866	28047.1
584.064	27758.34
584.262	27737.86
584.459	27735.81
584.657	27301.64
584.854	27827.97
585.052	27160.33
585.249	27207.44
585.447	27410.18
585.644	27102.99
585.841	27223.82
586.039	27299.59
586.236	26892.05
586.434	27064.08
586.631	26810.13
586.828	26654.48
587.026	26859.28
587.223	26640.15
587.42	26367.77
587.618	26607.38
587.815	26312.47
588.012	26396.44
588.21	26294.04
588.407	26576.66
588.604	26263.32
588.801	25997.09
588.999	25806.62
589.196	25767.71
589.393	25804.58
589.59	25786.15
589.787	25337.64
589.984	25497.38
590.182	25237.29
590.379	25476.9
590.576	25280.3
590.773	25249.58
590.97	25362.22
591.167	25216.81
591.364	24944.43
591.561	25243.43
591.758	24948.53
591.955	24717.11
592.152	24946.48
592.349	24676.15
592.546	24954.67
592.743	24651.57
592.94	24338.23
593.137	24426.29
593.334	24602.42
593.531	24127.29
593.727	24436.53
593.924	24186.68
594.121	24145.72
594.318	24354.62
594.515	23770.94
594.712	24168.25
594.908	23727.94
595.105	23613.25
595.302	23639.87
595.499	23826.24
595.696	23600.96
595.892	23566.15
596.089	23764.8
596.286	23725.89
596.482	23330.63
596.679	23287.62
596.876	23207.75
597.072	23025.48
597.269	23156.55
597.466	22941.52
597.662	23134.03
597.859	23164.75
598.055	23062.35
598.252	22732.62
598.448	22712.14
598.645	22525.78
598.841	22157.14
599.038	22210.39
599.234	22202.2
599.431	22280.02
599.627	21653.34
599.824	21983.07
600.02	21978.97
600.217	22198.1
600.413	21929.82
600.609	21825.37
600.806	22220.63
601.002	21722.98
601.198	21722.98
601.395	21544.8
601.591	21704.54
601.787	21567.33
601.984	21448.55
602.18	21552.99
602.376	21387.11
602.572	21235.56
602.769	21145.45
602.965	20887.4
603.161	20916.08
603.357	21086.06
603.553	20782.96
603.75	20909.93
603.946	20529.01
604.142	20762.48
604.338	20350.84
604.534	20731.76
604.73	20285.3
604.926	20508.53
605.122	20350.84
605.318	20426.61
605.514	20500.34
605.71	20199.29
605.906	20227.96
606.102	20170.61
606.298	20240.25
606.494	20064.12
606.69	20066.17
606.886	20182.9
607.082	19804.03
607.278	19728.25
607.474	19726.21
607.67	20074.36
607.866	19738.49
608.062	19914.62
608.257	19683.2
608.453	19672.96
608.649	19666.81
608.845	19386.24
609.041	19380.1
609.236	19320.71
609.432	19212.17
609.628	19306.37
609.824	19195.78
610.019	19273.6
610.215	18956.17
610.411	19380.1
610.606	19115.91
610.802	19077
610.998	18935.69
611.193	18970.51
611.389	18876.3
611.584	18943.88
611.78	18847.63
611.976	18605.97
612.171	18689.93
612.367	18745.23
612.562	18565.01
612.758	18298.77
612.953	18282.39
613.149	18847.63
613.344	18495.38
613.539	18800.52
613.735	18397.07
613.93	18569.1
614.126	18374.55
614.321	18741.13
614.517	18358.16
614.712	18366.35
614.907	18286.48
615.103	18522
615.298	18050.97
615.493	18657.17
615.688	17870.75
615.884	18136.98
616.079	17690.52
616.274	18108.31
616.47	17971.1
616.665	18167.7
616.86	17907.61
617.055	17905.56
617.25	17602.46
617.445	18048.92
617.641	17508.26
617.836	17713.05
618.031	17475.49
618.226	17377.19
618.421	17360.8
618.616	17608.61
618.811	17246.12
619.006	17387.43
619.201	17113
619.396	17285.03
619.591	17242.02
619.786	17227.68
619.981	16943.02
620.176	17166.24
620.371	16758.7
620.566	16785.32
620.761	16799.66
620.956	16863.15
621.151	16431.02
621.346	16627.63
621.541	16218.04
621.735	16562.09
621.93	16334.77
622.125	16168.88
622.32	15994.81
622.515	15990.71
622.709	15878.07
622.904	15884.22
623.099	15959.99
623.294	15671.23
623.488	15595.45
623.683	15966.14
623.878	15384.51
624.072	15304.64
624.267	15505.34
624.462	15273.92
624.656	15081.41
624.851	15075.27
625.046	15325.12
625.24	15130.56
625.435	14954.44
625.629	14704.59
625.824	14645.2
626.018	14798.79
626.213	14309.33
626.407	14563.28
626.602	14329.81
626.796	14540.75
626.991	14432.21
627.185	14235.6
627.38	13893.59
627.574	14030.8
627.768	13897.69
627.963	13907.93
628.157	13834.2
628.352	13598.68
628.546	13799.38
628.74	13727.71
628.935	13420.51
629.129	13314.02
629.323	13211.62
629.517	13252.58
629.712	13058.02
629.906	13060.07
630.1	13070.31
630.294	12972
630.489	12900.33
630.683	12881.89
630.877	12838.89
631.071	12681.19
631.265	12810.22
631.459	12472.3
631.653	12361.71
631.848	12533.74
632.042	12216.3
632.236	12408.81
632.43	12224.5
632.624	12462.06
632.818	12019.7
633.012	12007.41
633.206	11976.69
633.4	12058.61
633.594	11732.98
633.788	11966.45
633.982	11786.23
634.176	11499.52
634.369	11753.46
634.563	11597.82
634.757	11393.02
634.951	11501.56
635.145	11436.03
635.339	11569.15
635.533	11206.66
635.726	11401.21
635.92	11139.07
636.114	11255.81
636.308	11024.39
636.501	11071.49
636.695	11028.48
636.889	11042.82
637.083	10901.51
637.276	10942.47
637.47	10618.89
637.664	10780.68
637.857	10563.59
638.051	10512.39
638.244	10502.15
638.438	10428.43
638.632	10543.11
638.825	10223.63
639.019	10418.19
639.212	10125.33
639.406	10260.49
639.599	10158.1
639.793	9928.72
639.986	9773.08
640.18	9953.3
640.373	9678.87
640.567	9826.32
640.76	9967.63
640.954	9740.31
641.147	9662.49
641.34	9433.11
641.534	9644.06
641.727	9523.23
641.92	9558.04
642.114	9482.27
642.307	9398.3
642.5	9334.81
642.694	9226.27
642.887	9314.33
643.08	9195.55
643.273	9267.23
643.467	9066.53
643.66	9050.14
643.853	8980.51
644.046	8925.22
644.239	8945.7
644.432	8896.55
644.626	8874.02
644.819	8798.24
645.012	8736.81
645.205	8675.37
645.398	8550.44
645.591	8411.18
645.784	8384.55
645.977	8380.46
646.17	8423.47
646.363	8407.08
646.556	8214.57
646.749	8292.4
646.942	8273.96
647.135	8140.85
647.328	8222.77
647.521	8167.47
647.714	7804.98
647.907	7888.95
648.099	7903.28
648.292	8009.78
648.485	7950.39
648.678	7880.75
648.871	7931.95
649.064	7657.53
649.256	7620.66
649.449	7626.81
649.642	7739.44
649.835	7569.46
650.027	7452.73
650.22	7651.38
650.413	7381.05
650.605	7321.66
650.798	7436.35
650.991	7096.38
651.183	7323.71
651.376	7411.77
651.568	7282.75
651.761	7108.67
651.954	7235.64
652.146	7227.45
652.339	7049.28
652.531	7143.49
652.724	7073.85
652.916	6914.11
653.109	6965.31
653.301	7151.68
653.494	6957.12
653.686	6768.71
653.879	6901.83
654.071	6776.9
654.263	6678.6
654.456	6705.22
654.648	6842.43
654.84	6742.08
655.033	6527.05
655.225	6525
655.417	6361.16
655.61	6490.18
655.802	6436.94
655.994	6338.63
656.186	6326.35
656.379	6307.91
656.571	6279.24
656.763	6219.85
656.955	6189.13
657.148	6283.34
657.34	6178.89
657.532	6113.36
657.724	6123.6
657.916	5978.19
658.108	6037.58
658.3	5898.32
658.492	5793.87
658.684	5890.13
658.876	6006.86
659.068	5879.89
659.26	5797.97
659.452	5797.97
659.644	5693.52
659.836	5904.46
660.028	5654.61
660.22	5529.69
660.412	5666.9
660.604	5443.67
660.796	5617.75
660.988	5535.83
661.18	5513.3
661.372	5396.57
661.563	5419.1
661.755	5331.03
661.947	5472.34
662.139	5222.49
662.331	5371.99
662.522	5118.04
662.714	5304.41
662.906	5208.16
663.097	5245.02
663.289	5322.84
663.481	5230.68
663.673	5193.82
663.864	5101.66
664.056	5036.13
664.247	5122.14
664.439	4956.26
664.631	5027.93
664.822	4995.17
665.014	4882.53
665.205	4864.1
665.397	4888.67
665.588	4966.49
665.78	4874.34
665.971	4724.83
666.163	4880.48
666.354	4798.56
666.546	4841.57
666.737	4659.3
666.929	4667.49
667.12	4720.74
667.311	4577.38
667.503	4587.62
667.694	4563.05
667.885	4581.48
668.077	4454.5
668.268	4450.41
668.459	4556.9
668.651	4552.81
668.842	4421.74
669.033	4448.36
669.224	4380.78
669.416	4309.1
669.607	4243.56
669.798	4358.25
669.989	4417.64
670.18	4331.62
670.371	4327.53
670.563	4178.03
670.754	4288.62
670.945	4124.78
671.136	4149.36
671.327	4044.91
671.518	4186.22
671.709	4128.88
671.9	4296.81
672.091	4153.45
672.282	4104.3
672.473	3979.37
672.664	3971.18
672.855	4022.38
673.046	4026.48
673.237	4163.69
673.428	4042.86
673.619	3924.08
673.809	4038.77
674	3979.37
674.191	3965.04
674.382	3977.33
674.573	3801.2
674.764	3930.22
674.954	3973.23
675.145	3741.81
675.336	3844.21
675.527	3864.69
675.717	3889.26
675.908	3870.83
676.099	3833.97
676.289	3651.7
676.48	3719.28
676.671	3704.95
676.861	3686.51
677.052	3778.67
677.243	3700.85
677.433	3692.66
677.624	3709.04
677.814	3680.37
678.005	3680.37
678.195	3653.75
678.386	3618.93
678.576	3778.67
678.767	3561.59
678.957	3481.72
679.148	3479.67
679.338	3383.42
679.529	3479.67
679.719	3498.1
679.909	3473.53
680.1	3356.79
680.29	3463.29
680.481	3418.23
680.671	3602.55
680.861	3448.95
681.052	3455.09
681.242	3537.01
681.432	3438.71
681.622	3326.07
681.813	3459.19
682.003	3389.56
682.193	3414.13
682.383	3403.89
682.573	3383.42
682.764	3440.76
682.954	3373.18
683.144	3291.26
683.334	3238.01
683.524	3270.78
683.714	3258.49
683.904	3162.23
684.094	3266.68
684.284	3317.88
684.474	3192.95
684.664	3174.52
684.854	3176.57
685.044	3205.24
685.234	3233.91
685.424	3254.39
685.614	3186.81
685.804	3111.04
685.994	3135.61
686.184	3192.95
686.374	3106.94
686.564	3104.89
686.753	3041.4
686.943	3168.38
687.133	3088.51
687.323	2984.06
687.513	2975.87
687.702	3166.33
687.892	3045.5
688.082	2904.19
688.272	2955.39
688.461	2953.34
688.651	3055.74
688.841	2988.16
689.03	2914.43
689.22	2973.82
689.41	2928.77
689.599	2898.05
689.789	2896
689.979	2914.43
690.168	2883.71
690.358	2842.75
690.547	2791.55
690.737	2879.61
690.926	2748.54
691.116	2809.98
691.305	2812.03
691.495	2818.18
691.684	2701.44
691.874	2701.44
692.063	2746.5
692.252	2828.42
692.442	2738.3
692.631	2668.67
692.82	2703.49
693.01	2629.76
693.199	2654.34
693.388	2752.64
693.578	2646.15
693.767	2779.26
693.956	2568.32
694.146	2658.43
694.335	2611.33
694.524	2472.07
694.713	2640
694.902	2556.04
695.092	2553.99
695.281	2701.44
695.47	2572.42
695.659	2582.66
695.848	2525.32
696.037	2523.27
696.226	2480.26
696.415	2560.13
696.604	2513.03
696.793	2427.01
696.982	2400.39
697.171	2578.56
697.36	2521.22
697.549	2476.16
697.738	2422.92
697.927	2500.74
698.116	2465.93
698.305	2400.39
698.494	2449.54
698.683	2398.34
698.872	2474.12
699.061	2439.3
699.25	2447.49
699.438	2281.61
699.627	2381.96
699.816	2308.23
700.005	2347.14
700.193	2392.2
700.382	2189.45
700.571	2422.92
700.76	2341
700.948	2398.34
701.137	2402.44
701.326	2349.19
701.514	2310.28
701.703	2334.86
701.892	2351.24
702.08	2472.07
702.269	2422.92
702.457	2336.9
702.646	2203.79
702.834	2291.85
703.023	2316.42
703.212	2316.42
703.4	2242.7
703.589	2179.21
703.777	2252.94
703.965	2195.59
704.154	2271.37
704.342	2093.19
704.531	2300.04
704.719	2158.73
704.907	2250.89
705.096	2242.7
705.284	2248.84
705.472	2220.17
705.661	2185.35
705.849	2275.46
706.037	2203.79
706.226	2271.37
706.414	2173.07
706.602	2168.97
706.79	2144.39
706.979	2203.79
707.167	2179.21
707.355	2056.33
707.543	2185.35
707.731	2230.41
707.919	2199.69
708.107	2146.44
708.296	2142.35
708.484	2160.78
708.672	2173.07
708.86	2119.82
709.048	2279.56
709.236	2128.01
709.424	2136.2
709.612	2113.67
709.8	2168.97
709.988	2087.05
710.176	2074.76
710.364	2156.68
710.551	2111.63
710.739	2119.82
710.927	2125.96
711.115	2101.39
711.303	2160.78
711.491	2148.49
711.679	2154.63
711.866	2089.1
712.054	2146.44
712.242	2193.55
712.43	2138.25
712.617	2089.1
712.805	2121.87
712.993	2205.83
713.181	2119.82
713.368	2197.64
713.556	2123.91
713.744	2115.72
713.931	2181.26
714.119	2171.02
714.306	1953.93
714.494	2035.85
714.682	2074.76
714.869	2046.09
715.057	2021.52
715.244	1910.93
715.432	2154.63
715.619	2054.28
715.807	2132.11
715.994	2144.39
716.182	2005.13
716.369	2189.45
716.556	2072.72
716.744	2029.71
716.931	2119.82
717.119	2066.57
717.306	2048.14
717.493	2082.95
717.681	2152.59
717.868	2046.09
718.055	2146.44
718.242	2054.28
718.43	2173.07
718.617	2062.48
718.804	2099.34
718.991	2039.95
719.179	2013.32
719.366	2095.24
719.553	2046.09
719.74	2023.56
719.927	2168.97
720.114	1990.8
720.301	1986.7
720.488	2058.38
720.676	2015.37
720.863	2046.09
721.05	2082.95
721.237	2054.28
721.424	2093.19
721.611	2101.39
721.798	1941.65
721.985	2062.48
722.172	1988.75
722.358	1960.08
722.545	1980.56
722.732	2072.72
722.919	1998.99
723.106	2037.9
723.293	1915.02
723.48	2089.1
723.667	1966.22
723.853	2097.29
724.04	1970.32
724.227	2027.66
724.414	2113.67
724.6	1966.22
724.787	2111.63
724.974	2060.43
725.161	1992.84
725.347	1966.22
725.534	1988.75
725.72	2080.91
725.907	2060.43
726.094	2050.19
726.28	2046.09
726.467	2111.63
726.653	2021.52
726.84	2076.81
727.027	2097.29
727.213	2005.13
727.4	2082.95
727.586	1867.92
727.773	2019.47
727.959	2070.67
728.145	2128.01
728.332	2097.29
728.518	2082.95
728.705	2031.76
728.891	1976.46
729.077	1955.98
729.264	2035.85
729.45	2013.32
729.636	2050.19
729.823	2066.57
730.009	1943.69
730.195	1861.77
730.382	1906.83
730.568	1927.31
730.754	1996.94
730.94	2025.61
731.126	2097.29
731.313	2046.09
731.499	2033.8
731.685	1951.88
731.871	1994.89
732.057	2009.23
732.243	1964.17
732.429	1962.12
732.615	2005.13
732.801	1931.41
732.987	1855.63
733.173	1941.65
733.359	1990.8
733.545	1955.98
733.731	1947.79
733.917	2103.43
734.103	1906.83
734.289	2023.56
734.475	1906.83
734.661	2089.1
734.847	2095.24
735.033	1966.22
735.219	1988.75
735.404	1996.94
735.59	1996.94
735.776	2042
735.962	1876.11
736.148	2162.83
736.333	2033.8
736.519	1849.49
736.705	2070.67
736.89	1972.36
737.076	1931.41
737.262	1941.65
737.447	1943.69
737.633	1867.92
737.819	2078.86
738.004	1822.86
738.19	1906.83
738.375	1937.55
738.561	2009.23
738.747	1931.41
738.932	1816.72
739.118	1941.65
739.303	1882.25
739.489	1792.14
739.674	1898.64
739.859	1958.03
740.045	1890.45
740.23	1908.88
740.416	1841.29
740.601	1802.38
740.786	1915.02
740.972	1773.71
741.157	1769.62
741.342	1908.88
741.528	1816.72
741.713	1810.58
741.898	1826.96
742.084	1853.58
742.269	1742.99
742.454	1835.15
742.639	1792.14
742.824	1833.1
743.01	1829.01
743.195	1867.92
743.38	1742.99
743.565	1835.15
743.75	1831.05
743.935	1742.99
744.12	1859.73
744.305	1726.61
744.49	1693.84
744.675	1677.46
744.86	1712.27
745.045	1616.02
745.23	1693.84
745.415	1720.46
745.6	1818.77
745.785	1632.4
745.97	1745.04
746.155	1710.22
746.34	1622.16
746.525	1613.97
746.71	1681.55
746.895	1634.45
747.079	1636.5
747.264	1628.31
747.449	1616.02
747.634	1581.2
747.819	1570.96
748.003	1587.35
748.188	1632.4
748.373	1570.96
748.557	1497.24
748.742	1517.72
748.927	1585.3
749.111	1634.45
749.296	1548.44
749.481	1562.77
749.665	1425.56
749.85	1536.15
750.034	1624.21
750.219	1511.57
750.404	1472.66
750.588	1499.28
750.773	1345.69
750.957	1558.67
751.141	1345.69
751.326	1349.78
751.51	1482.9
751.695	1427.6
751.879	1409.17
752.064	1448.08
752.248	1368.21
752.432	1439.89
752.617	1439.89
752.801	1421.46
752.985	1456.28
753.17	1343.64
753.354	1263.77
753.538	1378.45
753.722	1235.1
753.907	1310.87
754.091	1357.97
754.275	1278.1
754.459	1317.01
754.643	1308.82
754.828	1276.06
755.012	1294.49
755.196	1204.38
755.38	1294.49
755.564	1259.67
755.748	1200.28
755.932	1274.01
756.116	1251.48
756.3	1218.71
756.484	1243.29
756.668	1198.23
756.852	1147.03
757.036	1091.74
757.22	1177.75
757.404	1122.46
757.588	1144.99
757.772	1079.45
757.956	1130.65
758.14	1165.46
758.323	1151.13
758.507	1153.18
758.691	1099.93
758.875	1095.83
759.059	1106.07
759.242	1157.27
759.426	1077.4
759.61	1071.26
759.794	1054.87
759.977	1161.37
760.161	1091.74
760.345	1020.06
760.528	1052.83
760.712	1054.87
760.895	1104.03
761.079	1065.11
761.263	936.09
761.446	958.62
761.63	1001.63
761.813	999.58
761.997	1026.2
762.18	997.53
762.364	1018.01
762.547	960.67
762.731	934.04
762.914	1003.68
763.098	946.33
763.281	901.28
763.464	899.23
763.648	964.76
763.831	956.57
764.015	886.94
764.198	893.09
764.381	858.27
764.564	956.57
764.748	919.71
764.931	909.47
765.114	825.5
765.297	891.04
765.481	917.66
765.664	854.17
765.847	919.71
766.03	917.66
766.213	907.42
766.397	852.13
766.58	923.8
766.763	977.05
766.946	909.47
767.129	915.61
767.312	899.23
767.495	893.09
767.678	940.19
767.861	907.42
768.044	901.28
768.227	852.13
768.41	817.31
768.593	809.12
768.776	817.31
768.959	841.89
769.142	845.98
769.324	872.61
769.507	819.36
769.69	825.5
769.873	784.54
770.056	903.32
770.239	833.69
770.421	845.98
770.604	823.45
770.787	839.84
770.97	813.21
771.152	794.78
771.335	831.65
771.518	745.63
771.7	819.36
771.883	737.44
772.066	741.54
772.248	819.36
772.431	759.97
772.613	776.35
772.796	743.58
772.978	796.83
773.161	770.21
773.343	737.44
773.526	772.25
773.708	759.97
773.891	671.9
774.073	712.86
774.256	655.52
774.438	819.36
774.621	749.73
774.803	702.62
774.985	663.71
775.168	700.58
775.35	729.25
775.532	696.48
775.715	731.3
775.897	647.33
776.079	665.76
776.261	712.86
776.444	702.62
776.626	612.51
776.808	628.9
776.99	669.86
777.173	696.48
777.355	669.86
777.537	686.24
777.719	651.42
777.901	583.84
778.083	616.61
778.265	592.03
778.447	604.32
778.629	632.99
778.811	606.37
778.993	616.61
779.175	616.61
779.357	542.88
779.539	571.55
779.721	532.64
779.903	630.95
780.085	579.75
780.267	608.42
780.449	561.31
780.631	575.65
780.812	571.55
780.994	620.71
781.176	571.55
781.358	622.75
781.54	534.69
781.721	522.4
781.903	512.16
782.085	522.4
782.267	600.23
782.448	465.06
782.63	458.92
782.812	426.15
782.993	551.07
783.175	518.31
783.357	436.39
783.538	528.55
783.72	495.78
783.901	467.11
784.083	549.03
784.264	473.25
784.446	366.76
784.627	370.85
784.809	497.83
784.99	489.64
785.172	456.87
785.353	436.39
785.535	444.58
785.716	456.87
785.897	395.43
786.079	377
786.26	342.18
786.441	469.16
786.623	448.68
786.804	409.76
786.985	497.83
787.167	391.33
787.348	374.95
787.529	391.33
787.71	452.77
787.891	475.3
788.073	368.81
788.254	424.1
788.435	368.81
788.616	383.14
788.797	401.57
788.978	358.57
789.159	442.53
789.34	366.76
789.522	288.93
789.703	309.41
789.884	434.34
790.065	383.14
790.246	358.57
790.427	381.09
790.607	448.68
790.788	403.62
790.969	377
791.15	284.84
791.331	286.89
791.512	346.28
791.693	387.24
791.874	325.8
792.054	346.28
792.235	342.18
792.416	262.31
792.597	237.74
792.778	364.71
792.958	358.57
793.139	288.93
793.32	321.7
793.5	252.07
793.681	315.56
793.862	342.18
794.042	295.08
794.223	297.13
794.404	348.33
794.584	213.16
794.765	346.28
794.945	229.54
795.126	311.46
795.306	293.03
795.487	229.54
795.667	305.32
795.848	284.84
796.028	325.8
796.209	309.41
796.389	268.45
796.57	268.45
796.75	207.02
796.93	262.31
797.111	323.75
797.291	333.99
797.471	317.61
797.652	278.69
797.832	268.45
798.012	196.78
798.192	252.07
798.373	229.54
798.553	268.45
798.733	231.59
798.913	268.45
799.093	272.55
799.274	245.93
799.454	264.36
799.634	286.89
799.814	288.93
799.994	213.16
800.174	260.26
800.354	268.45
800.534	207.02
800.714	239.78
800.894	180.39
801.074	180.39
801.254	245.93
801.434	252.07
801.614	258.21
801.794	161.96
801.974	835.74
802.154	235.69
802.334	309.41
802.514	268.45
802.693	198.82
802.873	161.96
803.053	245.93
803.233	245.93
803.413	182.44
803.592	266.41
803.772	188.58
803.952	221.35
804.131	174.25
804.311	188.58
804.491	190.63
804.67	139.43
804.85	170.15
805.03	223.4
805.209	145.58
805.389	202.92
805.568	166.06
805.748	137.38
805.928	235.69
806.107	221.35
806.287	123.05
806.466	202.92
806.646	186.54
806.825	227.5
807.004	86.19
807.184	161.96
807.363	213.16
807.543	213.16
807.722	116.9
807.901	204.97
808.081	139.43
808.26	186.54
808.439	245.93
808.619	114.86
808.798	129.19
808.977	147.62
809.156	188.58
809.336	207.02
809.515	276.65
809.694	90.28
809.873	190.63
810.052	137.38
810.231	256.17
810.411	235.69
810.59	133.29
810.769	180.39
810.948	188.58
811.127	135.34
811.306	114.86
811.485	153.77
811.664	188.58
811.843	104.62
812.022	161.96
812.201	219.3
812.38	164.01
812.559	186.54
812.737	170.15
812.916	131.24
813.095	112.81
813.274	202.92
813.453	180.39
813.632	139.43
813.811	125.1
813.989	84.14
814.168	133.29
814.347	59.56
814.526	71.85
814.704	211.11
814.883	196.78
815.062	114.86
815.24	131.24
815.419	39.08
815.598	172.2
815.776	90.28
815.955	106.67
816.133	34.99
816.312	145.58
816.49	104.62
816.669	112.81
816.847	88.23
817.026	147.62
817.204	133.29
817.383	139.43
817.561	16.55
817.74	174.25
817.918	108.71
818.097	96.43
818.275	67.75
818.453	104.62
818.632	194.73
818.81	32.94
818.988	104.62
819.167	112.81
819.345	106.67
819.523	104.62
819.701	153.77
819.879	84.14
820.058	147.62
820.236	172.2
820.414	104.62
820.592	22.7
820.77	65.71
820.948	112.81
821.127	92.33
821.305	86.19
821.483	151.72
821.661	104.62
821.839	106.67
822.017	121
822.195	59.56
822.373	90.28
822.551	57.51
822.729	90.28
822.907	59.56
823.085	127.14
823.262	112.81
823.44	32.94
823.618	80.04
823.796	84.14
823.974	145.58
824.152	157.86
824.329	63.66
824.507	41.13
824.685	104.62
824.863	63.66
825.04	73.9
825.218	161.96
825.396	43.18
825.574	47.27
825.751	82.09
825.929	137.38
826.107	69.8
826.284	112.81
826.462	114.86
826.639	75.95
826.817	98.47
826.994	96.43
827.172	77.99
827.349	125.1
827.527	61.61
827.704	143.53
827.882	170.15
828.059	77.99
828.237	14.51
828.414	127.14
828.591	0.17
828.769	88.23
828.946	24.75
829.124	32.94
829.301	211.11
829.478	63.66
829.655	110.76
829.833	22.7
830.01	-5.97
830.187	73.9
830.364	75.95
830.542	112.81
830.719	125.1
830.896	98.47
831.073	104.62
831.25	104.62
831.427	104.62
831.604	55.47
831.782	82.09
831.959	71.85
832.136	102.57
832.313	90.28
832.49	131.24
832.667	155.82
832.844	118.95
833.021	49.32
833.198	51.37
833.374	-5.97
833.551	39.08
833.728	39.08
833.905	59.56
834.082	22.7
834.259	65.71
834.436	92.33
834.612	118.95
834.789	82.09
834.966	45.23
835.143	80.04
835.319	8.36
835.496	88.23
835.673	57.51
835.85	84.14
836.026	182.44
836.203	112.81
836.38	39.08
836.556	65.71
836.733	59.56
836.909	43.18
837.086	39.08
837.262	32.94
837.439	80.04
837.616	39.08
837.792	39.08
837.968	22.7
838.145	39.08
838.321	69.8
838.498	71.85
838.674	104.62
838.851	63.66
839.027	30.89
839.203	14.51
839.38	80.04
839.556	6.31
839.732	75.95
839.909	82.09
840.085	75.95
840.261	114.86
840.437	55.47
840.614	8.36
840.79	84.14
840.966	82.09
841.142	47.27
841.318	55.47
841.494	75.95
841.671	82.09
841.847	-83.8
842.023	39.08
842.199	80.04
842.375	18.6
842.551	18.6
842.727	6.31
842.903	51.37
843.079	71.85
843.255	82.09
843.431	-71.51
843.607	82.09
843.783	14.51
843.959	104.62
844.134	32.94
844.31	96.43
844.486	63.66
844.662	88.23
844.838	41.13
845.013	55.47
845.189	22.7
845.365	47.27
845.541	127.14
845.716	41.13
845.892	43.18
846.068	-42.84
846.244	8.36
846.419	26.79
846.595	22.7
846.77	-16.21
846.946	26.79
847.122	55.47
847.297	-14.17
847.473	59.56
847.648	65.71
847.824	75.95
847.999	49.32
848.175	22.7
848.35	16.55
848.526	98.47
848.701	65.71
848.876	63.66
849.052	51.37
849.227	26.79
849.403	32.94
849.578	55.47
849.753	82.09
849.929	125.1
850.104	30.89
850.279	96.43
850.454	-14.17
850.63	45.23
850.805	37.03
850.98	49.32
851.155	10.41
851.33	67.75
851.505	-42.84
851.681	114.86
851.856	24.75
852.031	8.36
852.206	-3.93
852.381	47.27
852.556	-8.02
852.731	82.09
852.906	43.18
853.081	8.36
853.256	59.56
853.431	-36.69
853.606	0.17
853.781	-20.31
853.956	-59.22
854.131	8.36
854.305	-48.98
854.48	-10.07
854.655	-22.36
854.83	14.51
855.005	39.08
855.18	41.13
855.354	-10.07
855.529	-34.64
855.704	-40.79
855.879	34.99
856.053	6.31
856.228	12.46
856.403	-38.74
856.577	-5.97
856.752	32.94
856.926	6.31
857.101	22.7
857.276	86.19
857.45	-18.26
857.625	-18.26
857.799	67.75
857.974	30.89
858.148	-26.45
858.323	51.37
858.497	16.55
858.672	41.13
858.846	14.51
859.02	43.18
859.195	6.31
859.369	6.31
859.543	57.51
859.718	90.28
859.892	-55.12
860.066	49.32
860.241	22.7
860.415	-1.88
860.589	41.13
860.763	2.22
860.938	-67.41
861.112	26.79
861.286	18.6
861.46	32.94
861.634	37.03
861.808	-8.02
861.982	39.08
862.157	16.55
862.331	39.08
862.505	16.55
862.679	-32.6
862.853	26.79
863.027	26.79
863.201	73.9
863.375	-83.8
863.549	10.41
863.722	6.31
863.896	67.75
864.07	-26.45
864.244	65.71
864.418	8.36
864.592	-1.88
864.766	20.65
864.939	4.27
865.113	-18.26
865.287	-42.84
865.461	4.27
865.634	41.13
865.808	65.71
865.982	65.71
866.156	12.46
866.329	-55.12
866.503	-8.02
866.676	41.13
866.85	-10.07
867.024	30.89
867.197	30.89
867.371	14.51
867.544	-5.97
867.718	-51.03
867.891	47.27
868.065	10.41
868.238	-5.97
868.412	104.62
868.585	10.41
868.759	-67.41
868.932	-32.6
869.105	30.89
869.279	65.71
869.452	-104.28
869.625	0.17
869.799	26.79
869.972	49.32
870.145	0.17
870.319	-18.26
870.492	-18.26
870.665	-83.8
870.838	16.55
871.011	-63.32
871.185	-112.47
871.358	-48.98
871.531	4.27
871.704	20.65
871.877	6.31
872.05	-1.88
872.223	-8.02
872.396	32.94
872.569	10.41
872.742	-67.41
872.915	88.23
873.088	8.36
873.261	-53.08
873.434	-26.45
873.607	-14.17
873.78	22.7
873.953	18.6
874.126	-34.64
874.299	75.95
874.471	24.75
874.644	14.51
874.817	10.41
874.99	82.09
875.163	24.75
875.335	-5.97
875.508	16.55
875.681	84.14
875.853	37.03
876.026	14.51
876.199	16.55
876.371	32.94
876.544	-1.88
876.717	-59.22
876.889	-34.64
877.062	63.66
877.234	6.31
877.407	47.27
877.579	10.41
877.752	59.56
877.924	22.7
878.097	55.47
878.269	47.27
878.442	80.04
878.614	6.31
878.786	10.41
878.959	-30.55
879.131	30.89
879.303	-51.03
879.476	30.89
879.648	6.31
879.82	84.14
879.993	-61.27
880.165	0.17
880.337	51.37
880.509	26.79
880.681	-96.08
880.854	57.51
881.026	4.27
881.198	12.46
881.37	55.47
881.542	-40.79
881.714	-1.88
881.886	61.61
882.058	0.17
882.23	-16.21
882.402	6.31
882.574	-83.8
882.746	63.66
882.918	16.55
883.09	-8.02
883.262	-20.31
883.434	10.41
883.606	-1.88
883.778	67.75
883.95	39.08
884.122	18.6
884.293	61.61
884.465	26.79
884.637	-16.21
884.809	-18.26
884.98	90.28
885.152	49.32
885.324	16.55
885.496	-16.21
885.667	-18.26
885.839	-20.31
886.011	49.32
886.182	-65.36
886.354	32.94
886.525	0.17
886.697	63.66
886.869	-34.64
887.04	-14.17
887.212	22.7
887.383	61.61
887.555	88.23
887.726	-1.88
887.897	-34.64
888.069	10.41
888.24	34.99
888.412	2.22
888.583	-22.36
888.754	100.52
888.926	-85.84
889.097	-22.36
889.268	-18.26
889.44	65.71
889.611	71.85
889.782	-24.4
889.953	-26.45
890.125	32.94
890.296	-40.79
890.467	-34.64
890.638	8.36
890.809	-69.46
890.98	43.18
891.151	39.08
891.323	32.94
891.494	12.46
891.665	-26.45
891.836	0.17
892.007	67.75
892.178	-1.88
892.349	-10.07
892.52	34.99
892.691	32.94
892.862	-1.88
893.032	-44.88
893.203	-18.26
893.374	-22.36
893.545	0.17
893.716	14.51
893.887	22.7
894.057	6.31
894.228	28.84
894.399	-42.84
894.57	6.31
894.74	2.22
894.911	39.08
895.082	22.7
895.253	55.47
895.423	-26.45
895.594	55.47
895.764	34.99
895.935	-55.12
896.106	43.18
896.276	6.31
896.447	-28.5
896.617	22.7
896.788	34.99
896.958	-63.32
897.129	-1.88
897.299	-28.5
897.47	0.17
897.64	32.94
897.81	6.31
897.981	6.31
898.151	-36.69
898.322	-26.45
898.492	49.32
898.662	-14.17
898.832	28.84
899.003	-59.22
899.173	43.18
899.343	-46.93
899.513	10.41
