Data from USB4F104151__195__14-45-14-231.txt Node

Date: Thu Mar 13 14:45:14 EDT 2025
User: louis
Spectrometer: USB4F10415
Trigger mode: 4
Integration Time (sec): 2.000000E-2
Scans to average: 1
Electric dark correction enabled: true
Nonlinearity correction enabled: false
Boxcar width: 0
XAxis mode: Wavelengths
Number of Pixels in Spectrum: 3648
>>>>>Begin Spectral Data<<<<<
178.204	-72.53
178.424	-72.53
178.644	-72.53
178.864	-131.92
179.084	-105.3
179.304	25.77
179.524	-7
179.744	33.96
179.964	27.82
180.184	42.15
180.404	-9.05
180.624	-80.72
180.844	7.34
181.064	-25.43
181.283	13.48
181.503	-60.24
181.723	31.91
181.943	23.72
182.163	119.98
182.383	27.82
182.602	42.15
182.822	44.2
183.042	-9.05
183.262	23.72
183.482	62.63
183.701	-80.72
183.921	-0.85
184.141	23.72
184.361	81.07
184.58	15.53
184.8	48.3
185.02	36.01
185.239	44.2
185.459	58.54
185.679	25.77
185.898	-15.19
186.118	72.87
186.338	13.48
186.557	48.3
186.777	3.24
186.997	29.87
187.216	1.19
187.436	85.16
187.655	56.49
187.875	9.39
188.095	3.24
188.314	150.7
188.534	81.07
188.753	-7
188.973	-17.24
189.192	31.91
189.412	95.4
189.631	33.96
189.851	25.77
190.07	40.11
190.29	-35.67
190.509	23.72
190.729	33.96
190.948	89.26
191.168	142.5
191.387	31.91
191.607	3.24
191.826	64.68
192.045	52.39
192.265	31.91
192.484	15.53
192.704	83.11
192.923	72.87
193.142	68.78
193.362	68.78
193.581	42.15
193.8	23.72
194.02	-43.86
194.239	-4.95
194.458	113.83
194.678	89.26
194.897	23.72
195.116	46.25
195.335	48.3
195.555	64.68
195.774	-47.96
195.993	11.43
196.212	40.11
196.432	19.63
196.651	23.72
196.87	5.29
197.089	134.31
197.308	5.29
197.528	-0.85
197.747	33.96
197.966	25.77
198.185	128.17
198.404	17.58
198.623	23.72
198.842	64.68
199.062	56.49
199.281	56.49
199.5	33.96
199.719	-13.14
199.938	33.96
200.157	64.68
200.376	72.87
200.595	23.72
200.814	38.06
201.033	1.19
201.252	81.07
201.471	33.96
201.69	19.63
201.909	11.43
202.128	64.68
202.347	52.39
202.566	87.21
202.785	58.54
203.004	50.35
203.223	52.39
203.442	48.3
203.661	56.49
203.879	25.77
204.098	48.3
204.317	33.96
204.536	109.74
204.755	40.11
204.974	56.49
205.193	9.39
205.411	72.87
205.63	68.78
205.849	89.26
206.068	60.59
206.287	-23.38
206.505	52.39
206.724	25.77
206.943	21.67
207.162	1.19
207.381	93.35
207.599	-37.72
207.818	23.72
208.037	27.82
208.255	122.02
208.474	105.64
208.693	-9.05
208.911	56.49
209.13	25.77
209.349	15.53
209.567	-7
209.786	42.15
210.005	97.45
210.223	52.39
210.442	19.63
210.661	113.83
210.879	42.15
211.098	99.5
211.316	56.49
211.535	74.92
211.753	-47.96
211.972	15.53
212.191	-17.24
212.409	23.72
212.628	-23.38
212.846	-0.85
213.065	44.2
213.283	48.3
213.502	23.72
213.72	130.22
213.938	56.49
214.157	74.92
214.375	17.58
214.594	17.58
214.812	17.58
215.031	-4.95
215.249	-66.39
215.467	64.68
215.686	17.58
215.904	60.59
216.122	25.77
216.341	91.31
216.559	48.3
216.778	15.53
216.996	40.11
217.214	50.35
217.432	50.35
217.651	-41.81
217.869	44.2
218.087	-9.05
218.306	13.48
218.524	50.35
218.742	11.43
218.96	23.72
219.179	-27.48
219.397	-0.85
219.615	31.91
219.833	89.26
220.051	15.53
220.27	64.68
220.488	3.24
220.706	52.39
220.924	-4.95
221.142	40.11
221.36	60.59
221.578	-64.34
221.796	-4.95
222.015	23.72
222.233	64.68
222.451	11.43
222.669	44.2
222.887	58.54
223.105	9.39
223.323	7.34
223.541	27.82
223.759	36.01
223.977	60.59
224.195	72.87
224.413	17.58
224.631	48.3
224.849	72.87
225.067	25.77
225.285	-7
225.503	-15.19
225.721	9.39
225.939	17.58
226.157	44.2
226.375	42.15
226.592	-21.33
226.81	40.11
227.028	72.87
227.246	27.82
227.464	79.02
227.682	31.91
227.9	44.2
228.117	5.29
228.335	33.96
228.553	60.59
228.771	-23.38
228.989	113.83
229.206	19.63
229.424	-25.43
229.642	31.91
229.86	21.67
230.077	-4.95
230.295	38.06
230.513	58.54
230.731	38.06
230.948	97.45
231.166	128.17
231.384	-54.1
231.601	15.53
231.819	52.39
232.037	31.91
232.254	23.72
232.472	89.26
232.689	-23.38
232.907	7.34
233.125	-23.38
233.342	7.34
233.56	-13.14
233.777	31.91
233.995	-54.1
234.213	89.26
234.43	40.11
234.648	66.73
234.865	13.48
235.083	72.87
235.3	7.34
235.518	1.19
235.735	33.96
235.953	-13.14
236.17	33.96
236.388	56.49
236.605	7.34
236.822	11.43
237.04	62.63
237.257	66.73
237.475	-4.95
237.692	-41.81
237.909	81.07
238.127	42.15
238.344	15.53
238.562	23.72
238.779	36.01
238.996	-23.38
239.214	46.25
239.431	7.34
239.648	-4.95
239.865	-17.24
240.083	76.97
240.3	31.91
240.517	11.43
240.735	23.72
240.952	99.5
241.169	48.3
241.386	50.35
241.603	-33.62
241.821	-17.24
242.038	97.45
242.255	9.39
242.472	27.82
242.689	-4.95
242.907	76.97
243.124	52.39
243.341	11.43
243.558	15.53
243.775	42.15
243.992	-33.62
244.209	76.97
244.426	66.73
244.643	-4.95
244.86	66.73
245.078	89.26
245.295	23.72
245.512	-31.57
245.729	11.43
245.946	11.43
246.163	81.07
246.38	76.97
246.597	13.48
246.814	15.53
247.031	31.91
247.248	40.11
247.464	40.11
247.681	50.35
247.898	50.35
248.115	23.72
248.332	97.45
248.549	19.63
248.766	122.02
248.983	91.31
249.2	23.72
249.417	72.87
249.633	42.15
249.85	91.31
250.067	72.87
250.284	23.72
250.501	27.82
250.717	52.39
250.934	-21.33
251.151	25.77
251.368	23.72
251.585	17.58
251.801	1.19
252.018	-9.05
252.235	99.5
252.451	36.01
252.668	-17.24
252.885	54.44
253.102	50.35
253.318	-21.33
253.535	50.35
253.752	15.53
253.968	5.29
254.185	81.07
254.401	5.29
254.618	40.11
254.835	36.01
255.051	15.53
255.268	7.34
255.484	-9.05
255.701	64.68
255.917	15.53
256.134	42.15
256.351	7.34
256.567	-7
256.784	74.92
257	-19.29
257.217	81.07
257.433	76.97
257.65	74.92
257.866	23.72
258.082	11.43
258.299	33.96
258.515	44.2
258.732	7.34
258.948	93.35
259.165	13.48
259.381	83.11
259.597	-13.14
259.814	15.53
260.03	27.82
260.246	42.15
260.463	72.87
260.679	52.39
260.895	58.54
261.112	68.78
261.328	-25.43
261.544	46.25
261.761	23.72
261.977	19.63
262.193	-15.19
262.409	62.63
262.626	124.07
262.842	15.53
263.058	52.39
263.274	-29.52
263.49	146.6
263.707	33.96
263.923	72.87
264.139	46.25
264.355	44.2
264.571	9.39
264.787	-62.29
265.004	-0.85
265.22	56.49
265.436	1.19
265.652	27.82
265.868	60.59
266.084	25.77
266.3	7.34
266.516	60.59
266.732	81.07
266.948	83.11
267.164	52.39
267.38	38.06
267.596	42.15
267.812	17.58
268.028	11.43
268.244	-9.05
268.46	-50
268.676	-7
268.892	109.74
269.108	58.54
269.324	11.43
269.54	-27.48
269.756	101.55
269.972	-25.43
270.188	91.31
270.403	-25.43
270.619	97.45
270.835	85.16
271.051	33.96
271.267	-39.76
271.483	9.39
271.698	122.02
271.914	48.3
272.13	-21.33
272.346	-23.38
272.562	70.83
272.777	91.31
272.993	-2.9
273.209	-4.95
273.425	109.74
273.64	40.11
273.856	89.26
274.072	17.58
274.287	72.87
274.503	48.3
274.719	66.73
274.934	93.35
275.15	-4.95
275.366	17.58
275.581	-4.95
275.797	33.96
276.012	66.73
276.228	44.2
276.444	1.19
276.659	31.91
276.875	1.19
277.09	31.91
277.306	58.54
277.521	97.45
277.737	42.15
277.952	89.26
278.168	9.39
278.383	83.11
278.599	17.58
278.814	56.49
279.03	44.2
279.245	48.3
279.461	52.39
279.676	42.15
279.892	9.39
280.107	46.25
280.322	-29.52
280.538	48.3
280.753	9.39
280.969	42.15
281.184	25.77
281.399	83.11
281.615	15.53
281.83	64.68
282.045	-58.2
282.26	107.69
282.476	-23.38
282.691	83.11
282.906	81.07
283.122	50.35
283.337	19.63
283.552	44.2
283.767	52.39
283.983	91.31
284.198	15.53
284.413	31.91
284.628	81.07
284.843	54.44
285.058	21.67
285.274	31.91
285.489	7.34
285.704	33.96
285.919	60.59
286.134	27.82
286.349	-37.72
286.564	85.16
286.779	93.35
286.995	40.11
287.21	1.19
287.425	103.59
287.64	23.72
287.855	-13.14
288.07	23.72
288.285	64.68
288.5	44.2
288.715	17.58
288.93	64.68
289.145	-0.85
289.36	33.96
289.575	-13.14
289.79	-45.91
290.004	-35.67
290.219	-0.85
290.434	27.82
290.649	31.91
290.864	70.83
291.079	25.77
291.294	117.93
291.509	66.73
291.724	122.02
291.938	-111.44
292.153	33.96
292.368	25.77
292.583	97.45
292.798	42.15
293.012	27.82
293.227	7.34
293.442	29.87
293.657	38.06
293.871	23.72
294.086	-7
294.301	64.68
294.516	-0.85
294.73	19.63
294.945	52.39
295.16	81.07
295.374	7.34
295.589	62.63
295.804	64.68
296.018	17.58
296.233	109.74
296.447	-31.57
296.662	54.44
296.877	1.19
297.091	85.16
297.306	-29.52
297.52	27.82
297.735	23.72
297.949	29.87
298.164	36.01
298.378	85.16
298.593	68.78
298.807	42.15
299.022	23.72
299.236	5.29
299.451	1.19
299.665	7.34
299.88	-4.95
300.094	46.25
300.309	-0.85
300.523	54.44
300.737	3.24
300.952	83.11
301.166	99.5
301.381	11.43
301.595	56.49
301.809	7.34
302.024	48.3
302.238	72.87
302.452	33.96
302.667	54.44
302.881	50.35
303.095	40.11
303.309	17.58
303.524	3.24
303.738	31.91
303.952	36.01
304.166	-25.43
304.381	-23.38
304.595	76.97
304.809	-11.09
305.023	40.11
305.237	7.34
305.452	17.58
305.666	33.96
305.88	50.35
306.094	70.83
306.308	40.11
306.522	42.15
306.736	48.3
306.95	44.2
307.164	33.96
307.379	25.77
307.593	40.11
307.807	81.07
308.021	81.07
308.235	7.34
308.449	-95.06
308.663	50.35
308.877	91.31
309.091	66.73
309.305	81.07
309.519	-7
309.733	66.73
309.947	-33.62
310.161	70.83
310.374	17.58
310.588	132.26
310.802	19.63
311.016	52.39
311.23	7.34
311.444	54.44
311.658	70.83
311.872	60.59
312.085	15.53
312.299	113.83
312.513	72.87
312.727	107.69
312.941	-33.62
313.154	68.78
313.368	38.06
313.582	66.73
313.796	5.29
314.009	15.53
314.223	7.34
314.437	33.96
314.651	50.35
314.864	-9.05
315.078	58.54
315.292	25.77
315.505	52.39
315.719	74.92
315.933	56.49
316.146	93.35
316.36	48.3
316.573	113.83
316.787	46.25
317.001	48.3
317.214	-9.05
317.428	162.98
317.641	60.59
317.855	60.59
318.068	7.34
318.282	48.3
318.495	105.64
318.709	56.49
318.922	72.87
319.136	126.12
319.349	58.54
319.563	-4.95
319.776	52.39
319.99	7.34
320.203	1.19
320.417	23.72
320.63	40.11
320.843	64.68
321.057	15.53
321.27	91.31
321.483	42.15
321.697	74.92
321.91	5.29
322.124	33.96
322.337	48.3
322.55	54.44
322.763	56.49
322.977	7.34
323.19	29.87
323.403	89.26
323.617	50.35
323.83	44.2
324.043	66.73
324.256	66.73
324.469	42.15
324.683	76.97
324.896	132.26
325.109	42.15
325.322	76.97
325.535	11.43
325.748	85.16
325.962	52.39
326.175	87.21
326.388	85.16
326.601	81.07
326.814	17.58
327.027	21.67
327.24	64.68
327.453	40.11
327.666	122.02
327.879	25.77
328.092	27.82
328.305	9.39
328.518	-17.24
328.731	17.58
328.944	56.49
329.157	31.91
329.37	-17.24
329.583	68.78
329.796	-13.14
330.009	-39.76
330.222	140.46
330.435	48.3
330.648	72.87
330.861	60.59
331.073	72.87
331.286	93.35
331.499	25.77
331.712	31.91
331.925	-11.09
332.138	-19.29
332.35	128.17
332.563	42.15
332.776	64.68
332.989	29.87
333.202	15.53
333.414	58.54
333.627	64.68
333.84	81.07
334.053	-0.85
334.265	-9.05
334.478	9.39
334.691	11.43
334.903	56.49
335.116	7.34
335.329	11.43
335.541	50.35
335.754	72.87
335.966	-21.33
336.179	113.83
336.392	11.43
336.604	-0.85
336.817	15.53
337.029	136.36
337.242	29.87
337.454	23.72
337.667	23.72
337.88	60.59
338.092	64.68
338.305	23.72
338.517	3.24
338.729	56.49
338.942	60.59
339.154	31.91
339.367	68.78
339.579	7.34
339.792	11.43
340.004	54.44
340.217	15.53
340.429	-11.09
340.641	44.2
340.854	-9.05
341.066	31.91
341.278	46.25
341.491	74.92
341.703	-9.05
341.915	-7
342.128	7.34
342.34	31.91
342.552	64.68
342.764	87.21
342.977	27.82
343.189	52.39
343.401	72.87
343.613	-33.62
343.826	72.87
344.038	-4.95
344.25	-7
344.462	-33.62
344.674	117.93
344.886	95.4
345.099	64.68
345.311	138.41
345.523	-31.57
345.735	3.24
345.947	-11.09
346.159	-0.85
346.371	-7
346.583	1.19
346.795	68.78
347.007	60.59
347.219	5.29
347.431	70.83
347.643	56.49
347.855	-11.09
348.067	38.06
348.279	23.72
348.491	-31.57
348.703	58.54
348.915	-0.85
349.127	-25.43
349.339	-29.52
349.551	-39.76
349.763	27.82
349.975	40.11
350.187	31.91
350.399	89.26
350.61	81.07
350.822	-41.81
351.034	105.64
351.246	36.01
351.458	33.96
351.669	13.48
351.881	128.17
352.093	9.39
352.305	81.07
352.517	97.45
352.728	1.19
352.94	89.26
353.152	103.59
353.363	-31.57
353.575	124.07
353.787	109.74
353.999	42.15
354.21	42.15
354.422	-39.76
354.633	83.11
354.845	50.35
355.057	68.78
355.268	83.11
355.48	76.97
355.692	-25.43
355.903	48.3
356.115	83.11
356.326	-72.53
356.538	113.83
356.749	79.02
356.961	56.49
357.172	23.72
357.384	7.34
357.595	93.35
357.807	-21.33
358.018	-58.2
358.23	15.53
358.441	103.59
358.653	91.31
358.864	72.87
359.075	-41.81
359.287	48.3
359.498	60.59
359.709	99.5
359.921	95.4
360.132	-39.76
360.344	81.07
360.555	-13.14
360.766	44.2
360.977	117.93
361.189	64.68
361.4	-11.09
361.611	56.49
361.823	11.43
362.034	27.82
362.245	62.63
362.456	93.35
362.667	48.3
362.879	97.45
363.09	89.26
363.301	97.45
363.512	7.34
363.723	64.68
363.935	23.72
364.146	58.54
364.357	52.39
364.568	50.35
364.779	-7
364.99	105.64
365.201	31.91
365.412	66.73
365.623	-21.33
365.834	64.68
366.045	31.91
366.256	-21.33
366.467	105.64
366.678	81.07
366.889	81.07
367.1	17.58
367.311	124.07
367.522	42.15
367.733	9.39
367.944	83.11
368.155	-13.14
368.366	89.26
368.577	29.87
368.788	9.39
368.999	68.78
369.209	17.58
369.42	76.97
369.631	93.35
369.842	9.39
370.053	5.29
370.264	109.74
370.474	-7
370.685	81.07
370.896	52.39
371.107	19.63
371.317	7.34
371.528	7.34
371.739	115.88
371.95	29.87
372.16	31.91
372.371	27.82
372.582	-15.19
372.792	-25.43
373.003	7.34
373.214	38.06
373.424	89.26
373.635	-4.95
373.846	62.63
374.056	-15.19
374.267	40.11
374.477	101.55
374.688	38.06
374.898	81.07
375.109	122.02
375.319	48.3
375.53	105.64
375.74	33.96
375.951	72.87
376.161	31.91
376.372	171.18
376.582	19.63
376.793	95.4
377.003	-45.91
377.214	76.97
377.424	50.35
377.635	-33.62
377.845	33.96
378.055	64.68
378.266	-9.05
378.476	48.3
378.686	-23.38
378.897	52.39
379.107	31.91
379.317	68.78
379.528	99.5
379.738	44.2
379.948	31.91
380.158	56.49
380.369	17.58
380.579	72.87
380.789	29.87
380.999	25.77
381.21	7.34
381.42	83.11
381.63	68.78
381.84	48.3
382.05	56.49
382.261	103.59
382.471	48.3
382.681	83.11
382.891	68.78
383.101	72.87
383.311	-2.9
383.521	7.34
383.731	52.39
383.941	62.63
384.151	29.87
384.361	74.92
384.571	64.68
384.781	-9.05
384.991	107.69
385.201	50.35
385.411	31.91
385.621	9.39
385.831	50.35
386.041	97.45
386.251	101.55
386.461	70.83
386.671	-17.24
386.881	95.4
387.091	-9.05
387.301	87.21
387.511	64.68
387.72	52.39
387.93	23.72
388.14	91.31
388.35	27.82
388.56	74.92
388.769	152.74
388.979	95.4
389.189	11.43
389.399	97.45
389.609	36.01
389.818	44.2
390.028	87.21
390.238	85.16
390.447	-0.85
390.657	27.82
390.867	72.87
391.076	19.63
391.286	17.58
391.496	111.78
391.705	91.31
391.915	156.84
392.125	85.16
392.334	15.53
392.544	3.24
392.753	81.07
392.963	109.74
393.172	23.72
393.382	25.77
393.591	101.55
393.801	52.39
394.01	126.12
394.22	64.68
394.429	101.55
394.639	3.24
394.848	93.35
395.058	95.4
395.267	-0.85
395.477	31.91
395.686	72.87
395.895	107.69
396.105	105.64
396.314	64.68
396.524	122.02
396.733	5.29
396.942	162.98
397.152	50.35
397.361	89.26
397.57	72.87
397.78	89.26
397.989	15.53
398.198	103.59
398.407	124.07
398.617	189.61
398.826	91.31
399.035	33.96
399.244	23.72
399.453	64.68
399.663	148.65
399.872	97.45
400.081	70.83
400.29	89.26
400.499	107.69
400.708	99.5
400.917	162.98
401.127	40.11
401.336	117.93
401.545	185.51
401.754	83.11
401.963	142.5
402.172	103.59
402.381	97.45
402.59	99.5
402.799	52.39
403.008	113.83
403.217	89.26
403.426	93.35
403.635	64.68
403.844	56.49
404.053	54.44
404.262	44.2
404.471	122.02
404.68	122.02
404.888	150.7
405.097	160.94
405.306	140.46
405.515	154.79
405.724	95.4
405.933	109.74
406.142	87.21
406.35	154.79
406.559	93.35
406.768	99.5
406.977	195.75
407.185	191.66
407.394	122.02
407.603	146.6
407.812	171.18
408.02	222.38
408.229	148.65
408.438	191.66
408.646	191.66
408.855	199.85
409.064	132.26
409.272	175.27
409.481	263.33
409.69	212.14
409.898	228.52
410.107	173.22
410.315	343.21
410.524	253.09
410.733	310.44
410.941	271.53
411.15	255.14
411.358	310.44
411.567	246.95
411.775	285.86
411.984	259.24
412.192	265.38
412.401	343.21
412.609	332.97
412.818	373.92
413.026	351.4
413.234	375.97
413.443	394.4
413.651	318.63
413.86	453.8
414.068	478.37
414.276	482.47
414.485	394.4
414.693	504.99
414.901	558.24
415.11	457.89
415.318	527.52
415.526	466.08
415.734	523.43
415.943	629.92
416.151	629.92
416.359	533.67
416.567	691.36
416.776	703.65
416.984	720.03
417.192	695.46
417.4	711.84
417.608	658.59
417.817	728.22
418.025	748.7
418.233	894.11
418.441	808.09
418.649	892.06
418.857	885.92
419.065	900.25
419.273	959.64
419.481	916.64
419.689	982.17
419.897	1006.75
420.105	1146.01
420.313	1131.67
420.521	1258.65
420.729	1295.51
420.937	1141.91
421.145	1242.26
421.353	1289.37
421.561	1379.48
421.769	1457.3
421.977	1434.77
422.185	1502.36
422.393	1563.79
422.601	1664.15
422.809	1705.1
423.017	1574.03
423.224	1694.86
423.432	1784.98
423.64	1825.93
423.848	1961.1
424.056	1868.94
424.263	2065.55
424.471	2030.73
424.679	2110.6
424.887	2219.14
425.094	2268.3
425.302	2288.78
425.51	2382.98
425.718	2309.26
425.925	2518.15
426.133	2460.81
426.341	2731.14
426.548	2765.95
426.756	2673.79
426.964	2825.34
427.171	2954.37
427.379	3132.54
427.586	3060.86
427.794	3308.66
428.001	3290.23
428.209	3523.7
428.417	3468.41
428.624	3576.95
428.832	3748.98
429.039	3632.24
429.247	3652.72
429.454	4090.99
429.662	4351.08
429.869	4002.93
430.076	4211.82
430.284	4121.71
430.491	4426.86
430.699	4660.32
430.906	4662.37
431.114	4521.06
431.321	4828.26
431.528	4934.75
431.736	5209.18
431.943	5481.56
432.15	5287
432.358	5366.87
432.565	5524.57
432.772	5651.54
432.979	5770.32
433.187	5854.29
433.394	5977.17
433.601	6292.55
433.808	6423.62
434.016	6319.18
434.223	6765.64
434.43	7042.11
434.637	6839.36
434.844	7423.03
435.052	7500.86
435.259	7396.41
435.466	7586.87
435.673	7359.55
435.88	7945.27
436.087	8313.9
436.294	8371.24
436.501	8201.26
436.708	8217.65
436.915	8586.28
437.122	9124.9
437.329	8813.6
437.537	9215.01
437.743	9387.04
437.95	9399.32
438.157	9686.04
438.364	9937.94
438.571	9968.66
438.778	10075.15
438.985	11090.95
439.192	10607.62
439.399	11033.6
439.606	10771.46
439.813	11191.3
440.02	11926.52
440.227	11627.51
440.433	11736.06
440.64	12133.36
440.847	12116.98
441.054	12207.09
441.261	13097.95
441.467	12907.49
441.674	13286.37
441.881	13609.95
442.088	13562.84
442.294	13532.12
442.501	13665.24
442.708	14074.84
442.914	14619.6
443.121	15252.42
443.328	15014.85
443.534	15893.43
443.741	15397.82
443.948	15236.03
444.154	16348.08
444.361	16317.36
444.568	16167.86
444.774	16366.51
444.981	16436.14
445.187	17005.48
445.394	17689.5
445.6	17662.88
445.807	19059.59
446.013	18291.6
446.22	18725.77
446.426	19518.34
446.633	19686.27
446.839	20331.38
447.046	19475.33
447.252	20216.69
447.459	20466.55
447.665	20415.35
447.871	21384.04
448.078	22149.98
448.284	21291.88
448.491	21859.17
448.697	22827.85
448.903	22821.71
449.11	23214.92
449.316	22684.5
449.522	23227.21
449.728	23610.18
449.935	24249.14
450.141	24025.92
450.347	24374.07
450.553	23776.06
450.76	24073.02
450.966	24873.78
451.172	24943.41
451.378	25443.11
451.584	24853.3
451.791	25504.55
451.997	25205.55
452.203	25617.19
452.409	25625.38
452.615	25469.73
452.821	24527.67
453.027	24322.87
453.233	25864.99
453.44	24484.66
453.646	24736.56
453.852	24836.91
454.058	25279.27
454.264	24828.72
454.47	25729.83
454.676	24750.9
454.882	25578.28
455.088	23302.98
455.294	23583.55
455.5	24150.84
455.705	24355.64
455.911	23472.96
456.117	22942.54
456.323	22750.03
456.529	21420.9
456.735	22674.26
456.941	21611.36
457.147	21527.39
457.352	20951.91
457.558	20708.21
457.764	20845.42
457.97	20253.56
458.176	20046.71
458.381	20192.12
458.587	18903.95
458.793	18758.54
458.999	17791.9
459.204	19516.29
459.41	18549.65
459.616	17275.81
459.821	17730.46
460.027	17400.74
460.233	16935.85
460.438	16401.33
460.644	16708.52
460.85	15582.14
461.055	15514.56
461.261	15690.68
461.466	14130.13
461.672	13777.88
461.878	14754.76
462.083	13941.72
462.289	13605.85
462.494	13462.49
462.7	12970.98
462.905	12628.97
463.111	12784.62
463.316	13079.52
463.522	12917.73
463.727	12772.33
463.932	12835.81
464.138	12524.52
464.343	12714.98
464.549	12278.77
464.754	12747.75
464.959	12567.53
465.165	12426.22
465.37	12067.83
465.575	11736.06
465.781	12043.25
465.986	12178.42
466.191	11525.11
466.397	11510.78
466.602	10824.71
466.807	11404.28
467.012	11340.8
467.218	11045.89
467.423	11172.86
467.628	11138.05
467.833	11658.23
468.038	11422.72
468.244	10808.33
468.449	11332.61
468.654	10898.44
468.859	10884.1
469.064	10869.76
469.269	10468.36
469.474	10497.03
469.679	10865.67
469.885	10537.99
470.09	10607.62
470.295	10511.37
470.5	10232.85
470.705	10413.07
470.91	9923.6
471.115	10052.63
471.32	9939.99
471.525	9987.09
471.73	9911.32
471.935	9845.78
472.139	9296.92
472.344	9575.45
472.549	9452.57
472.754	9407.52
472.959	9210.91
473.164	9223.2
473.369	8979.49
473.574	9276.45
473.778	9264.16
473.983	9131.04
474.188	9215.01
474.393	8639.53
474.598	8612.9
474.802	8549.42
475.007	8463.4
475.212	8700.97
475.417	8191.02
475.621	8315.95
475.826	8318
476.031	7951.41
476.235	8029.23
476.44	8088.62
476.645	7801.91
476.849	7781.43
477.054	7752.76
477.259	7887.92
477.463	7885.87
477.668	7527.48
477.872	7730.23
478.077	7308.35
478.282	7404.6
478.486	7232.57
478.691	7130.17
478.895	7117.89
479.1	7183.42
479.304	7134.27
479.509	6847.55
479.713	7191.61
479.918	6782.02
480.122	6806.59
480.326	6966.34
480.531	7019.58
480.735	6736.96
480.94	6679.62
481.144	7035.97
481.348	6634.57
481.553	6716.48
481.757	6560.84
481.961	6757.44
482.166	6689.86
482.37	6691.91
482.574	6704.2
482.778	6786.12
482.983	6839.36
483.187	6550.6
483.391	6773.83
483.595	6636.61
483.8	6704.2
484.004	6523.98
484.208	6593.61
484.412	6634.57
484.616	6716.48
484.821	6693.96
485.025	6394.95
485.229	6747.2
485.433	6601.8
485.637	6636.61
485.841	6521.93
486.045	6599.75
486.249	6591.56
486.453	6472.78
486.657	6571.08
486.861	6779.97
487.065	6427.72
487.269	6505.54
487.473	6417.48
487.677	6472.78
487.881	6661.19
488.085	6587.46
488.289	6722.63
488.493	6487.11
488.697	6648.9
488.901	6601.8
489.105	6519.88
489.309	6724.68
489.512	6667.33
489.716	6696
489.92	6708.29
490.124	6644.81
490.328	6939.71
490.531	6683.72
490.735	6765.64
490.939	6716.48
491.143	6599.75
491.346	6724.68
491.55	6798.4
491.754	6818.88
491.958	7013.44
492.161	6825.03
492.365	6865.99
492.569	6986.82
492.772	7035.97
492.976	6945.86
493.18	7087.17
493.383	6970.43
493.587	7212.09
493.79	7111.74
493.994	7091.26
494.197	7269.44
494.401	7408.7
494.605	7236.67
494.808	7480.38
495.012	7478.33
495.215	7474.23
495.419	7527.48
495.622	7531.58
495.825	7519.29
496.029	7474.23
496.232	7756.85
496.436	7748.66
496.639	7988.27
496.843	7955.51
497.046	8070.19
497.249	8045.62
497.453	8133.68
497.656	8229.93
497.859	8246.32
498.063	8328.24
498.266	8604.71
498.469	8348.72
498.673	8676.39
498.876	8743.97
499.079	8907.81
499.282	8899.62
499.485	9073.7
499.689	8836.13
499.892	9047.07
500.095	9235.49
500.298	9462.81
500.501	9270.3
500.705	9595.93
500.908	9782.29
501.111	9636.89
501.314	9757.72
501.517	10210.32
501.72	10124.3
501.923	10187.79
502.126	10308.62
502.329	10599.43
502.532	10554.38
502.735	10533.9
502.938	10894.34
503.141	10771.46
503.344	10837
503.547	11136
503.75	11095.04
503.953	11455.48
504.156	11340.8
504.359	11377.66
504.562	11779.06
504.765	11758.58
504.968	11770.87
505.17	12084.21
505.373	12008.44
505.576	12442.6
505.779	12491.76
505.982	12418.03
506.185	12649.45
506.387	12811.24
506.59	12766.18
506.793	13106.15
506.996	13155.3
507.198	13401.05
507.401	13415.39
507.604	13476.83
507.807	13689.82
508.009	14037.97
508.212	13859.8
508.415	14154.71
508.617	14281.68
508.82	14427.09
509.022	14599.12
509.225	14701.51
509.428	14789.58
509.63	15037.38
509.833	14959.56
510.035	15559.61
510.238	15276.99
510.44	15872.95
510.643	15729.59
510.845	15836.09
511.048	15897.53
511.25	16235.44
511.453	16274.35
511.655	16821.16
511.858	16747.44
512.06	16616.37
512.262	16888.74
512.465	16669.61
512.667	17284
512.87	17329.06
513.072	17499.04
513.274	17888.15
513.477	17916.83
513.679	18131.86
513.881	18398.1
514.084	18394
514.286	18525.07
514.488	18602.89
514.69	19514.24
514.893	19176.33
515.095	19366.79
515.297	19526.53
515.499	19514.24
515.701	19764.09
515.904	20421.49
516.106	20401.01
516.308	20454.26
516.51	20503.41
516.712	20747.12
516.914	21015.4
517.116	21021.55
517.318	21101.42
517.52	21302.12
517.722	21255.01
517.925	21726.05
518.127	22053.72
518.329	22141.78
518.531	21955.42
518.733	22309.72
518.935	22735.7
519.136	22416.21
519.338	23192.39
519.54	23268.17
519.742	23223.11
519.944	23280.46
520.146	23925.57
520.348	24005.44
520.55	23796.54
520.752	23917.37
520.954	24601.4
521.155	24374.07
521.357	24374.07
521.559	24816.43
521.761	25062.19
521.963	25004.85
522.164	25488.17
522.366	25348.9
522.568	25815.84
522.77	25867.04
522.971	26172.19
523.173	25768.74
523.375	26250.01
523.576	26401.56
523.778	26182.43
523.98	26682.13
524.181	26897.17
524.383	26723.09
524.584	27020.05
524.786	27190.03
524.988	27140.88
525.189	27972.35
525.391	27661.06
525.592	27843.33
525.794	27833.09
525.995	27955.97
526.197	28039.93
526.398	27874.05
526.6	28267.26
526.801	28553.97
527.003	28887.79
527.204	28592.89
527.406	28766.96
527.607	29141.74
527.808	28877.55
528.01	28646.13
528.211	28863.22
528.412	29623.01
528.614	29076.21
528.815	29299.44
529.016	29301.48
529.218	29526.76
529.419	29639.4
529.62	29596.39
529.822	29301.48
530.023	29332.2
530.224	29895.39
530.425	29463.27
530.626	29668.07
530.828	29469.42
531.029	30405.34
531.23	29375.21
531.431	29846.24
531.632	29981.41
531.833	29922.02
532.035	29915.87
532.236	30063.33
532.437	30307.04
532.638	29960.93
532.839	30304.99
533.04	30284.51
533.241	29915.87
533.442	30286.56
533.643	30448.35
533.844	30231.26
534.045	30421.72
534.246	29899.49
534.447	30298.84
534.648	30132.96
534.849	30487.26
535.05	29975.27
535.251	30530.26
535.451	30135.01
535.652	30200.54
535.853	30384.86
536.054	30464.73
536.255	30485.21
536.456	29985.51
536.657	30417.63
536.857	30300.89
537.058	30106.34
537.259	30683.86
537.46	30700.25
537.66	30282.46
537.861	30427.87
538.062	30440.15
538.263	30221.02
538.463	30145.25
538.664	30163.68
538.865	30337.76
539.065	30663.38
539.266	30268.12
539.466	30802.64
539.667	30157.53
539.868	30702.29
540.068	30579.42
540.269	30227.17
540.469	30810.84
540.67	30278.36
540.87	30388.95
541.071	30280.41
541.271	30298.84
541.472	29657.83
541.672	30239.45
541.873	29999.84
542.073	29901.54
542.274	30536.41
542.474	30178.01
542.675	29676.26
542.875	30272.22
543.075	30350.04
543.276	29827.81
543.476	30405.34
543.676	30030.56
543.877	30354.14
544.077	30345.95
544.277	29952.74
544.478	29950.69
544.678	30212.83
544.878	29752.04
545.078	30061.28
545.279	29952.74
545.479	30173.92
545.679	29983.46
545.879	30132.96
546.079	30282.46
546.28	29928.16
546.48	29475.56
546.68	29903.59
546.88	30175.97
547.08	29881.06
547.28	29893.35
547.48	29952.74
547.68	30048.99
547.88	29883.11
548.081	29969.12
548.281	30173.92
548.481	29631.21
548.681	29950.69
548.881	29848.29
549.081	29715.17
549.28	29856.48
549.48	30040.8
549.68	29461.23
549.88	30089.95
550.08	29985.51
550.28	29735.65
550.48	29522.66
550.68	29913.83
550.88	29510.38
551.08	29573.86
551.279	29944.55
551.479	29668.07
551.679	29854.44
551.879	29606.63
552.079	29774.56
552.278	29604.58
552.478	29637.35
552.678	29915.87
552.878	29684.45
553.077	29676.26
553.277	29553.38
553.477	30077.66
553.676	29586.15
553.876	29471.46
554.076	29123.31
554.275	29580.01
554.475	28938.99
554.674	29582.06
554.874	29342.44
555.074	29010.67
555.273	29629.16
555.473	29473.51
555.672	28990.19
555.872	28949.23
556.071	29305.58
556.271	29313.77
556.47	28973.81
556.67	28865.27
556.869	29358.83
557.068	29145.84
557.268	29031.15
557.467	29127.41
557.667	28881.65
557.866	29090.54
558.065	28910.32
558.265	28781.3
558.464	28832.5
558.663	28996.34
558.863	28289.79
559.062	28984.05
559.261	28547.83
559.461	28789.49
559.66	28525.3
559.859	28785.4
560.058	28437.24
560.258	28709.62
560.457	27970.3
560.656	28695.28
560.855	28359.42
561.054	28535.54
561.253	28046.08
561.453	28580.6
561.652	28248.83
561.851	28506.87
562.05	28359.42
562.249	27908.86
562.448	28363.51
562.647	28056.32
562.846	27964.16
563.045	27953.92
563.244	27478.79
563.443	28199.68
563.642	27538.18
563.841	27828.99
564.04	27394.82
564.239	27998.98
564.438	27439.88
564.637	27679.49
564.836	27779.84
565.035	27357.96
565.234	27108.11
565.432	27261.71
565.631	27405.06
565.83	27364.11
566.029	26718.99
566.228	27450.12
566.427	27255.56
566.625	26960.66
566.824	26579.73
567.023	26995.47
567.222	26630.93
567.42	26774.29
567.619	26622.74
567.818	26587.92
568.016	26262.3
568.215	26745.62
568.414	26428.18
568.612	26555.16
568.811	26440.47
569.01	26628.88
569.208	26225.43
569.407	26385.18
569.605	26082.08
569.804	26114.84
570.002	25760.55
570.201	25807.65
570.4	25914.14
570.598	25645.86
570.797	25846.56
570.995	25559.84
571.193	25416.49
571.392	25895.71
571.59	25369.38
571.789	25506.6
571.987	25490.21
572.186	25299.75
572.384	25426.73
572.582	25525.03
572.781	25535.27
572.979	24765.23
573.177	24941.36
573.376	25309.99
573.574	24836.91
573.772	25000.75
573.971	25015.08
574.169	24798
574.367	24859.44
574.565	24619.83
574.763	24585.01
574.962	24509.24
575.16	24619.83
575.358	24396.6
575.556	23984.96
575.754	24367.93
575.952	24011.58
576.151	24310.58
576.349	24046.4
576.547	23935.81
576.745	24265.53
576.943	23991.1
577.141	23937.85
577.339	23765.82
577.537	23794.5
577.735	23491.4
577.933	23667.52
578.131	23919.42
578.329	23595.84
578.527	23223.11
578.725	23595.84
578.923	23640.9
579.121	23335.75
579.319	22934.35
579.516	23671.62
579.714	23104.33
579.912	23155.53
580.11	22836.05
580.308	22903.63
580.506	22907.73
580.704	22715.22
580.901	22661.97
581.099	22917.96
581.297	22283.09
581.495	22618.96
581.692	22776.66
581.89	22674.26
582.088	22621.01
582.285	22186.84
582.483	22350.68
582.681	22500.18
582.878	22590.29
583.076	21945.18
583.274	22014.81
583.471	21568.35
583.669	21838.69
583.866	21801.82
584.064	22074.2
584.262	21732.19
584.459	21803.87
584.657	21652.32
584.854	21695.33
585.052	21539.68
585.249	21488.48
585.447	21500.77
585.644	21144.42
585.841	21541.73
586.039	21465.96
586.236	21005.16
586.434	21381.99
586.631	20923.24
586.828	21140.33
587.026	21093.22
587.223	20994.92
587.42	20853.61
587.618	20962.15
587.815	20611.95
588.012	20657.01
588.21	20708.21
588.407	20669.3
588.604	20472.69
588.801	20392.82
588.999	20267.89
589.196	20456.31
589.393	20415.35
589.59	20015.99
589.787	20071.29
589.984	20286.33
590.182	19551.1
590.379	20050.81
590.576	20069.24
590.773	20018.04
590.97	19704.7
591.167	19991.42
591.364	19585.92
591.561	19639.17
591.758	19473.28
591.955	19530.62
592.152	19837.82
592.349	19352.45
592.546	19499.91
592.743	19184.52
592.94	19225.48
593.137	19401.6
593.334	19071.88
593.531	19205
593.727	19006.34
593.924	19233.67
594.121	18795.4
594.318	18973.58
594.515	19012.49
594.712	18709.39
594.908	18690.96
595.105	18676.62
595.302	18553.74
595.499	18764.68
595.696	18449.3
595.892	18406.29
596.089	18447.25
596.286	18533.26
596.482	18324.37
596.679	18205.59
596.876	18254.74
597.072	18047.9
597.269	18172.82
597.466	18004.89
597.662	17925.02
597.859	17873.82
598.055	18140.05
598.252	17587.1
598.448	17693.6
598.645	17632.16
598.841	17492.9
599.038	17728.41
599.234	17578.91
599.431	17470.37
599.627	17513.38
599.824	17367.97
600.02	17277.86
600.217	17556.38
600.413	17251.24
600.609	17105.83
600.806	17054.63
601.002	17103.78
601.198	17011.62
601.395	16929.7
601.591	17030.05
601.787	17109.93
601.984	16726.96
602.18	17034.15
602.376	16690.09
602.572	16466.86
602.769	16587.69
602.965	16604.08
603.161	16802.73
603.357	16337.84
603.553	16507.82
603.75	16315.31
603.946	16194.48
604.142	16358.32
604.338	16059.32
604.534	16065.46
604.73	15985.59
604.926	16004.02
605.122	16106.42
605.318	15885.24
605.514	16092.09
605.71	15932.34
605.906	15872.95
606.102	15786.94
606.298	15811.51
606.494	15803.32
606.69	15752.12
606.886	15764.41
607.082	15498.17
607.278	15555.52
607.474	15174.6
607.67	15444.93
607.866	15291.33
608.062	15702.97
608.257	15571.9
608.453	15164.36
608.649	15399.87
608.845	15045.57
609.041	15231.94
609.236	15287.23
609.432	15092.68
609.628	15086.53
609.824	15102.92
610.019	15041.48
610.215	15100.87
610.411	14928.84
610.606	14719.95
610.802	14934.98
610.998	14908.36
611.193	14969.8
611.389	15027.14
611.584	14810.06
611.78	14437.33
611.976	14758.86
612.171	14877.64
612.367	14904.26
612.562	14549.96
612.758	14672.84
612.953	14484.43
613.149	14621.64
613.344	14588.88
613.539	14580.68
613.735	14519.25
613.93	14556.11
614.126	14474.19
614.321	14580.68
614.517	14474.19
614.712	14324.69
614.907	14291.92
615.103	14203.86
615.298	14230.48
615.493	14382.03
615.688	14146.51
615.884	14205.91
616.079	13687.77
616.274	14046.16
616.47	13958.1
616.665	14095.32
616.86	14015.44
617.055	14050.26
617.25	13695.96
617.445	14181.33
617.641	13679.58
617.836	14072.79
618.031	13691.87
618.226	13726.68
618.421	13802.46
618.616	13601.76
618.811	13401.05
619.006	13538.27
619.201	13419.49
619.396	13675.48
619.591	13306.85
619.786	13601.76
619.981	13106.15
620.176	13458.4
620.371	13145.06
620.566	13245.41
620.761	13069.28
620.956	13009.89
621.151	12778.47
621.346	13054.95
621.541	12819.43
621.735	12913.64
621.93	12499.95
622.125	12577.77
622.32	12332.01
622.515	12737.51
622.709	12557.29
622.904	12567.53
623.099	12215.28
623.294	12633.07
623.488	12151.79
623.683	12243.95
623.878	11963.38
624.072	12030.96
624.267	12188.66
624.462	11877.37
624.656	11537.4
624.851	11981.81
625.046	11492.35
625.24	11666.42
625.435	11459.58
625.629	11619.32
625.824	11607.03
626.018	11320.32
626.213	11174.91
626.407	11187.2
626.602	11203.58
626.796	11248.64
626.991	11144.19
627.185	11168.77
627.38	11080.71
627.574	11043.84
627.768	10953.73
627.963	10787.85
628.157	10681.35
628.352	10697.74
628.546	10533.9
628.74	10726.41
628.935	10484.75
629.129	10537.99
629.323	10357.77
629.517	10329.1
629.712	10241.04
629.906	10265.61
630.1	10251.28
630.294	10173.46
630.489	10077.2
630.683	10089.49
630.877	9911.32
631.071	9737.24
631.265	9724.95
631.459	9813.01
631.653	9708.57
631.848	9870.36
632.042	9587.74
632.236	9542.68
632.43	9501.72
632.624	9772.05
632.818	9389.08
633.012	9503.77
633.206	9485.34
633.4	9403.42
633.594	9264.16
633.788	9161.76
633.982	9073.7
634.176	9206.81
634.369	9057.31
634.563	9116.7
634.757	9133.09
634.951	8985.63
635.145	9292.83
635.339	9085.98
635.533	8842.28
635.726	9110.56
635.92	8547.37
636.114	8703.01
636.308	8700.97
636.501	8551.46
636.695	8727.59
636.889	8651.81
637.083	8477.74
637.276	8397.87
637.47	8420.39
637.664	8150.06
637.857	8367.15
638.051	8383.53
638.244	8281.13
638.438	8059.95
638.632	8285.23
638.825	8055.86
639.019	7922.74
639.212	7875.63
639.406	8029.23
639.599	7730.23
639.793	7849.01
639.986	7951.41
640.18	7783.48
640.373	7744.56
640.567	7556.15
640.76	7666.74
640.954	7492.66
641.147	7554.1
641.34	7461.94
641.534	7568.44
641.727	7363.64
641.92	7431.23
642.114	7423.03
642.307	7341.11
642.5	7488.57
642.694	7210.04
642.887	7105.6
643.08	7453.75
643.273	6974.53
643.467	7210.04
643.66	7144.51
643.853	7060.54
644.046	6722.63
644.239	6984.77
644.432	6816.83
644.626	6822.98
644.819	6904.9
645.012	6773.83
645.205	6849.6
645.398	6788.16
645.591	6833.22
645.784	6556.74
645.977	6605.89
646.17	6653
646.363	6423.62
646.556	6376.52
646.749	6474.82
646.942	6364.23
647.135	6419.53
647.328	6321.23
647.521	6437.96
647.714	6413.38
647.907	6323.27
648.099	6216.78
648.292	6100.05
648.485	6077.52
648.678	6128.72
648.871	6028.37
649.064	6220.88
649.256	6181.96
649.449	5944.4
649.642	5915.73
649.835	6075.47
650.027	6024.27
650.22	6030.41
650.413	5813.33
650.605	5919.82
650.798	5825.62
650.991	5719.12
651.183	5819.47
651.376	5631.06
651.568	5528.66
651.761	5702.74
651.954	5639.25
652.146	5504.09
652.339	5577.81
652.531	5612.63
652.724	5565.53
652.916	5473.37
653.109	5268.57
653.301	5360.73
653.494	5307.48
653.686	5268.57
653.879	5350.49
654.071	5268.57
654.263	5356.63
654.456	5127.26
654.648	5282.91
654.84	5262.43
655.033	5151.84
655.225	5137.5
655.417	4916.32
655.61	5098.59
655.802	4908.13
655.994	4977.76
656.186	5129.31
656.379	5108.83
656.571	5020.77
656.763	4865.12
656.955	5010.53
657.148	4955.23
657.34	4932.7
657.532	4717.67
657.724	4711.52
657.916	4684.9
658.108	4836.45
658.3	4711.52
658.492	4547.69
658.684	4590.69
658.876	4668.52
659.068	4662.37
659.26	4699.23
659.452	4594.79
659.644	4422.76
659.836	4512.87
660.028	4537.45
660.22	4396.14
660.412	4531.3
660.604	4295.79
660.796	4342.89
660.988	4406.38
661.18	4293.74
661.372	4357.22
661.563	4226.15
661.755	4226.15
661.947	4242.54
662.139	4263.02
662.331	4168.81
662.522	4119.66
662.714	4160.62
662.906	4129.9
663.097	4170.86
663.289	4170.86
663.481	4052.08
663.673	4107.37
663.864	3898.48
664.056	3884.14
664.247	3931.25
664.439	3931.25
664.631	4134
664.822	3972.21
665.014	3935.34
665.205	3998.83
665.397	3779.7
665.588	3929.2
665.78	3982.45
665.971	3908.72
666.163	3859.57
666.354	3767.41
666.546	3802.22
666.737	3667.06
666.929	3701.87
667.12	3738.74
667.311	3671.15
667.503	3622
667.694	3918.96
667.885	3622
668.077	3611.76
668.268	3646.58
668.459	3554.42
668.651	3531.89
668.842	3558.52
669.033	3579
669.224	3548.28
669.416	3562.61
669.607	3587.19
669.798	3384.44
669.989	3562.61
670.18	3579
670.371	3476.6
670.563	3394.68
670.754	3495.03
670.945	3472.5
671.136	3431.54
671.327	3495.03
671.518	3316.86
671.709	3386.49
671.9	3361.91
672.091	3296.38
672.282	3239.03
672.473	3398.77
672.664	3325.05
672.855	3302.52
673.046	3275.9
673.237	3378.3
673.428	3275.9
673.619	3234.94
673.809	3236.99
674	3228.79
674.191	3146.87
674.382	3187.83
674.573	3239.03
674.764	3138.68
674.954	3128.44
675.145	3163.26
675.336	3079.29
675.527	3124.35
675.717	3050.62
675.908	3030.14
676.099	3107.96
676.289	3114.11
676.48	2970.75
676.671	3083.39
676.861	2972.8
677.052	2952.32
677.243	2978.94
677.433	2931.84
677.624	2931.84
677.814	3097.72
678.005	2976.89
678.195	2923.65
678.386	2966.65
678.576	2882.69
678.767	3009.66
678.957	2993.28
679.148	2966.65
679.338	2940.03
679.529	2911.36
679.719	2974.85
679.909	2841.73
680.1	2843.78
680.29	2958.46
680.481	2782.34
680.671	2858.11
680.861	2911.36
681.052	2892.93
681.242	2768
681.432	2849.92
681.622	2778.24
681.813	2636.93
682.003	2792.58
682.193	2720.9
682.383	2823.3
682.573	2784.38
682.764	2673.79
682.954	2747.52
683.144	2733.18
683.334	2745.47
683.524	2669.7
683.714	2796.67
683.904	2747.52
684.094	2747.52
684.284	2827.39
684.474	2747.52
684.664	2903.17
684.854	2843.78
685.044	2790.53
685.234	2565.25
685.424	2645.12
685.614	2657.41
685.804	2587.78
685.994	2579.59
686.184	2636.93
686.374	2669.7
686.564	2677.89
686.753	2538.63
686.943	2495.62
687.133	2548.87
687.323	2587.78
687.513	2550.92
687.702	2610.31
687.892	2464.9
688.082	2487.43
688.272	2493.57
688.461	2501.76
688.651	2483.33
688.841	2415.75
689.03	2415.75
689.22	2376.84
689.41	2458.76
689.599	2466.95
689.789	2409.61
689.979	2366.6
690.168	2505.86
690.358	2313.35
690.547	2286.73
690.737	2425.99
690.926	2276.49
691.116	2192.52
691.305	2374.79
691.495	2362.5
691.684	2280.58
691.874	2268.3
692.063	2301.06
692.252	2276.49
692.442	2276.49
692.631	2174.09
692.82	2231.43
693.01	2194.57
693.199	2237.58
693.388	2153.61
693.578	2225.29
693.767	2149.51
693.956	2215.05
694.146	2114.7
694.335	2047.12
694.524	2169.99
694.713	2014.35
694.902	2137.23
695.092	2149.51
695.281	2071.69
695.47	2055.31
695.659	2038.92
695.848	2051.21
696.037	2059.4
696.226	2139.27
696.415	2014.35
696.604	2145.42
696.793	2010.25
696.982	2145.42
697.171	1997.96
697.36	2090.12
697.549	1981.58
697.738	2057.36
697.927	2022.54
698.116	1991.82
698.305	2061.45
698.494	1965.2
698.683	2006.16
698.872	2053.26
699.061	1932.43
699.25	1959.05
699.438	1926.29
699.627	1934.48
699.816	2079.88
700.005	1981.58
700.193	2014.35
700.382	1973.39
700.571	1924.24
700.76	1967.24
700.948	1944.72
701.137	1932.43
701.326	1895.57
701.514	1969.29
701.703	1795.22
701.892	1948.81
702.08	1907.85
702.269	1944.72
702.457	1842.32
702.646	1846.41
702.834	1911.95
703.023	1952.91
703.212	1883.28
703.4	1891.47
703.589	1918.09
703.777	1909.9
703.965	1918.09
704.154	1932.43
704.342	1838.22
704.531	1821.84
704.719	1834.13
704.907	1932.43
705.096	1842.32
705.284	1875.09
705.472	1891.47
705.661	1858.7
705.849	1924.24
706.037	1862.8
706.226	1930.38
706.414	1830.03
706.602	1803.41
706.79	1842.32
706.979	1907.85
707.167	1784.98
707.355	1819.79
707.543	1825.93
707.731	1957
707.919	1870.99
708.107	1825.93
708.296	1789.07
708.484	1877.13
708.672	1846.41
708.86	1961.1
709.048	1832.08
709.236	1815.69
709.424	1866.89
709.612	1936.53
709.8	1868.94
709.988	1801.36
710.176	1899.66
710.364	1848.46
710.551	1858.7
710.739	1932.43
710.927	1819.79
711.115	1895.57
711.303	1916.05
711.491	1911.95
711.679	1850.51
711.866	1875.09
712.054	1875.09
712.242	1940.62
712.43	1827.98
712.617	1748.11
712.805	1907.85
712.993	1856.65
713.181	1793.17
713.368	1838.22
713.556	1866.89
713.744	1825.93
713.931	1954.96
714.119	1889.42
714.306	1809.55
714.494	1914
714.682	1891.47
714.869	1852.56
715.057	1868.94
715.244	1825.93
715.432	1899.66
715.619	1897.61
715.807	1967.24
715.994	1805.46
716.182	1971.34
716.369	1844.37
716.556	1969.29
716.744	1782.93
716.931	1862.8
717.119	1811.6
717.306	1776.78
717.493	1899.66
717.681	1948.81
717.868	1866.89
718.055	1830.03
718.242	1883.28
718.43	1897.61
718.617	1879.18
718.804	1932.43
718.991	1887.37
719.179	1909.9
719.366	1940.62
719.553	1850.51
719.74	1836.17
719.927	1875.09
720.114	1918.09
720.301	1793.17
720.488	1729.68
720.676	1836.17
720.863	1932.43
721.05	1862.8
721.237	2038.92
721.424	1932.43
721.611	1928.33
721.798	1850.51
721.985	1879.18
722.172	1911.95
722.358	2047.12
722.545	1844.37
722.732	1842.32
722.919	1895.57
723.106	1924.24
723.293	1791.12
723.48	1862.8
723.667	1911.95
723.853	1954.96
724.04	1868.94
724.227	1850.51
724.414	1965.2
724.6	1866.89
724.787	1875.09
724.974	1942.67
725.161	1887.37
725.347	1934.48
725.534	1780.88
725.72	1897.61
725.907	1997.96
726.094	1887.37
726.28	1891.47
726.467	2036.88
726.653	1911.95
726.84	1862.8
727.027	1997.96
727.213	1901.71
727.4	1875.09
727.586	1924.24
727.773	1813.65
727.959	1946.76
728.145	1901.71
728.332	1860.75
728.518	1858.7
728.705	1997.96
728.891	1952.91
729.077	2012.3
729.264	1817.74
729.45	1965.2
729.636	1830.03
729.823	1834.13
730.009	1918.09
730.195	1877.13
730.382	1977.48
730.568	1987.72
730.754	1907.85
730.94	1967.24
731.126	1848.46
731.313	2022.54
731.499	1957
731.685	1897.61
731.871	1918.09
732.057	1981.58
732.243	2006.16
732.429	1969.29
732.615	1901.71
732.801	1983.63
732.987	1830.03
733.173	1985.68
733.359	1981.58
733.545	1977.48
733.731	1959.05
733.917	1911.95
734.103	1916.05
734.289	1895.57
734.475	1819.79
734.661	1860.75
734.847	1846.41
735.033	1981.58
735.219	1834.13
735.404	1916.05
735.59	1891.47
735.776	1875.09
735.962	1907.85
736.148	1809.55
736.333	1901.71
736.519	1848.46
736.705	1858.7
736.89	1934.48
737.076	1944.72
737.262	1791.12
737.447	1780.88
737.633	1907.85
737.819	1870.99
738.004	1832.08
738.19	1823.89
738.375	1995.92
738.561	1891.47
738.747	1834.13
738.932	1801.36
739.118	1920.14
739.303	1895.57
739.489	1836.17
739.674	1813.65
739.859	1893.52
740.045	1840.27
740.23	1801.36
740.416	1842.32
740.601	1957
740.786	1918.09
740.972	1694.86
741.157	1752.21
741.342	1780.88
741.528	1842.32
741.713	1801.36
741.898	1717.39
742.084	1752.21
742.269	1746.06
742.454	1883.28
742.639	1846.41
742.824	1662.1
743.01	1772.69
743.195	1803.41
743.38	1784.98
743.565	1723.54
743.75	1784.98
743.935	1809.55
744.12	1836.17
744.305	1639.57
744.49	1686.67
744.675	1735.82
744.86	1672.34
745.045	1725.58
745.23	1772.69
745.415	1674.39
745.6	1647.76
745.785	1664.15
745.97	1715.34
746.155	1641.62
746.34	1645.71
746.525	1621.14
746.71	1664.15
746.895	1647.76
747.079	1490.07
747.264	1707.15
747.449	1696.91
747.634	1608.85
747.819	1598.61
748.003	1588.37
748.188	1604.75
748.373	1637.52
748.557	1569.94
748.742	1559.7
748.927	1477.78
749.111	1522.84
749.296	1535.12
749.481	1518.74
749.665	1436.82
749.85	1535.12
750.034	1432.72
750.219	1473.68
750.404	1434.77
750.588	1418.39
750.773	1328.28
750.957	1483.92
751.141	1461.4
751.326	1453.2
751.51	1416.34
751.695	1402.01
751.879	1375.38
752.064	1449.11
752.248	1305.75
752.432	1371.29
752.617	1461.4
752.801	1393.81
752.985	1326.23
753.17	1359
753.354	1322.13
753.538	1336.47
753.722	1352.85
753.907	1287.32
754.091	1291.41
754.275	1256.6
754.459	1236.12
754.643	1264.79
754.828	1295.51
755.012	1180.82
755.196	1170.58
755.38	1189.02
755.564	1217.69
755.748	1227.93
755.932	1166.49
756.116	1301.65
756.3	1180.82
756.484	1213.59
756.668	1199.26
756.852	1158.3
757.036	1229.98
757.22	1146.01
757.404	1137.82
757.588	1131.67
757.772	1148.06
757.956	1264.79
758.14	1029.27
758.323	1059.99
758.507	1098.91
758.691	1068.19
758.875	1055.9
759.059	1115.29
759.242	1100.95
759.426	1117.34
759.61	1023.13
759.794	965.79
759.977	1125.53
760.161	1180.82
760.345	1014.94
760.528	1082.52
760.712	1031.32
760.895	984.22
761.079	986.27
761.263	980.12
761.446	920.73
761.63	1002.65
761.813	945.31
761.997	1100.95
762.18	1031.32
762.364	1006.75
762.547	939.16
762.731	945.31
762.914	949.4
763.098	998.56
763.281	986.27
763.464	935.07
763.648	998.56
763.831	1000.6
764.015	910.49
764.198	1010.84
764.381	1062.04
764.564	920.73
764.748	883.87
764.931	908.44
765.114	883.87
765.297	928.92
765.481	826.53
765.664	898.2
765.847	941.21
766.03	887.97
766.213	900.25
766.397	935.07
766.58	859.29
766.763	847.01
766.946	840.86
767.129	855.2
767.312	847.01
767.495	842.91
767.678	879.77
767.861	857.25
768.044	912.54
768.227	810.14
768.41	760.99
768.593	814.24
768.776	777.37
768.959	879.77
769.142	797.85
769.324	851.1
769.507	763.04
769.69	832.67
769.873	859.29
770.056	812.19
770.239	754.85
770.421	928.92
770.604	732.32
770.787	830.62
770.97	869.53
771.152	789.66
771.335	763.04
771.518	765.09
771.7	781.47
771.883	785.57
772.066	791.71
772.248	728.22
772.431	752.8
772.613	826.53
772.796	777.37
772.978	818.33
773.161	879.77
773.343	662.69
773.526	685.22
773.708	744.61
773.891	732.32
774.073	621.73
774.256	638.11
774.438	769.18
774.621	728.22
774.803	754.85
774.985	734.37
775.168	760.99
775.35	711.84
775.532	658.59
775.715	646.3
775.897	658.59
776.079	693.41
776.261	648.35
776.444	636.06
776.626	631.97
776.808	588.96
776.99	588.96
777.173	681.12
777.355	664.74
777.537	629.92
777.719	646.3
777.901	556.19
778.083	625.83
778.265	568.48
778.447	617.63
778.629	607.39
778.811	556.19
778.993	574.63
779.175	689.31
779.357	619.68
779.539	568.48
779.721	566.43
779.903	625.83
780.085	564.39
780.267	613.54
780.449	543.91
780.631	599.2
780.812	607.39
780.994	509.09
781.176	507.04
781.358	500.9
781.54	533.67
781.721	611.49
781.903	459.94
782.085	519.33
782.267	548
782.448	474.28
782.63	468.13
782.812	498.85
782.993	513.19
783.175	480.42
783.357	494.76
783.538	431.27
783.72	474.28
783.901	509.09
784.083	464.04
784.264	527.52
784.446	425.12
784.627	490.66
784.809	474.28
784.99	388.26
785.172	412.84
785.353	449.7
785.535	330.92
785.716	367.78
785.897	400.55
786.079	421.03
786.26	433.32
786.441	408.74
786.623	375.97
786.804	457.89
786.985	400.55
787.167	410.79
787.348	427.17
787.529	453.8
787.71	470.18
787.891	515.23
788.073	363.69
788.254	388.26
788.435	429.22
788.616	312.49
788.797	443.56
788.978	361.64
789.159	335.01
789.34	371.88
789.522	361.64
789.703	318.63
789.884	367.78
790.065	371.88
790.246	341.16
790.427	322.73
790.607	371.88
790.788	359.59
790.969	289.96
791.15	357.54
791.331	273.57
791.512	337.06
791.693	369.83
791.874	367.78
792.054	363.69
792.235	380.07
792.416	281.77
792.597	326.82
792.778	294.05
792.958	269.48
793.139	322.73
793.32	337.06
793.5	273.57
793.681	326.82
793.862	308.39
794.042	337.06
794.223	330.92
794.404	353.45
794.584	222.38
794.765	265.38
794.945	236.71
795.126	236.71
795.306	318.63
795.487	240.81
795.667	304.29
795.848	322.73
796.028	224.42
796.209	335.01
796.389	304.29
796.57	335.01
796.75	261.29
796.93	261.29
797.111	277.67
797.291	261.29
797.471	259.24
797.652	287.91
797.832	285.86
798.012	267.43
798.192	261.29
798.373	261.29
798.553	201.9
798.733	273.57
798.913	312.49
799.093	296.1
799.274	302.25
799.454	253.09
799.634	244.9
799.814	294.05
799.994	337.06
800.174	249
800.354	212.14
800.534	285.86
800.714	220.33
800.894	279.72
801.074	201.9
801.254	265.38
801.434	212.14
801.614	203.94
801.794	216.23
801.974	801.95
802.154	205.99
802.334	224.42
802.514	216.23
802.693	187.56
802.873	238.76
803.053	265.38
803.233	302.25
803.413	165.03
803.592	195.75
803.772	189.61
803.952	160.94
804.131	171.18
804.311	279.72
804.491	220.33
804.67	240.81
804.85	220.33
805.03	134.31
805.209	162.98
805.389	130.22
805.568	154.79
805.748	169.13
805.928	140.46
806.107	265.38
806.287	230.57
806.466	152.74
806.646	175.27
806.825	257.19
807.004	220.33
807.184	162.98
807.363	212.14
807.543	189.61
807.722	146.6
807.901	167.08
808.081	181.42
808.26	122.02
808.439	238.76
808.619	203.94
808.798	181.42
808.977	126.12
809.156	173.22
809.336	148.65
809.515	195.75
809.694	158.89
809.873	203.94
810.052	203.94
810.231	175.27
810.411	138.41
810.59	197.8
810.769	56.49
810.948	218.28
811.127	134.31
811.306	124.07
811.485	185.51
811.664	210.09
811.843	58.54
812.022	195.75
812.201	85.16
812.38	199.85
812.559	138.41
812.737	144.55
812.916	119.98
813.095	74.92
813.274	160.94
813.453	167.08
813.632	185.51
813.811	187.56
813.989	142.5
814.168	105.64
814.347	95.4
814.526	140.46
814.704	99.5
814.883	132.26
815.062	140.46
815.24	128.17
815.419	122.02
815.598	165.03
815.776	72.87
815.955	154.79
816.133	1.19
816.312	167.08
816.49	144.55
816.669	64.68
816.847	150.7
817.026	101.55
817.204	109.74
817.383	113.83
817.561	89.26
817.74	134.31
817.918	148.65
818.097	76.97
818.275	101.55
818.453	181.42
818.632	156.84
818.81	165.03
818.988	109.74
819.167	83.11
819.345	132.26
819.523	138.41
819.701	130.22
819.879	158.89
820.058	64.68
820.236	58.54
820.414	124.07
820.592	79.02
820.77	99.5
820.948	122.02
821.127	140.46
821.305	142.5
821.483	111.78
821.661	138.41
821.839	15.53
822.017	99.5
822.195	126.12
822.373	97.45
822.551	72.87
822.729	187.56
822.907	97.45
823.085	156.84
823.262	89.26
823.44	60.59
823.618	99.5
823.796	113.83
823.974	126.12
824.152	117.93
824.329	148.65
824.507	74.92
824.685	79.02
824.863	97.45
825.04	62.63
825.218	103.59
825.396	109.74
825.574	138.41
825.751	81.07
825.929	119.98
826.107	17.58
826.284	91.31
826.462	113.83
826.639	60.59
826.817	89.26
826.994	91.31
827.172	66.73
827.349	130.22
827.527	101.55
827.704	109.74
827.882	36.01
828.059	15.53
828.237	99.5
828.414	158.89
828.591	105.64
828.769	97.45
828.946	132.26
829.124	128.17
829.301	40.11
829.478	134.31
829.655	89.26
829.833	72.87
830.01	56.49
830.187	93.35
830.364	91.31
830.542	122.02
830.719	195.75
830.896	54.44
831.073	89.26
831.25	97.45
831.427	99.5
831.604	87.21
831.782	70.83
831.959	89.26
832.136	52.39
832.313	144.55
832.49	64.68
832.667	9.39
832.844	13.48
833.021	171.18
833.198	126.12
833.374	81.07
833.551	72.87
833.728	-0.85
833.905	134.31
834.082	38.06
834.259	79.02
834.436	146.6
834.612	-2.9
834.789	42.15
834.966	52.39
835.143	74.92
835.319	48.3
835.496	54.44
835.673	95.4
835.85	81.07
836.026	134.31
836.203	79.02
836.38	56.49
836.556	42.15
836.733	7.34
836.909	97.45
837.086	40.11
837.262	50.35
837.439	76.97
837.616	40.11
837.792	27.82
837.968	138.41
838.145	56.49
838.321	81.07
838.498	33.96
838.674	113.83
838.851	81.07
839.027	48.3
839.203	95.4
839.38	48.3
839.556	97.45
839.732	132.26
839.909	62.63
840.085	105.64
840.261	56.49
840.437	122.02
840.614	15.53
840.79	72.87
840.966	72.87
841.142	17.58
841.318	60.59
841.494	72.87
841.671	66.73
841.847	36.01
842.023	1.19
842.199	56.49
842.375	56.49
842.551	81.07
842.727	56.49
842.903	76.97
843.079	-0.85
843.255	167.08
843.431	56.49
843.607	126.12
843.783	66.73
843.959	146.6
844.134	13.48
844.31	97.45
844.486	50.35
844.662	44.2
844.838	27.82
845.013	48.3
845.189	93.35
845.365	-21.33
845.541	-17.24
845.716	23.72
845.892	40.11
846.068	-15.19
846.244	44.2
846.419	33.96
846.595	72.87
846.77	48.3
846.946	-25.43
847.122	15.53
847.297	-33.62
847.473	99.5
847.648	46.25
847.824	81.07
847.999	-41.81
848.175	56.49
848.35	79.02
848.526	113.83
848.701	13.48
848.876	36.01
849.052	11.43
849.227	101.55
849.403	15.53
849.578	-58.2
849.753	-7
849.929	27.82
850.104	25.77
850.279	52.39
850.454	9.39
850.63	87.21
850.805	3.24
850.98	7.34
851.155	15.53
851.33	-9.05
851.505	66.73
851.681	115.88
851.856	81.07
852.031	-25.43
852.206	62.63
852.381	-39.76
852.556	105.64
852.731	1.19
852.906	5.29
853.081	91.31
853.256	48.3
853.431	-25.43
853.606	23.72
853.781	17.58
853.956	-31.57
854.131	44.2
854.305	-56.15
854.48	-4.95
854.655	-17.24
854.83	50.35
855.005	48.3
855.18	-9.05
855.354	-54.1
855.529	40.11
855.704	38.06
855.879	23.72
856.053	1.19
856.228	76.97
856.403	-0.85
856.577	3.24
856.752	42.15
856.926	7.34
857.101	31.91
857.276	54.44
857.45	85.16
857.625	42.15
857.799	7.34
857.974	15.53
858.148	-105.3
858.323	40.11
858.497	46.25
858.672	3.24
858.846	19.63
859.02	23.72
859.195	11.43
859.369	40.11
859.543	93.35
859.718	7.34
859.892	74.92
860.066	64.68
860.241	64.68
860.415	19.63
860.589	-45.91
860.763	72.87
860.938	21.67
861.112	81.07
861.286	42.15
861.46	40.11
861.634	-33.62
861.808	40.11
861.982	-4.95
862.157	25.77
862.331	-11.09
862.505	23.72
862.679	33.96
862.853	-37.72
863.027	-7
863.201	105.64
863.375	27.82
863.549	64.68
863.722	89.26
863.896	113.83
864.07	5.29
864.244	33.96
864.418	23.72
864.592	25.77
864.766	76.97
864.939	5.29
865.113	11.43
865.287	-0.85
865.461	-31.57
865.634	36.01
865.808	42.15
865.982	-17.24
866.156	-29.52
866.329	-17.24
866.503	17.58
866.676	19.63
866.85	44.2
867.024	99.5
867.197	40.11
867.371	40.11
867.544	40.11
867.718	11.43
867.891	56.49
868.065	40.11
868.238	-13.14
868.412	81.07
868.585	36.01
868.759	-0.85
868.932	-31.57
869.105	40.11
869.279	38.06
869.452	23.72
869.625	60.59
869.799	15.53
869.972	-29.52
870.145	31.91
870.319	85.16
870.492	40.11
870.665	-17.24
870.838	-17.24
871.011	-84.82
871.185	40.11
871.358	11.43
871.531	74.92
871.704	17.58
871.877	19.63
872.05	48.3
872.223	-45.91
872.396	79.02
872.569	19.63
872.742	-9.05
872.915	81.07
873.088	-39.76
873.261	23.72
873.434	42.15
873.607	7.34
873.78	15.53
873.953	48.3
874.126	50.35
874.299	19.63
874.471	68.78
874.644	-4.95
874.817	23.72
874.99	81.07
875.163	-50
875.335	58.54
875.508	48.3
875.681	33.96
875.853	-15.19
876.026	62.63
876.199	89.26
876.371	72.87
876.544	-56.15
876.717	15.53
876.889	27.82
877.062	74.92
877.234	17.58
877.407	15.53
877.579	-15.19
877.752	11.43
877.924	27.82
878.097	27.82
878.269	25.77
878.442	66.73
878.614	126.12
878.786	23.72
878.959	-31.57
879.131	81.07
879.303	-0.85
879.476	60.59
879.648	33.96
879.82	-23.38
879.993	-54.1
880.165	25.77
880.337	-17.24
880.509	99.5
880.681	31.91
880.854	25.77
881.026	7.34
881.198	33.96
881.37	9.39
881.542	1.19
881.714	-4.95
881.886	25.77
882.058	-21.33
882.23	48.3
882.402	1.19
882.574	50.35
882.746	13.48
882.918	31.91
883.09	27.82
883.262	56.49
883.434	40.11
883.606	-31.57
883.778	-33.62
883.95	70.83
884.122	-7
884.293	46.25
884.465	56.49
884.637	25.77
884.809	23.72
884.98	-0.85
885.152	-15.19
885.324	17.58
885.496	-7
885.667	-68.44
885.839	46.25
886.011	70.83
886.182	-11.09
886.354	40.11
886.525	-17.24
886.697	56.49
886.869	5.29
887.04	9.39
887.212	52.39
887.383	44.2
887.555	19.63
887.726	42.15
887.897	48.3
888.069	15.53
888.24	48.3
888.412	17.58
888.583	25.77
888.754	-9.05
888.926	15.53
889.097	-23.38
889.268	1.19
889.44	50.35
889.611	42.15
889.782	5.29
889.953	50.35
890.125	58.54
890.296	-39.76
890.467	11.43
890.638	48.3
890.809	-64.34
890.98	-4.95
891.151	33.96
891.323	58.54
891.494	44.2
891.665	25.77
891.836	15.53
892.007	-4.95
892.178	36.01
892.349	-17.24
892.52	3.24
892.691	7.34
892.862	-50
893.032	-9.05
893.203	40.11
893.374	19.63
893.545	40.11
893.716	21.67
893.887	60.59
894.057	-29.52
894.228	-7
894.399	-90.96
894.57	7.34
894.74	-2.9
894.911	23.72
895.082	-0.85
895.253	31.91
895.423	-23.38
895.594	64.68
895.764	-21.33
895.935	7.34
896.106	1.19
896.276	-56.15
896.447	68.78
896.617	-0.85
896.788	-17.24
896.958	33.96
897.129	7.34
897.299	11.43
897.47	33.96
897.64	33.96
897.81	50.35
897.981	64.68
898.151	-17.24
898.322	40.11
898.492	60.59
898.662	31.91
898.832	40.11
899.003	7.34
899.173	48.3
899.343	-9.05
899.513	-52.05
