Data from USB4F104151__270__14-46-06-838.txt Node

Date: Thu Mar 13 14:46:06 EDT 2025
User: louis
Spectrometer: USB4F10415
Trigger mode: 4
Integration Time (sec): 2.000000E-2
Scans to average: 1
Electric dark correction enabled: true
Nonlinearity correction enabled: false
Boxcar width: 0
XAxis mode: Wavelengths
Number of Pixels in Spectrum: 3648
>>>>>Begin Spectral Data<<<<<
178.204	-60.24
178.424	-60.24
178.644	-60.24
178.864	-142.16
179.084	-62.29
179.304	-74.58
179.524	58.54
179.744	-15.19
179.964	7.34
180.184	-17.24
180.404	-17.24
180.624	52.39
180.844	19.63
181.064	-70.48
181.283	21.67
181.503	13.48
181.723	21.67
181.943	-17.24
182.163	-0.85
182.383	-27.48
182.602	44.2
182.822	119.98
183.042	42.15
183.262	7.34
183.482	72.87
183.701	60.59
183.921	-2.9
184.141	-0.85
184.361	54.44
184.58	19.63
184.8	76.97
185.02	3.24
185.239	52.39
185.459	-37.72
185.679	76.97
185.898	52.39
186.118	109.74
186.338	19.63
186.557	36.01
186.777	-7
186.997	-4.95
187.216	-27.48
187.436	3.24
187.655	81.07
187.875	81.07
188.095	68.78
188.314	56.49
188.534	107.69
188.753	60.59
188.973	36.01
189.192	21.67
189.412	13.48
189.631	-35.67
189.851	-25.43
190.07	122.02
190.29	62.63
190.509	27.82
190.729	52.39
190.948	76.97
191.168	136.36
191.387	52.39
191.607	52.39
191.826	-4.95
192.045	83.11
192.265	11.43
192.484	68.78
192.704	29.87
192.923	-45.91
193.142	103.59
193.362	33.96
193.581	101.55
193.8	64.68
194.02	19.63
194.239	46.25
194.458	27.82
194.678	25.77
194.897	48.3
195.116	19.63
195.335	70.83
195.555	5.29
195.774	11.43
195.993	64.68
196.212	-9.05
196.432	23.72
196.651	68.78
196.87	9.39
197.089	134.31
197.308	40.11
197.528	38.06
197.747	23.72
197.966	64.68
198.185	113.83
198.404	93.35
198.623	103.59
198.842	54.44
199.062	142.5
199.281	117.93
199.5	-9.05
199.719	76.97
199.938	56.49
200.157	74.92
200.376	76.97
200.595	23.72
200.814	3.24
201.033	44.2
201.252	64.68
201.471	46.25
201.69	85.16
201.909	52.39
202.128	68.78
202.347	-17.24
202.566	13.48
202.785	27.82
203.004	-2.9
203.223	72.87
203.442	3.24
203.661	81.07
203.879	68.78
204.098	117.93
204.317	19.63
204.536	46.25
204.755	33.96
204.974	95.4
205.193	56.49
205.411	-11.09
205.63	52.39
205.849	60.59
206.068	3.24
206.287	42.15
206.505	68.78
206.724	76.97
206.943	68.78
207.162	85.16
207.381	27.82
207.599	76.97
207.818	17.58
208.037	40.11
208.255	23.72
208.474	42.15
208.693	23.72
208.911	52.39
209.13	-9.05
209.349	99.5
209.567	95.4
209.786	44.2
210.005	48.3
210.223	48.3
210.442	31.91
210.661	38.06
210.879	-0.85
211.098	31.91
211.316	54.44
211.535	64.68
211.753	72.87
211.972	27.82
212.191	-66.39
212.409	44.2
212.628	-35.67
212.846	-4.95
213.065	56.49
213.283	29.87
213.502	-4.95
213.72	64.68
213.938	-2.9
214.157	60.59
214.375	42.15
214.594	76.97
214.812	11.43
215.031	-4.95
215.249	-13.14
215.467	52.39
215.686	58.54
215.904	44.2
216.122	89.26
216.341	58.54
216.559	11.43
216.778	70.83
216.996	150.7
217.214	36.01
217.432	31.91
217.651	52.39
217.869	85.16
218.087	31.91
218.306	27.82
218.524	-29.52
218.742	5.29
218.96	7.34
219.179	52.39
219.397	27.82
219.615	87.21
219.833	27.82
220.051	13.48
220.27	79.02
220.488	117.93
220.706	54.44
220.924	40.11
221.142	11.43
221.36	72.87
221.578	111.78
221.796	15.53
222.015	117.93
222.233	46.25
222.451	40.11
222.669	60.59
222.887	52.39
223.105	-37.72
223.323	56.49
223.541	54.44
223.759	105.64
223.977	-21.33
224.195	117.93
224.413	109.74
224.631	79.02
224.849	11.43
225.067	109.74
225.285	11.43
225.503	64.68
225.721	70.83
225.939	111.78
226.157	27.82
226.375	87.21
226.592	-2.9
226.81	97.45
227.028	27.82
227.246	76.97
227.464	97.45
227.682	70.83
227.9	152.74
228.117	72.87
228.335	13.48
228.553	48.3
228.771	13.48
228.989	72.87
229.206	29.87
229.424	76.97
229.642	15.53
229.86	27.82
230.077	111.78
230.295	23.72
230.513	91.31
230.731	56.49
230.948	48.3
231.166	91.31
231.384	21.67
231.601	11.43
231.819	101.55
232.037	117.93
232.254	48.3
232.472	13.48
232.689	27.82
232.907	-19.29
233.125	3.24
233.342	27.82
233.56	-9.05
233.777	97.45
233.995	40.11
234.213	5.29
234.43	46.25
234.648	54.44
234.865	3.24
235.083	-15.19
235.3	27.82
235.518	44.2
235.735	52.39
235.953	19.63
236.17	-13.14
236.388	48.3
236.605	31.91
236.822	15.53
237.04	-17.24
237.257	29.87
237.475	40.11
237.692	27.82
237.909	56.49
238.127	79.02
238.344	95.4
238.562	38.06
238.779	13.48
238.996	7.34
239.214	-45.91
239.431	70.83
239.648	21.67
239.865	72.87
240.083	76.97
240.3	52.39
240.517	48.3
240.735	36.01
240.952	50.35
241.169	95.4
241.386	-17.24
241.603	52.39
241.821	36.01
242.038	97.45
242.255	48.3
242.472	-13.14
242.689	109.74
242.907	101.55
243.124	-4.95
243.341	68.78
243.558	3.24
243.775	111.78
243.992	-29.52
244.209	126.12
244.426	87.21
244.643	23.72
244.86	36.01
245.078	3.24
245.295	68.78
245.512	29.87
245.729	19.63
245.946	76.97
246.163	15.53
246.38	21.67
246.597	91.31
246.814	-29.52
247.031	25.77
247.248	21.67
247.464	40.11
247.681	40.11
247.898	68.78
248.115	91.31
248.332	-9.05
248.549	72.87
248.766	70.83
248.983	85.16
249.2	-0.85
249.417	132.26
249.633	19.63
249.85	109.74
250.067	42.15
250.284	79.02
250.501	62.63
250.717	85.16
250.934	-35.67
251.151	11.43
251.368	56.49
251.585	85.16
251.801	38.06
252.018	-13.14
252.235	56.49
252.451	60.59
252.668	54.44
252.885	7.34
253.102	79.02
253.318	13.48
253.535	7.34
253.752	3.24
253.968	15.53
254.185	-13.14
254.401	79.02
254.618	44.2
254.835	36.01
255.051	74.92
255.268	79.02
255.484	13.48
255.701	31.91
255.917	111.78
256.134	52.39
256.351	62.63
256.567	-0.85
256.784	54.44
257	38.06
257.217	109.74
257.433	38.06
257.65	87.21
257.866	33.96
258.082	19.63
258.299	87.21
258.515	54.44
258.732	136.36
258.948	58.54
259.165	85.16
259.381	-11.09
259.597	7.34
259.814	31.91
260.03	68.78
260.246	44.2
260.463	54.44
260.679	70.83
260.895	62.63
261.112	138.41
261.328	-60.24
261.544	13.48
261.761	85.16
261.977	72.87
262.193	-4.95
262.409	177.32
262.626	23.72
262.842	130.22
263.058	42.15
263.274	36.01
263.49	74.92
263.707	1.19
263.923	-60.24
264.139	44.2
264.355	93.35
264.571	101.55
264.787	38.06
265.004	3.24
265.22	5.29
265.436	89.26
265.652	21.67
265.868	52.39
266.084	9.39
266.3	31.91
266.516	62.63
266.732	93.35
266.948	52.39
267.164	64.68
267.38	91.31
267.596	17.58
267.812	52.39
268.028	-17.24
268.244	19.63
268.46	42.15
268.676	48.3
268.892	38.06
269.108	23.72
269.324	-78.68
269.54	5.29
269.756	-0.85
269.972	1.19
270.188	11.43
270.403	-11.09
270.619	-13.14
270.835	89.26
271.051	48.3
271.267	79.02
271.483	42.15
271.698	101.55
271.914	31.91
272.13	105.64
272.346	-13.14
272.562	40.11
272.777	134.31
272.993	-37.72
273.209	54.44
273.425	52.39
273.64	60.59
273.856	40.11
274.072	83.11
274.287	31.91
274.503	19.63
274.719	119.98
274.934	105.64
275.15	46.25
275.366	-54.1
275.581	-72.53
275.797	62.63
276.012	29.87
276.228	46.25
276.444	85.16
276.659	52.39
276.875	-29.52
277.09	83.11
277.306	44.2
277.521	11.43
277.737	46.25
277.952	101.55
278.168	-4.95
278.383	109.74
278.599	-27.48
278.814	3.24
279.03	60.59
279.245	111.78
279.461	48.3
279.676	62.63
279.892	23.72
280.107	89.26
280.322	-9.05
280.538	58.54
280.753	76.97
280.969	-86.87
281.184	44.2
281.399	103.59
281.615	36.01
281.83	46.25
282.045	19.63
282.26	11.43
282.476	99.5
282.691	74.92
282.906	85.16
283.122	21.67
283.337	54.44
283.552	109.74
283.767	46.25
283.983	42.15
284.198	76.97
284.413	21.67
284.628	48.3
284.843	62.63
285.058	169.13
285.274	-7
285.489	1.19
285.704	68.78
285.919	50.35
286.134	48.3
286.349	-13.14
286.564	29.87
286.779	138.41
286.995	15.53
287.21	11.43
287.425	15.53
287.64	19.63
287.855	29.87
288.07	7.34
288.285	107.69
288.5	56.49
288.715	68.78
288.93	-13.14
289.145	40.11
289.36	52.39
289.575	40.11
289.79	56.49
290.004	52.39
290.219	44.2
290.434	68.78
290.649	76.97
290.864	93.35
291.079	38.06
291.294	115.88
291.509	36.01
291.724	38.06
291.938	40.11
292.153	68.78
292.368	19.63
292.583	56.49
292.798	70.83
293.012	79.02
293.227	60.59
293.442	3.24
293.657	87.21
293.871	85.16
294.086	134.31
294.301	76.97
294.516	38.06
294.73	13.48
294.945	11.43
295.16	56.49
295.374	64.68
295.589	101.55
295.804	-39.76
296.018	64.68
296.233	64.68
296.447	11.43
296.662	44.2
296.877	27.82
297.091	40.11
297.306	38.06
297.52	48.3
297.735	76.97
297.949	70.83
298.164	62.63
298.378	74.92
298.593	62.63
298.807	-17.24
299.022	-17.24
299.236	146.6
299.451	-37.72
299.665	62.63
299.88	46.25
300.094	-4.95
300.309	38.06
300.523	52.39
300.737	64.68
300.952	3.24
301.166	85.16
301.381	142.5
301.595	23.72
301.809	111.78
302.024	68.78
302.238	54.44
302.452	46.25
302.667	19.63
302.881	109.74
303.095	122.02
303.309	60.59
303.524	81.07
303.738	62.63
303.952	44.2
304.166	33.96
304.381	11.43
304.595	117.93
304.809	-37.72
305.023	68.78
305.237	19.63
305.452	87.21
305.666	27.82
305.88	81.07
306.094	128.17
306.308	109.74
306.522	76.97
306.736	46.25
306.95	44.2
307.164	19.63
307.379	25.77
307.593	134.31
307.807	36.01
308.021	60.59
308.235	117.93
308.449	50.35
308.663	68.78
308.877	85.16
309.091	52.39
309.305	81.07
309.519	5.29
309.733	150.7
309.947	44.2
310.161	60.59
310.374	-15.19
310.588	117.93
310.802	50.35
311.016	36.01
311.23	-35.67
311.444	40.11
311.658	93.35
311.872	109.74
312.085	1.19
312.299	44.2
312.513	31.91
312.727	76.97
312.941	-27.48
313.154	85.16
313.368	60.59
313.582	-13.14
313.796	74.92
314.009	11.43
314.223	85.16
314.437	52.39
314.651	87.21
314.864	68.78
315.078	-13.14
315.292	29.87
315.505	-0.85
315.719	87.21
315.933	-45.91
316.146	23.72
316.36	87.21
316.573	27.82
316.787	-4.95
317.001	105.64
317.214	52.39
317.428	93.35
317.641	19.63
317.855	79.02
318.068	44.2
318.282	60.59
318.495	109.74
318.709	3.24
318.922	38.06
319.136	101.55
319.349	87.21
319.563	46.25
319.776	101.55
319.99	25.77
320.203	93.35
320.417	27.82
320.63	93.35
320.843	56.49
321.057	36.01
321.27	68.78
321.483	60.59
321.697	134.31
321.91	31.91
322.124	60.59
322.337	70.83
322.55	52.39
322.763	64.68
322.977	62.63
323.19	11.43
323.403	101.55
323.617	19.63
323.83	93.35
324.043	62.63
324.256	-2.9
324.469	29.87
324.683	31.91
324.896	48.3
325.109	66.73
325.322	-0.85
325.535	70.83
325.748	9.39
325.962	44.2
326.175	38.06
326.388	46.25
326.601	60.59
326.814	-4.95
327.027	85.16
327.24	83.11
327.453	-23.38
327.666	33.96
327.879	13.48
328.092	140.46
328.305	-19.29
328.518	81.07
328.731	36.01
328.944	50.35
329.157	38.06
329.37	27.82
329.583	87.21
329.796	146.6
330.009	-29.52
330.222	117.93
330.435	38.06
330.648	31.91
330.861	95.4
331.073	54.44
331.286	191.66
331.499	66.73
331.712	40.11
331.925	3.24
332.138	36.01
332.35	58.54
332.563	52.39
332.776	160.94
332.989	-27.48
333.202	83.11
333.414	-0.85
333.627	52.39
333.84	-62.29
334.053	38.06
334.265	-21.33
334.478	38.06
334.691	85.16
334.903	13.48
335.116	40.11
335.329	101.55
335.541	56.49
335.754	68.78
335.966	-19.29
336.179	29.87
336.392	68.78
336.604	23.72
336.817	113.83
337.029	85.16
337.242	29.87
337.454	101.55
337.667	19.63
337.88	85.16
338.092	105.64
338.305	70.83
338.517	-52.05
338.729	40.11
338.942	60.59
339.154	70.83
339.367	-29.52
339.579	103.59
339.792	60.59
340.004	95.4
340.217	36.01
340.429	7.34
340.641	7.34
340.854	42.15
341.066	52.39
341.278	79.02
341.491	93.35
341.703	58.54
341.915	19.63
342.128	87.21
342.34	42.15
342.552	87.21
342.764	76.97
342.977	38.06
343.189	81.07
343.401	44.2
343.613	38.06
343.826	44.2
344.038	-2.9
344.25	52.39
344.462	50.35
344.674	70.83
344.886	79.02
345.099	38.06
345.311	101.55
345.523	27.82
345.735	19.63
345.947	103.59
346.159	29.87
346.371	-72.53
346.583	60.59
346.795	95.4
347.007	62.63
347.219	158.89
347.431	7.34
347.643	89.26
347.855	44.2
348.067	64.68
348.279	-21.33
348.491	68.78
348.703	60.59
348.915	72.87
349.127	27.82
349.339	107.69
349.551	74.92
349.763	74.92
349.975	76.97
350.187	107.69
350.399	79.02
350.61	54.44
350.822	11.43
351.034	101.55
351.246	42.15
351.458	-9.05
351.669	15.53
351.881	119.98
352.093	36.01
352.305	42.15
352.517	109.74
352.728	126.12
352.94	36.01
353.152	76.97
353.363	36.01
353.575	103.59
353.787	95.4
353.999	54.44
354.21	119.98
354.422	36.01
354.633	83.11
354.845	105.64
355.057	66.73
355.268	81.07
355.48	103.59
355.692	64.68
355.903	27.82
356.115	105.64
356.326	-9.05
356.538	-17.24
356.749	72.87
356.961	79.02
357.172	36.01
357.384	15.53
357.595	93.35
357.807	60.59
358.018	-9.05
358.23	42.15
358.441	68.78
358.653	15.53
358.864	36.01
359.075	19.63
359.287	105.64
359.498	60.59
359.709	31.91
359.921	44.2
360.132	74.92
360.344	97.45
360.555	31.91
360.766	70.83
360.977	23.72
361.189	56.49
361.4	76.97
361.611	122.02
361.823	111.78
362.034	122.02
362.245	58.54
362.456	27.82
362.667	76.97
362.879	11.43
363.09	60.59
363.301	38.06
363.512	13.48
363.723	-21.33
363.935	103.59
364.146	130.22
364.357	60.59
364.568	105.64
364.779	142.5
364.99	66.73
365.201	58.54
365.412	38.06
365.623	42.15
365.834	79.02
366.045	70.83
366.256	54.44
366.467	50.35
366.678	-27.48
366.889	85.16
367.1	56.49
367.311	-13.14
367.522	29.87
367.733	21.67
367.944	44.2
368.155	23.72
368.366	29.87
368.577	60.59
368.788	31.91
368.999	-25.43
369.209	79.02
369.42	146.6
369.631	36.01
369.842	62.63
370.053	101.55
370.264	99.5
370.474	-21.33
370.685	33.96
370.896	23.72
371.107	107.69
371.317	38.06
371.528	31.91
371.739	70.83
371.95	44.2
372.16	81.07
372.371	46.25
372.582	50.35
372.792	52.39
373.003	31.91
373.214	27.82
373.424	52.39
373.635	23.72
373.846	76.97
374.056	128.17
374.267	74.92
374.477	81.07
374.688	111.78
374.898	13.48
375.109	58.54
375.319	-29.52
375.53	126.12
375.74	50.35
375.951	40.11
376.161	7.34
376.372	130.22
376.582	27.82
376.793	42.15
377.003	-11.09
377.214	76.97
377.424	15.53
377.635	60.59
377.845	31.91
378.055	109.74
378.266	31.91
378.476	33.96
378.686	44.2
378.897	97.45
379.107	109.74
379.317	36.01
379.528	1.19
379.738	97.45
379.948	85.16
380.158	109.74
380.369	105.64
380.579	72.87
380.789	-0.85
380.999	97.45
381.21	56.49
381.42	103.59
381.63	76.97
381.84	72.87
382.05	128.17
382.261	68.78
382.471	93.35
382.681	52.39
382.891	58.54
383.101	83.11
383.311	107.69
383.521	13.48
383.731	109.74
383.941	38.06
384.151	21.67
384.361	179.37
384.571	91.31
384.781	52.39
384.991	38.06
385.201	150.7
385.411	68.78
385.621	109.74
385.831	44.2
386.041	50.35
386.251	72.87
386.461	87.21
386.671	148.65
386.881	72.87
387.091	36.01
387.301	60.59
387.511	46.25
387.72	76.97
387.93	119.98
388.14	-23.38
388.35	27.82
388.56	93.35
388.769	138.41
388.979	60.59
389.189	25.77
389.399	85.16
389.609	60.59
389.818	89.26
390.028	-9.05
390.238	136.36
390.447	-27.48
390.657	109.74
390.867	48.3
391.076	103.59
391.286	89.26
391.496	72.87
391.705	134.31
391.915	134.31
392.125	128.17
392.334	113.83
392.544	83.11
392.753	113.83
392.963	-4.95
393.172	48.3
393.382	109.74
393.591	91.31
393.801	62.63
394.01	101.55
394.22	142.5
394.429	93.35
394.639	76.97
394.848	162.98
395.058	95.4
395.267	44.2
395.477	87.21
395.686	48.3
395.895	142.5
396.105	132.26
396.314	117.93
396.524	142.5
396.733	95.4
396.942	158.89
397.152	76.97
397.361	74.92
397.57	103.59
397.78	76.97
397.989	97.45
398.198	70.83
398.407	103.59
398.617	101.55
398.826	175.27
399.035	52.39
399.244	79.02
399.453	89.26
399.663	79.02
399.872	113.83
400.081	132.26
400.29	87.21
400.499	79.02
400.708	21.67
400.917	117.93
401.127	48.3
401.336	79.02
401.545	199.85
401.754	42.15
401.963	101.55
402.172	101.55
402.381	58.54
402.59	95.4
402.799	134.31
403.008	60.59
403.217	126.12
403.426	60.59
403.635	76.97
403.844	74.92
404.053	101.55
404.262	105.64
404.471	185.51
404.68	119.98
404.888	134.31
405.097	111.78
405.306	128.17
405.515	144.55
405.724	177.32
405.933	165.03
406.142	126.12
406.35	167.08
406.559	101.55
406.768	119.98
406.977	269.48
407.185	208.04
407.394	191.66
407.603	162.98
407.812	177.32
408.02	150.7
408.229	109.74
408.438	230.57
408.646	158.89
408.855	197.8
409.064	287.91
409.272	228.52
409.481	208.04
409.69	220.33
409.898	179.37
410.107	265.38
410.315	218.28
410.524	234.66
410.733	273.57
410.941	300.2
411.15	339.11
411.358	298.15
411.567	339.11
411.775	292.01
411.984	310.44
412.192	349.35
412.401	267.43
412.609	400.55
412.818	464.04
413.026	404.64
413.234	371.88
413.443	353.45
413.651	406.69
413.86	455.84
414.068	470.18
414.276	554.15
414.485	502.95
414.693	531.62
414.901	586.91
415.11	572.58
415.318	529.57
415.526	568.48
415.734	519.33
415.943	576.67
416.151	693.41
416.359	625.83
416.567	677.02
416.776	666.78
416.984	779.42
417.192	818.33
417.4	765.09
417.608	734.37
417.817	775.33
418.025	863.39
418.233	892.06
418.441	797.85
418.649	910.49
418.857	945.31
419.065	957.6
419.273	896.16
419.481	1078.43
419.689	1035.42
419.897	1094.81
420.105	1113.24
420.313	1285.27
420.521	1189.02
420.729	1330.33
420.937	1324.18
421.145	1361.05
421.353	1410.2
421.561	1463.44
421.769	1555.6
421.977	1725.58
422.185	1600.66
422.393	1662.1
422.601	1696.91
422.809	1713.3
423.017	1717.39
423.224	1789.07
423.432	2059.4
423.64	1930.38
423.848	2190.47
424.056	2047.12
424.263	2249.86
424.471	2208.9
424.679	2264.2
424.887	2372.74
425.094	2368.65
425.302	2339.97
425.51	2632.83
425.718	2692.23
425.925	2571.4
426.133	2714.75
426.341	2942.08
426.548	2944.13
426.756	3101.82
426.964	3042.43
427.171	3214.46
427.379	3218.55
427.586	3255.42
427.794	3341.43
428.001	3501.17
428.209	3681.39
428.417	3708.02
428.624	3869.81
428.832	3904.62
429.039	3822.7
429.247	4009.07
429.454	4232.3
429.662	4494.44
429.869	4338.79
430.076	4359.27
430.284	4426.86
430.491	4658.28
430.699	4795.49
430.906	4754.53
431.114	4863.07
431.321	4994.14
431.528	5338.2
431.736	5606.49
431.943	5680.21
432.15	5727.32
432.358	5729.36
432.565	5989.46
432.772	5999.7
432.979	6165.58
433.187	6417.48
433.394	6206.54
433.601	6806.59
433.808	6859.84
434.016	6698.05
434.223	6908.99
434.43	7371.83
434.637	7558.2
434.844	7705.65
435.052	7883.83
435.259	7916.59
435.466	7928.88
435.673	7990.32
435.88	8404.01
436.087	8899.62
436.294	8715.3
436.501	8469.55
436.708	8948.77
436.915	9049.12
437.122	9640.98
437.329	9475.1
437.537	9677.85
437.743	9853.97
437.95	9774.1
438.157	10374.16
438.364	10570.76
438.571	10564.62
438.778	10775.56
438.985	11844.6
439.192	11461.63
439.399	11754.49
439.606	11305.98
439.813	12104.69
440.02	12934.12
440.227	12571.63
440.433	12393.45
440.64	12829.67
440.847	12678.12
441.054	13063.14
441.261	13919.19
441.467	13810.65
441.674	14033.88
441.881	14367.7
442.088	14441.42
442.294	14521.29
442.501	14656.46
442.708	15041.48
442.914	15612.86
443.121	16237.49
443.328	15877.05
443.534	16800.68
443.741	16444.34
443.948	16165.81
444.154	17359.78
444.361	17378.21
444.568	17599.39
444.774	17611.68
444.981	17726.36
445.187	18353.04
445.394	18887.56
445.6	18541.46
445.807	20534.13
446.013	19495.81
446.22	19805.05
446.426	20595.57
446.633	21138.28
446.839	21764.96
447.046	20700.01
447.252	21994.33
447.459	21838.69
447.665	21934.94
447.871	22612.82
448.078	23604.03
448.284	22758.22
448.491	23137.1
448.697	23978.81
448.903	24628.02
449.11	24589.11
449.316	24347.45
449.522	24898.35
449.728	25486.12
449.935	25666.34
450.141	25537.32
450.347	26225.43
450.553	25467.69
450.76	25697.06
450.966	26364.7
451.172	26258.2
451.378	26997.52
451.584	26626.84
451.791	27577.09
451.997	27212.56
452.203	27503.37
452.409	27804.42
452.615	27390.73
452.821	26252.06
453.027	26266.39
453.233	27273.99
453.44	26620.69
453.646	26856.21
453.852	27007.76
454.058	27783.94
454.264	26895.12
454.47	27228.94
454.676	26841.87
454.882	27456.26
455.088	25324.33
455.294	25611.04
455.5	26164
455.705	26252.06
455.911	25084.72
456.117	24959.79
456.323	24513.33
456.529	23210.82
456.735	24216.38
456.941	23585.6
457.147	23393.09
457.352	22731.6
457.558	22541.14
457.764	22559.57
457.97	22133.59
458.176	21980
458.381	21625.7
458.587	20444.02
458.793	20401.01
458.999	19544.96
459.204	21046.12
459.41	20503.41
459.616	19051.4
459.821	18893.71
460.027	19084.17
460.233	18344.85
460.438	17750.94
460.644	17750.94
460.85	16993.19
461.055	16759.72
461.261	16823.21
461.466	15723.45
461.672	15051.72
461.878	16174
462.083	14894.02
462.289	14773.19
462.494	14773.19
462.7	13997.01
462.905	13695.96
463.111	14197.71
463.316	14410.7
463.522	13915.09
463.727	13923.29
463.932	13898.71
464.138	13849.56
464.343	13716.44
464.549	13290.46
464.754	13951.96
464.959	13611.99
465.165	13671.39
465.37	13050.85
465.575	12925.93
465.781	13351.9
465.986	13212.64
466.191	12854.25
466.397	12622.83
466.602	11871.22
466.807	12581.87
467.012	12284.91
467.218	12286.96
467.423	12133.36
467.628	12153.84
467.833	12663.79
468.038	12276.72
468.244	12049.39
468.449	12547.05
468.654	12112.88
468.859	11979.76
469.064	11822.07
469.269	11375.61
469.474	11449.34
469.679	11813.88
469.885	11320.32
470.09	11672.57
470.295	11551.74
470.5	11355.13
470.705	11371.52
470.91	11047.94
471.115	10972.16
471.32	11017.22
471.525	11400.19
471.73	10939.4
471.935	10740.74
472.139	10636.3
472.344	10566.67
472.549	10626.06
472.754	10333.2
472.959	10284.05
473.164	9720.85
473.369	9899.03
473.574	10226.7
473.778	10120.21
473.983	9993.23
474.188	9972.75
474.393	9409.56
474.598	9505.82
474.802	9540.63
475.007	9452.57
475.212	9411.61
475.417	9329.69
475.621	8993.83
475.826	9100.32
476.031	8911.91
476.235	8926.24
476.44	8834.08
476.645	8719.4
476.849	8795.17
477.054	8707.11
477.259	8391.72
477.463	8473.64
477.668	8287.28
477.872	8463.4
478.077	8145.97
478.282	8168.49
478.486	7928.88
478.691	7937.07
478.895	7885.87
479.1	7867.44
479.304	7881.78
479.509	7699.51
479.713	7781.43
479.918	7656.5
480.122	7488.57
480.326	7656.5
480.531	7625.78
480.735	7607.35
480.94	7347.26
481.144	7679.03
481.348	7240.76
481.553	7482.42
481.757	7261.24
481.961	7242.81
482.166	7400.51
482.37	7429.18
482.574	7236.67
482.778	7226.43
482.983	7521.34
483.187	7302.2
483.391	7255.1
483.595	7246.91
483.8	7167.04
484.004	7234.62
484.208	7312.44
484.412	7345.21
484.616	7392.31
484.821	7402.55
485.025	7078.97
485.229	7474.23
485.433	7220.28
485.637	7273.53
485.841	7236.67
486.045	7449.66
486.249	7265.34
486.453	7162.94
486.657	7236.67
486.861	7310.4
487.065	7042.11
487.269	7318.59
487.473	7179.33
487.677	7507
487.881	7461.94
488.085	7117.89
488.289	7220.28
488.493	7269.44
488.697	7367.74
488.901	7451.7
489.105	7533.62
489.309	7365.69
489.512	7451.7
489.716	7380.03
489.92	7488.57
490.124	7246.91
490.328	7343.16
490.531	7304.25
490.735	7588.92
490.939	7492.66
491.143	7531.58
491.346	7423.03
491.55	7760.95
491.754	7576.63
491.958	7574.58
492.161	7572.54
492.365	7724.08
492.569	7783.48
492.772	7857.2
492.976	7900.21
493.18	7781.43
493.383	7978.03
493.587	8014.9
493.79	8006.7
493.994	8115.25
494.197	7949.36
494.401	8129.58
494.605	8107.05
494.808	8145.97
495.012	8289.32
495.215	8401.96
495.419	8420.39
495.622	8428.59
495.825	8436.78
496.029	8383.53
496.232	8756.26
496.436	8494.12
496.639	8928.29
496.843	8498.22
497.046	9098.27
497.249	9194.53
497.453	9020.45
497.656	9215.01
497.859	9157.66
498.063	9413.66
498.266	9702.42
498.469	9593.88
498.673	9690.13
498.876	9679.89
499.079	9800.73
499.282	10091.54
499.485	10030.1
499.689	10089.49
499.892	10230.8
500.095	10441.74
500.298	10546.19
500.501	10558.47
500.705	10808.33
500.908	11097.09
501.111	11000.83
501.314	11138.05
501.517	11211.78
501.72	11418.62
501.923	11400.19
502.126	11535.35
502.329	12073.97
502.532	11856.89
502.735	12065.78
502.938	12221.42
503.141	12264.43
503.344	12458.99
503.547	12385.26
503.75	12704.74
503.953	12772.33
504.156	12983.27
504.359	13151.2
504.562	13341.66
504.765	13431.77
504.968	13573.08
505.17	13816.79
505.373	13761.5
505.576	14097.36
505.779	13939.67
505.982	14300.11
506.185	14570.44
506.387	14724.04
506.59	14769.1
506.793	15082.44
506.996	14982.09
507.198	15432.64
507.401	15588.28
507.604	15627.2
507.807	16012.21
508.009	16051.13
508.212	16079.8
508.415	16180.15
508.617	16372.66
508.82	16679.85
509.022	16503.73
509.225	16823.21
509.428	16968.62
509.63	17296.29
509.833	17230.76
510.035	17488.8
510.238	17599.39
510.44	17783.71
510.643	18183.06
510.845	18260.88
511.048	18525.07
511.25	18645.9
511.453	18867.08
511.655	19475.33
511.858	19194.76
512.06	19286.92
512.262	19399.55
512.465	19680.13
512.667	20204.41
512.87	20380.53
513.072	20046.71
513.274	20601.71
513.477	20945.77
513.679	21123.94
513.881	21156.71
514.084	21394.28
514.286	21468
514.488	21693.28
514.69	22184.79
514.893	22147.93
515.095	22322.01
515.297	22635.35
515.499	22664.02
515.701	22737.74
515.904	23020.36
516.106	23290.7
516.308	23571.27
516.51	23794.5
516.712	23907.13
516.914	24212.28
517.116	24730.42
517.318	24785.71
517.52	25004.85
517.722	25240.36
517.925	25189.16
518.127	25510.69
518.329	26071.84
518.531	25664.29
518.733	26077.98
518.935	26397.46
519.136	26100.51
519.338	26778.39
519.54	26821.39
519.742	27368.2
519.944	27222.8
520.146	27480.84
520.348	27915.01
520.55	27804.42
520.752	28185.34
520.954	28545.78
521.155	28177.15
521.357	28611.32
521.559	28865.27
521.761	29250.28
521.963	29321.96
522.164	29596.39
522.366	29895.39
522.568	29815.52
522.77	30067.42
522.971	30870.23
523.173	30108.38
523.375	30520.02
523.576	30726.87
523.778	30730.97
523.98	31238.86
524.181	31419.08
524.383	31533.77
524.584	31933.12
524.786	31906.5
524.988	31572.68
525.189	32240.32
525.391	32129.73
525.592	32594.62
525.794	32664.25
525.995	32789.17
526.197	32848.57
526.398	32768.69
526.6	33059.51
526.801	33249.97
527.003	33477.29
527.204	33534.63
527.406	33530.54
527.607	33923.75
527.808	34106.02
528.01	33335.98
528.211	33479.34
528.412	34181.79
528.614	34605.72
528.815	34273.95
529.016	34880.15
529.218	34257.57
529.419	34302.62
529.62	34658.97
529.822	34448.03
530.023	34458.27
530.224	34589.34
530.425	34857.62
530.626	34237.09
530.828	34331.29
531.029	35216.02
531.23	34839.19
531.431	35046.04
531.632	34900.63
531.833	35515.02
532.035	35152.53
532.236	35033.75
532.437	35240.59
532.638	35224.21
532.839	35631.75
533.04	35588.75
533.241	34759.32
533.442	35699.34
533.643	35277.46
533.844	35433.1
534.045	35310.22
534.246	35611.28
534.447	35467.92
534.648	35383.95
534.849	35406.48
535.05	35144.34
535.251	35332.75
535.451	35541.64
535.652	35691.15
535.853	35361.42
536.054	35390.09
536.255	35558.03
536.456	35349.14
536.657	36080.26
536.857	35607.18
537.058	35287.7
537.259	35689.1
537.46	35754.63
537.66	35762.82
537.861	35572.36
538.062	35492.49
538.263	35572.36
538.463	35281.55
538.664	35699.34
538.865	35719.82
539.065	35549.84
539.266	35142.29
539.466	35291.79
539.667	34925.21
539.868	36035.2
540.068	35920.52
540.269	35463.82
540.469	35820.17
540.67	35168.91
540.87	35439.25
541.071	35308.18
541.271	35441.29
541.472	35220.11
541.672	35273.36
541.873	35283.6
542.073	34886.29
542.274	35928.71
542.474	35429.01
542.675	35394.19
542.875	35336.85
543.075	35297.94
543.276	35154.58
543.476	35629.71
543.676	35373.71
543.877	35680.91
544.077	35197.59
544.277	35111.57
544.478	35437.2
544.678	35709.58
544.878	35349.14
545.078	35801.74
545.279	35285.65
545.479	35168.91
545.679	35412.62
545.879	35297.94
546.079	35138.19
546.28	35228.31
546.48	34798.23
546.68	35592.84
546.88	35234.45
547.08	35146.39
547.28	35173.01
547.48	35134.1
547.68	35299.98
547.88	34792.09
548.081	35195.54
548.281	35226.26
548.481	35132.05
548.681	35218.07
548.881	35494.54
549.081	35203.73
549.28	34960.02
549.48	34804.38
549.68	34810.52
549.88	35766.92
550.08	35316.37
550.28	35281.55
550.48	35121.81
550.68	35224.21
550.88	34804.38
551.08	35003.03
551.279	35130
551.479	34691.74
551.679	35365.52
551.879	35003.03
552.079	35041.94
552.278	34884.25
552.478	35064.47
552.678	35064.47
552.878	35232.4
553.077	35052.18
553.277	34661.02
553.477	34998.93
553.676	34839.19
553.876	35023.51
554.076	34603.67
554.275	34970.26
554.475	34607.77
554.674	34878.1
554.874	34720.41
555.074	34587.29
555.273	34708.12
555.473	34552.48
555.672	34495.13
555.872	34478.75
556.071	34572.96
556.271	34384.54
556.47	34392.73
556.67	33987.24
556.869	34527.9
557.068	34448.03
557.268	33923.75
557.467	34269.86
557.667	34364.06
557.866	34146.98
558.065	34480.8
558.265	34085.54
558.464	33843.88
558.663	34382.49
558.863	33622.7
559.062	34448.03
559.261	33770.15
559.461	34161.31
559.66	33716.9
559.859	33661.61
560.058	33786.54
560.258	33905.32
560.457	33284.78
560.656	33602.22
560.855	33397.42
561.054	33796.77
561.253	33346.22
561.453	33440.43
561.652	33323.69
561.851	33649.32
562.05	33215.15
562.249	33120.95
562.448	33422
562.647	33348.27
562.846	32879.28
563.045	32981.68
563.244	32950.96
563.443	33563.31
563.642	32912.05
563.841	32932.53
564.04	32709.3
564.239	33399.47
564.438	32649.91
564.637	32914.1
564.836	33063.6
565.035	32402.11
565.234	32518.84
565.432	32297.66
565.631	32316.09
565.83	32574.14
566.029	32092.86
566.228	32355
566.427	32170.69
566.625	31963.84
566.824	31564.49
567.023	32453.31
567.222	31611.59
567.42	31988.42
567.619	31949.51
567.818	31818.44
568.016	31822.53
568.215	31883.97
568.414	31734.47
568.612	31941.32
568.811	31527.63
569.01	31668.94
569.208	30966.48
569.407	31226.57
569.605	30933.71
569.804	31306.44
570.002	30845.65
570.201	31199.95
570.4	30925.52
570.598	30982.87
570.797	30468.83
570.995	30712.53
571.193	30395.1
571.392	30757.59
571.59	30470.87
571.789	30659.29
571.987	30352.09
572.186	30481.11
572.384	30075.62
572.582	30460.63
572.781	30200.54
572.979	29698.79
573.177	29844.2
573.376	29827.81
573.574	29713.13
573.772	29944.55
573.971	29481.7
574.169	29635.3
574.367	29334.25
574.565	29905.63
574.763	29285.1
574.962	29125.36
575.16	28945.14
575.358	28936.95
575.556	29106.93
575.754	29381.35
575.952	28746.48
576.151	29008.62
576.349	29035.25
576.547	28461.82
576.745	28807.92
576.943	29012.72
577.141	28465.91
577.339	28789.49
577.537	28379.9
577.735	28390.14
577.933	28039.93
578.131	28250.88
578.329	28218.11
578.527	27886.34
578.725	28310.27
578.923	27984.64
579.121	27818.75
579.319	27812.61
579.516	27996.93
579.714	27847.43
579.912	27640.58
580.11	27622.15
580.308	27906.82
580.506	27335.43
580.704	26696.47
580.901	27489.03
581.099	27431.69
581.297	27036.43
581.495	27003.66
581.692	26964.75
581.89	26743.57
582.088	27003.66
582.285	26766.1
582.483	26786.58
582.681	26725.14
582.878	26534.68
583.076	26389.27
583.274	26692.37
583.471	26168.09
583.669	26512.15
583.866	26247.96
584.064	26254.11
584.262	25895.71
584.459	26102.56
584.657	25912.1
584.854	26073.88
585.052	25647.91
585.249	25918.24
585.447	26217.24
585.644	25434.92
585.841	25592.61
586.039	25688.87
586.236	25477.93
586.434	25412.39
586.631	25277.22
586.828	25178.92
587.026	25453.35
587.223	25365.29
587.42	25195.31
587.618	25303.85
587.815	24707.89
588.012	24570.68
588.21	24775.47
588.407	24695.6
588.604	24642.35
588.801	24271.67
588.999	24470.33
589.196	24415.03
589.393	24445.75
589.59	24101.69
589.787	24124.22
589.984	24443.7
590.182	24193.85
590.379	23909.18
590.576	24017.72
590.773	23898.94
590.97	23632.71
591.167	23716.67
591.364	23513.92
591.561	23587.65
591.758	23515.97
591.955	23278.41
592.152	23640.9
592.349	23251.78
592.546	23196.49
592.743	23276.36
592.94	22803.28
593.137	23063.37
593.334	23538.5
593.531	22817.61
593.727	23098.19
593.924	22852.43
594.121	22743.89
594.318	22879.05
594.515	22838.09
594.712	22590.29
594.908	22545.23
595.105	22563.67
595.302	22311.77
595.499	22422.36
595.696	21953.37
595.892	22270.81
596.089	22145.88
596.286	21986.14
596.482	22068.06
596.679	21848.93
596.876	21953.37
597.072	21597.03
597.269	21619.55
597.466	21576.55
597.662	21572.45
597.859	21736.29
598.055	21572.45
598.252	21269.35
598.448	21527.39
598.645	21420.9
598.841	20994.92
599.038	21173.1
599.234	21212.01
599.431	21058.41
599.627	20900.72
599.824	21003.11
600.02	20884.33
600.217	20851.56
600.413	20616.05
600.609	20732.78
600.806	20689.77
601.002	20437.87
601.198	20556.66
601.395	20441.97
601.591	20312.95
601.787	20247.41
601.984	20122.49
602.18	20421.49
602.376	20130.68
602.572	20030.33
602.769	20212.6
602.965	19927.93
603.161	19936.12
603.357	19768.19
603.553	19872.64
603.75	19581.82
603.946	19827.58
604.142	19688.32
604.338	19594.11
604.534	19430.27
604.73	19372.93
604.926	19258.24
605.122	19401.6
605.318	18963.34
605.514	18930.57
605.71	19321.73
605.906	19026.82
606.102	19135.37
606.298	18910.09
606.494	19018.63
606.69	19057.54
606.886	18922.38
607.082	18549.65
607.278	18699.15
607.474	18332.56
607.67	18729.87
607.866	18348.95
608.062	18680.72
608.257	18475.92
608.453	18443.15
608.649	18336.66
608.845	18281.36
609.041	18254.74
609.236	18418.58
609.432	18238.36
609.628	17918.87
609.824	18215.83
610.019	17847.19
610.215	17980.31
610.411	18123.67
610.606	17945.5
610.802	17877.91
610.998	17949.59
611.193	17886.11
611.389	17855.39
611.584	17660.83
611.78	17435.55
611.976	17740.7
612.171	17841.05
612.367	17613.73
612.562	17775.52
612.758	17212.32
612.953	17435.55
613.149	17617.82
613.344	17572.77
613.539	17484.7
613.735	17370.02
613.93	17607.58
614.126	17382.31
614.321	17423.26
614.517	17228.71
614.712	17275.81
614.907	17435.55
615.103	17281.95
615.298	17193.89
615.493	17273.76
615.688	17066.92
615.884	17345.44
616.079	17017.77
616.274	17204.13
616.47	16964.52
616.665	16941.99
616.86	16970.66
617.055	16987.05
617.25	16853.93
617.445	16884.65
617.641	16321.46
617.836	16714.67
618.031	16317.36
618.226	16559.02
618.421	16544.69
618.616	16497.58
618.811	16251.83
619.006	16470.96
619.201	16079.8
619.396	16423.86
619.591	15868.86
619.786	16087.99
619.981	15944.63
620.176	15653.82
620.371	15801.27
620.566	15817.66
620.761	15578.04
620.956	15928.25
621.151	15365.06
621.346	15494.08
621.541	15129.54
621.735	15676.35
621.93	15174.6
622.125	15125.44
622.32	15076.29
622.515	15188.93
622.709	14908.36
622.904	15139.78
623.099	14904.26
623.294	14867.4
623.488	14734.28
623.683	14588.88
623.878	14607.31
624.072	14556.11
624.267	14640.08
624.462	14504.91
624.656	14175.19
624.851	14306.26
625.046	14169.04
625.24	14056.4
625.435	13802.46
625.629	13790.17
625.824	13808.6
626.018	13806.55
626.213	13478.88
626.407	13571.04
626.602	13472.73
626.796	13480.92
626.991	13462.49
627.185	13272.03
627.38	13128.67
627.574	13155.3
627.768	12837.86
627.963	12979.17
628.157	12975.08
628.352	12938.21
628.546	12536.81
628.74	12502
628.935	12614.63
629.129	12719.08
629.323	12399.6
629.517	12381.17
629.712	12432.36
629.906	12313.58
630.1	12209.14
630.294	12147.7
630.489	12137.46
630.683	11938.8
630.877	11711.48
631.071	11998.2
631.265	11936.76
631.459	11867.13
631.653	11883.51
631.848	11758.58
632.042	11568.12
632.236	11594.75
632.43	11383.8
632.624	11490.3
632.818	11353.09
633.012	11209.73
633.206	11064.32
633.4	11291.65
633.594	11224.06
633.788	10845.19
633.982	11113.47
634.176	11074.56
634.369	10906.63
634.563	10914.82
634.757	10673.16
634.951	10746.89
635.145	10746.89
635.339	10736.65
635.533	10884.1
635.726	10644.49
635.92	10474.51
636.114	10458.12
636.308	10382.35
636.501	10376.2
636.695	10537.99
636.889	10204.17
637.083	10167.31
637.276	9866.26
637.47	10120.21
637.664	10112.02
637.857	9999.38
638.051	9819.16
638.244	9860.12
638.438	9808.92
638.632	9485.34
638.825	9532.44
639.019	9618.46
639.212	9610.26
639.406	9454.62
639.599	9360.41
639.793	9497.63
639.986	9305.12
640.18	9284.64
640.373	9096.22
640.567	9114.66
640.76	9169.95
640.954	9106.46
641.147	9169.95
641.34	9063.46
641.534	9098.27
641.727	8852.52
641.92	8797.22
642.114	8674.34
642.307	8813.6
642.5	8903.71
642.694	8588.33
642.887	8473.64
643.08	8492.07
643.273	8684.58
643.467	8733.73
643.66	8641.57
643.853	8559.66
644.046	8293.42
644.239	8358.96
644.432	8424.49
644.626	8219.69
644.819	8154.16
645.012	8115.25
645.205	8197.17
645.398	8148.01
645.591	8006.7
645.784	8023.09
645.977	7803.96
646.17	7898.16
646.363	7867.44
646.556	7853.11
646.749	7810.1
646.942	7810.1
647.135	7582.77
647.328	7734.32
647.521	7629.88
647.714	7445.56
647.907	7531.58
648.099	7345.21
648.292	7482.42
648.485	7271.48
648.678	7463.99
648.871	7380.03
649.064	7187.52
649.256	7324.73
649.449	7117.89
649.642	7105.6
649.835	6986.82
650.027	6974.53
650.22	7152.7
650.413	6954.05
650.605	7146.56
650.798	6825.03
650.991	6943.81
651.183	6868.03
651.376	6839.36
651.568	6693.96
651.761	6771.78
651.954	6734.92
652.146	6696
652.339	6708.29
652.531	6595.65
652.724	6560.84
652.916	6399.05
653.109	6442.06
653.301	6298.7
653.494	6605.89
653.686	6165.58
653.879	6356.04
654.071	6276.17
654.263	6257.74
654.456	6032.46
654.648	6177.87
654.84	6093.9
655.033	6196.3
655.225	6155.34
655.417	5936.21
655.61	5942.35
655.802	6034.51
655.994	6042.7
656.186	5928.02
656.379	5911.63
656.571	5835.86
656.763	5827.67
656.955	5676.12
657.148	5880.91
657.34	5682.26
657.532	5665.88
657.724	5663.83
657.916	5485.65
658.108	5522.52
658.3	5491.8
658.492	5631.06
658.684	5354.58
658.876	5565.53
659.068	5428.31
659.26	5254.23
659.452	5395.54
659.644	5465.18
659.836	5323.87
660.028	5213.28
660.22	5272.67
660.412	5256.28
660.604	5139.55
660.796	5139.55
660.988	5012.57
661.18	5209.18
661.372	4985.95
661.563	5008.48
661.755	5055.58
661.947	4994.14
662.139	5012.57
662.331	4934.75
662.522	4944.99
662.714	4922.46
662.906	4879.46
663.097	4803.68
663.289	4887.65
663.481	4861.02
663.673	4822.11
663.864	4674.66
664.056	4578.4
664.247	4752.48
664.439	4541.54
664.631	4758.63
664.822	4707.43
665.014	4602.98
665.205	4682.85
665.397	4410.47
665.588	4521.06
665.78	4461.67
665.971	4459.62
666.163	4600.93
666.354	4609.12
666.546	4357.22
666.737	4240.49
666.929	4344.94
667.12	4332.65
667.311	4250.73
667.503	4275.31
667.694	4230.25
667.885	4332.65
668.077	4263.02
668.268	4088.94
668.459	4213.87
668.651	4199.53
668.842	4058.22
669.033	4023.41
669.224	4041.84
669.416	4172.91
669.607	4029.55
669.798	4023.41
669.989	3990.64
670.18	3953.77
670.371	4041.84
670.563	4041.84
670.754	3898.48
670.945	3824.75
671.136	3869.81
671.327	3935.34
671.518	3779.7
671.709	3857.52
671.9	3777.65
672.091	3787.89
672.282	3734.64
672.473	3822.7
672.664	3730.55
672.855	3701.87
673.046	3683.44
673.237	3728.5
673.428	3634.29
673.619	3681.39
673.809	3675.25
674	3642.48
674.191	3535.99
674.382	3574.9
674.573	3538.04
674.764	3542.13
674.954	3591.28
675.145	3419.25
675.336	3640.44
675.527	3550.32
675.717	3632.24
675.908	3388.53
676.099	3609.72
676.289	3462.26
676.48	3642.48
676.671	3419.25
676.861	3347.58
677.052	3380.34
677.243	3292.28
677.433	3427.45
677.624	3419.25
677.814	3421.3
678.005	3402.87
678.195	3308.66
678.386	3241.08
678.576	3290.23
678.767	3247.23
678.957	3247.23
679.148	3390.58
679.338	3312.76
679.529	3333.24
679.719	3206.27
679.909	3318.9
680.1	3193.98
680.29	3241.08
680.481	3165.31
680.671	3187.83
680.861	3249.27
681.052	3273.85
681.242	3198.07
681.432	3181.69
681.622	3191.93
681.813	3122.3
682.003	3177.59
682.193	3173.5
682.383	3159.16
682.573	3054.72
682.764	3075.2
682.954	3155.07
683.144	3028.09
683.334	3009.66
683.524	3148.92
683.714	3079.29
683.904	3208.31
684.094	3167.35
684.284	3052.67
684.474	3060.86
684.664	3011.71
684.854	3099.77
685.044	3026.04
685.234	3017.85
685.424	2942.08
685.614	2847.87
685.804	2950.27
685.994	2985.09
686.184	3075.2
686.374	2944.13
686.564	2968.7
686.753	2940.03
686.943	2854.02
687.133	2880.64
687.323	2907.26
687.513	3032.19
687.702	2845.82
687.892	2860.16
688.082	3028.09
688.272	2815.1
688.461	2860.16
688.651	2870.4
688.841	2905.21
689.03	2753.66
689.22	2753.66
689.41	2765.95
689.599	2798.72
689.789	2905.21
689.979	2757.76
690.168	2747.52
690.358	2751.62
690.547	2763.9
690.737	2657.41
690.926	2712.71
691.116	2708.61
691.305	2710.66
691.495	2749.57
691.684	2485.38
691.874	2585.73
692.063	2661.51
692.252	2569.35
692.442	2653.31
692.631	2688.13
692.82	2522.24
693.01	2634.88
693.199	2673.79
693.388	2591.88
693.578	2546.82
693.767	2509.96
693.956	2512
694.146	2428.04
694.335	2419.85
694.524	2444.42
694.713	2481.28
694.902	2493.57
695.092	2462.85
695.281	2573.44
695.47	2440.33
695.659	2434.18
695.848	2282.63
696.037	2421.89
696.226	2395.27
696.415	2450.57
696.604	2436.23
696.793	2397.32
696.982	2491.52
697.171	2358.41
697.36	2333.83
697.549	2280.58
697.738	2366.6
697.927	2364.55
698.116	2407.56
698.305	2405.51
698.494	2389.13
698.683	2264.2
698.872	2407.56
699.061	2321.54
699.25	2288.78
699.438	2231.43
699.627	2346.12
699.816	2380.93
700.005	2311.3
700.193	2251.91
700.382	2301.06
700.571	2329.74
700.76	2358.41
700.948	2337.93
701.137	2241.67
701.326	2337.93
701.514	2223.24
701.703	2350.21
701.892	2251.91
702.08	2239.62
702.269	2309.26
702.457	2174.09
702.646	2399.37
702.834	2231.43
703.023	2264.2
703.212	2198.67
703.4	2155.66
703.589	2174.09
703.777	2149.51
703.965	2178.19
704.154	2231.43
704.342	2260.1
704.531	2219.14
704.719	2200.71
704.907	2176.14
705.096	2131.08
705.284	2190.47
705.472	2151.56
705.661	2141.32
705.849	2108.55
706.037	2256.01
706.226	2169.99
706.414	2131.08
706.602	2059.4
706.79	2169.99
706.979	2188.43
707.167	2151.56
707.355	2139.27
707.543	2104.46
707.731	2182.28
707.919	2143.37
708.107	2186.38
708.296	2182.28
708.484	2043.02
708.672	2235.53
708.86	2133.13
709.048	2169.99
709.236	2098.31
709.424	2149.51
709.612	2018.44
709.8	2079.88
709.988	2118.79
710.176	2165.9
710.364	2022.54
710.551	2124.94
710.739	2065.55
710.927	1963.15
711.115	2202.76
711.303	2051.21
711.491	2094.22
711.679	2075.79
711.866	2086.03
712.054	2186.38
712.242	2002.06
712.43	2157.71
712.617	1940.62
712.805	2022.54
712.993	2038.92
713.181	2036.88
713.368	2057.36
713.556	2157.71
713.744	2014.35
713.931	2036.88
714.119	2018.44
714.306	2026.64
714.494	1973.39
714.682	1991.82
714.869	1914
715.057	2004.11
715.244	2012.3
715.432	2096.27
715.619	2075.79
715.807	2059.4
715.994	2096.27
716.182	1993.87
716.369	1985.68
716.556	2086.03
716.744	2075.79
716.931	2006.16
717.119	2049.16
717.306	2073.74
717.493	2059.4
717.681	1977.48
717.868	1985.68
718.055	1950.86
718.242	2002.06
718.43	2075.79
718.617	2088.07
718.804	2071.69
718.991	2059.4
719.179	2049.16
719.366	2067.6
719.553	2020.49
719.74	1993.87
719.927	2092.17
720.114	1977.48
720.301	1950.86
720.488	1938.57
720.676	1985.68
720.863	2030.73
721.05	2010.25
721.237	1985.68
721.424	2002.06
721.611	1961.1
721.798	2008.2
721.985	1938.57
722.172	2030.73
722.358	2004.11
722.545	2014.35
722.732	1805.46
722.919	1957
723.106	1963.15
723.293	1985.68
723.48	2040.97
723.667	1989.77
723.853	2024.59
724.04	2012.3
724.227	1973.39
724.414	1873.04
724.6	1995.92
724.787	2083.98
724.974	1952.91
725.161	1946.76
725.347	1963.15
725.534	1957
725.72	1989.77
725.907	2010.25
726.094	1954.96
726.28	1932.43
726.467	1963.15
726.653	1993.87
726.84	1979.53
727.027	2067.6
727.213	1946.76
727.4	1932.43
727.586	2018.44
727.773	1928.33
727.959	1866.89
728.145	1864.85
728.332	1957
728.518	1870.99
728.705	1961.1
728.891	1858.7
729.077	1897.61
729.264	1852.56
729.45	1930.38
729.636	1944.72
729.823	1961.1
730.009	2010.25
730.195	1856.65
730.382	1989.77
730.568	1905.81
730.754	1952.91
730.94	1977.48
731.126	1838.22
731.313	1922.19
731.499	1918.09
731.685	1930.38
731.871	1971.34
732.057	1952.91
732.243	1985.68
732.429	1899.66
732.615	1946.76
732.801	1944.72
732.987	1887.37
733.173	1969.29
733.359	1809.55
733.545	1875.09
733.731	1952.91
733.917	1864.85
734.103	1891.47
734.289	1957
734.475	1854.61
734.661	1864.85
734.847	1895.57
735.033	1864.85
735.219	1922.19
735.404	1805.46
735.59	1850.51
735.776	1942.67
735.962	1832.08
736.148	1922.19
736.333	1803.41
736.519	1838.22
736.705	1873.04
736.89	1764.5
737.076	1827.98
737.262	1832.08
737.447	1813.65
737.633	1879.18
737.819	1797.26
738.004	1813.65
738.19	1787.02
738.375	1819.79
738.561	1922.19
738.747	1848.46
738.932	1809.55
739.118	1838.22
739.303	1883.28
739.489	1793.17
739.674	1811.6
739.859	1870.99
740.045	1791.12
740.23	1772.69
740.416	1789.07
740.601	1817.74
740.786	1739.92
740.972	1748.11
741.157	1690.77
741.342	1631.38
741.528	1766.54
741.713	1789.07
741.898	1780.88
742.084	1684.62
742.269	1709.2
742.454	1688.72
742.639	1797.26
742.824	1739.92
743.01	1827.98
743.195	1633.43
743.38	1768.59
743.565	1739.92
743.75	1715.34
743.935	1633.43
744.12	1506.45
744.305	1674.39
744.49	1666.19
744.675	1617.04
744.86	1643.67
745.045	1637.52
745.23	1633.43
745.415	1651.86
745.6	1635.47
745.785	1584.27
745.97	1645.71
746.155	1561.75
746.34	1518.74
746.525	1610.9
746.71	1537.17
746.895	1633.43
747.079	1571.99
747.264	1553.55
747.449	1545.36
747.634	1510.55
747.819	1518.74
748.003	1531.03
748.188	1539.22
748.373	1514.64
748.557	1418.39
748.742	1422.48
748.927	1451.16
749.111	1406.1
749.296	1463.44
749.481	1432.72
749.665	1483.92
749.85	1408.15
750.034	1469.59
750.219	1356.95
750.404	1369.24
750.588	1404.05
750.773	1391.77
750.957	1381.53
751.141	1367.19
751.326	1352.85
751.51	1373.33
751.695	1289.37
751.879	1375.38
752.064	1397.91
752.248	1313.94
752.432	1338.52
752.617	1322.13
752.801	1305.75
752.985	1285.27
753.17	1281.18
753.354	1322.13
753.538	1283.22
753.722	1213.59
753.907	1207.45
754.091	1215.64
754.275	1240.22
754.459	1272.98
754.643	1121.43
754.828	1178.78
755.012	1107.1
755.196	1227.93
755.38	1113.24
755.564	1201.3
755.748	1184.92
755.932	1191.06
756.116	1158.3
756.3	1109.15
756.484	1170.58
756.668	1137.82
756.852	928.92
757.036	1092.76
757.22	1092.76
757.404	1100.95
757.588	1078.43
757.772	1125.53
757.956	1006.75
758.14	1109.15
758.323	1076.38
758.507	996.51
758.691	1029.27
758.875	1014.94
759.059	1043.61
759.242	943.26
759.426	986.27
759.61	961.69
759.794	996.51
759.977	994.46
760.161	1029.27
760.345	982.17
760.528	953.5
760.712	1078.43
760.895	947.36
761.079	992.41
761.263	892.06
761.446	879.77
761.63	955.55
761.813	1059.99
761.997	1057.95
762.18	808.09
762.364	820.38
762.547	945.31
762.731	855.2
762.914	851.1
763.098	871.58
763.281	842.91
763.464	867.49
763.648	898.2
763.831	906.4
764.015	789.66
764.198	953.5
764.381	875.68
764.564	969.88
764.748	859.29
764.931	908.44
765.114	818.33
765.297	881.82
765.481	890.01
765.664	797.85
765.847	814.24
766.03	808.09
766.213	898.2
766.397	832.67
766.58	752.8
766.763	808.09
766.946	896.16
767.129	773.28
767.312	830.62
767.495	752.8
767.678	847.01
767.861	857.25
768.044	822.43
768.227	793.76
768.41	787.61
768.593	838.81
768.776	810.14
768.959	767.13
769.142	789.66
769.324	804
769.507	781.47
769.69	834.72
769.873	748.7
770.056	806.05
770.239	810.14
770.421	793.76
770.604	724.13
770.787	697.5
770.97	701.6
771.152	717.98
771.335	777.37
771.518	732.32
771.7	867.49
771.883	742.56
772.066	623.78
772.248	715.94
772.431	715.94
772.613	691.36
772.796	689.31
772.978	736.42
773.161	769.18
773.343	668.83
773.526	636.06
773.708	644.26
773.891	685.22
774.073	683.17
774.256	658.59
774.438	672.93
774.621	711.84
774.803	623.78
774.985	582.82
775.168	625.83
775.35	584.87
775.532	685.22
775.715	568.48
775.897	822.43
776.079	638.11
776.261	713.89
776.444	693.41
776.626	609.44
776.808	593.06
776.99	556.19
777.173	625.83
777.355	576.67
777.537	627.87
777.719	613.54
777.901	617.63
778.083	615.59
778.265	593.06
778.447	535.71
778.629	613.54
778.811	658.59
778.993	603.3
779.175	595.11
779.357	591.01
779.539	580.77
779.721	488.61
779.903	576.67
780.085	609.44
780.267	644.26
780.449	509.09
780.631	560.29
780.812	509.09
780.994	568.48
781.176	627.87
781.358	478.37
781.54	523.43
781.721	421.03
781.903	552.1
782.085	570.53
782.267	531.62
782.448	521.38
782.63	504.99
782.812	521.38
782.993	431.27
783.175	478.37
783.357	507.04
783.538	486.56
783.72	494.76
783.901	431.27
784.083	502.95
784.264	461.99
784.446	400.55
784.627	445.6
784.809	511.14
784.99	425.12
785.172	468.13
785.353	421.03
785.535	351.4
785.716	439.46
785.897	410.79
786.079	517.28
786.26	425.12
786.441	418.98
786.623	402.6
786.804	414.88
786.985	380.07
787.167	437.41
787.348	421.03
787.529	380.07
787.71	400.55
787.891	478.37
788.073	384.16
788.254	408.74
788.435	294.05
788.616	349.35
788.797	300.2
788.978	263.33
789.159	369.83
789.34	341.16
789.522	335.01
789.703	355.49
789.884	292.01
790.065	308.39
790.246	388.26
790.427	314.53
790.607	388.26
790.788	359.59
790.969	281.77
791.15	373.92
791.331	406.69
791.512	335.01
791.693	298.15
791.874	341.16
792.054	388.26
792.235	365.73
792.416	355.49
792.597	294.05
792.778	271.53
792.958	380.07
793.139	367.78
793.32	240.81
793.5	289.96
793.681	318.63
793.862	347.3
794.042	283.81
794.223	271.53
794.404	343.21
794.584	183.46
794.765	287.91
794.945	249
795.126	380.07
795.306	314.53
795.487	369.83
795.667	330.92
795.848	300.2
796.028	281.77
796.209	285.86
796.389	259.24
796.57	199.85
796.75	269.48
796.93	298.15
797.111	361.64
797.291	308.39
797.471	210.09
797.652	249
797.832	285.86
798.012	224.42
798.192	269.48
798.373	212.14
798.553	251.05
798.733	226.47
798.913	158.89
799.093	265.38
799.274	259.24
799.454	216.23
799.634	208.04
799.814	300.2
799.994	294.05
800.174	226.47
800.354	201.9
800.534	193.7
800.714	230.57
800.894	220.33
801.074	205.99
801.254	195.75
801.434	246.95
801.614	128.17
801.794	244.9
801.974	849.05
802.154	226.47
802.334	279.72
802.514	232.62
802.693	216.23
802.873	244.9
803.053	249
803.233	228.52
803.413	195.75
803.592	253.09
803.772	195.75
803.952	244.9
804.131	171.18
804.311	162.98
804.491	201.9
804.67	169.13
804.85	208.04
805.03	228.52
805.209	226.47
805.389	193.7
805.568	150.7
805.748	181.42
805.928	216.23
806.107	183.46
806.287	197.8
806.466	265.38
806.646	199.85
806.825	171.18
807.004	203.94
807.184	183.46
807.363	134.31
807.543	191.66
807.722	216.23
807.901	216.23
808.081	279.72
808.26	175.27
808.439	199.85
808.619	167.08
808.798	158.89
808.977	134.31
809.156	171.18
809.336	103.59
809.515	203.94
809.694	158.89
809.873	134.31
810.052	214.18
810.231	175.27
810.411	154.79
810.59	160.94
810.769	253.09
810.948	156.84
811.127	126.12
811.306	72.87
811.485	142.5
811.664	232.62
811.843	132.26
812.022	95.4
812.201	150.7
812.38	195.75
812.559	119.98
812.737	154.79
812.916	76.97
813.095	48.3
813.274	144.55
813.453	97.45
813.632	150.7
813.811	175.27
813.989	93.35
814.168	146.6
814.347	60.59
814.526	101.55
814.704	199.85
814.883	175.27
815.062	185.51
815.24	261.29
815.419	85.16
815.598	160.94
815.776	81.07
815.955	134.31
816.133	89.26
816.312	158.89
816.49	154.79
816.669	93.35
816.847	128.17
817.026	138.41
817.204	40.11
817.383	132.26
817.561	183.46
817.74	130.22
817.918	167.08
818.097	113.83
818.275	162.98
818.453	122.02
818.632	126.12
818.81	107.69
818.988	140.46
819.167	162.98
819.345	93.35
819.523	93.35
819.701	138.41
819.879	162.98
820.058	140.46
820.236	60.59
820.414	83.11
820.592	85.16
820.77	62.63
820.948	113.83
821.127	113.83
821.305	132.26
821.483	130.22
821.661	91.31
821.839	122.02
822.017	150.7
822.195	62.63
822.373	154.79
822.551	33.96
822.729	144.55
822.907	130.22
823.085	44.2
823.262	85.16
823.44	76.97
823.618	7.34
823.796	150.7
823.974	126.12
824.152	74.92
824.329	136.36
824.507	60.59
824.685	85.16
824.863	70.83
825.04	126.12
825.218	144.55
825.396	62.63
825.574	99.5
825.751	19.63
825.929	150.7
826.107	76.97
826.284	93.35
826.462	54.44
826.639	36.01
826.817	95.4
826.994	158.89
827.172	97.45
827.349	173.22
827.527	68.78
827.704	76.97
827.882	101.55
828.059	119.98
828.237	89.26
828.414	101.55
828.591	97.45
828.769	113.83
828.946	134.31
829.124	81.07
829.301	95.4
829.478	54.44
829.655	38.06
829.833	156.84
830.01	52.39
830.187	142.5
830.364	44.2
830.542	134.31
830.719	56.49
830.896	132.26
831.073	44.2
831.25	85.16
831.427	158.89
831.604	177.32
831.782	74.92
831.959	160.94
832.136	87.21
832.313	76.97
832.49	-25.43
832.667	109.74
832.844	50.35
833.021	160.94
833.198	72.87
833.374	117.93
833.551	150.7
833.728	38.06
833.905	72.87
834.082	60.59
834.259	93.35
834.436	124.07
834.612	62.63
834.789	36.01
834.966	109.74
835.143	70.83
835.319	-4.95
835.496	13.48
835.673	91.31
835.85	76.97
836.026	40.11
836.203	142.5
836.38	76.97
836.556	128.17
836.733	-19.29
836.909	169.13
837.086	101.55
837.262	54.44
837.439	91.31
837.616	66.73
837.792	109.74
837.968	76.97
838.145	79.02
838.321	-11.09
838.498	87.21
838.674	89.26
838.851	95.4
839.027	19.63
839.203	56.49
839.38	87.21
839.556	27.82
839.732	152.74
839.909	27.82
840.085	93.35
840.261	87.21
840.437	3.24
840.614	-4.95
840.79	115.88
840.966	72.87
841.142	74.92
841.318	58.54
841.494	72.87
841.671	126.12
841.847	19.63
842.023	62.63
842.199	40.11
842.375	160.94
842.551	-0.85
842.727	72.87
842.903	21.67
843.079	76.97
843.255	52.39
843.431	52.39
843.607	64.68
843.783	87.21
843.959	85.16
844.134	-62.29
844.31	76.97
844.486	38.06
844.662	15.53
844.838	36.01
845.013	-2.9
845.189	113.83
845.365	101.55
845.541	19.63
845.716	21.67
845.892	76.97
846.068	52.39
846.244	5.29
846.419	46.25
846.595	44.2
846.77	-9.05
846.946	154.79
847.122	-4.95
847.297	56.49
847.473	70.83
847.648	62.63
847.824	113.83
847.999	56.49
848.175	72.87
848.35	11.43
848.526	72.87
848.701	68.78
848.876	62.63
849.052	122.02
849.227	52.39
849.403	-25.43
849.578	21.67
849.753	83.11
849.929	25.77
850.104	40.11
850.279	58.54
850.454	60.59
850.63	11.43
850.805	89.26
850.98	113.83
851.155	19.63
851.33	21.67
851.505	11.43
851.681	44.2
851.856	70.83
852.031	95.4
852.206	19.63
852.381	36.01
852.556	11.43
852.731	79.02
852.906	60.59
853.081	72.87
853.256	97.45
853.431	95.4
853.606	68.78
853.781	-13.14
853.956	-37.72
854.131	44.2
854.305	27.82
854.48	103.59
854.655	21.67
854.83	15.53
855.005	-9.05
855.18	111.78
855.354	62.63
855.529	7.34
855.704	66.73
855.879	103.59
856.053	87.21
856.228	46.25
856.403	13.48
856.577	44.2
856.752	-25.43
856.926	3.24
857.101	142.5
857.276	31.91
857.45	-0.85
857.625	60.59
857.799	83.11
857.974	31.91
858.148	-2.9
858.323	-13.14
858.497	44.2
858.672	76.97
858.846	11.43
859.02	62.63
859.195	83.11
859.369	36.01
859.543	70.83
859.718	68.78
859.892	11.43
860.066	-9.05
860.241	-17.24
860.415	72.87
860.589	23.72
860.763	76.97
860.938	89.26
861.112	21.67
861.286	11.43
861.46	36.01
861.634	36.01
861.808	101.55
861.982	19.63
862.157	3.24
862.331	1.19
862.505	89.26
862.679	-17.24
862.853	7.34
863.027	70.83
863.201	64.68
863.375	-13.14
863.549	95.4
863.722	81.07
863.896	103.59
864.07	-41.81
864.244	101.55
864.418	-0.85
864.592	29.87
864.766	38.06
864.939	40.11
865.113	52.39
865.287	72.87
865.461	36.01
865.634	113.83
865.808	-21.33
865.982	9.39
866.156	-50
866.329	11.43
866.503	52.39
866.676	-21.33
866.85	68.78
867.024	-33.62
867.197	19.63
867.371	128.17
867.544	7.34
867.718	-84.82
867.891	11.43
868.065	-25.43
868.238	-2.9
868.412	76.97
868.585	9.39
868.759	-4.95
868.932	31.91
869.105	50.35
869.279	66.73
869.452	46.25
869.625	29.87
869.799	87.21
869.972	-2.9
870.145	21.67
870.319	109.74
870.492	-27.48
870.665	-23.38
870.838	19.63
871.011	-27.48
871.185	68.78
871.358	3.24
871.531	60.59
871.704	-7
871.877	58.54
872.05	11.43
872.223	19.63
872.396	111.78
872.569	79.02
872.742	36.01
872.915	21.67
873.088	-47.96
873.261	19.63
873.434	-21.33
873.607	105.64
873.78	-15.19
873.953	3.24
874.126	56.49
874.299	7.34
874.471	15.53
874.644	-41.81
874.817	46.25
874.99	76.97
875.163	-2.9
875.335	72.87
875.508	60.59
875.681	109.74
875.853	72.87
876.026	21.67
876.199	29.87
876.371	-9.05
876.544	56.49
876.717	38.06
876.889	-39.76
877.062	85.16
877.234	-29.52
877.407	-7
877.579	13.48
877.752	48.3
877.924	70.83
878.097	60.59
878.269	-13.14
878.442	-19.29
878.614	13.48
878.786	27.82
878.959	40.11
879.131	56.49
879.303	-21.33
879.476	-68.44
879.648	44.2
879.82	-80.72
879.993	36.01
880.165	27.82
880.337	-37.72
880.509	7.34
880.681	-21.33
880.854	-4.95
881.026	70.83
881.198	23.72
881.37	46.25
881.542	-39.76
881.714	40.11
881.886	15.53
882.058	-45.91
882.23	13.48
882.402	11.43
882.574	21.67
882.746	23.72
882.918	21.67
883.09	36.01
883.262	-13.14
883.434	-13.14
883.606	95.4
883.778	-13.14
883.95	95.4
884.122	36.01
884.293	36.01
884.465	68.78
884.637	60.59
884.809	-2.9
884.98	7.34
885.152	-4.95
885.324	31.91
885.496	-31.57
885.667	13.48
885.839	33.96
886.011	109.74
886.182	31.91
886.354	56.49
886.525	60.59
886.697	56.49
886.869	76.97
887.04	36.01
887.212	13.48
887.383	109.74
887.555	27.82
887.726	27.82
887.897	-54.1
888.069	27.82
888.24	-4.95
888.412	-21.33
888.583	66.73
888.754	-37.72
888.926	-54.1
889.097	111.78
889.268	13.48
889.44	36.01
889.611	-23.38
889.782	19.63
889.953	-115.54
890.125	150.7
890.296	-11.09
890.467	42.15
890.638	-13.14
890.809	27.82
890.98	-21.33
891.151	3.24
891.323	19.63
891.494	23.72
891.665	23.72
891.836	15.53
892.007	44.2
892.178	-29.52
892.349	25.77
892.52	-9.05
892.691	95.4
892.862	13.48
893.032	-2.9
893.203	93.35
893.374	101.55
893.545	44.2
893.716	-19.29
893.887	74.92
894.057	-37.72
894.228	7.34
894.399	-60.24
894.57	29.87
894.74	-9.05
894.911	44.2
895.082	58.54
895.253	15.53
895.423	23.72
895.594	97.45
895.764	31.91
895.935	23.72
896.106	-17.24
896.276	-2.9
896.447	81.07
896.617	-7
896.788	44.2
896.958	66.73
897.129	-19.29
897.299	-19.29
897.47	52.39
897.64	44.2
897.81	83.11
897.981	9.39
898.151	48.3
898.322	23.72
898.492	76.97
898.662	11.43
898.832	-27.48
899.003	64.68
899.173	3.24
899.343	29.87
899.513	-74.58
