Data from USB4F104151__279__14-46-20-315.txt Node

Date: Thu Mar 13 14:46:20 EDT 2025
User: louis
Spectrometer: USB4F10415
Trigger mode: 4
Integration Time (sec): 2.000000E-2
Scans to average: 1
Electric dark correction enabled: true
Nonlinearity correction enabled: false
Boxcar width: 0
XAxis mode: Wavelengths
Number of Pixels in Spectrum: 3648
>>>>>Begin Spectral Data<<<<<
178.204	-56.83
178.424	-56.83
178.644	-56.83
178.864	-83.45
179.084	-48.64
179.304	23.04
179.524	2.56
179.744	-9.73
179.964	96.77
180.184	-7.68
180.404	0.51
180.624	2.56
180.844	72.19
181.064	-19.97
181.283	-34.3
181.503	-67.07
181.723	-58.88
181.943	-40.45
182.163	57.86
182.383	-13.82
182.602	31.23
182.822	68.09
183.042	8.7
183.262	27.14
183.482	31.23
183.701	20.99
183.921	43.52
184.141	-67.07
184.361	31.23
184.58	4.61
184.8	-1.54
185.02	96.77
185.239	47.62
185.459	-17.92
185.679	59.9
185.898	31.23
186.118	41.47
186.338	-32.26
186.557	35.33
186.777	6.66
186.997	-48.64
187.216	59.9
187.436	107.01
187.655	43.52
187.875	70.14
188.095	0.51
188.314	43.52
188.534	27.14
188.753	6.66
188.973	10.75
189.192	76.29
189.412	59.9
189.631	39.42
189.851	64
190.07	113.15
190.29	6.66
190.509	10.75
190.729	6.66
190.948	64
191.168	145.92
191.387	64
191.607	23.04
191.826	82.43
192.045	35.33
192.265	72.19
192.484	33.28
192.704	16.9
192.923	-56.83
193.142	164.35
193.362	8.7
193.581	80.38
193.8	41.47
194.02	49.66
194.239	4.61
194.458	39.42
194.678	-24.06
194.897	23.04
195.116	25.09
195.335	43.52
195.555	14.85
195.774	47.62
195.993	47.62
196.212	25.09
196.432	27.14
196.651	-1.54
196.87	23.04
197.089	98.81
197.308	98.81
197.528	49.66
197.747	-15.87
197.966	51.71
198.185	88.57
198.404	-30.21
198.623	82.43
198.842	47.62
199.062	80.38
199.281	84.48
199.5	31.23
199.719	64
199.938	-13.82
200.157	49.66
200.376	49.66
200.595	-30.21
200.814	31.23
201.033	25.09
201.252	135.68
201.471	4.61
201.69	43.52
201.909	72.19
202.128	117.25
202.347	84.48
202.566	16.9
202.785	12.8
203.004	-5.63
203.223	49.66
203.442	-9.73
203.661	-5.63
203.879	0.51
204.098	31.23
204.317	6.66
204.536	57.86
204.755	-24.06
204.974	2.56
205.193	23.04
205.411	51.71
205.63	57.86
205.849	-11.78
206.068	45.57
206.287	18.94
206.505	25.09
206.724	80.38
206.943	-7.68
207.162	-26.11
207.381	23.04
207.599	74.24
207.818	31.23
208.037	-9.73
208.255	39.42
208.474	104.96
208.693	0.51
208.911	-32.26
209.13	78.33
209.349	121.34
209.567	-9.73
209.786	14.85
210.005	-22.02
210.223	-26.11
210.442	27.14
210.661	39.42
210.879	31.23
211.098	68.09
211.316	-5.63
211.535	29.18
211.753	6.66
211.972	66.05
212.191	27.14
212.409	29.18
212.628	23.04
212.846	98.81
213.065	-22.02
213.283	57.86
213.502	29.18
213.72	-34.3
213.938	14.85
214.157	-46.59
214.375	88.57
214.594	-48.64
214.812	31.23
215.031	23.04
215.249	39.42
215.467	41.47
215.686	23.04
215.904	43.52
216.122	-7.68
216.341	55.81
216.559	31.23
216.778	96.77
216.996	18.94
217.214	55.81
217.432	49.66
217.651	-15.87
217.869	-13.82
218.087	31.23
218.306	-19.97
218.524	115.2
218.742	31.23
218.96	53.76
219.179	72.19
219.397	115.2
219.615	74.24
219.833	16.9
220.051	33.28
220.27	6.66
220.488	20.99
220.706	6.66
220.924	66.05
221.142	53.76
221.36	-5.63
221.578	78.33
221.796	16.9
222.015	0.51
222.233	123.39
222.451	68.09
222.669	-36.35
222.887	80.38
223.105	6.66
223.323	23.04
223.541	-5.63
223.759	-17.92
223.977	84.48
224.195	49.66
224.413	49.66
224.631	35.33
224.849	94.72
225.067	59.9
225.285	80.38
225.503	27.14
225.721	66.05
225.939	55.81
226.157	64
226.375	94.72
226.592	-42.5
226.81	16.9
227.028	88.57
227.246	23.04
227.464	4.61
227.682	59.9
227.9	25.09
228.117	23.04
228.335	68.09
228.553	-1.54
228.771	-1.54
228.989	74.24
229.206	4.61
229.424	23.04
229.642	64
229.86	45.57
230.077	64
230.295	31.23
230.513	55.81
230.731	35.33
230.948	82.43
231.166	76.29
231.384	-15.87
231.601	55.81
231.819	55.81
232.037	6.66
232.254	-30.21
232.472	47.62
232.689	96.77
232.907	53.76
233.125	31.23
233.342	96.77
233.56	23.04
233.777	-5.63
233.995	14.85
234.213	33.28
234.43	72.19
234.648	80.38
234.865	0.51
235.083	57.86
235.3	57.86
235.518	-17.92
235.735	82.43
235.953	88.57
236.17	-7.68
236.388	8.7
236.605	76.29
236.822	74.24
237.04	37.38
237.257	39.42
237.475	25.09
237.692	2.56
237.909	49.66
238.127	-13.82
238.344	6.66
238.562	59.9
238.779	-17.92
238.996	25.09
239.214	-15.87
239.431	-9.73
239.648	31.23
239.865	61.95
240.083	64
240.3	143.87
240.517	43.52
240.735	70.14
240.952	76.29
241.169	100.86
241.386	4.61
241.603	72.19
241.821	59.9
242.038	55.81
242.255	31.23
242.472	59.9
242.689	35.33
242.907	80.38
243.124	64
243.341	47.62
243.558	49.66
243.775	-22.02
243.992	-19.97
244.209	35.33
244.426	43.52
244.643	55.81
244.86	-50.69
245.078	66.05
245.295	43.52
245.512	78.33
245.729	68.09
245.946	100.86
246.163	70.14
246.38	14.85
246.597	39.42
246.814	74.24
247.031	66.05
247.248	41.47
247.464	41.47
247.681	64
247.898	45.57
248.115	31.23
248.332	4.61
248.549	25.09
248.766	-13.82
248.983	94.72
249.2	68.09
249.417	31.23
249.633	-32.26
249.85	27.14
250.067	29.18
250.284	59.9
250.501	59.9
250.717	66.05
250.934	86.53
251.151	0.51
251.368	92.67
251.585	80.38
251.801	57.86
252.018	57.86
252.235	129.53
252.451	4.61
252.668	-19.97
252.885	64
253.102	4.61
253.318	14.85
253.535	74.24
253.752	14.85
253.968	-17.92
254.185	-26.11
254.401	27.14
254.618	43.52
254.835	-3.58
255.051	55.81
255.268	-30.21
255.484	-26.11
255.701	64
255.917	27.14
256.134	-28.16
256.351	51.71
256.567	70.14
256.784	43.52
257	39.42
257.217	33.28
257.433	72.19
257.65	-1.54
257.866	10.75
258.082	55.81
258.299	-50.69
258.515	14.85
258.732	6.66
258.948	33.28
259.165	66.05
259.381	33.28
259.597	-32.26
259.814	47.62
260.03	10.75
260.246	31.23
260.463	23.04
260.679	92.67
260.895	66.05
261.112	64
261.328	80.38
261.544	18.94
261.761	121.34
261.977	41.47
262.193	-11.78
262.409	92.67
262.626	98.81
262.842	31.23
263.058	-56.83
263.274	-9.73
263.49	-38.4
263.707	23.04
263.923	68.09
264.139	-11.78
264.355	66.05
264.571	31.23
264.787	33.28
265.004	96.77
265.22	47.62
265.436	53.76
265.652	61.95
265.868	31.23
266.084	59.9
266.3	51.71
266.516	-24.06
266.732	-42.5
266.948	25.09
267.164	8.7
267.38	35.33
267.596	6.66
267.812	80.38
268.028	41.47
268.244	-1.54
268.46	-30.21
268.676	23.04
268.892	49.66
269.108	2.56
269.324	14.85
269.54	45.57
269.756	72.19
269.972	-40.45
270.188	55.81
270.403	41.47
270.619	49.66
270.835	115.2
271.051	2.56
271.267	59.9
271.483	125.44
271.698	104.96
271.914	59.9
272.13	-13.82
272.346	51.71
272.562	33.28
272.777	59.9
272.993	0.51
273.209	109.05
273.425	125.44
273.64	74.24
273.856	59.9
274.072	59.9
274.287	39.42
274.503	76.29
274.719	64
274.934	31.23
275.15	-46.59
275.366	-17.92
275.581	-46.59
275.797	4.61
276.012	47.62
276.228	82.43
276.444	64
276.659	96.77
276.875	47.62
277.09	23.04
277.306	-67.07
277.521	129.53
277.737	51.71
277.952	55.81
278.168	72.19
278.383	70.14
278.599	39.42
278.814	23.04
279.03	-5.63
279.245	80.38
279.461	104.96
279.676	80.38
279.892	16.9
280.107	31.23
280.322	-17.92
280.538	-9.73
280.753	-1.54
280.969	31.23
281.184	4.61
281.399	41.47
281.615	72.19
281.83	-5.63
282.045	-15.87
282.26	64
282.476	80.38
282.691	39.42
282.906	45.57
283.122	70.14
283.337	-15.87
283.552	84.48
283.767	-15.87
283.983	133.63
284.198	10.75
284.413	68.09
284.628	57.86
284.843	8.7
285.058	-62.98
285.274	23.04
285.489	4.61
285.704	-58.88
285.919	33.28
286.134	57.86
286.349	39.42
286.564	47.62
286.779	31.23
286.995	47.62
287.21	16.9
287.425	51.71
287.64	35.33
287.855	23.04
288.07	-9.73
288.285	51.71
288.5	74.24
288.715	74.24
288.93	53.76
289.145	37.38
289.36	64
289.575	0.51
289.79	59.9
290.004	16.9
290.219	47.62
290.434	61.95
290.649	2.56
290.864	51.71
291.079	121.34
291.294	27.14
291.509	23.04
291.724	31.23
291.938	64
292.153	47.62
292.368	-38.4
292.583	20.99
292.798	12.8
293.012	23.04
293.227	-13.82
293.442	66.05
293.657	35.33
293.871	14.85
294.086	51.71
294.301	80.38
294.516	47.62
294.73	43.52
294.945	-3.58
295.16	96.77
295.374	76.29
295.589	121.34
295.804	29.18
296.018	64
296.233	96.77
296.447	92.67
296.662	31.23
296.877	107.01
297.091	23.04
297.306	49.66
297.52	14.85
297.735	-7.68
297.949	49.66
298.164	76.29
298.378	64
298.593	35.33
298.807	-1.54
299.022	84.48
299.236	115.2
299.451	39.42
299.665	-1.54
299.88	10.75
300.094	12.8
300.309	47.62
300.523	64
300.737	59.9
300.952	121.34
301.166	82.43
301.381	0.51
301.595	-11.78
301.809	31.23
302.024	33.28
302.238	25.09
302.452	35.33
302.667	-17.92
302.881	141.82
303.095	123.39
303.309	64
303.524	10.75
303.738	68.09
303.952	45.57
304.166	18.94
304.381	-26.11
304.595	53.76
304.809	14.85
305.023	31.23
305.237	-1.54
305.452	33.28
305.666	88.57
305.88	16.9
306.094	100.86
306.308	64
306.522	-17.92
306.736	104.96
306.95	96.77
307.164	-24.06
307.379	2.56
307.593	82.43
307.807	104.96
308.021	92.67
308.235	88.57
308.449	6.66
308.663	84.48
308.877	94.72
309.091	109.05
309.305	47.62
309.519	-15.87
309.733	51.71
309.947	-13.82
310.161	100.86
310.374	23.04
310.588	29.18
310.802	92.67
311.016	47.62
311.23	72.19
311.444	-26.11
311.658	39.42
311.872	20.99
312.085	-1.54
312.299	27.14
312.513	2.56
312.727	104.96
312.941	23.04
313.154	47.62
313.368	23.04
313.582	72.19
313.796	-7.68
314.009	84.48
314.223	113.15
314.437	74.24
314.651	64
314.864	72.19
315.078	-1.54
315.292	47.62
315.505	6.66
315.719	123.39
315.933	59.9
316.146	-32.26
316.36	-3.58
316.573	186.88
316.787	14.85
317.001	64
317.214	47.62
317.428	53.76
317.641	-1.54
317.855	113.15
318.068	96.77
318.282	-34.3
318.495	117.25
318.709	119.29
318.922	23.04
319.136	57.86
319.349	0.51
319.563	8.7
319.776	47.62
319.99	66.05
320.203	47.62
320.417	64
320.63	104.96
320.843	66.05
321.057	72.19
321.27	14.85
321.483	145.92
321.697	143.87
321.91	18.94
322.124	6.66
322.337	49.66
322.55	-17.92
322.763	2.56
322.977	82.43
323.19	23.04
323.403	23.04
323.617	-5.63
323.83	74.24
324.043	68.09
324.256	-1.54
324.469	115.2
324.683	47.62
324.896	-42.5
325.109	70.14
325.322	23.04
325.535	107.01
325.748	100.86
325.962	14.85
326.175	64
326.388	12.8
326.601	82.43
326.814	31.23
327.027	76.29
327.24	53.76
327.453	66.05
327.666	39.42
327.879	31.23
328.092	51.71
328.305	25.09
328.518	39.42
328.731	6.66
328.944	35.33
329.157	-22.02
329.37	0.51
329.583	76.29
329.796	100.86
330.009	-30.21
330.222	84.48
330.435	64
330.648	-5.63
330.861	64
331.073	88.57
331.286	27.14
331.499	16.9
331.712	0.51
331.925	-5.63
332.138	-9.73
332.35	96.77
332.563	35.33
332.776	6.66
332.989	-42.5
333.202	164.35
333.414	-38.4
333.627	8.7
333.84	78.33
334.053	80.38
334.265	-1.54
334.478	20.99
334.691	113.15
334.903	76.29
335.116	43.52
335.329	12.8
335.541	-17.92
335.754	133.63
335.966	-15.87
336.179	43.52
336.392	25.09
336.604	117.25
336.817	64
337.029	72.19
337.242	98.81
337.454	33.28
337.667	43.52
337.88	47.62
338.092	-7.68
338.305	88.57
338.517	-24.06
338.729	70.14
338.942	170.49
339.154	4.61
339.367	35.33
339.579	33.28
339.792	57.86
340.004	117.25
340.217	14.85
340.429	-24.06
340.641	55.81
340.854	16.9
341.066	39.42
341.278	72.19
341.491	45.57
341.703	72.19
341.915	41.47
342.128	25.09
342.34	23.04
342.552	-89.6
342.764	-26.11
342.977	-11.78
343.189	43.52
343.401	31.23
343.613	2.56
343.826	39.42
344.038	49.66
344.25	68.09
344.462	39.42
344.674	47.62
344.886	14.85
345.099	18.94
345.311	25.09
345.523	57.86
345.735	39.42
345.947	55.81
346.159	33.28
346.371	-34.3
346.583	43.52
346.795	82.43
347.007	53.76
347.219	4.61
347.431	35.33
347.643	98.81
347.855	10.75
348.067	74.24
348.279	-11.78
348.491	61.95
348.703	57.86
348.915	80.38
349.127	-46.59
349.339	39.42
349.551	18.94
349.763	98.81
349.975	2.56
350.187	39.42
350.399	31.23
350.61	16.9
350.822	-30.21
351.034	80.38
351.246	43.52
351.458	55.81
351.669	47.62
351.881	64
352.093	25.09
352.305	92.67
352.517	6.66
352.728	64
352.94	6.66
353.152	18.94
353.363	31.23
353.575	39.42
353.787	88.57
353.999	6.66
354.21	49.66
354.422	16.9
354.633	55.81
354.845	55.81
355.057	-42.5
355.268	33.28
355.48	31.23
355.692	35.33
355.903	-38.4
356.115	-38.4
356.326	2.56
356.538	100.86
356.749	49.66
356.961	57.86
357.172	53.76
357.384	66.05
357.595	109.05
357.807	55.81
358.018	31.23
358.23	55.81
358.441	53.76
358.653	74.24
358.864	8.7
359.075	39.42
359.287	23.04
359.498	27.14
359.709	49.66
359.921	72.19
360.132	164.35
360.344	33.28
360.555	-1.54
360.766	90.62
360.977	14.85
361.189	80.38
361.4	10.75
361.611	94.72
361.823	102.91
362.034	-1.54
362.245	96.77
362.456	66.05
362.667	80.38
362.879	14.85
363.09	6.66
363.301	-26.11
363.512	72.19
363.723	90.62
363.935	14.85
364.146	78.33
364.357	96.77
364.568	35.33
364.779	10.75
364.99	113.15
365.201	8.7
365.412	96.77
365.623	55.81
365.834	104.96
366.045	92.67
366.256	64
366.467	43.52
366.678	23.04
366.889	74.24
367.1	55.81
367.311	86.53
367.522	14.85
367.733	45.57
367.944	84.48
368.155	29.18
368.366	55.81
368.577	51.71
368.788	33.28
368.999	2.56
369.209	47.62
369.42	137.73
369.631	135.68
369.842	8.7
370.053	29.18
370.264	41.47
370.474	104.96
370.685	121.34
370.896	39.42
371.107	109.05
371.317	55.81
371.528	39.42
371.739	104.96
371.95	86.53
372.16	123.39
372.371	-32.26
372.582	31.23
372.792	66.05
373.003	100.86
373.214	107.01
373.424	27.14
373.635	53.76
373.846	20.99
374.056	18.94
374.267	31.23
374.477	64
374.688	33.28
374.898	55.81
375.109	43.52
375.319	23.04
375.53	96.77
375.74	-5.63
375.951	59.9
376.161	49.66
376.372	76.29
376.582	-42.5
376.793	39.42
377.003	31.23
377.214	88.57
377.424	-3.58
377.635	84.48
377.845	96.77
378.055	23.04
378.266	-7.68
378.476	100.86
378.686	84.48
378.897	16.9
379.107	49.66
379.317	49.66
379.528	-34.3
379.738	23.04
379.948	18.94
380.158	0.51
380.369	86.53
380.579	125.44
380.789	61.95
380.999	145.92
381.21	109.05
381.42	104.96
381.63	51.71
381.84	-1.54
382.05	109.05
382.261	72.19
382.471	78.33
382.681	33.28
382.891	0.51
383.101	80.38
383.311	47.62
383.521	61.95
383.731	66.05
383.941	6.66
384.151	14.85
384.361	90.62
384.571	64
384.781	113.15
384.991	49.66
385.201	90.62
385.411	41.47
385.621	-42.5
385.831	68.09
386.041	31.23
386.251	90.62
386.461	96.77
386.671	127.49
386.881	-46.59
387.091	123.39
387.301	33.28
387.511	39.42
387.72	98.81
387.93	160.25
388.14	-32.26
388.35	6.66
388.56	88.57
388.769	64
388.979	45.57
389.189	16.9
389.399	72.19
389.609	92.67
389.818	107.01
390.028	66.05
390.238	72.19
390.447	76.29
390.657	64
390.867	86.53
391.076	23.04
391.286	123.39
391.496	154.11
391.705	86.53
391.915	23.04
392.125	51.71
392.334	-11.78
392.544	41.47
392.753	14.85
392.963	20.99
393.172	88.57
393.382	27.14
393.591	115.2
393.801	8.7
394.01	88.57
394.22	49.66
394.429	88.57
394.639	70.14
394.848	84.48
395.058	78.33
395.267	125.44
395.477	74.24
395.686	88.57
395.895	72.19
396.105	119.29
396.314	39.42
396.524	90.62
396.733	98.81
396.942	90.62
397.152	137.73
397.361	102.91
397.57	68.09
397.78	164.35
397.989	133.63
398.198	160.25
398.407	84.48
398.617	61.95
398.826	88.57
399.035	123.39
399.244	131.58
399.453	90.62
399.663	66.05
399.872	27.14
400.081	174.59
400.29	141.82
400.499	135.68
400.708	72.19
400.917	88.57
401.127	16.9
401.336	88.57
401.545	137.73
401.754	80.38
401.963	156.16
402.172	117.25
402.381	158.21
402.59	111.1
402.799	131.58
403.008	121.34
403.217	113.15
403.426	109.05
403.635	104.96
403.844	143.87
404.053	162.3
404.262	88.57
404.471	143.87
404.68	184.83
404.888	111.1
405.097	55.81
405.306	82.43
405.515	166.4
405.724	80.38
405.933	156.16
406.142	119.29
406.35	137.73
406.559	150.01
406.768	178.69
406.977	162.3
407.185	96.77
407.394	180.73
407.603	195.07
407.812	193.02
408.02	244.22
408.229	225.79
408.438	233.98
408.646	250.36
408.855	229.88
409.064	272.89
409.272	211.45
409.481	252.41
409.69	256.51
409.898	262.65
410.107	215.55
410.315	305.66
410.524	301.56
410.733	199.16
410.941	301.56
411.15	279.04
411.358	303.61
411.567	326.14
411.775	391.67
411.984	334.33
412.192	358.91
412.401	346.62
412.609	346.62
412.818	403.96
413.026	514.55
413.234	489.98
413.443	424.44
413.651	444.92
413.86	461.3
414.068	453.11
414.276	479.74
414.485	539.13
414.693	580.09
414.901	600.57
415.11	535.03
415.318	563.7
415.526	623.09
415.734	653.81
415.943	619
416.151	729.59
416.359	678.39
416.567	621.05
416.776	682.49
416.984	745.97
417.192	827.89
417.4	735.73
417.608	834.04
417.817	854.51
418.025	924.15
418.233	893.43
418.441	831.99
418.649	952.82
418.857	997.87
419.065	997.87
419.273	981.49
419.481	1114.61
419.689	1124.85
419.897	1276.4
420.105	1116.65
420.313	1169.9
420.521	1296.88
420.729	1280.49
420.937	1280.49
421.145	1358.32
421.353	1473
421.561	1522.15
421.769	1532.39
421.977	1573.35
422.185	1677.8
422.393	1714.66
422.601	1702.37
422.809	1866.21
423.017	1853.92
423.224	1858.02
423.432	2023.91
423.64	1907.17
423.848	2081.25
424.056	2185.69
424.263	2103.78
424.471	2238.94
424.679	2253.28
424.887	2406.88
425.094	2300.38
425.302	2544.09
425.51	2619.86
425.718	2705.88
425.925	2810.33
426.133	2834.9
426.341	2978.26
426.548	3015.12
426.756	3150.29
426.964	3138
427.171	3246.54
427.379	3385.8
427.586	3463.63
427.794	3684.81
428.001	3713.48
428.209	3811.78
428.417	3840.45
428.624	4121.03
428.832	3981.76
429.039	3949
429.247	4030.91
429.454	4364.73
429.662	4641.21
429.869	4315.58
430.076	4811.19
430.284	4561.34
430.491	4757.94
430.699	5157.3
430.906	5167.54
431.114	5190.06
431.321	5308.85
431.528	5478.83
431.736	5702.06
431.943	5937.57
432.15	5814.7
432.358	5876.13
432.565	6310.3
432.772	6330.78
432.979	6381.98
433.187	6543.77
433.394	6674.84
433.601	7012.76
433.808	7180.69
434.016	7113.11
434.223	7307.66
434.43	7780.75
434.637	7649.68
434.844	8118.66
435.052	8245.63
435.259	8120.71
435.466	8268.16
435.673	8272.26
435.88	8812.92
436.087	9212.28
436.294	9351.54
436.501	9107.83
436.708	9255.28
436.915	9396.59
437.122	10094.95
437.329	9929.06
437.537	10295.65
437.743	10375.52
437.95	10463.58
438.157	10887.51
438.364	11213.14
438.571	11256.15
438.778	11264.34
438.985	12290.37
439.192	11807.05
439.399	12241.22
439.606	11979.08
439.813	12740.93
440.02	13228.34
440.227	13064.5
440.433	13015.35
440.64	13367.6
440.847	13404.47
441.054	13621.55
441.261	14385.44
441.467	14367.01
441.674	14678.3
441.881	15268.12
442.088	15276.31
442.294	15159.58
442.501	15292.69
442.708	15620.37
442.914	16480.52
443.121	17043.71
443.328	16816.38
443.534	17692.91
443.741	17357.05
443.948	17127.67
444.154	18292.97
444.361	17975.53
444.568	18247.91
444.774	18442.47
444.981	18323.69
445.187	19206.36
445.394	19773.65
445.6	19491.03
445.807	21262.52
446.013	20572.36
446.22	21129.41
446.426	21737.65
446.633	22110.38
446.839	23007.39
447.046	21993.65
447.252	22896.8
447.459	23445.66
447.665	23036.06
447.871	24078.48
448.078	25196.67
448.284	23832.72
448.491	24553.61
448.697	25489.53
448.903	25925.75
449.11	26122.35
449.316	25655.42
449.522	26493.04
449.728	27201.63
449.935	27283.55
450.141	27320.42
450.347	27994.2
450.553	26841.19
450.76	27568.22
450.966	28387.41
451.172	28102.74
451.378	28819.53
451.584	28477.52
451.791	29134.92
451.997	28930.12
452.203	29378.62
452.409	29462.59
452.615	29087.81
452.821	28190.8
453.027	27725.91
453.233	29696.06
453.44	28317.78
453.646	28620.88
453.852	28995.65
454.058	29122.63
454.264	28379.21
454.47	28889.16
454.676	28248.14
454.882	29442.11
455.088	26888.29
455.294	27240.54
455.5	27463.77
455.705	27678.81
455.911	26769.51
456.117	26120.31
456.323	25962.61
456.529	24799.37
456.735	25743.48
456.941	25108.61
457.147	24864.9
457.352	23912.6
457.558	23724.18
457.764	23728.28
457.97	23427.23
458.176	23105.7
458.381	22841.51
458.587	21872.82
458.793	22028.46
458.999	20545.73
459.204	22249.64
459.41	21495.99
459.616	20273.35
459.821	20342.99
460.027	20043.98
460.233	19742.93
460.438	18917.6
460.644	19046.62
460.85	18032.88
461.055	17733.87
461.261	18127.08
461.466	16552.2
461.672	16128.27
461.878	17203.45
462.083	16261.38
462.289	15730.96
462.494	15708.43
462.7	14844.19
462.905	14518.56
463.111	15165.72
463.316	15081.75
463.522	14754.08
463.727	14975.26
463.932	14668.06
464.138	14797.09
464.343	14872.86
464.549	14459.17
464.754	14747.93
464.959	14674.21
465.165	14512.42
465.37	14020.91
465.575	13682.99
465.781	14291.24
465.986	14330.15
466.191	13762.86
466.397	13574.45
466.602	12681.53
466.807	13347.12
467.012	13498.67
467.218	13254.97
467.423	13072.7
467.628	13033.79
467.833	13637.94
468.038	13111.61
468.244	12822.84
468.449	13316.4
468.654	12908.86
468.859	12872
469.064	12751.17
469.269	12325.19
469.474	12532.03
469.679	12634.43
469.885	12368.2
470.09	12550.46
470.295	12458.31
470.5	12241.22
470.705	12296.52
470.91	12114.25
471.115	11983.18
471.32	12106.06
471.525	11780.43
471.73	11661.65
471.935	11561.3
472.139	11170.13
472.344	11278.68
472.549	11313.49
472.754	11422.03
472.959	10989.91
473.164	10918.23
473.369	10664.29
473.574	10631.52
473.778	11014.49
473.983	10705.24
474.188	10805.6
474.393	10041.7
474.598	10258.79
474.802	10295.65
475.007	10101.09
475.212	10099.05
475.417	9902.44
475.621	10013.03
475.826	9851.24
476.031	9859.43
476.235	9644.4
476.44	9484.66
476.645	9353.59
476.849	9480.56
477.054	9255.28
477.259	9093.49
477.463	9333.11
477.668	8837.5
477.872	9052.53
478.077	8968.57
478.282	8575.36
478.486	8546.69
478.691	8751.48
478.895	8642.94
479.1	8597.88
479.304	8505.73
479.509	8294.79
479.713	8446.34
479.918	8364.42
480.122	8321.41
480.326	8243.59
480.531	8149.38
480.735	8126.85
480.94	8231.3
481.144	8393.09
481.348	8075.65
481.553	8110.47
481.757	7920.01
481.961	7838.09
482.166	8112.52
482.37	8075.65
482.574	7793.03
482.778	7848.33
482.983	7985.54
483.187	7911.82
483.391	7924.1
483.595	7899.53
483.8	7883.14
484.004	8001.93
484.208	8264.07
484.412	7903.62
484.616	8042.89
484.821	7977.35
485.025	7666.06
485.229	8204.67
485.433	7790.99
485.637	7917.96
485.841	7895.43
486.045	7885.19
486.249	7993.73
486.453	7938.44
486.657	8014.21
486.861	8071.56
487.065	7760.27
487.269	7868.81
487.473	7813.51
487.677	8003.97
487.881	7946.63
488.085	8003.97
488.289	8227.2
488.493	7993.73
488.697	8077.7
488.901	7950.73
489.105	7920.01
489.309	8065.41
489.512	8190.34
489.716	8255.87
489.92	8200.58
490.124	8079.75
490.328	8366.46
490.531	8192.39
490.735	8296.83
490.939	8233.35
491.143	8173.96
491.346	8192.39
491.55	8395.14
491.754	8296.83
491.958	8352.13
492.161	8274.31
492.365	8638.84
492.569	8268.16
492.772	8556.93
492.976	8563.07
493.18	8583.55
493.383	8745.34
493.587	8866.17
493.79	8956.28
493.994	8825.21
494.197	8761.72
494.401	9030.01
494.605	9054.58
494.808	9148.79
495.012	9107.83
495.215	9013.62
495.419	9339.25
495.622	9324.91
495.825	9542
496.029	9544.05
496.232	9660.78
496.436	9785.71
496.639	9996.65
496.843	9804.14
497.046	9961.83
497.249	10140.01
497.453	10185.06
497.656	10412.39
497.859	10414.43
498.063	10490.21
498.266	10594.65
498.469	10813.79
498.673	10946.9
498.876	11016.54
499.079	11012.44
499.282	11108.69
499.485	11444.56
499.689	11448.66
499.892	11755.85
500.095	11585.87
500.298	11878.73
500.501	11829.58
500.705	12194.12
500.908	12484.93
501.111	12505.41
501.314	12540.22
501.517	12826.94
501.72	12824.89
501.923	12853.56
502.126	13322.55
502.329	13416.76
502.532	13310.26
502.735	13705.52
502.938	13969.71
503.141	13877.55
503.344	14268.71
503.547	14233.89
503.75	14604.58
503.953	14627.1
504.156	14768.41
504.359	15008.03
504.562	15079.71
504.765	15569.17
504.968	15509.78
505.17	15614.23
505.373	15679.76
505.576	15902.99
505.779	16193.8
505.982	16263.43
506.185	16570.63
506.387	16953.6
506.59	17144.06
506.793	17162.49
506.996	17383.67
507.198	17873.14
507.401	17797.36
507.604	17991.92
507.807	18356.46
508.009	18397.42
508.212	18573.54
508.415	18694.37
508.617	19013.85
508.82	19022.05
509.022	19144.92
509.225	19800.27
509.428	19871.95
509.63	19677.4
509.833	20109.52
510.035	20699.33
510.238	20605.13
510.44	20797.63
510.643	20977.86
510.845	21301.43
511.048	21196.99
511.25	21717.17
511.453	21960.88
511.655	22870.18
511.858	22603.94
512.06	22546.6
512.262	22659.24
512.465	22638.76
512.667	23142.56
512.87	23482.52
513.072	23503
513.274	23767.19
513.477	24273.04
513.679	24279.18
513.881	24801.41
514.084	25010.31
514.286	24987.78
514.488	25151.62
514.69	25692.28
514.893	25888.88
515.095	25983.09
515.297	26302.57
515.499	26564.71
515.701	27181.15
515.904	27269.22
516.106	27465.82
516.308	27402.33
516.51	28239.95
516.712	28108.88
516.914	28340.3
517.116	29083.72
517.318	28719.18
517.52	28983.37
517.722	29374.53
517.925	29790.27
518.127	29894.71
518.329	30103.6
518.531	30044.21
518.733	30896.17
518.935	30930.98
519.136	30920.74
519.338	31688.73
519.54	31574.05
519.742	31690.78
519.944	31997.98
520.146	32393.23
520.348	32690.19
520.55	32444.43
520.752	33048.58
520.954	33546.24
521.155	33581.06
521.357	33673.21
521.559	34045.94
521.761	34412.53
521.963	34414.58
522.164	34633.71
522.366	34740.21
522.568	35504.1
522.77	35487.71
522.971	35858.4
523.173	35821.53
523.375	36009.95
523.576	36149.21
523.778	36323.29
523.98	36902.86
524.181	36909
524.383	36958.16
524.584	37337.03
524.786	37242.82
524.988	37216.2
525.189	38045.63
525.391	38111.16
525.592	38272.95
525.794	38293.43
525.995	37943.23
526.197	38672.31
526.398	38490.04
526.6	38950.83
526.801	39014.32
527.003	39360.42
527.204	39309.22
527.406	39499.69
527.607	39757.73
527.808	39919.52
528.01	39139.24
528.211	40001.44
528.412	40673.17
528.614	40363.93
528.815	40267.67
529.016	40728.47
529.218	40204.19
529.419	40316.82
529.62	40578.96
529.822	40372.12
530.023	40488.85
530.224	40646.55
530.425	40488.85
530.626	40593.3
530.828	40456.09
531.029	41328.52
531.23	40890.26
531.431	41176.97
531.632	40988.56
531.833	41176.97
532.035	41129.87
532.236	41164.68
532.437	41086.86
532.638	40769.43
532.839	41609.09
533.04	41580.42
533.241	41211.79
533.442	41830.27
533.643	41449.35
533.844	41582.47
534.045	41594.76
534.246	41099.15
534.447	41545.61
534.648	41181.07
534.849	41957.25
535.05	41060.24
535.251	41250.7
535.451	41201.55
535.652	41387.91
535.853	41676.68
536.054	42133.37
536.255	41353.1
536.456	41451.4
536.657	42454.9
536.857	41529.22
537.058	41375.62
537.259	41914.24
537.46	41897.86
537.66	41451.4
537.861	41619.33
538.062	41525.13
538.263	41846.66
538.463	41783.17
538.664	41758.59
538.865	42119.04
539.065	41893.76
539.266	41093
539.466	41768.83
539.667	41152.4
539.868	42043.26
540.068	41643.91
540.269	41404.3
540.469	41756.55
540.67	41551.75
540.87	41904
541.071	41332.62
541.271	41959.3
541.472	41656.2
541.672	41676.68
541.873	41103.24
542.073	41275.27
542.274	41996.16
542.474	41344.91
542.675	41615.24
542.875	41713.54
543.075	41598.85
543.276	41310.09
543.476	41711.49
543.676	41721.73
543.877	41873.28
544.077	41379.72
544.277	41336.71
544.478	41666.44
544.678	41578.37
544.878	41435.02
545.078	41672.58
545.279	41281.42
545.479	41199.5
545.679	41498.5
545.879	41107.34
546.079	41363.34
546.28	41371.53
546.48	41060.24
546.68	41691.01
546.88	41521.03
547.08	41252.75
547.28	41426.82
547.48	40695.7
547.68	41332.62
547.88	41103.24
548.081	41629.57
548.281	41367.43
548.481	41105.29
548.681	41547.65
548.881	40929.17
549.081	41187.21
549.28	41244.55
549.48	41400.2
549.68	40990.61
549.88	41533.32
550.08	41529.22
550.28	41258.89
550.48	41279.37
550.68	41242.51
550.88	40931.22
551.08	41455.5
551.279	41621.38
551.479	41056.14
551.679	41330.57
551.879	41105.29
552.079	41152.4
552.278	40802.19
552.478	41252.75
552.678	41217.93
552.878	41369.48
553.077	41019.28
553.277	41129.87
553.477	41095.05
553.676	41127.82
553.876	40884.11
554.076	41209.74
554.275	40806.29
554.475	40488.85
554.674	40798.1
554.874	40927.12
555.074	40497.05
555.273	40966.03
555.473	40746.9
555.672	40626.07
555.872	40583.06
556.071	41031.57
556.271	40642.45
556.47	40429.46
556.67	40232.86
556.869	40779.67
557.068	40980.37
557.268	40087.45
557.467	40736.66
557.667	40624.02
557.866	40320.92
558.065	40710.03
558.265	40310.68
558.464	40128.41
558.663	40249.24
558.863	39409.57
559.062	40341.4
559.261	40009.63
559.461	40363.93
559.66	39761.83
559.859	40050.59
560.058	39681.95
560.258	39561.12
560.457	39491.49
560.656	40028.06
560.855	39757.73
561.054	39942.05
561.253	39169.96
561.453	39882.66
561.652	39509.93
561.851	39749.54
562.05	39366.57
562.249	39071.66
562.448	39722.91
562.647	39186.35
562.846	39165.87
563.045	39333.8
563.244	39024.56
563.443	39735.2
563.642	38846.38
563.841	38961.07
564.04	38524.85
564.239	39157.67
564.438	38717.36
564.637	38903.73
564.836	38905.77
565.035	38614.96
565.234	38815.66
565.432	38537.14
565.631	38600.63
565.83	38719.41
566.029	38307.77
566.228	38105.02
566.427	38492.08
566.625	38391.73
566.824	37511.11
567.023	38121.4
567.222	37476.29
567.42	37922.75
567.619	37717.95
567.818	37609.41
568.016	37586.88
568.215	38000.57
568.414	37406.66
568.612	38062.01
568.811	37369.8
569.01	37509.06
569.208	37081.03
569.407	37425.09
569.605	36751.31
569.804	37353.41
570.002	36880.33
570.201	37232.58
570.4	36499.41
570.598	36575.19
570.797	36177.88
570.995	36698.06
571.193	36173.78
571.392	36757.46
571.59	36157.4
571.789	35985.37
571.987	36259.8
572.186	36136.92
572.384	35966.94
572.582	36265.94
572.781	35885.02
572.979	35624.93
573.177	35852.25
573.376	35276.77
573.574	35385.32
573.772	36083.67
573.971	35340.26
574.169	35463.14
574.367	35397.6
574.565	35504.1
574.763	35088.36
574.962	34959.34
575.16	34492.4
575.358	34924.52
575.556	34392.05
575.754	34846.7
575.952	34533.36
576.151	34680.81
576.349	34328.56
576.547	34453.49
576.745	34476.02
576.943	34195.45
577.141	34164.73
577.339	34263.03
577.537	33740.8
577.735	33925.11
577.933	33490.94
578.131	33972.22
578.329	33626.11
578.527	33265.67
578.725	33579.01
578.923	33501.18
579.121	33380.35
579.319	32858.12
579.516	33333.25
579.714	32776.2
579.912	33013.77
580.11	33009.67
580.308	33075.21
580.506	32702.48
580.704	32241.68
580.901	32669.71
581.099	32907.27
581.297	32253.97
581.495	32237.59
581.692	32331.79
581.89	32010.26
582.088	32245.78
582.285	31930.39
582.483	32129.05
582.681	32231.44
582.878	31682.59
583.076	31676.44
583.274	31975.45
583.471	31379.49
583.669	31084.58
583.866	31340.58
584.064	31186.98
584.262	30830.63
584.459	31203.36
584.657	30787.63
584.854	31215.65
585.052	30550.06
585.249	31027.24
585.447	30734.38
585.644	30369.84
585.841	30470.19
586.039	30732.33
586.236	30619.69
586.434	30072.89
586.631	30050.36
586.828	30519.34
587.026	30167.09
587.223	30115.89
587.42	29818.94
587.618	30038.07
587.815	29732.92
588.012	29788.22
588.21	29517.89
588.407	29542.46
588.604	29304.9
588.801	29505.6
588.999	29329.47
589.196	29120.58
589.393	29151.3
589.59	28919.88
589.787	29044.8
589.984	28944.45
590.182	28667.98
590.379	28627.02
590.576	28524.62
590.773	28696.65
590.97	28051.54
591.167	28581.96
591.364	28436.56
591.561	28395.6
591.758	28067.92
591.955	27795.54
592.152	27986
592.349	27846.74
592.546	27943
592.743	27947.09
592.94	27332.7
593.137	27564.12
593.334	27689.05
593.531	27447.39
593.727	27650.14
593.924	27609.18
594.121	26925.16
594.318	27474.01
594.515	26826.85
594.712	27209.82
594.908	26796.14
595.105	27058.28
595.302	26443.88
595.499	26628.2
595.696	26593.39
595.892	26601.58
596.089	26325.1
596.286	26667.11
596.482	26308.72
596.679	26445.93
596.876	26429.55
597.072	26089.59
597.269	26126.45
597.466	25917.56
597.662	25979
597.859	25729.14
598.055	25854.07
598.252	25647.22
598.448	25596.03
598.645	25507.96
598.841	25360.51
599.038	25456.76
599.234	25290.88
599.431	24924.29
599.627	24961.16
599.824	25239.68
600.02	25047.17
600.217	24594.57
600.413	24737.93
600.609	24619.14
600.806	24637.58
601.002	24664.2
601.198	24756.36
601.395	24545.42
601.591	24639.62
601.787	24340.62
601.984	24178.83
602.18	24461.45
602.376	24164.5
602.572	24166.54
602.769	24000.66
602.965	23609.5
603.161	23607.45
603.357	23644.31
603.553	23900.31
603.75	23619.74
603.946	23435.42
604.142	23390.36
604.338	23197.85
604.534	23132.32
604.73	22943.91
604.926	23113.89
605.122	22956.19
605.318	22884.51
605.514	22923.43
605.71	22728.87
605.906	22640.81
606.102	22567.08
606.298	22573.22
606.494	22474.92
606.69	22859.94
606.886	22538.41
607.082	22286.51
607.278	22583.46
607.474	22079.66
607.67	22370.47
607.866	21952.69
608.062	22618.28
608.257	22263.98
608.453	21989.55
608.649	21885.11
608.845	21797.04
609.041	22012.08
609.236	21809.33
609.432	21807.28
609.628	21829.81
609.824	21600.44
610.019	21379.26
610.215	21600.44
610.411	21655.73
610.606	21178.56
610.802	21297.34
610.998	21547.19
611.193	21383.35
611.389	21299.39
611.584	21141.69
611.78	21037.25
611.976	20992.19
612.171	21145.79
612.367	20969.66
612.562	20768.96
612.758	20365.51
612.953	20674.76
613.149	21080.25
613.344	20799.68
613.539	21035.2
613.735	20721.86
613.93	20676.8
614.126	20330.7
614.321	20562.12
614.517	20623.56
614.712	20392.14
614.907	20218.06
615.103	20834.5
615.298	20173
615.493	20484.3
615.688	20285.64
615.884	20439.24
616.079	19960.02
616.274	20359.37
616.47	20015.31
616.665	19882.19
616.86	20005.07
617.055	20062.41
617.25	19818.71
617.445	20050.13
617.641	19415.26
617.836	19726.55
618.031	19429.59
618.226	19499.22
618.421	19628.24
618.616	19390.68
618.811	19218.65
619.006	19638.48
619.201	19232.99
619.396	19275.99
619.591	18954.46
619.786	19349.72
619.981	18882.78
620.176	19138.78
620.371	18620.64
620.566	18723.04
620.761	18532.58
620.956	18825.44
621.151	18360.55
621.346	18399.46
621.541	18032.88
621.735	18329.83
621.93	17840.37
622.125	18233.58
622.32	17764.59
622.515	18043.12
622.709	17471.73
622.904	17783.02
623.099	17606.9
623.294	17608.95
623.488	17334.52
623.683	17412.34
623.878	17197.31
624.072	17105.15
624.267	17244.41
624.462	16984.32
624.656	16931.07
624.851	16910.59
625.046	16537.86
625.24	16431.37
625.435	16216.33
625.629	16582.91
625.824	16576.77
626.018	16292.1
626.213	15827.21
626.407	16036.11
626.602	15739.15
626.796	15931.66
626.991	15825.17
627.185	15651.09
627.38	15640.85
627.574	15534.35
627.768	15403.28
627.963	15565.07
628.157	15141.14
628.352	15237.4
628.546	15169.82
628.74	15231.26
628.935	14911.77
629.129	15120.67
629.323	14770.46
629.517	14899.48
629.712	14467.36
629.906	14506.27
630.1	14344.49
630.294	14592.29
630.489	14448.93
630.683	14651.68
630.877	13955.37
631.071	14014.76
631.265	13994.28
631.459	13961.51
631.653	13709.61
631.848	13875.5
632.042	13773.1
632.236	13844.78
632.43	13633.84
632.624	13682.99
632.818	13650.22
633.012	13234.49
633.206	13302.07
633.4	13242.68
633.594	13166.9
633.788	13095.22
633.982	13177.14
634.176	12994.87
634.369	13048.12
634.563	12861.76
634.757	12593.47
634.951	12476.74
635.145	12792.12
635.339	12712.25
635.533	12575.04
635.726	12511.55
635.92	12509.51
636.114	12339.52
636.308	12208.45
636.501	12304.71
636.695	12298.56
636.889	11813.2
637.083	12370.24
637.276	11839.82
637.47	11833.68
637.664	11958.6
637.857	11665.74
638.051	11766.09
638.244	11647.31
638.438	11678.03
638.632	11536.72
638.825	11376.98
639.019	11270.48
639.212	11217.24
639.406	11237.72
639.599	11311.44
639.793	11182.42
639.986	11188.57
640.18	11051.35
640.373	10924.38
640.567	10758.49
640.76	10854.75
640.954	10852.7
641.147	10721.63
641.34	10584.41
641.534	10664.29
641.727	10543.46
641.92	10518.88
642.114	10408.29
642.307	10312.03
642.5	10232.16
642.694	10101.09
642.887	10271.08
643.08	10332.51
643.273	10109.29
643.467	9922.92
643.66	9861.48
643.853	9902.44
644.046	9990.5
644.239	9951.59
644.432	9681.26
644.626	9529.71
644.819	9582.96
645.012	9519.47
645.205	9521.52
645.398	9601.39
645.591	9625.97
645.784	9484.66
645.977	9210.23
646.17	9261.43
646.363	9159.03
646.556	8960.38
646.749	9068.92
646.942	9249.14
647.135	8946.04
647.328	8862.07
647.521	8905.08
647.714	8763.77
647.907	8716.67
648.099	8855.93
648.292	8855.93
648.485	8501.63
648.678	8550.78
648.871	8569.21
649.064	8542.59
649.256	8452.48
649.449	8284.55
649.642	8176
649.835	8184.2
650.027	8335.74
650.22	8079.75
650.413	8092.04
650.605	8120.71
650.798	8198.53
650.991	7936.39
651.183	8022.41
651.376	7948.68
651.568	7827.85
651.761	7776.65
651.954	7905.67
652.146	7874.95
652.339	7790.99
652.531	7715.21
652.724	7571.85
652.916	7483.79
653.109	7512.46
653.301	7461.26
653.494	7580.04
653.686	7412.11
653.879	7547.28
654.071	7313.81
654.263	7332.24
654.456	7223.7
654.648	7373.2
654.84	7100.82
655.033	7215.51
655.225	7086.48
655.417	7059.86
655.61	6785.43
655.802	7004.57
655.994	7111.06
656.186	6781.34
656.379	6971.8
656.571	6756.76
656.763	6619.55
656.955	6760.86
657.148	6668.7
657.34	6642.07
657.532	6646.17
657.724	6459.81
657.916	6580.64
658.108	6404.51
658.3	6371.74
658.492	6498.72
658.684	6234.53
658.876	6316.45
659.068	6302.11
659.26	6128.03
659.452	6328.74
659.644	6113.7
659.836	6109.6
660.028	6109.6
660.22	6080.93
660.412	5878.18
660.604	5921.19
660.796	5839.27
660.988	5824.94
661.18	5775.78
661.372	5829.03
661.563	5878.18
661.755	5806.5
661.947	5673.39
662.139	5597.61
662.331	5593.51
662.522	5620.14
662.714	5622.19
662.906	5470.64
663.097	5513.64
663.289	5433.77
663.481	5464.49
663.673	5271.98
663.864	5280.18
664.056	5319.09
664.247	5274.03
664.439	5286.32
664.631	5249.46
664.822	5339.57
665.014	5145.01
665.205	5075.38
665.397	5185.97
665.588	5050.8
665.78	4962.74
665.971	5026.23
666.163	4964.79
666.354	4880.82
666.546	4850.1
666.737	4803
666.929	4940.21
667.12	4776.38
667.311	4782.52
667.503	4706.74
667.694	4764.09
667.885	4637.11
668.077	4733.37
668.268	4524.47
668.459	4614.59
668.651	4581.82
668.842	4471.23
669.033	4585.91
669.224	4426.17
669.416	4647.35
669.607	4415.93
669.798	4336.06
669.989	4497.85
670.18	4299.2
670.371	4426.17
670.563	4321.73
670.754	4278.72
670.945	4202.94
671.136	4284.86
671.327	4219.33
671.518	4075.97
671.709	4258.24
671.9	4102.59
672.091	4217.28
672.282	4131.26
672.473	4200.9
672.664	4086.21
672.855	3926.47
673.046	4014.53
673.237	4053.44
673.428	3893.7
673.619	4041.15
673.809	4065.73
674	3983.81
674.191	3877.32
674.382	3840.45
674.573	4069.83
674.764	3916.23
674.954	3963.33
675.145	3779.01
675.336	3817.93
675.527	3676.62
675.717	3828.17
675.908	3637.7
676.099	3799.49
676.289	3754.44
676.48	3719.62
676.671	3709.38
676.861	3842.5
677.052	3580.36
677.243	3535.31
677.433	3729.86
677.624	3672.52
677.814	3568.07
678.005	3602.89
678.195	3523.02
678.386	3592.65
678.576	3619.27
678.767	3588.55
678.957	3545.55
679.148	3523.02
679.338	3539.4
679.529	3455.44
679.719	3498.44
679.909	3570.12
680.1	3443.15
680.29	3398.09
680.481	3439.05
680.671	3586.51
680.861	3439.05
681.052	3346.89
681.242	3439.05
681.432	3488.2
681.622	3293.65
681.813	3275.21
682.003	3432.91
682.193	3492.3
682.383	3414.48
682.573	3416.52
682.764	3250.64
682.954	3275.21
683.144	3455.44
683.334	3377.61
683.524	3334.61
683.714	3406.28
683.904	3258.83
684.094	3307.98
684.284	3332.56
684.474	3424.72
684.664	3252.69
684.854	3252.69
685.044	3119.57
685.234	3068.37
685.424	3170.77
685.614	3221.97
685.804	3203.54
685.994	3193.3
686.184	3031.51
686.374	3090.9
686.564	3086.8
686.753	3082.7
686.943	3064.27
687.133	3097.04
687.323	3097.04
687.513	3201.49
687.702	3115.47
687.892	3244.49
688.082	2996.69
688.272	3103.18
688.461	2968.02
688.651	3176.91
688.841	3103.18
689.03	3068.37
689.22	2900.44
689.41	2982.35
689.599	2959.83
689.789	2904.53
689.979	2947.54
690.168	2808.28
690.358	2925.01
690.547	2990.55
690.737	3103.18
690.926	3072.47
691.116	2849.24
691.305	2849.24
691.495	2857.43
691.684	2791.89
691.874	3017.17
692.063	2982.35
692.252	2914.77
692.442	2902.48
692.631	2832.85
692.82	2925.01
693.01	2752.98
693.199	2988.5
693.388	2826.71
693.578	2871.76
693.767	2787.8
693.956	2795.99
694.146	2791.89
694.335	2709.97
694.524	2763.22
694.713	2779.61
694.902	2783.7
695.092	2834.9
695.281	2738.65
695.47	2660.82
695.659	2800.09
695.848	2703.83
696.037	2728.41
696.226	2709.97
696.415	2742.74
696.604	2722.26
696.793	2660.82
696.982	2771.41
697.171	2806.23
697.36	2763.22
697.549	2576.86
697.738	2689.49
697.927	2730.45
698.116	2752.98
698.305	2630.1
698.494	2693.59
698.683	2673.11
698.872	2628.06
699.061	2648.54
699.25	2517.47
699.438	2650.58
699.627	2638.3
699.816	2742.74
700.005	2611.67
700.193	2583
700.382	2466.27
700.571	2662.87
700.76	2634.2
700.948	2636.25
701.137	2679.26
701.326	2537.95
701.514	2531.8
701.703	2648.54
701.892	2505.18
702.08	2714.07
702.269	2605.53
702.457	2542.04
702.646	2574.81
702.834	2482.65
703.023	2406.88
703.212	2415.07
703.4	2357.72
703.589	2480.6
703.777	2492.89
703.965	2415.07
704.154	2394.59
704.342	2390.49
704.531	2449.88
704.719	2458.07
704.907	2449.88
705.096	2337.24
705.284	2370.01
705.472	2505.18
705.661	2449.88
705.849	2456.03
706.037	2351.58
706.226	2382.3
706.414	2406.88
706.602	2292.19
706.79	2367.96
706.979	2290.14
707.167	2417.12
707.355	2322.91
707.543	2343.39
707.731	2458.07
707.919	2322.91
708.107	2136.54
708.296	2253.28
708.484	2253.28
708.672	2361.82
708.86	2245.09
709.048	2363.87
709.236	2333.15
709.424	2238.94
709.612	2353.63
709.8	2245.09
709.988	2218.46
710.176	2292.19
710.364	2210.27
710.551	2271.71
710.739	2169.31
710.927	2200.03
711.115	2300.38
711.303	2292.19
711.491	2269.66
711.679	2251.23
711.866	2183.65
712.054	2214.37
712.242	2181.6
712.43	2281.95
712.617	2120.16
712.805	2261.47
712.993	2126.3
713.181	2079.2
713.368	2167.26
713.556	2152.93
713.744	2040.29
713.931	2132.45
714.119	2120.16
714.306	2062.82
714.494	2073.06
714.682	2120.16
714.869	2210.27
715.057	2169.31
715.244	2111.97
715.432	2099.68
715.619	2114.02
715.807	2071.01
715.994	2025.95
716.182	2021.86
716.369	2009.57
716.556	2073.06
716.744	2015.71
716.931	2120.16
717.119	2044.38
717.306	2054.62
717.493	2054.62
717.681	2083.3
717.868	1935.84
718.055	2013.67
718.242	2021.86
718.43	2095.58
718.617	2040.29
718.804	2017.76
718.991	2001.38
719.179	2038.24
719.366	2066.91
719.553	2046.43
719.74	2021.86
719.927	1997.28
720.114	1901.03
720.301	1835.49
720.488	1903.07
720.676	1872.36
720.863	1894.88
721.05	1872.36
721.237	1886.69
721.424	1909.22
721.611	1866.21
721.798	1843.68
721.985	1878.5
722.172	1839.59
722.358	1866.21
722.545	1894.88
722.732	1884.64
722.919	1884.64
723.106	1784.29
723.293	1892.84
723.48	1931.75
723.667	1784.29
723.853	1851.88
724.04	1845.73
724.227	1886.69
724.414	1860.07
724.6	1825.25
724.787	1726.95
724.974	1772
725.161	1858.02
725.347	1776.1
725.534	1694.18
725.72	1894.88
725.907	1839.59
726.094	1735.14
726.28	1772
726.467	1772
726.653	1776.1
726.84	1800.68
727.027	1917.41
727.213	1843.68
727.4	1823.2
727.586	1636.84
727.773	1759.72
727.959	1753.57
728.145	1720.81
728.332	1608.17
728.518	1669.61
728.705	1751.53
728.891	1618.41
729.077	1726.95
729.264	1741.29
729.45	1655.27
729.636	1659.37
729.823	1810.92
730.009	1718.76
730.195	1796.58
730.382	1784.29
730.568	1694.18
730.754	1669.61
730.94	1706.47
731.126	1688.04
731.313	1759.72
731.499	1671.65
731.685	1718.76
731.871	1626.6
732.057	1704.42
732.243	1661.41
732.429	1622.5
732.615	1714.66
732.801	1608.17
732.987	1581.54
733.173	1677.8
733.359	1614.31
733.545	1581.54
733.731	1583.59
733.917	1702.37
734.103	1556.97
734.289	1571.3
734.475	1571.3
734.661	1653.22
734.847	1710.57
735.033	1571.3
735.219	1618.41
735.404	1532.39
735.59	1628.65
735.776	1440.23
735.962	1550.82
736.148	1628.65
736.333	1473
736.519	1548.78
736.705	1491.43
736.89	1530.34
737.076	1513.96
737.262	1497.58
737.447	1491.43
737.633	1481.19
737.819	1591.78
738.004	1559.02
738.19	1434.09
738.375	1401.32
738.561	1475.05
738.747	1542.63
738.932	1509.86
739.118	1530.34
739.303	1452.52
739.489	1485.29
739.674	1513.96
739.859	1501.67
740.045	1434.09
740.23	1399.27
740.416	1464.81
740.601	1595.88
740.786	1368.56
740.972	1325.55
741.157	1481.19
741.342	1341.93
741.528	1491.43
741.713	1456.62
741.898	1403.37
742.084	1401.32
742.269	1327.6
742.454	1397.23
742.639	1423.85
742.824	1362.41
743.01	1356.27
743.195	1401.32
743.38	1458.67
743.565	1300.97
743.75	1343.98
743.935	1305.07
744.12	1432.04
744.305	1262.06
744.49	1243.63
744.675	1229.29
744.86	1389.03
745.045	1300.97
745.23	1333.74
745.415	1204.72
745.6	1313.26
745.785	1366.51
745.97	1229.29
746.155	1311.21
746.34	1266.16
746.525	1190.38
746.71	1286.64
746.895	1186.29
747.079	1133.04
747.264	1167.85
747.449	1202.67
747.634	1206.77
747.819	1139.18
748.003	1178.09
748.188	1194.48
748.373	1096.18
748.557	1169.9
748.742	1137.13
748.927	1184.24
749.111	1100.27
749.296	1106.42
749.481	1155.57
749.665	1087.98
749.85	1067.5
750.034	1077.74
750.219	1022.45
750.404	1038.83
750.588	1038.83
750.773	1038.83
750.957	1092.08
751.141	1030.64
751.326	1038.83
751.51	1006.06
751.695	1096.18
751.879	1001.97
752.064	1108.46
752.248	1073.65
752.432	1063.41
752.617	1081.84
752.801	997.87
752.985	1063.41
753.17	956.91
753.354	952.82
753.538	965.11
753.722	915.95
753.907	958.96
754.091	975.35
754.275	874.99
754.459	936.43
754.643	899.57
754.828	899.57
755.012	956.91
755.196	918
755.38	897.52
755.564	942.58
755.748	930.29
755.932	979.44
756.116	844.28
756.3	920.05
756.484	883.19
756.668	883.19
756.852	827.89
757.036	834.04
757.22	733.68
757.404	807.41
757.588	879.09
757.772	862.71
757.956	752.12
758.14	877.04
758.323	809.46
758.507	827.89
758.691	836.08
758.875	842.23
759.059	735.73
759.242	850.42
759.426	909.81
759.61	834.04
759.794	739.83
759.977	846.32
760.161	829.94
760.345	707.06
760.528	705.01
760.712	698.87
760.895	778.74
761.079	668.15
761.263	678.39
761.446	700.92
761.63	727.54
761.813	819.7
761.997	719.35
762.18	719.35
762.364	725.49
762.547	809.46
762.731	731.64
762.914	715.25
763.098	653.81
763.281	670.2
763.464	776.69
763.648	678.39
763.831	764.4
764.015	670.2
764.198	694.77
764.381	694.77
764.564	612.85
764.748	707.06
764.931	713.21
765.114	649.72
765.297	784.88
765.481	608.76
765.664	737.78
765.847	727.54
766.03	588.28
766.213	641.53
766.397	621.05
766.58	604.66
766.763	713.21
766.946	584.18
767.129	612.85
767.312	551.42
767.495	588.28
767.678	614.9
767.861	598.52
768.044	625.14
768.227	623.09
768.41	516.6
768.593	670.2
768.776	604.66
768.959	530.94
769.142	631.29
769.324	662.01
769.507	571.9
769.69	604.66
769.873	668.15
770.056	621.05
770.239	637.43
770.421	584.18
770.604	672.25
770.787	619
770.97	539.13
771.152	623.09
771.335	547.32
771.518	621.05
771.7	563.7
771.883	551.42
772.066	604.66
772.248	598.52
772.431	637.43
772.613	563.7
772.796	623.09
772.978	573.94
773.161	621.05
773.343	573.94
773.526	535.03
773.708	477.69
773.891	494.07
774.073	580.09
774.256	485.88
774.438	623.09
774.621	514.55
774.803	559.61
774.985	528.89
775.168	489.98
775.35	543.22
775.532	530.94
775.715	475.64
775.897	510.46
776.079	487.93
776.261	573.94
776.444	440.83
776.626	498.17
776.808	504.31
776.99	426.49
777.173	530.94
777.355	571.9
777.537	434.68
777.719	465.4
777.901	471.54
778.083	457.21
778.265	449.02
778.447	526.84
778.629	475.64
778.811	446.97
778.993	399.87
779.175	436.73
779.357	553.46
779.539	358.91
779.721	481.78
779.903	436.73
780.085	471.54
780.267	442.87
780.449	399.87
780.631	508.41
780.812	416.25
780.994	418.3
781.176	354.81
781.358	360.95
781.54	403.96
781.721	436.73
781.903	422.39
782.085	391.67
782.267	494.07
782.448	367.1
782.63	330.23
782.812	451.07
782.993	436.73
783.175	446.97
783.357	311.8
783.538	449.02
783.72	395.77
783.901	408.06
784.083	416.25
784.264	434.68
784.446	375.29
784.627	309.76
784.809	377.34
784.99	385.53
785.172	328.19
785.353	342.52
785.535	326.14
785.716	330.23
785.897	307.71
786.079	344.57
786.26	360.95
786.441	383.48
786.623	354.81
786.804	322.04
786.985	293.37
787.167	309.76
787.348	326.14
787.529	293.37
787.71	330.23
787.891	256.51
788.073	295.42
788.254	274.94
788.435	348.67
788.616	309.76
788.797	268.8
788.978	293.37
789.159	240.12
789.34	279.04
789.522	260.6
789.703	322.04
789.884	287.23
790.065	285.18
790.246	309.76
790.427	301.56
790.607	268.8
790.788	326.14
790.969	203.26
791.15	309.76
791.331	182.78
791.512	201.21
791.693	170.49
791.874	326.14
792.054	295.42
792.235	254.46
792.416	184.83
792.597	221.69
792.778	248.32
792.958	303.61
793.139	248.32
793.32	215.55
793.5	104.96
793.681	260.6
793.862	262.65
794.042	260.6
794.223	117.25
794.404	238.08
794.584	162.3
794.765	250.36
794.945	221.69
795.126	293.37
795.306	176.64
795.487	203.26
795.667	246.27
795.848	252.41
796.028	260.6
796.209	223.74
796.389	268.8
796.57	211.45
796.75	236.03
796.93	178.69
797.111	162.3
797.291	215.55
797.471	213.5
797.652	223.74
797.832	233.98
798.012	262.65
798.192	178.69
798.373	147.97
798.553	207.36
798.733	227.84
798.913	190.97
799.093	184.83
799.274	117.25
799.454	270.84
799.634	219.64
799.814	227.84
799.994	156.16
800.174	135.68
800.354	195.07
800.534	236.03
800.714	188.93
800.894	133.63
801.074	129.53
801.254	186.88
801.434	190.97
801.614	195.07
801.794	121.34
801.974	758.26
802.154	172.54
802.334	174.59
802.514	113.15
802.693	123.39
802.873	236.03
803.053	225.79
803.233	178.69
803.413	156.16
803.592	203.26
803.772	193.02
803.952	117.25
804.131	43.52
804.311	154.11
804.491	154.11
804.67	113.15
804.85	143.87
805.03	141.82
805.209	260.6
805.389	137.73
805.568	160.25
805.748	186.88
805.928	137.73
806.107	223.74
806.287	150.01
806.466	172.54
806.646	133.63
806.825	109.05
807.004	104.96
807.184	139.77
807.363	125.44
807.543	131.58
807.722	66.05
807.901	199.16
808.081	145.92
808.26	70.14
808.439	158.21
808.619	137.73
808.798	162.3
808.977	92.67
809.156	137.73
809.336	72.19
809.515	193.02
809.694	66.05
809.873	78.33
810.052	207.36
810.231	143.87
810.411	178.69
810.59	141.82
810.769	127.49
810.948	178.69
811.127	43.52
811.306	131.58
811.485	109.05
811.664	107.01
811.843	125.44
812.022	109.05
812.201	162.3
812.38	131.58
812.559	135.68
812.737	162.3
812.916	154.11
813.095	127.49
813.274	158.21
813.453	94.72
813.632	39.42
813.811	186.88
813.989	49.66
814.168	172.54
814.347	119.29
814.526	125.44
814.704	166.4
814.883	188.93
815.062	90.62
815.24	84.48
815.419	127.49
815.598	109.05
815.776	92.67
815.955	104.96
816.133	96.77
816.312	72.19
816.49	88.57
816.669	117.25
816.847	49.66
817.026	115.2
817.204	68.09
817.383	80.38
817.561	100.86
817.74	107.01
817.918	117.25
818.097	72.19
818.275	82.43
818.453	96.77
818.632	139.77
818.81	98.81
818.988	14.85
819.167	121.34
819.345	115.2
819.523	131.58
819.701	133.63
819.879	64
820.058	94.72
820.236	51.71
820.414	53.76
820.592	47.62
820.77	39.42
820.948	57.86
821.127	41.47
821.305	117.25
821.483	88.57
821.661	156.16
821.839	57.86
822.017	137.73
822.195	121.34
822.373	174.59
822.551	115.2
822.729	96.77
822.907	80.38
823.085	66.05
823.262	14.85
823.44	174.59
823.618	80.38
823.796	115.2
823.974	64
824.152	53.76
824.329	47.62
824.507	35.33
824.685	107.01
824.863	82.43
825.04	72.19
825.218	70.14
825.396	6.66
825.574	16.9
825.751	72.19
825.929	61.95
826.107	-15.87
826.284	96.77
826.462	80.38
826.639	113.15
826.817	-34.3
826.994	80.38
827.172	-22.02
827.349	66.05
827.527	6.66
827.704	39.42
827.882	66.05
828.059	51.71
828.237	23.04
828.414	53.76
828.591	-65.02
828.769	98.81
828.946	41.47
829.124	45.57
829.301	143.87
829.478	16.9
829.655	61.95
829.833	76.29
830.01	-17.92
830.187	47.62
830.364	121.34
830.542	98.81
830.719	117.25
830.896	96.77
831.073	55.81
831.25	80.38
831.427	180.73
831.604	100.86
831.782	49.66
831.959	43.52
832.136	39.42
832.313	94.72
832.49	55.81
832.667	27.14
832.844	16.9
833.021	107.01
833.198	20.99
833.374	96.77
833.551	88.57
833.728	47.62
833.905	109.05
834.082	92.67
834.259	14.85
834.436	96.77
834.612	8.7
834.789	137.73
834.966	96.77
835.143	59.9
835.319	55.81
835.496	23.04
835.673	61.95
835.85	154.11
836.026	10.75
836.203	82.43
836.38	10.75
836.556	100.86
836.733	53.76
836.909	64
837.086	53.76
837.262	59.9
837.439	23.04
837.616	47.62
837.792	88.57
837.968	-11.78
838.145	27.14
838.321	68.09
838.498	143.87
838.674	72.19
838.851	59.9
839.027	64
839.203	23.04
839.38	88.57
839.556	12.8
839.732	80.38
839.909	16.9
840.085	27.14
840.261	39.42
840.437	68.09
840.614	-1.54
840.79	61.95
840.966	86.53
841.142	66.05
841.318	100.86
841.494	64
841.671	51.71
841.847	25.09
842.023	-5.63
842.199	23.04
842.375	8.7
842.551	-24.06
842.727	29.18
842.903	43.52
843.079	84.48
843.255	31.23
843.431	80.38
843.607	-9.73
843.783	27.14
843.959	72.19
844.134	-17.92
844.31	41.47
844.486	10.75
844.662	164.35
844.838	-9.73
845.013	72.19
845.189	64
845.365	129.53
845.541	-13.82
845.716	80.38
845.892	47.62
846.068	104.96
846.244	72.19
846.419	104.96
846.595	66.05
846.77	55.81
846.946	49.66
847.122	43.52
847.297	6.66
847.473	90.62
847.648	-15.87
847.824	31.23
847.999	-1.54
848.175	51.71
848.35	23.04
848.526	96.77
848.701	-46.59
848.876	64
849.052	109.05
849.227	8.7
849.403	39.42
849.578	-15.87
849.753	14.85
849.929	-17.92
850.104	23.04
850.279	-1.54
850.454	72.19
850.63	-13.82
850.805	80.38
850.98	53.76
851.155	57.86
851.33	16.9
851.505	39.42
851.681	31.23
851.856	-24.06
852.031	64
852.206	96.77
852.381	57.86
852.556	53.76
852.731	80.38
852.906	23.04
853.081	113.15
853.256	29.18
853.431	-17.92
853.606	-26.11
853.781	6.66
853.956	-32.26
854.131	25.09
854.305	72.19
854.48	41.47
854.655	-85.5
854.83	98.81
855.005	16.9
855.18	6.66
855.354	55.81
855.529	31.23
855.704	-28.16
855.879	6.66
856.053	43.52
856.228	-19.97
856.403	23.04
856.577	-42.5
856.752	14.85
856.926	64
857.101	72.19
857.276	2.56
857.45	111.1
857.625	14.85
857.799	43.52
857.974	23.04
858.148	-3.58
858.323	137.73
858.497	-22.02
858.672	23.04
858.846	4.61
859.02	98.81
859.195	-30.21
859.369	-13.82
859.543	45.57
859.718	-11.78
859.892	31.23
860.066	51.71
860.241	-50.69
860.415	-1.54
860.589	-38.4
860.763	-1.54
860.938	6.66
861.112	33.28
861.286	-22.02
861.46	74.24
861.634	66.05
861.808	8.7
861.982	-7.68
862.157	31.23
862.331	47.62
862.505	-9.73
862.679	-24.06
862.853	0.51
863.027	-17.92
863.201	31.23
863.375	-1.54
863.549	-1.54
863.722	25.09
863.896	31.23
864.07	35.33
864.244	2.56
864.418	84.48
864.592	25.09
864.766	0.51
864.939	8.7
865.113	20.99
865.287	107.01
865.461	51.71
865.634	-9.73
865.808	35.33
865.982	43.52
866.156	-28.16
866.329	-22.02
866.503	90.62
866.676	59.9
866.85	80.38
867.024	14.85
867.197	29.18
867.371	31.23
867.544	57.86
867.718	-52.74
867.891	-3.58
868.065	-7.68
868.238	47.62
868.412	115.2
868.585	16.9
868.759	82.43
868.932	-19.97
869.105	29.18
869.279	-1.54
869.452	-5.63
869.625	64
869.799	20.99
869.972	47.62
870.145	27.14
870.319	6.66
870.492	-22.02
870.665	-38.4
870.838	14.85
871.011	-46.59
871.185	47.62
871.358	-52.74
871.531	72.19
871.704	-58.88
871.877	-15.87
872.05	14.85
872.223	-1.54
872.396	-42.5
872.569	-40.45
872.742	-26.11
872.915	-7.68
873.088	-17.92
873.261	-71.17
873.434	-17.92
873.607	33.28
873.78	31.23
873.953	41.47
874.126	64
874.299	76.29
874.471	-1.54
874.644	64
874.817	33.28
874.99	-26.11
875.163	39.42
875.335	6.66
875.508	35.33
875.681	41.47
875.853	18.94
876.026	66.05
876.199	8.7
876.371	64
876.544	23.04
876.717	29.18
876.889	10.75
877.062	45.57
877.234	-17.92
877.407	31.23
877.579	-11.78
877.752	-5.63
877.924	20.99
878.097	20.99
878.269	6.66
878.442	20.99
878.614	-34.3
878.786	47.62
878.959	72.19
879.131	31.23
879.303	-71.17
879.476	-48.64
879.648	16.9
879.82	-26.11
879.993	29.18
880.165	25.09
880.337	-54.78
880.509	10.75
880.681	-26.11
880.854	-26.11
881.026	23.04
881.198	-46.59
881.37	-54.78
881.542	31.23
881.714	-40.45
881.886	27.14
882.058	-24.06
882.23	49.66
882.402	-46.59
882.574	31.23
882.746	-56.83
882.918	39.42
883.09	39.42
883.262	-58.88
883.434	45.57
883.606	-46.59
883.778	45.57
883.95	100.86
884.122	68.09
884.293	23.04
884.465	35.33
884.637	78.33
884.809	18.94
884.98	-15.87
885.152	14.85
885.324	31.23
885.496	35.33
885.667	68.09
885.839	6.66
886.011	37.38
886.182	-17.92
886.354	33.28
886.525	-26.11
886.697	4.61
886.869	23.04
887.04	31.23
887.212	29.18
887.383	2.56
887.555	-38.4
887.726	-7.68
887.897	-36.35
888.069	-28.16
888.24	37.38
888.412	23.04
888.583	-42.5
888.754	-34.3
888.926	-1.54
889.097	-34.3
889.268	-13.82
889.44	74.24
889.611	27.14
889.782	-46.59
889.953	-7.68
890.125	-30.21
890.296	6.66
890.467	-77.31
890.638	-38.4
890.809	0.51
890.98	2.56
891.151	55.81
891.323	16.9
891.494	-9.73
891.665	25.09
891.836	66.05
892.007	-26.11
892.178	-36.35
892.349	49.66
892.52	27.14
892.691	-56.83
892.862	6.66
893.032	-26.11
893.203	0.51
893.374	23.04
893.545	59.9
893.716	47.62
893.887	-1.54
894.057	18.94
894.228	66.05
894.399	18.94
894.57	72.19
894.74	-17.92
894.911	23.04
895.082	-9.73
895.253	43.52
895.423	23.04
895.594	-5.63
895.764	-52.74
895.935	14.85
896.106	10.75
896.276	31.23
896.447	-19.97
896.617	14.85
896.788	55.81
896.958	35.33
897.129	-28.16
897.299	-1.54
897.47	80.38
897.64	47.62
897.81	-24.06
897.981	64
898.151	-9.73
898.322	-34.3
898.492	12.8
898.662	-17.92
898.832	4.61
899.003	27.14
899.173	39.42
899.343	49.66
899.513	-56.83
