Data from USB4F104151__301__14-46-38-831.txt Node

Date: Thu Mar 13 14:46:38 EDT 2025
User: louis
Spectrometer: USB4F10415
Trigger mode: 4
Integration Time (sec): 2.000000E-2
Scans to average: 1
Electric dark correction enabled: true
Nonlinearity correction enabled: false
Boxcar width: 0
XAxis mode: Wavelengths
Number of Pixels in Spectrum: 3648
>>>>>Begin Spectral Data<<<<<
178.204	-85.16
178.424	-85.16
178.644	-85.16
178.864	-158.89
179.084	-140.46
179.304	-3.24
179.524	-13.48
179.744	68.44
179.964	62.29
180.184	-79.02
180.404	64.34
180.624	11.09
180.844	-50.35
181.064	-38.06
181.283	-13.48
181.503	-29.87
181.723	21.33
181.943	-38.06
182.163	27.48
182.383	-11.43
182.602	58.2
182.822	-23.72
183.042	52.05
183.262	52.05
183.482	-3.24
183.701	45.91
183.921	56.15
184.141	25.43
184.361	93.01
184.58	39.76
184.8	39.76
185.02	70.48
185.239	37.72
185.459	33.62
185.679	-13.48
185.898	-56.49
186.118	43.86
186.338	23.38
186.557	76.63
186.777	0.85
186.997	43.86
187.216	-29.87
187.436	70.48
187.655	-56.49
187.875	39.76
188.095	19.29
188.314	107.35
188.534	31.57
188.753	-21.67
188.973	19.29
189.192	54.1
189.412	52.05
189.631	7
189.851	23.38
190.07	72.53
190.29	31.57
190.509	-11.43
190.729	11.09
190.948	52.05
191.168	113.49
191.387	70.48
191.607	-11.43
191.826	-3.24
192.045	78.68
192.265	29.52
192.484	95.06
192.704	-1.19
192.923	19.29
193.142	37.72
193.362	15.19
193.581	125.78
193.8	80.72
194.02	33.62
194.239	7
194.458	-1.19
194.678	39.76
194.897	-19.63
195.116	76.63
195.335	11.09
195.555	13.14
195.774	19.29
195.993	19.29
196.212	37.72
196.432	19.29
196.651	39.76
196.87	41.81
197.089	97.11
197.308	62.29
197.528	95.06
197.747	-50.35
197.966	31.57
198.185	39.76
198.404	-11.43
198.623	45.91
198.842	27.48
199.062	31.57
199.281	68.44
199.5	11.09
199.719	35.67
199.938	60.24
200.157	109.4
200.376	47.96
200.595	56.15
200.814	35.67
201.033	-11.43
201.252	43.86
201.471	58.2
201.69	13.14
201.909	-3.24
202.128	54.1
202.347	47.96
202.566	-31.91
202.785	15.19
203.004	-21.67
203.223	76.63
203.442	35.67
203.661	47.96
203.879	2.9
204.098	33.62
204.317	-5.29
204.536	50
204.755	13.14
204.974	31.57
205.193	17.24
205.411	86.87
205.63	23.38
205.849	109.4
206.068	25.43
206.287	33.62
206.505	68.44
206.724	56.15
206.943	58.2
207.162	43.86
207.381	-9.39
207.599	-5.29
207.818	39.76
208.037	13.14
208.255	-9.39
208.474	29.52
208.693	72.53
208.911	84.82
209.13	4.95
209.349	117.59
209.567	45.91
209.786	72.53
210.005	58.2
210.223	66.39
210.442	-36.01
210.661	76.63
210.879	76.63
211.098	27.48
211.316	19.29
211.535	86.87
211.753	13.14
211.972	105.3
212.191	0.85
212.409	105.3
212.628	13.14
212.846	45.91
213.065	37.72
213.283	7
213.502	-13.48
213.72	31.57
213.938	72.53
214.157	19.29
214.375	43.86
214.594	11.09
214.812	60.24
215.031	54.1
215.249	-19.63
215.467	47.96
215.686	-5.29
215.904	101.2
216.122	-31.91
216.341	60.24
216.559	50
216.778	68.44
216.996	35.67
217.214	29.52
217.432	-33.96
217.651	35.67
217.869	19.29
218.087	37.72
218.306	9.05
218.524	56.15
218.742	27.48
218.96	21.33
219.179	54.1
219.397	-5.29
219.615	66.39
219.833	101.2
220.051	7
220.27	54.1
220.488	17.24
220.706	11.09
220.924	43.86
221.142	-11.43
221.36	11.09
221.578	-9.39
221.796	-9.39
222.015	60.24
222.233	2.9
222.451	17.24
222.669	-25.77
222.887	21.33
223.105	-25.77
223.323	-5.29
223.541	7
223.759	72.53
223.977	-11.43
224.195	76.63
224.413	-11.43
224.631	43.86
224.849	-19.63
225.067	37.72
225.285	13.14
225.503	62.29
225.721	4.95
225.939	29.52
226.157	13.14
226.375	60.24
226.592	19.29
226.81	43.86
227.028	17.24
227.246	21.33
227.464	31.57
227.682	37.72
227.9	2.9
228.117	19.29
228.335	43.86
228.553	62.29
228.771	-19.63
228.989	19.29
229.206	25.43
229.424	54.1
229.642	15.19
229.86	7
230.077	-1.19
230.295	70.48
230.513	56.15
230.731	54.1
230.948	39.76
231.166	52.05
231.384	-9.39
231.601	-9.39
231.819	-3.24
232.037	47.96
232.254	-5.29
232.472	9.05
232.689	19.29
232.907	127.83
233.125	39.76
233.342	47.96
233.56	39.76
233.777	-13.48
233.995	-21.67
234.213	54.1
234.43	47.96
234.648	15.19
234.865	50
235.083	-29.87
235.3	101.2
235.518	0.85
235.735	72.53
235.953	4.95
236.17	45.91
236.388	54.1
236.605	-13.48
236.822	72.53
237.04	64.34
237.257	-27.82
237.475	-15.53
237.692	-11.43
237.909	2.9
238.127	11.09
238.344	33.62
238.562	39.76
238.779	47.96
238.996	-9.39
239.214	27.48
239.431	76.63
239.648	74.58
239.865	76.63
240.083	43.86
240.3	-29.87
240.517	-29.87
240.735	-5.29
240.952	47.96
241.169	45.91
241.386	41.81
241.603	35.67
241.821	-3.24
242.038	60.24
242.255	68.44
242.472	-1.19
242.689	107.35
242.907	-17.58
243.124	4.95
243.341	60.24
243.558	35.67
243.775	-38.06
243.992	-3.24
244.209	27.48
244.426	7
244.643	-11.43
244.86	15.19
245.078	21.33
245.295	93.01
245.512	-17.58
245.729	56.15
245.946	93.01
246.163	50
246.38	-7.34
246.597	-3.24
246.814	-46.25
247.031	45.91
247.248	7
247.464	13.14
247.681	111.44
247.898	-5.29
248.115	2.9
248.332	11.09
248.549	27.48
248.766	72.53
248.983	60.24
249.2	-1.19
249.417	62.29
249.633	-46.25
249.85	60.24
250.067	43.86
250.284	23.38
250.501	68.44
250.717	78.68
250.934	9.05
251.151	21.33
251.368	29.52
251.585	88.92
251.801	11.09
252.018	27.48
252.235	62.29
252.451	15.19
252.668	31.57
252.885	72.53
253.102	21.33
253.318	27.48
253.535	13.14
253.752	-23.72
253.968	2.9
254.185	93.01
254.401	-5.29
254.618	60.24
254.835	-23.72
255.051	93.01
255.268	0.85
255.484	9.05
255.701	21.33
255.917	144.21
256.134	-54.44
256.351	11.09
256.567	-1.19
256.784	0.85
257	-31.91
257.217	35.67
257.433	88.92
257.65	66.39
257.866	80.72
258.082	50
258.299	39.76
258.515	39.76
258.732	101.2
258.948	-33.96
259.165	43.86
259.381	50
259.597	-48.3
259.814	45.91
260.03	37.72
260.246	47.96
260.463	-54.44
260.679	19.29
260.895	23.38
261.112	72.53
261.328	47.96
261.544	-40.11
261.761	93.01
261.977	60.24
262.193	-21.67
262.409	27.48
262.626	43.86
262.842	47.96
263.058	31.57
263.274	45.91
263.49	2.9
263.707	93.01
263.923	11.09
264.139	-11.43
264.355	-3.24
264.571	101.2
264.787	7
265.004	52.05
265.22	-29.87
265.436	11.09
265.652	37.72
265.868	76.63
266.084	-3.24
266.3	52.05
266.516	4.95
266.732	68.44
266.948	60.24
267.164	15.19
267.38	-40.11
267.596	23.38
267.812	39.76
268.028	78.68
268.244	19.29
268.46	99.16
268.676	-5.29
268.892	66.39
269.108	-5.29
269.324	23.38
269.54	13.14
269.756	43.86
269.972	-1.19
270.188	11.09
270.403	-44.2
270.619	43.86
270.835	35.67
271.051	-25.77
271.267	58.2
271.483	19.29
271.698	101.2
271.914	29.52
272.13	13.14
272.346	33.62
272.562	88.92
272.777	27.48
272.993	-1.19
273.209	45.91
273.425	23.38
273.64	2.9
273.856	29.52
274.072	2.9
274.287	47.96
274.503	76.63
274.719	11.09
274.934	103.25
275.15	-3.24
275.366	35.67
275.581	43.86
275.797	-13.48
276.012	4.95
276.228	17.24
276.444	74.58
276.659	31.57
276.875	-62.63
277.09	76.63
277.306	60.24
277.521	29.52
277.737	50
277.952	54.1
278.168	23.38
278.383	-25.77
278.599	66.39
278.814	95.06
279.03	19.29
279.245	84.82
279.461	27.48
279.676	58.2
279.892	-81.07
280.107	-79.02
280.322	-56.49
280.538	62.29
280.753	68.44
280.969	-27.82
281.184	2.9
281.399	82.77
281.615	29.52
281.83	56.15
282.045	64.34
282.26	93.01
282.476	93.01
282.691	13.14
282.906	7
283.122	125.78
283.337	43.86
283.552	45.91
283.767	-1.19
283.983	29.52
284.198	35.67
284.413	4.95
284.628	25.43
284.843	7
285.058	56.15
285.274	19.29
285.489	56.15
285.704	-5.29
285.919	11.09
286.134	29.52
286.349	35.67
286.564	88.92
286.779	39.76
286.995	-5.29
287.21	-11.43
287.425	-13.48
287.64	-1.19
287.855	68.44
288.07	25.43
288.285	54.1
288.5	-29.87
288.715	60.24
288.93	31.57
289.145	35.67
289.36	54.1
289.575	35.67
289.79	78.68
290.004	68.44
290.219	54.1
290.434	-27.82
290.649	7
290.864	-29.87
291.079	76.63
291.294	54.1
291.509	13.14
291.724	52.05
291.938	13.14
292.153	27.48
292.368	27.48
292.583	-36.01
292.798	41.81
293.012	103.25
293.227	11.09
293.442	35.67
293.657	-21.67
293.871	109.4
294.086	60.24
294.301	45.91
294.516	41.81
294.73	31.57
294.945	-19.63
295.16	-11.43
295.374	-9.39
295.589	-29.87
295.804	-5.29
296.018	21.33
296.233	52.05
296.447	31.57
296.662	68.44
296.877	-13.48
297.091	21.33
297.306	23.38
297.52	-83.11
297.735	35.67
297.949	13.14
298.164	150.36
298.378	25.43
298.593	43.86
298.807	-33.96
299.022	27.48
299.236	27.48
299.451	43.86
299.665	39.76
299.88	-17.58
300.094	84.82
300.309	-11.43
300.523	72.53
300.737	62.29
300.952	119.64
301.166	121.68
301.381	-60.59
301.595	7
301.809	64.34
302.024	-13.48
302.238	2.9
302.452	101.2
302.667	23.38
302.881	70.48
303.095	35.67
303.309	-68.78
303.524	74.58
303.738	39.76
303.952	19.29
304.166	-5.29
304.381	27.48
304.595	43.86
304.809	-1.19
305.023	50
305.237	19.29
305.452	2.9
305.666	19.29
305.88	54.1
306.094	88.92
306.308	-27.82
306.522	72.53
306.736	93.01
306.95	17.24
307.164	35.67
307.379	43.86
307.593	152.4
307.807	39.76
308.021	74.58
308.235	80.72
308.449	56.15
308.663	27.48
308.877	43.86
309.091	27.48
309.305	37.72
309.519	-68.78
309.733	11.09
309.947	-27.82
310.161	84.82
310.374	-9.39
310.588	72.53
310.802	17.24
311.016	-3.24
311.23	27.48
311.444	-21.67
311.658	-52.39
311.872	70.48
312.085	52.05
312.299	29.52
312.513	107.35
312.727	39.76
312.941	-19.63
313.154	31.57
313.368	70.48
313.582	45.91
313.796	33.62
314.009	52.05
314.223	111.44
314.437	33.62
314.651	47.96
314.864	45.91
315.078	84.82
315.292	-13.48
315.505	-31.91
315.719	76.63
315.933	54.1
316.146	52.05
316.36	-1.19
316.573	56.15
316.787	82.77
317.001	68.44
317.214	37.72
317.428	68.44
317.641	-25.77
317.855	68.44
318.068	54.1
318.282	138.07
318.495	19.29
318.709	68.44
318.922	97.11
319.136	29.52
319.349	93.01
319.563	0.85
319.776	121.68
319.99	21.33
320.203	72.53
320.417	-25.77
320.63	19.29
320.843	103.25
321.057	-9.39
321.27	45.91
321.483	60.24
321.697	76.63
321.91	68.44
322.124	52.05
322.337	45.91
322.55	35.67
322.763	43.86
322.977	45.91
323.19	-119.98
323.403	27.48
323.617	7
323.83	78.68
324.043	27.48
324.256	76.63
324.469	45.91
324.683	35.67
324.896	88.92
325.109	74.58
325.322	-1.19
325.535	90.96
325.748	154.45
325.962	29.52
326.175	-58.54
326.388	35.67
326.601	52.05
326.814	27.48
327.027	70.48
327.24	60.24
327.453	19.29
327.666	45.91
327.879	31.57
328.092	93.01
328.305	62.29
328.518	52.05
328.731	64.34
328.944	-44.2
329.157	-13.48
329.37	-38.06
329.583	82.77
329.796	7
330.009	66.39
330.222	52.05
330.435	7
330.648	19.29
330.861	45.91
331.073	27.48
331.286	64.34
331.499	35.67
331.712	11.09
331.925	86.87
332.138	70.48
332.35	107.35
332.563	2.9
332.776	60.24
332.989	-17.58
333.202	84.82
333.414	54.1
333.627	52.05
333.84	66.39
334.053	60.24
334.265	56.15
334.478	78.68
334.691	74.58
334.903	84.82
335.116	39.76
335.329	76.63
335.541	76.63
335.754	86.87
335.966	-62.63
336.179	60.24
336.392	33.62
336.604	-36.01
336.817	35.67
337.029	60.24
337.242	72.53
337.454	74.58
337.667	-9.39
337.88	47.96
338.092	27.48
338.305	78.68
338.517	23.38
338.729	2.9
338.942	72.53
339.154	-13.48
339.367	121.68
339.579	21.33
339.792	72.53
340.004	52.05
340.217	-25.77
340.429	19.29
340.641	-1.19
340.854	50
341.066	31.57
341.278	41.81
341.491	62.29
341.703	4.95
341.915	97.11
342.128	76.63
342.34	58.2
342.552	52.05
342.764	-31.91
342.977	60.24
343.189	47.96
343.401	84.82
343.613	52.05
343.826	45.91
344.038	0.85
344.25	144.21
344.462	-9.39
344.674	35.67
344.886	101.2
345.099	62.29
345.311	27.48
345.523	35.67
345.735	13.14
345.947	43.86
346.159	11.09
346.371	47.96
346.583	27.48
346.795	117.59
347.007	-21.67
347.219	150.36
347.431	0.85
347.643	52.05
347.855	11.09
348.067	66.39
348.279	7
348.491	84.82
348.703	88.92
348.915	-36.01
349.127	84.82
349.339	60.24
349.551	7
349.763	154.45
349.975	19.29
350.187	78.68
350.399	158.55
350.61	43.86
350.822	35.67
351.034	27.48
351.246	-7.34
351.458	60.24
351.669	23.38
351.881	2.9
352.093	52.05
352.305	31.57
352.517	27.48
352.728	123.73
352.94	70.48
353.152	47.96
353.363	19.29
353.575	2.9
353.787	170.83
353.999	23.38
354.21	43.86
354.422	68.44
354.633	-17.58
354.845	119.64
355.057	93.01
355.268	7
355.48	47.96
355.692	19.29
355.903	35.67
356.115	43.86
356.326	-21.67
356.538	70.48
356.749	52.05
356.961	29.52
357.172	45.91
357.384	-21.67
357.595	43.86
357.807	64.34
358.018	31.57
358.23	19.29
358.441	39.76
358.653	93.01
358.864	23.38
359.075	33.62
359.287	2.9
359.498	45.91
359.709	84.82
359.921	39.76
360.132	23.38
360.344	64.34
360.555	-15.53
360.766	43.86
360.977	29.52
361.189	60.24
361.4	43.86
361.611	90.96
361.823	78.68
362.034	-21.67
362.245	39.76
362.456	13.14
362.667	47.96
362.879	35.67
363.09	74.58
363.301	45.91
363.512	27.48
363.723	21.33
363.935	13.14
364.146	101.2
364.357	-46.25
364.568	19.29
364.779	70.48
364.99	66.39
365.201	35.67
365.412	113.49
365.623	-48.3
365.834	-1.19
366.045	84.82
366.256	138.07
366.467	-19.63
366.678	68.44
366.889	31.57
367.1	15.19
367.311	47.96
367.522	-29.87
367.733	105.3
367.944	35.67
368.155	45.91
368.366	54.1
368.577	84.82
368.788	101.2
368.999	19.29
369.209	-3.24
369.42	99.16
369.631	60.24
369.842	72.53
370.053	72.53
370.264	68.44
370.474	52.05
370.685	58.2
370.896	-13.48
371.107	90.96
371.317	66.39
371.528	88.92
371.739	117.59
371.95	29.52
372.16	150.36
372.371	19.29
372.582	41.81
372.792	35.67
373.003	86.87
373.214	68.44
373.424	35.67
373.635	15.19
373.846	76.63
374.056	84.82
374.267	37.72
374.477	60.24
374.688	60.24
374.898	72.53
375.109	111.44
375.319	35.67
375.53	111.44
375.74	72.53
375.951	21.33
376.161	56.15
376.372	45.91
376.582	-19.63
376.793	78.68
377.003	158.55
377.214	27.48
377.424	35.67
377.635	-13.48
377.845	35.67
378.055	56.15
378.266	2.9
378.476	76.63
378.686	56.15
378.897	29.52
379.107	37.72
379.317	60.24
379.528	-31.91
379.738	72.53
379.948	80.72
380.158	109.4
380.369	64.34
380.579	93.01
380.789	15.19
380.999	95.06
381.21	62.29
381.42	82.77
381.63	-1.19
381.84	50
382.05	50
382.261	76.63
382.471	90.96
382.681	90.96
382.891	103.25
383.101	76.63
383.311	93.01
383.521	7
383.731	37.72
383.941	23.38
384.151	76.63
384.361	0.85
384.571	35.67
384.781	56.15
384.991	101.2
385.201	168.79
385.411	101.2
385.621	13.14
385.831	111.44
386.041	-3.24
386.251	19.29
386.461	64.34
386.671	93.01
386.881	76.63
387.091	115.54
387.301	95.06
387.511	7
387.72	105.3
387.93	52.05
388.14	60.24
388.35	54.1
388.56	144.21
388.769	109.4
388.979	84.82
389.189	13.14
389.399	127.83
389.609	7
389.818	80.72
390.028	80.72
390.238	43.86
390.447	68.44
390.657	125.78
390.867	82.77
391.076	68.44
391.286	101.2
391.496	37.72
391.705	7
391.915	129.88
392.125	90.96
392.334	52.05
392.544	166.74
392.753	60.24
392.963	84.82
393.172	33.62
393.382	109.4
393.591	105.3
393.801	93.01
394.01	95.06
394.22	123.73
394.429	74.58
394.639	17.24
394.848	131.92
395.058	72.53
395.267	11.09
395.477	78.68
395.686	84.82
395.895	103.25
396.105	125.78
396.314	52.05
396.524	84.82
396.733	78.68
396.942	115.54
397.152	70.48
397.361	97.11
397.57	131.92
397.78	113.49
397.989	60.24
398.198	111.44
398.407	199.51
398.617	170.83
398.826	123.73
399.035	164.69
399.244	60.24
399.453	146.26
399.663	84.82
399.872	84.82
400.081	47.96
400.29	125.78
400.499	43.86
400.708	148.31
400.917	70.48
401.127	144.21
401.336	64.34
401.545	174.93
401.754	70.48
401.963	179.03
402.172	107.35
402.381	113.49
402.59	105.3
402.799	97.11
403.008	107.35
403.217	131.92
403.426	74.58
403.635	52.05
403.844	174.93
404.053	160.59
404.262	119.64
404.471	250.71
404.68	160.59
404.888	162.64
405.097	109.4
405.306	144.21
405.515	150.36
405.724	76.63
405.933	166.74
406.142	187.22
406.35	236.37
406.559	142.16
406.768	195.41
406.977	267.09
407.185	252.75
407.394	203.6
407.603	234.32
407.812	226.13
408.02	158.55
408.229	234.32
408.438	246.61
408.646	211.79
408.855	207.7
409.064	265.04
409.272	265.04
409.481	379.73
409.69	285.52
409.898	324.43
410.107	387.92
410.315	340.82
410.524	367.44
410.733	338.77
410.941	312.14
411.15	299.86
411.358	332.62
411.567	359.25
411.775	344.91
411.984	414.54
412.192	447.31
412.401	473.93
412.609	471.89
412.818	496.46
413.026	543.57
413.234	502.61
413.443	555.85
413.651	586.57
413.86	627.53
414.068	645.96
414.276	600.91
414.485	633.68
414.693	725.83
414.901	736.07
415.11	762.7
415.318	727.88
415.526	744.27
415.734	883.53
415.943	846.66
416.151	865.1
416.359	834.38
416.567	928.58
416.776	901.96
416.984	965.45
417.192	1010.5
417.4	1014.6
417.608	1014.6
417.817	1067.85
418.025	1198.92
418.233	1370.94
418.441	1141.57
418.649	1200.96
418.857	1299.27
419.065	1420.1
419.273	1317.7
419.481	1391.42
419.689	1485.63
419.897	1551.17
420.105	1481.53
420.313	1575.74
420.521	1676.09
420.729	1665.85
420.937	1723.2
421.145	1772.35
421.353	1821.5
421.561	2020.15
421.769	1995.57
421.977	2097.97
422.185	2075.45
422.393	2288.43
422.601	2224.95
422.809	2315.06
423.017	2423.6
423.224	2521.9
423.432	2487.09
423.64	2544.43
423.848	2845.48
424.056	2675.5
424.263	2919.21
424.471	2927.4
424.679	2984.74
424.887	3238.69
425.094	3220.26
425.302	3271.46
425.51	3445.54
425.718	3463.97
425.925	3468.06
426.133	3664.67
426.341	3789.6
426.548	4000.54
426.756	3820.32
426.964	3910.43
427.171	4174.61
427.379	4371.22
427.586	4479.76
427.794	4549.39
428.001	4727.57
428.209	4971.27
428.417	4936.46
428.624	5098.25
428.832	5182.21
429.039	5169.93
429.247	5063.43
429.454	5796.6
429.662	6167.29
429.869	5903.1
430.076	6105.85
430.284	5950.2
430.491	6165.24
430.699	6705.9
430.906	6691.57
431.114	6572.79
431.321	6875.88
431.528	7064.3
431.736	7492.32
431.943	7934.68
432.15	7736.03
432.358	7637.73
432.565	8094.43
432.772	7955.16
432.979	8461.01
433.187	8641.23
433.394	8729.3
433.601	9394.89
433.808	9153.23
434.016	9456.33
434.223	9501.38
434.43	10193.59
434.637	9972.41
434.844	10713.78
435.052	10877.62
435.259	10812.08
435.466	10855.09
435.673	10635.96
435.88	11481.77
436.087	11942.56
436.294	11913.89
436.501	11733.67
436.708	11842.21
436.915	12329.63
437.122	12890.77
437.329	12735.12
437.537	13398.66
437.743	13554.31
437.95	13599.37
438.157	14060.16
438.364	14523
438.571	14733.94
438.778	14727.8
438.985	15821.41
439.192	15499.88
439.399	15829.6
439.606	15430.25
439.813	16405.08
440.02	17349.2
440.227	16927.32
440.433	16726.61
440.64	17486.41
440.847	17175.12
441.054	17857.09
441.261	18823.73
441.467	18729.53
441.674	18782.77
441.881	19886.63
442.088	19384.88
442.294	19227.18
442.501	19823.14
442.708	20294.18
442.914	20883.99
443.121	22118.92
443.328	21387.79
443.534	22893.05
443.741	22516.22
443.948	21885.45
444.154	23523.82
444.361	23351.79
444.568	23572.97
444.774	23482.86
444.981	23620.08
445.187	24654.3
445.394	25336.27
445.6	25094.61
445.807	27423.15
446.013	26333.64
446.22	26730.94
446.426	27752.88
446.633	27963.82
446.839	28879.26
447.046	27945.39
447.252	29329.81
447.459	29618.58
447.665	29356.44
447.871	30972.28
448.078	31842.67
448.284	30245.26
448.491	31189.37
448.697	32549.22
448.903	32889.18
449.11	33038.69
449.316	32506.21
449.522	33120.6
449.728	33814.87
449.935	34171.21
450.141	34163.02
450.347	35215.68
450.553	34015.57
450.76	34156.88
450.966	35608.89
451.172	35084.61
451.378	35991.86
451.584	35619.13
451.791	36315.44
451.997	36344.11
452.203	36841.76
452.409	36667.69
452.615	36372.78
452.821	35301.69
453.027	35121.47
453.233	36968.74
453.44	35440.95
453.646	35545.4
453.852	35879.22
454.058	36575.53
454.264	35623.22
454.47	36524.33
454.676	35127.61
454.882	36722.98
455.088	33313.11
455.294	33913.17
455.5	34562.37
455.705	35125.57
455.911	33409.37
456.117	32735.59
456.323	32612.71
456.529	31017.34
456.735	32282.98
456.941	31451.51
457.147	30749.06
457.352	29866.38
457.558	29696.4
457.764	29778.32
457.97	29417.88
458.176	28662.18
458.381	28574.11
458.587	27267.51
458.793	27423.15
458.999	26169.8
459.204	28008.87
459.41	27066.81
459.616	25160.15
459.821	25170.39
460.027	25299.41
460.233	24529.38
460.438	23788.01
460.644	23597.55
460.85	22395.39
461.055	22258.18
461.261	22460.93
461.466	20455.97
461.672	20083.23
461.878	21651.98
462.083	20216.35
462.289	19833.38
462.494	19442.22
462.7	18713.14
462.905	18270.78
463.111	18850.36
463.316	18889.27
463.522	18362.94
463.727	18268.73
463.932	18520.63
464.138	18133.57
464.343	18258.49
464.549	17599.05
464.754	18448.96
464.959	18074.18
465.165	17685.06
465.37	17603.14
465.575	16751.19
465.781	17371.72
465.986	17531.47
466.191	17007.19
466.397	16530.01
466.602	15796.84
466.807	16308.83
467.012	16597.59
467.218	16204.38
467.423	15856.23
467.628	16032.35
467.833	16652.89
468.038	16443.99
468.244	15751.78
468.449	16489.05
468.654	15829.6
468.859	15757.92
469.064	15671.91
469.269	15161.97
469.474	15184.49
469.679	15587.94
469.885	14953.07
470.09	15059.57
470.295	15108.72
470.5	14684.79
470.705	14809.72
470.91	14457.46
471.115	14125.69
471.32	14701.17
471.525	14406.27
471.73	14099.07
471.935	14127.74
472.139	13734.53
472.344	13941.38
472.549	13752.96
472.754	13519.5
472.959	13259.4
473.164	12982.93
473.369	12866.19
473.574	13353.61
473.778	13386.38
473.983	13030.03
474.188	13126.29
474.393	12257.95
474.598	12368.54
474.802	12421.78
475.007	12472.98
475.212	12352.15
475.417	11991.71
475.621	11977.37
475.826	12028.57
476.031	11752.1
476.235	11520.68
476.44	11840.16
476.645	11092.65
476.849	11178.67
477.054	11352.74
477.259	11180.71
477.463	11186.86
477.668	10717.87
477.872	10998.45
478.077	10660.53
478.282	10668.72
478.486	10611.38
478.691	10508.98
478.895	10261.18
479.1	10267.32
479.304	10547.89
479.509	9857.73
479.713	10240.7
479.918	10021.56
480.122	9833.15
480.326	9923.26
480.531	9906.88
480.735	9747.14
480.94	9611.97
481.144	10222.27
481.348	9464.52
481.553	9579.2
481.757	9452.23
481.961	9722.56
482.166	9829.06
482.37	9562.82
482.574	9556.68
482.778	9251.53
482.983	9706.18
483.187	9554.63
483.391	9405.13
483.595	9530.05
483.8	9360.07
484.004	9740.99
484.208	9773.76
484.412	9347.78
484.616	9566.92
484.821	9595.59
485.025	9261.77
485.229	9538.24
485.433	9534.15
485.637	9388.74
485.841	9636.55
486.045	9417.41
486.249	9261.77
486.453	9368.26
486.657	9476.8
486.861	9597.63
487.065	9194.19
487.269	9470.66
487.473	9296.58
487.677	9687.75
487.881	9632.45
488.085	9417.41
488.289	9577.16
488.493	9368.26
488.697	9515.72
488.901	9419.46
489.105	9554.63
489.309	9560.77
489.512	9626.31
489.716	9679.55
489.92	9583.3
490.124	9714.37
490.328	9697.99
490.531	9652.93
490.735	9786.05
490.939	9689.79
491.143	9820.86
491.346	9640.64
491.55	9786.05
491.754	9851.58
491.958	9761.47
492.161	9814.72
492.365	9892.54
492.569	9996.99
492.772	9796.29
492.976	9984.7
493.18	10087.1
493.383	10316.47
493.587	10242.75
493.79	10465.97
493.994	10064.57
494.197	10334.9
494.401	10404.53
494.605	10373.82
494.808	10672.82
495.012	10412.73
495.215	10480.31
495.419	10861.23
495.622	10633.91
495.825	10867.38
496.029	11012.78
496.232	11160.24
496.436	10955.44
496.639	11573.92
496.843	11350.7
497.046	11547.3
497.249	11629.22
497.453	11537.06
497.656	11754.15
497.859	11752.1
498.063	11971.23
498.266	12491.41
498.469	12135.07
498.673	12128.92
498.876	12380.82
499.079	12577.43
499.282	12571.29
499.485	13146.76
499.689	12685.97
499.892	12956.3
500.095	13023.89
500.298	13138.57
500.501	13228.68
500.705	13390.47
500.908	13814.4
501.111	13965.95
501.314	14203.52
501.517	14361.21
501.72	14383.74
501.923	14078.59
502.126	14621.3
502.329	14963.31
502.532	14805.62
502.735	14895.73
502.938	15334
503.141	15489.64
503.344	15458.92
503.547	15469.16
503.75	15747.69
503.953	16251.49
504.156	16468.57
504.359	16357.98
504.562	16263.77
504.765	16597.59
504.968	16648.79
505.17	17207.89
505.373	17021.52
505.576	17109.58
505.779	17689.16
505.982	17672.78
506.185	18250.3
506.387	18080.32
506.59	18113.09
506.793	18557.5
506.996	18512.44
507.198	18930.23
507.401	18997.81
507.604	19028.53
507.807	19649.07
508.009	19534.38
508.212	19778.09
508.415	19747.37
508.617	20208.16
508.82	20236.83
509.022	20075.04
509.225	20990.49
509.428	20802.07
509.63	20939.29
509.833	20922.9
510.035	21557.77
510.238	21477.9
510.44	21965.32
510.643	22231.55
510.845	22346.24
511.048	22452.73
511.25	22700.54
511.453	22764.03
511.655	23290.35
511.858	23460.34
512.06	23562.73
512.262	23788.01
512.465	23800.3
512.667	24037.86
512.87	24322.53
513.072	24500.7
513.274	24728.03
513.477	24973.78
513.679	25164.25
513.881	25467.34
514.084	25924.04
514.286	25735.63
514.488	25719.24
514.69	26560.96
514.893	26458.56
515.095	26675.65
515.297	26972.6
515.499	27492.79
515.701	27591.09
515.904	27918.76
516.106	27697.58
516.308	28326.31
516.51	28410.28
516.712	28852.64
516.914	29051.29
517.116	29456.79
517.318	29475.22
517.52	29442.45
517.722	29854.09
517.925	30478.72
518.127	30589.31
518.329	30683.52
518.531	30564.74
518.733	31099.26
518.935	31392.12
519.136	31029.63
519.338	31791.47
519.54	31648.11
519.742	32258.41
519.944	32364.9
520.146	32835.94
520.348	32758.11
520.55	33067.36
520.752	33114.46
520.954	34091.34
521.155	33577.3
521.357	33947.98
521.559	34353.48
521.761	34890.05
521.963	34683.2
522.164	34629.96
522.366	35176.76
522.568	35309.88
522.77	35832.11
522.971	36303.15
523.173	35772.72
523.375	36378.92
523.576	36376.87
523.778	36215.08
523.98	37067.04
524.181	37177.63
524.383	37124.38
524.584	37564.7
524.786	37540.12
524.988	37509.4
525.189	37697.81
525.391	38215.95
525.592	38021.39
525.794	38328.59
525.995	38400.27
526.197	38484.23
526.398	38480.14
526.6	38885.64
526.801	39094.53
527.003	39026.95
527.204	39069.95
527.406	39876.85
527.607	39842.04
527.808	40044.79
528.01	39069.95
528.211	39766.26
528.412	40411.37
528.614	40388.85
528.815	39807.22
529.016	40581.35
529.218	40093.94
529.419	40251.63
529.62	40390.89
529.822	40483.05
530.023	40257.78
530.224	40636.65
530.425	40544.49
530.626	40274.16
530.828	40407.28
531.029	41248.99
531.23	41052.39
531.431	40724.71
531.632	41322.72
531.833	40800.49
532.035	40906.98
532.236	41031.91
532.437	41457.88
532.638	40935.65
532.839	41089.25
533.04	41482.46
533.241	40481
533.442	41744.6
533.643	41601.24
533.844	41265.38
534.045	41390.3
534.246	41050.34
534.447	41560.28
534.648	40995.04
534.849	41414.88
535.05	40954.08
535.251	41367.77
535.451	41154.79
535.652	41304.29
535.853	41625.82
536.054	41406.69
536.255	41713.88
536.456	41197.79
536.657	41713.88
536.857	41421.02
537.058	41009.38
537.259	41511.13
537.46	41775.32
537.66	41861.33
537.861	41523.42
538.062	41517.28
538.263	41816.28
538.463	41484.51
538.664	41423.07
538.865	41410.78
539.065	41779.42
539.266	41181.41
539.466	41408.73
539.667	41029.86
539.868	41447.64
540.068	41294.05
540.269	41201.89
540.469	41961.69
540.67	40786.15
540.87	41326.81
541.071	41277.66
541.271	41308.38
541.472	41359.58
541.672	41300.19
541.873	40915.17
542.073	40325.36
542.274	41279.71
542.474	41136.35
542.675	40878.31
542.875	41468.12
543.075	40816.87
543.276	40503.53
543.476	41275.62
543.676	40880.36
543.877	41210.08
544.077	41124.07
544.277	40878.31
544.478	40691.94
544.678	41384.16
544.878	40648.94
545.078	41017.57
545.279	40947.94
545.479	40911.08
545.679	41191.65
545.879	40786.15
546.079	41040.1
546.28	40896.74
546.48	40683.75
546.68	41324.77
546.88	41220.32
547.08	40929.51
547.28	40714.47
547.48	40601.83
547.68	40796.39
547.88	40655.08
548.081	40882.41
548.281	40913.13
548.481	40958.18
548.681	41195.74
548.881	40552.68
549.081	40843.49
549.28	40255.73
549.48	41003.24
549.68	40689.9
549.88	40870.12
550.08	40462.57
550.28	40718.57
550.48	40329.45
550.68	40820.97
550.88	40503.53
551.08	40712.42
551.279	40855.78
551.479	40509.68
551.679	40571.11
551.879	40384.75
552.079	40997.09
552.278	40526.06
552.478	40638.7
552.678	40806.63
552.878	40784.1
553.077	40239.34
553.277	40198.38
553.477	40798.44
553.676	40061.17
553.876	40474.86
554.076	40325.36
554.275	39993.59
554.475	40179.95
554.674	40478.96
554.874	40026.35
555.074	40114.42
555.273	39987.44
555.473	40237.3
555.672	39831.8
555.872	39952.63
556.071	39760.12
556.271	40108.27
556.47	40028.4
556.67	39745.78
556.869	39784.69
557.068	39639.29
557.268	39532.79
557.467	39731.45
557.667	39899.38
557.866	39680.25
558.065	39477.5
558.265	39229.69
558.464	39051.52
558.663	39649.53
558.863	39172.35
559.062	39758.07
559.261	38953.22
559.461	39952.63
559.66	38711.56
559.859	39084.29
560.058	39311.61
560.258	39473.4
560.457	38828.29
560.656	39031.04
560.855	39078.15
561.054	39418.11
561.253	38854.92
561.453	39045.38
561.652	38752.52
561.851	39182.59
562.05	38562.06
562.249	38273.29
562.448	38803.72
562.647	38852.87
562.846	38291.73
563.045	38261.01
563.244	38373.64
563.443	38564.1
563.642	37837.08
563.841	38142.22
564.04	37699.86
564.239	38375.69
564.438	37857.56
564.637	37757.21
564.836	37851.41
565.035	37503.26
565.234	37775.64
565.432	37384.47
565.631	37579.03
565.83	37990.67
566.029	37372.19
566.228	37364
566.427	37599.51
566.625	37181.73
566.824	36725.03
567.023	37265.69
567.222	36583.72
567.42	37364
567.619	37062.94
567.818	37007.65
568.016	36471.08
568.215	36809
568.414	36557.1
568.612	36985.12
568.811	36393.26
569.01	36841.76
569.208	36051.25
569.407	36520.23
569.605	36086.06
569.804	36415.79
570.002	35989.81
570.201	36301.1
570.4	35385.66
570.598	35426.62
570.797	35420.47
570.995	35402.04
571.193	34914.62
571.392	35653.94
571.59	35565.88
571.789	35213.63
571.987	35246.4
572.186	35092.8
572.384	34642.24
572.582	35340.6
572.781	35004.74
572.979	34277.71
573.177	34711.88
573.376	34906.43
573.574	34314.57
573.772	34617.67
573.971	34349.39
574.169	34222.41
574.367	34281.8
574.565	34353.48
574.763	34398.54
574.962	34021.71
575.16	33900.88
575.358	34109.77
575.556	33493.33
575.754	34068.81
575.952	33276.25
576.151	33845.58
576.349	33311.07
576.547	33954.13
576.745	33694.04
576.943	33034.59
577.141	33040.73
577.339	33630.55
577.537	33022.3
577.735	33237.34
577.933	32663.91
578.131	32850.27
578.329	32612.71
578.527	32661.86
578.725	32375.14
578.923	32625
579.121	31877.49
579.319	32319.85
579.516	32424.29
579.714	32485.73
579.912	32153.96
580.11	31988.08
580.308	32053.61
580.506	31693.17
580.704	31273.34
580.901	31865.2
581.099	32336.23
581.297	31398.26
581.495	31594.87
581.692	31547.76
581.89	31074.68
582.088	31265.14
582.285	31283.58
582.483	31332.73
582.681	31271.29
582.878	31115.64
583.076	30515.59
583.274	30982.52
583.471	30642.56
583.669	30564.74
583.866	30390.66
584.064	30865.79
584.262	29995.4
584.459	30728.58
584.657	30306.69
584.854	30785.92
585.052	29874.57
585.249	30079.37
585.447	29962.64
585.644	29720.98
585.841	29671.82
586.039	30040.46
586.236	29489.56
586.434	29473.17
586.631	29297.05
586.828	29395.35
587.026	29194.65
587.223	29397.4
587.42	29247.9
587.618	29137.3
587.815	28846.49
588.012	28721.57
588.21	28905.88
588.407	29311.38
588.604	28705.18
588.801	28371.36
588.999	28215.72
589.196	28430.76
589.393	28559.78
589.59	28361.12
589.787	28221.86
589.984	27980.2
590.182	27861.42
590.379	28037.55
590.576	27781.55
590.773	28019.11
590.97	27875.76
591.167	28156.33
591.364	27777.45
591.561	27576.75
591.758	27384.24
591.955	27433.39
592.152	27543.99
592.349	27392.44
592.546	27279.8
592.743	27443.63
592.94	26644.93
593.137	27345.33
593.334	27197.88
593.531	26329.54
593.727	26845.63
593.924	26870.2
594.121	26589.63
594.318	26753.47
594.515	26458.56
594.712	26714.56
594.908	26257.86
595.105	26839.48
595.302	25924.04
595.499	26370.5
595.696	26233.29
595.892	25713.1
596.089	26085.83
596.286	25612.75
596.482	26096.07
596.679	25754.06
596.876	25762.25
597.072	25410
597.269	25450.96
597.466	25158.1
597.662	24981.98
597.859	25350.61
598.055	25442.77
598.252	25180.63
598.448	24941.02
598.645	25111
598.841	24678.88
599.038	24693.21
599.234	24633.82
599.431	24672.73
599.627	24517.09
599.824	24498.66
600.02	24447.46
600.217	24101.35
600.413	24193.51
600.609	24123.88
600.806	24013.29
601.002	23896.55
601.198	23972.33
601.395	23966.18
601.591	23775.72
601.787	23818.73
601.984	23745
602.18	23853.55
602.376	23613.93
602.572	23331.31
602.769	23558.64
602.965	23233.01
603.161	22968.82
603.357	23153.14
603.553	23407.09
603.75	23235.06
603.946	22954.49
604.142	22966.77
604.338	23169.52
604.534	22983.16
604.73	22727.16
604.926	22538.75
605.122	22788.6
605.318	22530.56
605.514	22530.56
605.71	22139.4
605.906	22407.68
606.102	22258.18
606.298	22225.41
606.494	22039.05
606.69	22125.06
606.886	22110.72
607.082	22172.16
607.278	22090.24
607.474	21936.65
607.67	22028.81
607.866	21551.63
608.062	21879.3
608.257	21504.53
608.453	21504.53
608.649	21656.07
608.845	21549.58
609.041	21651.98
609.236	21561.87
609.432	21312.02
609.628	21404.17
609.824	21207.57
610.019	21230.1
610.215	21363.22
610.411	21240.34
610.606	21092.88
610.802	21389.84
610.998	21111.32
611.193	21185.04
611.389	21285.39
611.584	21074.45
611.78	20703.77
611.976	20718.11
612.171	20843.03
612.367	20951.57
612.562	20630.04
612.758	20525.6
612.953	20220.45
613.149	20695.58
613.344	20490.78
613.539	20836.89
613.735	20730.39
613.93	20408.86
614.126	20580.89
614.321	20767.26
614.517	20392.48
614.712	20044.32
614.907	20310.56
615.103	20316.7
615.298	20126.24
615.493	20517.4
615.688	20261.41
615.884	20275.74
616.079	20122.15
616.274	19958.31
616.47	20046.37
616.665	20017.7
616.86	20011.56
617.055	19829.29
617.25	19798.57
617.445	19933.73
617.641	19358.25
617.836	19943.97
618.031	19548.72
618.226	19651.11
618.421	19366.45
618.616	19520.04
618.811	19245.62
619.006	19489.32
619.201	19075.63
619.396	19221.04
619.591	18575.93
619.786	19243.57
619.981	18813.49
620.176	19016.24
620.371	18684.47
620.566	18854.45
620.761	18549.31
620.956	18704.95
621.151	18246.21
621.346	18440.76
621.541	18248.25
621.735	18373.18
621.93	17607.24
622.125	17992.26
622.32	17623.62
622.515	17998.4
622.709	17789.51
622.904	17723.97
623.099	17623.62
623.294	17490.51
623.488	17416.78
623.683	17453.64
623.878	16949.84
624.072	17164.88
624.267	17173.07
624.462	16964.18
624.656	16826.96
624.851	16640.6
625.046	16503.39
625.24	16587.35
625.435	16454.23
625.629	16489.05
625.824	16319.07
626.018	16114.27
626.213	16093.79
626.407	15954.53
626.602	15780.45
626.796	16071.26
626.991	15856.23
627.185	15671.91
627.38	15647.33
627.574	15413.87
627.768	15194.73
627.963	15063.66
628.157	14955.12
628.352	15098.48
628.546	15190.64
628.74	15407.72
628.935	15010.42
629.129	15028.85
629.323	14901.87
629.517	14676.6
629.712	14512.76
629.906	14654.07
630.1	14479.99
630.294	14299.77
630.489	14547.58
630.683	14396.03
630.877	14232.19
631.071	14232.19
631.265	14256.76
631.459	14174.85
631.653	14156.41
631.848	13990.53
632.042	13660.8
632.236	13689.48
632.43	13642.37
632.624	13546.12
632.818	13701.76
633.012	13339.27
633.206	13556.36
633.4	13445.77
633.594	13320.84
633.788	13304.46
633.982	13372.04
634.176	13304.46
634.369	12833.43
634.563	13081.23
634.757	12886.67
634.951	12702.36
635.145	12890.77
635.339	12675.73
635.533	12503.7
635.726	12720.79
635.92	12325.53
636.114	12403.35
636.308	12139.16
636.501	12192.41
636.695	12429.98
636.889	12042.91
637.083	12036.77
637.276	12065.44
637.47	12049.05
637.664	11801.25
637.857	11758.24
638.051	11813.54
638.244	11735.71
638.438	11729.57
638.632	11627.17
638.825	11405.99
639.019	11356.84
639.212	11424.42
639.406	11348.65
639.599	11258.54
639.793	11066.03
639.986	11006.64
640.18	11020.97
640.373	11029.17
640.567	10810.03
640.76	11154.09
640.954	10879.66
641.147	10832.56
641.34	10670.77
641.534	10730.16
641.727	10627.76
641.92	10582.71
642.114	10472.12
642.307	10265.27
642.5	10611.38
642.694	10431.16
642.887	10259.13
643.08	10222.27
643.273	10474.17
643.467	10363.58
643.66	9968.32
643.853	10105.53
644.046	9956.03
644.239	9976.51
644.432	9949.89
644.626	9867.97
644.819	9773.76
645.012	9945.79
645.205	9908.93
645.398	9554.63
645.591	9534.15
645.784	9638.59
645.977	9403.08
646.17	9501.38
646.363	9349.83
646.556	9153.23
646.749	9153.23
646.942	9390.79
647.135	9415.37
647.328	9261.77
647.521	9106.12
647.714	9022.16
647.907	8950.48
648.099	8911.57
648.292	8913.61
648.485	8968.91
648.678	8964.81
648.871	8927.95
649.064	8563.41
649.256	8745.68
649.449	8729.3
649.642	8555.22
649.835	8354.52
650.027	8565.46
650.22	8563.41
650.413	8375
650.605	8387.29
650.798	8280.79
650.991	8280.79
651.183	8059.61
651.376	8127.19
651.568	8202.97
651.761	8131.29
651.954	8147.67
652.146	8096.47
652.339	8108.76
652.531	8071.9
652.724	7912.16
652.916	7793.37
653.109	7781.09
653.301	8032.99
653.494	7832.29
653.686	7531.23
653.879	7860.96
654.071	7647.97
654.263	7682.78
654.456	7506.66
654.648	7418.6
654.84	7367.4
655.033	7385.83
655.225	7416.55
655.417	7398.12
655.61	7310.05
655.802	7412.45
655.994	7080.68
656.186	7289.57
656.379	7224.04
656.571	7140.07
656.763	7254.76
656.955	6996.71
657.148	6900.46
657.34	6933.23
657.532	7058.15
657.724	6925.04
657.916	6763.25
658.108	6736.62
658.3	6656.75
658.492	6763.25
658.684	6703.86
658.876	6666.99
659.068	6599.41
659.26	6605.55
659.452	6535.92
659.644	6722.29
659.836	6556.4
660.028	6552.31
660.22	6454
660.412	6388.47
660.604	6408.95
660.796	6421.24
660.988	6183.67
661.18	6068.98
661.372	6288.12
661.563	6392.56
661.755	6265.59
661.947	6241.01
662.139	6157.05
662.331	6077.18
662.522	6081.27
662.714	5892.86
662.906	6003.45
663.097	5899
663.289	5958.39
663.481	5851.9
663.673	5878.52
663.864	5909.24
664.056	5673.73
664.247	5679.87
664.439	5589.76
664.631	5649.15
664.822	5655.3
665.014	5606.14
665.205	5567.23
665.397	5643.01
665.588	5626.62
665.78	5444.35
665.971	5403.39
666.163	5683.97
666.354	5384.96
666.546	5669.63
666.737	5266.18
666.929	5438.21
667.12	5356.29
667.311	5481.22
667.503	5108.49
667.694	5323.52
667.885	5208.84
668.077	5229.32
668.268	5108.49
668.459	5118.73
668.651	5059.34
668.842	5059.34
669.033	5001.99
669.224	5092.1
669.416	5239.56
669.607	4911.88
669.798	5022.47
669.989	4940.55
670.18	4924.17
670.371	4860.68
670.563	4782.86
670.754	4803.34
670.945	4842.25
671.136	4838.16
671.327	4666.13
671.518	4776.72
671.709	4770.57
671.9	4690.7
672.091	4688.65
672.282	4598.54
672.473	4633.36
672.664	4606.74
672.855	4750.09
673.046	4645.65
673.237	4397.84
673.428	4651.79
673.619	4502.29
673.809	4479.76
674	4559.63
674.191	4313.88
674.382	4422.42
674.573	4504.34
674.764	4426.51
674.954	4344.6
675.145	4391.7
675.336	4268.82
675.527	4328.21
675.717	4205.33
675.908	4268.82
676.099	4277.01
676.289	4174.61
676.48	4125.46
676.671	4197.14
676.861	4180.76
677.052	4180.76
677.243	4123.41
677.433	4031.26
677.624	4213.53
677.814	4164.37
678.005	4168.47
678.195	4025.11
678.386	4109.08
678.576	3951.39
678.767	4115.22
678.957	3937.05
679.148	3928.86
679.338	3961.62
679.529	4000.54
679.719	3994.39
679.909	4074.26
680.1	3891.99
680.29	3840.79
680.481	3844.89
680.671	3898.14
680.861	3779.36
681.052	3939.1
681.242	3754.78
681.432	3939.1
681.622	3816.22
681.813	3705.63
682.003	3672.86
682.193	3625.76
682.383	3881.75
682.573	3662.62
682.764	3615.52
682.954	3699.48
683.144	3660.57
683.334	3504.93
683.524	3617.57
683.714	3650.33
683.904	3615.52
684.094	3676.96
684.284	3779.36
684.474	3640.09
684.664	3683.1
684.854	3601.18
685.044	3492.64
685.234	3588.89
685.424	3492.64
685.614	3476.26
685.804	3445.54
685.994	3539.74
686.184	3439.39
686.374	3367.71
686.564	3394.34
686.753	3408.67
686.943	3369.76
687.133	3402.53
687.323	3324.71
687.513	3339.04
687.702	3369.76
687.892	3320.61
688.082	3281.7
688.272	3357.47
688.461	3343.14
688.651	3214.12
688.841	3189.54
689.03	3312.42
689.22	3322.66
689.41	3230.5
689.599	3199.78
689.789	3257.12
689.979	3101.48
690.168	3216.16
690.358	3126.05
690.547	3029.8
690.737	3183.4
690.926	3132.2
691.116	3095.33
691.305	3228.45
691.495	3134.25
691.684	3052.33
691.874	2980.65
692.063	2970.41
692.252	3132.2
692.442	2988.84
692.631	3046.18
692.82	3005.22
693.01	3037.99
693.199	2943.78
693.388	2837.29
693.578	2956.07
693.767	3027.75
693.956	2898.73
694.146	2921.26
694.335	3019.56
694.524	2794.28
694.713	2812.71
694.902	2931.5
695.092	2886.44
695.281	2751.28
695.47	2923.3
695.659	2847.53
695.848	2704.17
696.037	2724.65
696.226	2820.91
696.415	2786.09
696.604	2831.15
696.793	2710.32
696.982	2505.52
697.171	2786.09
697.36	2714.41
697.549	2597.68
697.738	2673.45
697.927	2669.36
698.116	2734.89
698.305	2792.23
698.494	2601.77
698.683	2698.03
698.872	2624.3
699.061	2640.69
699.25	2659.12
699.438	2667.31
699.627	2575.15
699.816	2759.47
700.005	2730.8
700.193	2622.25
700.382	2650.92
700.571	2650.92
700.76	2640.69
700.948	2622.25
701.137	2700.08
701.326	2607.92
701.514	2722.6
701.703	2675.5
701.892	2569.01
702.08	2558.77
702.269	2681.64
702.457	2667.31
702.646	2673.45
702.834	2532.14
703.023	2558.77
703.212	2493.23
703.4	2550.57
703.589	2526
703.777	2564.91
703.965	2513.71
704.154	2448.18
704.342	2575.15
704.531	2558.77
704.719	2511.66
704.907	2583.34
705.096	2396.98
705.284	2515.76
705.472	2583.34
705.661	2517.81
705.849	2509.62
706.037	2628.4
706.226	2575.15
706.414	2562.86
706.602	2487.09
706.79	2501.42
706.979	2509.62
707.167	2474.8
707.355	2521.9
707.543	2480.94
707.731	2566.96
707.919	2493.23
708.107	2501.42
708.296	2466.61
708.484	2419.5
708.672	2423.6
708.86	2571.05
709.048	2427.7
709.236	2589.49
709.424	2575.15
709.612	2411.31
709.8	2429.74
709.988	2411.31
710.176	2464.56
710.364	2505.52
710.551	2538.29
710.739	2476.85
710.927	2478.9
711.115	2388.78
711.303	2329.39
711.491	2454.32
711.679	2313.01
711.866	2390.83
712.054	2495.28
712.242	2405.17
712.43	2552.62
712.617	2380.59
712.805	2472.75
712.993	2444.08
713.181	2417.46
713.368	2399.02
713.556	2396.98
713.744	2235.19
713.931	2333.49
714.119	2415.41
714.306	2439.98
714.494	2323.25
714.682	2315.06
714.869	2353.97
715.057	2405.17
715.244	2304.82
715.432	2423.6
715.619	2390.83
715.807	2499.38
715.994	2353.97
716.182	2384.69
716.369	2362.16
716.556	2353.97
716.744	2288.43
716.931	2249.52
717.119	2267.95
717.306	2474.8
717.493	2300.72
717.681	2356.02
717.868	2349.87
718.055	2405.17
718.242	2349.87
718.43	2341.68
718.617	2429.74
718.804	2325.3
718.991	2353.97
719.179	2435.89
719.366	2274.1
719.553	2356.02
719.74	2265.91
719.927	2290.48
720.114	2296.63
720.301	2255.67
720.488	2284.34
720.676	2282.29
720.863	2265.91
721.05	2403.12
721.237	2317.11
721.424	2249.52
721.611	2304.82
721.798	2302.77
721.985	2399.02
722.172	2362.16
722.358	2413.36
722.545	2378.55
722.732	2394.93
722.919	2462.51
723.106	2239.28
723.293	2249.52
723.48	2325.3
723.667	2415.41
723.853	2353.97
724.04	2337.59
724.227	2382.64
724.414	2259.76
724.6	2362.16
724.787	2501.42
724.974	2337.59
725.161	2296.63
725.347	2233.14
725.534	2323.25
725.72	2288.43
725.907	2349.87
726.094	2337.59
726.28	2278.19
726.467	2315.06
726.653	2337.59
726.84	2231.09
727.027	2321.2
727.213	2173.75
727.4	2261.81
727.586	2300.72
727.773	2259.76
727.959	2204.47
728.145	2296.63
728.332	2325.3
728.518	2183.99
728.705	2304.82
728.891	2267.95
729.077	2278.19
729.264	2263.86
729.45	2237.24
729.636	2366.26
729.823	2239.28
730.009	2288.43
730.195	2288.43
730.382	2198.32
730.568	2257.71
730.754	2231.09
730.94	2233.14
731.126	2276.15
731.313	2353.97
731.499	2192.18
731.685	2181.94
731.871	2233.14
732.057	2263.86
732.243	2259.76
732.429	2310.96
732.615	2159.41
732.801	2224.95
732.987	2290.48
733.173	2304.82
733.359	2200.37
733.545	2333.49
733.731	2272.05
733.917	2296.63
734.103	2288.43
734.289	2257.71
734.475	2181.94
734.661	2341.68
734.847	2255.67
735.033	2190.13
735.219	2255.67
735.404	2329.39
735.59	2138.93
735.776	2263.86
735.962	2192.18
736.148	2270
736.333	2157.36
736.519	2190.13
736.705	2206.52
736.89	2218.8
737.076	2177.84
737.262	2173.75
737.447	2196.28
737.633	2161.46
737.819	2116.41
738.004	2181.94
738.19	2202.42
738.375	2167.6
738.561	2126.64
738.747	2050.87
738.932	2198.32
739.118	2227
739.303	1995.57
739.489	2149.17
739.674	2165.56
739.859	2083.64
740.045	2032.44
740.23	2104.12
740.416	2116.41
740.601	2075.45
740.786	2071.35
740.972	2052.92
741.157	1983.29
741.342	1940.28
741.528	2063.16
741.713	2042.68
741.898	2009.91
742.084	2093.88
742.269	2059.06
742.454	2069.3
742.639	2181.94
742.824	1991.48
743.01	1958.71
743.195	2034.49
743.38	2034.49
743.565	1911.61
743.75	1989.43
743.935	2087.73
744.12	2014.01
744.305	2011.96
744.49	1899.32
744.675	1805.11
744.86	1862.46
745.045	1905.46
745.23	1848.12
745.415	1960.76
745.6	1839.93
745.785	1895.22
745.97	2003.77
746.155	1852.22
746.34	1862.46
746.525	1784.63
746.71	1895.22
746.895	1809.21
747.079	1809.21
747.264	1882.94
747.449	1829.69
747.634	1780.54
747.819	1805.11
748.003	1878.84
748.188	1741.63
748.373	1682.24
748.557	1839.93
748.742	1717.05
748.927	1725.24
749.111	1659.71
749.296	1669.95
749.481	1674.04
749.665	1860.41
749.85	1708.86
750.034	1682.24
750.219	1715
750.404	1563.45
750.588	1641.28
750.773	1635.13
750.957	1676.09
751.141	1612.6
751.326	1610.56
751.51	1542.97
751.695	1493.82
751.879	1581.89
752.064	1633.08
752.248	1661.76
752.432	1626.94
752.617	1528.64
752.801	1575.74
752.985	1485.63
753.17	1489.73
753.354	1477.44
753.538	1557.31
753.722	1448.77
753.907	1356.61
754.091	1432.38
754.275	1372.99
754.459	1479.49
754.643	1325.89
754.828	1403.71
755.012	1444.67
755.196	1467.2
755.38	1329.99
755.564	1391.42
755.748	1344.32
755.932	1479.49
756.116	1395.52
756.3	1387.33
756.484	1262.4
756.668	1372.99
756.852	1346.37
757.036	1305.41
757.22	1278.79
757.404	1289.03
757.588	1260.35
757.772	1329.99
757.956	1164.1
758.14	1319.75
758.323	1221.44
758.507	1203.01
758.691	1190.72
758.875	1243.97
759.059	1286.98
759.242	1143.62
759.426	1096.52
759.61	1110.85
759.794	1190.72
759.977	1141.57
760.161	1264.45
760.345	1215.3
760.528	1192.77
760.712	1080.13
760.895	1119.04
761.079	1174.34
761.263	1096.52
761.446	1168.2
761.63	1076.04
761.813	1119.04
761.997	1145.67
762.18	1145.67
762.364	1108.8
762.547	985.93
762.731	1108.8
762.914	1057.61
763.098	1155.91
763.281	1076.04
763.464	1078.08
763.648	1114.95
763.831	1096.52
764.015	1051.46
764.198	1078.08
764.381	1067.85
764.564	975.69
764.748	1022.79
764.931	1002.31
765.114	1018.69
765.297	1071.94
765.481	963.4
765.664	967.49
765.847	912.2
766.03	961.35
766.213	940.87
766.397	971.59
766.58	920.39
766.763	1035.08
766.946	938.82
767.129	904.01
767.312	944.97
767.495	1022.79
767.678	838.47
767.861	1010.5
768.044	963.4
768.227	1008.45
768.41	938.82
768.593	969.54
768.776	895.82
768.959	914.25
769.142	938.82
769.324	910.15
769.507	920.39
769.69	752.46
769.873	889.67
770.056	977.73
770.239	920.39
770.421	850.76
770.604	887.62
770.787	789.32
770.97	848.71
771.152	871.24
771.335	944.97
771.518	891.72
771.7	863.05
771.883	904.01
772.066	897.86
772.248	801.61
772.431	815.94
772.613	854.86
772.796	772.94
772.978	854.86
773.161	822.09
773.343	731.98
773.526	846.66
773.708	787.27
773.891	723.79
774.073	832.33
774.256	785.23
774.438	838.47
774.621	813.9
774.803	871.24
774.985	766.79
775.168	746.31
775.35	717.64
775.532	766.79
775.715	707.4
775.897	754.51
776.079	715.59
776.261	748.36
776.444	658.25
776.626	693.07
776.808	699.21
776.99	723.79
777.173	645.96
777.355	713.55
777.537	664.4
777.719	750.41
777.901	650.06
778.083	725.83
778.265	664.4
778.447	662.35
778.629	635.72
778.811	682.83
778.993	629.58
779.175	602.96
779.357	695.11
779.539	635.72
779.721	609.1
779.903	654.16
780.085	691.02
780.267	662.35
780.449	619.34
780.631	609.1
780.812	666.44
780.994	535.37
781.176	580.43
781.358	633.68
781.54	486.22
781.721	650.06
781.903	547.66
782.085	518.99
782.267	523.09
782.448	553.8
782.63	584.52
782.812	490.32
782.993	557.9
783.175	543.57
783.357	518.99
783.538	475.98
783.72	512.85
783.901	461.65
784.083	592.72
784.264	490.32
784.446	518.99
784.627	490.32
784.809	578.38
784.99	447.31
785.172	381.78
785.353	430.93
785.535	482.13
785.716	420.69
785.897	523.09
786.079	537.42
786.26	535.37
786.441	441.17
786.623	420.69
786.804	430.93
786.985	445.26
787.167	387.92
787.348	469.84
787.529	447.31
787.71	482.13
787.891	494.41
788.073	408.4
788.254	457.55
788.435	396.11
788.616	387.92
788.797	445.26
788.978	478.03
789.159	420.69
789.34	437.07
789.522	340.82
789.703	371.54
789.884	363.34
790.065	406.35
790.246	373.58
790.427	389.97
790.607	422.73
790.788	346.96
790.969	396.11
791.15	351.06
791.331	394.06
791.512	342.86
791.693	336.72
791.874	357.2
792.054	437.07
792.235	404.3
792.416	326.48
792.597	336.72
792.778	410.45
792.958	349.01
793.139	441.17
793.32	355.15
793.5	244.56
793.681	361.3
793.862	314.19
794.042	381.78
794.223	392.02
794.404	314.19
794.584	267.09
794.765	310.1
794.945	297.81
795.126	316.24
795.306	381.78
795.487	297.81
795.667	332.62
795.848	338.77
796.028	297.81
796.209	375.63
796.389	308.05
796.57	291.66
796.75	340.82
796.93	240.47
797.111	336.72
797.291	303.95
797.471	353.1
797.652	230.23
797.832	232.27
798.012	367.44
798.192	269.14
798.373	273.23
798.553	273.23
798.733	236.37
798.913	252.75
799.093	228.18
799.274	217.94
799.454	297.81
799.634	240.47
799.814	242.51
799.994	248.66
800.174	338.77
800.354	265.04
800.534	242.51
800.714	258.9
800.894	195.41
801.074	338.77
801.254	275.28
801.434	271.19
801.614	183.12
801.794	211.79
801.974	858.95
802.154	258.9
802.334	219.99
802.514	162.64
802.693	228.18
802.873	219.99
803.053	306
803.233	136.02
803.413	201.55
803.592	150.36
803.772	326.48
803.952	240.47
804.131	174.93
804.311	217.94
804.491	250.71
804.67	256.85
804.85	199.51
805.03	246.61
805.209	254.8
805.389	222.03
805.568	191.31
805.748	156.5
805.928	199.51
806.107	211.79
806.287	234.32
806.466	232.27
806.646	232.27
806.825	170.83
807.004	205.65
807.184	246.61
807.363	158.55
807.543	183.12
807.722	131.92
807.901	222.03
808.081	232.27
808.26	195.41
808.439	232.27
808.619	195.41
808.798	191.31
808.977	199.51
809.156	168.79
809.336	160.59
809.515	117.59
809.694	215.89
809.873	146.26
810.052	209.75
810.231	209.75
810.411	232.27
810.59	152.4
810.769	160.59
810.948	205.65
811.127	133.97
811.306	215.89
811.485	228.18
811.664	230.23
811.843	193.36
812.022	179.03
812.201	119.64
812.38	113.49
812.559	103.25
812.737	164.69
812.916	72.53
813.095	160.59
813.274	150.36
813.453	127.83
813.632	138.07
813.811	217.94
813.989	121.68
814.168	179.03
814.347	158.55
814.526	183.12
814.704	281.43
814.883	158.55
815.062	174.93
815.24	158.55
815.419	166.74
815.598	125.78
815.776	125.78
815.955	148.31
816.133	207.7
816.312	142.16
816.49	207.7
816.669	142.16
816.847	183.12
817.026	109.4
817.204	133.97
817.383	129.88
817.561	72.53
817.74	144.21
817.918	136.02
818.097	121.68
818.275	82.77
818.453	109.4
818.632	105.3
818.81	199.51
818.988	39.76
819.167	158.55
819.345	88.92
819.523	183.12
819.701	127.83
819.879	156.5
820.058	142.16
820.236	119.64
820.414	150.36
820.592	88.92
820.77	117.59
820.948	113.49
821.127	60.24
821.305	47.96
821.483	68.44
821.661	193.36
821.839	76.63
822.017	129.88
822.195	131.92
822.373	183.12
822.551	60.24
822.729	232.27
822.907	99.16
823.085	45.91
823.262	109.4
823.44	93.01
823.618	78.68
823.796	125.78
823.974	207.7
824.152	70.48
824.329	109.4
824.507	84.82
824.685	107.35
824.863	101.2
825.04	119.64
825.218	129.88
825.396	90.96
825.574	123.73
825.751	133.97
825.929	125.78
826.107	80.72
826.284	125.78
826.462	68.44
826.639	88.92
826.817	41.81
826.994	183.12
827.172	121.68
827.349	201.55
827.527	166.74
827.704	113.49
827.882	111.44
828.059	99.16
828.237	93.01
828.414	152.4
828.591	37.72
828.769	54.1
828.946	84.82
829.124	113.49
829.301	162.64
829.478	52.05
829.655	117.59
829.833	146.26
830.01	43.86
830.187	93.01
830.364	115.54
830.542	80.72
830.719	33.62
830.896	125.78
831.073	60.24
831.25	78.68
831.427	70.48
831.604	111.44
831.782	37.72
831.959	88.92
832.136	105.3
832.313	70.48
832.49	29.52
832.667	154.45
832.844	29.52
833.021	105.3
833.198	125.78
833.374	2.9
833.551	95.06
833.728	68.44
833.905	68.44
834.082	29.52
834.259	99.16
834.436	136.02
834.612	54.1
834.789	97.11
834.966	127.83
835.143	88.92
835.319	93.01
835.496	27.48
835.673	76.63
835.85	52.05
836.026	54.1
836.203	76.63
836.38	31.57
836.556	105.3
836.733	54.1
836.909	133.97
837.086	31.57
837.262	84.82
837.439	113.49
837.616	43.86
837.792	70.48
837.968	15.19
838.145	37.72
838.321	37.72
838.498	109.4
838.674	19.29
838.851	60.24
839.027	121.68
839.203	68.44
839.38	76.63
839.556	72.53
839.732	113.49
839.909	111.44
840.085	47.96
840.261	11.09
840.437	60.24
840.614	13.14
840.79	56.15
840.966	35.67
841.142	11.09
841.318	109.4
841.494	31.57
841.671	47.96
841.847	72.53
842.023	25.43
842.199	125.78
842.375	103.25
842.551	-13.48
842.727	-15.53
842.903	103.25
843.079	4.95
843.255	54.1
843.431	68.44
843.607	90.96
843.783	19.29
843.959	97.11
844.134	27.48
844.31	68.44
844.486	127.83
844.662	72.53
844.838	43.86
845.013	-36.01
845.189	52.05
845.365	62.29
845.541	37.72
845.716	58.2
845.892	97.11
846.068	43.86
846.244	72.53
846.419	101.2
846.595	-5.29
846.77	4.95
846.946	56.15
847.122	78.68
847.297	54.1
847.473	95.06
847.648	19.29
847.824	68.44
847.999	19.29
848.175	68.44
848.35	97.11
848.526	101.2
848.701	15.19
848.876	76.63
849.052	70.48
849.227	-1.19
849.403	129.88
849.578	54.1
849.753	11.09
849.929	33.62
850.104	-15.53
850.279	4.95
850.454	35.67
850.63	19.29
850.805	78.68
850.98	19.29
851.155	29.52
851.33	31.57
851.505	-29.87
851.681	90.96
851.856	35.67
852.031	-54.44
852.206	86.87
852.381	-54.44
852.556	39.76
852.731	56.15
852.906	23.38
853.081	35.67
853.256	117.59
853.431	-3.24
853.606	9.05
853.781	39.76
853.956	-91.31
854.131	21.33
854.305	15.19
854.48	74.58
854.655	-50.35
854.83	52.05
855.005	64.34
855.18	27.48
855.354	11.09
855.529	2.9
855.704	27.48
855.879	-11.43
856.053	-9.39
856.228	125.78
856.403	78.68
856.577	37.72
856.752	37.72
856.926	43.86
857.101	105.3
857.276	-36.01
857.45	27.48
857.625	37.72
857.799	41.81
857.974	25.43
858.148	-13.48
858.323	-3.24
858.497	-5.29
858.672	4.95
858.846	129.88
859.02	-11.43
859.195	-7.34
859.369	45.91
859.543	31.57
859.718	27.48
859.892	11.09
860.066	-62.63
860.241	19.29
860.415	-17.58
860.589	-5.29
860.763	19.29
860.938	31.57
861.112	35.67
861.286	23.38
861.46	-9.39
861.634	19.29
861.808	93.01
861.982	-25.77
862.157	41.81
862.331	41.81
862.505	33.62
862.679	-117.93
862.853	31.57
863.027	35.67
863.201	27.48
863.375	13.14
863.549	-19.63
863.722	25.43
863.896	-46.25
864.07	-60.59
864.244	52.05
864.418	-46.25
864.592	13.14
864.766	-21.67
864.939	70.48
865.113	29.52
865.287	56.15
865.461	23.38
865.634	-3.24
865.808	27.48
865.982	2.9
866.156	-52.39
866.329	-68.78
866.503	52.05
866.676	37.72
866.85	-54.44
867.024	25.43
867.197	27.48
867.371	47.96
867.544	52.05
867.718	-70.83
867.891	43.86
868.065	54.1
868.238	9.05
868.412	-5.29
868.585	43.86
868.759	-15.53
868.932	-38.06
869.105	-54.44
869.279	37.72
869.452	43.86
869.625	39.76
869.799	-21.67
869.972	-1.19
870.145	47.96
870.319	117.59
870.492	-3.24
870.665	-52.39
870.838	95.06
871.011	-46.25
871.185	-44.2
871.358	11.09
871.531	11.09
871.704	-5.29
871.877	19.29
872.05	-11.43
872.223	-21.67
872.396	-5.29
872.569	88.92
872.742	7
872.915	93.01
873.088	39.76
873.261	-46.25
873.434	11.09
873.607	25.43
873.78	17.24
873.953	-5.29
874.126	23.38
874.299	2.9
874.471	72.53
874.644	-3.24
874.817	4.95
874.99	72.53
875.163	19.29
875.335	21.33
875.508	15.19
875.681	84.82
875.853	19.29
876.026	-46.25
876.199	27.48
876.371	-7.34
876.544	-19.63
876.717	21.33
876.889	-87.21
877.062	47.96
877.234	-79.02
877.407	27.48
877.579	7
877.752	56.15
877.924	52.05
878.097	62.29
878.269	4.95
878.442	56.15
878.614	35.67
878.786	-25.77
878.959	35.67
879.131	25.43
879.303	-42.15
879.476	27.48
879.648	56.15
879.82	27.48
879.993	74.58
880.165	31.57
880.337	-70.83
880.509	43.86
880.681	23.38
880.854	-56.49
881.026	31.57
881.198	68.44
881.37	68.44
881.542	84.82
881.714	4.95
881.886	7
882.058	-29.87
882.23	68.44
882.402	2.9
882.574	27.48
882.746	-9.39
882.918	27.48
883.09	13.14
883.262	29.52
883.434	-5.29
883.606	-38.06
883.778	21.33
883.95	56.15
884.122	-44.2
884.293	-13.48
884.465	-9.39
884.637	19.29
884.809	-58.54
884.98	68.44
885.152	-52.39
885.324	121.68
885.496	54.1
885.667	13.14
885.839	-38.06
886.011	35.67
886.182	35.67
886.354	43.86
886.525	13.14
886.697	19.29
886.869	37.72
887.04	29.52
887.212	7
887.383	29.52
887.555	54.1
887.726	2.9
887.897	-64.68
888.069	76.63
888.24	13.14
888.412	2.9
888.583	-17.58
888.754	-15.53
888.926	-23.72
889.097	-17.58
889.268	27.48
889.44	31.57
889.611	-66.73
889.782	-17.58
889.953	11.09
890.125	37.72
890.296	39.76
890.467	-9.39
890.638	-101.55
890.809	60.24
890.98	-46.25
891.151	13.14
891.323	-27.82
891.494	11.09
891.665	2.9
891.836	56.15
892.007	7
892.178	-9.39
892.349	11.09
892.52	-29.87
892.691	-5.29
892.862	-29.87
893.032	-21.67
893.203	78.68
893.374	0.85
893.545	93.01
893.716	-27.82
893.887	19.29
894.057	-29.87
894.228	-50.35
894.399	-58.54
894.57	29.52
894.74	-29.87
894.911	-46.25
895.082	-44.2
895.253	21.33
895.423	2.9
895.594	35.67
895.764	-44.2
895.935	43.86
896.106	-87.21
896.276	25.43
896.447	-76.97
896.617	-68.78
896.788	-21.67
896.958	-27.82
897.129	-60.59
897.299	15.19
897.47	29.52
897.64	43.86
897.81	-85.16
897.981	-3.24
898.151	-38.06
898.322	9.05
898.492	-19.63
898.662	-13.48
898.832	-13.48
899.003	33.62
899.173	-13.48
899.343	43.86
899.513	-3.24
