Data from USB4F104151__237__14-45-44-484.txt Node

Date: Thu Mar 13 14:45:44 EDT 2025
User: louis
Spectrometer: USB4F10415
Trigger mode: 4
Integration Time (sec): 2.000000E-2
Scans to average: 1
Electric dark correction enabled: true
Nonlinearity correction enabled: false
Boxcar width: 0
XAxis mode: Wavelengths
Number of Pixels in Spectrum: 3648
>>>>>Begin Spectral Data<<<<<
178.204	-127.83
178.424	-127.83
178.644	-127.83
178.864	-97.11
179.084	-101.2
179.304	21.67
179.524	-62.29
179.744	3.24
179.964	66.73
180.184	7.34
180.404	-17.24
180.624	40.11
180.844	-11.09
181.064	-93.01
181.283	19.63
181.503	3.24
181.723	21.67
181.943	11.43
182.163	40.11
182.383	11.43
182.602	68.78
182.822	76.97
183.042	21.67
183.262	3.24
183.482	-7
183.701	44.2
183.921	27.82
184.141	-2.9
184.361	52.39
184.58	-33.62
184.8	-70.48
185.02	11.43
185.239	76.97
185.459	68.78
185.679	46.25
185.898	5.29
186.118	76.97
186.338	44.2
186.557	27.82
186.777	29.87
186.997	27.82
187.216	-37.72
187.436	-68.44
187.655	85.16
187.875	15.53
188.095	60.59
188.314	29.87
188.534	19.63
188.753	11.43
188.973	68.78
189.192	83.11
189.412	-43.86
189.631	3.24
189.851	21.67
190.07	27.82
190.29	46.25
190.509	-9.05
190.729	60.59
190.948	-21.33
191.168	109.74
191.387	89.26
191.607	-2.9
191.826	-66.39
192.045	3.24
192.265	-2.9
192.484	7.34
192.704	31.91
192.923	-21.33
193.142	40.11
193.362	93.35
193.581	-17.24
193.8	60.59
194.02	56.49
194.239	109.74
194.458	21.67
194.678	-50
194.897	25.77
195.116	81.07
195.335	-0.85
195.555	-7
195.774	-11.09
195.993	97.45
196.212	17.58
196.432	40.11
196.651	-13.14
196.87	-50
197.089	56.49
197.308	40.11
197.528	56.49
197.747	27.82
197.966	-21.33
198.185	101.55
198.404	5.29
198.623	52.39
198.842	3.24
199.062	46.25
199.281	54.44
199.5	21.67
199.719	-17.24
199.938	36.01
200.157	130.22
200.376	68.78
200.595	29.87
200.814	-43.86
201.033	-13.14
201.252	60.59
201.471	31.91
201.69	19.63
201.909	5.29
202.128	9.39
202.347	5.29
202.566	-60.24
202.785	44.2
203.004	-15.19
203.223	105.64
203.442	27.82
203.661	87.21
203.879	48.3
204.098	-17.24
204.317	54.44
204.536	85.16
204.755	-2.9
204.974	36.01
205.193	11.43
205.411	48.3
205.63	9.39
205.849	27.82
206.068	33.96
206.287	11.43
206.505	5.29
206.724	-27.48
206.943	-52.05
207.162	44.2
207.381	44.2
207.599	38.06
207.818	-17.24
208.037	-21.33
208.255	-43.86
208.474	-21.33
208.693	105.64
208.911	-4.95
209.13	72.87
209.349	13.48
209.567	60.59
209.786	21.67
210.005	3.24
210.223	36.01
210.442	-68.44
210.661	15.53
210.879	19.63
211.098	85.16
211.316	5.29
211.535	33.96
211.753	62.63
211.972	-2.9
212.191	60.59
212.409	19.63
212.628	89.26
212.846	-0.85
213.065	54.44
213.283	60.59
213.502	-19.29
213.72	-2.9
213.938	60.59
214.157	15.53
214.375	-7
214.594	93.35
214.812	74.92
215.031	13.48
215.249	64.68
215.467	48.3
215.686	27.82
215.904	62.63
216.122	56.49
216.341	130.22
216.559	-29.52
216.778	72.87
216.996	134.31
217.214	11.43
217.432	1.19
217.651	74.92
217.869	60.59
218.087	13.48
218.306	9.39
218.524	101.55
218.742	-13.14
218.96	-7
219.179	-29.52
219.397	27.82
219.615	-25.43
219.833	64.68
220.051	19.63
220.27	-0.85
220.488	33.96
220.706	23.72
220.924	-29.52
221.142	-90.96
221.36	48.3
221.578	15.53
221.796	13.48
222.015	-21.33
222.233	-13.14
222.451	38.06
222.669	44.2
222.887	38.06
223.105	-33.62
223.323	9.39
223.541	-4.95
223.759	25.77
223.977	-43.86
224.195	64.68
224.413	-33.62
224.631	81.07
224.849	27.82
225.067	36.01
225.285	-19.29
225.503	13.48
225.721	-4.95
225.939	-0.85
226.157	7.34
226.375	11.43
226.592	-68.44
226.81	52.39
227.028	60.59
227.246	85.16
227.464	31.91
227.682	76.97
227.9	50.35
228.117	52.39
228.335	60.59
228.553	50.35
228.771	-29.52
228.989	11.43
229.206	21.67
229.424	-2.9
229.642	19.63
229.86	-0.85
230.077	44.2
230.295	27.82
230.513	76.97
230.731	-9.05
230.948	36.01
231.166	-17.24
231.384	15.53
231.601	5.29
231.819	3.24
232.037	23.72
232.254	-21.33
232.472	132.26
232.689	21.67
232.907	48.3
233.125	11.43
233.342	46.25
233.56	29.87
233.777	-4.95
233.995	-19.29
234.213	31.91
234.43	40.11
234.648	15.53
234.865	27.82
235.083	52.39
235.3	-11.09
235.518	72.87
235.735	31.91
235.953	56.49
236.17	44.2
236.388	-9.05
236.605	-13.14
236.822	52.39
237.04	52.39
237.257	-21.33
237.475	-21.33
237.692	36.01
237.909	-7
238.127	46.25
238.344	36.01
238.562	-29.52
238.779	-13.14
238.996	13.48
239.214	13.48
239.431	46.25
239.648	-58.2
239.865	-56.15
240.083	160.94
240.3	58.54
240.517	-19.29
240.735	76.97
240.952	33.96
241.169	27.82
241.386	19.63
241.603	27.82
241.821	-33.62
242.038	62.63
242.255	-43.86
242.472	-21.33
242.689	60.59
242.907	36.01
243.124	76.97
243.341	60.59
243.558	1.19
243.775	-11.09
243.992	3.24
244.209	58.54
244.426	101.55
244.643	76.97
244.86	44.2
245.078	36.01
245.295	-37.72
245.512	44.2
245.729	11.43
245.946	38.06
246.163	15.53
246.38	17.58
246.597	40.11
246.814	70.83
247.031	19.63
247.248	97.45
247.464	54.44
247.681	7.34
247.898	23.72
248.115	68.78
248.332	-39.76
248.549	27.82
248.766	19.63
248.983	40.11
249.2	7.34
249.417	79.02
249.633	38.06
249.85	38.06
250.067	-43.86
250.284	62.63
250.501	79.02
250.717	68.78
250.934	109.74
251.151	27.82
251.368	-25.43
251.585	62.63
251.801	29.87
252.018	23.72
252.235	79.02
252.451	15.53
252.668	17.58
252.885	52.39
253.102	44.2
253.318	44.2
253.535	-47.96
253.752	-0.85
253.968	19.63
254.185	-54.1
254.401	-2.9
254.618	11.43
254.835	-21.33
255.051	79.02
255.268	76.97
255.484	95.4
255.701	79.02
255.917	85.16
256.134	-29.52
256.351	25.77
256.567	-60.24
256.784	36.01
257	-21.33
257.217	103.59
257.433	5.29
257.65	76.97
257.866	42.15
258.082	-2.9
258.299	5.29
258.515	85.16
258.732	-27.48
258.948	27.82
259.165	46.25
259.381	85.16
259.597	60.59
259.814	-35.67
260.03	13.48
260.246	5.29
260.463	93.35
260.679	48.3
260.895	85.16
261.112	27.82
261.328	52.39
261.544	58.54
261.761	-29.52
261.977	11.43
262.193	3.24
262.409	117.93
262.626	50.35
262.842	7.34
263.058	-4.95
263.274	54.44
263.49	87.21
263.707	85.16
263.923	33.96
264.139	68.78
264.355	29.87
264.571	52.39
264.787	17.58
265.004	79.02
265.22	27.82
265.436	-25.43
265.652	46.25
265.868	70.83
266.084	13.48
266.3	46.25
266.516	-0.85
266.732	79.02
266.948	-13.14
267.164	52.39
267.38	68.78
267.596	-60.24
267.812	105.64
268.028	36.01
268.244	7.34
268.46	52.39
268.676	36.01
268.892	60.59
269.108	3.24
269.324	-0.85
269.54	17.58
269.756	-4.95
269.972	-41.81
270.188	-4.95
270.403	-13.14
270.619	46.25
270.835	64.68
271.051	60.59
271.267	1.19
271.483	-7
271.698	19.63
271.914	60.59
272.13	-4.95
272.346	-7
272.562	36.01
272.777	97.45
272.993	52.39
273.209	23.72
273.425	36.01
273.64	97.45
273.856	3.24
274.072	11.43
274.287	-70.48
274.503	9.39
274.719	107.69
274.934	-37.72
275.15	19.63
275.366	31.91
275.581	-70.48
275.797	5.29
276.012	-41.81
276.228	27.82
276.444	40.11
276.659	93.35
276.875	44.2
277.09	-37.72
277.306	-13.14
277.521	-11.09
277.737	-25.43
277.952	89.26
278.168	36.01
278.383	85.16
278.599	68.78
278.814	64.68
279.03	44.2
279.245	5.29
279.461	-9.05
279.676	15.53
279.892	-27.48
280.107	5.29
280.322	5.29
280.538	44.2
280.753	3.24
280.969	23.72
281.184	-19.29
281.399	19.63
281.615	40.11
281.83	79.02
282.045	1.19
282.26	-13.14
282.476	5.29
282.691	33.96
282.906	50.35
283.122	9.39
283.337	9.39
283.552	76.97
283.767	-13.14
283.983	27.82
284.198	21.67
284.413	111.78
284.628	-17.24
284.843	5.29
285.058	113.83
285.274	48.3
285.489	-21.33
285.704	36.01
285.919	60.59
286.134	13.48
286.349	11.43
286.564	-4.95
286.779	48.3
286.995	36.01
287.21	3.24
287.425	-37.72
287.64	-19.29
287.855	105.64
288.07	-11.09
288.285	29.87
288.5	29.87
288.715	17.58
288.93	79.02
289.145	60.59
289.36	99.5
289.575	117.93
289.79	85.16
290.004	-37.72
290.219	85.16
290.434	83.11
290.649	-17.24
290.864	44.2
291.079	-4.95
291.294	56.49
291.509	5.29
291.724	-11.09
291.938	21.67
292.153	5.29
292.368	79.02
292.583	3.24
292.798	64.68
293.012	-13.14
293.227	109.74
293.442	-52.05
293.657	113.83
293.871	44.2
294.086	56.49
294.301	113.83
294.516	33.96
294.73	-9.05
294.945	-2.9
295.16	-13.14
295.374	103.59
295.589	-2.9
295.804	31.91
296.018	76.97
296.233	111.78
296.447	60.59
296.662	-31.57
296.877	38.06
297.091	21.67
297.306	-41.81
297.52	70.83
297.735	79.02
297.949	95.4
298.164	50.35
298.378	70.83
298.593	48.3
298.807	-27.48
299.022	36.01
299.236	19.63
299.451	89.26
299.665	27.82
299.88	54.44
300.094	42.15
300.309	-2.9
300.523	-9.05
300.737	27.82
300.952	7.34
301.166	40.11
301.381	-35.67
301.595	-68.44
301.809	38.06
302.024	-13.14
302.238	-19.29
302.452	79.02
302.667	36.01
302.881	38.06
303.095	19.63
303.309	97.45
303.524	-0.85
303.738	46.25
303.952	23.72
304.166	46.25
304.381	-41.81
304.595	21.67
304.809	70.83
305.023	36.01
305.237	58.54
305.452	-11.09
305.666	85.16
305.88	33.96
306.094	33.96
306.308	56.49
306.522	89.26
306.736	31.91
306.95	44.2
307.164	5.29
307.379	-45.91
307.593	31.91
307.807	74.92
308.021	5.29
308.235	15.53
308.449	-43.86
308.663	7.34
308.877	62.63
309.091	79.02
309.305	38.06
309.519	-0.85
309.733	5.29
309.947	-76.63
310.161	44.2
310.374	46.25
310.588	29.87
310.802	-21.33
311.016	-54.1
311.23	95.4
311.444	40.11
311.658	52.39
311.872	72.87
312.085	-0.85
312.299	105.64
312.513	36.01
312.727	3.24
312.941	29.87
313.154	60.59
313.368	27.82
313.582	25.77
313.796	81.07
314.009	19.63
314.223	-2.9
314.437	11.43
314.651	29.87
314.864	15.53
315.078	44.2
315.292	44.2
315.505	5.29
315.719	3.24
315.933	38.06
316.146	-35.67
316.36	42.15
316.573	-17.24
316.787	72.87
317.001	11.43
317.214	-19.29
317.428	40.11
317.641	-27.48
317.855	-11.09
318.068	27.82
318.282	87.21
318.495	162.98
318.709	13.48
318.922	-58.2
319.136	85.16
319.349	23.72
319.563	-25.43
319.776	3.24
319.99	-41.81
320.203	11.43
320.417	19.63
320.63	48.3
320.843	48.3
321.057	-13.14
321.27	29.87
321.483	-19.29
321.697	62.63
321.91	89.26
322.124	62.63
322.337	27.82
322.55	-2.9
322.763	76.97
322.977	79.02
323.19	13.48
323.403	68.78
323.617	-7
323.83	3.24
324.043	68.78
324.256	36.01
324.469	52.39
324.683	85.16
324.896	5.29
325.109	9.39
325.322	-4.95
325.535	15.53
325.748	97.45
325.962	85.16
326.175	91.31
326.388	-0.85
326.601	62.63
326.814	93.35
327.027	68.78
327.24	-13.14
327.453	38.06
327.666	109.74
327.879	19.63
328.092	52.39
328.305	56.49
328.518	-2.9
328.731	29.87
328.944	33.96
329.157	27.82
329.37	19.63
329.583	31.91
329.796	-17.24
330.009	36.01
330.222	60.59
330.435	79.02
330.648	46.25
330.861	-64.34
331.073	54.44
331.286	-17.24
331.499	31.91
331.712	-23.38
331.925	27.82
332.138	44.2
332.35	101.55
332.563	17.58
332.776	36.01
332.989	-43.86
333.202	54.44
333.414	60.59
333.627	15.53
333.84	27.82
334.053	64.68
334.265	-4.95
334.478	52.39
334.691	23.72
334.903	38.06
335.116	52.39
335.329	-13.14
335.541	9.39
335.754	48.3
335.966	44.2
336.179	29.87
336.392	52.39
336.604	42.15
336.817	31.91
337.029	40.11
337.242	-9.05
337.454	-66.39
337.667	5.29
337.88	62.63
338.092	85.16
338.305	72.87
338.517	-29.52
338.729	64.68
338.942	33.96
339.154	17.58
339.367	19.63
339.579	38.06
339.792	68.78
340.004	81.07
340.217	29.87
340.429	15.53
340.641	25.77
340.854	68.78
341.066	13.48
341.278	111.78
341.491	62.63
341.703	54.44
341.915	38.06
342.128	13.48
342.34	79.02
342.552	7.34
342.764	27.82
342.977	44.2
343.189	46.25
343.401	23.72
343.613	11.43
343.826	87.21
344.038	11.43
344.25	27.82
344.462	-52.05
344.674	89.26
344.886	70.83
345.099	105.64
345.311	23.72
345.523	79.02
345.735	13.48
345.947	3.24
346.159	46.25
346.371	-9.05
346.583	13.48
346.795	56.49
347.007	-13.14
347.219	11.43
347.431	-19.29
347.643	19.63
347.855	-37.72
348.067	60.59
348.279	54.44
348.491	13.48
348.703	19.63
348.915	5.29
349.127	-9.05
349.339	103.59
349.551	-29.52
349.763	36.01
349.975	-95.06
350.187	-19.29
350.399	44.2
350.61	7.34
350.822	38.06
351.034	79.02
351.246	29.87
351.458	44.2
351.669	66.73
351.881	70.83
352.093	52.39
352.305	52.39
352.517	103.59
352.728	-7
352.94	38.06
353.152	27.82
353.363	-25.43
353.575	36.01
353.787	-31.57
353.999	87.21
354.21	5.29
354.422	13.48
354.633	-37.72
354.845	-23.38
355.057	66.73
355.268	15.53
355.48	-4.95
355.692	76.97
355.903	52.39
356.115	29.87
356.326	-37.72
356.538	38.06
356.749	60.59
356.961	19.63
357.172	56.49
357.384	-47.96
357.595	93.35
357.807	19.63
358.018	40.11
358.23	76.97
358.441	107.69
358.653	74.92
358.864	48.3
359.075	64.68
359.287	3.24
359.498	56.49
359.709	40.11
359.921	52.39
360.132	74.92
360.344	74.92
360.555	-25.43
360.766	19.63
360.977	29.87
361.189	62.63
361.4	5.29
361.611	70.83
361.823	81.07
362.034	-4.95
362.245	-37.72
362.456	74.92
362.667	13.48
362.879	60.59
363.09	79.02
363.301	3.24
363.512	54.44
363.723	36.01
363.935	38.06
364.146	21.67
364.357	13.48
364.568	72.87
364.779	29.87
364.99	46.25
365.201	-43.86
365.412	70.83
365.623	31.91
365.834	54.44
366.045	21.67
366.256	-25.43
366.467	17.58
366.678	-23.38
366.889	31.91
367.1	21.67
367.311	52.39
367.522	-11.09
367.733	33.96
367.944	44.2
368.155	-54.1
368.366	60.59
368.577	-21.33
368.788	52.39
368.999	11.43
369.209	27.82
369.42	74.92
369.631	95.4
369.842	42.15
370.053	-54.1
370.264	50.35
370.474	-0.85
370.685	48.3
370.896	3.24
371.107	27.82
371.317	89.26
371.528	21.67
371.739	64.68
371.95	11.43
372.16	74.92
372.371	27.82
372.582	23.72
372.792	60.59
373.003	60.59
373.214	19.63
373.424	-54.1
373.635	-54.1
373.846	93.35
374.056	-13.14
374.267	93.35
374.477	146.6
374.688	27.82
374.898	36.01
375.109	60.59
375.319	52.39
375.53	44.2
375.74	38.06
375.951	60.59
376.161	23.72
376.372	29.87
376.582	36.01
376.793	-4.95
377.003	3.24
377.214	36.01
377.424	72.87
377.635	13.48
377.845	21.67
378.055	60.59
378.266	21.67
378.476	89.26
378.686	21.67
378.897	44.2
379.107	95.4
379.317	56.49
379.528	36.01
379.738	60.59
379.948	68.78
380.158	93.35
380.369	87.21
380.579	91.31
380.789	5.29
380.999	124.07
381.21	-0.85
381.42	40.11
381.63	-2.9
381.84	85.16
382.05	36.01
382.261	64.68
382.471	58.54
382.681	40.11
382.891	36.01
383.101	81.07
383.311	3.24
383.521	29.87
383.731	36.01
383.941	95.4
384.151	-7
384.361	97.45
384.571	130.22
384.781	52.39
384.991	87.21
385.201	109.74
385.411	21.67
385.621	52.39
385.831	68.78
386.041	17.58
386.251	15.53
386.461	48.3
386.671	97.45
386.881	15.53
387.091	101.55
387.301	115.88
387.511	19.63
387.72	85.16
387.93	58.54
388.14	23.72
388.35	36.01
388.56	52.39
388.769	79.02
388.979	64.68
389.189	40.11
389.399	38.06
389.609	87.21
389.818	31.91
390.028	23.72
390.238	44.2
390.447	93.35
390.657	97.45
390.867	52.39
391.076	7.34
391.286	117.93
391.496	60.59
391.705	50.35
391.915	76.97
392.125	109.74
392.334	27.82
392.544	66.73
392.753	-11.09
392.963	60.59
393.172	81.07
393.382	29.87
393.591	136.36
393.801	60.59
394.01	111.78
394.22	150.7
394.429	134.31
394.639	23.72
394.848	11.43
395.058	93.35
395.267	68.78
395.477	11.43
395.686	31.91
395.895	85.16
396.105	117.93
396.314	56.49
396.524	89.26
396.733	70.83
396.942	81.07
397.152	85.16
397.361	50.35
397.57	31.91
397.78	136.36
397.989	105.64
398.198	113.83
398.407	136.36
398.617	19.63
398.826	21.67
399.035	76.97
399.244	83.11
399.453	109.74
399.663	87.21
399.872	117.93
400.081	76.97
400.29	54.44
400.499	31.91
400.708	140.46
400.917	97.45
401.127	85.16
401.336	46.25
401.545	203.94
401.754	95.4
401.963	62.63
402.172	109.74
402.381	105.64
402.59	52.39
402.799	44.2
403.008	167.08
403.217	160.94
403.426	48.3
403.635	27.82
403.844	101.55
404.053	27.82
404.262	130.22
404.471	167.08
404.68	91.31
404.888	105.64
405.097	154.79
405.306	95.4
405.515	167.08
405.724	152.74
405.933	189.61
406.142	177.32
406.35	171.18
406.559	144.55
406.768	128.17
406.977	257.19
407.185	128.17
407.394	109.74
407.603	214.18
407.812	201.9
408.02	214.18
408.229	179.37
408.438	244.9
408.646	154.79
408.855	195.75
409.064	224.42
409.272	195.75
409.481	242.85
409.69	238.76
409.898	218.28
410.107	232.62
410.315	146.6
410.524	216.23
410.733	306.34
410.941	210.09
411.15	285.86
411.358	292.01
411.567	314.53
411.775	275.62
411.984	330.92
412.192	375.97
412.401	423.08
412.609	457.89
412.818	414.88
413.026	310.44
413.234	365.73
413.443	367.78
413.651	410.79
413.86	363.69
414.068	453.8
414.276	509.09
414.485	527.52
414.693	474.28
414.901	625.83
415.11	480.42
415.318	609.44
415.526	519.33
415.734	554.15
415.943	523.43
416.151	629.92
416.359	722.08
416.567	672.93
416.776	679.07
416.984	777.37
417.192	830.62
417.4	840.86
417.608	810.14
417.817	717.98
418.025	861.34
418.233	980.12
418.441	908.44
418.649	945.31
418.857	930.97
419.065	1027.23
419.273	969.88
419.481	994.46
419.689	1152.15
419.897	1197.21
420.105	1227.93
420.313	1201.3
420.521	1309.85
420.729	1352.85
420.937	1297.56
421.145	1428.63
421.353	1502.36
421.561	1547.41
421.769	1621.14
421.977	1578.13
422.185	1649.81
422.393	1774.74
422.601	1780.88
422.809	1782.93
423.017	1842.32
423.224	1928.33
423.432	2112.65
423.64	2018.44
423.848	2182.28
424.056	2126.99
424.263	2266.25
424.471	2296.97
424.679	2382.98
424.887	2430.09
425.094	2567.3
425.302	2575.49
425.51	2641.03
425.718	2686.08
425.925	2837.63
426.133	2765.95
426.341	3114.11
426.548	3202.17
426.756	3052.67
426.964	3193.98
427.171	3300.47
427.379	3527.8
427.586	3443.83
427.794	3714.16
428.001	3878
428.209	4035.69
428.417	3921.01
428.624	4107.37
428.832	4117.61
429.039	4158.57
429.247	4158.57
429.454	4617.32
429.662	4742.24
429.869	4586.6
430.076	4791.39
430.284	4639.84
430.491	4934.75
430.699	5182.56
430.906	5155.93
431.114	5217.37
431.321	5403.74
431.528	5588.05
431.736	5831.76
431.943	6315.08
432.15	5983.31
432.358	5860.43
432.565	6200.4
432.772	6222.92
432.979	6782.02
433.187	6730.82
433.394	6870.08
433.601	7167.04
433.808	7224.38
434.016	7134.27
434.223	7517.24
434.43	8152.11
434.637	8014.9
434.844	8420.39
435.052	8408.11
435.259	8336.43
435.466	8576.04
435.673	8473.64
435.88	9010.21
436.087	9540.63
436.294	9309.21
436.501	9215.01
436.708	9382.94
436.915	9939.99
437.122	10191.89
437.329	9987.09
437.537	10423.31
437.743	10654.73
437.95	10656.78
438.157	11031.55
438.364	11598.84
438.571	11443.2
438.778	11572.22
438.985	12727.27
439.192	12098.55
439.399	12708.84
439.606	12184.56
439.813	13147.11
440.02	13818.84
440.227	13480.92
440.433	13353.95
440.64	13552.6
440.847	13788.12
441.054	13888.47
441.261	14726.09
441.467	14689.23
441.674	15016.9
441.881	15666.11
442.088	15723.45
442.294	15457.21
442.501	15745.98
442.708	16255.92
442.914	16823.21
443.121	17421.22
443.328	16944.04
443.534	18029.46
443.741	17488.8
443.948	17402.79
444.154	18584.46
444.361	18623.37
444.568	18693.01
444.774	18598.8
444.981	18776.97
445.187	19493.76
445.394	20315
445.6	20042.62
445.807	21920.6
446.013	21080.94
446.22	21304.17
446.426	22350.68
446.633	22422.36
446.839	23188.3
447.046	22326.1
447.252	23644.99
447.459	23382.85
447.665	23499.59
447.871	24447.8
448.078	25672.48
448.284	24159.03
448.491	24951.6
448.697	25678.63
448.903	26444.57
449.11	26614.55
449.316	26258.2
449.522	26589.97
449.728	27140.88
449.935	27511.56
450.141	27431.69
450.347	28287.74
450.553	27230.99
450.76	27724.55
450.966	28943.09
451.172	28105.47
451.378	29065.97
451.584	28175.1
451.791	29375.21
451.997	28709.62
452.203	29491.94
452.409	29561.58
452.615	29520.62
452.821	28128
453.027	28080.89
453.233	29563.62
453.44	28455.67
453.646	28795.64
453.852	29025.01
454.058	29119.21
454.264	28531.45
454.47	29053.68
454.676	28259.07
454.882	29455.08
455.088	27015.95
455.294	26901.26
455.5	27673.35
455.705	27955.97
455.911	26878.74
456.117	26196.76
456.323	26280.73
456.529	24711.99
456.735	25959.2
456.941	25115.44
457.147	24671.03
457.352	23935.81
457.558	23857.98
457.764	23667.52
457.97	23573.31
458.176	22989.64
458.381	22930.25
458.587	21707.62
458.793	21801.82
458.999	20724.59
459.204	22221.66
459.41	21500.77
459.616	20011.9
459.821	20153.21
460.027	20026.23
460.233	19583.87
460.438	18772.88
460.644	19057.54
460.85	18080.66
461.055	17755.04
461.261	17896.35
461.466	16378.8
461.672	16202.68
461.878	17025.96
462.083	15858.62
462.289	15637.44
462.494	15600.57
462.7	15008.71
462.905	14517.2
463.111	14998.47
463.316	15209.41
463.522	14554.06
463.727	14695.37
463.932	14988.23
464.138	14412.75
464.343	14652.36
464.549	14253.01
464.754	14721.99
464.959	14484.43
465.165	14500.81
465.37	13888.47
465.575	13421.53
465.781	14197.71
465.986	14040.02
466.191	13560.8
466.397	13237.22
466.602	12723.18
466.807	13304.8
467.012	13241.31
467.218	13095.91
467.423	13013.99
467.628	13032.42
467.833	13566.94
468.038	12872.68
468.244	12798.95
468.449	13312.99
468.654	12598.25
468.859	12841.96
469.064	12602.35
469.269	12170.22
469.474	12436.46
469.679	12430.32
469.885	11916.28
470.09	12305.39
470.295	12198.9
470.5	11840.5
470.705	12004.34
470.91	11746.3
471.115	11652.09
471.32	11674.62
471.525	11762.68
471.73	11486.2
471.935	11430.91
472.139	11176.96
472.344	11228.16
472.549	11088.9
472.754	10826.76
472.959	10742.79
473.164	10546.19
473.369	10304.53
473.574	10750.98
473.778	10484.75
473.983	10603.53
474.188	10390.54
474.393	10128.4
474.598	10075.15
474.802	10265.61
475.007	10009.62
475.212	9972.75
475.417	9727
475.621	9700.37
475.826	9747.48
476.031	9376.8
476.235	9026.59
476.44	9643.03
476.645	9090.08
476.849	9333.79
477.054	9147.42
477.259	9118.75
477.463	9081.89
477.668	8829.99
477.872	8885.28
478.077	8770.6
478.282	8516.65
478.486	8342.57
478.691	8318
478.895	8506.41
479.1	8279.08
479.304	8332.33
479.509	8184.88
479.713	8297.52
479.918	7998.51
480.122	7941.17
480.326	8004.66
480.531	8098.86
480.735	7904.31
480.94	7806
481.144	8209.45
481.348	7959.6
481.553	8088.62
481.757	7744.56
481.961	7760.95
482.166	7914.55
482.37	7719.99
482.574	7928.88
482.778	7857.2
482.983	7926.83
483.187	7871.54
483.391	7967.79
483.595	7599.16
483.8	7765.04
484.004	7806
484.208	7844.91
484.412	7726.13
484.616	7767.09
484.821	7713.84
485.025	7730.23
485.229	7941.17
485.433	7773.24
485.637	7920.69
485.841	7543.86
486.045	7695.41
486.249	7853.11
486.453	7605.3
486.657	7818.29
486.861	7640.12
487.065	7502.9
487.269	7873.59
487.473	7519.29
487.677	7765.04
487.881	7818.29
488.085	7666.74
488.289	7861.3
488.493	7746.61
488.697	7853.11
488.901	7572.54
489.105	8021.04
489.309	7689.27
489.512	7814.2
489.716	7859.25
489.92	7769.14
490.124	7875.63
490.328	8113.2
490.531	7996.46
490.735	8010.8
490.939	8021.04
491.143	8035.38
491.346	7937.07
491.55	8162.35
491.754	7879.73
491.958	8162.35
492.161	8115.25
492.365	8465.45
492.569	8201.26
492.772	8096.82
492.976	8223.79
493.18	8309.8
493.383	8600.62
493.587	8582.18
493.79	8623.14
493.994	8459.31
494.197	8573.99
494.401	8676.39
494.605	8672.29
494.808	8721.45
495.012	8703.01
495.215	8856.61
495.419	8899.62
495.622	8938.53
495.825	9079.84
496.029	9065.5
496.232	9260.06
496.436	9184.29
496.639	9407.52
496.843	9352.22
497.046	9747.48
497.249	9710.61
497.453	9864.21
497.656	9851.92
497.859	9899.03
498.063	10148.88
498.266	10214.41
498.469	10034.19
498.673	10261.52
498.876	10445.84
499.079	10497.03
499.282	10447.88
499.485	10818.57
499.689	10914.82
499.892	10888.2
500.095	11209.73
500.298	11475.96
500.501	11138.05
500.705	11596.79
500.908	11604.99
501.111	11774.97
501.314	11992.05
501.517	11889.65
501.72	12264.43
501.923	11914.23
502.126	12377.07
502.329	12575.72
502.532	12602.35
502.735	12651.5
502.938	12874.73
503.141	12872.68
503.344	13122.53
503.547	13192.16
503.75	13695.96
503.953	13695.96
504.156	13745.11
504.359	13853.66
504.562	14029.78
504.765	14361.55
504.968	14373.84
505.17	14416.85
505.373	14478.29
505.576	14740.43
505.779	15219.65
505.982	14998.47
506.185	15322.05
506.387	15602.62
506.59	15489.98
506.793	15930.3
506.996	15887.29
507.198	16161.72
507.401	16038.84
507.604	16360.37
507.807	16792.49
508.009	17120.17
508.212	16939.94
508.415	17343.39
508.617	17382.31
508.82	17429.41
509.022	17392.55
509.225	17988.5
509.428	18168.73
509.63	18396.05
509.833	18269.08
510.035	18822.03
510.238	18699.15
510.44	18797.45
510.643	19174.28
510.845	19381.12
511.048	19231.62
511.25	19440.51
511.453	19647.36
511.655	20454.26
511.858	20280.18
512.06	20423.54
512.262	20673.39
512.465	20775.79
512.667	20984.68
512.87	21195.62
513.072	21316.45
513.274	21506.91
513.477	21891.93
513.679	21984.09
513.881	22598.48
514.084	22534.99
514.286	22715.22
514.488	22831.95
514.69	23378.76
514.893	23298.89
515.095	23567.17
515.297	23558.98
515.499	23688
515.701	24152.89
515.904	24460.09
516.106	24789.81
516.308	24462.13
516.51	25025.32
516.712	25054
516.914	25385.77
517.116	25774.88
517.318	26037.02
517.52	26184.48
517.722	26432.28
517.925	26397.46
518.127	26745.62
518.329	27044.62
518.531	27075.34
518.733	27398.92
518.935	27810.56
519.136	27939.58
519.338	28181.24
519.54	28244.73
519.742	28689.14
519.944	28635.89
520.146	29133.55
520.348	29412.07
520.55	29389.55
520.752	29772.52
520.954	30167.77
521.155	29838.05
521.357	30077.66
521.559	30427.87
521.761	30790.36
521.963	30903
522.164	31091.41
522.366	30978.77
522.568	31478.47
522.77	31478.47
522.971	32189.12
523.173	31767.24
523.375	32238.27
523.576	32152.26
523.778	32381.63
523.98	32737.98
524.181	32993.97
524.383	33055.41
524.584	33069.75
524.786	33297.07
524.988	33059.51
525.189	33520.3
525.391	33852.07
525.592	33903.27
525.794	34114.21
525.995	34441.89
526.197	34353.82
526.398	34118.31
526.6	34661.02
526.801	34785.94
527.003	35084.95
527.204	34935.45
527.406	35029.65
527.607	34941.59
527.808	35646.09
528.01	35191.44
528.211	35756.68
528.412	36018.82
528.614	35639.95
528.815	36067.97
529.016	36039.3
529.218	35807.88
529.419	36115.08
529.62	36242.05
529.822	36151.94
530.023	36209.28
530.224	36403.84
530.425	36135.56
530.626	36160.13
530.828	36291.2
531.029	37075.57
531.23	36364.93
531.431	36563.58
531.632	36178.56
531.833	36412.03
532.035	36762.23
532.236	36440.7
532.437	36897.4
532.638	36440.7
532.839	36924.02
533.04	37223.03
533.241	36713.08
533.442	37171.83
533.643	37089.91
533.844	37108.34
534.045	37286.51
534.246	36645.5
534.447	37292.66
534.648	36653.69
534.849	36919.93
535.05	36807.29
535.251	37073.52
535.451	36801.15
535.652	37081.72
535.853	37085.81
536.054	37288.56
536.255	37118.58
536.456	36881.02
536.657	37450.35
536.857	36901.5
537.058	36827.77
537.259	37491.31
537.46	37376.62
537.66	37116.53
537.861	37210.74
538.062	37026.42
538.263	37259.89
538.463	36823.67
538.664	36995.7
538.865	37407.34
539.065	37345.9
539.266	36674.17
539.466	36993.65
539.667	37063.29
539.868	37436.02
540.068	36973.17
540.269	36774.52
540.469	37380.72
540.67	36856.44
540.87	36813.43
541.071	36846.2
541.271	37147.25
541.472	36733.56
541.672	37200.5
541.873	36653.69
542.073	36792.95
542.274	37175.92
542.474	36950.65
542.675	36856.44
542.875	37386.86
543.075	37042.81
543.276	36412.03
543.476	36823.67
543.676	36772.47
543.877	37302.9
544.077	36829.82
544.277	36668.03
544.478	36854.39
544.678	36741.75
544.878	36913.78
545.078	37157.49
545.279	36987.51
545.479	36598.4
545.679	36860.54
545.879	36833.91
546.079	36487.81
546.28	36764.28
546.48	36444.8
546.68	36811.38
546.88	36911.74
547.08	36518.53
547.28	36813.43
547.48	36659.84
547.68	36463.23
547.88	35963.53
548.081	36915.83
548.281	36840.06
548.481	36629.12
548.681	36915.83
548.881	36776.57
549.081	36805.24
549.28	36442.75
549.48	36915.83
549.68	36381.31
549.88	37024.37
550.08	36346.5
550.28	36706.94
550.48	36674.17
550.68	36797.05
550.88	36731.51
551.08	36907.64
551.279	36782.71
551.479	36123.27
551.679	36567.68
551.879	36608.64
552.079	36852.34
552.278	36352.64
552.478	36117.12
552.678	36399.74
552.878	36504.19
553.077	36315.78
553.277	35945.09
553.477	36987.51
553.676	36078.21
553.876	36283.01
554.076	36110.98
554.275	35994.25
554.475	35816.07
554.674	36332.16
554.874	36266.63
555.074	36381.31
555.273	36078.21
555.473	36412.03
555.672	35998.34
555.872	36051.59
556.071	36170.37
556.271	36301.44
556.47	35863.18
556.67	35738.25
556.869	35658.38
557.068	35922.57
557.268	35736.2
557.467	35590.8
557.667	35852.94
557.866	35771.02
558.065	35416.72
558.265	35193.49
558.464	35445.39
558.663	35695.24
558.863	35050.13
559.062	35957.38
559.261	35197.59
559.461	35476.11
559.66	35197.59
559.859	34945.69
560.058	35027.6
560.258	35234.45
560.457	34841.24
560.656	35095.19
560.855	35185.3
561.054	35486.35
561.253	34886.29
561.453	35080.85
561.652	35013.27
561.851	35306.13
562.05	34857.62
562.249	34654.87
562.448	34724.5
562.647	34527.9
562.846	34212.51
563.045	34699.93
563.244	34390.69
563.443	34937.49
563.642	34026.15
563.841	34155.17
564.04	34069.15
564.239	34546.33
564.438	33950.37
564.637	34106.02
564.836	34028.2
565.035	33700.52
565.234	34077.35
565.432	34007.72
565.631	34063.01
565.83	33888.93
566.029	33669.8
566.228	33839.78
566.427	33399.47
566.625	33329.84
566.824	33403.56
567.023	33841.83
567.222	32977.59
567.42	33690.28
567.619	33288.88
567.818	33368.75
568.016	32940.72
568.215	32885.43
568.414	33254.06
568.612	33305.26
568.811	32946.87
569.01	33127.09
569.208	32475.84
569.407	32828.09
569.605	32262.85
569.804	32791.22
570.002	32594.62
570.201	32496.31
570.4	32447.16
570.598	32391.87
570.797	31994.56
570.995	32012.99
571.193	31941.32
571.392	32260.8
571.59	31627.98
571.789	31748.81
571.987	31853.25
572.186	31603.4
572.384	31601.35
572.582	31720.13
572.781	31552.2
572.979	31142.61
573.177	31423.18
573.376	31378.12
573.574	31392.46
573.772	31386.32
573.971	31089.36
574.169	30980.82
574.367	30698.2
574.565	31068.88
574.763	30892.76
574.962	30911.19
575.16	30665.43
575.358	30757.59
575.556	30286.56
575.754	30728.92
575.952	30175.97
576.151	30495.45
576.349	30106.34
576.547	30173.92
576.745	29924.07
576.943	30087.9
577.141	29803.24
577.339	29833.96
577.537	29741.8
577.735	29674.21
577.933	29721.32
578.131	29702.89
578.329	29588.2
578.527	29002.48
578.725	29379.31
578.923	29440.75
579.121	28947.18
579.319	29090.54
579.516	29534.95
579.714	29336.3
579.912	28934.9
580.11	28979.95
580.308	29100.78
580.506	28990.19
580.704	28220.16
580.901	28666.61
581.099	28945.14
581.297	28424.95
581.495	28320.51
581.692	28482.3
581.89	27874.05
582.088	28386.04
582.285	28054.27
582.483	27919.1
582.681	28257.02
582.878	27933.44
583.076	27400.97
583.274	27890.43
583.471	27591.43
583.669	27847.43
583.866	27552.52
584.064	27646.72
584.262	27294.47
584.459	27482.89
584.657	27454.22
584.854	27386.63
585.052	27026.19
585.249	27255.56
585.447	27425.54
585.644	26979.09
585.841	27405.06
586.039	27065.1
586.236	26573.59
586.434	26792.72
586.631	26514.2
586.828	26487.57
587.026	26446.62
587.223	26434.33
587.42	26436.38
587.618	26340.12
587.815	26034.97
588.012	25996.06
588.21	25852.7
588.407	26233.63
588.604	25819.94
588.801	25529.13
588.999	25740.07
589.196	25578.28
589.393	25576.23
589.59	25375.53
589.787	25060.14
589.984	25293.61
590.182	25197.35
590.379	25299.75
590.576	25013.04
590.773	25383.72
590.97	24838.96
591.167	25285.42
591.364	24486.71
591.561	24849.2
591.758	24533.81
591.955	24615.73
592.152	24992.56
592.349	24513.33
592.546	24701.75
592.743	24611.64
592.94	24267.58
593.137	24316.73
593.334	24398.65
593.531	23823.17
593.727	24124.22
593.924	24163.13
594.121	23728.96
594.318	24199.99
594.515	23819.07
594.712	23728.96
594.908	23489.35
595.105	23810.88
595.302	23348.04
595.499	23485.25
595.696	23350.09
595.892	23169.87
596.089	23417.67
596.286	23284.55
596.482	23386.95
596.679	23108.43
596.876	22891.34
597.072	22735.7
597.269	22901.58
597.466	22672.21
597.662	22745.94
597.859	22713.17
598.055	22707.02
598.252	22305.62
598.448	22498.13
598.645	22416.21
598.841	22260.57
599.038	22285.14
599.234	22322.01
599.431	21930.84
599.627	21877.6
599.824	22270.81
600.02	21980
600.217	21922.65
600.413	21857.12
600.609	21447.52
600.806	21609.31
601.002	21707.62
601.198	21486.43
601.395	21269.35
601.591	21240.68
601.787	21300.07
601.984	21201.77
602.18	21425
602.376	21394.28
602.572	21111.66
602.769	20779.89
602.965	20753.26
603.161	21148.52
603.357	20794.22
603.553	20740.97
603.75	20913
603.946	20663.15
604.142	20605.81
604.338	20456.31
604.534	20640.62
604.73	20214.65
604.926	20456.31
605.122	20114.3
605.318	20149.11
605.514	19948.41
605.71	19895.16
605.906	20130.68
606.102	19899.26
606.298	20181.88
606.494	19784.57
606.69	19673.98
606.886	19766.14
607.082	19436.42
607.278	19833.72
607.474	19454.85
607.67	19784.57
607.866	19299.2
608.062	19991.42
608.257	19256.2
608.453	19379.07
608.649	19612.54
608.845	19172.23
609.041	19616.64
609.236	19334.02
609.432	18969.48
609.628	18828.17
609.824	19016.58
610.019	19098.5
610.215	18955.15
610.411	18967.43
610.606	19024.78
610.802	19002.25
610.998	18660.24
611.193	19026.82
611.389	18807.69
611.584	18723.72
611.78	18719.63
611.976	18670.48
612.171	18867.08
612.367	18459.54
612.562	18541.46
612.758	18344.85
612.953	18060.18
613.149	18484.11
613.344	18324.37
613.539	18602.89
613.735	18422.67
613.93	18350.99
614.126	18303.89
614.321	18418.58
614.517	18131.86
614.712	18174.87
614.907	18142.1
615.103	18187.16
615.298	18140.05
615.493	18267.03
615.688	17869.72
615.884	18205.59
616.079	17724.32
616.274	18006.94
616.47	17779.61
616.665	17765.28
616.86	17744.8
617.055	17763.23
617.25	17793.95
617.445	17652.64
617.641	17046.44
617.836	17517.47
618.031	17492.9
618.226	17515.42
618.421	17324.96
618.616	17521.57
618.811	17161.12
619.006	17333.15
619.201	16845.74
619.396	17032.1
619.591	16743.34
619.786	17073.06
619.981	16382.9
620.176	16794.54
620.371	16722.86
620.566	16851.88
620.761	16776.11
620.956	16819.11
621.151	16397.23
621.346	16210.87
621.541	16247.73
621.735	16554.93
621.93	16133.04
622.125	16047.03
622.32	16182.2
622.515	16100.28
622.709	15936.44
622.904	15899.58
623.099	15692.73
623.294	15780.79
623.488	15356.86
623.683	15524.8
623.878	15227.84
624.072	15451.07
624.267	15406.02
624.462	15092.68
624.656	14982.09
624.851	15012.81
625.046	14838.73
625.24	14760.91
625.435	14445.52
625.629	14848.97
625.824	14347.22
626.018	14277.58
626.213	14085.08
626.407	14468.05
626.602	14142.42
626.796	14519.25
626.991	14300.11
627.185	14154.71
627.38	13808.6
627.574	13861.85
627.768	13706.2
627.963	13675.48
628.157	13470.69
628.352	13399.01
628.546	13468.64
628.74	13439.97
628.935	13380.57
629.129	13302.75
629.323	12868.58
629.517	13007.84
629.712	12868.58
629.906	13079.52
630.1	12729.32
630.294	12819.43
630.489	12815.34
630.683	12764.14
630.877	12704.74
631.071	12487.66
631.265	12596.2
631.459	12415.98
631.653	12487.66
631.848	12305.39
632.042	12282.86
632.236	12291.06
632.43	12114.93
632.624	12108.79
632.818	12037.11
633.012	11860.98
633.206	11760.63
633.4	12030.96
633.594	11598.84
633.788	11779.06
633.982	11566.07
634.176	11826.17
634.369	11678.71
634.563	11351.04
634.757	11318.27
634.951	11234.3
635.145	11305.98
635.339	11248.64
635.533	11240.45
635.726	11144.19
635.92	11119.62
636.114	10980.36
636.308	10929.16
636.501	10963.97
636.695	10906.63
636.889	10787.85
637.083	10685.45
637.276	10652.68
637.47	10535.95
637.664	10484.75
637.857	10497.03
638.051	10308.62
638.244	10435.6
638.438	10322.96
638.632	10255.37
638.825	10013.71
639.019	10169.36
639.212	10171.41
639.406	10114.06
639.599	9907.22
639.793	9997.33
639.986	9776.15
640.18	9964.56
640.373	9821.2
640.567	9589.78
640.76	9583.64
640.954	9653.27
641.147	9401.37
641.34	9661.46
641.534	9573.4
641.727	9485.34
641.92	9382.94
642.114	9270.3
642.307	9280.54
642.5	9305.12
642.694	9100.32
642.887	9006.11
643.08	9350.17
643.273	9051.17
643.467	8969.25
643.66	8868.9
643.853	8838.18
644.046	8801.32
644.239	8854.56
644.432	8727.59
644.626	8563.75
644.819	8592.42
645.012	8678.44
645.205	8580.14
645.398	8608.81
645.591	8434.73
645.784	8350.76
645.977	8326.19
646.17	8379.43
646.363	8270.89
646.556	8289.32
646.749	8016.94
646.942	8213.55
647.135	8023.09
647.328	8082.48
647.521	8088.62
647.714	7971.89
647.907	8049.71
648.099	7754.8
648.292	7830.58
648.485	7695.41
648.678	7609.4
648.871	7539.77
649.064	7640.12
649.256	7722.04
649.449	7482.42
649.642	7597.11
649.835	7496.76
650.027	7357.5
650.22	7400.51
650.413	7490.62
650.605	7404.6
650.798	7277.63
650.991	7261.24
651.183	7210.04
651.376	7076.93
651.568	7142.46
651.761	7238.72
651.954	7097.41
652.146	7138.37
652.339	6843.46
652.531	6917.19
652.724	6927.42
652.916	6782.02
653.109	6917.19
653.301	6755.4
653.494	6800.45
653.686	6679.62
653.879	6552.65
654.071	6612.04
654.263	6491.21
654.456	6569.03
654.648	6671.43
654.84	6487.11
655.033	6394.95
655.225	6530.12
655.417	6536.26
655.61	6446.15
655.802	6253.64
655.994	6337.61
656.186	6366.28
656.379	6235.21
656.571	6134.86
656.763	6020.17
656.955	6196.3
657.148	6194.25
657.34	6065.23
657.532	5995.6
657.724	5975.12
657.916	5925.97
658.108	5923.92
658.3	5837.91
658.492	5844.05
658.684	5753.94
658.876	5786.71
659.068	5755.99
659.26	5774.42
659.452	5700.69
659.644	5581.91
659.836	5633.11
660.028	5700.69
660.22	5393.5
660.412	5454.94
660.604	5620.82
660.796	5487.7
660.988	5508.18
661.18	5241.95
661.372	5401.69
661.563	5340.25
661.755	5246.04
661.947	5254.23
662.139	5373.02
662.331	5147.74
662.522	5088.35
662.714	5127.26
662.906	5174.36
663.097	5104.73
663.289	4951.14
663.481	5106.78
663.673	4955.23
663.864	4928.61
664.056	4875.36
664.247	4971.61
664.439	4744.29
664.631	4852.83
664.822	4756.58
665.014	4992.09
665.205	4928.61
665.397	4746.34
665.588	4783.2
665.78	4750.43
665.971	4551.78
666.163	4705.38
666.354	4660.32
666.546	4496.49
666.737	4707.43
666.929	4478.05
667.12	4660.32
667.311	4371.56
667.503	4336.74
667.694	4568.16
667.885	4271.21
668.077	4416.62
668.268	4402.28
668.459	4332.65
668.651	4281.45
668.842	4258.92
669.033	4248.68
669.224	4291.69
669.416	4320.36
669.607	4435.05
669.798	4353.13
669.989	4064.36
670.18	4238.44
670.371	4281.45
670.563	4111.47
670.754	4009.07
670.945	4037.74
671.136	4252.78
671.327	4066.41
671.518	4017.26
671.709	3980.4
671.9	3951.73
672.091	4017.26
672.282	3941.49
672.473	3855.47
672.664	3857.52
672.855	3929.2
673.046	4007.02
673.237	3996.78
673.428	3771.51
673.619	3966.06
673.809	3847.28
674	4009.07
674.191	3849.33
674.382	3746.93
674.573	3779.7
674.764	3791.98
674.954	3845.23
675.145	3761.27
675.336	3658.87
675.527	3617.91
675.717	3603.57
675.908	3544.18
676.099	3669.11
676.289	3634.29
676.48	3519.6
676.671	3574.9
676.861	3628.15
677.052	3460.21
677.243	3507.32
677.433	3615.86
677.624	3550.32
677.814	3611.76
678.005	3542.13
678.195	3558.52
678.386	3275.9
678.576	3345.53
678.767	3415.16
678.957	3390.58
679.148	3564.66
679.338	3456.12
679.529	3464.31
679.719	3337.34
679.909	3447.93
680.1	3345.53
680.29	3320.95
680.481	3320.95
680.671	3267.7
680.861	3181.69
681.052	3269.75
681.242	3349.62
681.432	3386.49
681.622	3267.7
681.813	3265.66
682.003	3218.55
682.193	3157.11
682.383	3161.21
682.573	3247.23
682.764	3140.73
682.954	3243.13
683.144	3249.27
683.334	3126.39
683.524	3181.69
683.714	3132.54
683.904	3050.62
684.094	3179.64
684.284	3054.72
684.474	3128.44
684.664	3017.85
684.854	3251.32
685.044	3095.68
685.234	3200.12
685.424	3101.82
685.614	3050.62
685.804	3212.41
685.994	2837.63
686.184	3118.2
686.374	2944.13
686.564	2917.5
686.753	3052.67
686.943	3062.91
687.133	3036.28
687.323	2925.69
687.513	2993.28
687.702	2923.65
687.892	2978.94
688.082	2796.67
688.272	2921.6
688.461	2854.02
688.651	2878.59
688.841	2856.06
689.03	2940.03
689.22	2796.67
689.41	2778.24
689.599	2782.34
689.789	2833.54
689.979	2790.53
690.168	2718.85
690.358	2759.81
690.547	2806.91
690.737	2718.85
690.926	2651.27
691.116	2681.99
691.305	2657.41
691.495	2710.66
691.684	2704.51
691.874	2651.27
692.063	2661.51
692.252	2692.23
692.442	2628.74
692.631	2550.92
692.82	2614.4
693.01	2595.97
693.199	2419.85
693.388	2460.81
693.578	2602.11
693.767	2569.35
693.956	2550.92
694.146	2542.72
694.335	2567.3
694.524	2469
694.713	2471.04
694.902	2387.08
695.092	2485.38
695.281	2495.62
695.47	2518.15
695.659	2497.67
695.848	2425.99
696.037	2397.32
696.226	2397.32
696.415	2495.62
696.604	2401.41
696.793	2370.69
696.982	2493.57
697.171	2358.41
697.36	2374.79
697.549	2378.89
697.738	2307.21
697.927	2442.37
698.116	2409.61
698.305	2378.89
698.494	2346.12
698.683	2272.39
698.872	2280.58
699.061	2235.53
699.25	2239.62
699.438	2387.08
699.627	2290.82
699.816	2366.6
700.005	2206.86
700.193	2311.3
700.382	2264.2
700.571	2296.97
700.76	2247.82
700.948	2258.06
701.137	2421.89
701.326	2190.47
701.514	2264.2
701.703	2344.07
701.892	2155.66
702.08	2141.32
702.269	2256.01
702.457	2198.67
702.646	2235.53
702.834	2206.86
703.023	2133.13
703.212	2133.13
703.4	2237.58
703.589	2104.46
703.777	2141.32
703.965	2202.76
704.154	2204.81
704.342	2194.57
704.531	2143.37
704.719	2145.42
704.907	2213
705.096	2157.71
705.284	2149.51
705.472	2190.47
705.661	2223.24
705.849	2174.09
706.037	2137.23
706.226	2098.31
706.414	2129.03
706.602	2061.45
706.79	2188.43
706.979	2069.64
707.167	2116.75
707.355	2167.95
707.543	2161.8
707.731	2143.37
707.919	2149.51
708.107	2088.07
708.296	2153.61
708.484	2122.89
708.672	2120.84
708.86	2165.9
709.048	2108.55
709.236	2061.45
709.424	2108.55
709.612	2051.21
709.8	2069.64
709.988	2176.14
710.176	2022.54
710.364	2092.17
710.551	1938.57
710.739	2034.83
710.927	1995.92
711.115	2075.79
711.303	2051.21
711.491	2034.83
711.679	1997.96
711.866	2077.83
712.054	2071.69
712.242	2106.51
712.43	2131.08
712.617	2002.06
712.805	2069.64
712.993	2088.07
713.181	1977.48
713.368	2069.64
713.556	1909.9
713.744	1965.2
713.931	2059.4
714.119	2026.64
714.306	1875.09
714.494	2124.94
714.682	1985.68
714.869	1942.67
715.057	1975.44
715.244	1936.53
715.432	1944.72
715.619	1957
715.807	2022.54
715.994	1930.38
716.182	2018.44
716.369	2008.2
716.556	1965.2
716.744	1961.1
716.931	2004.11
717.119	1944.72
717.306	1926.29
717.493	2028.68
717.681	1969.29
717.868	1944.72
718.055	1971.34
718.242	1944.72
718.43	2116.75
718.617	1961.1
718.804	1887.37
718.991	2059.4
719.179	1944.72
719.366	2032.78
719.553	2010.25
719.74	1973.39
719.927	1952.91
720.114	1922.19
720.301	1936.53
720.488	1938.57
720.676	1903.76
720.863	1881.23
721.05	1950.86
721.237	1911.95
721.424	1907.85
721.611	1963.15
721.798	1854.61
721.985	1862.8
722.172	1873.04
722.358	1856.65
722.545	1825.93
722.732	1930.38
722.919	1993.87
723.106	1920.14
723.293	1918.09
723.48	1858.7
723.667	1891.47
723.853	1823.89
724.04	1772.69
724.227	1797.26
724.414	1914
724.6	1813.65
724.787	1797.26
724.974	1864.85
725.161	1737.87
725.347	1856.65
725.534	1850.51
725.72	1893.52
725.907	1850.51
726.094	1825.93
726.28	1758.35
726.467	1932.43
726.653	1782.93
726.84	1911.95
727.027	1973.39
727.213	1914
727.4	1957
727.586	1864.85
727.773	1809.55
727.959	1764.5
728.145	1778.83
728.332	1701.01
728.518	1807.5
728.705	1821.84
728.891	1780.88
729.077	1758.35
729.264	1823.89
729.45	1838.22
729.636	1836.17
729.823	1754.26
730.009	1842.32
730.195	1821.84
730.382	1885.33
730.568	1903.76
730.754	1870.99
730.94	1868.94
731.126	1830.03
731.313	1813.65
731.499	1821.84
731.685	1854.61
731.871	1848.46
732.057	1844.37
732.243	1731.73
732.429	1768.59
732.615	1715.34
732.801	1725.58
732.987	1821.84
733.173	1756.3
733.359	1684.62
733.545	1838.22
733.731	1744.02
733.917	1848.46
734.103	1789.07
734.289	1911.95
734.475	1719.44
734.661	1838.22
734.847	1862.8
735.033	1799.31
735.219	1807.5
735.404	1737.87
735.59	1739.92
735.776	1670.29
735.962	1774.74
736.148	1764.5
736.333	1870.99
736.519	1619.09
736.705	1674.39
736.89	1772.69
737.076	1698.96
737.262	1752.21
737.447	1711.25
737.633	1739.92
737.819	1744.02
738.004	1807.5
738.19	1764.5
738.375	1741.97
738.561	1760.4
738.747	1619.09
738.932	1576.08
739.118	1832.08
739.303	1760.4
739.489	1748.11
739.674	1688.72
739.859	1707.15
740.045	1619.09
740.23	1586.32
740.416	1623.19
740.601	1666.19
740.786	1594.51
740.972	1580.18
741.157	1674.39
741.342	1563.79
741.528	1617.04
741.713	1594.51
741.898	1600.66
742.084	1662.1
742.269	1559.7
742.454	1594.51
742.639	1608.85
742.824	1449.11
743.01	1600.66
743.195	1682.58
743.38	1488.02
743.565	1588.37
743.75	1670.29
743.935	1543.32
744.12	1655.95
744.305	1518.74
744.49	1463.44
744.675	1547.41
744.86	1432.72
745.045	1531.03
745.23	1504.4
745.415	1438.87
745.6	1559.7
745.785	1518.74
745.97	1457.3
746.155	1535.12
746.34	1420.44
746.525	1408.15
746.71	1494.16
746.895	1447.06
747.079	1377.43
747.264	1354.9
747.449	1428.63
747.634	1430.68
747.819	1438.87
748.003	1436.82
748.188	1289.37
748.373	1309.85
748.557	1379.48
748.742	1387.67
748.927	1289.37
749.111	1397.91
749.296	1330.33
749.481	1248.41
749.665	1318.04
749.85	1305.75
750.034	1354.9
750.219	1244.31
750.404	1248.41
750.588	1397.91
750.773	1256.6
750.957	1287.32
751.141	1250.46
751.326	1203.35
751.51	1201.3
751.695	1215.64
751.879	1215.64
752.064	1209.5
752.248	1168.54
752.432	1240.22
752.617	1191.06
752.801	1131.67
752.985	1213.59
753.17	1133.72
753.354	1133.72
753.538	1193.11
753.722	1096.86
753.907	1223.83
754.091	1045.66
754.275	1041.56
754.459	1100.95
754.643	1062.04
754.828	1186.97
755.012	1164.44
755.196	1092.76
755.38	1066.14
755.564	1092.76
755.748	1100.95
755.932	1037.47
756.116	1174.68
756.3	1055.9
756.484	1031.32
756.668	1014.94
756.852	928.92
757.036	969.88
757.22	963.74
757.404	1014.94
757.588	1006.75
757.772	961.69
757.956	1070.23
758.14	1059.99
758.323	896.16
758.507	1029.27
758.691	953.5
758.875	996.51
759.059	969.88
759.242	890.01
759.426	904.35
759.61	937.12
759.794	935.07
759.977	953.5
760.161	988.32
760.345	1023.13
760.528	945.31
760.712	853.15
760.895	894.11
761.079	871.58
761.263	875.68
761.446	808.09
761.63	875.68
761.813	879.77
761.997	820.38
762.18	863.39
762.364	832.67
762.547	746.66
762.731	873.63
762.914	873.63
763.098	789.66
763.281	720.03
763.464	824.48
763.648	916.64
763.831	703.65
764.015	758.94
764.198	906.4
764.381	855.2
764.564	799.9
764.748	857.25
764.931	740.51
765.114	668.83
765.297	804
765.481	758.94
765.664	791.71
765.847	806.05
766.03	826.53
766.213	691.36
766.397	756.9
766.58	709.79
766.763	789.66
766.946	740.51
767.129	875.68
767.312	754.85
767.495	789.66
767.678	715.94
767.861	728.22
768.044	771.23
768.227	744.61
768.41	799.9
768.593	795.81
768.776	765.09
768.959	726.18
769.142	808.09
769.324	674.98
769.507	691.36
769.69	740.51
769.873	683.17
770.056	726.18
770.239	711.84
770.421	738.46
770.604	767.13
770.787	717.98
770.97	705.7
771.152	625.83
771.335	691.36
771.518	607.39
771.7	777.37
771.883	707.74
772.066	703.65
772.248	662.69
772.431	724.13
772.613	726.18
772.796	572.58
772.978	685.22
773.161	724.13
773.343	695.46
773.526	644.26
773.708	619.68
773.891	621.73
774.073	685.22
774.256	560.29
774.438	668.83
774.621	554.15
774.803	617.63
774.985	658.59
775.168	709.79
775.35	584.87
775.532	601.25
775.715	574.63
775.897	613.54
776.079	650.4
776.261	662.69
776.444	609.44
776.626	644.26
776.808	548
776.99	535.71
777.173	554.15
777.355	480.42
777.537	556.19
777.719	621.73
777.901	578.72
778.083	507.04
778.265	490.66
778.447	527.52
778.629	504.99
778.811	496.8
778.993	461.99
779.175	568.48
779.357	537.76
779.539	519.33
779.721	568.48
779.903	554.15
780.085	517.28
780.267	523.43
780.449	445.6
780.631	445.6
780.812	439.46
780.994	486.56
781.176	461.99
781.358	423.08
781.54	412.84
781.721	486.56
781.903	543.91
782.085	449.7
782.267	519.33
782.448	400.55
782.63	453.8
782.812	470.18
782.993	416.93
783.175	464.04
783.357	464.04
783.538	476.32
783.72	380.07
783.901	373.92
784.083	457.89
784.264	488.61
784.446	390.31
784.627	367.78
784.809	421.03
784.99	398.5
785.172	390.31
785.353	380.07
785.535	421.03
785.716	310.44
785.897	375.97
786.079	330.92
786.26	386.21
786.441	347.3
786.623	355.49
786.804	380.07
786.985	451.75
787.167	369.83
787.348	355.49
787.529	388.26
787.71	388.26
787.891	396.45
788.073	251.05
788.254	308.39
788.435	357.54
788.616	341.16
788.797	314.53
788.978	316.58
789.159	249
789.34	277.67
789.522	302.25
789.703	390.31
789.884	322.73
790.065	347.3
790.246	343.21
790.427	240.81
790.607	249
790.788	330.92
790.969	201.9
791.15	322.73
791.331	251.05
791.512	298.15
791.693	259.24
791.874	259.24
792.054	337.06
792.235	396.45
792.416	281.77
792.597	234.66
792.778	326.82
792.958	298.15
793.139	283.81
793.32	332.97
793.5	265.38
793.681	332.97
793.862	388.26
794.042	201.9
794.223	281.77
794.404	298.15
794.584	187.56
794.765	267.43
794.945	240.81
795.126	275.62
795.306	259.24
795.487	191.66
795.667	251.05
795.848	316.58
796.028	257.19
796.209	177.32
796.389	289.96
796.57	201.9
796.75	214.18
796.93	281.77
797.111	205.99
797.291	292.01
797.471	263.33
797.652	191.66
797.832	183.46
798.012	246.95
798.192	249
798.373	138.41
798.553	238.76
798.733	269.48
798.913	281.77
799.093	160.94
799.274	226.47
799.454	265.38
799.634	195.75
799.814	195.75
799.994	138.41
800.174	154.79
800.354	251.05
800.534	240.81
800.714	298.15
800.894	115.88
801.074	175.27
801.254	179.37
801.434	285.86
801.614	232.62
801.794	165.03
801.974	806.05
802.154	265.38
802.334	175.27
802.514	224.42
802.693	234.66
802.873	126.12
803.053	210.09
803.233	267.43
803.413	236.71
803.592	148.65
803.772	224.42
803.952	167.08
804.131	128.17
804.311	203.94
804.491	238.76
804.67	199.85
804.85	226.47
805.03	152.74
805.209	240.81
805.389	154.79
805.568	128.17
805.748	216.23
805.928	187.56
806.107	185.51
806.287	183.46
806.466	146.6
806.646	175.27
806.825	134.31
807.004	228.52
807.184	130.22
807.363	97.45
807.543	117.93
807.722	169.13
807.901	195.75
808.081	169.13
808.26	101.55
808.439	142.5
808.619	99.5
808.798	134.31
808.977	113.83
809.156	156.84
809.336	185.51
809.515	242.85
809.694	122.02
809.873	187.56
810.052	119.98
810.231	142.5
810.411	199.85
810.59	208.04
810.769	195.75
810.948	7.34
811.127	101.55
811.306	152.74
811.485	97.45
811.664	232.62
811.843	142.5
812.022	113.83
812.201	97.45
812.38	29.87
812.559	107.69
812.737	169.13
812.916	124.07
813.095	142.5
813.274	173.22
813.453	208.04
813.632	128.17
813.811	134.31
813.989	89.26
814.168	109.74
814.347	179.37
814.526	171.18
814.704	87.21
814.883	185.51
815.062	179.37
815.24	101.55
815.419	95.4
815.598	177.32
815.776	107.69
815.955	142.5
816.133	191.66
816.312	165.03
816.49	101.55
816.669	117.93
816.847	124.07
817.026	171.18
817.204	134.31
817.383	167.08
817.561	38.06
817.74	142.5
817.918	158.89
818.097	105.64
818.275	101.55
818.453	64.68
818.632	60.59
818.81	81.07
818.988	70.83
819.167	95.4
819.345	66.73
819.523	85.16
819.701	128.17
819.879	111.78
820.058	54.44
820.236	189.61
820.414	109.74
820.592	119.98
820.77	81.07
820.948	21.67
821.127	46.25
821.305	68.78
821.483	60.59
821.661	113.83
821.839	76.97
822.017	46.25
822.195	113.83
822.373	117.93
822.551	109.74
822.729	56.49
822.907	38.06
823.085	146.6
823.262	113.83
823.44	95.4
823.618	87.21
823.796	72.87
823.974	46.25
824.152	101.55
824.329	15.53
824.507	60.59
824.685	103.59
824.863	27.82
825.04	134.31
825.218	89.26
825.396	148.65
825.574	99.5
825.751	128.17
825.929	122.02
826.107	46.25
826.284	128.17
826.462	76.97
826.639	101.55
826.817	38.06
826.994	142.5
827.172	85.16
827.349	150.7
827.527	31.91
827.704	89.26
827.882	60.59
828.059	44.2
828.237	150.7
828.414	27.82
828.591	83.11
828.769	50.35
828.946	70.83
829.124	31.91
829.301	81.07
829.478	134.31
829.655	74.92
829.833	62.63
830.01	54.44
830.187	62.63
830.364	117.93
830.542	38.06
830.719	58.54
830.896	60.59
831.073	17.58
831.25	52.39
831.427	117.93
831.604	-35.67
831.782	38.06
831.959	11.43
832.136	15.53
832.313	1.19
832.49	76.97
832.667	60.59
832.844	-31.57
833.021	68.78
833.198	-27.48
833.374	76.97
833.551	95.4
833.728	76.97
833.905	76.97
834.082	-54.1
834.259	105.64
834.436	128.17
834.612	50.35
834.789	85.16
834.966	44.2
835.143	70.83
835.319	29.87
835.496	36.01
835.673	95.4
835.85	132.26
836.026	140.46
836.203	136.36
836.38	17.58
836.556	54.44
836.733	38.06
836.909	126.12
837.086	72.87
837.262	70.83
837.439	44.2
837.616	27.82
837.792	-4.95
837.968	50.35
838.145	-0.85
838.321	50.35
838.498	-13.14
838.674	27.82
838.851	44.2
839.027	-21.33
839.203	27.82
839.38	66.73
839.556	27.82
839.732	25.77
839.909	66.73
840.085	81.07
840.261	54.44
840.437	72.87
840.614	-15.19
840.79	40.11
840.966	19.63
841.142	44.2
841.318	-17.24
841.494	38.06
841.671	58.54
841.847	44.2
842.023	44.2
842.199	79.02
842.375	140.46
842.551	44.2
842.727	-58.2
842.903	103.59
843.079	-39.76
843.255	60.59
843.431	54.44
843.607	11.43
843.783	-43.86
843.959	148.65
844.134	19.63
844.31	44.2
844.486	83.11
844.662	-21.33
844.838	21.67
845.013	31.91
845.189	-33.62
845.365	60.59
845.541	101.55
845.716	44.2
845.892	38.06
846.068	101.55
846.244	15.53
846.419	109.74
846.595	-41.81
846.77	29.87
846.946	38.06
847.122	44.2
847.297	31.91
847.473	7.34
847.648	-13.14
847.824	64.68
847.999	1.19
848.175	64.68
848.35	3.24
848.526	58.54
848.701	31.91
848.876	27.82
849.052	-13.14
849.227	-33.62
849.403	21.67
849.578	-19.29
849.753	31.91
849.929	-2.9
850.104	-62.29
850.279	11.43
850.454	56.49
850.63	5.29
850.805	-4.95
850.98	60.59
851.155	19.63
851.33	1.19
851.505	-0.85
851.681	134.31
851.856	-54.1
852.031	54.44
852.206	87.21
852.381	-39.76
852.556	62.63
852.731	113.83
852.906	19.63
853.081	25.77
853.256	79.02
853.431	-0.85
853.606	17.58
853.781	19.63
853.956	-21.33
854.131	-4.95
854.305	-21.33
854.48	126.12
854.655	-0.85
854.83	79.02
855.005	-13.14
855.18	52.39
855.354	-45.91
855.529	52.39
855.704	-0.85
855.879	21.67
856.053	7.34
856.228	-45.91
856.403	27.82
856.577	70.83
856.752	-21.33
856.926	11.43
857.101	-21.33
857.276	19.63
857.45	29.87
857.625	54.44
857.799	-11.09
857.974	44.2
858.148	11.43
858.323	52.39
858.497	44.2
858.672	38.06
858.846	54.44
859.02	-0.85
859.195	-43.86
859.369	-13.14
859.543	19.63
859.718	13.48
859.892	70.83
860.066	23.72
860.241	-37.72
860.415	-19.29
860.589	23.72
860.763	-25.43
860.938	-31.57
861.112	44.2
861.286	-45.91
861.46	68.78
861.634	5.29
861.808	85.16
861.982	36.01
862.157	-19.29
862.331	-9.05
862.505	-109.4
862.679	-33.62
862.853	-17.24
863.027	-60.24
863.201	62.63
863.375	-41.81
863.549	27.82
863.722	56.49
863.896	-45.91
864.07	-62.29
864.244	23.72
864.418	62.63
864.592	44.2
864.766	11.43
864.939	130.22
865.113	60.59
865.287	33.96
865.461	-21.33
865.634	76.97
865.808	-9.05
865.982	-23.38
866.156	-62.29
866.329	3.24
866.503	5.29
866.676	-37.72
866.85	29.87
867.024	-29.52
867.197	46.25
867.371	5.29
867.544	-15.19
867.718	-21.33
867.891	-47.96
868.065	5.29
868.238	52.39
868.412	64.68
868.585	44.2
868.759	13.48
868.932	40.11
869.105	-13.14
869.279	-39.76
869.452	-0.85
869.625	11.43
869.799	-13.14
869.972	-15.19
870.145	19.63
870.319	-4.95
870.492	-9.05
870.665	-25.43
870.838	60.59
871.011	-109.4
871.185	38.06
871.358	-29.52
871.531	44.2
871.704	-33.62
871.877	40.11
872.05	-27.48
872.223	-4.95
872.396	-29.52
872.569	52.39
872.742	-78.68
872.915	60.59
873.088	29.87
873.261	-11.09
873.434	46.25
873.607	-45.91
873.78	93.35
873.953	50.35
874.126	5.29
874.299	-9.05
874.471	3.24
874.644	62.63
874.817	72.87
874.99	52.39
875.163	-82.77
875.335	31.91
875.508	11.43
875.681	-9.05
875.853	-56.15
876.026	5.29
876.199	-27.48
876.371	-4.95
876.544	27.82
876.717	-45.91
876.889	-17.24
877.062	15.53
877.234	-21.33
877.407	-4.95
877.579	3.24
877.752	11.43
877.924	-9.05
878.097	25.77
878.269	105.64
878.442	46.25
878.614	-4.95
878.786	27.82
878.959	29.87
879.131	-33.62
879.303	-0.85
879.476	27.82
879.648	-4.95
879.82	27.82
879.993	-41.81
880.165	-13.14
880.337	-29.52
880.509	-21.33
880.681	-37.72
880.854	13.48
881.026	40.11
881.198	3.24
881.37	-41.81
881.542	60.59
881.714	-50
881.886	52.39
882.058	-21.33
882.23	-4.95
882.402	-33.62
882.574	-50
882.746	-0.85
882.918	25.77
883.09	3.24
883.262	-29.52
883.434	-33.62
883.606	17.58
883.778	3.24
883.95	-13.14
884.122	-13.14
884.293	91.31
884.465	-41.81
884.637	29.87
884.809	60.59
884.98	38.06
885.152	11.43
885.324	27.82
885.496	-15.19
885.667	-15.19
885.839	27.82
886.011	44.2
886.182	46.25
886.354	-2.9
886.525	-97.11
886.697	21.67
886.869	13.48
887.04	36.01
887.212	44.2
887.383	130.22
887.555	21.67
887.726	29.87
887.897	1.19
888.069	-9.05
888.24	27.82
888.412	19.63
888.583	-47.96
888.754	36.01
888.926	-107.35
889.097	-27.48
889.268	-2.9
889.44	36.01
889.611	-66.39
889.782	-45.91
889.953	-15.19
890.125	21.67
890.296	-7
890.467	-45.91
890.638	-39.76
890.809	-50
890.98	-9.05
891.151	15.53
891.323	-31.57
891.494	15.53
891.665	103.59
891.836	-9.05
892.007	3.24
892.178	27.82
892.349	-60.24
892.52	-29.52
892.691	-50
892.862	-76.63
893.032	-45.91
893.203	38.06
893.374	68.78
893.545	-4.95
893.716	48.3
893.887	21.67
894.057	36.01
894.228	-60.24
894.399	-68.44
894.57	52.39
894.74	-27.48
894.911	-2.9
895.082	11.43
895.253	19.63
895.423	-43.86
895.594	3.24
895.764	-33.62
895.935	44.2
896.106	5.29
896.276	-45.91
896.447	-7
896.617	-52.05
896.788	-41.81
896.958	11.43
897.129	3.24
897.299	-93.01
897.47	13.48
897.64	36.01
897.81	3.24
897.981	3.24
898.151	-13.14
898.322	21.67
898.492	23.72
898.662	-0.85
898.832	-0.85
899.003	3.24
899.173	11.43
899.343	-45.91
899.513	-45.91
