Data from USB4F104151__305__14-46-41-350.txt Node

Date: Thu Mar 13 14:46:41 EDT 2025
User: louis
Spectrometer: USB4F10415
Trigger mode: 4
Integration Time (sec): 2.000000E-2
Scans to average: 1
Electric dark correction enabled: true
Nonlinearity correction enabled: false
Boxcar width: 0
XAxis mode: Wavelengths
Number of Pixels in Spectrum: 3648
>>>>>Begin Spectral Data<<<<<
178.204	-124.24
178.424	-124.24
178.644	-124.24
178.864	-111.96
179.084	-171.35
179.304	31.4
179.524	15.02
179.744	-32.08
179.964	39.59
180.184	2.73
180.404	25.26
180.624	23.21
180.844	-19.8
181.064	-17.75
181.283	-32.08
181.503	-13.65
181.723	-21.85
181.943	-7.51
182.163	98.99
182.383	53.93
182.602	47.79
182.822	49.83
183.042	84.65
183.262	60.07
183.482	33.45
183.701	8.87
183.921	25.26
184.141	8.87
184.361	15.02
184.58	-34.13
184.8	76.46
185.02	23.21
185.239	27.31
185.459	41.64
185.679	31.4
185.898	-58.71
186.118	80.55
186.338	-5.46
186.557	41.64
186.777	39.59
186.997	43.69
187.216	12.97
187.436	133.8
187.655	74.41
187.875	66.22
188.095	-21.85
188.314	82.6
188.534	58.03
188.753	39.59
188.973	-15.7
189.192	-1.37
189.412	-25.94
189.631	64.17
189.851	-23.89
190.07	55.98
190.29	41.64
190.509	-42.32
190.729	23.21
190.948	148.14
191.168	170.66
191.387	-17.75
191.607	47.79
191.826	25.26
192.045	19.11
192.265	-27.99
192.484	92.84
192.704	2.73
192.923	-66.9
193.142	101.03
193.362	64.17
193.581	45.74
193.8	23.21
194.02	74.41
194.239	41.64
194.458	45.74
194.678	6.83
194.897	31.4
195.116	129.7
195.335	8.87
195.555	15.02
195.774	55.98
195.993	96.94
196.212	27.31
196.432	-17.75
196.651	47.79
196.87	-7.51
197.089	119.46
197.308	74.41
197.528	74.41
197.747	17.07
197.966	6.83
198.185	92.84
198.404	6.83
198.623	29.35
198.842	39.59
199.062	47.79
199.281	98.99
199.5	23.21
199.719	10.92
199.938	121.51
200.157	84.65
200.376	121.51
200.595	0.68
200.814	10.92
201.033	29.35
201.252	8.87
201.471	60.07
201.69	39.59
201.909	39.59
202.128	49.83
202.347	84.65
202.566	-23.89
202.785	15.02
203.004	25.26
203.223	74.41
203.442	76.46
203.661	8.87
203.879	31.4
204.098	8.87
204.317	6.83
204.536	92.84
204.755	-56.66
204.974	51.88
205.193	-32.08
205.411	94.89
205.63	66.22
205.849	51.88
206.068	17.07
206.287	47.79
206.505	47.79
206.724	25.26
206.943	66.22
207.162	51.88
207.381	10.92
207.599	12.97
207.818	45.74
208.037	23.21
208.255	6.83
208.474	72.36
208.693	150.18
208.911	29.35
209.13	10.92
209.349	31.4
209.567	39.59
209.786	70.31
210.005	64.17
210.223	72.36
210.442	27.31
210.661	101.03
210.879	76.46
211.098	-23.89
211.316	51.88
211.535	101.03
211.753	43.69
211.972	27.31
212.191	31.4
212.409	-30.04
212.628	80.55
212.846	31.4
213.065	19.11
213.283	35.5
213.502	17.07
213.72	58.03
213.938	49.83
214.157	-54.61
214.375	33.45
214.594	-7.51
214.812	27.31
215.031	31.4
215.249	68.27
215.467	84.65
215.686	-73.04
215.904	74.41
216.122	10.92
216.341	92.84
216.559	43.69
216.778	113.32
216.996	31.4
217.214	68.27
217.432	15.02
217.651	8.87
217.869	123.56
218.087	33.45
218.306	47.79
218.524	74.41
218.742	-1.37
218.96	58.03
219.179	60.07
219.397	49.83
219.615	82.6
219.833	105.13
220.051	19.11
220.27	80.55
220.488	90.79
220.706	62.12
220.924	19.11
221.142	10.92
221.36	31.4
221.578	0.68
221.796	-17.75
222.015	64.17
222.233	96.94
222.451	107.18
222.669	0.68
222.887	80.55
223.105	-30.04
223.323	25.26
223.541	-25.94
223.759	33.45
223.977	19.11
224.195	68.27
224.413	47.79
224.631	31.4
224.849	64.17
225.067	55.98
225.285	33.45
225.503	31.4
225.721	19.11
225.939	6.83
226.157	0.68
226.375	86.7
226.592	23.21
226.81	-15.7
227.028	-3.41
227.246	27.31
227.464	19.11
227.682	55.98
227.9	-1.37
228.117	29.35
228.335	82.6
228.553	84.65
228.771	35.5
228.989	31.4
229.206	119.46
229.424	25.26
229.642	39.59
229.86	66.22
230.077	33.45
230.295	51.88
230.513	27.31
230.731	88.75
230.948	107.18
231.166	96.94
231.384	-25.94
231.601	15.02
231.819	55.98
232.037	25.26
232.254	25.26
232.472	-3.41
232.689	-25.94
232.907	78.51
233.125	60.07
233.342	39.59
233.56	-9.56
233.777	2.73
233.995	55.98
234.213	-23.89
234.43	-85.33
234.648	31.4
234.865	23.21
235.083	107.18
235.3	23.21
235.518	47.79
235.735	39.59
235.953	121.51
236.17	64.17
236.388	-1.37
236.605	-9.56
236.822	41.64
237.04	68.27
237.257	88.75
237.475	-7.51
237.692	58.03
237.909	64.17
238.127	53.93
238.344	131.75
238.562	-32.08
238.779	41.64
238.996	27.31
239.214	-23.89
239.431	35.5
239.648	10.92
239.865	2.73
240.083	43.69
240.3	98.99
240.517	-25.94
240.735	55.98
240.952	49.83
241.169	74.41
241.386	66.22
241.603	-30.04
241.821	80.55
242.038	55.98
242.255	72.36
242.472	74.41
242.689	47.79
242.907	111.27
243.124	21.16
243.341	35.5
243.558	78.51
243.775	88.75
243.992	4.78
244.209	2.73
244.426	82.6
244.643	49.83
244.86	10.92
245.078	35.5
245.295	98.99
245.512	0.68
245.729	-30.04
245.946	72.36
246.163	47.79
246.38	23.21
246.597	43.69
246.814	21.16
247.031	8.87
247.248	139.94
247.464	-23.89
247.681	-13.65
247.898	23.21
248.115	35.5
248.332	-1.37
248.549	76.46
248.766	72.36
248.983	72.36
249.2	-9.56
249.417	-68.95
249.633	-25.94
249.85	43.69
250.067	-15.7
250.284	25.26
250.501	47.79
250.717	101.03
250.934	-17.75
251.151	-46.42
251.368	43.69
251.585	86.7
251.801	88.75
252.018	19.11
252.235	39.59
252.451	25.26
252.668	43.69
252.885	39.59
253.102	-21.85
253.318	39.59
253.535	-83.28
253.752	4.78
253.968	51.88
254.185	2.73
254.401	55.98
254.618	23.21
254.835	6.83
255.051	121.51
255.268	-1.37
255.484	53.93
255.701	-30.04
255.917	29.35
256.134	45.74
256.351	82.6
256.567	-27.99
256.784	8.87
257	-58.71
257.217	41.64
257.433	-13.65
257.65	88.75
257.866	21.16
258.082	39.59
258.299	94.89
258.515	10.92
258.732	43.69
258.948	49.83
259.165	37.55
259.381	21.16
259.597	58.03
259.814	19.11
260.03	6.83
260.246	-52.56
260.463	-42.32
260.679	76.46
260.895	19.11
261.112	90.79
261.328	35.5
261.544	39.59
261.761	45.74
261.977	15.02
262.193	49.83
262.409	88.75
262.626	51.88
262.842	23.21
263.058	39.59
263.274	31.4
263.49	27.31
263.707	-5.46
263.923	135.85
264.139	-1.37
264.355	45.74
264.571	35.5
264.787	64.17
265.004	23.21
265.22	-13.65
265.436	17.07
265.652	-38.23
265.868	60.07
266.084	25.26
266.3	47.79
266.516	-17.75
266.732	23.21
266.948	-9.56
267.164	25.26
267.38	72.36
267.596	23.21
267.812	101.03
268.028	72.36
268.244	15.02
268.46	51.88
268.676	94.89
268.892	41.64
269.108	-81.24
269.324	27.31
269.54	12.97
269.756	131.75
269.972	-23.89
270.188	82.6
270.403	6.83
270.619	39.59
270.835	39.59
271.051	49.83
271.267	-13.65
271.483	23.21
271.698	58.03
271.914	31.4
272.13	27.31
272.346	15.02
272.562	141.99
272.777	55.98
272.993	8.87
273.209	-34.13
273.425	-13.65
273.64	51.88
273.856	78.51
274.072	10.92
274.287	64.17
274.503	78.51
274.719	21.16
274.934	43.69
275.15	-75.09
275.366	31.4
275.581	10.92
275.797	39.59
276.012	29.35
276.228	53.93
276.444	-11.61
276.659	72.36
276.875	-42.32
277.09	25.26
277.306	55.98
277.521	76.46
277.737	123.56
277.952	76.46
278.168	88.75
278.383	62.12
278.599	55.98
278.814	88.75
279.03	60.07
279.245	27.31
279.461	55.98
279.676	19.11
279.892	0.68
280.107	35.5
280.322	8.87
280.538	119.46
280.753	109.22
280.969	64.17
281.184	2.73
281.399	170.66
281.615	31.4
281.83	8.87
282.045	23.21
282.26	31.4
282.476	84.65
282.691	92.84
282.906	-13.65
283.122	15.02
283.337	-44.37
283.552	-42.32
283.767	-52.56
283.983	74.41
284.198	4.78
284.413	6.83
284.628	10.92
284.843	72.36
285.058	-21.85
285.274	41.64
285.489	-19.8
285.704	98.99
285.919	49.83
286.134	70.31
286.349	60.07
286.564	-23.89
286.779	41.64
286.995	-9.56
287.21	-50.52
287.425	47.79
287.64	17.07
287.855	2.73
288.07	8.87
288.285	39.59
288.5	23.21
288.715	45.74
288.93	33.45
289.145	-3.41
289.36	123.56
289.575	74.41
289.79	84.65
290.004	15.02
290.219	88.75
290.434	15.02
290.649	27.31
290.864	23.21
291.079	-17.75
291.294	-38.23
291.509	76.46
291.724	92.84
291.938	72.36
292.153	66.22
292.368	0.68
292.583	15.02
292.798	10.92
293.012	96.94
293.227	107.18
293.442	15.02
293.657	60.07
293.871	129.7
294.086	-9.56
294.301	55.98
294.516	-58.71
294.73	6.83
294.945	8.87
295.16	55.98
295.374	58.03
295.589	6.83
295.804	45.74
296.018	29.35
296.233	98.99
296.447	27.31
296.662	2.73
296.877	25.26
297.091	19.11
297.306	74.41
297.52	31.4
297.735	23.21
297.949	60.07
298.164	25.26
298.378	-1.37
298.593	15.02
298.807	-56.66
299.022	31.4
299.236	19.11
299.451	10.92
299.665	51.88
299.88	19.11
300.094	58.03
300.309	23.21
300.523	15.02
300.737	23.21
300.952	80.55
301.166	55.98
301.381	43.69
301.595	33.45
301.809	84.65
302.024	-15.7
302.238	-25.94
302.452	43.69
302.667	68.27
302.881	107.18
303.095	47.79
303.309	17.07
303.524	47.79
303.738	15.02
303.952	72.36
304.166	15.02
304.381	8.87
304.595	96.94
304.809	25.26
305.023	74.41
305.237	-83.28
305.452	51.88
305.666	64.17
305.88	31.4
306.094	23.21
306.308	47.79
306.522	98.99
306.736	84.65
306.95	43.69
307.164	33.45
307.379	58.03
307.593	86.7
307.807	45.74
308.021	-9.56
308.235	8.87
308.449	88.75
308.663	-23.89
308.877	53.93
309.091	-17.75
309.305	74.41
309.519	-21.85
309.733	76.46
309.947	6.83
310.161	68.27
310.374	64.17
310.588	35.5
310.802	64.17
311.016	92.84
311.23	98.99
311.444	19.11
311.658	17.07
311.872	68.27
312.085	17.07
312.299	-23.89
312.513	107.18
312.727	-1.37
312.941	84.65
313.154	39.59
313.368	4.78
313.582	-7.51
313.796	6.83
314.009	88.75
314.223	23.21
314.437	8.87
314.651	-3.41
314.864	17.07
315.078	41.64
315.292	-34.13
315.505	-32.08
315.719	47.79
315.933	39.59
316.146	80.55
316.36	-23.89
316.573	43.69
316.787	92.84
317.001	-34.13
317.214	49.83
317.428	27.31
317.641	55.98
317.855	55.98
318.068	10.92
318.282	68.27
318.495	55.98
318.709	33.45
318.922	41.64
319.136	98.99
319.349	64.17
319.563	17.07
319.776	19.11
319.99	6.83
320.203	-9.56
320.417	27.31
320.63	105.13
320.843	49.83
321.057	23.21
321.27	98.99
321.483	92.84
321.697	41.64
321.91	51.88
322.124	23.21
322.337	-9.56
322.55	51.88
322.763	-17.75
322.977	23.21
323.19	39.59
323.403	72.36
323.617	84.65
323.83	80.55
324.043	109.22
324.256	27.31
324.469	15.02
324.683	35.5
324.896	84.65
325.109	64.17
325.322	-17.75
325.535	84.65
325.748	49.83
325.962	76.46
326.175	49.83
326.388	35.5
326.601	19.11
326.814	39.59
327.027	41.64
327.24	107.18
327.453	-23.89
327.666	49.83
327.879	15.02
328.092	0.68
328.305	-1.37
328.518	74.41
328.731	33.45
328.944	-9.56
329.157	35.5
329.37	43.69
329.583	154.28
329.796	82.6
330.009	-3.41
330.222	25.26
330.435	6.83
330.648	-9.56
330.861	-9.56
331.073	21.16
331.286	121.51
331.499	0.68
331.712	-13.65
331.925	47.79
332.138	12.97
332.35	39.59
332.563	-62.8
332.776	6.83
332.989	31.4
333.202	6.83
333.414	51.88
333.627	-1.37
333.84	23.21
334.053	39.59
334.265	-32.08
334.478	41.64
334.691	55.98
334.903	-5.46
335.116	47.79
335.329	41.64
335.541	90.79
335.754	125.61
335.966	33.45
336.179	15.02
336.392	74.41
336.604	51.88
336.817	86.7
337.029	96.94
337.242	33.45
337.454	10.92
337.667	62.12
337.88	-9.56
338.092	76.46
338.305	25.26
338.517	58.03
338.729	72.36
338.942	6.83
339.154	133.8
339.367	-5.46
339.579	146.09
339.792	-1.37
340.004	37.55
340.217	84.65
340.429	10.92
340.641	41.64
340.854	43.69
341.066	55.98
341.278	-15.7
341.491	55.98
341.703	74.41
341.915	-34.13
342.128	84.65
342.34	47.79
342.552	19.11
342.764	-34.13
342.977	0.68
343.189	66.22
343.401	41.64
343.613	-46.42
343.826	39.59
344.038	-3.41
344.25	23.21
344.462	31.4
344.674	51.88
344.886	60.07
345.099	43.69
345.311	19.11
345.523	76.46
345.735	41.64
345.947	66.22
346.159	6.83
346.371	64.17
346.583	51.88
346.795	88.75
347.007	27.31
347.219	-1.37
347.431	-25.94
347.643	55.98
347.855	21.16
348.067	41.64
348.279	-21.85
348.491	15.02
348.703	64.17
348.915	55.98
349.127	-17.75
349.339	160.42
349.551	41.64
349.763	23.21
349.975	66.22
350.187	76.46
350.399	23.21
350.61	43.69
350.822	39.59
351.034	55.98
351.246	27.31
351.458	129.7
351.669	15.02
351.881	72.36
352.093	84.65
352.305	41.64
352.517	55.98
352.728	55.98
352.94	39.59
353.152	162.47
353.363	96.94
353.575	17.07
353.787	43.69
353.999	92.84
354.21	37.55
354.422	55.98
354.633	45.74
354.845	47.79
355.057	58.03
355.268	2.73
355.48	10.92
355.692	-5.46
355.903	8.87
356.115	47.79
356.326	-52.56
356.538	74.41
356.749	31.4
356.961	41.64
357.172	31.4
357.384	47.79
357.595	92.84
357.807	47.79
358.018	60.07
358.23	17.07
358.441	74.41
358.653	31.4
358.864	6.83
359.075	37.55
359.287	90.79
359.498	35.5
359.709	53.93
359.921	-23.89
360.132	-21.85
360.344	96.94
360.555	98.99
360.766	19.11
360.977	29.35
361.189	90.79
361.4	80.55
361.611	23.21
361.823	41.64
362.034	82.6
362.245	-9.56
362.456	103.08
362.667	39.59
362.879	25.26
363.09	96.94
363.301	47.79
363.512	27.31
363.723	72.36
363.935	-40.28
364.146	101.03
364.357	111.27
364.568	31.4
364.779	-32.08
364.99	72.36
365.201	41.64
365.412	55.98
365.623	25.26
365.834	68.27
366.045	51.88
366.256	12.97
366.467	105.13
366.678	90.79
366.889	92.84
367.1	74.41
367.311	111.27
367.522	27.31
367.733	72.36
367.944	101.03
368.155	6.83
368.366	68.27
368.577	49.83
368.788	51.88
368.999	-13.65
369.209	6.83
369.42	31.4
369.631	101.03
369.842	49.83
370.053	39.59
370.264	39.59
370.474	27.31
370.685	49.83
370.896	23.21
371.107	-1.37
371.317	39.59
371.528	-60.76
371.739	41.64
371.95	60.07
372.16	47.79
372.371	23.21
372.582	111.27
372.792	58.03
373.003	80.55
373.214	58.03
373.424	107.18
373.635	21.16
373.846	41.64
374.056	-13.65
374.267	80.55
374.477	51.88
374.688	41.64
374.898	39.59
375.109	105.13
375.319	103.08
375.53	27.31
375.74	53.93
375.951	-1.37
376.161	-1.37
376.372	72.36
376.582	43.69
376.793	64.17
377.003	92.84
377.214	17.07
377.424	23.21
377.635	37.55
377.845	43.69
378.055	43.69
378.266	58.03
378.476	-30.04
378.686	12.97
378.897	70.31
379.107	15.02
379.317	17.07
379.528	45.74
379.738	23.21
379.948	-7.51
380.158	76.46
380.369	107.18
380.579	0.68
380.789	51.88
380.999	39.59
381.21	68.27
381.42	105.13
381.63	74.41
381.84	111.27
382.05	109.22
382.261	80.55
382.471	41.64
382.681	78.51
382.891	84.65
383.101	74.41
383.311	17.07
383.521	-7.51
383.731	23.21
383.941	64.17
384.151	53.93
384.361	72.36
384.571	90.79
384.781	86.7
384.991	43.69
385.201	96.94
385.411	-17.75
385.621	101.03
385.831	19.11
386.041	64.17
386.251	45.74
386.461	90.79
386.671	49.83
386.881	49.83
387.091	17.07
387.301	121.51
387.511	-17.75
387.72	86.7
387.93	94.89
388.14	39.59
388.35	88.75
388.56	74.41
388.769	125.61
388.979	70.31
389.189	-5.46
389.399	33.45
389.609	39.59
389.818	80.55
390.028	72.36
390.238	76.46
390.447	64.17
390.657	66.22
390.867	41.64
391.076	8.87
391.286	49.83
391.496	74.41
391.705	66.22
391.915	35.5
392.125	107.18
392.334	64.17
392.544	92.84
392.753	33.45
392.963	146.09
393.172	150.18
393.382	29.35
393.591	139.94
393.801	39.59
394.01	51.88
394.22	19.11
394.429	88.75
394.639	31.4
394.848	88.75
395.058	74.41
395.267	15.02
395.477	115.37
395.686	131.75
395.895	66.22
396.105	170.66
396.314	31.4
396.524	43.69
396.733	-13.65
396.942	119.46
397.152	103.08
397.361	96.94
397.57	70.31
397.78	107.18
397.989	55.98
398.198	154.28
398.407	86.7
398.617	66.22
398.826	98.99
399.035	8.87
399.244	33.45
399.453	80.55
399.663	111.27
399.872	98.99
400.081	66.22
400.29	137.9
400.499	35.5
400.708	68.27
400.917	111.27
401.127	123.56
401.336	47.79
401.545	113.32
401.754	33.45
401.963	148.14
402.172	121.51
402.381	148.14
402.59	64.17
402.799	80.55
403.008	168.62
403.217	90.79
403.426	88.75
403.635	49.83
403.844	123.56
404.053	94.89
404.262	45.74
404.471	113.32
404.68	162.47
404.888	144.04
405.097	74.41
405.306	117.42
405.515	113.32
405.724	49.83
405.933	187.05
406.142	103.08
406.35	141.99
406.559	115.37
406.768	125.61
406.977	187.05
407.185	162.47
407.394	248.49
407.603	129.7
407.812	162.47
408.02	185
408.229	195.24
408.438	137.9
408.646	205.48
408.855	230.06
409.064	260.77
409.272	262.82
409.481	244.39
409.69	283.3
409.898	254.63
410.107	281.25
410.315	289.45
410.524	346.79
410.733	326.31
410.941	254.63
411.15	332.45
411.358	357.03
411.567	408.23
411.775	309.93
411.984	346.79
412.192	357.03
412.401	377.51
412.609	375.46
412.818	445.09
413.026	500.39
413.234	498.34
413.443	447.14
413.651	484
413.86	516.77
414.068	629.41
414.276	481.96
414.485	514.72
414.693	567.97
414.901	613.03
415.11	592.55
415.318	666.27
415.526	639.65
415.734	787.1
415.943	740
416.151	744.1
416.359	696.99
416.567	809.63
416.776	809.63
416.984	840.35
417.192	946.84
417.4	866.97
417.608	873.12
417.817	1006.24
418.025	996
418.233	1108.63
418.441	899.74
418.649	1022.62
418.857	1159.83
419.065	1088.15
419.273	1116.83
419.481	1182.36
419.689	1231.51
419.897	1360.53
420.105	1264.28
420.313	1350.29
420.521	1473.17
420.729	1567.38
420.937	1493.65
421.145	1604.24
421.353	1606.29
421.561	1712.78
421.769	1718.93
421.977	1880.72
422.185	1813.13
422.393	1940.11
422.601	1931.92
422.809	2007.69
423.017	2013.84
423.224	2214.54
423.432	2210.44
423.64	2245.26
423.848	2380.42
424.056	2288.26
424.263	2521.73
424.471	2546.31
424.679	2540.16
424.887	2652.8
425.094	2744.96
425.302	2851.46
425.51	2900.61
425.718	2990.72
425.925	3078.78
426.133	3101.31
426.341	3259
426.548	3373.69
426.756	3480.18
426.964	3441.27
427.171	3529.33
427.379	3783.28
427.586	3848.82
427.794	3940.97
428.001	4096.62
428.209	4354.66
428.417	4237.93
428.624	4522.6
428.832	4512.36
429.039	4520.55
429.247	4594.28
429.454	4831.84
429.662	5089.88
429.869	4876.9
430.076	5184.09
430.284	5087.84
430.491	5302.87
430.699	5683.8
430.906	5702.23
431.114	5423.7
431.321	5878.35
431.528	5929.55
431.736	6355.53
431.943	6586.95
432.15	6611.53
432.358	6441.54
432.565	6904.39
432.772	7035.46
432.979	7260.73
433.187	7328.31
433.394	7299.64
433.601	7856.69
433.808	7854.64
434.016	7797.3
434.223	8086.06
434.43	8700.45
434.637	8389.16
434.844	9007.65
435.052	9142.82
435.259	8993.31
435.466	9177.63
435.673	9108
435.88	9607.7
436.087	10287.63
436.294	10158.61
436.501	9906.71
436.708	9878.04
436.915	10410.51
437.122	11108.87
437.329	11022.85
437.537	11139.58
437.743	11452.92
437.95	11209.22
438.157	11919.86
438.364	12249.58
438.571	11999.73
438.778	12438
438.985	13500.89
439.192	12974.56
439.399	13556.19
439.606	13036
439.813	13810.14
440.02	14662.09
440.227	14393.81
440.433	14440.91
440.64	14731.72
440.847	14621.13
441.054	15038.92
441.261	15833.53
441.467	15821.24
441.674	16146.87
441.881	16791.98
442.088	16660.91
442.294	16322.99
442.501	16800.17
442.708	17215.91
442.914	17648.03
443.121	18440.59
443.328	17963.42
443.534	19106.18
443.741	18684.3
443.948	18397.59
444.154	19673.47
444.361	19704.19
444.568	19800.44
444.774	19806.59
444.981	19939.71
445.187	20660.59
445.394	21756.25
445.6	20990.31
445.807	23271.75
446.013	22516.05
446.22	22393.17
446.426	23515.46
446.633	23863.61
446.839	24631.6
447.046	23359.81
447.252	24850.74
447.459	24932.65
447.665	24478.01
447.871	25760.03
448.078	26861.84
448.284	25565.48
448.491	26513.69
448.697	27715.84
448.903	27719.94
449.11	28219.64
449.316	27314.44
449.522	27980.03
449.728	28551.42
449.935	29090.03
450.141	29378.79
450.347	29747.43
450.553	28879.09
450.76	29274.35
450.966	30116.06
451.172	29855.97
451.378	30873.81
451.584	29976.8
451.791	30707.93
451.997	30660.82
452.203	30771.41
452.409	31531.21
452.615	31121.62
452.821	29956.32
453.027	29683.94
453.233	31473.87
453.44	29993.18
453.646	30515.42
453.852	30607.58
454.058	31232.21
454.264	29991.14
454.47	30765.27
454.676	30032.1
454.882	31193.29
455.088	28582.13
455.294	29165.81
455.5	29069.55
455.705	29317.36
455.911	28522.74
456.117	27787.52
456.323	27488.52
456.529	26173.72
456.735	27613.45
456.941	26761.49
457.147	26378.52
457.352	25512.23
457.558	25157.93
457.764	25614.63
457.97	24949.04
458.176	24117.56
458.381	24394.04
458.587	23114.06
458.793	23284.04
458.999	21817.69
459.204	23746.88
459.41	22729.04
459.616	21330.28
459.821	21326.18
460.027	21283.17
460.233	20996.46
460.438	19943.8
460.644	20375.92
460.85	19306.88
461.055	18979.21
461.261	18772.36
461.466	17562.01
461.672	17000.87
461.878	18225.56
462.083	17019.3
462.289	16710.06
462.494	16288.18
462.7	15657.4
462.905	15178.18
463.111	16073.14
463.316	16054.71
463.522	15747.51
463.727	15413.7
463.932	15393.22
464.138	15270.34
464.343	15454.65
464.549	15057.35
464.754	15401.41
464.959	15432.13
465.165	15157.7
465.37	14670.28
465.575	13959.64
465.781	14815.69
465.986	14916.04
466.191	14422.48
466.397	14062.04
466.602	13421.02
466.807	13877.72
467.012	13933.01
467.218	13791.7
467.423	13455.84
467.628	13646.3
467.833	13982.17
468.038	13896.15
468.244	13230.56
468.449	14012.88
468.654	13181.41
468.859	13423.07
469.064	13097.44
469.269	12538.35
469.474	12917.22
469.679	13283.81
469.885	12712.42
470.09	12954.08
470.295	12775.91
470.5	12483.05
470.705	12595.69
470.91	12433.9
471.115	12294.64
471.32	12149.23
471.525	12210.67
471.73	11887.09
471.935	11833.85
472.139	11536.89
472.344	11819.51
472.549	11553.27
472.754	11655.67
472.959	11448.83
473.164	10885.64
473.369	11028.99
473.574	11465.21
473.778	11131.39
473.983	11229.7
474.188	11061.76
474.393	10721.8
474.598	10582.54
474.802	10279.44
475.007	10050.07
475.212	10392.08
475.417	10033.68
475.621	10154.51
475.826	10031.63
476.031	9919
476.235	9734.68
476.44	9832.98
476.645	9697.81
476.849	9775.64
477.054	9536.03
477.259	9329.18
477.463	9493.02
477.668	9116.19
477.872	9378.33
478.077	9224.73
478.282	8935.97
478.486	8806.95
478.691	8763.94
478.895	8862.24
479.1	8696.36
479.304	8845.86
479.509	8522.28
479.713	8600.1
479.918	8575.53
480.122	8241.71
480.326	8430.12
480.531	8460.84
480.735	8307.24
480.94	8272.43
481.144	8585.77
481.348	8063.54
481.553	8178.22
481.757	7897.65
481.961	8210.99
482.166	8307.24
482.37	8133.17
482.574	8018.48
482.778	8325.68
482.983	8313.39
483.187	8235.57
483.391	8206.89
483.595	8002.1
483.8	7948.85
484.004	8165.93
484.208	8256.04
484.412	7989.81
484.616	8114.73
484.821	8028.72
485.025	8067.63
485.229	8096.3
485.433	8131.12
485.637	7799.35
485.841	8004.14
486.045	8038.96
486.249	7981.62
486.453	8041.01
486.657	7877.17
486.861	8194.61
487.065	8043.06
487.269	7969.33
487.473	7979.57
487.677	8149.55
487.881	8049.2
488.085	8034.86
488.289	8028.72
488.493	7975.47
488.697	8190.51
488.901	8094.26
489.105	8067.63
489.309	7842.35
489.512	8053.3
489.716	8165.93
489.92	8274.48
490.124	8116.78
490.328	8354.35
490.531	8143.41
490.735	8370.73
490.939	8204.85
491.143	8172.08
491.346	8239.66
491.55	8110.64
491.754	8245.8
491.958	8423.98
492.161	8282.67
492.365	8348.2
492.569	8364.59
492.772	8282.67
492.976	8372.78
493.18	8591.91
493.383	8618.54
493.587	8641.06
493.79	8714.79
493.994	8659.49
494.197	8710.69
494.401	8843.81
494.605	8931.87
494.808	8913.44
495.012	8933.92
495.215	8870.44
495.419	9226.78
495.622	9017.89
495.825	9226.78
496.029	9077.28
496.232	9603.61
496.436	9386.52
496.639	9527.83
496.843	9525.79
497.046	9480.73
497.249	9675.29
497.453	9863.7
497.656	9845.27
497.859	10054.16
498.063	10148.37
498.266	10310.16
498.469	10271.25
498.673	10152.46
498.876	10402.32
499.079	10426.89
499.282	10488.33
499.485	10756.61
499.689	10770.95
499.892	10895.88
500.095	11035.14
500.298	11450.88
500.501	11291.13
500.705	11565.56
500.908	11559.42
501.111	11774.45
501.314	11770.36
501.517	12012.02
501.72	12020.21
501.923	12069.36
502.126	12313.07
502.329	12616.17
502.532	12335.6
502.735	12845.54
502.938	13126.11
503.141	12847.59
503.344	13122.02
503.547	13519.32
503.75	13359.58
503.953	13666.78
504.156	13709.79
504.359	13691.35
504.562	14002.65
504.765	14178.77
504.968	14189.01
505.17	14500.3
505.373	14877.13
505.576	14805.45
505.779	14987.72
505.982	15071.68
506.185	15276.48
506.387	15436.22
506.59	15382.98
506.793	15702.46
506.996	15571.39
507.198	15960.5
507.401	16015.8
507.604	16112.05
507.807	16613.81
508.009	16515.5
508.212	16808.36
508.415	16611.76
508.617	17095.08
508.82	17338.79
509.022	17260.96
509.225	17795.48
509.428	17660.32
509.63	18010.52
509.833	17854.87
510.035	18577.81
510.238	18223.51
510.44	18274.71
510.643	18600.33
510.845	18782.6
511.048	19161.48
511.25	19280.26
511.453	19083.66
511.655	20244.85
511.858	19839.36
512.06	20095.35
512.262	20062.58
512.465	20212.09
512.667	20496.75
512.87	20547.95
513.072	20541.81
513.274	21137.77
513.477	21092.71
513.679	21418.34
513.881	21883.23
514.084	21934.43
514.286	21954.91
514.488	21916
514.69	22659.41
514.893	22847.82
515.095	22870.35
515.297	23273.8
515.499	23271.75
515.701	23476.55
515.904	23814.46
516.106	23781.7
516.308	24299.83
516.51	24062.27
516.712	24449.33
516.914	24564.02
517.116	25061.68
517.318	25280.81
517.52	25033
517.722	25405.74
517.925	25499.94
518.127	26040.61
518.329	26153.24
518.531	25968.93
518.733	26767.63
518.935	26579.22
519.136	26843.41
519.338	27482.38
519.54	27259.15
519.742	27599.11
519.944	27472.14
520.146	27953.41
520.348	28072.19
520.55	28602.61
520.752	28502.26
520.954	28602.61
521.155	28563.7
521.357	29421.8
521.559	29450.47
521.761	29530.34
521.963	30126.3
522.164	29886.69
522.366	29876.45
522.568	30359.77
522.77	30648.53
522.971	30902.48
523.173	30597.34
523.375	31072.46
523.576	31205.58
523.778	31557.83
523.98	31447.24
524.181	31418.57
524.383	31846.6
524.584	32286.91
524.786	32303.29
524.988	32374.97
525.189	32598.2
525.391	32868.53
525.592	32753.85
525.794	32907.44
525.995	32917.68
526.197	33104.05
526.398	33179.82
526.6	33575.08
526.801	33593.51
527.003	33937.57
527.204	33773.74
527.406	33956
527.607	34304.16
527.808	34361.5
528.01	33884.33
528.211	34207.9
528.412	34797.72
528.614	34879.64
528.815	34386.08
529.016	34912.41
529.218	34754.71
529.419	35242.13
529.62	35276.94
529.822	35018.9
530.023	35393.68
530.224	35135.63
530.425	35090.58
530.626	35039.38
530.828	34801.82
531.029	35475.6
531.23	35127.44
531.431	35448.97
531.632	35520.65
531.833	35397.77
532.035	35539.08
532.236	35471.5
532.437	35772.55
532.638	35754.12
532.839	35711.11
533.04	36128.9
533.241	35604.62
533.442	36087.94
533.643	35426.45
533.844	35997.83
534.045	35868.81
534.246	35934.34
534.447	35723.4
534.648	35831.94
534.849	36198.53
535.05	35780.74
535.251	36018.31
535.451	35723.4
535.652	36040.84
535.853	36059.27
536.054	36128.9
536.255	36251.78
536.456	35745.93
536.657	36432
536.857	36290.69
537.058	35885.19
537.259	36311.17
537.46	36153.47
537.66	35979.4
537.861	36259.97
538.062	35790.98
538.263	35883.14
538.463	35977.35
538.664	35752.07
538.865	36192.39
539.065	36372.61
539.266	35465.36
539.466	36364.42
539.667	35862.66
539.868	36456.57
540.068	35956.87
540.269	35731.59
540.469	35901.57
540.67	35780.74
540.87	36089.99
541.071	35944.58
541.271	35991.69
541.472	35745.93
541.672	35690.63
541.873	35805.32
542.073	35567.76
542.274	36272.26
542.474	35930.25
542.675	35672.2
542.875	35766.41
543.075	36155.52
543.276	35524.75
543.476	36051.08
543.676	35408.01
543.877	35627.15
544.077	35782.79
544.277	35541.13
544.478	35872.9
544.678	35872.9
544.878	36051.08
545.078	35557.52
545.279	35707.02
545.479	35684.49
545.679	35799.18
545.879	35850.38
546.079	35494.03
546.28	35739.79
546.48	35520.65
546.68	35637.39
546.88	35819.66
547.08	35293.33
547.28	35524.75
547.48	35192.98
547.68	35694.73
547.88	35182.74
548.081	35686.54
548.281	35385.49
548.481	35561.61
548.681	35467.41
548.881	35377.29
549.081	35469.45
549.28	35299.47
549.48	35782.79
549.68	35448.97
549.88	35811.46
550.08	35426.45
550.28	35629.19
550.48	35569.8
550.68	35502.22
550.88	35295.38
551.08	35498.12
551.279	35410.06
551.479	35336.34
551.679	35743.88
551.879	35289.23
552.079	35569.8
552.278	34994.32
552.478	35283.09
552.678	35219.6
552.878	35375.25
553.077	35092.63
553.277	35080.34
553.477	35643.53
553.676	34988.18
553.876	35401.87
554.076	35186.83
554.275	35270.8
554.475	34900.12
554.674	35293.33
554.874	34885.78
555.074	35018.9
555.273	35158.16
555.473	35199.12
555.672	34795.67
555.872	34773.14
556.071	34896.02
556.271	34867.35
556.47	34662.55
556.67	34517.15
556.869	34592.92
557.068	35123.35
557.268	34453.66
557.467	34642.07
557.667	34480.28
557.866	34721.94
558.065	34517.15
558.265	34273.44
558.464	34285.73
558.663	34160.8
558.863	33962.15
559.062	34517.15
559.261	34265.25
559.461	34654.36
559.66	33927.33
559.859	33853.61
560.058	34179.23
560.258	34068.64
560.457	33560.75
560.656	34068.64
560.855	33284.27
561.054	33814.69
561.253	33489.07
561.453	33718.44
561.652	33751.21
561.851	33831.08
562.05	33444.01
562.249	33302.7
562.448	33525.93
562.647	33697.96
562.846	33446.06
563.045	33394.86
563.244	33007.79
563.443	33484.97
563.642	32590.01
563.841	33157.3
564.04	32379.07
564.239	33185.97
564.438	32927.92
564.637	32880.82
564.836	33233.07
565.035	32067.78
565.234	32317.63
565.432	32544.95
565.631	32454.84
565.83	32383.16
566.029	32387.26
566.228	32121.02
566.427	31897.8
566.625	32370.88
566.824	31916.23
567.023	32309.44
567.222	31916.23
567.42	32071.87
567.619	31742.15
567.818	32104.64
568.016	31391.95
568.215	32000.19
568.414	31723.72
568.612	32112.83
568.811	31434.95
569.01	31561.93
569.208	30892.24
569.407	31267.02
569.605	30855.38
569.804	31465.67
570.002	30920.91
570.201	31264.97
570.4	30755.03
570.598	30943.44
570.797	30669.01
570.995	30795.99
571.193	30456.03
571.392	30609.62
571.59	30511.32
571.789	30486.75
571.987	30478.55
572.186	30279.9
572.384	30474.46
572.582	30548.18
572.781	30400.73
572.979	29675.75
573.177	29939.94
573.376	29774.05
573.574	29526.25
573.772	30009.57
573.971	29794.53
574.169	29712.61
574.367	28999.92
574.565	29769.96
574.763	29389.03
574.962	29458.67
575.16	28991.73
575.358	29114.61
575.556	29028.59
575.754	29182.19
575.952	28752.12
576.151	28940.53
576.349	28844.27
576.547	28653.81
576.745	28850.42
576.943	28594.42
577.141	28709.11
577.339	28438.78
577.537	28299.51
577.735	28414.2
577.933	28436.73
578.131	28193.02
578.329	28064
578.527	27771.14
578.725	27838.72
578.923	27848.96
579.121	27836.67
579.319	27996.42
579.516	27930.88
579.714	27861.25
579.912	27859.2
580.11	27560.2
580.308	27625.73
580.506	27703.56
580.704	26913.04
580.901	27189.52
581.099	27343.11
581.297	26867.98
581.495	27416.84
581.692	26949.9
581.89	26657.04
582.088	27175.18
582.285	26722.58
582.483	26503.45
582.681	26505.49
582.878	26536.21
583.076	26290.46
583.274	26722.58
583.471	25993.5
583.669	26292.51
583.866	26032.41
584.064	26556.69
584.262	25647.4
584.459	25923.87
584.657	26020.13
584.854	26331.42
585.052	25712.93
585.249	25868.58
585.447	25872.67
585.644	25501.99
585.841	25651.49
586.039	25592.1
586.236	25540.9
586.434	25311.53
586.631	25137.45
586.828	25399.59
587.026	25141.55
587.223	25082.16
587.42	25387.3
587.618	24867.12
587.815	24742.19
588.012	24998.19
588.21	24652.08
588.407	24785.2
588.604	24703.28
588.801	24662.32
588.999	24441.14
589.196	24582.45
589.393	24181.05
589.59	24150.33
589.787	23849.28
589.984	24125.75
590.182	24150.33
590.379	24185.15
590.576	23873.85
590.773	23951.68
590.97	23548.23
591.167	24252.73
591.364	23359.81
591.561	23562.56
591.758	23335.24
591.955	23386.44
592.152	23630.15
592.349	23189.83
592.546	23097.67
592.743	23320.9
592.94	23101.77
593.137	23140.68
593.334	23097.67
593.531	22808.91
593.727	22849.87
593.924	22851.92
594.121	22583.63
594.318	22944.08
594.515	22315.35
594.712	22722.9
594.908	22544.72
595.105	22477.14
595.302	22202.71
595.499	22731.09
595.696	22425.94
595.892	21987.68
596.089	22241.62
596.286	21872.99
596.482	21995.87
596.679	21795.17
596.876	22022.49
597.072	21793.12
597.269	21668.19
597.466	21551.46
597.662	21418.34
597.859	21608.8
598.055	21494.11
598.252	21387.62
598.448	21231.97
598.645	21293.41
598.841	20930.92
599.038	21432.68
599.234	21217.64
599.431	21025.13
599.627	20928.88
599.824	20937.07
600.02	20562.29
600.217	20754.8
600.413	20658.54
600.609	20433.27
600.806	20408.69
601.002	20562.29
601.198	20668.78
601.395	20169.08
601.591	19915.13
601.787	20296.05
601.984	20019.58
602.18	20482.42
602.376	19855.74
602.572	19835.26
602.769	20261.24
602.965	20042.1
603.161	20113.78
603.357	19536.26
603.553	19886.46
603.75	19868.03
603.946	19411.33
604.142	19642.75
604.338	19433.86
604.534	19702.14
604.73	19282.31
604.926	19198.34
605.122	19376.51
605.318	19202.44
605.514	19032.46
605.71	18790.8
605.906	18872.71
606.102	19276.16
606.298	19087.75
606.494	18729.36
606.69	18989.45
606.886	18958.73
607.082	18712.97
607.278	18788.75
607.474	18745.74
607.67	18778.51
607.866	18440.59
608.062	18622.86
608.257	18452.88
608.453	18243.99
608.649	18497.94
608.845	18383.25
609.041	18262.42
609.236	18348.43
609.432	18381.2
609.628	18203.03
609.824	18092.44
610.019	17901.98
610.215	18067.86
610.411	18272.66
610.606	17994.14
610.802	17877.4
610.998	17848.73
611.193	17971.61
611.389	17992.09
611.584	17660.32
611.78	17865.11
611.976	17539.49
612.171	17629.6
612.367	17822.11
612.562	17449.38
612.758	17486.24
612.953	17209.76
613.149	17764.76
613.344	17443.23
613.539	17664.41
613.735	17496.48
613.93	17287.59
614.126	17351.07
614.321	17310.11
614.517	17568.16
614.712	17402.27
614.907	17222.05
615.103	17349.03
615.298	17004.97
615.493	17303.97
615.688	17080.74
615.884	17541.53
616.079	16767.4
616.274	17013.16
616.47	16849.32
616.665	17160.61
616.86	16763.31
617.055	16931.24
617.25	16687.53
617.445	17086.89
617.641	16581.04
617.836	16953.77
618.031	16550.32
618.226	16425.39
618.421	16515.5
618.616	16499.12
618.811	16529.84
619.006	16204.21
619.201	16357.81
619.396	16312.75
619.591	16052.66
619.786	16193.97
619.981	15948.22
620.176	16214.45
620.371	15653.31
620.566	15794.62
620.761	15892.92
620.956	16028.09
621.151	15368.64
621.346	15841.72
621.541	15393.22
621.735	15485.37
621.93	15391.17
622.125	15491.52
622.32	14985.67
622.515	15182.28
622.709	15194.56
622.904	14969.29
623.099	14926.28
623.294	15008.2
623.488	14787.02
623.683	14838.22
623.878	14553.55
624.072	14555.6
624.267	14297.55
624.462	14387.66
624.656	14246.35
624.851	14309.84
625.046	14248.4
625.24	14094.8
625.435	14156.24
625.629	13781.46
625.824	13879.77
626.018	13679.07
626.213	13527.52
626.407	13711.83
626.602	13433.31
626.796	13597.15
626.991	13484.51
627.185	13154.79
627.38	13494.75
627.574	13335.01
627.768	13244.9
627.963	13095.39
628.157	13021.67
628.352	13097.44
628.546	12775.91
628.74	12892.65
628.935	12616.17
629.129	12624.36
629.323	12394.99
629.517	12450.28
629.712	12589.55
629.906	12438
630.1	12220.91
630.294	12323.31
630.489	12296.69
630.683	12358.13
630.877	12069.36
631.071	12186.1
631.265	11883
631.459	12036.59
631.653	11825.65
631.848	11780.6
632.042	11530.75
632.236	11821.56
632.43	11706.87
632.624	11405.82
632.818	11340.29
633.012	11313.66
633.206	11385.34
633.4	11201.02
633.594	11047.43
633.788	11422.2
633.982	11160.06
634.176	11102.72
634.369	11158.02
634.563	10861.06
634.757	10963.46
634.951	10895.88
635.145	11084.29
635.339	10789.38
635.533	10650.12
635.726	10703.37
635.92	10535.43
636.114	10551.82
636.308	10566.15
636.501	10568.2
636.695	10330.64
636.889	10387.98
637.083	10328.59
637.276	10299.92
637.47	10189.33
637.664	10097.17
637.857	10066.45
638.051	9968.15
638.244	10027.54
638.438	9957.91
638.632	9812.5
638.825	9734.68
639.019	9660.95
639.212	9544.22
639.406	9513.5
639.599	9753.11
639.793	9521.69
639.986	9382.43
640.18	9452.06
640.373	9441.82
640.567	9310.75
640.76	9427.48
640.954	9298.46
641.147	9079.33
641.34	9351.71
641.534	9419.29
641.727	9011.75
641.92	9060.9
642.114	9075.23
642.307	8786.47
642.5	8874.53
642.694	8776.23
642.887	8759.84
643.08	8704.55
643.273	8559.14
643.467	8661.54
643.66	8528.42
643.853	8501.8
644.046	8553
644.239	8473.13
644.432	8454.7
644.626	8092.21
644.819	8206.89
645.012	8331.82
645.205	8321.58
645.398	8268.33
645.591	8213.04
645.784	7926.32
645.977	8010.29
646.17	8022.58
646.363	7895.6
646.556	7932.47
646.749	7961.14
646.942	7864.88
647.135	7813.68
647.328	7729.72
647.521	7842.35
647.714	7445.05
647.907	7465.53
648.099	7705.14
648.292	7830.07
648.485	7391.8
648.678	7436.86
648.871	7369.27
649.064	7373.37
649.256	7471.67
649.449	7430.71
649.642	7293.5
649.835	7316.03
650.027	7320.12
650.22	7100.99
650.413	7088.7
650.605	7242.3
650.798	7053.89
650.991	6978.11
651.183	7105.09
651.376	6871.62
651.568	7039.55
651.761	6853.19
651.954	6797.89
652.146	6699.59
652.339	6785.6
652.531	6652.49
652.724	6754.88
652.916	6638.15
653.109	6652.49
653.301	6439.5
653.494	6537.8
653.686	6339.15
653.879	6625.86
654.071	6433.35
654.263	6380.11
654.456	6507.08
654.648	6404.68
654.84	6216.27
655.033	6068.81
655.225	6240.84
655.417	6197.84
655.61	6187.6
655.802	6179.4
655.994	6048.33
656.186	6060.62
656.379	6068.81
656.571	6259.28
656.763	5802.58
656.955	5868.11
657.148	5997.14
657.34	5921.36
657.532	5724.76
657.724	5896.78
657.916	5925.46
658.108	5751.38
658.3	5835.35
658.492	5782.1
658.684	5880.4
658.876	5579.35
659.068	5675.6
659.26	5708.37
659.452	5562.97
659.644	5624.4
659.836	5601.88
660.028	5485.14
660.22	5462.62
660.412	5392.98
660.604	5366.36
660.796	5399.13
660.988	5343.83
661.18	5319.26
661.372	5235.29
661.563	5360.22
661.755	5161.56
661.947	5108.32
662.139	5149.28
662.331	5198.43
662.522	5098.08
662.714	5233.24
662.906	5077.6
663.097	5083.74
663.289	5081.69
663.481	4973.15
663.673	5065.31
663.864	5010.01
664.056	4987.49
664.247	4799.07
664.439	4721.25
664.631	4754.02
664.822	4766.31
665.014	4768.35
665.205	4840.03
665.397	4598.37
665.588	4696.67
665.78	4657.76
665.971	4794.98
666.163	4727.39
666.354	4547.17
666.546	4649.57
666.737	4528.74
666.929	4520.55
667.12	4510.31
667.311	4557.41
667.503	4303.46
667.694	4438.63
667.885	4307.56
668.077	4426.34
668.268	4313.7
668.459	4504.17
668.651	4311.66
668.842	4340.33
669.033	4192.87
669.224	4219.5
669.416	4151.92
669.607	4164.2
669.798	4205.16
669.989	4309.61
670.18	4160.11
670.371	4156.01
670.563	4127.34
670.754	4094.57
670.945	3981.93
671.136	4061.8
671.327	4053.61
671.518	4020.85
671.709	3996.27
671.9	3979.89
672.091	3885.68
672.282	3897.97
672.473	3840.62
672.664	4039.28
672.855	3816.05
673.046	3934.83
673.237	3891.82
673.428	3940.97
673.619	3809.9
673.809	3648.11
674	3818.1
674.191	3783.28
674.382	3742.32
674.573	3801.71
674.764	3760.75
674.954	3607.16
675.145	3570.29
675.336	3644.02
675.527	3672.69
675.717	3603.06
675.908	3611.25
676.099	3629.68
676.289	3701.36
676.48	3668.59
676.671	3465.85
676.861	3570.29
677.052	3578.48
677.243	3402.36
677.433	3570.29
677.624	3617.4
677.814	3476.09
678.005	3471.99
678.195	3480.18
678.386	3390.07
678.576	3428.98
678.767	3488.37
678.957	3406.45
679.148	3428.98
679.338	3349.11
679.529	3361.4
679.719	3361.4
679.909	3314.3
680.1	3240.57
680.29	3347.06
680.481	3277.43
680.671	3340.92
680.861	3365.5
681.052	3275.38
681.242	3097.21
681.432	3242.62
681.622	3242.62
681.813	3146.36
682.003	3218.04
682.193	3164.79
682.383	3115.64
682.573	3037.82
682.764	3111.55
682.954	3109.5
683.144	2974.33
683.334	3113.6
683.524	3064.44
683.714	2957.95
683.904	3017.34
684.094	3029.63
684.284	3037.82
684.474	3013.24
684.664	3035.77
684.854	2894.46
685.044	2996.86
685.234	2955.9
685.424	2824.83
685.614	3015.29
685.804	3062.4
685.994	2820.74
686.184	2998.91
686.374	2816.64
686.564	2904.7
686.753	2857.6
686.943	2816.64
687.133	2859.65
687.323	2732.67
687.513	2783.87
687.702	2835.07
687.892	2783.87
688.082	2818.69
688.272	2660.99
688.461	2671.23
688.651	2833.02
688.841	2630.27
689.03	2611.84
689.22	2792.06
689.41	2720.39
689.599	2726.53
689.789	2636.42
689.979	2753.15
690.168	2587.27
690.358	2595.46
690.547	2652.8
690.737	2538.12
690.926	2544.26
691.116	2646.66
691.305	2738.82
691.495	2628.23
691.684	2546.31
691.874	2562.69
692.063	2536.07
692.252	2515.59
692.442	2548.36
692.631	2554.5
692.82	2441.86
693.01	2534.02
693.199	2439.81
693.388	2488.96
693.578	2427.53
693.767	2542.21
693.956	2454.15
694.146	2460.29
694.335	2323.08
694.524	2431.62
694.713	2499.2
694.902	2353.8
695.092	2501.25
695.281	2323.08
695.47	2407.05
695.659	2353.8
695.848	2456.2
696.037	2337.41
696.226	2196.11
696.415	2341.51
696.604	2407.05
696.793	2341.51
696.982	2275.98
697.171	2370.18
697.36	2345.61
697.549	2294.41
697.738	2273.93
697.927	2263.69
698.116	2247.3
698.305	2222.73
698.494	2259.59
698.683	2302.6
698.872	2284.17
699.061	2103.95
699.25	2251.4
699.438	2329.22
699.627	2288.26
699.816	2366.09
700.005	2288.26
700.193	2259.59
700.382	2308.74
700.571	2210.44
700.76	2251.4
700.948	2245.26
701.137	2237.06
701.326	2269.83
701.514	2214.54
701.703	2253.45
701.892	2177.67
702.08	2253.45
702.269	2130.57
702.457	2194.06
702.646	2144.91
702.834	2271.88
703.023	2224.78
703.212	2321.03
703.4	2245.26
703.589	2189.96
703.777	2112.14
703.965	2210.44
704.154	2249.35
704.342	2101.9
704.531	2120.33
704.719	2224.78
704.907	2124.43
705.096	2114.19
705.284	2249.35
705.472	2235.02
705.661	2132.62
705.849	2091.66
706.037	2073.23
706.226	2189.96
706.414	2226.82
706.602	2108.04
706.79	2251.4
706.979	2189.96
707.167	2144.91
707.355	2058.89
707.543	2116.23
707.731	2169.48
707.919	2054.8
708.107	2134.67
708.296	2204.3
708.484	2144.91
708.672	2144.91
708.86	2155.15
709.048	2069.13
709.236	2149
709.424	2149
709.612	2071.18
709.8	2202.25
709.988	2237.06
710.176	2128.52
710.364	2192.01
710.551	2114.19
710.739	2118.28
710.927	2194.06
711.115	2165.39
711.303	2235.02
711.491	2024.08
711.679	2062.99
711.866	2198.15
712.054	2005.64
712.242	2140.81
712.43	2083.47
712.617	2040.46
712.805	2151.05
712.993	2097.8
713.181	2062.99
713.368	2112.14
713.556	2122.38
713.744	1987.21
713.931	2185.87
714.119	2116.23
714.306	2097.8
714.494	2085.51
714.682	2155.15
714.869	2128.52
715.057	2081.42
715.244	1991.31
715.432	2122.38
715.619	2028.17
715.807	2095.75
715.994	2056.84
716.182	2095.75
716.369	2079.37
716.556	2089.61
716.744	2005.64
716.931	2073.23
717.119	2015.88
717.306	1976.97
717.493	1985.16
717.681	2163.34
717.868	2044.56
718.055	2134.67
718.242	2028.17
718.43	2105.99
718.617	2030.22
718.804	2032.27
718.991	2130.57
719.179	2058.89
719.366	2046.6
719.553	2013.84
719.74	1997.45
719.927	2005.64
720.114	2011.79
720.301	2032.27
720.488	1976.97
720.676	2001.55
720.863	2038.41
721.05	2022.03
721.237	2026.12
721.424	2065.04
721.611	2101.9
721.798	1985.16
721.985	2044.56
722.172	2007.69
722.358	2050.7
722.545	2048.65
722.732	2087.56
722.919	1964.68
723.106	2046.6
723.293	2032.27
723.48	1954.44
723.667	1958.54
723.853	1981.07
724.04	2005.64
724.227	2071.18
724.414	2050.7
724.6	1970.83
724.787	1985.16
724.974	1983.12
725.161	1972.88
725.347	1997.45
725.534	2087.56
725.72	1989.26
725.907	1972.88
726.094	1948.3
726.28	1981.07
726.467	1981.07
726.653	1909.39
726.84	2007.69
727.027	1933.97
727.213	1952.4
727.4	1995.4
727.586	2022.03
727.773	1884.81
727.959	1856.14
728.145	1985.16
728.332	1860.24
728.518	1913.49
728.705	1952.4
728.891	1960.59
729.077	1940.11
729.264	1770.13
729.45	1983.12
729.636	1991.31
729.823	1911.44
730.009	2054.8
730.195	1866.38
730.382	2017.93
730.568	1890.96
730.754	1948.3
730.94	1890.96
731.126	1948.3
731.313	2022.03
731.499	2030.22
731.685	2007.69
731.871	1858.19
732.057	1989.26
732.243	1893.01
732.429	2005.64
732.615	1903.25
732.801	1901.2
732.987	1839.76
733.173	1858.19
733.359	1886.86
733.545	1901.2
733.731	1899.15
733.917	1950.35
734.103	1874.57
734.289	1878.67
734.475	1899.15
734.661	1899.15
734.847	1919.63
735.033	1972.88
735.219	1997.45
735.404	1884.81
735.59	1845.9
735.776	1788.56
735.962	1915.53
736.148	1909.39
736.333	1874.57
736.519	1813.13
736.705	1968.78
736.89	1858.19
737.076	1878.67
737.262	1768.08
737.447	1917.58
737.633	1878.67
737.819	1882.77
738.004	1833.61
738.19	1806.99
738.375	1843.85
738.561	1809.04
738.747	1839.76
738.932	1796.75
739.118	1751.7
739.303	1890.96
739.489	1700.5
739.674	1809.04
739.859	1753.74
740.045	1796.75
740.23	1784.46
740.416	1751.7
740.601	1792.66
740.786	1841.81
740.972	1786.51
741.157	1665.68
741.342	1653.39
741.528	1739.41
741.713	1763.98
741.898	1632.91
742.084	1690.26
742.269	1755.79
742.454	1702.54
742.639	1735.31
742.824	1686.16
743.01	1710.74
743.195	1753.74
743.38	1665.68
743.565	1747.6
743.75	1675.92
743.935	1583.76
744.12	1680.02
744.305	1604.24
744.49	1608.34
744.675	1589.91
744.86	1596.05
745.045	1680.02
745.23	1667.73
745.415	1583.76
745.6	1628.82
745.785	1530.52
745.97	1704.59
746.155	1497.75
746.34	1610.39
746.525	1497.75
746.71	1596.05
746.895	1571.47
747.079	1591.95
747.264	1559.19
747.449	1565.33
747.634	1512.08
747.819	1530.52
748.003	1442.45
748.188	1540.76
748.373	1483.41
748.557	1434.26
748.742	1409.69
748.927	1424.02
749.111	1448.6
749.296	1323.67
749.481	1448.6
749.665	1450.64
749.85	1399.45
750.034	1424.02
750.219	1376.92
750.404	1284.76
750.588	1352.34
750.773	1342.1
750.957	1411.73
751.141	1424.02
751.326	1264.28
751.51	1368.73
751.695	1292.95
751.879	1315.48
752.064	1276.57
752.248	1323.67
752.432	1333.91
752.617	1256.09
752.801	1301.14
752.985	1215.13
753.17	1231.51
753.354	1260.18
753.538	1297.05
753.722	1245.85
753.907	1192.6
754.091	1098.39
754.275	1182.36
754.459	1280.66
754.643	1172.12
754.828	1186.46
755.012	1141.4
755.196	1120.92
755.38	1155.74
755.564	1211.03
755.748	1198.74
755.932	1125.02
756.116	1149.59
756.3	1168.02
756.484	1104.54
756.668	1125.02
756.852	1073.82
757.036	1206.94
757.22	1024.67
757.404	1008.28
757.588	1034.91
757.772	1118.87
757.956	1122.97
758.14	1045.15
758.323	957.08
758.507	1049.24
758.691	993.95
758.875	1112.73
759.059	1047.19
759.242	1008.28
759.426	944.8
759.61	1047.19
759.794	975.52
759.977	1053.34
760.161	1114.78
760.345	1008.28
760.528	1055.39
760.712	928.41
760.895	1055.39
761.079	926.36
761.263	877.21
761.446	934.56
761.63	873.12
761.813	998.04
761.997	961.18
762.18	957.08
762.364	979.61
762.547	858.78
762.731	848.54
762.914	850.59
763.098	930.46
763.281	891.55
763.464	821.92
763.648	858.78
763.831	893.6
764.015	860.83
764.198	844.45
764.381	895.64
764.564	883.36
764.748	811.68
764.931	834.21
765.114	729.76
765.297	891.55
765.481	762.53
765.664	893.6
765.847	852.64
766.03	834.21
766.213	752.29
766.397	817.82
766.58	879.26
766.763	844.45
766.946	803.49
767.129	805.53
767.312	799.39
767.495	877.21
767.678	735.9
767.861	823.97
768.044	740
768.227	789.15
768.41	805.53
768.593	774.81
768.776	770.72
768.959	748.19
769.142	801.44
769.324	752.29
769.507	785.05
769.69	780.96
769.873	744.1
770.056	803.49
770.239	762.53
770.421	850.59
770.604	756.38
770.787	819.87
770.97	748.19
771.152	676.51
771.335	711.33
771.518	686.75
771.7	690.85
771.883	639.65
772.066	746.14
772.248	731.81
772.431	735.9
772.613	725.66
772.796	729.76
772.978	735.9
773.161	713.38
773.343	682.66
773.526	713.38
773.708	727.71
773.891	664.22
774.073	690.85
774.256	627.36
774.438	768.67
774.621	703.14
774.803	727.71
774.985	696.99
775.168	674.46
775.35	576.16
775.532	631.46
775.715	643.74
775.897	613.03
776.079	602.79
776.261	633.5
776.444	660.13
776.626	576.16
776.808	631.46
776.99	600.74
777.173	553.63
777.355	621.22
777.537	623.27
777.719	649.89
777.901	598.69
778.083	653.98
778.265	492.2
778.447	682.66
778.629	559.78
778.811	694.94
778.993	516.77
779.175	615.07
779.357	637.6
779.539	590.5
779.721	551.59
779.903	481.96
780.085	576.16
780.267	559.78
780.449	549.54
780.631	535.2
780.812	498.34
780.994	516.77
781.176	527.01
781.358	557.73
781.54	473.76
781.721	588.45
781.903	508.58
782.085	443.04
782.267	475.81
782.448	473.76
782.63	463.52
782.812	492.2
782.993	584.35
783.175	490.15
783.357	441
783.538	473.76
783.72	416.42
783.901	506.53
784.083	469.67
784.264	486.05
784.446	375.46
784.627	465.57
784.809	436.9
784.99	383.65
785.172	461.48
785.353	397.99
785.535	408.23
785.716	400.04
785.897	441
786.079	375.46
786.26	424.61
786.441	412.32
786.623	379.56
786.804	438.95
786.985	453.28
787.167	414.37
787.348	377.51
787.529	369.32
787.71	459.43
787.891	363.17
788.073	326.31
788.254	256.68
788.435	383.65
788.616	432.8
788.797	365.22
788.978	342.69
789.159	336.55
789.34	383.65
789.522	344.74
789.703	359.08
789.884	410.28
790.065	377.51
790.246	244.39
790.427	383.65
790.607	379.56
790.788	361.13
790.969	262.82
791.15	385.7
791.331	309.93
791.512	381.6
791.693	295.59
791.874	297.64
792.054	393.89
792.235	326.31
792.416	244.39
792.597	209.58
792.778	264.87
792.958	293.54
793.139	342.69
793.32	352.93
793.5	236.2
793.681	338.6
793.862	283.3
794.042	268.97
794.223	277.16
794.404	279.21
794.584	209.58
794.765	150.18
794.945	252.58
795.126	334.5
795.306	234.15
795.487	309.93
795.667	326.31
795.848	301.73
796.028	295.59
796.209	252.58
796.389	264.87
796.57	240.29
796.75	236.2
796.93	238.25
797.111	277.16
797.291	246.44
797.471	219.82
797.652	240.29
797.832	256.68
798.012	301.73
798.192	264.87
798.373	178.86
798.553	240.29
798.733	219.82
798.913	205.48
799.093	162.47
799.274	246.44
799.454	246.44
799.634	305.83
799.814	213.67
799.994	244.39
800.174	271.01
800.354	195.24
800.534	182.95
800.714	103.08
800.894	146.09
801.074	273.06
801.254	252.58
801.434	209.58
801.614	162.47
801.794	105.13
801.974	793.25
802.154	215.72
802.334	240.29
802.514	131.75
802.693	242.34
802.873	172.71
803.053	230.06
803.233	301.73
803.413	252.58
803.592	176.81
803.772	252.58
803.952	189.1
804.131	174.76
804.311	228.01
804.491	172.71
804.67	207.53
804.85	240.29
805.03	213.67
805.209	262.82
805.389	158.38
805.568	170.66
805.748	176.81
805.928	178.86
806.107	236.2
806.287	199.34
806.466	213.67
806.646	203.43
806.825	109.22
807.004	98.99
807.184	160.42
807.363	252.58
807.543	197.29
807.722	121.51
807.901	211.62
808.081	182.95
808.26	84.65
808.439	211.62
808.619	205.48
808.798	162.47
808.977	96.94
809.156	172.71
809.336	205.48
809.515	135.85
809.694	109.22
809.873	133.8
810.052	221.86
810.231	148.14
810.411	146.09
810.59	187.05
810.769	117.42
810.948	164.52
811.127	88.75
811.306	166.57
811.485	178.86
811.664	244.39
811.843	125.61
812.022	139.94
812.201	84.65
812.38	199.34
812.559	121.51
812.737	199.34
812.916	141.99
813.095	146.09
813.274	94.89
813.453	113.32
813.632	92.84
813.811	144.04
813.989	80.55
814.168	238.25
814.347	92.84
814.526	53.93
814.704	207.53
814.883	148.14
815.062	64.17
815.24	92.84
815.419	96.94
815.598	154.28
815.776	105.13
815.955	49.83
816.133	84.65
816.312	221.86
816.49	37.55
816.669	221.86
816.847	113.32
817.026	180.9
817.204	-11.61
817.383	80.55
817.561	129.7
817.74	137.9
817.918	135.85
818.097	105.13
818.275	74.41
818.453	146.09
818.632	172.71
818.81	121.51
818.988	49.83
819.167	74.41
819.345	96.94
819.523	90.79
819.701	150.18
819.879	123.56
820.058	119.46
820.236	96.94
820.414	148.14
820.592	121.51
820.77	66.22
820.948	131.75
821.127	74.41
821.305	146.09
821.483	43.69
821.661	113.32
821.839	66.22
822.017	39.59
822.195	152.23
822.373	109.22
822.551	174.76
822.729	162.47
822.907	107.18
823.085	133.8
823.262	115.37
823.44	31.4
823.618	35.5
823.796	146.09
823.974	74.41
824.152	17.07
824.329	88.75
824.507	119.46
824.685	64.17
824.863	80.55
825.04	133.8
825.218	31.4
825.396	-1.37
825.574	107.18
825.751	146.09
825.929	117.42
826.107	31.4
826.284	96.94
826.462	6.83
826.639	49.83
826.817	23.21
826.994	156.33
827.172	45.74
827.349	76.46
827.527	107.18
827.704	123.56
827.882	137.9
828.059	80.55
828.237	2.73
828.414	55.98
828.591	19.11
828.769	121.51
828.946	88.75
829.124	117.42
829.301	72.36
829.478	129.7
829.655	21.16
829.833	88.75
830.01	107.18
830.187	82.6
830.364	39.59
830.542	113.32
830.719	141.99
830.896	115.37
831.073	35.5
831.25	76.46
831.427	70.31
831.604	156.33
831.782	19.11
831.959	64.17
832.136	47.79
832.313	96.94
832.49	31.4
832.667	113.32
832.844	4.78
833.021	58.03
833.198	17.07
833.374	98.99
833.551	-9.56
833.728	105.13
833.905	109.22
834.082	33.45
834.259	72.36
834.436	64.17
834.612	-56.66
834.789	74.41
834.966	78.51
835.143	121.51
835.319	-25.94
835.496	31.4
835.673	53.93
835.85	90.79
836.026	82.6
836.203	64.17
836.38	31.4
836.556	53.93
836.733	29.35
836.909	-11.61
837.086	62.12
837.262	51.88
837.439	33.45
837.616	10.92
837.792	62.12
837.968	141.99
838.145	115.37
838.321	113.32
838.498	23.21
838.674	139.94
838.851	-7.51
839.027	55.98
839.203	-1.37
839.38	39.59
839.556	25.26
839.732	39.59
839.909	39.59
840.085	35.5
840.261	74.41
840.437	-1.37
840.614	49.83
840.79	58.03
840.966	39.59
841.142	10.92
841.318	74.41
841.494	31.4
841.671	2.73
841.847	51.88
842.023	55.98
842.199	88.75
842.375	64.17
842.551	41.64
842.727	-23.89
842.903	47.79
843.079	-7.51
843.255	105.13
843.431	58.03
843.607	58.03
843.783	21.16
843.959	31.4
844.134	51.88
844.31	68.27
844.486	-36.18
844.662	-13.65
844.838	66.22
845.013	49.83
845.189	107.18
845.365	84.65
845.541	33.45
845.716	55.98
845.892	23.21
846.068	92.84
846.244	8.87
846.419	72.36
846.595	-25.94
846.77	-1.37
846.946	6.83
847.122	41.64
847.297	72.36
847.473	131.75
847.648	-9.56
847.824	105.13
847.999	6.83
848.175	84.65
848.35	47.79
848.526	74.41
848.701	72.36
848.876	66.22
849.052	25.26
849.227	25.26
849.403	10.92
849.578	-38.23
849.753	60.07
849.929	2.73
850.104	49.83
850.279	66.22
850.454	64.17
850.63	113.32
850.805	64.17
850.98	60.07
851.155	-1.37
851.33	49.83
851.505	-21.85
851.681	137.9
851.856	39.59
852.031	68.27
852.206	72.36
852.381	17.07
852.556	70.31
852.731	64.17
852.906	15.02
853.081	35.5
853.256	66.22
853.431	-15.7
853.606	80.55
853.781	-1.37
853.956	-38.23
854.131	-13.65
854.305	-1.37
854.48	-9.56
854.655	45.74
854.83	66.22
855.005	0.68
855.18	90.79
855.354	4.78
855.529	17.07
855.704	15.02
855.879	90.79
856.053	19.11
856.228	6.83
856.403	74.41
856.577	72.36
856.752	60.07
856.926	27.31
857.101	-5.46
857.276	6.83
857.45	35.5
857.625	10.92
857.799	60.07
857.974	-9.56
858.148	47.79
858.323	39.59
858.497	27.31
858.672	-40.28
858.846	-30.04
859.02	55.98
859.195	15.02
859.369	80.55
859.543	15.02
859.718	21.16
859.892	55.98
860.066	74.41
860.241	-77.14
860.415	-60.76
860.589	-1.37
860.763	49.83
860.938	55.98
861.112	60.07
861.286	8.87
861.46	17.07
861.634	21.16
861.808	74.41
861.982	2.73
862.157	-34.13
862.331	31.4
862.505	82.6
862.679	39.59
862.853	39.59
863.027	-7.51
863.201	33.45
863.375	15.02
863.549	15.02
863.722	90.79
863.896	45.74
864.07	55.98
864.244	33.45
864.418	12.97
864.592	41.64
864.766	8.87
864.939	23.21
865.113	15.02
865.287	19.11
865.461	60.07
865.634	-46.42
865.808	-17.75
865.982	-46.42
866.156	6.83
866.329	-21.85
866.503	6.83
866.676	53.93
866.85	137.9
867.024	-5.46
867.197	-27.99
867.371	98.99
867.544	55.98
867.718	-42.32
867.891	74.41
868.065	12.97
868.238	8.87
868.412	82.6
868.585	2.73
868.759	-52.56
868.932	25.26
869.105	-1.37
869.279	47.79
869.452	55.98
869.625	47.79
869.799	68.27
869.972	-5.46
870.145	6.83
870.319	31.4
870.492	-19.8
870.665	39.59
870.838	-9.56
871.011	39.59
871.185	-25.94
871.358	-17.75
871.531	70.31
871.704	15.02
871.877	58.03
872.05	33.45
872.223	15.02
872.396	88.75
872.569	15.02
872.742	10.92
872.915	19.11
873.088	-38.23
873.261	-32.08
873.434	35.5
873.607	2.73
873.78	-25.94
873.953	-7.51
874.126	51.88
874.299	2.73
874.471	31.4
874.644	6.83
874.817	-17.75
874.99	101.03
875.163	-25.94
875.335	27.31
875.508	58.03
875.681	47.79
875.853	-1.37
876.026	51.88
876.199	-13.65
876.371	15.02
876.544	-17.75
876.717	35.5
876.889	25.26
877.062	2.73
877.234	-30.04
877.407	-9.56
877.579	15.02
877.752	23.21
877.924	27.31
878.097	31.4
878.269	-54.61
878.442	72.36
878.614	98.99
878.786	39.59
878.959	15.02
879.131	88.75
879.303	-9.56
879.476	6.83
879.648	27.31
879.82	0.68
879.993	0.68
880.165	19.11
880.337	-17.75
880.509	72.36
880.681	-13.65
880.854	-50.52
881.026	31.4
881.198	62.12
881.37	0.68
881.542	115.37
881.714	2.73
881.886	-9.56
882.058	6.83
882.23	17.07
882.402	-34.13
882.574	96.94
882.746	31.4
882.918	-15.7
883.09	43.69
883.262	-1.37
883.434	-25.94
883.606	-9.56
883.778	-42.32
883.95	55.98
884.122	-5.46
884.293	-13.65
884.465	6.83
884.637	35.5
884.809	0.68
884.98	-17.75
885.152	27.31
885.324	58.03
885.496	17.07
885.667	-7.51
885.839	80.55
886.011	45.74
886.182	8.87
886.354	58.03
886.525	-56.66
886.697	31.4
886.869	-7.51
887.04	-71
887.212	19.11
887.383	76.46
887.555	-9.56
887.726	15.02
887.897	-15.7
888.069	68.27
888.24	55.98
888.412	90.79
888.583	23.21
888.754	-48.47
888.926	6.83
889.097	-83.28
889.268	72.36
889.44	45.74
889.611	43.69
889.782	58.03
889.953	-25.94
890.125	41.64
890.296	39.59
890.467	35.5
890.638	60.07
890.809	-17.75
890.98	-9.56
891.151	2.73
891.323	17.07
891.494	-17.75
891.665	35.5
891.836	-40.28
892.007	8.87
892.178	23.21
892.349	-27.99
892.52	-23.89
892.691	39.59
892.862	29.35
893.032	8.87
893.203	-9.56
893.374	4.78
893.545	17.07
893.716	53.93
893.887	15.02
894.057	-21.85
894.228	-64.85
894.399	-38.23
894.57	39.59
894.74	-48.47
894.911	82.6
895.082	74.41
895.253	0.68
895.423	8.87
895.594	39.59
895.764	29.35
895.935	-5.46
896.106	-21.85
896.276	8.87
896.447	25.26
896.617	80.55
896.788	-13.65
896.958	43.69
897.129	88.75
897.299	19.11
897.47	23.21
897.64	58.03
897.81	80.55
897.981	-42.32
898.151	-75.09
898.322	33.45
898.492	15.02
898.662	-7.51
898.832	-42.32
899.003	6.83
899.173	-52.56
899.343	-21.85
899.513	-62.8
