Data from USB4F104151__76__14-43-24-723.txt Node

Date: Thu Mar 13 14:43:24 EDT 2025
User: louis
Spectrometer: USB4F10415
Trigger mode: 4
Integration Time (sec): 2.000000E-2
Scans to average: 1
Electric dark correction enabled: true
Nonlinearity correction enabled: false
Boxcar width: 0
XAxis mode: Wavelengths
Number of Pixels in Spectrum: 3648
>>>>>Begin Spectral Data<<<<<
178.204	-74.41
178.424	-74.41
178.644	-74.41
178.864	-170.66
179.084	-160.42
179.304	13.65
179.524	15.7
179.744	-66.22
179.964	60.76
180.184	-107.18
180.404	-72.36
180.624	11.61
180.844	-0.68
181.064	38.23
181.283	13.65
181.503	11.61
181.723	81.24
181.943	-6.83
182.163	42.32
182.383	-70.31
182.602	23.89
182.822	15.7
183.042	-10.92
183.262	-15.02
183.482	9.56
183.701	32.08
183.921	66.9
184.141	-23.21
184.361	71
184.58	-66.22
184.8	-43.69
185.02	9.56
185.239	21.85
185.459	32.08
185.679	48.47
185.898	-60.07
186.118	62.8
186.338	-31.4
186.557	21.85
186.777	-68.27
186.997	32.08
187.216	-37.55
187.436	77.14
187.655	5.46
187.875	27.99
188.095	17.75
188.314	83.28
188.534	30.04
188.753	17.75
188.973	23.89
189.192	-8.87
189.412	79.19
189.631	-2.73
189.851	62.8
190.07	38.23
190.29	-51.88
190.509	13.65
190.729	-19.11
190.948	13.65
191.168	134.48
191.387	66.9
191.607	25.94
191.826	5.46
192.045	7.51
192.265	-41.64
192.484	-43.69
192.704	-27.31
192.923	-27.31
193.142	111.96
193.362	30.04
193.581	62.8
193.8	21.85
194.02	60.76
194.239	13.65
194.458	95.57
194.678	27.99
194.897	132.44
195.116	62.8
195.335	32.08
195.555	105.81
195.774	77.14
195.993	40.28
196.212	7.51
196.432	-19.11
196.651	-43.69
196.87	-2.73
197.089	87.38
197.308	40.28
197.528	9.56
197.747	7.51
197.966	-31.4
198.185	109.91
198.404	54.61
198.623	32.08
198.842	87.38
199.062	128.34
199.281	95.57
199.5	5.46
199.719	38.23
199.938	66.9
200.157	5.46
200.376	71
200.595	-43.69
200.814	3.41
201.033	54.61
201.252	15.7
201.471	-6.83
201.69	5.46
201.909	32.08
202.128	114
202.347	23.89
202.566	36.18
202.785	5.46
203.004	-43.69
203.223	107.86
203.442	7.51
203.661	-60.07
203.879	40.28
204.098	56.66
204.317	-27.31
204.536	32.08
204.755	-2.73
204.974	79.19
205.193	-0.68
205.411	68.95
205.63	-12.97
205.849	-6.83
206.068	21.85
206.287	-10.92
206.505	79.19
206.724	103.76
206.943	5.46
207.162	58.71
207.381	-19.11
207.599	-84.65
207.818	21.85
208.037	23.89
208.255	13.65
208.474	73.04
208.693	62.8
208.911	46.42
209.13	46.42
209.349	15.7
209.567	60.76
209.786	50.52
210.005	38.23
210.223	38.23
210.442	5.46
210.661	-8.87
210.879	40.28
211.098	5.46
211.316	-17.07
211.535	15.7
211.753	75.09
211.972	-0.68
212.191	-10.92
212.409	-72.36
212.628	21.85
212.846	30.04
213.065	5.46
213.283	130.39
213.502	21.85
213.72	-27.31
213.938	40.28
214.157	17.75
214.375	-19.11
214.594	66.9
214.812	91.48
215.031	-19.11
215.249	23.89
215.467	-6.83
215.686	23.89
215.904	54.61
216.122	5.46
216.341	54.61
216.559	-55.98
216.778	34.13
216.996	71
217.214	-10.92
217.432	13.65
217.651	-84.65
217.869	66.9
218.087	50.52
218.306	40.28
218.524	-35.5
218.742	21.85
218.96	-33.45
219.179	-10.92
219.397	-15.02
219.615	111.96
219.833	-0.68
220.051	-0.68
220.27	85.33
220.488	75.09
220.706	54.61
220.924	-19.11
221.142	-8.87
221.36	-6.83
221.578	34.13
221.796	30.04
222.015	40.28
222.233	68.95
222.451	34.13
222.669	-43.69
222.887	87.38
223.105	21.85
223.323	-31.4
223.541	38.23
223.759	91.48
223.977	-23.21
224.195	36.18
224.413	5.46
224.631	13.65
224.849	54.61
225.067	148.82
225.285	48.47
225.503	5.46
225.721	11.61
225.939	9.56
226.157	46.42
226.375	81.24
226.592	105.81
226.81	-53.93
227.028	9.56
227.246	103.76
227.464	40.28
227.682	13.65
227.9	52.56
228.117	73.04
228.335	21.85
228.553	11.61
228.771	95.57
228.989	3.41
229.206	21.85
229.424	9.56
229.642	-15.02
229.86	62.8
230.077	25.94
230.295	23.89
230.513	50.52
230.731	71
230.948	54.61
231.166	97.62
231.384	-47.79
231.601	5.46
231.819	42.32
232.037	27.99
232.254	-10.92
232.472	81.24
232.689	11.61
232.907	144.72
233.125	-33.45
233.342	-0.68
233.56	-6.83
233.777	46.42
233.995	-6.83
234.213	-12.97
234.43	71
234.648	17.75
234.865	-23.21
235.083	42.32
235.3	-4.78
235.518	79.19
235.735	38.23
235.953	56.66
236.17	-19.11
236.388	66.9
236.605	30.04
236.822	54.61
237.04	3.41
237.257	68.95
237.475	-25.26
237.692	1.37
237.909	11.61
238.127	11.61
238.344	58.71
238.562	58.71
238.779	17.75
238.996	-17.07
239.214	17.75
239.431	23.89
239.648	-0.68
239.865	38.23
240.083	-27.31
240.3	32.08
240.517	38.23
240.735	-8.87
240.952	-31.4
241.169	54.61
241.386	-2.73
241.603	5.46
241.821	34.13
242.038	52.56
242.255	-19.11
242.472	-17.07
242.689	66.9
242.907	40.28
243.124	-27.31
243.341	19.8
243.558	-10.92
243.775	60.76
243.992	21.85
244.209	17.75
244.426	107.86
244.643	93.52
244.86	-6.83
245.078	-10.92
245.295	17.75
245.512	23.89
245.729	-21.16
245.946	40.28
246.163	79.19
246.38	44.37
246.597	-2.73
246.814	30.04
247.031	23.89
247.248	38.23
247.464	30.04
247.681	23.89
247.898	32.08
248.115	58.71
248.332	-15.02
248.549	107.86
248.766	13.65
248.983	116.05
249.2	-2.73
249.417	25.94
249.633	34.13
249.85	13.65
250.067	62.8
250.284	87.38
250.501	17.75
250.717	75.09
250.934	1.37
251.151	13.65
251.368	-2.73
251.585	38.23
251.801	38.23
252.018	21.85
252.235	21.85
252.451	25.94
252.668	62.8
252.885	40.28
253.102	7.51
253.318	-23.21
253.535	-10.92
253.752	-12.97
253.968	42.32
254.185	-35.5
254.401	-8.87
254.618	15.7
254.835	-43.69
255.051	71
255.268	42.32
255.484	93.52
255.701	40.28
255.917	64.85
256.134	-39.59
256.351	13.65
256.567	34.13
256.784	124.24
257	48.47
257.217	5.46
257.433	-2.73
257.65	-35.5
257.866	34.13
258.082	3.41
258.299	1.37
258.515	68.95
258.732	34.13
258.948	5.46
259.165	-4.78
259.381	30.04
259.597	66.9
259.814	23.89
260.03	15.7
260.246	62.8
260.463	40.28
260.679	50.52
260.895	30.04
261.112	66.9
261.328	-6.83
261.544	3.41
261.761	46.42
261.977	83.28
262.193	-55.98
262.409	23.89
262.626	109.91
262.842	50.52
263.058	87.38
263.274	-10.92
263.49	34.13
263.707	-2.73
263.923	19.8
264.139	-10.92
264.355	27.99
264.571	73.04
264.787	75.09
265.004	-0.68
265.22	54.61
265.436	30.04
265.652	-47.79
265.868	30.04
266.084	-19.11
266.3	19.8
266.516	-6.83
266.732	15.7
266.948	-0.68
267.164	-0.68
267.38	25.94
267.596	60.76
267.812	42.32
268.028	75.09
268.244	32.08
268.46	27.99
268.676	36.18
268.892	32.08
269.108	54.61
269.324	-4.78
269.54	-0.68
269.756	89.43
269.972	68.95
270.188	54.61
270.403	38.23
270.619	81.24
270.835	91.48
271.051	46.42
271.267	-17.07
271.483	17.75
271.698	85.33
271.914	46.42
272.13	-8.87
272.346	25.94
272.562	-10.92
272.777	11.61
272.993	-8.87
273.209	62.8
273.425	5.46
273.64	-17.07
273.856	7.51
274.072	1.37
274.287	54.61
274.503	-17.07
274.719	99.67
274.934	83.28
275.15	-98.99
275.366	-17.07
275.581	-8.87
275.797	64.85
276.012	83.28
276.228	15.7
276.444	81.24
276.659	54.61
276.875	-49.83
277.09	-2.73
277.306	58.71
277.521	30.04
277.737	5.46
277.952	38.23
278.168	9.56
278.383	-10.92
278.599	42.32
278.814	105.81
279.03	-29.35
279.245	3.41
279.461	64.85
279.676	-12.97
279.892	-37.55
280.107	-39.59
280.322	-92.84
280.538	-10.92
280.753	23.89
280.969	9.56
281.184	48.47
281.399	101.72
281.615	60.76
281.83	95.57
282.045	9.56
282.26	-12.97
282.476	1.37
282.691	17.75
282.906	95.57
283.122	71
283.337	9.56
283.552	46.42
283.767	54.61
283.983	21.85
284.198	-27.31
284.413	7.51
284.628	-33.45
284.843	32.08
285.058	-0.68
285.274	21.85
285.489	-10.92
285.704	13.65
285.919	-55.98
286.134	3.41
286.349	50.52
286.564	38.23
286.779	128.34
286.995	-25.26
287.21	46.42
287.425	25.94
287.64	-0.68
287.855	17.75
288.07	68.95
288.285	71
288.5	87.38
288.715	42.32
288.93	1.37
289.145	13.65
289.36	60.76
289.575	38.23
289.79	116.05
290.004	128.34
290.219	15.7
290.434	62.8
290.649	21.85
290.864	-43.69
291.079	-41.64
291.294	89.43
291.509	32.08
291.724	13.65
291.938	5.46
292.153	62.8
292.368	-17.07
292.583	-17.07
292.798	13.65
293.012	62.8
293.227	77.14
293.442	48.47
293.657	21.85
293.871	71
294.086	44.37
294.301	46.42
294.516	54.61
294.73	99.67
294.945	38.23
295.16	-62.12
295.374	-19.11
295.589	34.13
295.804	-68.27
296.018	54.61
296.233	58.71
296.447	30.04
296.662	54.61
296.877	46.42
297.091	19.8
297.306	-8.87
297.52	5.46
297.735	5.46
297.949	25.94
298.164	-10.92
298.378	17.75
298.593	-35.5
298.807	32.08
299.022	-23.21
299.236	120.15
299.451	21.85
299.665	-17.07
299.88	120.15
300.094	-43.69
300.309	46.42
300.523	19.8
300.737	54.61
300.952	34.13
301.166	-15.02
301.381	-101.03
301.595	54.61
301.809	11.61
302.024	13.65
302.238	19.8
302.452	87.38
302.667	71
302.881	62.8
303.095	64.85
303.309	23.89
303.524	25.94
303.738	-33.45
303.952	-8.87
304.166	17.75
304.381	-0.68
304.595	32.08
304.809	66.9
305.023	48.47
305.237	40.28
305.452	7.51
305.666	5.46
305.88	-0.68
306.094	-31.4
306.308	9.56
306.522	30.04
306.736	19.8
306.95	5.46
307.164	54.61
307.379	-2.73
307.593	30.04
307.807	56.66
308.021	60.76
308.235	34.13
308.449	7.51
308.663	-43.69
308.877	32.08
309.091	32.08
309.305	1.37
309.519	-10.92
309.733	64.85
309.947	1.37
310.161	62.8
310.374	25.94
310.588	48.47
310.802	-98.99
311.016	17.75
311.23	64.85
311.444	34.13
311.658	-12.97
311.872	68.95
312.085	30.04
312.299	62.8
312.513	5.46
312.727	60.76
312.941	5.46
313.154	-2.73
313.368	25.94
313.582	1.37
313.796	-39.59
314.009	71
314.223	25.94
314.437	54.61
314.651	56.66
314.864	32.08
315.078	7.51
315.292	77.14
315.505	-10.92
315.719	42.32
315.933	38.23
316.146	79.19
316.36	-17.07
316.573	75.09
316.787	7.51
317.001	36.18
317.214	-39.59
317.428	34.13
317.641	21.85
317.855	34.13
318.068	54.61
318.282	-82.6
318.495	52.56
318.709	152.92
318.922	87.38
319.136	103.76
319.349	66.9
319.563	38.23
319.776	30.04
319.99	50.52
320.203	5.46
320.417	17.75
320.63	75.09
320.843	54.61
321.057	40.28
321.27	56.66
321.483	64.85
321.697	107.86
321.91	62.8
322.124	30.04
322.337	-6.83
322.55	5.46
322.763	23.89
322.977	42.32
323.19	-37.55
323.403	81.24
323.617	-25.26
323.83	66.9
324.043	-10.92
324.256	-15.02
324.469	-15.02
324.683	17.75
324.896	27.99
325.109	120.15
325.322	-6.83
325.535	34.13
325.748	46.42
325.962	71
326.175	32.08
326.388	32.08
326.601	-2.73
326.814	25.94
327.027	7.51
327.24	15.7
327.453	-55.98
327.666	30.04
327.879	56.66
328.092	30.04
328.305	56.66
328.518	7.51
328.731	81.24
328.944	75.09
329.157	-6.83
329.37	54.61
329.583	21.85
329.796	85.33
330.009	-43.69
330.222	48.47
330.435	142.68
330.648	54.61
330.861	-47.79
331.073	-2.73
331.286	5.46
331.499	27.99
331.712	25.94
331.925	30.04
332.138	-21.16
332.35	89.43
332.563	66.9
332.776	114
332.989	13.65
333.202	91.48
333.414	13.65
333.627	21.85
333.84	13.65
334.053	116.05
334.265	46.42
334.478	46.42
334.691	71
334.903	-72.36
335.116	-49.83
335.329	30.04
335.541	159.06
335.754	34.13
335.966	62.8
336.179	81.24
336.392	7.51
336.604	68.95
336.817	83.28
337.029	38.23
337.242	83.28
337.454	-17.07
337.667	120.15
337.88	52.56
338.092	36.18
338.305	36.18
338.517	-10.92
338.729	13.65
338.942	103.76
339.154	-49.83
339.367	-0.68
339.579	89.43
339.792	-4.78
340.004	38.23
340.217	46.42
340.429	75.09
340.641	23.89
340.854	-27.31
341.066	-25.26
341.278	34.13
341.491	42.32
341.703	9.56
341.915	13.65
342.128	25.94
342.34	46.42
342.552	13.65
342.764	66.9
342.977	17.75
343.189	91.48
343.401	46.42
343.613	32.08
343.826	107.86
344.038	30.04
344.25	7.51
344.462	-68.27
344.674	73.04
344.886	1.37
345.099	-4.78
345.311	50.52
345.523	1.37
345.735	58.71
345.947	9.56
346.159	54.61
346.371	71
346.583	44.37
346.795	62.8
347.007	46.42
347.219	-10.92
347.431	77.14
347.643	38.23
347.855	13.65
348.067	122.2
348.279	-8.87
348.491	34.13
348.703	30.04
348.915	9.56
349.127	87.38
349.339	13.65
349.551	30.04
349.763	87.38
349.975	5.46
350.187	97.62
350.399	71
350.61	7.51
350.822	54.61
351.034	73.04
351.246	34.13
351.458	38.23
351.669	21.85
351.881	71
352.093	21.85
352.305	54.61
352.517	30.04
352.728	62.8
352.94	-41.64
353.152	42.32
353.363	54.61
353.575	91.48
353.787	71
353.999	23.89
354.21	48.47
354.422	71
354.633	-19.11
354.845	38.23
355.057	3.41
355.268	-19.11
355.48	30.04
355.692	30.04
355.903	-8.87
356.115	21.85
356.326	-27.31
356.538	30.04
356.749	25.94
356.961	83.28
357.172	38.23
357.384	25.94
357.595	81.24
357.807	71
358.018	120.15
358.23	50.52
358.441	25.94
358.653	111.96
358.864	68.95
359.075	15.7
359.287	71
359.498	52.56
359.709	-23.21
359.921	-33.45
360.132	9.56
360.344	97.62
360.555	62.8
360.766	1.37
360.977	13.65
361.189	66.9
361.4	-33.45
361.611	42.32
361.823	-15.02
362.034	60.76
362.245	68.95
362.456	15.7
362.667	52.56
362.879	-19.11
363.09	79.19
363.301	62.8
363.512	21.85
363.723	50.52
363.935	19.8
364.146	95.57
364.357	-10.92
364.568	58.71
364.779	-23.21
364.99	56.66
365.201	52.56
365.412	87.38
365.623	15.7
365.834	111.96
366.045	116.05
366.256	54.61
366.467	64.85
366.678	-23.21
366.889	32.08
367.1	25.94
367.311	19.8
367.522	13.65
367.733	44.37
367.944	40.28
368.155	68.95
368.366	167.25
368.577	97.62
368.788	62.8
368.999	-49.83
369.209	-2.73
369.42	120.15
369.631	64.85
369.842	87.38
370.053	-6.83
370.264	58.71
370.474	1.37
370.685	54.61
370.896	30.04
371.107	9.56
371.317	-0.68
371.528	54.61
371.739	7.51
371.95	144.72
372.16	111.96
372.371	7.51
372.582	32.08
372.792	122.2
373.003	19.8
373.214	7.51
373.424	44.37
373.635	34.13
373.846	128.34
374.056	13.65
374.267	120.15
374.477	79.19
374.688	68.95
374.898	54.61
375.109	146.77
375.319	46.42
375.53	25.94
375.74	83.28
375.951	42.32
376.161	54.61
376.372	83.28
376.582	46.42
376.793	13.65
377.003	-29.35
377.214	34.13
377.424	32.08
377.635	46.42
377.845	42.32
378.055	97.62
378.266	32.08
378.476	-2.73
378.686	58.71
378.897	32.08
379.107	30.04
379.317	42.32
379.528	19.8
379.738	38.23
379.948	38.23
380.158	34.13
380.369	-2.73
380.579	30.04
380.789	30.04
380.999	103.76
381.21	56.66
381.42	48.47
381.63	50.52
381.84	38.23
382.05	7.51
382.261	95.57
382.471	95.57
382.681	58.71
382.891	54.61
383.101	101.72
383.311	-0.68
383.521	30.04
383.731	66.9
383.941	46.42
384.151	15.7
384.361	-39.59
384.571	-27.31
384.781	116.05
384.991	91.48
385.201	128.34
385.411	93.52
385.621	62.8
385.831	25.94
386.041	54.61
386.251	89.43
386.461	75.09
386.671	66.9
386.881	48.47
387.091	30.04
387.301	-8.87
387.511	66.9
387.72	103.76
387.93	15.7
388.14	79.19
388.35	64.85
388.56	97.62
388.769	83.28
388.979	66.9
389.189	7.51
389.399	40.28
389.609	23.89
389.818	62.8
390.028	13.65
390.238	107.86
390.447	91.48
390.657	48.47
390.867	44.37
391.076	-10.92
391.286	89.43
391.496	46.42
391.705	30.04
391.915	91.48
392.125	87.38
392.334	38.23
392.544	38.23
392.753	87.38
392.963	-2.73
393.172	34.13
393.382	34.13
393.591	103.76
393.801	-25.26
394.01	132.44
394.22	103.76
394.429	71
394.639	66.9
394.848	95.57
395.058	38.23
395.267	105.81
395.477	89.43
395.686	81.24
395.895	146.77
396.105	87.38
396.314	136.53
396.524	30.04
396.733	32.08
396.942	54.61
397.152	146.77
397.361	62.8
397.57	54.61
397.78	13.65
397.989	103.76
398.198	114
398.407	99.67
398.617	105.81
398.826	56.66
399.035	87.38
399.244	68.95
399.453	136.53
399.663	91.48
399.872	138.58
400.081	13.65
400.29	40.28
400.499	157.01
400.708	210.26
400.917	95.57
401.127	75.09
401.336	87.38
401.545	161.11
401.754	193.87
401.963	130.39
402.172	50.52
402.381	161.11
402.59	122.2
402.799	111.96
403.008	206.16
403.217	99.67
403.426	97.62
403.635	103.76
403.844	58.71
404.053	103.76
404.262	34.13
404.471	169.3
404.68	185.68
404.888	148.82
405.097	177.49
405.306	171.35
405.515	107.86
405.724	228.69
405.933	218.45
406.142	157.01
406.35	169.3
406.559	159.06
406.768	173.39
406.977	157.01
407.185	165.2
407.394	283.99
407.603	222.55
407.812	179.54
408.02	226.64
408.229	251.22
408.438	247.12
408.646	171.35
408.855	222.55
409.064	249.17
409.272	277.84
409.481	324.94
409.69	245.07
409.898	259.41
410.107	255.31
410.315	392.53
410.524	302.42
410.733	359.76
410.941	269.65
411.15	308.56
411.358	335.18
411.567	376.14
411.775	341.33
411.984	398.67
412.192	456.01
412.401	400.72
412.609	396.62
412.818	456.01
413.026	392.53
413.234	478.54
413.443	492.88
413.651	451.92
413.86	570.7
414.068	611.66
414.276	669
414.485	556.36
414.693	556.36
414.901	611.66
415.11	628.04
415.318	662.86
415.526	662.86
415.734	785.74
415.943	673.1
416.151	767.31
416.359	677.2
416.567	763.21
416.776	843.08
416.984	892.23
417.192	879.94
417.4	927.05
417.608	877.9
417.817	947.53
418.025	963.91
418.233	1168.71
418.441	1039.69
418.649	1226.05
418.857	1187.14
419.065	1181
419.273	1181
419.481	1207.62
419.689	1285.44
419.897	1297.73
420.105	1359.17
420.313	1326.4
420.521	1547.58
420.729	1473.85
420.937	1496.38
421.145	1594.68
421.353	1684.8
421.561	1684.8
421.769	1824.06
421.977	1887.54
422.185	1924.41
422.393	2020.66
422.601	2159.92
422.809	2121.01
423.017	1969.46
423.224	2145.59
423.432	2209.08
423.64	2331.95
423.848	2522.41
424.056	2397.49
424.263	2594.09
424.471	2661.68
424.679	2745.64
424.887	2755.88
425.094	2706.73
425.302	2909.48
425.51	3028.26
425.718	3085.61
425.925	3071.27
426.133	3323.17
426.341	3482.91
426.548	3564.83
426.756	3519.78
426.964	3659.04
427.171	3853.59
427.379	3994.9
427.586	3888.41
427.794	4035.86
428.001	4248.85
428.209	4371.73
428.417	4371.73
428.624	4529.42
428.832	4828.43
429.039	4711.69
429.247	4627.73
429.454	5037.32
429.662	5596.42
429.869	5115.14
430.076	5453.06
430.284	5448.96
430.491	5539.07
430.699	6067.45
430.906	5913.85
431.114	5887.23
431.321	6274.29
431.528	6249.72
431.736	6552.82
431.943	7034.09
432.15	6692.08
432.358	6782.19
432.565	7036.14
432.772	7050.47
432.979	7564.51
433.187	7746.78
433.394	7699.68
433.601	8142.04
433.808	8344.79
434.016	8037.59
434.223	8426.71
434.43	8957.13
434.637	8965.32
434.844	9485.51
435.052	9659.59
435.259	9532.61
435.466	9688.26
435.673	9473.22
435.88	10179.77
436.087	10640.56
436.294	10839.22
436.501	10400.95
436.708	10808.5
436.915	10935.47
437.122	11402.41
437.329	11549.86
437.537	11971.74
437.743	12090.52
437.95	11816.1
438.157	12551.32
438.364	12969.1
438.571	12973.2
438.778	12905.62
438.985	14161.02
439.192	13427.85
439.399	14019.71
439.606	13800.58
439.813	14484.6
440.02	15201.39
440.227	15176.81
440.433	14883.95
440.64	15619.17
440.847	15291.5
441.054	15553.64
441.261	16585.82
441.467	16741.46
441.674	16888.92
441.881	17378.38
442.088	17470.54
442.294	17175.63
442.501	17757.25
442.708	18015.3
442.914	18908.21
443.121	19600.43
443.328	18936.88
443.534	20124.71
443.741	19774.5
443.948	19364.91
444.154	20966.42
444.361	20657.18
444.568	20958.23
444.774	20880.41
444.981	20821.02
445.187	21734.41
445.394	22748.15
445.6	22756.35
445.807	24706.01
446.013	23340.02
446.22	24245.22
446.426	25097.17
446.633	25199.57
446.839	26225.61
447.046	25017.3
447.252	26297.28
447.459	26700.73
447.665	26391.49
447.871	27417.52
448.078	28398.5
448.284	26960.83
448.491	27816.88
448.697	28771.23
448.903	29371.29
449.11	29375.38
449.316	29006.75
449.522	30088.07
449.728	30428.04
449.935	30567.3
450.141	30827.39
450.347	31665.01
450.553	30636.93
450.76	30888.83
450.966	31683.44
451.172	31409.01
451.378	32588.64
451.584	31748.98
451.791	32619.36
451.997	32453.48
452.203	33000.29
452.409	33133.4
452.615	32801.63
452.821	31867.76
453.027	31382.39
453.233	33092.44
453.44	31556.47
453.646	32064.36
453.852	32340.84
454.058	32787.3
454.264	31845.23
454.47	32584.55
454.676	31581.04
454.882	32879.46
455.088	30012.3
455.294	30540.68
455.5	30724.99
455.705	31255.42
455.911	29926.28
456.117	29375.38
456.323	29152.15
456.529	27532.21
456.735	28814.24
456.941	28042.15
457.147	27382.71
457.352	26733.5
457.558	26518.46
457.764	26387.39
457.97	26057.67
458.176	25261.01
458.381	25566.16
458.587	24159.2
458.793	24247.27
458.999	23090.17
459.204	24777.69
459.41	23933.93
459.616	22555.65
459.821	22631.42
460.027	22488.06
460.233	21986.31
460.438	20861.97
460.644	21081.11
460.85	20364.32
461.055	19887.14
461.261	19794.98
461.466	18461.76
461.672	17689.67
461.878	18848.82
462.083	17957.96
462.289	17640.52
462.494	17429.58
462.7	16503.9
462.905	16180.32
463.111	16753.75
463.316	16757.85
463.522	16376.92
463.727	16399.45
463.932	16178.27
464.138	16266.33
464.343	16256.09
464.549	15701.09
464.754	16139.36
464.959	16284.76
465.165	15946.85
465.37	15252.59
465.575	14898.29
465.781	15475.82
465.986	15467.63
466.191	14963.83
466.397	14603.38
466.602	13956.22
466.807	14439.54
467.012	14513.27
467.218	14490.74
467.423	14341.24
467.628	14539.9
467.833	15070.32
468.038	14357.63
468.244	14042.24
468.449	14716.02
468.654	14177.4
468.859	14013.57
469.064	13833.35
469.269	13395.08
469.474	13558.92
469.679	13857.92
469.885	13339.79
470.09	13515.91
470.295	13509.77
470.5	13272.2
470.705	13055.12
470.91	13026.45
471.115	12711.06
471.32	12737.68
471.525	13034.64
471.73	12631.19
471.935	12530.84
472.139	12170.4
472.344	12057.76
472.549	12156.06
472.754	12039.33
472.959	11871.39
473.164	11484.33
473.369	11379.88
473.574	11918.5
473.778	11451.56
473.983	11633.83
474.188	11779.23
474.393	11027.63
474.598	11138.22
474.802	10894.51
475.007	10925.23
475.212	10958
475.417	10548.4
475.621	10597.56
475.826	10613.94
476.031	10265.78
476.235	10296.5
476.44	10316.98
476.645	10028.22
476.849	10226.87
477.054	9831.62
477.259	9862.33
477.463	9952.45
477.668	9581.76
477.872	9780.42
478.077	9626.82
478.282	9266.38
478.486	9204.94
478.691	9544.9
478.895	9256.14
479.1	9100.49
479.304	9295.05
479.509	8797.39
479.713	9278.66
479.918	8860.88
480.122	8697.04
480.326	8709.33
480.531	8893.65
480.735	8639.7
480.94	8541.4
481.144	8725.71
481.348	8514.77
481.553	8594.64
481.757	8242.39
481.961	8328.41
482.166	8561.87
482.37	8559.83
482.574	8375.51
482.778	8434.9
482.983	8520.92
483.187	8453.33
483.391	8361.17
483.595	8377.56
483.8	8420.56
484.004	8516.82
484.208	8568.02
484.412	8295.64
484.616	8420.56
484.821	8619.22
485.025	8207.58
485.229	8482
485.433	8381.65
485.637	8328.41
485.841	8434.9
486.045	8236.25
486.249	8686.8
486.453	8379.61
486.657	8309.97
486.861	8447.19
487.065	8010.97
487.269	8289.49
487.473	8326.36
487.677	8412.37
487.881	8508.63
488.085	8332.5
488.289	8408.28
488.493	8406.23
488.697	8516.82
488.901	8201.43
489.105	8410.33
489.309	8443.09
489.512	8502.48
489.716	8475.86
489.92	8332.5
490.124	8463.57
490.328	8570.07
490.531	8651.99
490.735	8557.78
490.939	8797.39
491.143	8803.53
491.346	8707.28
491.55	8805.58
491.754	8731.86
491.958	8830.16
492.161	8811.73
492.365	8756.43
492.569	8735.95
492.772	8778.96
492.976	9016.52
493.18	9063.63
493.383	9254.09
493.587	9084.11
493.79	9260.23
493.994	8912.08
494.197	9286.86
494.401	9350.34
494.605	9336.01
494.808	9424.07
495.012	9428.17
495.215	9503.94
495.419	9800.9
495.622	9510.08
495.825	9743.55
496.029	9786.56
496.232	9966.78
496.436	9938.11
496.639	10149.05
496.843	10079.42
497.046	10345.66
497.249	10347.7
497.453	10214.59
497.656	10384.57
497.859	10556.6
498.063	10585.27
498.266	10831.02
498.469	10640.56
498.673	11039.92
498.876	11257
499.079	11281.58
499.282	11187.37
499.485	11447.46
499.689	11566.24
499.892	11762.85
500.095	11773.09
500.298	12197.02
500.501	11662.5
500.705	12006.56
500.908	12379.29
501.111	12465.3
501.314	12465.3
501.517	12569.75
501.72	12993.68
501.923	12764.31
502.126	13108.37
502.329	13241.48
502.532	13335.69
502.735	13196.43
502.938	13939.84
503.141	13665.41
503.344	13874.31
503.547	14296.19
503.75	14335.1
503.953	14435.45
504.156	14627.96
504.359	14681.21
504.562	14881.91
504.765	15185.01
504.968	15397.99
505.17	15451.24
505.373	15787.11
505.576	15758.44
505.779	15860.84
505.982	15864.93
506.185	16106.59
506.387	16292.96
506.59	16235.61
506.793	16641.11
506.996	16659.54
507.198	17384.52
507.401	17028.18
507.604	17269.84
507.807	17589.32
508.009	17435.72
508.212	17792.07
508.415	18025.54
508.617	18299.97
508.82	18248.77
509.022	18035.78
509.225	18805.81
509.428	18879.54
509.63	19139.63
509.833	19223.6
510.035	19899.43
510.238	19364.91
510.44	19993.64
510.643	20202.53
510.845	20540.44
511.048	20218.91
511.25	20505.63
511.453	20952.09
511.655	21298.19
511.858	21312.53
512.06	21410.83
512.262	21562.38
512.465	21410.83
512.667	21865.48
512.87	22252.55
513.072	22359.04
513.274	22447.1
513.477	23079.93
513.679	22911.99
513.881	23194.61
514.084	23417.84
514.286	23319.54
514.488	23423.98
514.69	24323.04
514.893	24320.99
515.095	24482.78
515.297	24775.64
515.499	24906.71
515.701	24882.14
515.904	25414.61
516.106	25551.82
516.308	25689.04
516.51	25990.09
516.712	26031.05
516.914	26461.12
517.116	26614.72
517.318	26829.76
517.52	27032.5
517.722	27083.7
517.925	27229.11
518.127	27812.78
518.329	27929.52
518.531	27976.62
518.733	28353.44
518.935	28935.07
519.136	28939.16
519.338	28990.36
519.54	28953.5
519.742	29504.4
519.944	29428.63
520.146	30012.3
520.348	30208.9
520.55	30264.2
520.752	30339.97
520.954	30708.61
521.155	30761.86
521.357	31202.17
521.559	31169.4
521.761	31544.18
521.963	32017.26
522.164	31851.38
522.366	32148.33
522.568	32277.35
522.77	32627.56
522.971	32908.13
523.173	32828.26
523.375	33205.08
523.576	33057.63
523.778	33006.43
523.98	33534.81
524.181	33880.91
524.383	33792.85
524.584	34444.1
524.786	34319.18
524.988	34296.65
525.189	34628.42
525.391	34863.94
525.592	35152.7
525.794	34995.01
525.995	34970.43
526.197	35121.98
526.398	35320.63
526.6	35541.82
526.801	35543.86
527.003	36002.61
527.204	35773.24
527.406	36033.33
527.607	36188.97
527.808	36426.54
528.01	35816.24
528.211	36111.15
528.412	37090.08
528.614	36473.64
528.815	36598.57
529.016	37061.41
529.218	36526.89
529.419	36817.7
529.62	37014.3
529.822	36961.06
530.023	36961.06
530.224	37233.44
530.425	37034.78
530.626	36840.23
530.828	36660.01
531.029	37618.46
531.23	37290.78
531.431	37188.38
531.632	37253.92
531.833	37466.91
532.035	37638.93
532.236	37710.61
532.437	37794.58
532.638	37200.67
532.839	37673.75
533.04	37999.38
533.241	37219.1
533.442	38062.86
533.643	38060.82
533.844	38204.17
534.045	37745.43
534.246	37862.16
534.447	37989.14
534.648	37577.5
534.849	37665.56
535.05	37700.37
535.251	38089.49
535.451	37614.36
535.652	37739.29
535.853	37968.66
536.054	37583.64
536.255	38030.1
536.456	37608.22
536.657	38427.4
536.857	37620.5
537.058	37565.21
537.259	38368.01
537.46	37980.95
537.66	37767.96
537.861	37620.5
538.062	37886.74
538.263	38183.69
538.463	37735.19
538.664	37770
538.865	37741.33
539.065	37858.07
539.266	37434.14
539.466	37993.23
539.667	37835.54
539.868	38001.43
540.068	37700.37
540.269	37452.57
540.469	37905.17
540.67	37511.96
540.87	37462.81
541.071	37909.27
541.271	38275.85
541.472	37960.47
541.672	37124.89
541.873	37333.79
542.073	37337.88
542.274	37794.58
542.474	37630.74
542.675	37497.63
542.875	37417.75
543.075	37565.21
543.276	37462.81
543.476	37858.07
543.676	37423.9
543.877	37649.17
544.077	37634.84
544.277	37557.02
544.478	37528.34
544.678	37770
544.878	37491.48
545.078	37505.82
545.279	37399.32
545.479	37391.13
545.679	37380.89
545.879	37290.78
546.079	37329.69
546.28	37430.04
546.48	37098.27
546.68	37262.11
546.88	37251.87
547.08	37405.47
547.28	37493.53
547.48	36711.21
547.68	37153.57
547.88	37014.3
548.081	37452.57
548.281	37479.19
548.481	36975.39
548.681	37774.1
548.881	37049.12
549.081	37051.17
549.28	37010.21
549.48	37659.41
549.68	37178.14
549.88	37804.82
550.08	37118.75
550.28	37305.12
550.48	37128.99
550.68	37538.58
550.88	36905.76
551.08	37045.02
551.279	37296.92
551.479	36739.88
551.679	37419.8
551.879	36633.38
552.079	37401.37
552.278	37004.06
552.478	36727.59
552.678	36823.84
552.878	37063.46
553.077	36909.86
553.277	36758.31
553.477	37128.99
553.676	36823.84
553.876	36655.91
554.076	36891.43
554.275	36926.24
554.475	36424.49
554.674	36897.57
554.874	36680.49
555.074	36465.45
555.273	36498.22
555.473	36741.92
555.672	36225.84
555.872	36559.66
556.071	36586.28
556.271	36963.11
556.47	36197.17
556.67	36313.9
556.869	36471.59
557.068	36381.48
557.268	36059.95
557.467	36383.53
557.667	35875.63
557.866	36350.76
558.065	35992.37
558.265	35791.67
558.464	36023.09
558.663	36244.27
558.863	35763
559.062	36119.34
559.261	35423.03
559.461	36180.78
559.66	35517.24
559.859	36064.05
560.058	35377.98
560.258	35810.1
560.457	35537.72
560.656	35365.69
560.855	35408.7
561.054	35439.42
561.253	35459.9
561.453	35396.41
561.652	35328.83
561.851	35773.24
562.05	35406.65
562.249	35040.06
562.448	35810.1
562.647	35273.53
562.846	35238.72
563.045	35119.93
563.244	34786.11
563.443	35291.96
563.642	34335.56
563.841	35070.78
564.04	34597.7
564.239	34673.48
564.438	34706.24
564.637	34579.27
564.836	34646.85
565.035	34466.63
565.234	34579.27
565.432	34159.44
565.631	34239.31
565.83	34327.37
566.029	33885.01
566.228	33968.97
566.427	34397
566.625	33909.58
566.824	33842
567.023	34364.23
567.222	33373.02
567.42	33809.23
567.619	33555.29
567.818	33952.59
568.016	33203.03
568.215	33659.73
568.414	33297.24
568.612	33450.84
568.811	33166.17
569.01	33440.6
569.208	32990.05
569.407	33530.71
569.605	32772.96
569.804	33428.31
570.002	32670.56
570.201	32801.63
570.4	32668.51
570.598	33035.1
570.797	32385.9
570.995	32449.38
571.193	32424.81
571.392	32680.8
571.59	32332.65
571.789	32318.31
571.987	31931.25
572.186	32148.33
572.384	31728.5
572.582	31947.63
572.781	31683.44
572.979	31648.63
573.177	31755.12
573.376	32066.41
573.574	31433.59
573.772	31583.09
573.971	31447.93
574.169	31445.88
574.367	31388.53
574.565	31447.93
574.763	31517.56
574.962	31277.94
575.16	30856.06
575.358	31187.83
575.556	30552.96
575.754	31185.79
575.952	30438.28
576.151	30780.29
576.349	30528.39
576.547	30313.35
576.745	30305.16
576.943	30387.08
577.141	30262.15
577.339	30311.3
577.537	30053.26
577.735	30169.99
577.933	29649.81
578.131	30034.83
578.329	29807.5
578.527	29690.77
578.725	29602.71
578.923	29875.09
579.121	29469.59
579.319	29291.41
579.516	29658
579.714	29240.22
579.912	29391.76
580.11	29074.33
580.308	29260.69
580.506	28961.69
580.704	28756.89
580.901	28861.34
581.099	29086.62
581.297	28861.34
581.495	28648.35
581.692	28750.75
581.89	28603.3
582.088	28617.63
582.285	28330.92
582.483	28294.05
582.681	28472.23
582.878	28036.01
583.076	27863.98
583.274	28253.09
583.471	27927.47
583.669	28013.48
583.866	27644.85
584.064	27642.8
584.262	27904.94
584.459	27614.13
584.657	27382.71
584.854	27749.29
585.052	27235.25
585.249	27519.92
585.447	27497.39
585.644	27005.88
585.841	26936.25
586.039	27444.15
586.236	26938.3
586.434	26694.59
586.631	26782.65
586.828	26899.39
587.026	26575.81
587.223	26567.62
587.42	26512.32
587.618	26739.65
587.815	26227.65
588.012	26293.19
588.21	26285
588.407	26528.7
588.604	26250.18
588.801	25799.63
588.999	26170.31
589.196	25861.07
589.393	25740.24
589.59	25705.42
589.787	25801.68
589.984	25324.5
590.182	25097.17
590.379	25430.99
590.576	25379.79
590.773	25543.63
590.97	25109.46
591.167	25469.9
591.364	24951.77
591.561	25183.19
591.758	24779.74
591.955	24884.19
592.152	25082.84
592.349	24660.96
592.546	24968.15
592.743	25064.41
592.94	24611.81
593.137	24628.19
593.334	24757.21
593.531	23890.92
593.727	24671.2
593.924	24341.47
594.121	24126.44
594.318	24181.73
594.515	24044.52
594.712	24296.42
594.908	23895.02
595.105	23784.43
595.302	23589.87
595.499	23630.83
595.696	23577.58
595.892	23448.56
596.089	23725.04
596.286	23555.05
596.482	23370.74
596.679	23514.09
596.876	23122.93
597.072	22959.1
597.269	23026.68
597.466	22987.77
597.662	22989.81
597.859	22961.14
598.055	23079.93
598.252	22656
598.448	22520.83
598.645	22557.69
598.841	22367.23
599.038	22283.27
599.234	22518.78
599.431	22053.89
599.627	22281.22
599.824	22148.1
600.02	21978.12
600.217	22074.37
600.413	22150.15
600.609	21951.49
600.806	22154.24
601.002	21947.4
601.198	21519.37
601.395	21408.78
601.591	21732.36
601.787	21750.79
601.984	21462.03
602.18	21640.2
602.376	21492.75
602.572	21322.77
602.769	21302.29
602.965	21273.62
603.161	21171.22
603.357	21222.42
603.553	21308.43
603.75	20919.32
603.946	20866.07
604.142	21015.57
604.338	20722.71
604.534	21011.48
604.73	20513.82
604.926	20499.48
605.122	20505.63
605.318	20212.77
605.514	20321.31
605.71	20171.81
605.906	20300.83
606.102	20245.54
606.298	20173.86
606.494	19977.25
606.69	19956.77
606.886	19835.94
607.082	19911.72
607.278	20018.21
607.474	19643.43
607.67	19760.17
607.866	19827.75
608.062	19872.81
608.257	19862.57
608.453	19680.3
608.649	19516.46
608.845	19313.71
609.041	19651.63
609.236	19395.63
609.432	19321.9
609.628	19457.07
609.824	19475.5
610.019	19225.65
610.215	19215.41
610.411	19428.4
610.606	18963.51
610.802	19266.61
610.998	19156.02
611.193	18979.89
611.389	18951.22
611.584	19020.85
611.78	18793.53
611.976	18981.94
612.171	19053.62
612.367	18791.48
612.562	18814.01
612.758	18603.07
612.953	18256.96
613.149	18558.01
613.344	18560.06
613.539	18652.22
613.735	18619.45
613.93	18426.94
614.126	18371.65
614.321	18779.19
614.517	18392.12
614.712	18017.35
614.907	18170.94
615.103	18361.41
615.298	18332.73
615.493	18383.93
615.688	18052.16
615.884	18492.48
616.079	18017.35
616.274	18125.89
616.47	18273.34
616.665	18226.24
616.86	18203.71
617.055	17847.37
617.25	17753.16
617.445	17947.72
617.641	17593.42
617.836	17814.6
618.031	17247.31
618.226	17646.66
618.421	17546.31
618.616	17867.84
618.811	17265.74
619.006	17589.32
619.201	16938.07
619.396	17296.46
619.591	16833.62
619.786	17419.34
619.981	16952.4
620.176	17116.24
620.371	16780.37
620.566	16938.07
620.761	16925.78
620.956	16929.88
621.151	16487.51
621.346	16602.2
621.541	16622.68
621.735	16897.11
621.93	16082.02
622.125	16376.92
622.32	15928.42
622.515	15985.76
622.709	15940.71
622.904	15922.27
623.099	15957.09
623.294	15807.59
623.488	15807.59
623.683	15733.86
623.878	15598.7
624.072	15551.59
624.267	15467.63
624.462	15359.08
624.656	15170.67
624.851	15467.63
625.046	15127.66
625.24	15127.66
625.435	14955.63
625.629	15080.56
625.824	14726.26
626.018	14613.62
626.213	14120.06
626.407	14521.46
626.602	14341.24
626.796	14435.45
626.991	14406.78
627.185	13976.7
627.38	14251.13
627.574	14156.93
627.768	14064.77
627.963	13966.46
628.157	13679.75
628.352	13892.74
628.546	13927.55
628.74	13565.06
628.935	13470.86
629.129	13642.89
629.323	13360.27
629.517	13335.69
629.712	13309.07
629.906	13386.89
630.1	13071.5
630.294	12958.86
630.489	12731.54
630.683	12745.87
630.877	12795.03
631.071	12723.35
631.265	12883.09
631.459	12690.58
631.653	12405.91
631.848	12614.8
632.042	12338.33
632.236	12612.76
632.43	12311.71
632.624	12424.34
632.818	12154.01
633.012	12033.18
633.206	11992.22
633.4	12022.94
633.594	11910.3
633.788	11916.45
633.982	11779.23
634.176	11916.45
634.369	11588.77
634.563	11578.53
634.757	11707.55
634.951	11494.57
635.145	11437.22
635.339	11576.48
635.533	11244.71
635.726	11605.16
635.92	10874.03
636.114	11422.89
636.308	11185.32
636.501	11127.98
636.695	11080.88
636.889	10955.95
637.083	11015.34
637.276	10730.67
637.47	10794.16
637.664	10599.6
637.857	10828.98
638.051	10603.7
638.244	10550.45
638.438	10482.87
638.632	10417.33
638.825	10282.17
639.019	10433.72
639.212	10151.1
639.406	10171.58
639.599	10220.73
639.793	10177.72
639.986	9958.59
640.18	9934.01
640.373	10136.76
640.567	9714.88
640.76	9956.54
640.954	9669.83
641.147	9729.22
641.34	9542.85
641.534	9610.43
641.727	9458.88
641.92	9598.15
642.114	9442.5
642.307	9454.79
642.5	9450.69
642.694	9239.75
642.887	9057.48
643.08	9227.46
643.273	9094.35
643.467	9057.48
643.66	9116.87
643.853	8846.54
644.046	8918.22
644.239	8799.44
644.432	8852.69
644.626	9006.28
644.819	8889.55
645.012	8766.67
645.205	8576.21
645.398	8705.23
645.591	8459.48
645.784	8738
645.977	8418.52
646.17	8430.8
646.363	8516.82
646.556	8199.38
646.749	8238.3
646.942	8324.31
647.135	8148.19
647.328	8279.26
647.521	8180.95
647.714	8010.97
647.907	8312.02
648.099	7750.88
648.292	7955.68
648.485	7890.14
648.678	8039.64
648.871	7765.21
649.064	7818.46
649.256	7724.26
649.449	7658.72
649.642	7683.3
649.835	7509.22
650.027	7607.52
650.22	7621.86
650.413	7537.89
650.605	7406.82
650.798	7492.84
650.991	7404.77
651.183	7427.3
651.376	7285.99
651.568	7345.38
651.761	7218.41
651.954	7142.63
652.146	7197.93
652.339	7134.44
652.531	7017.71
652.724	6911.21
652.916	7060.71
653.109	7075.05
653.301	6976.75
653.494	6853.87
653.686	6780.14
653.879	6831.34
654.071	6808.81
654.263	6595.82
654.456	6690.03
654.648	6794.48
654.84	6743.28
655.033	6511.86
655.225	6567.15
655.417	6448.37
655.61	6503.67
655.802	6550.77
655.994	6366.45
656.186	6399.22
656.379	6399.22
656.571	6290.68
656.763	6268.15
656.955	6175.99
657.148	6272.25
657.34	6388.98
657.532	6249.72
657.724	6149.37
657.916	6272.25
658.108	6008.06
658.3	5930.23
658.492	6100.22
658.684	5928.19
658.876	5844.22
659.068	5946.62
659.26	5854.46
659.452	5803.26
659.644	5760.25
659.836	5756.16
660.028	5715.2
660.22	5690.62
660.412	5666.05
660.604	5567.74
660.796	5684.48
660.988	5588.22
661.18	5588.22
661.372	5588.22
661.563	5506.31
661.755	5412.1
661.947	5479.68
662.139	5446.91
662.331	5410.05
662.522	5387.52
662.714	5354.76
662.906	5301.51
663.097	5227.78
663.289	5250.31
663.481	5154.05
663.673	5174.53
663.864	5278.98
664.056	5215.49
664.247	5154.05
664.439	4973.83
664.631	5084.42
664.822	5018.89
665.014	4977.93
665.205	4914.44
665.397	5041.42
665.588	4893.96
665.78	4791.56
665.971	4756.75
666.163	4953.35
666.354	4812.04
666.546	4644.11
666.737	4709.65
666.929	4797.71
667.12	4713.74
667.311	4764.94
667.503	4592.91
667.694	4652.3
667.885	4627.73
668.077	4554
668.268	4513.04
668.459	4605.2
668.651	4517.14
668.842	4527.38
669.033	4504.85
669.224	4474.13
669.416	4510.99
669.607	4388.11
669.798	4289.81
669.989	4496.66
670.18	4359.44
670.371	4371.73
670.563	4379.92
670.754	4216.09
670.945	4306.2
671.136	4347.15
671.327	4252.95
671.518	4017.43
671.709	4183.32
671.9	4275.48
672.091	4203.8
672.282	4164.89
672.473	4125.97
672.664	4080.92
672.855	4218.13
673.046	4140.31
673.237	4087.06
673.428	4119.83
673.619	4130.07
673.809	3968.28
674	3982.62
674.191	4003.1
674.382	3945.75
674.573	3949.85
674.764	3863.83
674.954	3978.52
675.145	3888.41
675.336	3788.06
675.527	3847.45
675.717	3861.79
675.908	3882.27
676.099	3714.33
676.289	3775.77
676.48	3794.2
676.671	3691.81
676.861	3597.6
677.052	3685.66
677.243	3716.38
677.433	3718.43
677.624	3743
677.814	3634.46
678.005	3630.37
678.195	3726.62
678.386	3728.67
678.576	3562.78
678.767	3636.51
678.957	3544.35
679.148	3702.04
679.338	3530.02
679.529	3622.17
679.719	3421.47
679.909	3589.41
680.1	3464.48
680.29	3446.05
680.481	3413.28
680.671	3570.97
680.861	3372.32
681.052	3464.48
681.242	3423.52
681.432	3310.88
681.622	3458.34
681.813	3441.95
682.003	3317.03
682.193	3409.19
682.383	3388.71
682.573	3351.84
682.764	3290.4
682.954	3398.95
683.144	3251.49
683.334	3382.56
683.524	3206.44
683.714	3284.26
683.904	3171.62
684.094	3224.87
684.284	3235.11
684.474	3157.29
684.664	3388.71
684.854	3274.02
685.044	3190.05
685.234	3196.2
685.424	3175.72
685.614	3167.52
685.804	3200.29
685.994	3188
686.184	3106.09
686.374	3161.38
686.564	3040.55
686.753	3118.37
686.943	2999.59
687.133	3085.61
687.323	2979.11
687.513	3013.93
687.702	2954.54
687.892	2932.01
688.082	2954.54
688.272	2987.3
688.461	3009.83
688.651	3081.51
688.841	3058.98
689.03	2845.99
689.22	2915.62
689.41	2790.7
689.599	2856.23
689.789	2905.39
689.979	2897.19
690.168	2782.51
690.358	2923.82
690.547	2872.62
690.737	2854.19
690.926	2745.64
691.116	2782.51
691.305	2794.79
691.495	2739.5
691.684	2725.16
691.874	2659.63
692.063	2827.56
692.252	2768.17
692.442	2696.49
692.631	2702.64
692.82	2686.25
693.01	2620.72
693.199	2637.1
693.388	2626.86
693.578	2649.39
693.767	2651.44
693.956	2649.39
694.146	2659.63
694.335	2585.9
694.524	2483.5
694.713	2669.87
694.902	2553.13
695.092	2450.74
695.281	2516.27
695.47	2489.65
695.659	2522.41
695.848	2456.88
696.037	2510.13
696.226	2614.57
696.415	2415.92
696.604	2626.86
696.793	2413.87
696.982	2440.5
697.171	2350.39
697.36	2401.58
697.549	2325.81
697.738	2407.73
697.927	2479.41
698.116	2368.82
698.305	2303.28
698.494	2436.4
698.683	2450.74
698.872	2383.15
699.061	2213.17
699.25	2368.82
699.438	2290.99
699.627	2270.51
699.816	2395.44
700.005	2258.23
700.193	2245.94
700.382	2278.71
700.571	2397.49
700.76	2323.76
700.948	2282.8
701.137	2331.95
701.326	2297.14
701.514	2340.15
701.703	2250.03
701.892	2221.36
702.08	2331.95
702.269	2235.7
702.457	2219.32
702.646	2348.34
702.834	2317.62
703.023	2264.37
703.212	2293.04
703.4	2315.57
703.589	2450.74
703.777	2209.08
703.965	2192.69
704.154	2264.37
704.342	2229.56
704.531	2262.32
704.719	2129.2
704.907	2258.23
705.096	2219.32
705.284	2299.19
705.472	2235.7
705.661	2213.17
705.849	2250.03
706.037	2229.56
706.226	2192.69
706.414	2342.19
706.602	2080.05
706.79	2274.61
706.979	2217.27
707.167	2143.54
707.355	2231.6
707.543	2065.72
707.731	2157.88
707.919	2219.32
708.107	2164.02
708.296	2176.31
708.484	2096.44
708.672	2198.84
708.86	2121.01
709.048	2284.85
709.236	2151.73
709.424	2243.89
709.612	2157.88
709.8	2088.25
709.988	2209.08
710.176	2198.84
710.364	2196.79
710.551	2143.54
710.739	2159.92
710.927	2088.25
711.115	2151.73
711.303	2145.59
711.491	2172.21
711.679	2061.62
711.866	2211.12
712.054	2141.49
712.242	2161.97
712.43	2241.84
712.617	2188.6
712.805	2145.59
712.993	2155.83
713.181	2065.72
713.368	2131.25
713.556	2116.92
713.744	2055.48
713.931	2223.41
714.119	2184.5
714.306	2114.87
714.494	2164.02
714.682	2114.87
714.869	2086.2
715.057	2180.4
715.244	2067.77
715.432	2202.93
715.619	2063.67
715.807	2086.2
715.994	2020.66
716.182	2006.33
716.369	2090.29
716.556	2082.1
716.744	2094.39
716.931	2092.34
717.119	2053.43
717.306	2088.25
717.493	2004.28
717.681	2102.58
717.868	2135.35
718.055	2151.73
718.242	2102.58
718.43	2028.85
718.617	2094.39
718.804	2063.67
718.991	2041.14
719.179	2151.73
719.366	2020.66
719.553	2145.59
719.74	1905.98
719.927	2078.01
720.114	2102.58
720.301	2024.76
720.488	2039.09
720.676	2037.05
720.863	2069.81
721.05	2135.35
721.237	2127.16
721.424	2082.1
721.611	2227.51
721.798	2186.55
721.985	2039.09
722.172	1967.42
722.358	2041.14
722.545	2155.83
722.732	1963.32
722.919	2145.59
723.106	2057.53
723.293	1981.75
723.48	2016.57
723.667	1967.42
723.853	1965.37
724.04	2141.49
724.227	2006.33
724.414	2075.96
724.6	2202.93
724.787	2135.35
724.974	2139.44
725.161	2143.54
725.347	2030.9
725.534	2061.62
725.72	2049.33
725.907	2053.43
726.094	2139.44
726.28	2102.58
726.467	2080.05
726.653	2073.91
726.84	2086.2
727.027	2069.81
727.213	1996.09
727.4	2069.81
727.586	2022.71
727.773	1918.26
727.959	2026.81
728.145	2028.85
728.332	2143.54
728.518	2057.53
728.705	2104.63
728.891	2057.53
729.077	2014.52
729.264	1957.18
729.45	2012.47
729.636	2049.33
729.823	2061.62
730.009	2014.52
730.195	1989.94
730.382	2000.18
730.568	2037.05
730.754	1957.18
730.94	2067.77
731.126	2090.29
731.313	2112.82
731.499	2012.47
731.685	2073.91
731.871	2080.05
732.057	2028.85
732.243	2118.97
732.429	2032.95
732.615	2004.28
732.801	2104.63
732.987	1987.89
733.173	1985.85
733.359	1926.46
733.545	2045.24
733.731	1996.09
733.917	2143.54
734.103	1955.13
734.289	2010.42
734.475	2104.63
734.661	2055.48
734.847	2047.29
735.033	2030.9
735.219	2063.67
735.404	2045.24
735.59	1983.8
735.776	1963.32
735.962	2088.25
736.148	2055.48
736.333	2121.01
736.519	1922.36
736.705	1977.66
736.89	1946.94
737.076	2112.82
737.262	1934.65
737.447	1905.98
737.633	2014.52
737.819	1948.98
738.004	1916.22
738.19	2020.66
738.375	2051.38
738.561	1926.46
738.747	1936.7
738.932	1901.88
739.118	1926.46
739.303	1994.04
739.489	1922.36
739.674	1946.94
739.859	1891.64
740.045	2020.66
740.23	1910.07
740.416	1897.78
740.601	1815.87
740.786	2024.76
740.972	1824.06
741.157	1875.26
741.342	1817.91
741.528	1918.26
741.713	1809.72
741.898	1828.15
742.084	1772.86
742.269	1951.03
742.454	1836.35
742.639	1983.8
742.824	1834.3
743.01	1914.17
743.195	1858.87
743.38	1744.19
743.565	1869.11
743.75	1758.52
743.935	1809.72
744.12	1875.26
744.305	1822.01
744.49	1840.44
744.675	1791.29
744.86	1735.99
745.045	1787.19
745.23	1684.8
745.415	1766.71
745.6	1740.09
745.785	1791.29
745.97	1776.95
746.155	1703.23
746.34	1754.43
746.525	1690.94
746.71	1799.48
746.895	1570.11
747.079	1643.84
747.264	1588.54
747.449	1604.92
747.634	1668.41
747.819	1668.41
748.003	1572.16
748.188	1744.19
748.373	1627.45
748.557	1602.88
748.742	1684.8
748.927	1537.34
749.111	1436.99
749.296	1566.01
749.481	1656.12
749.665	1428.8
749.85	1422.66
750.034	1600.83
750.219	1553.73
750.404	1418.56
750.588	1389.89
750.773	1541.44
750.957	1500.48
751.141	1518.91
751.326	1461.57
751.51	1393.98
751.695	1424.7
751.879	1484.09
752.064	1471.81
752.248	1318.21
752.432	1449.28
752.617	1346.88
752.801	1400.13
752.985	1277.25
753.17	1312.07
753.354	1342.78
753.538	1424.7
753.722	1320.26
753.907	1248.58
754.091	1316.16
754.275	1439.04
754.459	1242.43
754.643	1344.83
754.828	1322.31
755.012	1324.35
755.196	1250.63
755.38	1260.87
755.564	1213.76
755.748	1277.25
755.932	1316.16
756.116	1271.11
756.3	1154.37
756.484	1209.67
756.668	1197.38
756.852	1070.41
757.036	1267.01
757.22	1176.9
757.404	1219.91
757.588	1119.56
757.772	1135.94
757.956	1283.39
758.14	1176.9
758.323	1201.47
758.507	1111.36
758.691	1058.12
758.875	1152.32
759.059	1164.61
759.242	1137.99
759.426	1168.71
759.61	1113.41
759.794	1070.41
759.977	1125.7
760.161	1090.88
760.345	1129.8
760.528	1211.71
760.712	1004.87
760.895	1041.73
761.079	1070.41
761.263	988.49
761.446	1015.11
761.63	1031.49
761.813	1076.55
761.997	1058.12
762.18	925
762.364	892.23
762.547	914.76
762.731	1025.35
762.914	1000.77
763.098	957.77
763.281	1008.97
763.464	925
763.648	1035.59
763.831	1008.97
764.015	955.72
764.198	1054.02
764.381	937.29
764.564	1021.25
764.748	949.57
764.931	1015.11
765.114	900.42
765.297	1006.92
765.481	922.95
765.664	1015.11
765.847	939.34
766.03	886.09
766.213	849.22
766.397	832.84
766.58	832.84
766.763	800.07
766.946	894.28
767.129	955.72
767.312	925
767.495	935.24
767.678	838.98
767.861	818.5
768.044	871.75
768.227	935.24
768.41	812.36
768.593	843.08
768.776	906.57
768.959	828.74
769.142	869.7
769.324	832.84
769.507	910.66
769.69	800.07
769.873	832.84
770.056	845.13
770.239	826.7
770.421	857.42
770.604	804.17
770.787	759.11
770.97	810.31
771.152	763.21
771.335	851.27
771.518	759.11
771.7	750.92
771.883	720.2
772.066	822.6
772.248	808.27
772.431	843.08
772.613	812.36
772.796	826.7
772.978	812.36
773.161	832.84
773.343	759.11
773.526	757.07
773.708	720.2
773.891	693.58
774.073	802.12
774.256	707.91
774.438	820.55
774.621	709.96
774.803	752.97
774.985	722.25
775.168	687.43
775.35	638.28
775.532	736.59
775.715	738.63
775.897	734.54
776.079	681.29
776.261	673.1
776.444	646.48
776.626	685.39
776.808	664.91
776.99	650.57
777.173	621.9
777.355	564.56
777.537	658.76
777.719	722.25
777.901	671.05
778.083	615.76
778.265	609.61
778.447	671.05
778.629	603.47
778.811	628.04
778.993	669
779.175	644.43
779.357	546.12
779.539	562.51
779.721	648.52
779.903	589.13
780.085	507.21
780.267	546.12
780.449	587.08
780.631	564.56
780.812	582.99
780.994	564.56
781.176	484.69
781.358	599.37
781.54	544.08
781.721	509.26
781.903	511.31
782.085	462.16
782.267	550.22
782.448	480.59
782.63	550.22
782.812	607.56
782.993	464.21
783.175	546.12
783.357	521.55
783.538	482.64
783.72	437.58
783.901	607.56
784.083	484.69
784.264	468.3
784.446	402.77
784.627	474.45
784.809	490.83
784.99	466.25
785.172	523.6
785.353	515.41
785.535	521.55
785.716	464.21
785.897	435.53
786.079	423.25
786.26	431.44
786.441	447.82
786.623	466.25
786.804	392.53
786.985	431.44
787.167	443.73
787.348	374.1
787.529	472.4
787.71	472.4
787.891	445.77
788.073	421.2
788.254	337.23
788.435	386.38
788.616	431.44
788.797	255.31
788.978	423.25
789.159	396.62
789.34	406.86
789.522	408.91
789.703	367.95
789.884	386.38
790.065	382.29
790.246	460.11
790.427	347.47
790.607	415.06
790.788	427.34
790.969	331.09
791.15	382.29
791.331	400.72
791.512	333.14
791.693	335.18
791.874	337.23
792.054	441.68
792.235	324.94
792.416	349.52
792.597	316.75
792.778	277.84
792.958	263.51
793.139	302.42
793.32	290.13
793.5	392.53
793.681	365.9
793.862	324.94
794.042	316.75
794.223	316.75
794.404	318.8
794.584	243.03
794.765	269.65
794.945	208.21
795.126	286.03
795.306	324.94
795.487	263.51
795.667	312.66
795.848	415.06
796.028	228.69
796.209	300.37
796.389	292.18
796.57	298.32
796.75	265.55
796.93	294.22
797.111	220.5
797.291	255.31
797.471	312.66
797.652	247.12
797.832	288.08
798.012	308.56
798.192	169.3
798.373	247.12
798.553	337.23
798.733	240.98
798.913	218.45
799.093	245.07
799.274	308.56
799.454	218.45
799.634	163.15
799.814	318.8
799.994	204.11
800.174	226.64
800.354	161.11
800.534	195.92
800.714	318.8
800.894	259.41
801.074	185.68
801.254	169.3
801.434	243.03
801.614	288.08
801.794	236.88
801.974	748.87
802.154	202.07
802.334	253.27
802.514	230.74
802.693	316.75
802.873	128.34
803.053	365.9
803.233	257.36
803.413	210.26
803.592	210.26
803.772	99.67
803.952	220.5
804.131	185.68
804.311	146.77
804.491	257.36
804.67	177.49
804.85	238.93
805.03	259.41
805.209	296.27
805.389	202.07
805.568	101.72
805.748	224.59
805.928	181.59
806.107	269.65
806.287	195.92
806.466	150.87
806.646	163.15
806.825	152.92
807.004	177.49
807.184	218.45
807.363	204.11
807.543	157.01
807.722	122.2
807.901	193.87
808.081	185.68
808.26	154.96
808.439	208.21
808.619	204.11
808.798	136.53
808.977	195.92
809.156	210.26
809.336	228.69
809.515	185.68
809.694	177.49
809.873	128.34
810.052	197.97
810.231	202.07
810.411	171.35
810.59	118.1
810.769	240.98
810.948	130.39
811.127	197.97
811.306	132.44
811.485	146.77
811.664	171.35
811.843	187.73
812.022	154.96
812.201	81.24
812.38	191.83
812.559	208.21
812.737	81.24
812.916	81.24
813.095	95.57
813.274	87.38
813.453	163.15
813.632	122.2
813.811	163.15
813.989	138.58
814.168	116.05
814.347	126.29
814.526	173.39
814.704	255.31
814.883	220.5
815.062	118.1
815.24	171.35
815.419	97.62
815.598	163.15
815.776	118.1
815.955	79.19
816.133	81.24
816.312	68.95
816.49	146.77
816.669	62.8
816.847	89.43
817.026	171.35
817.204	120.15
817.383	54.61
817.561	167.25
817.74	109.91
817.918	195.92
818.097	144.72
818.275	97.62
818.453	130.39
818.632	114
818.81	77.14
818.988	114
819.167	95.57
819.345	89.43
819.523	154.96
819.701	161.11
819.879	146.77
820.058	120.15
820.236	157.01
820.414	109.91
820.592	54.61
820.77	122.2
820.948	97.62
821.127	114
821.305	183.63
821.483	107.86
821.661	132.44
821.839	126.29
822.017	111.96
822.195	122.2
822.373	144.72
822.551	83.28
822.729	111.96
822.907	46.42
823.085	111.96
823.262	46.42
823.44	120.15
823.618	60.76
823.796	185.68
823.974	56.66
824.152	52.56
824.329	83.28
824.507	114
824.685	15.7
824.863	89.43
825.04	128.34
825.218	105.81
825.396	130.39
825.574	179.54
825.751	58.71
825.929	146.77
826.107	25.94
826.284	159.06
826.462	73.04
826.639	116.05
826.817	30.04
826.994	97.62
827.172	87.38
827.349	120.15
827.527	54.61
827.704	79.19
827.882	105.81
828.059	130.39
828.237	95.57
828.414	136.53
828.591	56.66
828.769	132.44
828.946	19.8
829.124	97.62
829.301	130.39
829.478	169.3
829.655	73.04
829.833	111.96
830.01	91.48
830.187	54.61
830.364	-2.73
830.542	71
830.719	109.91
830.896	101.72
831.073	95.57
831.25	111.96
831.427	91.48
831.604	7.51
831.782	73.04
831.959	58.71
832.136	95.57
832.313	81.24
832.49	111.96
832.667	146.77
832.844	87.38
833.021	56.66
833.198	30.04
833.374	19.8
833.551	54.61
833.728	105.81
833.905	-2.73
834.082	62.8
834.259	114
834.436	79.19
834.612	3.41
834.789	97.62
834.966	93.52
835.143	95.57
835.319	87.38
835.496	66.9
835.673	-0.68
835.85	95.57
836.026	13.65
836.203	71
836.38	30.04
836.556	25.94
836.733	97.62
836.909	105.81
837.086	15.7
837.262	105.81
837.439	62.8
837.616	46.42
837.792	38.23
837.968	83.28
838.145	30.04
838.321	7.51
838.498	64.85
838.674	21.85
838.851	-2.73
839.027	3.41
839.203	-0.68
839.38	30.04
839.556	-10.92
839.732	81.24
839.909	32.08
840.085	23.89
840.261	15.7
840.437	42.32
840.614	7.51
840.79	83.28
840.966	21.85
841.142	107.86
841.318	-25.26
841.494	71
841.671	13.65
841.847	44.37
842.023	-21.16
842.199	25.94
842.375	91.48
842.551	-23.21
842.727	13.65
842.903	152.92
843.079	66.9
843.255	107.86
843.431	34.13
843.607	73.04
843.783	-107.18
843.959	85.33
844.134	5.46
844.31	114
844.486	9.56
844.662	79.19
844.838	15.7
845.013	-17.07
845.189	54.61
845.365	54.61
845.541	40.28
845.716	5.46
845.892	25.94
846.068	54.61
846.244	87.38
846.419	95.57
846.595	1.37
846.77	5.46
846.946	30.04
847.122	60.76
847.297	15.7
847.473	-51.88
847.648	-2.73
847.824	111.96
847.999	-84.65
848.175	5.46
848.35	62.8
848.526	87.38
848.701	62.8
848.876	15.7
849.052	71
849.227	11.61
849.403	77.14
849.578	-8.87
849.753	13.65
849.929	38.23
850.104	3.41
850.279	-23.21
850.454	58.71
850.63	89.43
850.805	-21.16
850.98	71
851.155	56.66
851.33	48.47
851.505	-43.69
851.681	114
851.856	62.8
852.031	116.05
852.206	81.24
852.381	-51.88
852.556	5.46
852.731	23.89
852.906	71
853.081	23.89
853.256	30.04
853.431	9.56
853.606	-10.92
853.781	23.89
853.956	9.56
854.131	99.67
854.305	42.32
854.48	48.47
854.655	-60.07
854.83	-2.73
855.005	87.38
855.18	1.37
855.354	-35.5
855.529	21.85
855.704	73.04
855.879	46.42
856.053	13.65
856.228	-23.21
856.403	-53.93
856.577	-43.69
856.752	-33.45
856.926	60.76
857.101	-10.92
857.276	34.13
857.45	-35.5
857.625	32.08
857.799	62.8
857.974	30.04
858.148	30.04
858.323	-6.83
858.497	-6.83
858.672	5.46
858.846	-37.55
859.02	48.47
859.195	5.46
859.369	-0.68
859.543	-19.11
859.718	48.47
859.892	40.28
860.066	75.09
860.241	7.51
860.415	-23.21
860.589	-72.36
860.763	71
860.938	-23.21
861.112	-10.92
861.286	9.56
861.46	-10.92
861.634	-19.11
861.808	-49.83
861.982	1.37
862.157	-35.5
862.331	-35.5
862.505	-43.69
862.679	1.37
862.853	-2.73
863.027	30.04
863.201	42.32
863.375	21.85
863.549	138.58
863.722	-21.16
863.896	32.08
864.07	-27.31
864.244	79.19
864.418	75.09
864.592	60.76
864.766	-2.73
864.939	111.96
865.113	-82.6
865.287	11.61
865.461	-35.5
865.634	-10.92
865.808	15.7
865.982	15.7
866.156	27.99
866.329	-23.21
866.503	103.76
866.676	62.8
866.85	40.28
867.024	81.24
867.197	-19.11
867.371	38.23
867.544	1.37
867.718	-27.31
867.891	56.66
868.065	-2.73
868.238	13.65
868.412	25.94
868.585	62.8
868.759	54.61
868.932	54.61
869.105	-10.92
869.279	-8.87
869.452	-68.27
869.625	62.8
869.799	-6.83
869.972	-60.07
870.145	13.65
870.319	42.32
870.492	-4.78
870.665	15.7
870.838	-39.59
871.011	-60.07
871.185	-6.83
871.358	23.89
871.531	36.18
871.704	-0.68
871.877	21.85
872.05	7.51
872.223	9.56
872.396	36.18
872.569	13.65
872.742	-27.31
872.915	15.7
873.088	1.37
873.261	-41.64
873.434	11.61
873.607	-23.21
873.78	5.46
873.953	-31.4
874.126	-23.21
874.299	62.8
874.471	-41.64
874.644	-45.74
874.817	7.51
874.99	48.47
875.163	-43.69
875.335	15.7
875.508	-12.97
875.681	46.42
875.853	15.7
876.026	-27.31
876.199	5.46
876.371	1.37
876.544	-27.31
876.717	-10.92
876.889	50.52
877.062	64.85
877.234	-10.92
877.407	-49.83
877.579	58.71
877.752	5.46
877.924	5.46
878.097	111.96
878.269	-33.45
878.442	-51.88
878.614	48.47
878.786	91.48
878.959	81.24
879.131	62.8
879.303	-19.11
879.476	-58.03
879.648	1.37
879.82	56.66
879.993	54.61
880.165	38.23
880.337	-8.87
880.509	3.41
880.681	-60.07
880.854	-41.64
881.026	-21.16
881.198	50.52
881.37	75.09
881.542	-19.11
881.714	-6.83
881.886	32.08
882.058	32.08
882.23	-8.87
882.402	-2.73
882.574	-8.87
882.746	46.42
882.918	66.9
883.09	-2.73
883.262	-25.26
883.434	-70.31
883.606	34.13
883.778	15.7
883.95	32.08
884.122	34.13
884.293	5.46
884.465	-2.73
884.637	46.42
884.809	-51.88
884.98	-17.07
885.152	42.32
885.324	1.37
885.496	-19.11
885.667	21.85
885.839	44.37
886.011	107.86
886.182	34.13
886.354	87.38
886.525	50.52
886.697	-35.5
886.869	38.23
887.04	32.08
887.212	5.46
887.383	71
887.555	62.8
887.726	-2.73
887.897	23.89
888.069	-39.59
888.24	32.08
888.412	21.85
888.583	-49.83
888.754	21.85
888.926	-6.83
889.097	46.42
889.268	48.47
889.44	36.18
889.611	-51.88
889.782	-8.87
889.953	38.23
890.125	23.89
890.296	-41.64
890.467	-8.87
890.638	30.04
890.809	46.42
890.98	-10.92
891.151	-35.5
891.323	13.65
891.494	11.61
891.665	-10.92
891.836	-2.73
892.007	-51.88
892.178	54.61
892.349	13.65
892.52	-41.64
892.691	7.51
892.862	-35.5
893.032	-70.31
893.203	38.23
893.374	71
893.545	30.04
893.716	-8.87
893.887	34.13
894.057	30.04
894.228	-8.87
894.399	-10.92
894.57	32.08
894.74	-84.65
894.911	-17.07
895.082	-27.31
895.253	-35.5
895.423	-17.07
895.594	-72.36
895.764	-35.5
895.935	-27.31
896.106	7.51
896.276	-90.79
896.447	-43.69
896.617	-27.31
896.788	-17.07
896.958	23.89
897.129	-31.4
897.299	83.28
897.47	15.7
897.64	62.8
897.81	79.19
897.981	23.89
898.151	-39.59
898.322	19.8
898.492	-33.45
898.662	-51.88
898.832	7.51
899.003	13.65
899.173	21.85
899.343	-0.68
899.513	1.37
