Data from USB4F104151__287__14-46-26-094.txt Node

Date: Thu Mar 13 14:46:26 EDT 2025
User: louis
Spectrometer: USB4F10415
Trigger mode: 4
Integration Time (sec): 2.000000E-2
Scans to average: 1
Electric dark correction enabled: true
Nonlinearity correction enabled: false
Boxcar width: 0
XAxis mode: Wavelengths
Number of Pixels in Spectrum: 3648
>>>>>Begin Spectral Data<<<<<
178.204	-104.62
178.424	-104.62
178.644	-104.62
178.864	-88.23
179.084	-166.06
179.304	-8.36
179.524	-22.7
179.744	-45.23
179.964	79.7
180.184	-10.41
180.404	-6.31
180.624	28.5
180.844	44.88
181.064	-16.55
181.283	-51.37
181.503	10.07
181.723	-2.22
181.943	42.84
182.163	24.4
182.383	-6.31
182.602	34.64
182.822	100.18
183.042	10.07
183.262	1.88
183.482	20.31
183.701	42.84
183.921	44.88
184.141	34.64
184.361	91.99
184.58	28.5
184.8	44.88
185.02	10.07
185.239	20.31
185.459	1.88
185.679	24.4
185.898	-63.66
186.118	22.36
186.338	-18.6
186.557	67.41
186.777	18.26
186.997	1.88
187.216	20.31
187.436	51.03
187.655	53.08
187.875	137.04
188.095	59.22
188.314	22.36
188.534	38.74
188.753	1.88
188.973	83.8
189.192	34.64
189.412	-12.46
189.631	12.12
189.851	-39.08
190.07	26.45
190.29	61.27
190.509	14.17
190.729	38.74
190.948	67.41
191.168	159.57
191.387	98.13
191.607	32.6
191.826	75.6
192.045	-2.22
192.265	42.84
192.484	51.03
192.704	38.74
192.923	-6.31
193.142	77.65
193.362	132.95
193.581	94.04
193.8	-61.61
194.02	55.12
194.239	71.51
194.458	79.7
194.678	-4.27
194.897	71.51
195.116	24.4
195.335	42.84
195.555	75.6
195.774	124.76
195.993	38.74
196.212	-10.41
196.432	-49.32
196.651	59.22
196.87	30.55
197.089	83.8
197.308	67.41
197.528	61.27
197.747	1.88
197.966	61.27
198.185	28.5
198.404	61.27
198.623	100.18
198.842	59.22
199.062	1.88
199.281	51.03
199.5	53.08
199.719	10.07
199.938	51.03
200.157	137.04
200.376	-10.41
200.595	73.56
200.814	28.5
201.033	-18.6
201.252	83.8
201.471	85.84
201.69	42.84
201.909	67.41
202.128	44.88
202.347	16.21
202.566	26.45
202.785	10.07
203.004	5.97
203.223	59.22
203.442	18.26
203.661	77.65
203.879	98.13
204.098	96.08
204.317	81.75
204.536	8.02
204.755	77.65
204.974	48.98
205.193	-0.17
205.411	100.18
205.63	10.07
205.849	51.03
206.068	61.27
206.287	-2.22
206.505	55.12
206.724	10.07
206.943	100.18
207.162	149.33
207.381	-32.94
207.599	59.22
207.818	94.04
208.037	-10.41
208.255	22.36
208.474	81.75
208.693	-69.8
208.911	-6.31
209.13	63.32
209.349	59.22
209.567	137.04
209.786	75.6
210.005	30.55
210.223	106.32
210.442	-22.7
210.661	51.03
210.879	42.84
211.098	22.36
211.316	87.89
211.535	36.69
211.753	-4.27
211.972	34.64
212.191	10.07
212.409	55.12
212.628	38.74
212.846	51.03
213.065	57.17
213.283	30.55
213.502	106.32
213.72	36.69
213.938	91.99
214.157	1.88
214.375	69.46
214.594	16.21
214.812	-2.22
215.031	-22.7
215.249	-8.36
215.467	28.5
215.686	36.69
215.904	42.84
216.122	55.12
216.341	94.04
216.559	32.6
216.778	104.28
216.996	22.36
217.214	51.03
217.432	149.33
217.651	-18.6
217.869	36.69
218.087	28.5
218.306	-67.75
218.524	51.03
218.742	34.64
218.96	22.36
219.179	71.51
219.397	67.41
219.615	104.28
219.833	75.6
220.051	22.36
220.27	59.22
220.488	12.12
220.706	-14.51
220.924	1.88
221.142	51.03
221.36	55.12
221.578	59.22
221.796	28.5
222.015	26.45
222.233	32.6
222.451	48.98
222.669	1.88
222.887	51.03
223.105	5.97
223.323	-10.41
223.541	28.5
223.759	-6.31
223.977	89.94
224.195	175.95
224.413	77.65
224.631	71.51
224.849	1.88
225.067	83.8
225.285	1.88
225.503	28.5
225.721	-47.27
225.939	77.65
226.157	71.51
226.375	108.37
226.592	-26.79
226.81	51.03
227.028	51.03
227.246	26.45
227.464	42.84
227.682	20.31
227.9	51.03
228.117	100.18
228.335	12.12
228.553	87.89
228.771	40.79
228.989	20.31
229.206	12.12
229.424	1.88
229.642	67.41
229.86	-30.89
230.077	122.71
230.295	61.27
230.513	94.04
230.731	1.88
230.948	102.23
231.166	77.65
231.384	87.89
231.601	-47.27
231.819	51.03
232.037	44.88
232.254	51.03
232.472	10.07
232.689	-22.7
232.907	42.84
233.125	63.32
233.342	1.88
233.56	1.88
233.777	63.32
233.995	24.4
234.213	100.18
234.43	28.5
234.648	-43.18
234.865	51.03
235.083	153.43
235.3	38.74
235.518	67.41
235.735	34.64
235.953	178
236.17	69.46
236.388	75.6
236.605	30.55
236.822	38.74
237.04	42.84
237.257	110.42
237.475	3.93
237.692	53.08
237.909	85.84
238.127	-2.22
238.344	20.31
238.562	46.93
238.779	40.79
238.996	26.45
239.214	71.51
239.431	94.04
239.648	108.37
239.865	96.08
240.083	91.99
240.3	18.26
240.517	65.36
240.735	28.5
240.952	59.22
241.169	51.03
241.386	42.84
241.603	91.99
241.821	77.65
242.038	51.03
242.255	120.66
242.472	10.07
242.689	108.37
242.907	96.08
243.124	-6.31
243.341	42.84
243.558	-18.6
243.775	-0.17
243.992	1.88
244.209	89.94
244.426	102.23
244.643	51.03
244.86	-24.75
245.078	83.8
245.295	-28.84
245.512	-28.84
245.729	30.55
245.946	87.89
246.163	71.51
246.38	1.88
246.597	-14.51
246.814	55.12
247.031	71.51
247.248	24.4
247.464	-102.57
247.681	1.88
247.898	-4.27
248.115	94.04
248.332	34.64
248.549	175.95
248.766	122.71
248.983	75.6
249.2	30.55
249.417	20.31
249.633	44.88
249.85	91.99
250.067	18.26
250.284	75.6
250.501	-14.51
250.717	55.12
250.934	34.64
251.151	34.64
251.368	22.36
251.585	104.28
251.801	91.99
252.018	96.08
252.235	1.88
252.451	81.75
252.668	12.12
252.885	18.26
253.102	40.79
253.318	69.46
253.535	10.07
253.752	124.76
253.968	10.07
254.185	-6.31
254.401	87.89
254.618	46.93
254.835	34.64
255.051	69.46
255.268	20.31
255.484	-16.55
255.701	36.69
255.917	94.04
256.134	-47.27
256.351	42.84
256.567	5.97
256.784	83.8
257	10.07
257.217	139.09
257.433	71.51
257.65	32.6
257.866	135
258.082	10.07
258.299	26.45
258.515	102.23
258.732	51.03
258.948	14.17
259.165	-10.41
259.381	10.07
259.597	36.69
259.814	1.88
260.03	42.84
260.246	-12.46
260.463	87.89
260.679	63.32
260.895	85.84
261.112	65.36
261.328	26.45
261.544	83.8
261.761	87.89
261.977	71.51
262.193	-8.36
262.409	83.8
262.626	36.69
262.842	83.8
263.058	42.84
263.274	-32.94
263.49	69.46
263.707	30.55
263.923	77.65
264.139	51.03
264.355	-0.17
264.571	36.69
264.787	69.46
265.004	55.12
265.22	51.03
265.436	42.84
265.652	26.45
265.868	79.7
266.084	20.31
266.3	14.17
266.516	-26.79
266.732	61.27
266.948	46.93
267.164	124.76
267.38	42.84
267.596	87.89
267.812	12.12
268.028	98.13
268.244	57.17
268.46	38.74
268.676	24.4
268.892	98.13
269.108	-43.18
269.324	3.93
269.54	32.6
269.756	128.85
269.972	20.31
270.188	8.02
270.403	-6.31
270.619	34.64
270.835	12.12
271.051	53.08
271.267	1.88
271.483	22.36
271.698	-12.46
271.914	24.4
272.13	44.88
272.346	94.04
272.562	18.26
272.777	132.95
272.993	46.93
273.209	-8.36
273.425	12.12
273.64	83.8
273.856	28.5
274.072	28.5
274.287	22.36
274.503	67.41
274.719	104.28
274.934	36.69
275.15	42.84
275.366	12.12
275.581	8.02
275.797	57.17
276.012	63.32
276.228	83.8
276.444	5.97
276.659	85.84
276.875	34.64
277.09	1.88
277.306	16.21
277.521	42.84
277.737	61.27
277.952	36.69
278.168	26.45
278.383	59.22
278.599	59.22
278.814	28.5
279.03	30.55
279.245	12.12
279.461	51.03
279.676	20.31
279.892	42.84
280.107	104.28
280.322	-16.55
280.538	26.45
280.753	34.64
280.969	34.64
281.184	40.79
281.399	75.6
281.615	59.22
281.83	10.07
282.045	44.88
282.26	-10.41
282.476	55.12
282.691	61.27
282.906	-45.23
283.122	-39.08
283.337	-47.27
283.552	63.32
283.767	-10.41
283.983	132.95
284.198	10.07
284.413	65.36
284.628	-20.65
284.843	44.88
285.058	-2.22
285.274	42.84
285.489	28.5
285.704	-14.51
285.919	1.88
286.134	10.07
286.349	30.55
286.564	16.21
286.779	91.99
286.995	30.55
287.21	-69.8
287.425	55.12
287.64	55.12
287.855	59.22
288.07	-8.36
288.285	-37.03
288.5	108.37
288.715	10.07
288.93	12.12
289.145	34.64
289.36	36.69
289.575	3.93
289.79	61.27
290.004	83.8
290.219	89.94
290.434	30.55
290.649	65.36
290.864	-6.31
291.079	1.88
291.294	26.45
291.509	-39.08
291.724	83.8
291.938	89.94
292.153	30.55
292.368	-18.6
292.583	100.18
292.798	-10.41
293.012	10.07
293.227	28.5
293.442	26.45
293.657	79.7
293.871	141.14
294.086	-26.79
294.301	120.66
294.516	18.26
294.73	-18.6
294.945	18.26
295.16	34.64
295.374	91.99
295.589	34.64
295.804	71.51
296.018	10.07
296.233	120.66
296.447	91.99
296.662	48.98
296.877	114.52
297.091	40.79
297.306	61.27
297.52	51.03
297.735	116.56
297.949	69.46
298.164	44.88
298.378	44.88
298.593	36.69
298.807	-6.31
299.022	55.12
299.236	102.23
299.451	-12.46
299.665	8.02
299.88	18.26
300.094	139.09
300.309	77.65
300.523	83.8
300.737	1.88
300.952	73.56
301.166	67.41
301.381	-18.6
301.595	20.31
301.809	77.65
302.024	67.41
302.238	91.99
302.452	38.74
302.667	1.88
302.881	83.8
303.095	-14.51
303.309	67.41
303.524	-6.31
303.738	59.22
303.952	40.79
304.166	67.41
304.381	-65.71
304.595	145.24
304.809	-22.7
305.023	-28.84
305.237	22.36
305.452	71.51
305.666	10.07
305.88	102.23
306.094	126.8
306.308	53.08
306.522	-2.22
306.736	10.07
306.95	63.32
307.164	-34.99
307.379	46.93
307.593	-14.51
307.807	108.37
308.021	63.32
308.235	34.64
308.449	-14.51
308.663	69.46
308.877	100.18
309.091	-22.7
309.305	110.42
309.519	-28.84
309.733	69.46
309.947	8.02
310.161	44.88
310.374	34.64
310.588	85.84
310.802	18.26
311.016	91.99
311.23	96.08
311.444	38.74
311.658	10.07
311.872	53.08
312.085	59.22
312.299	91.99
312.513	20.31
312.727	51.03
312.941	-4.27
313.154	53.08
313.368	10.07
313.582	-30.89
313.796	91.99
314.009	59.22
314.223	-6.31
314.437	-4.27
314.651	79.7
314.864	18.26
315.078	-22.7
315.292	34.64
315.505	-22.7
315.719	44.88
315.933	34.64
316.146	26.45
316.36	-34.99
316.573	83.8
316.787	42.84
317.001	83.8
317.214	32.6
317.428	124.76
317.641	-4.27
317.855	10.07
318.068	36.69
318.282	91.99
318.495	100.18
318.709	61.27
318.922	42.84
319.136	91.99
319.349	59.22
319.563	34.64
319.776	51.03
319.99	18.26
320.203	75.6
320.417	100.18
320.63	10.07
320.843	69.46
321.057	69.46
321.27	20.31
321.483	3.93
321.697	26.45
321.91	53.08
322.124	10.07
322.337	42.84
322.55	75.6
322.763	46.93
322.977	32.6
323.19	26.45
323.403	75.6
323.617	32.6
323.83	94.04
324.043	44.88
324.256	51.03
324.469	1.88
324.683	77.65
324.896	61.27
325.109	51.03
325.322	38.74
325.535	69.46
325.748	-4.27
325.962	12.12
326.175	55.12
326.388	44.88
326.601	69.46
326.814	-8.36
327.027	10.07
327.24	83.8
327.453	-2.22
327.666	53.08
327.879	-30.89
328.092	85.84
328.305	83.8
328.518	46.93
328.731	104.28
328.944	132.95
329.157	69.46
329.37	34.64
329.583	116.56
329.796	132.95
330.009	10.07
330.222	83.8
330.435	-30.89
330.648	32.6
330.861	46.93
331.073	71.51
331.286	42.84
331.499	5.97
331.712	34.64
331.925	30.55
332.138	10.07
332.35	75.6
332.563	53.08
332.776	46.93
332.989	55.12
333.202	10.07
333.414	55.12
333.627	94.04
333.84	38.74
334.053	28.5
334.265	71.51
334.478	22.36
334.691	44.88
334.903	96.08
335.116	1.88
335.329	59.22
335.541	40.79
335.754	18.26
335.966	26.45
336.179	55.12
336.392	5.97
336.604	28.5
336.817	67.41
337.029	44.88
337.242	38.74
337.454	77.65
337.667	-45.23
337.88	106.32
338.092	34.64
338.305	91.99
338.517	-71.85
338.729	75.6
338.942	34.64
339.154	-20.65
339.367	75.6
339.579	79.7
339.792	-6.31
340.004	89.94
340.217	18.26
340.429	3.93
340.641	38.74
340.854	126.8
341.066	77.65
341.278	75.6
341.491	94.04
341.703	83.8
341.915	59.22
342.128	36.69
342.34	55.12
342.552	34.64
342.764	91.99
342.977	16.21
343.189	53.08
343.401	10.07
343.613	-30.89
343.826	28.5
344.038	63.32
344.25	42.84
344.462	96.08
344.674	32.6
344.886	-2.22
345.099	28.5
345.311	71.51
345.523	69.46
345.735	34.64
345.947	55.12
346.159	26.45
346.371	26.45
346.583	5.97
346.795	24.4
347.007	46.93
347.219	20.31
347.431	28.5
347.643	61.27
347.855	38.74
348.067	143.19
348.279	75.6
348.491	59.22
348.703	98.13
348.915	69.46
349.127	91.99
349.339	38.74
349.551	-4.27
349.763	40.79
349.975	-2.22
350.187	3.93
350.399	63.32
350.61	26.45
350.822	44.88
351.034	85.84
351.246	83.8
351.458	34.64
351.669	59.22
351.881	46.93
352.093	81.75
352.305	18.26
352.517	91.99
352.728	36.69
352.94	-2.22
353.152	-6.31
353.363	61.27
353.575	143.19
353.787	67.41
353.999	135
354.21	79.7
354.422	26.45
354.633	1.88
354.845	30.55
355.057	59.22
355.268	40.79
355.48	89.94
355.692	-18.6
355.903	91.99
356.115	42.84
356.326	44.88
356.538	26.45
356.749	87.89
356.961	94.04
357.172	48.98
357.384	128.85
357.595	67.41
357.807	42.84
358.018	26.45
358.23	18.26
358.441	71.51
358.653	51.03
358.864	61.27
359.075	18.26
359.287	61.27
359.498	53.08
359.709	14.17
359.921	44.88
360.132	22.36
360.344	46.93
360.555	91.99
360.766	55.12
360.977	30.55
361.189	22.36
361.4	34.64
361.611	57.17
361.823	42.84
362.034	14.17
362.245	34.64
362.456	67.41
362.667	94.04
362.879	20.31
363.09	69.46
363.301	108.37
363.512	42.84
363.723	100.18
363.935	61.27
364.146	110.42
364.357	20.31
364.568	83.8
364.779	44.88
364.99	87.89
365.201	-14.51
365.412	22.36
365.623	-18.6
365.834	116.56
366.045	5.97
366.256	46.93
366.467	81.75
366.678	44.88
366.889	38.74
367.1	22.36
367.311	22.36
367.522	18.26
367.733	36.69
367.944	75.6
368.155	61.27
368.366	34.64
368.577	46.93
368.788	118.61
368.999	22.36
369.209	22.36
369.42	73.56
369.631	126.8
369.842	28.5
370.053	85.84
370.264	20.31
370.474	89.94
370.685	10.07
370.896	104.28
371.107	161.62
371.317	91.99
371.528	30.55
371.739	94.04
371.95	59.22
372.16	85.84
372.371	106.32
372.582	28.5
372.792	57.17
373.003	18.26
373.214	40.79
373.424	-4.27
373.635	12.12
373.846	14.17
374.056	51.03
374.267	108.37
374.477	10.07
374.688	20.31
374.898	18.26
375.109	-28.84
375.319	83.8
375.53	120.66
375.74	83.8
375.951	-10.41
376.161	65.36
376.372	102.23
376.582	18.26
376.793	59.22
377.003	-26.79
377.214	91.99
377.424	61.27
377.635	46.93
377.845	22.36
378.055	38.74
378.266	-55.47
378.476	51.03
378.686	122.71
378.897	28.5
379.107	96.08
379.317	36.69
379.528	67.41
379.738	79.7
379.948	63.32
380.158	75.6
380.369	79.7
380.579	53.08
380.789	87.89
380.999	122.71
381.21	67.41
381.42	34.64
381.63	26.45
381.84	75.6
382.05	-22.7
382.261	73.56
382.471	63.32
382.681	20.31
382.891	102.23
383.101	151.38
383.311	-51.37
383.521	-0.17
383.731	26.45
383.941	63.32
384.151	22.36
384.361	141.14
384.571	-51.37
384.781	96.08
384.991	51.03
385.201	173.91
385.411	46.93
385.621	108.37
385.831	20.31
386.041	63.32
386.251	26.45
386.461	26.45
386.671	69.46
386.881	22.36
387.091	30.55
387.301	108.37
387.511	94.04
387.72	14.17
387.93	116.56
388.14	14.17
388.35	51.03
388.56	100.18
388.769	61.27
388.979	65.36
389.189	-0.17
389.399	171.86
389.609	22.36
389.818	34.64
390.028	69.46
390.238	34.64
390.447	75.6
390.657	26.45
390.867	75.6
391.076	48.98
391.286	18.26
391.496	100.18
391.705	63.32
391.915	173.91
392.125	141.14
392.334	36.69
392.544	67.41
392.753	38.74
392.963	34.64
393.172	87.89
393.382	30.55
393.591	124.76
393.801	28.5
394.01	77.65
394.22	51.03
394.429	55.12
394.639	55.12
394.848	98.13
395.058	63.32
395.267	67.41
395.477	55.12
395.686	-16.55
395.895	81.75
396.105	124.76
396.314	77.65
396.524	83.8
396.733	51.03
396.942	108.37
397.152	118.61
397.361	132.95
397.57	75.6
397.78	91.99
397.989	26.45
398.198	67.41
398.407	69.46
398.617	44.88
398.826	42.84
399.035	116.56
399.244	59.22
399.453	100.18
399.663	126.8
399.872	63.32
400.081	69.46
400.29	100.18
400.499	87.89
400.708	67.41
400.917	102.23
401.127	51.03
401.336	53.08
401.545	223.06
401.754	61.27
401.963	67.41
402.172	96.08
402.381	34.64
402.59	81.75
402.799	104.28
403.008	108.37
403.217	83.8
403.426	71.51
403.635	141.14
403.844	79.7
404.053	98.13
404.262	110.42
404.471	182.1
404.68	67.41
404.888	200.53
405.097	79.7
405.306	165.71
405.515	116.56
405.724	169.81
405.933	167.76
406.142	83.8
406.35	149.33
406.559	132.95
406.768	102.23
406.977	151.38
407.185	223.06
407.394	165.71
407.603	67.41
407.812	124.76
408.02	167.76
408.229	165.71
408.438	173.91
408.646	161.62
408.855	171.86
409.064	143.19
409.272	218.96
409.481	280.4
409.69	132.95
409.898	257.87
410.107	276.31
410.315	223.06
410.524	120.66
410.733	313.17
410.941	284.5
411.15	337.74
411.358	309.07
411.567	331.6
411.775	282.45
411.984	294.74
412.192	339.79
412.401	251.73
412.609	354.13
412.818	329.55
413.026	372.56
413.234	384.85
413.443	333.65
413.651	317.26
413.86	397.14
414.068	403.28
414.276	436.05
414.485	509.77
414.693	530.25
414.901	509.77
415.11	542.54
415.318	448.33
415.526	620.36
415.734	616.27
415.943	550.73
416.151	616.27
416.359	534.35
416.567	575.31
416.776	646.99
416.984	712.52
417.192	763.72
417.4	608.08
417.608	661.32
417.817	769.87
418.025	814.92
418.233	784.2
418.441	759.63
418.649	905.03
418.857	835.4
419.065	878.41
419.273	905.03
419.481	950.09
419.689	943.94
419.897	1009.48
420.105	1013.57
420.313	1165.12
420.521	1083.2
420.729	1038.15
420.937	1036.1
421.145	1181.51
421.353	1230.66
421.561	1185.6
421.769	1318.72
421.977	1408.83
422.185	1335.1
422.393	1400.64
422.601	1607.48
422.809	1402.69
423.017	1617.72
423.224	1648.44
423.432	1664.83
423.64	1609.53
423.848	1812.28
424.056	1840.95
424.263	1910.58
424.471	1920.82
424.679	2094.9
424.887	1937.21
425.094	2115.38
425.302	2096.95
425.51	2156.34
425.718	2283.31
425.925	2340.66
426.133	2393.9
426.341	2492.21
426.548	2590.51
426.756	2537.26
426.964	2639.66
427.171	2797.35
427.379	2975.53
427.586	2985.77
427.794	2963.24
428.001	3192.61
428.209	3303.2
428.417	3272.48
428.624	3479.33
428.832	3393.31
429.039	3495.71
429.247	3499.81
429.454	3720.99
429.662	3936.03
429.869	3616.54
430.076	4114.2
430.284	4050.71
430.491	4019.99
430.699	4325.14
430.906	4486.93
431.114	4392.72
431.321	4478.74
431.528	4658.96
431.736	4800.27
431.943	5195.53
432.15	4908.81
432.358	4994.83
432.565	5291.78
432.772	5345.03
432.979	5508.87
433.187	5619.46
433.394	5728
433.601	5996.28
433.808	5844.73
434.016	5959.42
434.223	6272.76
434.43	6751.98
434.637	6530.8
434.844	6985.45
435.052	7169.77
435.259	6948.59
435.466	7096.04
435.673	6915.82
435.88	7407.33
436.087	7761.63
436.294	7880.41
436.501	7868.13
436.708	7859.93
436.915	8005.34
437.122	8484.56
437.329	8527.57
437.537	8605.39
437.743	8883.92
437.95	8730.32
438.157	9320.14
438.364	9490.12
438.571	9547.46
438.778	9516.74
438.985	10516.15
439.192	9944.77
439.399	10520.24
439.606	9973.44
439.813	10729.14
440.02	11351.72
440.227	11056.81
440.433	10766
440.64	11239.08
440.847	11216.55
441.054	11515.56
441.261	12261.02
441.467	12252.83
441.674	12627.6
441.881	12871.31
442.088	12785.3
442.294	12828.31
442.501	12779.15
442.708	13258.38
442.914	13528.71
443.121	14583.41
443.328	13921.92
443.534	14868.08
443.741	14386.81
443.948	14378.62
444.154	15337.07
444.361	15206
444.568	15195.76
444.774	15562.34
444.981	15343.21
445.187	15930.98
445.394	16766.55
445.6	16289.37
445.807	18124.35
446.013	17342.03
446.22	17518.15
446.426	17950.28
446.633	18320.96
446.839	19125.81
447.046	18417.21
447.252	19338.8
447.459	19025.46
447.665	19299.89
447.871	20008.48
448.078	20760.09
448.284	19858.98
448.491	20418.08
448.697	21321.23
448.903	21597.71
449.11	21714.44
449.316	21364.24
449.522	21757.45
449.728	22386.18
449.935	22152.71
450.141	22482.43
450.347	22943.22
450.553	22306.3
450.76	22631.93
450.966	23139.83
451.172	22990.33
451.378	23944.68
451.584	23217.65
451.791	24020.45
451.997	23887.34
452.203	24032.74
452.409	24055.27
452.615	24190.44
452.821	23027.19
453.027	22771.19
453.233	23967.21
453.44	23246.32
453.646	23352.82
453.852	23727.6
454.058	24120.81
454.264	23215.6
454.47	23829.99
454.676	23225.84
454.882	24045.03
455.088	22171.14
455.294	22154.76
455.5	22603.26
455.705	22668.8
455.911	22029.83
456.117	21595.66
456.323	21374.48
456.529	20246.05
456.735	21042.71
456.941	20327.97
457.147	20375.07
457.352	19539.5
457.558	19428.91
457.764	19430.96
457.97	19287.6
458.176	18898.48
458.381	18740.79
458.587	17905.22
458.793	17694.28
458.999	16924.24
459.204	18277.95
459.41	17563.21
459.616	16617.05
459.821	16434.78
460.027	16617.05
460.233	16103.01
460.438	15414.89
460.644	15607.4
460.85	14886.51
461.055	14526.07
461.261	14083.71
461.466	13575.81
461.672	13174.41
461.878	13948.54
462.083	13213.32
462.289	12840.59
462.494	12572.31
462.7	12195.48
462.905	11878.05
463.111	12095.13
463.316	12578.45
463.522	11990.69
463.727	12011.17
463.932	12078.75
464.138	12007.07
464.343	12009.12
464.549	11716.26
464.754	11876
464.959	11912.86
465.165	11783.84
465.37	11415.21
465.575	11036.33
465.781	11447.97
465.986	11714.21
466.191	11087.53
466.397	10952.37
466.602	10344.12
466.807	10804.91
467.012	10821.3
467.218	10692.27
467.423	10495.67
467.628	10772.14
467.833	10997.42
468.038	10614.45
468.244	10389.17
468.449	10872.5
468.654	10149.56
468.859	10401.46
469.064	10260.15
469.269	9985.72
469.474	10204.86
469.679	10251.96
469.885	9656
470.09	10104.51
470.295	9932.48
470.5	9766.59
470.705	9768.64
470.91	9496.26
471.115	9385.67
471.32	9742.02
471.525	9529.03
471.73	9348.81
471.935	9402.05
472.139	8892.11
472.344	8863.44
472.549	8771.28
472.754	9006.8
472.959	8818.38
473.164	8351.45
473.369	8376.02
473.574	8765.14
473.778	8619.73
473.983	8488.66
474.188	8355.54
474.393	8269.53
474.598	8242.9
474.802	8023.77
475.007	8062.68
475.212	8056.54
475.417	7868.13
475.621	7923.42
475.826	7843.55
476.031	7605.99
476.235	7597.79
476.44	7849.69
476.645	7423.72
476.849	7636.7
477.054	7382.76
477.259	7337.7
477.463	7347.94
477.668	7145.19
477.872	7282.41
478.077	7012.07
478.282	6907.63
478.486	6891.24
478.691	6813.42
478.895	6932.2
479.1	6907.63
479.304	6887.15
479.509	6645.49
479.713	6840.04
479.918	6483.7
480.122	6407.92
480.326	6297.33
480.531	6661.87
480.735	6495.99
480.94	6317.81
481.144	6565.62
481.348	6448.88
481.553	6567.67
481.757	6244.09
481.961	6500.08
482.166	6491.89
482.37	6473.46
482.574	6121.21
482.778	6174.46
482.983	6340.34
483.187	6283
483.391	6303.48
483.595	6182.65
483.8	6358.77
484.004	6248.18
484.208	6381.3
484.412	6131.45
484.616	6246.13
484.821	6184.69
485.025	6242.04
485.229	6313.72
485.433	6344.44
485.637	6319.86
485.841	6293.24
486.045	6260.47
486.249	6227.7
486.453	6414.07
486.657	6303.48
486.861	6319.86
487.065	5975.8
487.269	6244.09
487.473	6121.21
487.677	6301.43
487.881	6278.9
488.085	6291.19
488.289	6438.64
488.493	6364.92
488.697	6309.62
488.901	6379.25
489.105	6328.05
489.309	6209.27
489.512	6239.99
489.716	6242.04
489.92	6463.22
490.124	6237.94
490.328	6416.12
490.531	6391.54
490.735	6532.85
490.939	6235.89
491.143	6473.46
491.346	6418.16
491.55	6479.6
491.754	6631.15
491.958	6342.39
492.161	6575.86
492.365	6579.95
492.569	6547.19
492.772	6686.45
492.976	6727.41
493.18	6846.19
493.383	6717.17
493.587	6674.16
493.79	6964.97
493.994	6870.76
494.197	6862.57
494.401	6866.67
494.605	7016.17
494.808	7073.51
495.012	6907.63
495.215	7087.85
495.419	7198.44
495.622	7200.49
495.825	7227.11
496.029	7263.97
496.232	7442.15
496.436	7505.63
496.639	7599.84
496.843	7540.45
497.046	7671.52
497.249	7829.21
497.453	7749.34
497.656	7923.42
497.859	7956.19
498.063	8154.84
498.266	8021.72
498.469	8193.75
498.673	8072.92
498.876	8464.08
499.079	8326.87
499.282	8382.17
499.485	8425.17
499.689	8654.55
499.892	8752.85
500.095	8756.94
500.298	8947.4
500.501	8883.92
500.705	9223.88
500.908	9098.95
501.111	9285.32
501.314	9492.16
501.517	9295.56
501.72	9647.81
501.923	9549.51
502.126	9971.39
502.329	9922.24
502.532	10114.75
502.735	10020.54
502.938	10198.71
503.141	10317.5
503.344	10430.13
503.547	10567.35
503.75	10671.79
503.953	10602.16
504.156	10815.15
504.359	11026.09
504.562	11022
504.765	11445.93
504.968	11452.07
505.17	11400.87
505.373	11353.77
505.576	11896.48
505.779	11847.33
505.982	11939.49
506.185	12265.11
506.387	12297.88
506.59	12381.85
506.793	12506.77
506.996	12310.17
507.198	12721.81
507.401	12789.39
507.604	12951.18
507.807	13252.24
508.009	13280.91
508.212	13534.85
508.415	13676.16
508.617	13897.35
508.82	13887.11
509.022	13840
509.225	14351.99
509.428	14435.96
509.63	14438.01
509.833	14378.62
510.035	15173.23
510.238	14743.16
510.44	14902.9
510.643	15165.04
510.845	15390.31
511.048	15455.85
511.25	15638.12
511.453	15662.69
511.655	16377.44
511.858	16105.06
512.06	16252.51
512.262	16682.58
512.465	16193.12
512.667	16598.62
512.87	16805.46
513.072	16963.15
513.274	17215.05
513.477	17337.93
513.679	17471.05
513.881	17833.54
514.084	17903.17
514.286	17860.16
514.488	17942.08
514.69	18705.98
514.893	18495.04
515.095	18501.18
515.297	18810.42
515.499	19203.63
515.701	19230.26
515.904	19430.96
516.106	19992.1
516.308	20082.21
516.51	19916.33
516.712	20114.98
516.914	20428.32
517.116	20479.52
517.318	20647.45
517.52	20911.64
517.722	21198.35
517.925	21227.03
518.127	21429.77
518.329	21653
518.531	21657.1
518.733	22056.45
518.935	22289.92
519.136	22013.45
519.338	22701.56
519.54	22851.06
519.742	23242.23
519.944	23100.92
520.146	23590.38
520.348	23463.41
520.55	23764.46
520.752	23766.51
520.954	24157.67
521.155	24182.24
521.357	24581.6
521.559	24864.22
521.761	25023.96
521.963	25023.96
522.164	25173.46
522.366	25316.82
522.568	25476.56
522.77	25910.73
522.971	26125.77
523.173	25867.72
523.375	26156.49
523.576	26062.28
523.778	26533.31
523.98	27176.37
524.181	27076.02
524.383	27104.7
524.584	27356.6
524.786	27413.94
524.988	27053.5
525.189	27545.01
525.391	27899.31
525.592	28153.26
525.794	28276.13
525.995	28212.65
526.197	28163.5
526.398	28200.36
526.6	28521.89
526.801	28810.65
527.003	28937.63
527.204	28589.47
527.406	29126.04
527.607	29042.07
527.808	29369.75
528.01	28714.4
528.211	29201.82
528.412	29908.36
528.614	29367.7
528.815	29642.13
529.016	29926.8
529.218	29758.86
529.419	29863.31
529.62	30021
529.822	29705.62
530.023	30272.9
530.224	30086.54
530.425	30248.33
530.626	30008.72
530.828	30027.15
531.029	30682.5
531.23	30195.08
531.431	30137.74
531.632	30565.76
531.833	30639.49
532.035	30399.88
532.236	30705.02
532.437	30915.97
532.638	30692.74
532.839	31075.71
533.04	30870.91
533.241	30590.34
533.442	31307.13
533.643	30770.56
533.844	31001.98
534.045	30793.09
534.246	30903.68
534.447	30758.27
534.648	30793.09
534.849	30991.74
535.05	30786.94
535.251	31063.42
535.451	30870.91
535.652	30809.47
535.853	31135.1
536.054	30764.42
536.255	31192.44
536.456	30952.83
536.657	31522.16
536.857	30832
537.058	30682.5
537.259	31163.77
537.46	31296.89
537.66	30854.53
537.861	31069.56
538.062	30928.25
538.263	31065.47
538.463	30885.25
538.664	31335.8
538.865	31186.3
539.065	31384.95
539.266	30772.61
539.466	31481.2
539.667	30772.61
539.868	31350.13
540.068	30932.35
540.269	31180.15
540.469	31223.16
540.67	30834.05
540.87	31221.11
541.071	31210.87
541.271	31387
541.472	30911.87
541.672	30979.45
541.873	30782.85
542.073	30625.15
542.274	31321.46
542.474	30971.26
542.675	31124.86
542.875	31327.61
543.075	31159.67
543.276	30866.81
543.476	31362.42
543.676	31012.22
543.877	31065.47
544.077	31145.34
544.277	30870.91
544.478	30938.49
544.678	30934.4
544.878	31165.82
545.078	31317.37
545.279	30788.99
545.479	30756.22
545.679	30975.36
545.879	30750.08
546.079	30821.76
546.28	30702.98
546.48	30463.36
546.68	31354.23
546.88	30995.84
547.08	30733.7
547.28	31010.17
547.48	30621.06
547.68	30723.46
547.88	30836.09
548.081	30993.79
548.281	30596.48
548.481	30915.97
548.681	31065.47
548.881	31104.38
549.081	30981.5
549.28	30776.7
549.48	31087.99
549.68	30768.51
549.88	30975.36
550.08	30553.48
550.28	31143.29
550.48	30676.35
550.68	30893.44
550.88	30649.73
551.08	30793.09
551.279	30739.84
551.479	30580.1
551.679	30719.36
551.879	30584.19
552.079	30573.95
552.278	30721.41
552.478	30723.46
552.678	30782.85
552.878	30694.78
553.077	30530.95
553.277	30481.8
553.477	30854.53
553.676	30473.6
553.876	30901.63
554.076	30358.92
554.275	30420.36
554.475	30342.53
554.674	30315.91
554.874	30834.05
555.074	30350.73
555.273	30526.85
555.473	30367.11
555.672	30018.96
555.872	30012.81
556.071	30385.54
556.271	30637.44
556.47	29959.56
556.67	30158.22
556.869	30129.55
557.068	29869.45
557.268	29943.18
557.467	29668.75
557.667	30061.96
557.866	30018.96
558.065	29926.8
558.265	29984.14
558.464	29572.5
558.663	29932.94
558.863	29121.94
559.062	30016.91
559.261	29605.27
559.461	30053.77
559.66	29410.71
559.859	29576.59
560.058	29472.15
560.258	29406.61
560.457	29418.9
560.656	29402.52
560.855	29138.33
561.054	29304.21
561.253	29185.43
561.453	29408.66
561.652	29162.9
561.851	29302.17
562.05	28929.44
562.249	28808.61
562.448	29179.29
562.647	29050.27
562.846	28820.89
563.045	28853.66
563.244	28171.69
563.443	28880.28
563.642	28286.37
563.841	28562.85
564.04	28554.66
564.239	28601.76
564.438	28374.44
564.637	28839.33
564.836	28165.54
565.035	27927.98
565.234	28042.67
565.432	28071.34
565.631	28028.33
565.83	27970.99
566.029	27989.42
566.228	27747.76
566.427	27948.46
566.625	27512.24
566.824	27327.92
567.023	27706.8
567.222	27323.83
567.42	27542.96
567.619	27317.68
567.818	27516.34
568.016	27203
568.215	27159.99
568.414	26910.14
568.612	27059.64
568.811	26752.45
569.01	26785.21
569.208	26740.16
569.407	26820.03
569.605	26426.82
569.804	26531.26
570.002	26199.49
570.201	26420.67
570.4	26164.68
570.598	26234.31
570.797	26154.44
570.995	26234.31
571.193	25888.2
571.392	26426.82
571.59	26011.08
571.789	25992.65
571.987	25857.48
572.186	25593.29
572.384	25634.25
572.582	25507.28
572.781	25570.77
572.979	25347.54
573.177	25408.98
573.376	25230.8
573.574	24903.13
573.772	25269.72
573.971	25175.51
574.169	24858.07
574.367	24935.9
574.565	25298.39
574.763	24520.16
574.962	24606.17
575.16	24700.38
575.358	24401.38
575.556	24720.86
575.754	24247.78
575.952	24139.24
576.151	24430.05
576.349	24120.81
576.547	24321.51
576.745	24296.93
576.943	23868.91
577.141	23922.15
577.339	23891.43
577.537	23842.28
577.735	23922.15
577.933	23821.8
578.131	23678.44
578.329	23715.31
578.527	23334.39
578.725	23680.49
578.923	23467.5
579.121	23332.34
579.319	23436.78
579.516	23344.63
579.714	23299.57
579.912	22928.89
580.11	22992.37
580.308	23100.92
580.506	22932.98
580.704	22644.22
580.901	22703.61
581.099	22926.84
581.297	22521.34
581.495	22402.56
581.692	22629.88
581.89	22486.53
582.088	22509.05
582.285	22251.01
582.483	22726.14
582.681	22371.84
582.878	22218.24
583.076	21779.98
583.274	22218.24
583.471	21788.17
583.669	22076.93
583.866	21726.73
584.064	22119.94
584.262	21577.23
584.459	21706.25
584.657	21751.31
584.854	21526.03
585.052	21057.04
585.249	21515.79
585.447	21382.67
585.644	21190.16
585.841	21251.6
586.039	21501.45
586.236	20758.04
586.434	20811.29
586.631	20907.54
586.828	20882.97
587.026	20817.43
587.223	20815.38
587.42	20956.69
587.618	20846.1
587.815	20768.28
588.012	20612.63
588.21	20706.84
588.407	20813.34
588.604	20350.49
588.801	20260.38
588.999	20043.3
589.196	20121.12
589.393	20364.83
589.59	20143.65
589.787	20006.44
589.984	19738.15
590.182	19875.37
590.379	19904.04
590.576	19871.27
590.773	20031.01
590.97	19736.1
591.167	19473.96
591.364	19729.96
591.561	19701.29
591.758	19238.45
591.955	19392.05
592.152	19502.64
592.349	19115.57
592.546	19271.22
592.743	19013.17
592.94	18994.74
593.137	19045.94
593.334	19254.83
593.531	18832.95
593.727	19031.6
593.924	18873.91
594.121	18759.22
594.318	19013.17
594.515	18589.24
594.712	18605.63
594.908	18454.08
595.105	18472.51
595.302	18538.04
595.499	18634.3
595.696	18263.61
595.892	18284.09
596.089	18286.14
596.286	18349.63
596.482	18007.62
596.679	17929.8
596.876	18089.54
597.072	17995.33
597.269	17966.66
597.466	17843.78
597.662	17698.38
597.859	17811.01
598.055	17585.74
598.252	17262.16
598.448	17653.32
598.645	17581.64
598.841	17317.45
599.038	17382.99
599.234	17681.99
599.431	17262.16
599.627	17423.95
599.824	17370.7
600.02	17282.64
600.217	17000.02
600.413	16979.54
600.609	16895.57
600.806	16875.09
601.002	16889.43
601.198	16819.8
601.395	16606.81
601.591	16721.49
601.787	16647.77
601.984	16492.12
602.18	16629.34
602.376	16365.15
602.572	16326.24
602.769	16172.64
602.965	16217.69
603.161	16373.34
603.357	16234.08
603.553	16103.01
603.75	15986.27
603.946	16256.61
604.142	15896.16
604.338	15859.3
604.534	15990.37
604.73	15822.44
604.926	15881.83
605.122	15816.29
605.318	15636.07
605.514	15881.83
605.71	15445.61
605.906	15513.19
606.102	15808.1
606.298	15849.06
606.494	15691.37
606.69	15638.12
606.886	15468.14
607.082	15134.32
607.278	15394.41
607.474	14993.01
607.67	15109.74
607.866	15150.7
608.062	15423.08
608.257	15001.2
608.453	14984.82
608.649	15140.46
608.845	14978.67
609.041	14900.85
609.236	15068.78
609.432	14839.41
609.628	14730.87
609.824	14605.94
610.019	14780.02
610.215	14575.22
610.411	14933.62
610.606	14722.68
610.802	14595.7
610.998	14632.57
611.193	14694.01
611.389	14331.51
611.584	14626.42
611.78	14595.7
611.976	14427.77
612.171	14542.46
612.367	14423.67
612.562	14323.32
612.758	14216.83
612.953	14216.83
613.149	14538.36
613.344	14268.03
613.539	14440.06
613.735	14290.56
613.93	14173.82
614.126	14198.4
614.321	14184.06
614.517	13950.59
614.712	14399.1
614.907	13895.3
615.103	13964.93
615.298	13837.95
615.493	14182.01
615.688	13801.09
615.884	14026.37
616.079	13807.23
616.274	13889.15
616.47	13706.88
616.665	13911.68
616.86	13561.48
617.055	13665.92
617.25	13766.28
617.445	13698.69
617.641	13579.91
617.836	13743.75
618.031	13330.06
618.226	13649.54
618.421	13225.61
618.616	13272.71
618.811	13082.25
619.006	13323.91
619.201	13190.8
619.396	13362.83
619.591	12988.05
619.786	13274.76
619.981	12846.74
620.176	13127.31
620.371	12820.11
620.566	12928.66
620.761	12682.9
620.956	12936.85
621.151	12670.61
621.346	12420.76
621.541	12631.7
621.735	12590.74
621.93	12449.43
622.125	12340.89
622.32	12162.72
622.515	12170.91
622.709	12203.68
622.904	12351.13
623.099	11968.16
623.294	12166.81
623.488	11925.15
623.683	12031.65
623.878	11814.56
624.072	11722.4
624.267	11890.34
624.462	11429.54
624.656	11445.93
624.851	11464.36
625.046	11607.72
625.24	11364.01
625.435	11331.24
625.629	11323.05
625.824	11060.91
626.018	11423.4
626.213	10983.09
626.407	11081.39
626.602	11007.66
626.796	10831.54
626.991	10907.31
627.185	10835.63
627.38	10653.36
627.574	10352.31
627.768	10565.3
627.963	10403.51
628.157	10413.75
628.352	10557.11
628.546	10292.92
628.74	10636.98
628.935	10323.64
629.129	10110.65
629.323	10106.56
629.517	10088.12
629.712	10028.73
629.906	10016.44
630.1	9957.05
630.294	9770.69
630.489	9754.3
630.683	9774.78
630.877	9672.39
631.071	9588.42
631.265	9692.87
631.459	9785.02
631.653	9746.11
631.848	9393.86
632.042	9459.4
632.236	9273.03
632.43	9248.46
632.624	9344.71
632.818	9242.31
633.012	9062.09
633.206	9154.25
633.4	9285.32
633.594	9080.52
633.788	8986.32
633.982	9076.43
634.176	9062.09
634.369	8863.44
634.563	8869.58
634.757	8666.83
634.951	8892.11
635.145	8799.95
635.339	8834.77
635.533	8472.28
635.726	8550.1
635.92	8605.39
636.114	8546
636.308	8537.81
636.501	8484.56
636.695	8351.45
636.889	8263.38
637.083	8359.64
637.276	8292.05
637.47	8193.75
637.664	8081.11
637.857	8144.6
638.051	8031.96
638.244	8113.88
638.438	7886.56
638.632	7868.13
638.825	7722.72
639.019	7792.35
639.212	7829.21
639.406	7638.75
639.599	7648.99
639.793	7605.99
639.986	7509.73
640.18	7681.76
640.373	7532.26
640.567	7491.3
640.76	7489.25
640.954	7571.17
641.147	7327.46
641.34	7286.5
641.534	7208.68
641.727	7323.37
641.92	7218.92
642.114	7128.81
642.307	7042.79
642.5	6932.2
642.694	7065.32
642.887	6874.86
643.08	7077.61
643.273	6946.54
643.467	6833.9
643.66	6803.18
643.853	6721.26
644.046	6633.2
644.239	6913.77
644.432	6725.36
644.626	6749.93
644.819	6596.34
645.012	6430.45
645.205	6653.68
645.398	6688.5
645.591	6237.94
645.784	6491.89
645.977	6348.53
646.17	6297.33
646.363	6319.86
646.556	6160.12
646.749	6278.9
646.942	6244.09
647.135	6156.02
647.328	6360.82
647.521	6020.86
647.714	6022.91
647.907	6061.82
648.099	5975.8
648.292	6022.91
648.485	5932.79
648.678	5889.79
648.871	5908.22
649.064	5908.22
649.256	5879.55
649.449	5777.15
649.642	5617.41
649.835	5687.04
650.027	5684.99
650.22	5773.05
650.413	5672.7
650.605	5754.62
650.798	5691.13
650.991	5412.61
651.183	5588.74
651.376	5510.91
651.568	5426.95
651.761	5527.3
651.954	5519.11
652.146	5320.45
652.339	5465.86
652.531	5371.65
652.724	5236.49
652.916	5181.19
653.109	5226.25
653.301	5113.61
653.494	5195.53
653.686	5089.03
653.879	5134.09
654.071	5127.94
654.263	5207.81
654.456	5080.84
654.648	4908.81
654.84	4972.3
655.033	5027.59
655.225	4990.73
655.417	4951.82
655.61	4998.92
655.802	4976.39
655.994	4886.28
656.186	4894.47
656.379	4738.83
656.571	4712.21
656.763	4744.97
656.955	4597.52
657.148	4689.68
657.34	4720.4
657.532	4593.42
657.724	4699.92
657.916	4716.3
658.108	4564.75
658.3	4570.9
658.492	4568.85
658.684	4505.36
658.876	4458.26
659.068	4441.87
659.26	4347.67
659.452	4478.74
659.644	4339.48
659.836	4411.15
660.028	4419.35
660.22	4269.84
660.412	4435.73
660.604	4353.81
660.796	4192.02
660.988	4302.61
661.18	4224.79
661.372	4099.86
661.563	4159.25
661.755	4149.01
661.947	4218.64
662.139	4007.7
662.331	4116.25
662.522	4063
662.714	4028.18
662.906	4009.75
663.097	4073.24
663.289	3909.4
663.481	3909.4
663.673	4015.9
663.864	3833.63
664.056	4028.18
664.247	4007.7
664.439	3831.58
664.631	3819.29
664.822	3831.58
665.014	3745.56
665.205	3933.98
665.397	3694.36
665.588	3743.52
665.78	3862.3
665.971	3786.52
666.163	3589.92
666.354	3659.55
666.546	3581.73
666.737	3491.62
666.929	3575.58
667.12	3757.85
667.311	3575.58
667.503	3692.32
667.694	3540.77
667.885	3561.25
668.077	3532.58
668.268	3567.39
668.459	3411.75
668.651	3573.53
668.842	3419.94
669.033	3469.09
669.224	3528.48
669.416	3508
669.607	3411.75
669.798	3272.48
669.989	3426.08
670.18	3370.79
670.371	3438.37
670.563	3266.34
670.754	3288.87
670.945	3278.63
671.136	3288.87
671.327	3217.19
671.518	3329.83
671.709	3249.96
671.9	3317.54
672.091	3290.92
672.282	3323.68
672.473	3174.18
672.664	3256.1
672.855	3135.27
673.046	3188.52
673.237	3282.72
673.428	3106.6
673.619	3213.09
673.809	3233.57
674	3053.35
674.191	3204.9
674.382	3133.22
674.573	3075.88
674.764	3034.92
674.954	3065.64
675.145	2875.18
675.336	2887.47
675.527	3106.6
675.717	3024.68
675.908	3057.45
676.099	3012.39
676.289	3090.21
676.48	2969.38
676.671	3014.44
676.861	2934.57
677.052	3010.34
677.243	2979.62
677.433	3016.49
677.624	3016.49
677.814	2934.57
678.005	2967.34
678.195	2893.61
678.386	2848.55
678.576	3002.15
678.767	2791.21
678.957	2887.47
679.148	3006.25
679.338	2895.66
679.529	2856.75
679.719	2858.79
679.909	2811.69
680.1	2873.13
680.29	2918.18
680.481	2901.8
680.671	2922.28
680.861	2713.39
681.052	2885.42
681.242	2697
681.432	2811.69
681.622	2918.18
681.813	2684.72
682.003	2801.45
682.193	2789.16
682.383	2705.2
682.573	2836.27
682.764	2666.28
682.954	2729.77
683.144	2799.4
683.334	2873.13
683.524	2713.39
683.714	2709.29
683.904	2709.29
684.094	2828.07
684.284	2774.83
684.474	2785.07
684.664	2811.69
684.854	2754.35
685.044	2639.66
685.234	2633.52
685.424	2625.33
685.614	2709.29
685.804	2717.48
685.994	2715.44
686.184	2680.62
686.374	2715.44
686.564	2619.18
686.753	2672.43
686.943	2592.56
687.133	2582.32
687.323	2606.89
687.513	2557.74
687.702	2529.07
687.892	2510.64
688.082	2563.89
688.272	2672.43
688.461	2594.61
688.651	2553.65
688.841	2443.06
689.03	2383.66
689.22	2385.71
689.41	2475.82
689.599	2449.2
689.789	2508.59
689.979	2545.45
690.168	2385.71
690.358	2340.66
690.547	2492.21
690.737	2393.9
690.926	2537.26
691.116	2363.19
691.305	2287.41
691.495	2287.41
691.684	2338.61
691.874	2481.97
692.063	2209.59
692.252	2346.8
692.442	2260.79
692.631	2314.03
692.82	2373.43
693.01	2330.42
693.199	2311.99
693.388	2350.9
693.578	2221.88
693.767	2381.62
693.956	2262.83
694.146	2238.26
694.335	2250.55
694.524	2248.5
694.713	2289.46
694.902	2185.01
695.092	2180.92
695.281	2221.88
695.47	2230.07
695.659	2246.45
695.848	2252.59
696.037	2148.15
696.226	2148.15
696.415	2223.92
696.604	2217.78
696.793	2205.49
696.982	2262.83
697.171	2203.44
697.36	2047.8
697.549	2189.11
697.738	2168.63
697.927	2156.34
698.116	2199.35
698.305	2096.95
698.494	2041.65
698.683	2144.05
698.872	2318.13
699.061	2168.63
699.25	2207.54
699.438	2062.13
699.627	2213.68
699.816	2144.05
700.005	2076.47
700.193	2162.48
700.382	2058.04
700.571	2195.25
700.76	2197.3
700.948	2195.25
701.137	2076.47
701.326	2139.96
701.514	2096.95
701.703	2094.9
701.892	2045.75
702.08	2090.81
702.269	2178.87
702.457	2139.96
702.646	2197.3
702.834	1978.17
703.023	2148.15
703.212	2166.58
703.4	2033.46
703.589	2131.76
703.777	2254.64
703.965	2072.37
704.154	2170.68
704.342	2123.57
704.531	2002.74
704.719	2064.18
704.907	2123.57
705.096	2029.37
705.284	1988.41
705.472	2066.23
705.661	2176.82
705.849	2090.81
706.037	2221.88
706.226	2082.61
706.414	2113.33
706.602	2041.65
706.79	2060.09
706.979	2033.46
707.167	2109.24
707.355	2086.71
707.543	2154.29
707.731	2082.61
707.919	2090.81
708.107	2029.37
708.296	2094.9
708.484	2125.62
708.672	2092.85
708.86	2086.71
709.048	2158.39
709.236	2082.61
709.424	2060.09
709.612	2025.27
709.8	2064.18
709.988	2150.2
710.176	2199.35
710.364	2092.85
710.551	2121.52
710.739	2117.43
710.927	2101.05
711.115	2205.49
711.303	2084.66
711.491	2105.14
711.679	2127.67
711.866	2185.01
712.054	2043.7
712.242	2107.19
712.43	2148.15
712.617	2137.91
712.805	2176.82
712.993	2230.07
713.181	2107.19
713.368	2133.81
713.556	2045.75
713.744	2119.48
713.931	2156.34
714.119	2084.66
714.306	2074.42
714.494	2037.56
714.682	2115.38
714.869	2088.76
715.057	2109.24
715.244	2047.8
715.432	2162.48
715.619	2197.3
715.807	2111.29
715.994	2033.46
716.182	2199.35
716.369	2246.45
716.556	2084.66
716.744	2125.62
716.931	2099
717.119	2045.75
717.306	2058.04
717.493	2123.57
717.681	2082.61
717.868	2180.92
718.055	2228.02
718.242	2119.48
718.43	2082.61
718.617	2078.52
718.804	2017.08
718.991	2135.86
719.179	2201.4
719.366	2066.23
719.553	2139.96
719.74	2148.15
719.927	2178.87
720.114	2074.42
720.301	2209.59
720.488	2160.44
720.676	2000.69
720.863	2055.99
721.05	2142
721.237	2248.5
721.424	2164.53
721.611	2160.44
721.798	2008.89
721.985	2160.44
722.172	2115.38
722.358	2166.58
722.545	2074.42
722.732	2135.86
722.919	2142
723.106	2021.17
723.293	2131.76
723.48	2053.94
723.667	2004.79
723.853	1984.31
724.04	2092.85
724.227	1955.64
724.414	2148.15
724.6	2049.85
724.787	2043.7
724.974	2191.16
725.161	2000.69
725.347	2084.66
725.534	2209.59
725.72	2049.85
725.907	1935.16
726.094	2189.11
726.28	2053.94
726.467	2123.57
726.653	2072.37
726.84	2119.48
727.027	2185.01
727.213	2152.24
727.4	2041.65
727.586	2271.03
727.773	2094.9
727.959	2264.88
728.145	2174.77
728.332	2117.43
728.518	2262.83
728.705	2017.08
728.891	2174.77
729.077	2123.57
729.264	2074.42
729.45	2055.99
729.636	2053.94
729.823	2076.47
730.009	2131.76
730.195	2074.42
730.382	2025.27
730.568	2117.43
730.754	2004.79
730.94	2074.42
731.126	2166.58
731.313	2127.67
731.499	2156.34
731.685	2074.42
731.871	2142
732.057	1988.41
732.243	2133.81
732.429	2058.04
732.615	2051.89
732.801	2117.43
732.987	2068.28
733.173	2062.13
733.359	2019.13
733.545	2135.86
733.731	1980.22
733.917	2060.09
734.103	2055.99
734.289	2078.52
734.475	2090.81
734.661	2164.53
734.847	2041.65
735.033	1963.83
735.219	2096.95
735.404	1994.55
735.59	1994.55
735.776	1879.86
735.962	2111.29
736.148	2045.75
736.333	2019.13
736.519	1992.5
736.705	2033.46
736.89	1976.12
737.076	2068.28
737.262	2012.98
737.447	1935.16
737.633	1922.87
737.819	1967.93
738.004	1969.98
738.19	2058.04
738.375	2047.8
738.561	2012.98
738.747	1933.11
738.932	1926.97
739.118	1951.54
739.303	2033.46
739.489	2006.84
739.674	1926.97
739.859	1935.16
740.045	2049.85
740.23	1904.44
740.416	1816.38
740.601	1959.74
740.786	1910.58
740.972	1926.97
741.157	1881.91
741.342	1920.82
741.528	1886.01
741.713	1902.39
741.898	1845.05
742.084	1926.97
742.269	1865.53
742.454	1838.91
742.639	1855.29
742.824	1873.72
743.01	1890.1
743.195	1826.62
743.38	1877.82
743.565	1853.24
743.75	1816.38
743.935	1771.32
744.12	1861.43
744.305	1748.79
744.49	1722.17
744.675	1734.46
744.86	1748.79
745.045	1828.67
745.23	1779.51
745.415	1718.08
745.6	1861.43
745.785	1681.21
745.97	1738.55
746.155	1673.02
746.34	1795.9
746.525	1705.79
746.71	1707.84
746.895	1677.12
747.079	1656.64
747.264	1632.06
747.449	1644.35
747.634	1613.63
747.819	1611.58
748.003	1689.4
748.188	1640.25
748.373	1558.33
748.557	1673.02
748.742	1673.02
748.927	1597.24
749.111	1566.53
749.296	1652.54
749.481	1578.81
749.665	1517.37
749.85	1509.18
750.034	1451.84
750.219	1531.71
750.404	1451.84
750.588	1505.09
750.773	1472.32
750.957	1554.24
751.141	1568.57
751.326	1527.61
751.51	1472.32
751.695	1464.13
751.879	1460.03
752.064	1488.7
752.248	1410.88
752.432	1462.08
752.617	1394.5
752.801	1386.3
752.985	1386.3
753.17	1472.32
753.354	1423.17
753.538	1339.2
753.722	1390.4
753.907	1445.7
754.091	1365.82
754.275	1320.77
754.459	1308.48
754.643	1244.99
754.828	1306.43
755.012	1288
755.196	1238.85
755.38	1296.19
755.564	1314.63
755.748	1197.89
755.932	1251.14
756.116	1290.05
756.3	1173.32
756.484	1251.14
756.668	1189.7
756.852	1124.16
757.036	1173.32
757.22	1140.55
757.404	1132.36
757.588	1150.79
757.772	1148.74
757.956	1189.7
758.14	1187.65
758.323	1140.55
758.507	1140.55
758.691	1089.35
758.875	1101.64
759.059	1165.12
759.242	1103.68
759.426	1118.02
759.61	1064.77
759.794	1126.21
759.977	1124.16
760.161	1120.07
760.345	1060.68
760.528	1050.44
760.712	1167.17
760.895	1103.68
761.079	1091.4
761.263	966.47
761.446	1083.2
761.63	989
761.813	1066.82
761.997	1009.48
762.18	986.95
762.364	991.05
762.547	1038.15
762.731	909.13
762.914	995.14
763.098	1003.33
763.281	968.52
763.464	1001.29
763.648	945.99
763.831	888.65
764.015	960.33
764.198	978.76
764.381	917.32
764.564	937.8
764.748	952.13
764.931	900.94
765.114	776.01
765.297	927.56
765.481	849.74
765.664	911.18
765.847	927.56
766.03	921.42
766.213	923.46
766.397	919.37
766.58	958.28
766.763	874.31
766.946	902.98
767.129	862.02
767.312	923.46
767.495	845.64
767.678	935.75
767.861	894.79
768.044	902.98
768.227	796.49
768.41	919.37
768.593	864.07
768.776	864.07
768.959	794.44
769.142	825.16
769.324	808.78
769.507	880.46
769.69	857.93
769.873	773.96
770.056	964.42
770.239	802.63
770.421	823.11
770.604	837.45
770.787	857.93
770.97	720.71
771.152	794.44
771.335	816.97
771.518	796.49
771.7	796.49
771.883	909.13
772.066	737.1
772.248	730.95
772.431	798.54
772.613	821.06
772.796	710.47
772.978	763.72
773.161	788.3
773.343	825.16
773.526	735.05
773.708	673.61
773.891	763.72
774.073	735.05
774.256	714.57
774.438	724.81
774.621	700.23
774.803	722.76
774.985	714.57
775.168	718.67
775.35	661.32
775.532	700.23
775.715	644.94
775.897	710.47
776.079	616.27
776.261	673.61
776.444	567.12
776.626	665.42
776.808	659.28
776.99	636.75
777.173	667.47
777.355	671.56
777.537	632.65
777.719	644.94
777.901	583.5
778.083	616.27
778.265	626.51
778.447	622.41
778.629	565.07
778.811	612.17
778.993	606.03
779.175	653.13
779.357	546.64
779.539	583.5
779.721	624.46
779.903	603.98
780.085	534.35
780.267	597.84
780.449	591.69
780.631	601.93
780.812	558.92
780.994	542.54
781.176	509.77
781.358	550.73
781.54	515.92
781.721	485.2
781.903	542.54
782.085	595.79
782.267	585.55
782.448	509.77
782.63	503.63
782.812	522.06
782.993	540.49
783.175	505.68
783.357	520.01
783.538	493.39
783.72	423.76
783.901	456.53
784.083	501.58
784.264	468.81
784.446	434
784.627	425.81
784.809	505.68
784.99	470.86
785.172	419.66
785.353	468.81
785.535	425.81
785.716	454.48
785.897	358.22
786.079	421.71
786.26	446.29
786.441	429.9
786.623	350.03
786.804	399.18
786.985	331.6
787.167	378.7
787.348	444.24
787.529	415.57
787.71	413.52
787.891	405.33
788.073	382.8
788.254	413.52
788.435	411.47
788.616	384.85
788.797	329.55
788.978	364.37
789.159	315.22
789.34	462.67
789.522	429.9
789.703	333.65
789.884	362.32
790.065	390.99
790.246	345.94
790.427	249.68
790.607	395.09
790.788	366.42
790.969	388.94
791.15	366.42
791.331	315.22
791.512	352.08
791.693	300.88
791.874	331.6
792.054	350.03
792.235	345.94
792.416	288.59
792.597	266.07
792.778	243.54
792.958	386.9
793.139	352.08
793.32	321.36
793.5	239.44
793.681	382.8
793.862	264.02
794.042	362.32
794.223	243.54
794.404	296.78
794.584	313.17
794.765	247.63
794.945	268.11
795.126	307.02
795.306	307.02
795.487	233.3
795.667	280.4
795.848	272.21
796.028	323.41
796.209	288.59
796.389	313.17
796.57	216.91
796.75	235.35
796.93	192.34
797.111	264.02
797.291	294.74
797.471	272.21
797.652	259.92
797.832	241.49
798.012	313.17
798.192	175.95
798.373	229.2
798.553	266.07
798.733	292.69
798.913	194.39
799.093	276.31
799.274	227.15
799.454	341.84
799.634	319.31
799.814	304.98
799.994	356.18
800.174	233.3
800.354	208.72
800.534	288.59
800.714	243.54
800.894	237.39
801.074	255.83
801.254	268.11
801.434	259.92
801.614	200.53
801.794	251.73
801.974	853.83
802.154	233.3
802.334	249.68
802.514	157.52
802.693	175.95
802.873	182.1
803.053	231.25
803.233	218.96
803.413	239.44
803.592	274.26
803.772	292.69
803.952	233.3
804.131	212.82
804.311	227.15
804.491	239.44
804.67	184.15
804.85	266.07
805.03	204.63
805.209	214.87
805.389	173.91
805.568	237.39
805.748	225.11
805.928	202.58
806.107	247.63
806.287	231.25
806.466	251.73
806.646	182.1
806.825	216.91
807.004	198.48
807.184	272.21
807.363	214.87
807.543	264.02
807.722	235.35
807.901	190.29
808.081	223.06
808.26	157.52
808.439	100.18
808.619	194.39
808.798	225.11
808.977	124.76
809.156	218.96
809.336	128.85
809.515	257.87
809.694	202.58
809.873	167.76
810.052	214.87
810.231	214.87
810.411	184.15
810.59	188.24
810.769	161.62
810.948	157.52
811.127	159.57
811.306	126.8
811.485	135
811.664	208.72
811.843	194.39
812.022	247.63
812.201	124.76
812.38	202.58
812.559	104.28
812.737	247.63
812.916	79.7
813.095	124.76
813.274	218.96
813.453	159.57
813.632	153.43
813.811	153.43
813.989	120.66
814.168	157.52
814.347	104.28
814.526	110.42
814.704	157.52
814.883	161.62
815.062	69.46
815.24	165.71
815.419	85.84
815.598	210.77
815.776	61.27
815.955	169.81
816.133	153.43
816.312	178
816.49	128.85
816.669	159.57
816.847	165.71
817.026	100.18
817.204	69.46
817.383	79.7
817.561	85.84
817.74	173.91
817.918	157.52
818.097	116.56
818.275	116.56
818.453	132.95
818.632	192.34
818.81	192.34
818.988	91.99
819.167	26.45
819.345	145.24
819.523	178
819.701	126.8
819.879	161.62
820.058	149.33
820.236	190.29
820.414	85.84
820.592	206.67
820.77	149.33
820.948	83.8
821.127	118.61
821.305	102.23
821.483	124.76
821.661	192.34
821.839	143.19
822.017	110.42
822.195	145.24
822.373	169.81
822.551	83.8
822.729	51.03
822.907	63.32
823.085	157.52
823.262	36.69
823.44	77.65
823.618	75.6
823.796	137.04
823.974	91.99
824.152	94.04
824.329	151.38
824.507	91.99
824.685	104.28
824.863	153.43
825.04	186.19
825.218	100.18
825.396	120.66
825.574	91.99
825.751	96.08
825.929	116.56
826.107	100.18
826.284	51.03
826.462	135
826.639	10.07
826.817	118.61
826.994	100.18
827.172	-2.22
827.349	124.76
827.527	198.48
827.704	59.22
827.882	124.76
828.059	67.41
828.237	67.41
828.414	75.6
828.591	10.07
828.769	141.14
828.946	5.97
829.124	79.7
829.301	145.24
829.478	110.42
829.655	110.42
829.833	59.22
830.01	137.04
830.187	173.91
830.364	116.56
830.542	75.6
830.719	163.67
830.896	116.56
831.073	77.65
831.25	167.76
831.427	44.88
831.604	114.52
831.782	34.64
831.959	40.79
832.136	75.6
832.313	167.76
832.49	124.76
832.667	87.89
832.844	81.75
833.021	126.8
833.198	18.26
833.374	59.22
833.551	46.93
833.728	51.03
833.905	106.32
834.082	36.69
834.259	42.84
834.436	124.76
834.612	61.27
834.789	200.53
834.966	83.8
835.143	65.36
835.319	46.93
835.496	128.85
835.673	149.33
835.85	106.32
836.026	85.84
836.203	114.52
836.38	34.64
836.556	61.27
836.733	42.84
836.909	100.18
837.086	-14.51
837.262	75.6
837.439	12.12
837.616	83.8
837.792	51.03
837.968	77.65
838.145	79.7
838.321	100.18
838.498	48.98
838.674	-4.27
838.851	55.12
839.027	159.57
839.203	75.6
839.38	38.74
839.556	42.84
839.732	157.52
839.909	40.79
840.085	108.37
840.261	59.22
840.437	44.88
840.614	38.74
840.79	139.09
840.966	102.23
841.142	34.64
841.318	-6.31
841.494	59.22
841.671	91.99
841.847	63.32
842.023	75.6
842.199	28.5
842.375	139.09
842.551	46.93
842.727	40.79
842.903	75.6
843.079	10.07
843.255	165.71
843.431	30.55
843.607	75.6
843.783	34.64
843.959	42.84
844.134	75.6
844.31	96.08
844.486	12.12
844.662	59.22
844.838	77.65
845.013	53.08
845.189	55.12
845.365	89.94
845.541	61.27
845.716	34.64
845.892	67.41
846.068	44.88
846.244	-4.27
846.419	108.37
846.595	40.79
846.77	-6.31
846.946	132.95
847.122	63.32
847.297	53.08
847.473	124.76
847.648	85.84
847.824	-6.31
847.999	12.12
848.175	12.12
848.35	-0.17
848.526	173.91
848.701	77.65
848.876	85.84
849.052	132.95
849.227	69.46
849.403	63.32
849.578	71.51
849.753	8.02
849.929	96.08
850.104	-12.46
850.279	28.5
850.454	83.8
850.63	145.24
850.805	34.64
850.98	63.32
851.155	63.32
851.33	48.98
851.505	75.6
851.681	151.38
851.856	53.08
852.031	94.04
852.206	12.12
852.381	67.41
852.556	-37.03
852.731	55.12
852.906	81.75
853.081	34.64
853.256	51.03
853.431	-10.41
853.606	26.45
853.781	42.84
853.956	55.12
854.131	1.88
854.305	59.22
854.48	34.64
854.655	36.69
854.83	71.51
855.005	14.17
855.18	32.6
855.354	5.97
855.529	28.5
855.704	20.31
855.879	100.18
856.053	77.65
856.228	77.65
856.403	-14.51
856.577	53.08
856.752	1.88
856.926	44.88
857.101	42.84
857.276	3.93
857.45	26.45
857.625	59.22
857.799	71.51
857.974	-2.22
858.148	1.88
858.323	126.8
858.497	10.07
858.672	100.18
858.846	51.03
859.02	18.26
859.195	-2.22
859.369	63.32
859.543	57.17
859.718	26.45
859.892	26.45
860.066	53.08
860.241	-6.31
860.415	8.02
860.589	36.69
860.763	59.22
860.938	10.07
861.112	55.12
861.286	10.07
861.46	55.12
861.634	36.69
861.808	73.56
861.982	38.74
862.157	26.45
862.331	46.93
862.505	-20.65
862.679	8.02
862.853	26.45
863.027	-30.89
863.201	143.19
863.375	94.04
863.549	30.55
863.722	14.17
863.896	110.42
864.07	18.26
864.244	38.74
864.418	42.84
864.592	118.61
864.766	-37.03
864.939	71.51
865.113	20.31
865.287	10.07
865.461	59.22
865.634	-6.31
865.808	-43.18
865.982	5.97
866.156	-41.13
866.329	14.17
866.503	-22.7
866.676	-18.6
866.85	-2.22
867.024	-43.18
867.197	53.08
867.371	40.79
867.544	26.45
867.718	22.36
867.891	-4.27
868.065	59.22
868.238	-6.31
868.412	53.08
868.585	-4.27
868.759	100.18
868.932	-43.18
869.105	67.41
869.279	-4.27
869.452	77.65
869.625	8.02
869.799	-10.41
869.972	46.93
870.145	69.46
870.319	1.88
870.492	18.26
870.665	83.8
870.838	44.88
871.011	-34.99
871.185	30.55
871.358	55.12
871.531	69.46
871.704	42.84
871.877	79.7
872.05	10.07
872.223	10.07
872.396	-10.41
872.569	38.74
872.742	-61.61
872.915	110.42
873.088	44.88
873.261	44.88
873.434	-12.46
873.607	51.03
873.78	85.84
873.953	28.5
874.126	104.28
874.299	48.98
874.471	1.88
874.644	32.6
874.817	59.22
874.99	83.8
875.163	34.64
875.335	-6.31
875.508	1.88
875.681	83.8
875.853	102.23
876.026	20.31
876.199	42.84
876.371	1.88
876.544	1.88
876.717	12.12
876.889	22.36
877.062	-10.41
877.234	-26.79
877.407	69.46
877.579	-16.55
877.752	44.88
877.924	-88.23
878.097	51.03
878.269	26.45
878.442	71.51
878.614	28.5
878.786	57.17
878.959	34.64
879.131	24.4
879.303	-43.18
879.476	22.36
879.648	-6.31
879.82	46.93
879.993	-4.27
880.165	-14.51
880.337	-16.55
880.509	10.07
880.681	-22.7
880.854	3.93
881.026	42.84
881.198	46.93
881.37	59.22
881.542	26.45
881.714	1.88
881.886	-37.03
882.058	44.88
882.23	57.17
882.402	-45.23
882.574	71.51
882.746	91.99
882.918	51.03
883.09	-18.6
883.262	42.84
883.434	20.31
883.606	51.03
883.778	-12.46
883.95	59.22
884.122	-63.66
884.293	-22.7
884.465	40.79
884.637	63.32
884.809	26.45
884.98	24.4
885.152	20.31
885.324	104.28
885.496	-6.31
885.667	1.88
885.839	-18.6
886.011	20.31
886.182	26.45
886.354	20.31
886.525	63.32
886.697	-39.08
886.869	26.45
887.04	89.94
887.212	87.89
887.383	5.97
887.555	77.65
887.726	-18.6
887.897	-45.23
888.069	20.31
888.24	24.4
888.412	55.12
888.583	-67.75
888.754	-4.27
888.926	24.4
889.097	36.69
889.268	32.6
889.44	12.12
889.611	53.08
889.782	79.7
889.953	8.02
890.125	63.32
890.296	59.22
890.467	46.93
890.638	42.84
890.809	63.32
890.98	-20.65
891.151	-4.27
891.323	42.84
891.494	51.03
891.665	89.94
891.836	36.69
892.007	3.93
892.178	-28.84
892.349	63.32
892.52	-6.31
892.691	-41.13
892.862	75.6
893.032	-6.31
893.203	-30.89
893.374	34.64
893.545	83.8
893.716	-20.65
893.887	81.75
894.057	-10.41
894.228	53.08
894.399	10.07
894.57	34.64
894.74	-47.27
894.911	18.26
895.082	-22.7
895.253	-14.51
895.423	10.07
895.594	65.36
895.764	81.75
895.935	32.6
896.106	83.8
896.276	34.64
896.447	1.88
896.617	-8.36
896.788	-20.65
896.958	67.41
897.129	-14.51
897.299	59.22
897.47	83.8
897.64	100.18
897.81	-43.18
897.981	30.55
898.151	-22.7
898.322	28.5
898.492	-69.8
898.662	-30.89
898.832	100.18
899.003	-30.89
899.173	-43.18
899.343	-53.42
899.513	-20.65
