Data from USB4F104151__5__14-42-30-296.txt Node

Date: Thu Mar 13 14:42:30 EDT 2025
User: louis
Spectrometer: USB4F10415
Trigger mode: 4
Integration Time (sec): 2.000000E-2
Scans to average: 1
Electric dark correction enabled: true
Nonlinearity correction enabled: false
Boxcar width: 0
XAxis mode: Wavelengths
Number of Pixels in Spectrum: 3648
>>>>>Begin Spectral Data<<<<<
178.204	-78.85
178.424	-78.85
178.644	-78.85
178.864	-123.9
179.084	-125.95
179.304	1.02
179.524	13.31
179.744	15.36
179.964	74.75
180.184	27.65
180.404	-13.31
180.624	-11.26
180.844	-3.07
181.064	-50.18
181.283	-35.84
181.503	-103.42
181.723	84.99
181.943	-29.7
182.163	68.61
182.383	-31.74
182.602	56.32
182.822	27.65
183.042	52.22
183.262	19.46
183.482	-25.6
183.701	27.65
183.921	35.84
184.141	-7.17
184.361	80.89
184.58	-39.94
184.8	-13.31
185.02	-68.61
185.239	128
185.459	-5.12
185.679	91.13
185.898	-33.79
186.118	60.42
186.338	15.36
186.557	-21.5
186.777	21.5
186.997	-54.27
187.216	-13.31
187.436	19.46
187.655	19.46
187.875	72.7
188.095	27.65
188.314	-3.07
188.534	25.6
188.753	-29.7
188.973	21.5
189.192	72.7
189.412	25.6
189.631	13.31
189.851	93.18
190.07	44.03
190.29	-60.42
190.509	19.46
190.729	-27.65
190.948	52.22
191.168	93.18
191.387	68.61
191.607	52.22
191.826	-13.31
192.045	3.07
192.265	35.84
192.484	54.27
192.704	-33.79
192.923	-70.65
193.142	11.26
193.362	-11.26
193.581	21.5
193.8	37.89
194.02	66.56
194.239	-27.65
194.458	44.03
194.678	44.03
194.897	48.13
195.116	93.18
195.335	37.89
195.555	35.84
195.774	-19.46
195.993	-70.65
196.212	-3.07
196.432	-17.41
196.651	35.84
196.87	-5.12
197.089	46.08
197.308	29.7
197.528	3.07
197.747	-37.89
197.966	-9.22
198.185	62.46
198.404	-1.02
198.623	11.26
198.842	-37.89
199.062	21.5
199.281	-15.36
199.5	-17.41
199.719	21.5
199.938	29.7
200.157	21.5
200.376	-31.74
200.595	27.65
200.814	27.65
201.033	-1.02
201.252	-50.18
201.471	13.31
201.69	29.7
201.909	9.22
202.128	3.07
202.347	68.61
202.566	11.26
202.785	-70.65
203.004	-37.89
203.223	62.46
203.442	-3.07
203.661	-29.7
203.879	95.23
204.098	60.42
204.317	-44.03
204.536	76.8
204.755	29.7
204.974	27.65
205.193	35.84
205.411	103.42
205.63	46.08
205.849	31.74
206.068	44.03
206.287	62.46
206.505	44.03
206.724	78.85
206.943	-27.65
207.162	25.6
207.381	48.13
207.599	31.74
207.818	-31.74
208.037	29.7
208.255	-11.26
208.474	11.26
208.693	11.26
208.911	3.07
209.13	-5.12
209.349	35.84
209.567	-29.7
209.786	80.89
210.005	-11.26
210.223	68.61
210.442	-31.74
210.661	29.7
210.879	62.46
211.098	27.65
211.316	17.41
211.535	48.13
211.753	27.65
211.972	9.22
212.191	25.6
212.409	-15.36
212.628	31.74
212.846	62.46
213.065	13.31
213.283	125.95
213.502	-13.31
213.72	-15.36
213.938	46.08
214.157	-60.42
214.375	68.61
214.594	11.26
214.812	89.09
215.031	-50.18
215.249	-7.17
215.467	19.46
215.686	19.46
215.904	76.8
216.122	39.94
216.341	93.18
216.559	37.89
216.778	44.03
216.996	35.84
217.214	-35.84
217.432	5.12
217.651	66.56
217.869	15.36
218.087	-11.26
218.306	-54.27
218.524	76.8
218.742	11.26
218.96	87.04
219.179	-46.08
219.397	-5.12
219.615	87.04
219.833	-3.07
220.051	-13.31
220.27	105.47
220.488	3.07
220.706	-3.07
220.924	-3.07
221.142	-17.41
221.36	48.13
221.578	93.18
221.796	9.22
222.015	9.22
222.233	107.52
222.451	37.89
222.669	-31.74
222.887	78.85
223.105	-80.89
223.323	21.5
223.541	-19.46
223.759	-3.07
223.977	44.03
224.195	87.04
224.413	31.74
224.631	46.08
224.849	48.13
225.067	80.89
225.285	11.26
225.503	-21.5
225.721	58.37
225.939	27.65
226.157	72.7
226.375	125.95
226.592	-33.79
226.81	15.36
227.028	87.04
227.246	27.65
227.464	21.5
227.682	119.81
227.9	128
228.117	89.09
228.335	3.07
228.553	-25.6
228.771	5.12
228.989	13.31
229.206	-19.46
229.424	3.07
229.642	-84.99
229.86	-27.65
230.077	35.84
230.295	97.28
230.513	25.6
230.731	101.37
230.948	19.46
231.166	99.33
231.384	62.46
231.601	-35.84
231.819	35.84
232.037	-29.7
232.254	-54.27
232.472	62.46
232.689	-41.98
232.907	-29.7
233.125	-46.08
233.342	11.26
233.56	-13.31
233.777	-35.84
233.995	-3.07
234.213	60.42
234.43	29.7
234.648	-25.6
234.865	37.89
235.083	-60.42
235.3	-35.84
235.518	1.02
235.735	37.89
235.953	21.5
236.17	15.36
236.388	19.46
236.605	1.02
236.822	76.8
237.04	46.08
237.257	-9.22
237.475	-78.85
237.692	44.03
237.909	-74.75
238.127	44.03
238.344	-91.13
238.562	-11.26
238.779	-5.12
238.996	39.94
239.214	-17.41
239.431	97.28
239.648	-5.12
239.865	11.26
240.083	27.65
240.3	-39.94
240.517	44.03
240.735	109.57
240.952	5.12
241.169	35.84
241.386	21.5
241.603	-33.79
241.821	-76.8
242.038	35.84
242.255	-27.65
242.472	-37.89
242.689	35.84
242.907	107.52
243.124	52.22
243.341	60.42
243.558	11.26
243.775	-50.18
243.992	-37.89
244.209	60.42
244.426	74.75
244.643	-9.22
244.86	-46.08
245.078	27.65
245.295	-11.26
245.512	-33.79
245.729	-9.22
245.946	23.55
246.163	-13.31
246.38	56.32
246.597	60.42
246.814	17.41
247.031	37.89
247.248	23.55
247.464	23.55
247.681	44.03
247.898	93.18
248.115	-21.5
248.332	-13.31
248.549	7.17
248.766	19.46
248.983	27.65
249.2	29.7
249.417	-46.08
249.633	-5.12
249.85	3.07
250.067	-25.6
250.284	27.65
250.501	-46.08
250.717	56.32
250.934	-33.79
251.151	-1.02
251.368	-21.5
251.585	5.12
251.801	-11.26
252.018	11.26
252.235	70.65
252.451	-7.17
252.668	-41.98
252.885	-46.08
253.102	19.46
253.318	13.31
253.535	-21.5
253.752	-3.07
253.968	-37.89
254.185	39.94
254.401	-50.18
254.618	3.07
254.835	-54.27
255.051	101.37
255.268	-3.07
255.484	19.46
255.701	-5.12
255.917	99.33
256.134	35.84
256.351	21.5
256.567	-5.12
256.784	35.84
257	-17.41
257.217	68.61
257.433	31.74
257.65	-21.5
257.866	52.22
258.082	11.26
258.299	11.26
258.515	95.23
258.732	17.41
258.948	-9.22
259.165	70.65
259.381	-17.41
259.597	-41.98
259.814	48.13
260.03	84.99
260.246	80.89
260.463	3.07
260.679	41.98
260.895	3.07
261.112	23.55
261.328	11.26
261.544	27.65
261.761	132.09
261.977	-117.76
262.193	-17.41
262.409	11.26
262.626	15.36
262.842	21.5
263.058	21.5
263.274	3.07
263.49	56.32
263.707	76.8
263.923	23.55
264.139	-60.42
264.355	5.12
264.571	39.94
264.787	44.03
265.004	29.7
265.22	13.31
265.436	-11.26
265.652	-11.26
265.868	-1.02
266.084	-7.17
266.3	-23.55
266.516	-33.79
266.732	11.26
266.948	84.99
267.164	56.32
267.38	35.84
267.596	-1.02
267.812	93.18
268.028	52.22
268.244	11.26
268.46	-1.02
268.676	35.84
268.892	19.46
269.108	-23.55
269.324	19.46
269.54	-1.02
269.756	44.03
269.972	-41.98
270.188	-19.46
270.403	-70.65
270.619	19.46
270.835	-54.27
271.051	9.22
271.267	-46.08
271.483	-11.26
271.698	-62.46
271.914	19.46
272.13	15.36
272.346	74.75
272.562	-17.41
272.777	68.61
272.993	-44.03
273.209	29.7
273.425	41.98
273.64	-17.41
273.856	1.02
274.072	93.18
274.287	-44.03
274.503	60.42
274.719	19.46
274.934	76.8
275.15	3.07
275.366	5.12
275.581	19.46
275.797	37.89
276.012	29.7
276.228	11.26
276.444	113.66
276.659	-1.02
276.875	3.07
277.09	41.98
277.306	89.09
277.521	52.22
277.737	-46.08
277.952	48.13
278.168	21.5
278.383	89.09
278.599	19.46
278.814	-1.02
279.03	-5.12
279.245	31.74
279.461	50.18
279.676	35.84
279.892	-1.02
280.107	-13.31
280.322	11.26
280.538	-23.55
280.753	15.36
280.969	60.42
281.184	-1.02
281.399	-23.55
281.615	27.65
281.83	21.5
282.045	-27.65
282.26	31.74
282.476	-76.8
282.691	31.74
282.906	19.46
283.122	-9.22
283.337	-5.12
283.552	37.89
283.767	-62.46
283.983	68.61
284.198	48.13
284.413	-27.65
284.628	5.12
284.843	23.55
285.058	27.65
285.274	-21.5
285.489	-99.33
285.704	50.18
285.919	27.65
286.134	-9.22
286.349	21.5
286.564	41.98
286.779	52.22
286.995	35.84
287.21	-111.61
287.425	87.04
287.64	-19.46
287.855	7.17
288.07	21.5
288.285	60.42
288.5	105.47
288.715	84.99
288.93	-13.31
289.145	76.8
289.36	29.7
289.575	-35.84
289.79	15.36
290.004	-39.94
290.219	74.75
290.434	19.46
290.649	-5.12
290.864	13.31
291.079	-19.46
291.294	60.42
291.509	3.07
291.724	54.27
291.938	80.89
292.153	5.12
292.368	-13.31
292.583	44.03
292.798	66.56
293.012	54.27
293.227	19.46
293.442	19.46
293.657	93.18
293.871	101.37
294.086	-35.84
294.301	48.13
294.516	-25.6
294.73	46.08
294.945	-37.89
295.16	11.26
295.374	-21.5
295.589	72.7
295.804	-9.22
296.018	44.03
296.233	111.61
296.447	37.89
296.662	-27.65
296.877	70.65
297.091	-13.31
297.306	-29.7
297.52	27.65
297.735	37.89
297.949	27.65
298.164	11.26
298.378	84.99
298.593	-33.79
298.807	27.65
299.022	-5.12
299.236	37.89
299.451	60.42
299.665	60.42
299.88	-1.02
300.094	48.13
300.309	1.02
300.523	-46.08
300.737	39.94
300.952	3.07
301.166	52.22
301.381	-41.98
301.595	37.89
301.809	37.89
302.024	-5.12
302.238	-21.5
302.452	76.8
302.667	-1.02
302.881	52.22
303.095	39.94
303.309	-5.12
303.524	1.02
303.738	-33.79
303.952	50.18
304.166	29.7
304.381	-46.08
304.595	56.32
304.809	107.52
305.023	68.61
305.237	-19.46
305.452	56.32
305.666	19.46
305.88	5.12
306.094	35.84
306.308	35.84
306.522	11.26
306.736	-78.85
306.95	31.74
307.164	-11.26
307.379	15.36
307.593	64.51
307.807	25.6
308.021	-21.5
308.235	60.42
308.449	1.02
308.663	64.51
308.877	68.61
309.091	-1.02
309.305	19.46
309.519	-25.6
309.733	105.47
309.947	-37.89
310.161	-52.22
310.374	39.94
310.588	48.13
310.802	46.08
311.016	-93.18
311.23	21.5
311.444	27.65
311.658	1.02
311.872	-17.41
312.085	13.31
312.299	11.26
312.513	-25.6
312.727	27.65
312.941	56.32
313.154	-29.7
313.368	54.27
313.582	60.42
313.796	-91.13
314.009	52.22
314.223	15.36
314.437	84.99
314.651	-33.79
314.864	39.94
315.078	46.08
315.292	-58.37
315.505	-9.22
315.719	9.22
315.933	25.6
316.146	-21.5
316.36	-58.37
316.573	44.03
316.787	-1.02
317.001	7.17
317.214	78.85
317.428	-29.7
317.641	-13.31
317.855	-5.12
318.068	35.84
318.282	-17.41
318.495	76.8
318.709	9.22
318.922	-29.7
319.136	19.46
319.349	37.89
319.563	-58.37
319.776	80.89
319.99	-19.46
320.203	-11.26
320.417	62.46
320.63	72.7
320.843	37.89
321.057	7.17
321.27	15.36
321.483	3.07
321.697	44.03
321.91	17.41
322.124	15.36
322.337	101.37
322.55	-31.74
322.763	33.79
322.977	54.27
323.19	21.5
323.403	3.07
323.617	60.42
323.83	35.84
324.043	13.31
324.256	5.12
324.469	11.26
324.683	37.89
324.896	23.55
325.109	52.22
325.322	35.84
325.535	50.18
325.748	-29.7
325.962	56.32
326.175	1.02
326.388	5.12
326.601	82.94
326.814	54.27
327.027	7.17
327.24	39.94
327.453	-54.27
327.666	39.94
327.879	-33.79
328.092	44.03
328.305	-21.5
328.518	27.65
328.731	-35.84
328.944	-17.41
329.157	11.26
329.37	7.17
329.583	44.03
329.796	50.18
330.009	70.65
330.222	-29.7
330.435	19.46
330.648	31.74
330.861	-87.04
331.073	39.94
331.286	41.98
331.499	46.08
331.712	-21.5
331.925	60.42
332.138	17.41
332.35	46.08
332.563	52.22
332.776	9.22
332.989	37.89
333.202	-13.31
333.414	5.12
333.627	19.46
333.84	-11.26
334.053	-15.36
334.265	35.84
334.478	13.31
334.691	-9.22
334.903	-5.12
335.116	-46.08
335.329	35.84
335.541	56.32
335.754	111.61
335.966	27.65
336.179	-11.26
336.392	19.46
336.604	11.26
336.817	15.36
337.029	-13.31
337.242	50.18
337.454	35.84
337.667	-21.5
337.88	19.46
338.092	-29.7
338.305	54.27
338.517	-5.12
338.729	52.22
338.942	11.26
339.154	1.02
339.367	-109.57
339.579	-62.46
339.792	-25.6
340.004	48.13
340.217	-1.02
340.429	35.84
340.641	-15.36
340.854	33.79
341.066	-3.07
341.278	62.46
341.491	58.37
341.703	70.65
341.915	-54.27
342.128	41.98
342.34	52.22
342.552	-19.46
342.764	54.27
342.977	27.65
343.189	-33.79
343.401	19.46
343.613	-19.46
343.826	-35.84
344.038	11.26
344.25	27.65
344.462	-11.26
344.674	-3.07
344.886	27.65
345.099	93.18
345.311	54.27
345.523	-5.12
345.735	-44.03
345.947	-17.41
346.159	95.23
346.371	-17.41
346.583	-13.31
346.795	62.46
347.007	31.74
347.219	13.31
347.431	-1.02
347.643	19.46
347.855	23.55
348.067	-29.7
348.279	-31.74
348.491	68.61
348.703	50.18
348.915	31.74
349.127	-11.26
349.339	37.89
349.551	62.46
349.763	68.61
349.975	-5.12
350.187	35.84
350.399	27.65
350.61	39.94
350.822	3.07
351.034	19.46
351.246	37.89
351.458	-74.75
351.669	37.89
351.881	66.56
352.093	-13.31
352.305	64.51
352.517	60.42
352.728	23.55
352.94	115.71
353.152	27.65
353.363	5.12
353.575	60.42
353.787	19.46
353.999	64.51
354.21	87.04
354.422	19.46
354.633	-68.61
354.845	11.26
355.057	-5.12
355.268	-3.07
355.48	19.46
355.692	-54.27
355.903	-17.41
356.115	11.26
356.326	-17.41
356.538	58.37
356.749	44.03
356.961	80.89
357.172	-78.85
357.384	-5.12
357.595	27.65
357.807	-54.27
358.018	13.31
358.23	64.51
358.441	68.61
358.653	-11.26
358.864	-1.02
359.075	7.17
359.287	46.08
359.498	97.28
359.709	62.46
359.921	80.89
360.132	29.7
360.344	19.46
360.555	29.7
360.766	72.7
360.977	29.7
361.189	60.42
361.4	105.47
361.611	-11.26
361.823	27.65
362.034	39.94
362.245	54.27
362.456	-5.12
362.667	15.36
362.879	-9.22
363.09	-9.22
363.301	-44.03
363.512	33.79
363.723	87.04
363.935	70.65
364.146	-13.31
364.357	37.89
364.568	119.81
364.779	-52.22
364.99	76.8
365.201	-95.23
365.412	-11.26
365.623	27.65
365.834	62.46
366.045	-13.31
366.256	44.03
366.467	21.5
366.678	-27.65
366.889	1.02
367.1	84.99
367.311	91.13
367.522	68.61
367.733	15.36
367.944	13.31
368.155	-7.17
368.366	62.46
368.577	-23.55
368.788	25.6
368.999	27.65
369.209	35.84
369.42	44.03
369.631	171.01
369.842	95.23
370.053	-11.26
370.264	52.22
370.474	5.12
370.685	-31.74
370.896	29.7
371.107	78.85
371.317	19.46
371.528	-1.02
371.739	46.08
371.95	70.65
372.16	66.56
372.371	52.22
372.582	5.12
372.792	3.07
373.003	44.03
373.214	-25.6
373.424	21.5
373.635	17.41
373.846	89.09
374.056	19.46
374.267	19.46
374.477	52.22
374.688	7.17
374.898	56.32
375.109	37.89
375.319	52.22
375.53	107.52
375.74	44.03
375.951	-33.79
376.161	39.94
376.372	66.56
376.582	-5.12
376.793	80.89
377.003	-11.26
377.214	5.12
377.424	-13.31
377.635	23.55
377.845	44.03
378.055	62.46
378.266	-37.89
378.476	60.42
378.686	-25.6
378.897	-33.79
379.107	-19.46
379.317	19.46
379.528	48.13
379.738	76.8
379.948	17.41
380.158	5.12
380.369	54.27
380.579	62.46
380.789	-21.5
380.999	89.09
381.21	35.84
381.42	76.8
381.63	-35.84
381.84	44.03
382.05	44.03
382.261	-21.5
382.471	29.7
382.681	-7.17
382.891	-15.36
383.101	3.07
383.311	-21.5
383.521	-13.31
383.731	17.41
383.941	31.74
384.151	19.46
384.361	-19.46
384.571	35.84
384.781	33.79
384.991	39.94
385.201	68.61
385.411	35.84
385.621	111.61
385.831	11.26
386.041	19.46
386.251	-29.7
386.461	95.23
386.671	35.84
386.881	-5.12
387.091	3.07
387.301	52.22
387.511	11.26
387.72	52.22
387.93	27.65
388.14	15.36
388.35	44.03
388.56	109.57
388.769	19.46
388.979	5.12
389.189	-1.02
389.399	121.85
389.609	37.89
389.818	64.51
390.028	21.5
390.238	21.5
390.447	3.07
390.657	52.22
390.867	48.13
391.076	-13.31
391.286	62.46
391.496	7.17
391.705	-21.5
391.915	144.38
392.125	68.61
392.334	-13.31
392.544	48.13
392.753	-21.5
392.963	11.26
393.172	50.18
393.382	-13.31
393.591	11.26
393.801	11.26
394.01	60.42
394.22	17.41
394.429	23.55
394.639	44.03
394.848	103.42
395.058	39.94
395.267	44.03
395.477	64.51
395.686	11.26
395.895	97.28
396.105	84.99
396.314	113.66
396.524	72.7
396.733	44.03
396.942	62.46
397.152	80.89
397.361	128
397.57	44.03
397.78	31.74
397.989	62.46
398.198	50.18
398.407	64.51
398.617	46.08
398.826	60.42
399.035	80.89
399.244	74.75
399.453	117.76
399.663	84.99
399.872	111.61
400.081	89.09
400.29	142.33
400.499	62.46
400.708	142.33
400.917	23.55
401.127	56.32
401.336	19.46
401.545	142.33
401.754	11.26
401.963	113.66
402.172	31.74
402.381	31.74
402.59	60.42
402.799	87.04
403.008	23.55
403.217	72.7
403.426	44.03
403.635	-27.65
403.844	84.99
404.053	109.57
404.262	76.8
404.471	154.62
404.68	101.37
404.888	144.38
405.097	37.89
405.306	19.46
405.515	166.91
405.724	56.32
405.933	93.18
406.142	97.28
406.35	119.81
406.559	37.89
406.768	101.37
406.977	89.09
407.185	138.24
407.394	142.33
407.603	162.81
407.812	201.72
408.02	115.71
408.229	136.19
408.438	113.66
408.646	138.24
408.855	109.57
409.064	138.24
409.272	183.29
409.481	191.49
409.69	195.58
409.898	226.3
410.107	185.34
410.315	207.87
410.524	175.1
410.733	240.64
410.941	218.11
411.15	191.49
411.358	193.53
411.567	240.64
411.775	269.31
411.984	254.97
412.192	244.73
412.401	224.25
412.609	330.75
412.818	312.32
413.026	400.38
413.234	314.36
413.443	240.64
413.651	343.03
413.86	357.37
414.068	406.52
414.276	349.18
414.485	345.08
414.693	537.59
414.901	453.63
415.11	392.19
415.318	388.09
415.526	429.05
415.734	519.16
415.943	453.63
416.151	502.78
416.359	543.74
416.567	545.78
416.776	549.88
416.984	543.74
417.192	611.32
417.4	654.33
417.608	609.27
417.817	631.8
418.025	683
418.233	756.72
418.441	683
418.649	773.11
418.857	816.12
419.065	859.12
419.273	801.78
419.481	914.42
419.689	957.43
419.897	857.07
420.105	906.23
420.313	949.23
420.521	1047.54
420.729	1076.21
420.937	1006.58
421.145	1084.4
421.353	1137.65
421.561	1256.43
421.769	1289.2
421.977	1356.78
422.185	1336.3
422.393	1305.58
422.601	1471.47
422.809	1455.08
423.017	1485.8
423.224	1545.19
423.432	1582.06
423.64	1715.17
423.848	1731.56
424.056	1633.26
424.263	1752.04
424.471	1723.37
424.679	1823.72
424.887	1911.78
425.094	2034.66
425.302	2036.7
425.51	2128.86
425.718	2100.19
425.925	2255.84
426.133	2247.65
426.341	2399.2
426.548	2436.06
426.756	2415.58
426.964	2419.68
427.171	2556.89
427.379	2741.21
427.586	2669.53
427.794	2866.13
428.001	3021.78
428.209	2980.82
428.417	3079.12
428.624	3353.55
428.832	3304.4
429.039	3220.43
429.247	3371.98
429.454	3511.24
429.662	3752.9
429.869	3621.83
430.076	3836.87
430.284	3713.99
430.491	3943.36
430.699	4074.43
430.906	4201.41
431.114	4301.76
431.321	4180.93
431.528	4254.66
431.736	4711.35
431.943	4746.17
432.15	4647.87
432.358	4797.37
432.565	5030.84
432.772	4910.01
432.979	5327.79
433.187	5460.91
433.394	5356.46
433.601	5768.1
433.808	5741.48
434.016	5698.47
434.223	6067.11
434.43	6228.9
434.637	6304.67
434.844	6491.04
435.052	6638.49
435.259	6837.14
435.466	6722.46
435.673	6636.44
435.88	6996.89
436.087	7680.91
436.294	7420.81
436.501	7326.61
436.708	7412.62
436.915	7660.43
437.122	7922.57
437.329	8055.69
437.537	8172.42
437.743	8563.58
437.95	8475.52
438.157	8795
438.364	9040.76
438.571	9063.29
438.778	9098.1
438.985	9960.3
439.192	9665.39
439.399	9882.47
439.606	9775.98
439.813	10128.23
440.02	10744.67
440.227	10603.36
440.433	10687.32
440.64	10947.42
440.847	10799.96
441.054	11017.05
441.261	11856.72
441.467	11559.76
441.674	11930.44
441.881	12258.12
442.088	12309.32
442.294	12135.24
442.501	12557.12
442.708	12563.26
442.914	13318.96
443.121	13847.34
443.328	13400.88
443.534	14285.61
443.741	14228.26
443.948	13777.71
444.154	14791.45
444.361	14850.85
444.568	14789.41
444.774	14873.37
444.981	15133.47
445.187	15411.99
445.394	16122.63
445.6	15846.16
445.807	17771.25
446.013	16653.06
446.22	16837.38
446.426	17554.16
446.633	17689.33
446.839	18576.1
447.046	17517.3
447.252	18541.29
447.459	18811.62
447.665	18645.73
447.871	19442.39
448.078	20267.72
448.284	19309.27
448.491	19892.94
448.697	20509.38
448.903	20959.94
449.11	20800.19
449.316	20779.71
449.522	21054.14
449.728	21650.1
449.935	22098.61
450.141	21727.92
450.347	22336.17
450.553	21332.67
450.76	22133.42
450.966	22790.82
451.172	22383.27
451.378	23253.66
451.584	22602.41
451.791	23106.21
451.997	23171.74
452.203	23413.4
452.409	23599.77
452.615	23302.81
452.821	22555.3
453.027	22164.14
453.233	23499.42
453.44	22600.36
453.646	23038.62
453.852	23155.36
454.058	23536.28
454.264	22663.85
454.47	23128.74
454.676	22469.29
454.882	23323.29
455.088	21457.59
455.294	21783.22
455.5	21869.23
455.705	22241.96
455.911	21152.45
456.117	20808.39
456.323	20400.84
456.529	19604.18
456.735	20447.94
456.941	19845.84
457.147	19739.35
457.352	19094.24
457.558	18901.73
457.764	18811.62
457.97	18551.52
458.176	18086.64
458.381	18377.45
458.587	17076.99
458.793	17279.74
458.999	16388.87
459.204	17758.96
459.41	16773.89
459.616	15999.76
459.821	16096.01
460.027	16214.79
460.233	15799.05
460.438	14908.19
460.644	15211.29
460.85	14252.84
461.055	14045.99
461.261	14134.06
461.466	13220.66
461.672	12680
461.878	13482.8
462.083	12665.66
462.289	12538.69
462.494	12217.16
462.7	11713.36
462.905	11682.64
463.111	11860.81
463.316	12002.12
463.522	11526.99
463.727	11690.83
463.932	11598.67
464.138	11639.63
464.343	11635.53
464.549	11101.01
464.754	11549.52
464.959	11377.49
465.165	11455.31
465.37	10980.18
465.575	10662.75
465.781	11141.97
465.986	11111.25
466.191	10576.73
466.397	10425.18
466.602	10085.22
466.807	10365.79
467.012	10550.11
467.218	10384.23
467.423	10259.3
467.628	10226.53
467.833	10658.65
468.038	10464.1
468.244	10079.08
468.449	10267.49
468.654	10052.45
468.859	10050.41
469.064	9718.64
469.269	9517.93
469.474	9595.76
469.679	10117.99
469.885	9591.66
470.09	9821.03
470.295	9763.69
470.5	9202.55
470.705	9470.83
470.91	9212.79
471.115	9118.58
471.32	9440.11
471.525	9274.23
471.73	9028.47
471.935	8981.37
472.139	8582.01
472.344	9079.67
472.549	8700.8
472.754	8682.36
472.959	8549.25
473.164	8399.74
473.369	8004.49
473.574	8426.37
473.778	8321.92
473.983	8289.15
474.188	8213.38
474.393	7881.61
474.598	7961.48
474.802	7818.12
475.007	7779.21
475.212	7973.77
475.417	7553.93
475.621	7433.1
475.826	7654.28
476.031	7435.15
476.235	7205.78
476.44	7515.02
476.645	7355.28
476.849	7410.57
477.054	7224.21
477.259	7097.24
477.463	7271.31
477.668	7035.8
477.872	6949.78
478.077	6988.69
478.282	6683.55
478.486	6712.22
478.691	6652.83
478.895	6603.68
479.1	6648.73
479.304	6622.11
479.509	6384.54
479.713	6622.11
479.918	6441.89
480.122	6310.82
480.326	6400.93
480.531	6474.65
480.735	6294.43
480.94	6249.38
481.144	6300.58
481.348	6161.31
481.553	6245.28
481.757	6017.96
481.961	6212.51
482.166	6269.86
482.37	6214.56
482.574	6054.82
482.778	6155.17
482.983	6261.66
483.187	6106.02
483.391	6165.41
483.595	5995.43
483.8	5983.14
484.004	6134.69
484.208	6216.61
484.412	6185.89
484.616	6208.42
484.821	6017.96
485.025	6009.76
485.229	6245.28
485.433	6073.25
485.637	5974.95
485.841	6118.31
486.045	6235.04
486.249	6278.05
486.453	6130.59
486.657	6155.17
486.861	6095.78
487.065	5897.13
487.269	6189.99
487.473	6073.25
487.677	6091.68
487.881	6255.52
488.085	6204.32
488.289	6114.21
488.493	6056.87
488.697	6302.62
488.901	6149.03
489.105	6159.27
489.309	6200.23
489.512	6329.25
489.716	6163.36
489.92	6194.08
490.124	6157.22
490.328	6386.59
490.531	6294.43
490.735	6187.94
490.939	6288.29
491.143	6319.01
491.346	6331.3
491.55	6556.57
491.754	6314.91
491.958	6673.31
492.161	6378.4
492.365	6482.85
492.569	6417.31
492.772	6331.3
492.976	6648.73
493.18	6601.63
493.383	6742.94
493.587	6708.12
493.79	6720.41
493.994	6683.55
494.197	6605.72
494.401	6812.57
494.605	6843.29
494.808	6816.66
495.012	7015.32
495.215	7052.18
495.419	7111.57
495.622	7019.41
495.825	7037.84
496.029	7048.08
496.232	7289.74
496.436	7236.5
496.639	7383.95
496.843	7351.18
497.046	7584.65
497.249	7648.14
497.453	7781.26
497.656	7826.31
497.859	7830.41
498.063	7728.01
498.266	8127.36
498.469	8010.63
498.673	8280.96
498.876	8244.1
499.079	8309.63
499.282	8151.94
499.485	8571.77
499.689	8455.04
499.892	8817.53
500.095	8649.6
500.298	8956.79
500.501	8751.99
500.705	9128.82
500.908	9282.42
501.111	9266.03
501.314	9552.75
501.517	9530.22
501.72	9661.29
501.923	9530.22
502.126	9831.27
502.329	10089.32
502.532	10095.46
502.735	10247.01
502.938	10400.61
503.141	10480.48
503.344	10357.6
503.547	10470.24
503.75	10746.72
503.953	10797.92
504.156	10675.04
504.359	11121.49
504.562	11111.25
504.765	11512.66
504.968	11635.53
505.17	11572.05
505.373	11782.99
505.576	11748.17
505.779	11928.39
505.982	12125
506.185	12376.9
506.387	12464.96
506.59	12348.23
506.793	12503.87
506.996	12782.4
507.198	13200.18
507.401	13050.68
507.604	13050.68
507.807	13331.25
508.009	13368.12
508.212	13495.09
508.415	14017.32
508.617	14144.3
508.82	14084.91
509.022	14005.03
509.225	14400.29
509.428	14541.6
509.63	14560.03
509.833	14961.44
510.035	15135.51
510.238	14981.92
510.44	15069.98
510.643	15485.72
510.845	15407.89
511.048	15643.41
511.25	15710.99
511.453	16091.91
511.655	16548.61
511.858	16315.14
512.06	16542.47
512.262	16552.71
512.465	16759.55
512.667	17140.47
512.87	17107.71
513.072	17216.25
513.274	17275.64
513.477	17459.96
513.679	17838.83
513.881	18156.27
514.084	17887.98
514.286	18072.3
514.488	18524.9
514.69	18688.74
514.893	18840.29
515.095	18809.57
515.297	19114.72
515.499	19239.64
515.701	19509.97
515.904	20009.68
516.106	19958.48
516.308	19958.48
516.51	20511.43
516.712	20505.29
516.914	20749
517.116	20851.39
517.318	21217.98
517.52	21193.4
517.722	21181.12
517.925	21619.38
518.127	22000.3
518.329	21840.56
518.531	21797.56
518.733	22469.29
518.935	22581.93
519.136	22788.77
519.338	22995.62
519.54	23067.3
519.742	23251.61
519.944	23237.28
520.146	23632.54
520.348	23968.4
520.55	24173.2
520.752	24208.01
520.954	24527.5
521.155	24580.74
521.357	24894.08
521.559	25102.98
521.761	25272.96
521.963	25236.09
522.164	25412.22
522.366	25600.63
522.568	25928.31
522.77	26071.67
522.971	26493.55
523.173	26321.52
523.375	26391.15
523.576	26499.69
523.778	26483.31
523.98	26921.57
524.181	26995.3
524.383	27236.96
524.584	27525.72
524.786	27355.74
524.988	27751
525.189	28017.24
525.391	28158.55
525.592	28054.1
525.794	28181.07
525.995	28420.69
526.197	28287.57
526.398	28744.27
526.6	28570.19
526.801	28967.49
527.003	29096.52
527.204	29168.19
527.406	29194.82
527.607	29258.31
527.808	29805.11
528.01	29227.59
528.211	29317.7
528.412	29862.46
528.614	29798.97
528.815	29786.68
529.016	30327.35
529.218	29880.89
529.419	30165.56
529.62	30194.23
529.822	29844.02
530.023	30081.59
530.224	30188.08
530.425	30327.35
530.626	30292.53
530.828	30214.71
531.029	31214.12
531.23	30323.25
531.431	30583.34
531.632	30691.88
531.833	30968.36
532.035	30673.45
532.236	30558.77
532.437	30935.59
532.638	30673.45
532.839	30698.03
533.04	30976.55
533.241	30921.26
533.442	31232.55
533.643	30857.77
533.844	31236.64
534.045	31023.65
534.246	30603.82
534.447	31171.11
534.648	30706.22
534.849	31173.16
535.05	30925.35
535.251	31195.68
535.451	30954.02
535.652	31091.24
535.853	31013.41
536.054	31365.67
536.255	31242.79
536.456	30818.86
536.657	31570.46
536.857	30906.92
537.058	30927.4
537.259	31007.27
537.46	31304.23
537.66	31304.23
537.861	31072.81
538.062	31066.66
538.263	31429.15
538.463	30872.1
538.664	31259.17
538.865	31236.64
539.065	31713.82
539.266	31138.34
539.466	31459.87
539.667	30960.17
539.868	31359.52
540.068	31207.97
540.269	30927.4
540.469	31427.1
540.67	31107.62
540.87	31081
541.071	31250.98
541.271	31308.32
541.472	31101.48
541.672	30935.59
541.873	31314.47
542.073	30974.5
542.274	31285.79
542.474	31103.53
542.675	30800.43
542.875	31529.5
543.075	31185.44
543.276	30937.64
543.476	31353.38
543.676	30827.05
543.877	31277.6
544.077	31033.89
544.277	31058.47
544.478	31087.14
544.678	31021.61
544.878	31050.28
545.078	30941.74
545.279	30904.87
545.479	30890.54
545.679	31144.48
545.879	30968.36
546.079	30915.11
546.28	31193.64
546.48	30722.6
546.68	31334.95
546.88	31007.27
547.08	31013.41
547.28	30743.08
547.48	30818.86
547.68	30702.12
547.88	30736.94
548.081	30915.11
548.281	30863.91
548.481	30732.84
548.681	31072.81
548.881	31048.23
549.081	31048.23
549.28	30759.47
549.48	31044.13
549.68	30564.91
549.88	31218.21
550.08	30681.64
550.28	30931.5
550.48	30657.07
550.68	31232.55
550.88	30573.1
551.08	30741.03
551.279	30751.27
551.479	30679.6
551.679	31031.85
551.879	30405.17
552.079	30720.56
552.278	30550.57
552.478	30859.82
552.678	30870.06
552.878	30868.01
553.077	30374.45
553.277	30280.24
553.477	30585.39
553.676	30673.45
553.876	30652.97
554.076	30149.17
554.275	30274.1
554.475	29948.47
554.674	30632.49
554.874	30564.91
555.074	30253.62
555.273	30241.33
555.473	30370.35
555.672	30093.88
555.872	30134.84
556.071	30345.78
556.271	30380.59
556.47	30222.9
556.67	29991.48
556.869	30345.78
557.068	30198.32
557.268	30120.5
557.467	29966.9
557.667	29835.83
557.866	30065.21
558.065	29987.38
558.265	29915.7
558.464	29592.12
558.663	30163.51
558.863	29426.24
559.062	29973.05
559.261	29686.33
559.461	30093.88
559.66	29483.58
559.859	29815.35
560.058	29424.19
560.258	29389.38
560.457	29338.18
560.656	29356.61
560.855	29446.72
561.054	29467.2
561.253	29162.05
561.453	29594.17
561.652	29663.8
561.851	29454.91
562.05	29080.13
562.249	28983.88
562.448	29395.52
562.647	28971.59
562.846	29258.31
563.045	29033.03
563.244	28385.87
563.443	29188.67
563.642	28650.06
563.841	28590.67
564.04	28574.28
564.239	28684.87
564.438	28379.73
564.637	28537.42
564.836	28578.38
565.035	28379.73
565.234	28338.77
565.432	28107.35
565.631	28265.04
565.83	28187.22
566.029	28277.33
566.228	28248.66
566.427	27918.93
566.625	27902.55
566.824	27388.51
567.023	28369.49
567.222	27402.85
567.42	27877.97
567.619	27632.22
567.818	27241.06
568.016	27693.66
568.215	27296.35
568.414	27341.41
568.612	27564.64
568.811	27462.24
569.01	27400.8
569.208	26815.08
569.407	27075.17
569.605	26870.37
569.804	27282.02
570.002	26823.27
570.201	27144.8
570.4	26845.8
570.598	26643.05
570.797	26593.9
570.995	26481.26
571.193	26081.91
571.392	26778.22
571.59	26272.37
571.789	26290.8
571.987	26380.91
572.186	26118.77
572.384	25909.88
572.582	25942.64
572.781	25922.16
572.979	25555.58
573.177	25725.56
573.376	25991.8
573.574	25461.37
573.772	25717.37
573.971	25602.68
574.169	25279.1
574.367	25180.8
574.565	25655.93
574.763	24986.24
574.962	25143.94
575.16	24967.81
575.358	25051.78
575.556	25016.96
575.754	25082.5
575.952	24961.67
576.151	25100.93
576.349	24502.92
576.547	24668.81
576.745	24726.15
576.943	24920.71
577.141	24195.73
577.339	24613.51
577.537	24416.91
577.735	24218.25
577.933	24310.41
578.131	24103.57
578.329	24216.21
578.527	23923.35
578.725	24109.71
578.923	24113.81
579.121	24152.72
579.319	23722.65
579.516	23882.39
579.714	23644.82
579.912	23399.07
580.11	23917.2
580.308	23390.88
580.506	23476.89
580.704	23073.44
580.901	23605.91
581.099	23407.26
581.297	23155.36
581.495	23214.75
581.692	23229.09
581.89	23204.51
582.088	23118.5
582.285	22950.56
582.483	23022.24
582.681	22977.19
582.878	22844.07
583.076	22461.1
583.274	22768.29
583.471	22438.57
583.669	22502.06
583.866	22289.07
584.064	22452.91
584.262	22084.27
584.459	22327.98
584.657	22057.65
584.854	22287.02
585.052	21615.29
585.249	21969.58
585.447	21912.24
585.644	21478.07
585.841	21961.39
586.039	21973.68
586.236	21516.98
586.434	21648.05
586.631	21412.54
586.828	21187.26
587.026	21514.94
587.223	21605.05
587.42	21258.94
587.618	21271.23
587.815	21205.69
588.012	21002.94
588.21	21007.04
588.407	21363.39
588.604	20814.53
588.801	20773.57
588.999	20878.02
589.196	20597.45
589.393	20916.93
589.59	20714.18
589.787	20738.76
589.984	20493
590.182	20390.6
590.379	20237
590.576	20187.85
590.773	20327.11
590.97	20005.58
591.167	20327.11
591.364	19847.89
591.561	20085.45
591.758	19831.51
591.955	19684.05
592.152	19974.86
592.349	19720.92
592.546	19946.19
592.743	19653.33
592.94	19321.56
593.137	19905.23
593.334	19806.93
593.531	19225.31
593.727	19452.63
593.924	19446.49
594.121	19157.72
594.318	19466.97
594.515	19114.72
594.712	19196.64
594.908	18821.86
595.105	19210.97
595.302	18846.43
595.499	18987.74
595.696	18901.73
595.892	18733.79
596.089	18741.99
596.286	18692.83
596.482	18655.97
596.679	18543.33
596.876	18377.45
597.072	18561.76
597.269	18619.11
597.466	18105.07
597.662	18512.61
597.859	18189.03
598.055	18273
598.252	17986.29
598.448	18148.08
598.645	18148.08
598.841	17795.82
599.038	17992.43
599.234	17863.41
599.431	17750.77
599.627	17728.24
599.824	17812.21
600.02	17621.75
600.217	17648.37
600.413	17494.77
600.609	17468.15
600.806	17466.1
601.002	17416.95
601.198	17369.85
601.395	17367.8
601.591	17212.15
601.787	17361.66
601.984	17191.67
602.18	17335.03
602.376	17033.98
602.572	16982.78
602.769	16876.29
602.965	16702.21
603.161	16771.84
603.357	16876.29
603.553	16788.22
603.75	16632.58
603.946	16548.61
604.142	16640.77
604.338	16591.62
604.534	16446.21
604.73	16354.05
604.926	16276.23
605.122	16456.45
605.318	16063.24
605.514	16323.33
605.71	16165.64
605.906	16274.18
606.102	16061.19
606.298	16024.33
606.494	16208.65
606.69	15952.65
606.886	16147.21
607.082	16059.15
607.278	15915.79
607.474	15403.8
607.67	15487.76
607.866	15717.14
608.062	15883.02
608.257	15502.1
608.453	15584.02
608.649	15506.2
608.845	15389.46
609.041	15528.72
609.236	15328.02
609.432	15452.95
609.628	15375.13
609.824	15395.61
610.019	15149.85
610.215	15387.41
610.411	15299.35
610.606	15254.3
610.802	15127.32
610.998	15074.07
611.193	15110.94
611.389	15018.78
611.584	14891.8
611.78	14783.26
611.976	14826.27
612.171	14961.44
612.367	14906.14
612.562	14648.1
612.758	14660.38
612.953	14574.37
613.149	14621.47
613.344	14687.01
613.539	14703.39
613.735	14666.53
613.93	14531.36
614.126	14258.98
614.321	14742.3
614.517	14617.38
614.712	14547.75
614.907	14258.98
615.103	14435.11
615.298	14273.32
615.493	14578.47
615.688	14056.23
615.884	14465.83
616.079	14113.58
616.274	14252.84
616.47	14256.93
616.665	14308.13
616.86	14005.03
617.055	13835.05
617.25	14031.66
617.445	14084.91
617.641	13765.42
617.836	13906.73
618.031	13785.9
618.226	13822.77
618.421	13744.94
618.616	13759.28
618.811	13460.27
619.006	13652.78
619.201	13368.12
619.396	13579.06
619.591	13474.61
619.786	13235
619.981	13044.54
620.176	13433.65
620.371	13181.75
620.566	13159.22
620.761	13054.78
620.956	13249.33
621.151	12970.81
621.346	13124.41
621.541	12708.67
621.735	13165.37
621.93	12573.5
622.125	12716.86
622.32	12614.46
622.515	12761.92
622.709	12561.22
622.904	12712.77
623.099	12225.35
623.294	12471.11
623.488	12307.27
623.683	12356.42
623.878	12211.01
624.072	12233.54
624.267	12049.22
624.462	11815.76
624.656	11860.81
624.851	11727.69
625.046	11856.72
625.24	11760.46
625.435	11746.12
625.629	11643.73
625.824	11500.37
626.018	11545.42
626.213	11256.66
626.407	11279.19
626.602	11244.37
626.796	11434.83
626.991	11225.94
627.185	10877.79
627.38	10939.23
627.574	10969.94
627.768	10826.59
627.963	10679.13
628.157	10632.03
628.352	10785.63
628.546	10484.58
628.74	10703.71
628.935	10720.09
629.129	10339.17
629.323	10455.9
629.517	10406.75
629.712	10439.52
629.906	10449.76
630.1	10023.78
630.294	10218.34
630.489	10046.31
630.683	10036.07
630.877	9970.54
631.071	10115.94
631.265	10023.78
631.459	9843.56
631.653	9730.92
631.848	9841.51
632.042	9884.52
632.236	9857.9
632.43	9694.06
632.624	9393.01
632.818	9532.27
633.012	9485.17
633.206	9532.27
633.4	9419.63
633.594	9278.32
633.788	9341.81
633.982	9331.57
634.176	9143.16
634.369	9145.2
634.563	8940.41
634.757	8985.46
634.951	8842.11
635.145	8901.5
635.339	8872.82
635.533	8784.76
635.726	8825.72
635.92	8653.69
636.114	8651.64
636.308	8631.16
636.501	8543.1
636.695	8620.92
636.889	8385.41
637.083	8645.5
637.276	8467.33
637.47	8489.85
637.664	8412.03
637.857	8231.81
638.051	8213.38
638.244	8295.3
638.438	8166.28
638.632	8061.83
638.825	8158.08
639.019	8096.64
639.212	7861.13
639.406	7986.05
639.599	7818.12
639.793	7920.52
639.986	7719.82
640.18	7789.45
640.373	7928.71
640.567	7551.88
640.76	7605.13
640.954	7588.75
641.147	7572.36
641.34	7588.75
641.534	7322.51
641.727	7500.69
641.92	7482.25
642.114	7441.29
642.307	7383.95
642.5	7402.38
642.694	7187.35
642.887	7244.69
643.08	7228.31
643.273	6974.36
643.467	7023.51
643.66	7183.25
643.853	6865.82
644.046	6978.45
644.239	6728.6
644.432	6910.87
644.626	6765.46
644.819	6773.66
645.012	6867.86
645.205	6687.64
645.398	6646.68
645.591	6648.73
645.784	6626.2
645.977	6435.74
646.17	6701.98
646.363	6368.16
646.556	6323.1
646.749	6525.85
646.942	6321.06
647.135	6263.71
647.328	6243.23
647.521	6347.68
647.714	6210.47
647.907	6284.19
648.099	5985.19
648.292	6263.71
648.485	6171.55
648.678	5901.22
648.871	5938.09
649.064	5893.03
649.256	5925.8
649.449	5958.57
649.642	5714.86
649.835	5813.16
650.027	5874.6
650.22	5847.97
650.413	5845.93
650.605	5809.06
650.798	5784.49
650.991	5755.82
651.183	5815.21
651.376	5614.51
651.568	5809.06
651.761	5508.01
651.954	5544.88
652.146	5532.59
652.339	5385.13
652.531	5397.42
652.724	5389.23
652.916	5436.33
653.109	5491.63
653.301	5280.69
653.494	5247.92
653.686	5106.61
653.879	5270.45
654.071	5231.54
654.263	5135.28
654.456	5176.24
654.648	4996.02
654.84	5108.66
655.033	5200.82
655.225	4944.82
655.417	4942.77
655.61	4938.68
655.802	4914.1
655.994	5016.5
656.186	4957.11
656.379	4938.68
656.571	4729.78
656.763	4856.76
656.955	4723.64
657.148	4729.78
657.34	4836.28
657.532	4807.61
657.724	4643.77
657.916	4656.06
658.108	4621.24
658.3	4690.87
658.492	4516.8
658.684	4500.41
658.876	4651.96
659.068	4481.98
659.26	4496.32
659.452	4402.11
659.644	4508.6
659.836	4379.58
660.028	4398.01
660.22	4264.89
660.412	4428.73
660.604	4361.15
660.796	4316.09
660.988	4131.78
661.18	3959.75
661.372	4109.25
661.563	4189.12
661.755	4162.5
661.947	4172.74
662.139	4053.95
662.331	3984.32
662.522	3945.41
662.714	4117.44
662.906	3984.32
663.097	3976.13
663.289	3996.61
663.481	3816.39
663.673	3957.7
663.864	3857.35
664.056	3910.6
664.247	3720.14
664.439	3789.77
664.631	3908.55
664.822	3843.01
665.014	3738.57
665.205	3898.31
665.397	3730.38
665.588	3787.72
665.78	3757
665.971	3664.84
666.163	3576.78
666.354	3673.03
666.546	3505.1
666.737	3550.15
666.929	3673.03
667.12	3451.85
667.311	3632.07
667.503	3599.31
667.694	3513.29
667.885	3615.69
668.077	3353.55
668.268	3560.39
668.459	3451.85
668.651	3386.32
668.842	3304.4
669.033	3382.22
669.224	3353.55
669.416	3384.27
669.607	3396.56
669.798	3296.21
669.989	3294.16
670.18	3427.28
670.371	3156.94
670.563	3255.25
670.754	3271.63
670.945	3298.25
671.136	3242.96
671.327	3132.37
671.518	3281.87
671.709	3206.1
671.9	3283.92
672.091	3222.48
672.282	3220.43
672.473	3175.38
672.664	3015.63
672.855	3017.68
673.046	3247.05
673.237	3369.93
673.428	3075.03
673.619	3165.14
673.809	3058.64
674	3050.45
674.191	2960.34
674.382	3060.69
674.573	3027.92
674.764	2954.19
674.954	2937.81
675.145	3017.68
675.336	2954.19
675.527	3077.07
675.717	2903
675.908	2915.28
676.099	2943.96
676.289	2984.91
676.48	2882.52
676.671	3036.11
676.861	2909.14
677.052	2722.77
677.243	2790.36
677.433	2790.36
677.624	2776.02
677.814	2839.51
678.005	2864.08
678.195	2864.08
678.386	2862.04
678.576	2814.93
678.767	2757.59
678.957	2765.78
679.148	3005.39
679.338	2853.84
679.529	2741.21
679.719	2786.26
679.909	2823.12
680.1	2798.55
680.29	2833.36
680.481	2702.29
680.671	2698.2
680.861	2683.86
681.052	2776.02
681.242	2690.01
681.432	2790.36
681.622	2634.71
681.813	2665.43
682.003	2749.4
682.193	2649.05
682.383	2591.7
682.573	2722.77
682.764	2659.29
682.954	2567.13
683.144	2649.05
683.334	2540.51
683.524	2730.97
683.714	2642.9
683.904	2644.95
684.094	2661.34
684.284	2624.47
684.474	2685.91
684.664	2610.14
684.854	2677.72
685.044	2573.27
685.234	2655.19
685.424	2640.86
685.614	2642.9
685.804	2663.38
685.994	2655.19
686.184	2560.98
686.374	2626.52
686.564	2481.11
686.753	2606.04
686.943	2442.2
687.133	2464.73
687.323	2499.55
687.513	2481.11
687.702	2536.41
687.892	2530.27
688.082	2417.63
688.272	2380.76
688.461	2517.98
688.651	2427.87
688.841	2456.54
689.03	2448.35
689.22	2417.63
689.41	2403.29
689.599	2370.52
689.789	2444.25
689.979	2368.48
690.168	2321.37
690.358	2304.99
690.547	2431.96
690.737	2366.43
690.926	2427.87
691.116	2304.99
691.305	2364.38
691.495	2323.42
691.684	2427.87
691.874	2280.41
692.063	2274.27
692.252	2360.28
692.442	2307.04
692.631	2169.82
692.82	2368.48
693.01	2214.88
693.199	2145.25
693.388	2143.2
693.578	2233.31
693.767	2290.65
693.956	2175.97
694.146	2259.93
694.335	2128.86
694.524	2231.26
694.713	2178.01
694.902	2128.86
695.092	2153.44
695.281	2206.69
695.47	2229.21
695.659	2065.38
695.848	2157.54
696.037	2173.92
696.226	2104.29
696.415	2149.34
696.604	2159.58
696.793	2087.9
696.982	2186.21
697.171	2135.01
697.36	2096.1
697.549	2147.3
697.738	2081.76
697.927	2178.01
698.116	2102.24
698.305	2104.29
698.494	2192.35
698.683	2132.96
698.872	2190.3
699.061	2051.04
699.25	2128.86
699.438	2102.24
699.627	2153.44
699.816	2221.02
700.005	2079.71
700.193	2042.85
700.382	2141.15
700.571	2124.77
700.76	2085.86
700.948	2042.85
701.137	2055.14
701.326	2137.06
701.514	2034.66
701.703	1995.75
701.892	2071.52
702.08	2053.09
702.269	2034.66
702.457	2071.52
702.646	2030.56
702.834	2036.7
703.023	2038.75
703.212	2110.43
703.4	1928.16
703.589	1928.16
703.777	2094.05
703.965	2010.08
704.154	1991.65
704.342	1977.31
704.531	1977.31
704.719	1987.55
704.907	2141.15
705.096	1995.75
705.284	2055.14
705.472	2059.23
705.661	1985.51
705.849	2001.89
706.037	2020.32
706.226	2014.18
706.414	1995.75
706.602	2048.99
706.79	1989.6
706.979	1969.12
707.167	2042.85
707.355	2003.94
707.543	2077.66
707.731	1952.74
707.919	2069.47
708.107	2083.81
708.296	1979.36
708.484	1962.98
708.672	2092
708.86	2044.9
709.048	1922.02
709.236	1954.79
709.424	2132.96
709.612	2071.52
709.8	1946.59
709.988	2128.86
710.176	2026.47
710.364	2071.52
710.551	1993.7
710.739	2026.47
710.927	1977.31
711.115	2075.62
711.303	2040.8
711.491	2053.09
711.679	2042.85
711.866	1944.55
712.054	2116.58
712.242	1991.65
712.43	1969.12
712.617	2094.05
712.805	2005.99
712.993	1936.35
713.181	1977.31
713.368	1965.03
713.556	2075.62
713.744	1999.84
713.931	1962.98
714.119	2135.01
714.306	1983.46
714.494	1969.12
714.682	1934.31
714.869	2001.89
715.057	1924.07
715.244	2061.28
715.432	2012.13
715.619	2001.89
715.807	1954.79
715.994	1991.65
716.182	2034.66
716.369	1987.55
716.556	2028.51
716.744	1928.16
716.931	1967.07
717.119	2067.42
717.306	1944.55
717.493	1944.55
717.681	1948.64
717.868	2020.32
718.055	2005.99
718.242	1960.93
718.43	1997.79
718.617	1977.31
718.804	1954.79
718.991	1971.17
719.179	1889.25
719.366	1940.45
719.553	2005.99
719.74	1946.59
719.927	1928.16
720.114	1944.55
720.301	1956.83
720.488	2014.18
720.676	1942.5
720.863	1975.27
721.05	1954.79
721.237	1952.74
721.424	2026.47
721.611	1946.59
721.798	1922.02
721.985	2005.99
722.172	1915.87
722.358	1913.83
722.545	2010.08
722.732	1919.97
722.919	2061.28
723.106	1946.59
723.293	2010.08
723.48	2001.89
723.667	1928.16
723.853	2042.85
724.04	2014.18
724.227	1858.53
724.414	1930.21
724.6	1993.7
724.787	1969.12
724.974	2085.86
725.161	1993.7
725.347	1922.02
725.534	1913.83
725.72	1969.12
725.907	1938.4
726.094	1977.31
726.28	1983.46
726.467	1917.92
726.653	1895.4
726.84	1944.55
727.027	1977.31
727.213	1965.03
727.4	1870.82
727.586	1846.24
727.773	2005.99
727.959	1973.22
728.145	1999.84
728.332	1907.68
728.518	1846.24
728.705	1989.6
728.891	1825.76
729.077	1952.74
729.264	1870.82
729.45	1960.93
729.636	1919.97
729.823	2010.08
730.009	1930.21
730.195	1952.74
730.382	1876.96
730.568	1823.72
730.754	1862.63
730.94	1930.21
731.126	1788.9
731.313	1889.25
731.499	1924.07
731.685	1870.82
731.871	1854.44
732.057	1909.73
732.243	2040.8
732.429	1985.51
732.615	1999.84
732.801	1981.41
732.987	1932.26
733.173	1879.01
733.359	1934.31
733.545	1889.25
733.731	1891.3
733.917	1952.74
734.103	1948.64
734.289	1928.16
734.475	1846.24
734.661	1971.17
734.847	1887.2
735.033	1872.87
735.219	1870.82
735.404	1872.87
735.59	1788.9
735.776	1879.01
735.962	1788.9
736.148	1762.28
736.333	1954.79
736.519	1772.52
736.705	1932.26
736.89	1889.25
737.076	1879.01
737.262	1856.48
737.447	1815.52
737.633	1797.09
737.819	1815.52
738.004	1809.38
738.19	1858.53
738.375	1866.72
738.561	1864.68
738.747	1764.33
738.932	1862.63
739.118	1813.48
739.303	1866.72
739.489	1780.71
739.674	1821.67
739.859	1881.06
740.045	1776.61
740.23	1854.44
740.416	1717.22
740.601	1721.32
740.786	1766.37
740.972	1733.61
741.157	1758.18
741.342	1649.64
741.528	1793
741.713	1823.72
741.898	1764.33
742.084	1780.71
742.269	1659.88
742.454	1711.08
742.639	1725.41
742.824	1731.56
743.01	1608.68
743.195	1727.46
743.38	1784.8
743.565	1764.33
743.75	1629.16
743.935	1739.75
744.12	1641.45
744.305	1620.97
744.49	1616.87
744.675	1670.12
744.86	1557.48
745.045	1616.87
745.23	1596.39
745.415	1577.96
745.6	1551.34
745.785	1592.3
745.97	1657.83
746.155	1553.38
746.34	1612.78
746.525	1530.86
746.71	1543.14
746.895	1477.61
747.079	1672.17
747.264	1602.54
747.449	1651.69
747.634	1545.19
747.819	1608.68
748.003	1438.7
748.188	1567.72
748.373	1444.84
748.557	1424.36
748.742	1414.12
748.927	1432.55
749.111	1510.38
749.296	1453.03
749.481	1444.84
749.665	1446.89
749.85	1424.36
750.034	1403.88
750.219	1461.23
750.404	1434.6
750.588	1422.31
750.773	1377.26
750.957	1371.12
751.141	1395.69
751.326	1321.96
751.51	1354.73
751.695	1289.2
751.879	1367.02
752.064	1330.16
752.248	1330.16
752.432	1309.68
752.617	1299.44
752.801	1360.88
752.985	1326.06
753.17	1283.05
753.354	1297.39
753.538	1240.05
753.722	1192.94
753.907	1186.8
754.091	1213.42
754.275	1186.8
754.459	1184.75
754.643	1223.66
754.828	1197.04
755.012	1174.51
755.196	1160.17
755.38	1158.13
755.564	1090.54
755.748	1178.61
755.932	1233.9
756.116	1133.55
756.3	1090.54
756.484	1160.17
756.668	1162.22
756.852	1119.21
757.036	1096.69
757.22	1088.5
757.404	1059.82
757.588	1096.69
757.772	1029.1
757.956	1035.25
758.14	1203.18
758.323	1070.06
758.507	1078.26
758.691	936.95
758.875	971.76
759.059	1043.44
759.242	979.95
759.426	1051.63
759.61	984.05
759.794	977.91
759.977	986.1
760.161	1057.78
760.345	1043.44
760.528	1006.58
760.712	1000.43
760.895	951.28
761.079	916.47
761.263	947.19
761.446	848.88
761.63	855.03
761.813	1051.63
761.997	955.38
762.18	836.6
762.364	846.84
762.547	900.08
762.731	883.7
762.914	986.1
763.098	906.23
763.281	922.61
763.464	863.22
763.648	863.22
763.831	850.93
764.015	855.03
764.198	875.51
764.381	793.59
764.564	781.3
764.748	809.97
764.931	814.07
765.114	871.41
765.297	891.89
765.481	871.41
765.664	832.5
765.847	941.04
766.03	893.94
766.213	687.09
766.397	814.07
766.58	795.64
766.763	850.93
766.946	783.35
767.129	627.7
767.312	809.97
767.495	781.3
767.678	777.2
767.861	758.77
768.044	769.01
768.227	826.36
768.41	726
768.593	773.11
768.776	748.53
768.959	789.49
769.142	740.34
769.324	707.57
769.507	711.67
769.69	752.63
769.873	691.19
770.056	814.07
770.239	762.87
770.421	748.53
770.604	742.39
770.787	728.05
770.97	740.34
771.152	683
771.335	713.72
771.518	756.72
771.7	744.44
771.883	769.01
772.066	691.19
772.248	715.77
772.431	728.05
772.613	699.38
772.796	670.71
772.978	748.53
773.161	678.9
773.343	609.27
773.526	664.57
773.708	738.29
773.891	658.42
774.073	619.51
774.256	670.71
774.438	644.09
774.621	568.31
774.803	674.81
774.985	586.74
775.168	685.05
775.35	517.11
775.532	697.33
775.715	660.47
775.897	631.8
776.079	646.13
776.261	637.94
776.444	592.89
776.626	543.74
776.808	633.85
776.99	551.93
777.173	574.46
777.355	494.58
777.537	570.36
777.719	633.85
777.901	502.78
778.083	578.55
778.265	445.43
778.447	560.12
778.629	478.2
778.811	519.16
778.993	523.26
779.175	537.59
779.357	486.39
779.539	470.01
779.721	420.86
779.903	562.17
780.085	543.74
780.267	463.86
780.449	515.06
780.631	551.93
780.812	510.97
780.994	461.82
781.176	478.2
781.358	400.38
781.54	465.91
781.721	502.78
781.903	513.02
782.085	488.44
782.267	478.2
782.448	402.43
782.63	388.09
782.812	529.4
782.993	531.45
783.175	461.82
783.357	455.67
783.538	412.67
783.72	441.34
783.901	433.15
784.083	429.05
784.264	441.34
784.446	330.75
784.627	439.29
784.809	482.3
784.99	455.67
785.172	396.28
785.353	412.67
785.535	340.99
785.716	357.37
785.897	381.95
786.079	353.27
786.26	373.75
786.441	472.06
786.623	314.36
786.804	330.75
786.985	373.75
787.167	355.32
787.348	379.9
787.529	349.18
787.71	431.1
787.891	367.61
788.073	328.7
788.254	275.45
788.435	383.99
788.616	349.18
788.797	277.5
788.978	330.75
789.159	332.79
789.34	359.42
789.522	300.03
789.703	334.84
789.884	359.42
790.065	281.6
790.246	373.75
790.427	234.49
790.607	273.4
790.788	273.4
790.969	285.69
791.15	388.09
791.331	343.03
791.512	291.84
791.693	250.88
791.874	236.54
792.054	379.9
792.235	388.09
792.416	275.45
792.597	312.32
792.778	273.4
792.958	302.08
793.139	302.08
793.32	273.4
793.5	285.69
793.681	363.51
793.862	248.83
794.042	232.44
794.223	248.83
794.404	203.77
794.584	242.68
794.765	199.68
794.945	297.98
795.126	277.5
795.306	257.02
795.487	281.6
795.667	220.16
795.848	248.83
796.028	216.06
796.209	209.92
796.389	302.08
796.57	226.3
796.75	257.02
796.93	250.88
797.111	257.02
797.291	308.22
797.471	218.11
797.652	273.4
797.832	191.49
798.012	211.96
798.192	218.11
798.373	267.26
798.553	242.68
798.733	232.44
798.913	230.4
799.093	203.77
799.274	226.3
799.454	168.96
799.634	240.64
799.814	322.56
799.994	275.45
800.174	279.55
800.354	228.35
800.534	136.19
800.714	265.21
800.894	144.38
801.074	207.87
801.254	203.77
801.434	171.01
801.614	205.82
801.794	144.38
801.974	711.67
802.154	199.68
802.334	166.91
802.514	136.19
802.693	168.96
802.873	207.87
803.053	218.11
803.233	220.16
803.413	203.77
803.592	117.76
803.772	119.81
803.952	183.29
804.131	142.33
804.311	134.14
804.491	146.43
804.67	175.1
804.85	113.66
805.03	240.64
805.209	195.58
805.389	175.1
805.568	168.96
805.748	214.01
805.928	142.33
806.107	177.15
806.287	162.81
806.466	150.53
806.646	289.79
806.825	199.68
807.004	144.38
807.184	191.49
807.363	134.14
807.543	158.72
807.722	138.24
807.901	117.76
808.081	168.96
808.26	64.51
808.439	203.77
808.619	189.44
808.798	134.14
808.977	150.53
809.156	166.91
809.336	171.01
809.515	119.81
809.694	113.66
809.873	117.76
810.052	166.91
810.231	136.19
810.411	166.91
810.59	74.75
810.769	189.44
810.948	224.25
811.127	56.32
811.306	166.91
811.485	162.81
811.664	146.43
811.843	130.05
812.022	121.85
812.201	97.28
812.38	152.57
812.559	130.05
812.737	193.53
812.916	70.65
813.095	95.23
813.274	68.61
813.453	183.29
813.632	158.72
813.811	138.24
813.989	44.03
814.168	101.37
814.347	76.8
814.526	142.33
814.704	195.58
814.883	166.91
815.062	140.29
815.24	162.81
815.419	101.37
815.598	175.1
815.776	78.85
815.955	142.33
816.133	117.76
816.312	103.42
816.49	105.47
816.669	113.66
816.847	117.76
817.026	109.57
817.204	33.79
817.383	52.22
817.561	152.57
817.74	97.28
817.918	93.18
818.097	68.61
818.275	107.52
818.453	109.57
818.632	142.33
818.81	76.8
818.988	48.13
819.167	123.9
819.345	93.18
819.523	60.42
819.701	78.85
819.879	113.66
820.058	142.33
820.236	113.66
820.414	150.53
820.592	46.08
820.77	89.09
820.948	101.37
821.127	105.47
821.305	134.14
821.483	56.32
821.661	171.01
821.839	105.47
822.017	117.76
822.195	68.61
822.373	93.18
822.551	56.32
822.729	134.14
822.907	136.19
823.085	150.53
823.262	101.37
823.44	89.09
823.618	80.89
823.796	35.84
823.974	87.04
824.152	15.36
824.329	39.94
824.507	46.08
824.685	44.03
824.863	-11.26
825.04	74.75
825.218	132.09
825.396	78.85
825.574	64.51
825.751	84.99
825.929	89.09
826.107	76.8
826.284	62.46
826.462	15.36
826.639	60.42
826.817	52.22
826.994	48.13
827.172	27.65
827.349	119.81
827.527	84.99
827.704	205.82
827.882	15.36
828.059	31.74
828.237	-25.6
828.414	70.65
828.591	-17.41
828.769	54.27
828.946	-5.12
829.124	107.52
829.301	134.14
829.478	134.14
829.655	19.46
829.833	166.91
830.01	-48.13
830.187	109.57
830.364	39.94
830.542	21.5
830.719	121.85
830.896	56.32
831.073	80.89
831.25	97.28
831.427	97.28
831.604	68.61
831.782	58.37
831.959	68.61
832.136	76.8
832.313	89.09
832.49	89.09
832.667	101.37
832.844	27.65
833.021	78.85
833.198	35.84
833.374	107.52
833.551	99.33
833.728	109.57
833.905	39.94
834.082	64.51
834.259	5.12
834.436	72.7
834.612	-7.17
834.789	109.57
834.966	62.46
835.143	74.75
835.319	23.55
835.496	121.85
835.673	33.79
835.85	136.19
836.026	117.76
836.203	56.32
836.38	19.46
836.556	62.46
836.733	-9.22
836.909	29.7
837.086	52.22
837.262	21.5
837.439	27.65
837.616	142.33
837.792	27.65
837.968	29.7
838.145	-37.89
838.321	101.37
838.498	76.8
838.674	-60.42
838.851	11.26
839.027	37.89
839.203	-11.26
839.38	15.36
839.556	-5.12
839.732	27.65
839.909	21.5
840.085	46.08
840.261	27.65
840.437	37.89
840.614	76.8
840.79	78.85
840.966	54.27
841.142	103.42
841.318	-58.37
841.494	37.89
841.671	35.84
841.847	3.07
842.023	-56.32
842.199	93.18
842.375	138.24
842.551	-50.18
842.727	109.57
842.903	109.57
843.079	11.26
843.255	64.51
843.431	78.85
843.607	-1.02
843.783	-7.17
843.959	56.32
844.134	-21.5
844.31	87.04
844.486	21.5
844.662	-3.07
844.838	-5.12
845.013	50.18
845.189	19.46
845.365	50.18
845.541	37.89
845.716	-5.12
845.892	93.18
846.068	11.26
846.244	-46.08
846.419	60.42
846.595	15.36
846.77	23.55
846.946	84.99
847.122	-64.51
847.297	3.07
847.473	44.03
847.648	-9.22
847.824	87.04
847.999	27.65
848.175	-15.36
848.35	41.98
848.526	21.5
848.701	35.84
848.876	123.9
849.052	41.98
849.227	11.26
849.403	-17.41
849.578	54.27
849.753	52.22
849.929	93.18
850.104	-11.26
850.279	3.07
850.454	46.08
850.63	15.36
850.805	64.51
850.98	91.13
851.155	-29.7
851.33	84.99
851.505	27.65
851.681	134.14
851.856	-17.41
852.031	52.22
852.206	72.7
852.381	19.46
852.556	-60.42
852.731	39.94
852.906	-13.31
853.081	3.07
853.256	54.27
853.431	-64.51
853.606	35.84
853.781	-60.42
853.956	-13.31
854.131	46.08
854.305	-3.07
854.48	-11.26
854.655	29.7
854.83	-7.17
855.005	-3.07
855.18	48.13
855.354	44.03
855.529	-27.65
855.704	37.89
855.879	-15.36
856.053	9.22
856.228	23.55
856.403	-5.12
856.577	29.7
856.752	-52.22
856.926	-66.56
857.101	-41.98
857.276	-5.12
857.45	-37.89
857.625	21.5
857.799	29.7
857.974	-3.07
858.148	-11.26
858.323	27.65
858.497	-5.12
858.672	-54.27
858.846	9.22
859.02	23.55
859.195	-11.26
859.369	-60.42
859.543	-54.27
859.718	60.42
859.892	29.7
860.066	-3.07
860.241	-21.5
860.415	-1.02
860.589	-44.03
860.763	37.89
860.938	-29.7
861.112	68.61
861.286	9.22
861.46	5.12
861.634	-46.08
861.808	41.98
861.982	-50.18
862.157	80.89
862.331	91.13
862.505	-11.26
862.679	-25.6
862.853	29.7
863.027	11.26
863.201	19.46
863.375	46.08
863.549	33.79
863.722	19.46
863.896	13.31
864.07	-5.12
864.244	80.89
864.418	31.74
864.592	5.12
864.766	-21.5
864.939	-11.26
865.113	11.26
865.287	87.04
865.461	82.94
865.634	62.46
865.808	31.74
865.982	27.65
866.156	-37.89
866.329	21.5
866.503	-17.41
866.676	19.46
866.85	-15.36
867.024	25.6
867.197	21.5
867.371	15.36
867.544	-11.26
867.718	15.36
867.891	-3.07
868.065	-52.22
868.238	37.89
868.412	-21.5
868.585	46.08
868.759	3.07
868.932	-9.22
869.105	-37.89
869.279	13.31
869.452	31.74
869.625	-23.55
869.799	-13.31
869.972	-87.04
870.145	-64.51
870.319	-13.31
870.492	-19.46
870.665	3.07
870.838	-29.7
871.011	-29.7
871.185	-13.31
871.358	-41.98
871.531	-29.7
871.704	-13.31
871.877	-54.27
872.05	-41.98
872.223	35.84
872.396	31.74
872.569	11.26
872.742	-31.74
872.915	78.85
873.088	-13.31
873.261	-35.84
873.434	39.94
873.607	-54.27
873.78	-25.6
873.953	-54.27
874.126	-21.5
874.299	19.46
874.471	-5.12
874.644	103.42
874.817	-23.55
874.99	-25.6
875.163	-3.07
875.335	-50.18
875.508	62.46
875.681	-5.12
875.853	-91.13
876.026	35.84
876.199	27.65
876.371	-21.5
876.544	-23.55
876.717	-5.12
876.889	-31.74
877.062	72.7
877.234	-5.12
877.407	-21.5
877.579	21.5
877.752	5.12
877.924	11.26
878.097	-3.07
878.269	-13.31
878.442	64.51
878.614	-11.26
878.786	-19.46
878.959	27.65
879.131	-50.18
879.303	-29.7
879.476	29.7
879.648	56.32
879.82	7.17
879.993	-37.89
880.165	5.12
880.337	-17.41
880.509	-17.41
880.681	-5.12
880.854	37.89
881.026	29.7
881.198	72.7
881.37	27.65
881.542	78.85
881.714	-11.26
881.886	27.65
882.058	5.12
882.23	15.36
882.402	11.26
882.574	-37.89
882.746	9.22
882.918	37.89
883.09	-27.65
883.262	37.89
883.434	-52.22
883.606	21.5
883.778	17.41
883.95	11.26
884.122	-7.17
884.293	13.31
884.465	37.89
884.637	-33.79
884.809	-37.89
884.98	-7.17
885.152	5.12
885.324	39.94
885.496	-66.56
885.667	27.65
885.839	-56.32
886.011	93.18
886.182	44.03
886.354	3.07
886.525	-17.41
886.697	-21.5
886.869	-33.79
887.04	70.65
887.212	-11.26
887.383	-15.36
887.555	-29.7
887.726	-54.27
887.897	-15.36
888.069	-80.89
888.24	66.56
888.412	-3.07
888.583	-39.94
888.754	-1.02
888.926	-7.17
889.097	15.36
889.268	-27.65
889.44	-21.5
889.611	-41.98
889.782	-29.7
889.953	-58.37
890.125	-11.26
890.296	-29.7
890.467	39.94
890.638	-11.26
890.809	37.89
890.98	-27.65
891.151	17.41
891.323	-52.22
891.494	52.22
891.665	-44.03
891.836	-48.13
892.007	27.65
892.178	-1.02
892.349	13.31
892.52	-19.46
892.691	21.5
892.862	9.22
893.032	-41.98
893.203	7.17
893.374	-19.46
893.545	13.31
893.716	-25.6
893.887	-27.65
894.057	3.07
894.228	62.46
894.399	-52.22
894.57	44.03
894.74	-29.7
894.911	35.84
895.082	-46.08
895.253	-37.89
895.423	-17.41
895.594	11.26
895.764	54.27
895.935	35.84
896.106	-17.41
896.276	-70.65
896.447	29.7
896.617	21.5
896.788	-68.61
896.958	25.6
897.129	-62.46
897.299	21.5
897.47	52.22
897.64	17.41
897.81	-27.65
897.981	-1.02
898.151	-17.41
898.322	-60.42
898.492	-21.5
898.662	-13.31
898.832	-33.79
899.003	35.84
899.173	21.5
899.343	-13.31
899.513	-37.89
