Data from USB4F104151__189__14-45-11-272.txt Node

Date: Thu Mar 13 14:45:11 EDT 2025
User: louis
Spectrometer: USB4F10415
Trigger mode: 4
Integration Time (sec): 2.000000E-2
Scans to average: 1
Electric dark correction enabled: true
Nonlinearity correction enabled: false
Boxcar width: 0
XAxis mode: Wavelengths
Number of Pixels in Spectrum: 3648
>>>>>Begin Spectral Data<<<<<
178.204	-83.28
178.424	-83.28
178.644	-83.28
178.864	-148.82
179.084	-83.28
179.304	-3.41
179.524	-58.71
179.744	15.02
179.964	78.51
180.184	-5.46
180.404	62.12
180.624	-52.56
180.844	51.88
181.064	-71
181.283	23.21
181.503	-42.32
181.723	2.73
181.943	-144.72
182.163	58.03
182.383	10.92
182.602	62.12
182.822	60.07
183.042	-3.41
183.262	-34.13
183.482	6.83
183.701	21.16
183.921	-3.41
184.141	-3.41
184.361	33.45
184.58	-36.18
184.8	31.4
185.02	21.16
185.239	12.97
185.459	64.17
185.679	62.12
185.898	-19.8
186.118	70.31
186.338	53.93
186.557	45.74
186.777	12.97
186.997	-27.99
187.216	8.87
187.436	58.03
187.655	-7.51
187.875	12.97
188.095	4.78
188.314	49.83
188.534	68.27
188.753	29.35
188.973	-34.13
189.192	76.46
189.412	58.03
189.631	78.51
189.851	72.36
190.07	4.78
190.29	12.97
190.509	-34.13
190.729	-77.14
190.948	60.07
191.168	121.51
191.387	45.74
191.607	-7.51
191.826	-23.89
192.045	-3.41
192.265	37.55
192.484	-52.56
192.704	33.45
192.923	53.93
193.142	66.22
193.362	62.12
193.581	62.12
193.8	49.83
194.02	41.64
194.239	-36.18
194.458	-19.8
194.678	78.51
194.897	33.45
195.116	58.03
195.335	21.16
195.555	-7.51
195.774	-9.56
195.993	39.59
196.212	-21.84
196.432	-11.61
196.651	-44.37
196.87	35.5
197.089	90.79
197.308	-3.41
197.528	-1.37
197.747	15.02
197.966	78.51
198.185	64.17
198.404	37.55
198.623	31.4
198.842	80.55
199.062	-7.51
199.281	64.17
199.5	-11.61
199.719	-3.41
199.938	4.78
200.157	58.03
200.376	86.7
200.595	41.64
200.814	29.35
201.033	-42.32
201.252	72.36
201.471	-15.7
201.69	-25.94
201.909	62.12
202.128	6.83
202.347	62.12
202.566	-3.41
202.785	45.74
203.004	12.97
203.223	94.89
203.442	12.97
203.661	-36.18
203.879	0.68
204.098	47.79
204.317	-7.51
204.536	31.4
204.755	-21.84
204.974	-1.37
205.193	-13.65
205.411	23.21
205.63	6.83
205.849	-48.47
206.068	49.83
206.287	-7.51
206.505	-5.46
206.724	37.55
206.943	45.74
207.162	-34.13
207.381	78.51
207.599	-44.37
207.818	-34.13
208.037	12.97
208.255	37.55
208.474	45.74
208.693	70.31
208.911	35.5
209.13	-48.47
209.349	-11.61
209.567	41.64
209.786	113.32
210.005	-38.23
210.223	12.97
210.442	64.17
210.661	80.55
210.879	-40.28
211.098	29.35
211.316	33.45
211.535	62.12
211.753	-19.8
211.972	78.51
212.191	43.69
212.409	8.87
212.628	19.11
212.846	-30.04
213.065	-56.66
213.283	-34.13
213.502	-50.52
213.72	62.12
213.938	-3.41
214.157	21.16
214.375	-19.8
214.594	-27.99
214.812	-3.41
215.031	-52.56
215.249	19.11
215.467	-13.65
215.686	-38.23
215.904	37.55
216.122	29.35
216.341	23.21
216.559	35.5
216.778	98.99
216.996	33.45
217.214	41.64
217.432	86.7
217.651	-9.56
217.869	-9.56
218.087	-77.14
218.306	-3.41
218.524	41.64
218.742	-38.23
218.96	88.75
219.179	41.64
219.397	25.26
219.615	107.18
219.833	37.55
220.051	-7.51
220.27	37.55
220.488	39.59
220.706	21.16
220.924	25.26
221.142	-11.61
221.36	29.35
221.578	-19.8
221.796	37.55
222.015	17.07
222.233	-15.7
222.451	23.21
222.669	-11.61
222.887	29.35
223.105	-3.41
223.323	-89.43
223.541	-48.47
223.759	66.22
223.977	-27.99
224.195	86.7
224.413	-7.51
224.631	94.89
224.849	-7.51
225.067	64.17
225.285	-40.28
225.503	-1.37
225.721	-85.33
225.939	0.68
226.157	2.73
226.375	131.75
226.592	-77.14
226.81	-3.41
227.028	31.4
227.246	92.84
227.464	-19.8
227.682	-9.56
227.9	10.92
228.117	-42.32
228.335	37.55
228.553	41.64
228.771	4.78
228.989	-1.37
229.206	-38.23
229.424	6.83
229.642	4.78
229.86	64.17
230.077	25.26
230.295	15.02
230.513	39.59
230.731	76.46
230.948	-11.61
231.166	86.7
231.384	4.78
231.601	53.93
231.819	19.11
232.037	-25.94
232.254	-32.08
232.472	8.87
232.689	4.78
232.907	62.12
233.125	33.45
233.342	-60.76
233.56	45.74
233.777	29.35
233.995	-11.61
234.213	68.27
234.43	12.97
234.648	37.55
234.865	23.21
235.083	25.26
235.3	39.59
235.518	29.35
235.735	103.08
235.953	51.88
236.17	8.87
236.388	55.98
236.605	37.55
236.822	6.83
237.04	-11.61
237.257	12.97
237.475	0.68
237.692	-7.51
237.909	-34.13
238.127	25.26
238.344	45.74
238.562	17.07
238.779	21.16
238.996	86.7
239.214	39.59
239.431	94.89
239.648	2.73
239.865	-19.8
240.083	39.59
240.3	-19.8
240.517	-21.84
240.735	45.74
240.952	62.12
241.169	45.74
241.386	-9.56
241.603	-13.65
241.821	17.07
242.038	49.83
242.255	21.16
242.472	12.97
242.689	-3.41
242.907	25.26
243.124	-30.04
243.341	-32.08
243.558	-11.61
243.775	-54.61
243.992	2.73
244.209	37.55
244.426	-11.61
244.643	125.61
244.86	-1.37
245.078	27.31
245.295	60.07
245.512	-23.89
245.729	-7.51
245.946	-34.13
246.163	12.97
246.38	29.35
246.597	70.31
246.814	64.17
247.031	-32.08
247.248	55.98
247.464	76.46
247.681	-9.56
247.898	103.08
248.115	19.11
248.332	-54.61
248.549	111.27
248.766	74.41
248.983	-3.41
249.2	80.55
249.417	74.41
249.633	15.02
249.85	33.45
250.067	25.26
250.284	-11.61
250.501	74.41
250.717	37.55
250.934	-77.14
251.151	39.59
251.368	-15.7
251.585	12.97
251.801	31.4
252.018	-17.75
252.235	49.83
252.451	49.83
252.668	-7.51
252.885	76.46
253.102	33.45
253.318	41.64
253.535	-13.65
253.752	45.74
253.968	-1.37
254.185	33.45
254.401	-11.61
254.618	62.12
254.835	-50.52
255.051	45.74
255.268	-1.37
255.484	33.45
255.701	23.21
255.917	62.12
256.134	-5.46
256.351	29.35
256.567	-13.65
256.784	21.16
257	-66.9
257.217	55.98
257.433	10.92
257.65	111.27
257.866	152.23
258.082	35.5
258.299	12.97
258.515	131.75
258.732	-30.04
258.948	-27.99
259.165	37.55
259.381	23.21
259.597	66.22
259.814	-3.41
260.03	45.74
260.246	0.68
260.463	27.31
260.679	70.31
260.895	90.79
261.112	-1.37
261.328	25.26
261.544	37.55
261.761	37.55
261.977	-7.51
262.193	39.59
262.409	31.4
262.626	45.74
262.842	-52.56
263.058	0.68
263.274	80.55
263.49	35.5
263.707	23.21
263.923	27.31
264.139	-19.8
264.355	86.7
264.571	-1.37
264.787	29.35
265.004	6.83
265.22	-23.89
265.436	17.07
265.652	-17.75
265.868	64.17
266.084	-34.13
266.3	29.35
266.516	-34.13
266.732	27.31
266.948	2.73
267.164	94.89
267.38	43.69
267.596	-27.99
267.812	92.84
268.028	47.79
268.244	-42.32
268.46	-40.28
268.676	-3.41
268.892	-36.18
269.108	-52.56
269.324	8.87
269.54	-44.37
269.756	164.52
269.972	37.55
270.188	6.83
270.403	-7.51
270.619	19.11
270.835	21.16
271.051	37.55
271.267	0.68
271.483	35.5
271.698	17.07
271.914	62.12
272.13	29.35
272.346	21.16
272.562	0.68
272.777	45.74
272.993	-44.37
273.209	-3.41
273.425	45.74
273.64	29.35
273.856	21.16
274.072	17.07
274.287	-7.51
274.503	21.16
274.719	-7.51
274.934	21.16
275.15	-17.75
275.366	86.7
275.581	10.92
275.797	29.35
276.012	55.98
276.228	12.97
276.444	107.18
276.659	111.27
276.875	-25.94
277.09	-17.75
277.306	31.4
277.521	-11.61
277.737	27.31
277.952	15.02
278.168	31.4
278.383	-15.7
278.599	2.73
278.814	-5.46
279.03	37.55
279.245	25.26
279.461	49.83
279.676	-9.56
279.892	-17.75
280.107	35.5
280.322	4.78
280.538	58.03
280.753	25.26
280.969	21.16
281.184	-7.51
281.399	21.16
281.615	111.27
281.83	15.02
282.045	31.4
282.26	-60.76
282.476	-11.61
282.691	55.98
282.906	113.32
283.122	27.31
283.337	-30.04
283.552	107.18
283.767	37.55
283.983	21.16
284.198	53.93
284.413	-38.23
284.628	29.35
284.843	4.78
285.058	29.35
285.274	45.74
285.489	-60.76
285.704	-23.89
285.919	-83.28
286.134	64.17
286.349	70.31
286.564	-1.37
286.779	101.03
286.995	-21.84
287.21	-3.41
287.425	70.31
287.64	6.83
287.855	-1.37
288.07	-13.65
288.285	45.74
288.5	88.75
288.715	35.5
288.93	-25.94
289.145	4.78
289.36	49.83
289.575	-34.13
289.79	-11.61
290.004	70.31
290.219	62.12
290.434	4.78
290.649	-40.28
290.864	4.78
291.079	37.55
291.294	8.87
291.509	78.51
291.724	-34.13
291.938	41.64
292.153	62.12
292.368	-5.46
292.583	23.21
292.798	21.16
293.012	-32.08
293.227	74.41
293.442	23.21
293.657	21.16
293.871	88.75
294.086	17.07
294.301	135.85
294.516	47.79
294.73	19.11
294.945	-50.52
295.16	47.79
295.374	39.59
295.589	41.64
295.804	0.68
296.018	29.35
296.233	-1.37
296.447	86.7
296.662	-15.7
296.877	8.87
297.091	39.59
297.306	17.07
297.52	64.17
297.735	-48.47
297.949	53.93
298.164	41.64
298.378	62.12
298.593	31.4
298.807	53.93
299.022	21.16
299.236	53.93
299.451	4.78
299.665	-9.56
299.88	2.73
300.094	64.17
300.309	105.13
300.523	-48.47
300.737	21.16
300.952	33.45
301.166	25.26
301.381	39.59
301.595	15.02
301.809	12.97
302.024	41.64
302.238	-27.99
302.452	62.12
302.667	62.12
302.881	47.79
303.095	70.31
303.309	-11.61
303.524	-17.75
303.738	-42.32
303.952	80.55
304.166	74.41
304.381	0.68
304.595	72.36
304.809	2.73
305.023	60.07
305.237	49.83
305.452	-3.41
305.666	-21.84
305.88	8.87
306.094	21.16
306.308	25.26
306.522	39.59
306.736	33.45
306.95	-7.51
307.164	-19.8
307.379	31.4
307.593	96.94
307.807	72.36
308.021	119.46
308.235	-7.51
308.449	41.64
308.663	37.55
308.877	113.32
309.091	-40.28
309.305	-3.41
309.519	-68.95
309.733	-23.89
309.947	15.02
310.161	66.22
310.374	6.83
310.588	62.12
310.802	49.83
311.016	31.4
311.23	41.64
311.444	4.78
311.658	-9.56
311.872	23.21
312.085	45.74
312.299	45.74
312.513	72.36
312.727	-3.41
312.941	-52.56
313.154	62.12
313.368	-17.75
313.582	64.17
313.796	-25.94
314.009	-36.18
314.223	37.55
314.437	45.74
314.651	17.07
314.864	58.03
315.078	80.55
315.292	78.51
315.505	29.35
315.719	0.68
315.933	58.03
316.146	-42.32
316.36	-19.8
316.573	60.07
316.787	-3.41
317.001	64.17
317.214	12.97
317.428	-25.94
317.641	64.17
317.855	-34.13
318.068	-3.41
318.282	4.78
318.495	55.98
318.709	21.16
318.922	-7.51
319.136	94.89
319.349	53.93
319.563	33.45
319.776	12.97
319.99	-50.52
320.203	37.55
320.417	12.97
320.63	86.7
320.843	105.13
321.057	17.07
321.27	66.22
321.483	-9.56
321.697	45.74
321.91	8.87
322.124	92.84
322.337	-93.52
322.55	-7.51
322.763	43.69
322.977	78.51
323.19	53.93
323.403	15.02
323.617	-19.8
323.83	51.88
324.043	51.88
324.256	21.16
324.469	-60.76
324.683	33.45
324.896	78.51
325.109	4.78
325.322	-11.61
325.535	29.35
325.748	119.46
325.962	-1.37
326.175	70.31
326.388	111.27
326.601	60.07
326.814	74.41
327.027	37.55
327.24	137.9
327.453	-30.04
327.666	23.21
327.879	6.83
328.092	98.99
328.305	-44.37
328.518	49.83
328.731	-36.18
328.944	-46.42
329.157	45.74
329.37	103.08
329.583	68.27
329.796	37.55
330.009	-15.7
330.222	37.55
330.435	29.35
330.648	6.83
330.861	17.07
331.073	-3.41
331.286	96.94
331.499	96.94
331.712	-1.37
331.925	-23.89
332.138	-13.65
332.35	55.98
332.563	103.08
332.776	74.41
332.989	-19.8
333.202	90.79
333.414	55.98
333.627	37.55
333.84	55.98
334.053	47.79
334.265	12.97
334.478	6.83
334.691	19.11
334.903	10.92
335.116	-3.41
335.329	23.21
335.541	84.65
335.754	-1.37
335.966	31.4
336.179	111.27
336.392	-3.41
336.604	-7.51
336.817	25.26
337.029	94.89
337.242	53.93
337.454	62.12
337.667	10.92
337.88	-1.37
338.092	39.59
338.305	80.55
338.517	0.68
338.729	37.55
338.942	41.64
339.154	62.12
339.367	-40.28
339.579	107.18
339.792	-9.56
340.004	-23.89
340.217	-17.75
340.429	-1.37
340.641	-27.99
340.854	62.12
341.066	-15.7
341.278	41.64
341.491	111.27
341.703	70.31
341.915	-71
342.128	47.79
342.34	39.59
342.552	-34.13
342.764	12.97
342.977	39.59
343.189	51.88
343.401	45.74
343.613	58.03
343.826	0.68
344.038	-32.08
344.25	2.73
344.462	72.36
344.674	70.31
344.886	47.79
345.099	-7.51
345.311	103.08
345.523	78.51
345.735	-1.37
345.947	-1.37
346.159	-7.51
346.371	-32.08
346.583	19.11
346.795	39.59
347.007	51.88
347.219	-7.51
347.431	-7.51
347.643	45.74
347.855	31.4
348.067	84.65
348.279	-25.94
348.491	105.13
348.703	45.74
348.915	107.18
349.127	21.16
349.339	53.93
349.551	-27.99
349.763	39.59
349.975	-34.13
350.187	19.11
350.399	53.93
350.61	105.13
350.822	-11.61
351.034	68.27
351.246	86.7
351.458	-15.7
351.669	31.4
351.881	45.74
352.093	37.55
352.305	8.87
352.517	60.07
352.728	80.55
352.94	37.55
353.152	70.31
353.363	-1.37
353.575	47.79
353.787	4.78
353.999	78.51
354.21	37.55
354.422	58.03
354.633	33.45
354.845	66.22
355.057	-17.75
355.268	96.94
355.48	0.68
355.692	64.17
355.903	47.79
356.115	47.79
356.326	23.21
356.538	62.12
356.749	-15.7
356.961	25.26
357.172	39.59
357.384	21.16
357.595	25.26
357.807	53.93
358.018	0.68
358.23	-1.37
358.441	21.16
358.653	-7.51
358.864	53.93
359.075	31.4
359.287	29.35
359.498	39.59
359.709	109.23
359.921	-7.51
360.132	53.93
360.344	-13.65
360.555	-1.37
360.766	39.59
360.977	76.46
361.189	113.32
361.4	-38.23
361.611	41.64
361.823	146.09
362.034	58.03
362.245	-27.99
362.456	-23.89
362.667	17.07
362.879	8.87
363.09	12.97
363.301	45.74
363.512	29.35
363.723	0.68
363.935	-38.23
364.146	33.45
364.357	51.88
364.568	96.94
364.779	41.64
364.99	115.37
365.201	17.07
365.412	70.31
365.623	39.59
365.834	-23.89
366.045	49.83
366.256	12.97
366.467	70.31
366.678	-1.37
366.889	2.73
367.1	29.35
367.311	58.03
367.522	15.02
367.733	29.35
367.944	45.74
368.155	55.98
368.366	41.64
368.577	66.22
368.788	55.98
368.999	-17.75
369.209	101.03
369.42	86.7
369.631	64.17
369.842	125.61
370.053	45.74
370.264	21.16
370.474	-3.41
370.685	29.35
370.896	-32.08
371.107	25.26
371.317	41.64
371.528	-3.41
371.739	94.89
371.95	-23.89
372.16	62.12
372.371	-42.32
372.582	-3.41
372.792	76.46
373.003	78.51
373.214	60.07
373.424	29.35
373.635	15.02
373.846	88.75
374.056	8.87
374.267	60.07
374.477	-1.37
374.688	53.93
374.898	47.79
375.109	49.83
375.319	29.35
375.53	45.74
375.74	8.87
375.951	15.02
376.161	37.55
376.372	31.4
376.582	41.64
376.793	64.17
377.003	-11.61
377.214	43.69
377.424	49.83
377.635	-38.23
377.845	45.74
378.055	117.42
378.266	58.03
378.476	21.16
378.686	43.69
378.897	39.59
379.107	21.16
379.317	41.64
379.528	-7.51
379.738	39.59
379.948	2.73
380.158	90.79
380.369	86.7
380.579	94.89
380.789	0.68
380.999	94.89
381.21	49.83
381.42	82.6
381.63	-27.99
381.84	23.21
382.05	21.16
382.261	29.35
382.471	39.59
382.681	17.07
382.891	66.22
383.101	45.74
383.311	-19.8
383.521	12.97
383.731	15.02
383.941	66.22
384.151	47.79
384.361	49.83
384.571	62.12
384.781	113.32
384.991	70.31
385.201	152.23
385.411	80.55
385.621	80.55
385.831	-48.47
386.041	31.4
386.251	92.84
386.461	131.75
386.671	31.4
386.881	62.12
387.091	-1.37
387.301	64.17
387.511	-11.61
387.72	107.18
387.93	90.79
388.14	0.68
388.35	41.64
388.56	139.94
388.769	72.36
388.979	64.17
389.189	55.98
389.399	92.84
389.609	41.64
389.818	23.21
390.028	53.93
390.238	70.31
390.447	10.92
390.657	33.45
390.867	-19.8
391.076	60.07
391.286	55.98
391.496	58.03
391.705	10.92
391.915	109.23
392.125	70.31
392.334	41.64
392.544	31.4
392.753	62.12
392.963	-25.94
393.172	55.98
393.382	41.64
393.591	78.51
393.801	37.55
394.01	141.99
394.22	25.26
394.429	78.51
394.639	55.98
394.848	70.31
395.058	103.08
395.267	55.98
395.477	53.93
395.686	68.27
395.895	105.13
396.105	72.36
396.314	60.07
396.524	-3.41
396.733	-7.51
396.942	-11.61
397.152	72.36
397.361	53.93
397.57	127.66
397.78	58.03
397.989	78.51
398.198	135.85
398.407	37.55
398.617	94.89
398.826	72.36
399.035	39.59
399.244	47.79
399.453	17.07
399.663	152.23
399.872	195.24
400.081	17.07
400.29	109.23
400.499	39.59
400.708	62.12
400.917	88.75
401.127	37.55
401.336	70.31
401.545	148.14
401.754	92.84
401.963	123.56
402.172	137.9
402.381	80.55
402.59	115.37
402.799	119.46
403.008	55.98
403.217	127.66
403.426	64.17
403.635	53.93
403.844	113.32
404.053	88.75
404.262	86.7
404.471	139.94
404.68	98.99
404.888	113.32
405.097	51.88
405.306	111.27
405.515	111.27
405.724	70.31
405.933	70.31
406.142	127.66
406.35	156.33
406.559	74.41
406.768	127.66
406.977	152.23
407.185	90.79
407.394	162.47
407.603	152.23
407.812	160.42
408.02	234.15
408.229	150.18
408.438	152.23
408.646	187.05
408.855	105.13
409.064	252.58
409.272	135.85
409.481	287.4
409.69	193.19
409.898	201.38
410.107	182.95
410.315	252.58
410.524	254.63
410.733	299.69
410.941	277.16
411.15	336.55
411.358	309.93
411.567	303.78
411.775	303.78
411.984	307.88
412.192	352.93
412.401	291.49
412.609	381.6
412.818	424.61
413.026	334.5
413.234	441
413.443	408.23
413.651	391.84
413.86	484
414.068	498.34
414.276	512.67
414.485	451.24
414.693	522.91
414.901	584.35
415.11	549.54
415.318	574.11
415.526	629.41
415.734	610.98
415.943	561.83
416.151	692.9
416.359	653.98
416.567	709.28
416.776	699.04
416.984	729.76
417.192	778.91
417.4	766.62
417.608	797.34
417.817	815.77
418.025	889.5
418.233	930.46
418.441	901.79
418.649	987.8
418.857	1077.91
419.065	1077.91
419.273	1139.35
419.481	1125.02
419.689	1102.49
419.897	1147.55
420.105	1139.35
420.313	1270.42
420.521	1266.33
420.729	1372.82
420.937	1307.29
421.145	1340.05
421.353	1553.04
421.561	1634.96
421.769	1544.85
421.977	1663.63
422.185	1643.15
422.393	1782.42
422.601	1837.71
422.809	1802.9
423.017	1825.42
423.224	1843.85
423.432	1952.4
423.64	2120.33
423.848	2142.86
424.056	2196.11
424.263	2216.58
424.471	2257.54
424.679	2396.81
424.887	2577.03
425.094	2591.36
425.302	2562.69
425.51	2566.79
425.718	2767.49
425.925	2783.87
426.133	2890.37
426.341	3117.69
426.548	3166.84
426.756	3080.83
426.964	3265.14
427.171	3306.1
427.379	3445.37
427.586	3373.69
427.794	3568.24
428.001	3740.27
428.209	4010.61
428.417	3920.49
428.624	4289.13
428.832	4182.63
429.039	4094.57
429.247	4158.06
429.454	4635.24
429.662	4891.23
429.869	4452.97
430.076	4952.67
430.284	4420.2
430.491	4872.8
430.699	5065.31
430.906	5210.72
431.114	5231.19
431.321	5362.26
431.528	5431.9
431.736	5810.77
431.943	6189.64
432.15	6074.96
432.358	6126.16
432.565	6316.62
432.772	6296.14
432.979	6695.49
433.187	6658.63
433.394	6791.75
433.601	7352.89
433.808	7324.22
434.016	7371.32
434.223	7631.41
434.43	8057.39
434.637	7911.99
434.844	8493.61
435.052	8475.18
435.259	8405.55
435.466	8634.92
435.673	8546.86
435.88	9056.8
436.087	9437.72
436.294	9601.56
436.501	9226.78
436.708	9490.97
436.915	9603.61
437.122	10236.43
437.329	10293.77
437.537	10453.52
437.743	10574.35
437.95	10797.57
438.157	11194.88
438.364	11717.11
438.571	11549.18
438.778	11813.37
438.985	12587.5
439.192	12106.23
439.399	12530.16
439.606	12194.29
439.813	12839.4
440.02	13916.63
440.227	13283.81
440.433	13363.68
440.64	13693.4
440.847	13859.29
441.054	14189.01
441.261	15102.4
441.467	14946.76
441.674	15319.49
441.881	15720.89
442.088	15595.96
442.294	15534.53
442.501	15823.29
442.708	16128.44
442.914	16923.05
443.121	17371.55
443.328	17269.16
443.534	18332.05
443.741	18002.33
443.948	17502.62
444.154	19300.74
444.361	18907.53
444.568	19261.83
444.774	18842
444.981	18925.96
445.187	19702.14
445.394	20851.05
445.6	20226.42
445.807	22032.73
446.013	21397.86
446.22	21875.04
446.426	22446.42
446.633	22665.55
446.839	23531.84
447.046	22866.25
447.252	23931.2
447.459	23937.34
447.665	23986.49
447.871	25270.57
448.078	26075.42
448.284	24746.29
448.491	25620.77
448.697	26265.88
448.903	26839.31
449.11	27244.81
449.316	26706.2
449.522	27236.62
449.728	27996.42
449.935	28477.69
450.141	27889.92
450.347	28965.1
450.553	27967.74
450.76	28363
450.966	29376.75
451.172	28897.52
451.378	29593.83
451.584	29321.45
451.791	29909.22
451.997	29593.83
452.203	30413.02
452.409	30464.22
452.615	30251.23
452.821	29198.57
453.027	29251.82
453.233	30406.87
453.44	29147.37
453.646	29577.45
453.852	29710.57
454.058	30140.64
454.264	29440.23
454.47	30142.69
454.676	29389.03
454.882	29993.18
455.088	27697.41
455.294	28168.44
455.5	28580.09
455.705	28932.34
455.911	27867.39
456.117	27494.66
456.323	26698
456.529	25426.21
456.735	26972.43
456.941	26106.14
457.147	25731.36
457.352	24742.19
457.558	24621.36
457.764	24877.36
457.97	24156.47
458.176	23615.81
458.381	23793.98
458.587	22835.53
458.793	22788.43
458.999	21475.68
459.204	23241.03
459.41	22458.71
459.616	20990.31
459.821	21219.69
460.027	20988.27
460.233	20525.43
460.438	19579.26
460.644	19720.57
460.85	18796.94
461.055	18772.36
461.261	18213.27
461.466	17353.12
461.672	16587.18
461.878	17766.81
462.083	16802.22
462.289	16495.02
462.494	16320.95
462.7	15421.89
462.905	15131.08
463.111	15628.73
463.316	15569.34
463.522	15456.7
463.727	15282.63
463.932	15376.83
464.138	15126.98
464.343	15352.26
464.549	14883.27
464.754	15145.41
464.959	15100.36
465.165	15018.44
465.37	14574.03
465.575	14033.36
465.781	14328.27
465.986	14545.36
466.191	14229.97
466.397	13967.83
466.602	13230.56
466.807	13746.65
467.012	13730.27
467.218	13388.25
467.423	13375.97
467.628	13664.73
467.833	14094.8
468.038	13789.66
468.244	13203.94
468.449	13816.28
468.654	13238.75
468.859	13406.69
469.064	13160.93
469.269	12767.72
469.474	12693.99
469.679	13156.83
469.885	12499.44
470.09	12894.69
470.295	12704.23
470.5	12333.55
470.705	12655.08
470.91	12198.38
471.115	12122.61
471.32	12450.28
471.525	12284.4
471.73	11923.96
471.935	12055.03
472.139	11594.23
472.344	11735.54
472.549	11598.33
472.754	11479.55
472.959	11336.19
473.164	11055.62
473.369	10897.92
473.574	11448.83
473.778	11287.04
473.983	10945.03
474.188	11149.82
474.393	10539.53
474.598	10732.04
474.802	10387.98
475.007	10510.86
475.212	10283.53
475.417	10117.65
475.621	10109.46
475.826	10097.17
476.031	9753.11
476.235	9632.28
476.44	9845.27
476.645	9646.62
476.849	9585.18
477.054	9390.62
477.259	9288.22
477.463	9368.09
477.668	9220.64
477.872	9294.36
478.077	9179.68
478.282	8886.82
478.486	9003.55
478.691	8757.8
478.895	8763.94
479.1	8839.72
479.304	8618.54
479.509	8446.51
479.713	8665.64
479.918	8172.08
480.122	8118.83
480.326	8446.51
480.531	8440.36
480.735	8446.51
480.94	8249.9
481.144	8548.9
481.348	8151.6
481.553	8143.41
481.757	8069.68
481.961	8147.5
482.166	8356.4
482.37	8104.49
482.574	7991.86
482.778	8151.6
482.983	8110.64
483.187	7934.51
483.391	8262.19
483.595	8145.45
483.8	7924.27
484.004	8034.86
484.208	8190.51
484.412	8235.57
484.616	8049.2
484.821	8094.26
485.025	8086.06
485.229	8192.56
485.433	8036.91
485.637	8065.58
485.841	7905.84
486.045	8098.35
486.249	7979.57
486.453	8055.34
486.657	8139.31
486.861	8157.74
487.065	7838.26
487.269	8198.7
487.473	7920.18
487.677	8139.31
487.881	8172.08
488.085	8038.96
488.289	8282.67
488.493	8098.35
488.697	8319.53
488.901	8438.31
489.105	8155.69
489.309	8213.04
489.512	8292.91
489.716	8305.2
489.92	8231.47
490.124	8282.67
490.328	8561.19
490.531	8342.06
490.735	8438.31
490.939	8524.33
491.143	8272.43
491.346	8395.31
491.55	8493.61
491.754	8524.33
491.958	8606.25
492.161	8352.3
492.365	8716.84
492.569	8571.43
492.772	8798.76
492.976	8747.56
493.18	8737.32
493.383	8860.2
493.587	8903.2
493.79	8843.81
493.994	8800.8
494.197	9058.85
494.401	9071.14
494.605	9204.25
494.808	9130.53
495.012	9404.96
495.215	9288.22
495.419	9382.43
495.622	9435.67
495.825	9679.38
496.029	9642.52
496.232	10013.2
496.436	9703.96
496.639	9929.24
496.843	10015.25
497.046	10131.98
497.249	10412.56
497.453	10320.4
497.656	10412.56
497.859	10496.52
498.063	10301.97
498.266	10934.79
498.469	10818.05
498.673	10969.6
498.876	11172.35
499.079	11244.03
499.282	11129.34
499.485	11428.35
499.689	11782.65
499.892	11776.5
500.095	11997.68
500.298	12067.31
500.501	11938.29
500.705	12470.76
500.908	12700.14
501.111	12743.14
501.314	12820.97
501.517	12835.3
501.72	13079.01
501.923	13165.03
502.126	13455.84
502.329	13572.57
502.532	13623.77
502.735	13722.07
502.938	14303.7
503.141	13965.78
503.344	14338.51
503.547	14442.96
503.75	14619.08
503.953	14578.12
504.156	14834.12
504.359	14862.79
504.562	15135.17
504.765	15364.54
504.968	15841.72
505.17	15946.17
505.373	15837.62
505.576	16325.04
505.779	16372.14
505.982	16454.06
506.185	16871.85
506.387	16822.7
506.59	17336.74
506.793	17514.91
506.996	17209.76
507.198	17779.1
507.401	17750.43
507.604	18184.6
507.807	18549.14
508.009	18485.65
508.212	18921.87
508.415	18979.21
508.617	19079.56
508.82	19372.42
509.022	19331.46
509.225	19847.55
509.428	19753.34
509.63	20095.35
509.833	20089.21
510.035	20418.93
510.238	20765.04
510.44	20849
510.643	21059.95
510.845	21418.34
511.048	21432.68
511.25	21533.03
511.453	21760.35
511.655	22837.58
511.858	22403.41
512.06	22860.11
512.262	23152.97
512.465	22853.97
512.667	23417.16
512.87	23343.43
513.072	23642.43
513.274	24127.8
513.477	24201.53
513.679	24656.18
513.881	24850.74
514.084	25014.57
514.286	25061.68
514.488	25323.82
514.69	26108.19
514.893	25813.28
515.095	26355.99
515.297	26394.9
515.499	26634.52
515.701	27306.25
515.904	27242.76
516.106	27719.94
516.308	27803.91
516.51	27945.22
516.712	28117.25
516.914	28596.47
517.116	28825.84
517.318	28745.97
517.52	29190.38
517.722	29466.86
517.925	29638.89
518.127	30116.06
518.329	30535.9
518.531	30421.21
518.733	30843.09
518.935	30943.44
519.136	31287.5
519.338	31574.22
519.54	31819.97
519.742	32123.07
519.944	32299.2
520.146	32768.18
520.348	32960.69
520.55	33114.29
520.752	33271.98
520.954	33837.22
521.155	33853.61
521.357	34039.97
521.559	34218.14
521.761	34896.02
521.963	34689.18
522.164	35092.63
522.366	35639.43
522.568	35614.86
522.77	35645.58
522.971	35621
523.173	36006.02
523.375	36186.24
523.576	36427.9
523.778	36630.65
523.98	36825.21
524.181	36900.98
524.383	37179.51
524.584	37404.78
524.786	37505.13
524.988	37429.36
525.189	38078.57
525.391	37996.65
525.592	38246.5
525.794	38615.13
525.995	38774.88
526.197	38893.66
526.398	38690.91
526.6	38840.41
526.801	39452.75
527.003	39348.31
527.204	39313.49
527.406	39708.75
527.607	39931.98
527.808	40544.32
528.01	39452.75
528.211	39667.79
528.412	40681.53
528.614	40677.44
528.815	40454.21
529.016	40917.05
529.218	40372.29
529.419	40726.59
529.62	40949.82
529.822	40851.52
530.023	40896.57
530.224	40929.34
530.425	40802.36
530.626	40343.62
530.828	40984.63
531.029	41338.93
531.23	41388.08
531.431	41226.29
531.632	41187.38
531.833	41965.61
532.035	41392.18
532.236	41238.58
532.437	41734.19
532.638	41281.59
532.839	42084.39
533.04	41855.02
533.241	41459.76
533.442	42168.36
533.643	42135.59
533.844	41531.44
534.045	41963.56
534.246	41279.54
534.447	42211.37
534.648	42027.05
534.849	41902.12
535.05	41957.42
535.251	41887.79
535.451	41744.43
535.652	41957.42
535.853	42180.65
536.054	42211.37
536.255	42014.76
536.456	41861.16
536.657	42817.57
536.857	42215.46
537.058	42190.89
537.259	42479.65
537.46	41891.88
537.66	42235.94
537.861	41936.94
538.062	42108.97
538.263	41656.37
538.463	41920.56
538.664	41945.13
538.865	42207.27
539.065	42475.55
539.266	41912.36
539.466	42444.83
539.667	41713.71
539.868	42346.53
540.068	42235.94
540.269	41953.32
540.469	42219.56
540.67	41992.23
540.87	41912.36
541.071	41861.16
541.271	42328.1
541.472	42272.81
541.672	42197.03
541.873	41848.88
542.073	41670.7
542.274	42168.36
542.474	41977.9
542.675	41599.02
542.875	42715.17
543.075	41844.78
543.276	41246.77
543.476	42227.75
543.676	41707.57
543.877	42342.44
544.077	41715.76
544.277	42025
544.478	42328.1
544.678	42311.72
544.878	41867.31
545.078	41875.5
545.279	42127.4
545.479	41691.18
545.679	42045.48
545.879	42057.77
546.079	41803.82
546.28	41885.74
546.48	41375.8
546.68	42051.62
546.88	41949.23
547.08	41984.04
547.28	41830.44
547.48	41275.44
547.68	41975.85
547.88	41486.39
548.081	42121.26
548.281	41736.24
548.481	41574.45
548.681	41934.89
548.881	41390.13
549.081	41975.85
549.28	41283.64
549.48	41668.65
549.68	41807.92
549.88	42006.57
550.08	41623.6
550.28	41883.69
550.48	41398.32
550.68	41941.03
550.88	41437.23
551.08	41551.92
551.279	41601.07
551.479	41713.71
551.679	41912.36
551.879	41547.82
552.079	41703.47
552.278	41420.85
552.478	41490.48
552.678	41631.79
552.878	42045.48
553.077	41676.85
553.277	41322.55
553.477	41723.95
553.676	41324.6
553.876	41484.34
554.076	41214.01
554.275	40966.2
554.475	41216.05
554.674	41574.45
554.874	41338.93
555.074	41017.4
555.273	41267.25
555.473	41529.39
555.672	40941.63
555.872	40872
556.071	41324.6
556.271	41005.11
556.47	40953.91
556.67	40900.67
556.869	40411.2
557.068	40998.97
557.268	40407.11
557.467	40882.23
557.667	40904.76
557.866	41097.27
558.065	40538.18
558.265	40364.1
558.464	40448.07
558.663	40773.69
558.863	40380.48
559.062	40884.28
559.261	40134.73
559.461	40888.38
559.66	40122.44
559.859	40413.25
560.058	39692.36
560.258	40149.06
560.457	39675.98
560.656	40331.33
560.855	39764.04
561.054	40714.3
561.253	39995.46
561.453	40034.38
561.652	39968.84
561.851	40130.63
562.05	39946.31
562.249	39893.07
562.448	39780.43
562.647	39823.43
562.846	40142.92
563.045	39725.13
563.244	39428.18
563.443	39577.68
563.642	38987.86
563.841	39510.1
564.04	38936.66
564.239	39389.27
564.438	39184.47
564.637	39385.17
564.836	39387.22
565.035	38639.71
565.234	39137.37
565.432	38701.15
565.631	38606.94
565.83	38897.75
566.029	38658.14
566.228	38578.27
566.427	38500.45
566.625	38600.8
566.824	38017.13
567.023	38471.78
567.222	38062.18
567.42	38238.31
567.619	38121.57
567.818	37955.69
568.016	37662.83
568.215	38285.41
568.414	37707.88
568.612	38254.69
568.811	37793.9
569.01	37836.91
569.208	37372.02
569.407	37636.2
569.605	37365.87
569.804	37732.46
570.002	36900.98
570.201	37439.6
570.4	37027.96
570.598	36915.32
570.797	37136.5
570.995	36921.46
571.193	36962.42
571.392	36989.05
571.59	36745.34
571.789	36802.68
571.987	36323.46
572.186	36167.81
572.384	36386.94
572.582	36655.23
572.781	36163.71
572.979	35815.56
573.177	36042.88
573.376	35825.8
573.574	35616.91
573.772	35821.7
573.971	35801.22
574.169	35487.89
574.367	35776.65
574.565	35801.22
574.763	35201.17
574.962	35494.03
575.16	35082.39
575.358	35352.72
575.556	34617.5
575.754	35651.72
575.952	34965.65
576.151	35068.05
576.349	34746.52
576.547	34568.35
576.745	34953.37
576.943	34891.93
577.141	34549.92
577.339	34543.77
577.537	34089.12
577.735	34203.81
577.933	33941.67
578.131	34492.57
578.329	34136.23
578.527	33583.27
578.725	33697.96
578.923	33540.27
579.121	33237.17
579.319	33300.65
579.516	33542.31
579.714	33312.94
579.912	33192.11
580.11	33106.1
580.308	32921.78
580.506	33243.31
580.704	32358.59
580.901	32907.44
581.099	33050.8
581.297	32522.43
581.495	32503.99
581.692	33054.9
581.89	32276.67
582.088	32401.6
582.285	32223.42
582.483	32276.67
582.681	32370.88
582.878	32370.88
583.076	31787.21
583.274	32094.4
583.471	31441.1
583.669	31598.79
583.866	31477.96
584.064	31752.39
584.262	31510.73
584.459	31649.99
584.657	31500.49
584.854	31361.23
585.052	31158.48
585.249	31375.56
585.447	31013.07
585.644	30726.36
585.841	30589.14
586.039	30976.21
586.236	30646.49
586.434	30718.17
586.631	30552.28
586.828	30552.28
587.026	30210.27
587.223	30118.11
587.42	30150.88
587.618	30349.53
587.815	30179.55
588.012	29855.97
588.21	30001.38
588.407	30234.85
588.604	29786.34
588.801	29595.88
588.999	29583.59
589.196	29655.27
589.393	29505.77
589.59	29403.37
589.787	29456.62
589.984	29126.89
590.182	28817.65
590.379	28858.61
590.576	28627.19
590.773	29085.93
590.97	28729.59
591.167	28872.95
591.364	28535.03
591.561	28752.12
591.758	28301.56
591.955	28272.89
592.152	28733.68
592.349	28094.72
592.546	28096.77
592.743	28176.64
592.94	27570.44
593.137	27678.98
593.334	27889.92
593.531	27486.47
593.727	27715.84
593.924	27728.13
594.121	27099.41
594.318	27472.14
594.515	27218.19
594.712	27263.24
594.908	27078.93
595.105	27091.21
595.302	27117.84
595.499	26919.18
595.696	26773.78
595.892	26482.97
596.089	26853.65
596.286	26583.32
596.482	26611.99
596.679	26466.58
596.876	26548.5
597.072	26128.67
597.269	26124.57
597.466	26116.38
597.662	25973.02
597.859	26071.32
598.055	25860.38
598.252	25710.88
598.448	25970.97
598.645	25809.18
598.841	25590.05
599.038	25686.31
599.234	25221.42
599.431	25243.95
599.627	25379.11
599.824	25338.15
600.02	25014.57
600.217	25166.12
600.413	25119.02
600.609	25033
600.806	24545.59
601.002	24791.34
601.198	24957.23
601.395	24330.55
601.591	24400.18
601.787	24578.36
601.984	24424.76
602.18	24527.16
602.376	24219.96
602.572	24230.2
602.769	24123.71
602.965	23814.46
603.161	24043.84
603.357	23691.59
603.553	23822.66
603.75	23785.79
603.946	23531.84
604.142	23357.77
604.338	23554.37
604.534	23650.63
604.73	23023.95
604.926	23259.46
605.122	23114.06
605.318	22980.94
605.514	23402.82
605.71	23325
605.906	23163.21
606.102	22849.87
606.298	22671.7
606.494	22640.98
606.69	22827.34
606.886	22483.28
607.082	22376.79
607.278	22794.57
607.474	22010.2
607.67	22432.08
607.866	22083.93
608.062	22432.08
608.257	22268.25
608.453	22225.24
608.649	22131.03
608.845	22094.17
609.041	21959
609.236	22040.92
609.432	21999.96
609.628	22063.45
609.824	21829.98
610.019	21746.01
610.215	21588.32
610.411	21850.46
610.606	22030.68
610.802	21795.17
610.998	21455.2
611.193	21510.5
611.389	21371.24
611.584	21414.24
611.78	21102.95
611.976	21356.9
612.171	21162.34
612.367	21262.69
612.562	21045.61
612.758	20990.31
612.953	21082.47
613.149	21303.65
613.344	20918.64
613.539	21166.44
613.735	21090.66
613.93	20830.57
614.126	20916.59
614.321	20756.85
614.517	20945.26
614.712	20658.54
614.907	20312.44
615.103	20828.52
615.298	20701.55
615.493	20758.89
615.688	20324.72
615.884	20681.07
616.079	20574.58
616.274	20597.1
616.47	20251
616.665	20199.8
616.86	20076.92
617.055	20107.64
617.25	19906.94
617.445	20478.32
617.641	19876.22
617.836	19650.94
618.031	19657.09
618.226	20078.97
618.421	19911.03
618.616	19810.68
618.811	19304.84
619.006	19820.92
619.201	19327.36
619.396	19421.57
619.591	18979.21
619.786	19206.53
619.981	19028.36
620.176	19091.85
620.371	18753.93
620.566	18755.98
620.761	18856.33
620.956	18837.9
621.151	18608.53
621.346	18481.55
621.541	18248.08
621.735	18616.72
621.93	18280.85
622.125	18356.63
622.32	17893.79
622.515	18153.88
622.709	17990.04
622.904	17738.14
623.099	17912.22
623.294	17703.32
623.488	17719.71
623.683	17568.16
623.878	17330.59
624.072	17037.73
624.267	17349.03
624.462	17297.83
624.656	17058.21
624.851	16994.73
625.046	17090.98
625.24	16931.24
625.435	16619.95
625.629	16781.74
625.824	16634.28
626.018	16452.02
626.213	16224.69
626.407	16492.97
626.602	15978.93
626.796	16091.57
626.991	15827.39
627.185	16013.75
627.38	15913.4
627.574	15954.36
627.768	15696.32
627.963	15526.33
628.157	15333.82
628.352	15462.85
628.546	15292.87
628.74	15462.85
628.935	15266.24
629.129	15147.46
629.323	14997.96
629.517	14877.13
629.712	14959.05
629.906	14748.11
630.1	14655.95
630.294	14668.23
630.489	14356.94
630.683	14631.37
630.877	14410.19
631.071	14162.39
631.265	14264.78
631.459	14025.17
631.653	14178.77
631.848	13916.63
632.042	13828.57
632.236	13816.28
632.43	13697.5
632.624	13754.84
632.818	13578.72
633.012	13441.5
633.206	13382.11
633.4	13414.88
633.594	13224.42
633.788	13179.36
633.982	13251.04
634.176	13177.31
634.369	13191.65
634.563	12857.83
634.757	12956.13
634.951	12952.04
635.145	12880.36
635.339	12794.34
635.533	12669.42
635.726	12870.12
635.92	12554.73
636.114	12599.79
636.308	12472.81
636.501	12483.05
636.695	12407.28
636.889	12259.82
637.083	12048.88
637.276	11966.96
637.47	11893.24
637.664	11858.42
637.857	12167.66
638.051	11874.81
638.244	11846.13
638.438	11813.37
638.632	11762.17
638.825	11688.44
639.019	11502.08
639.212	11518.46
639.406	11244.03
639.599	11330.05
639.793	11254.27
639.986	11233.79
640.18	11201.02
640.373	10744.33
640.567	10893.83
640.76	10813.96
640.954	10803.72
641.147	10793.48
641.34	10705.42
641.534	10879.49
641.727	10883.59
641.92	10430.99
642.114	10443.28
642.307	10459.66
642.5	10408.46
642.694	10191.38
642.887	10043.92
643.08	10105.36
643.273	10150.42
643.467	10304.01
643.66	10105.36
643.853	9931.28
644.046	9789.97
644.239	9955.86
644.432	9769.49
644.626	9644.57
644.819	9886.23
645.012	9736.73
645.205	9654.81
645.398	9585.18
645.591	9542.17
645.784	9421.34
645.977	9310.75
646.17	9200.16
646.363	9335.32
646.556	9130.53
646.749	9040.42
646.942	9071.14
647.135	9069.09
647.328	9083.42
647.521	9171.49
647.714	8931.87
647.907	8909.35
648.099	8774.18
648.292	8780.32
648.485	8649.25
648.678	8745.51
648.871	8636.97
649.064	8505.9
649.256	8641.06
649.449	8423.98
649.642	8477.23
649.835	8337.96
650.027	8327.72
650.22	8231.47
650.413	8249.9
650.605	8190.51
650.798	8280.62
650.991	8196.65
651.183	8114.73
651.376	7944.75
651.568	8045.1
651.761	7993.9
651.954	7948.85
652.146	7871.03
652.339	7672.37
652.531	7748.15
652.724	7578.17
652.916	7574.07
653.109	7426.62
653.301	7791.16
653.494	7494.2
653.686	7397.95
653.879	7522.87
654.071	7504.44
654.263	7277.12
654.456	7238.2
654.648	7275.07
654.84	7098.94
655.033	7234.11
655.225	7225.92
655.417	7045.7
655.61	7158.33
655.802	7057.98
655.994	7012.93
656.186	6908.48
656.379	6955.58
656.571	7041.6
656.763	6750.79
656.955	6554.18
657.148	6713.92
657.34	6691.4
657.532	6660.68
657.724	6654.53
657.916	6525.51
658.108	6603.33
658.3	6652.49
658.492	6509.13
658.684	6390.35
658.876	6441.54
659.068	6283.85
659.26	6287.95
659.452	6232.65
659.644	6322.76
659.836	6181.45
660.028	6074.96
660.22	6109.77
660.412	6077.01
660.604	6087.25
660.796	5972.56
660.988	5988.94
661.18	5931.6
661.372	5956.18
661.563	5927.5
661.755	5825.11
661.947	5802.58
662.139	5720.66
662.331	5800.53
662.522	5550.68
662.714	5577.3
662.906	5558.87
663.097	5657.17
663.289	5495.38
663.481	5460.57
663.673	5479
663.864	5413.46
664.056	5413.46
664.247	5382.74
664.439	5433.94
664.631	5335.64
664.822	5386.84
665.014	5255.77
665.205	5165.66
665.397	5333.59
665.588	5005.92
665.78	5124.7
665.971	5296.73
666.163	5075.55
666.354	4981.34
666.546	5016.16
666.737	4956.77
666.929	4846.18
667.12	4948.58
667.311	4870.75
667.503	4905.57
667.694	4751.97
667.885	4633.19
668.077	4813.41
668.268	4649.57
668.459	4764.26
668.651	4625
668.842	4584.04
669.033	4649.57
669.224	4522.6
669.416	4629.09
669.607	4389.48
669.798	4555.37
669.989	4594.28
670.18	4487.78
670.371	4405.86
670.563	4434.53
670.754	4575.84
670.945	4356.71
671.136	4430.44
671.327	4424.3
671.518	4375.14
671.709	4307.56
671.9	4313.7
672.091	4360.81
672.282	4342.38
672.473	4117.1
672.664	4190.83
672.855	4250.22
673.046	4242.03
673.237	4215.4
673.428	4141.68
673.619	4125.29
673.809	4092.52
674	4012.65
674.191	4104.81
674.382	4088.43
674.573	4018.8
674.764	3932.78
674.954	4035.18
675.145	3938.93
675.336	4026.99
675.527	3959.41
675.717	3912.3
675.908	3814
676.099	3852.91
676.289	3799.66
676.48	3893.87
676.671	3842.67
676.861	3979.89
677.052	3834.48
677.243	3701.36
677.433	3674.74
677.624	3766.9
677.814	3818.1
678.005	3658.35
678.195	3805.81
678.386	3834.48
678.576	3689.07
678.767	3824.24
678.957	3764.85
679.148	3691.12
679.338	3682.93
679.529	3603.06
679.719	3613.3
679.909	3662.45
680.1	3586.68
680.29	3445.37
680.481	3650.16
680.671	3506.81
680.861	3523.19
681.052	3592.82
681.242	3609.2
681.432	3605.11
681.622	3588.72
681.813	3519.09
682.003	3433.08
682.193	3570.29
682.383	3560.05
682.573	3537.52
682.764	3529.33
682.954	3510.9
683.144	3457.65
683.334	3439.22
683.524	3537.52
683.714	3424.89
683.904	3433.08
684.094	3338.87
684.284	3469.94
684.474	3527.28
684.664	3486.33
684.854	3244.67
685.044	3381.88
685.234	3521.14
685.424	3334.78
685.614	3281.53
685.804	3377.78
685.994	3265.14
686.184	3299.96
686.374	3388.02
686.564	3349.11
686.753	3314.3
686.943	3244.67
687.133	3252.86
687.323	3168.89
687.513	3183.23
687.702	3371.64
687.892	3218.04
688.082	3414.65
688.272	3240.57
688.461	3242.62
688.651	3166.84
688.841	3134.07
689.03	3089.02
689.22	3183.23
689.41	3060.35
689.599	3072.64
689.789	3109.5
689.979	3261.05
690.168	3166.84
690.358	3078.78
690.547	3084.92
690.737	3056.25
690.926	3101.31
691.116	3048.06
691.305	3164.79
691.495	3052.16
691.684	3052.16
691.874	3164.79
692.063	3111.55
692.252	2947.71
692.442	3060.35
692.631	2962.05
692.82	2855.55
693.01	2960
693.199	3031.68
693.388	2830.98
693.578	2896.51
693.767	2904.7
693.956	2960
694.146	2863.74
694.335	2912.89
694.524	3062.4
694.713	2900.61
694.902	2890.37
695.092	2835.07
695.281	2724.48
695.47	2884.22
695.659	2775.68
695.848	2843.26
696.037	2886.27
696.226	2716.29
696.415	2822.78
696.604	2876.03
696.793	2767.49
696.982	2890.37
697.171	2740.86
697.36	2792.06
697.549	2845.31
697.738	2781.82
697.927	2742.91
698.116	2767.49
698.305	2675.33
698.494	2716.29
698.683	2742.91
698.872	2888.32
699.061	2867.84
699.25	2728.58
699.438	2738.82
699.627	2718.34
699.816	2701.95
700.005	2744.96
700.193	2720.39
700.382	2611.84
700.571	2691.71
700.76	2620.03
700.948	2630.27
701.137	2736.77
701.326	2654.85
701.514	2536.07
701.703	2660.99
701.892	2568.84
702.08	2579.08
702.269	2601.6
702.457	2638.47
702.646	2583.17
702.834	2554.5
703.023	2531.97
703.212	2642.56
703.4	2593.41
703.589	2581.12
703.777	2679.43
703.965	2585.22
704.154	2470.53
704.342	2534.02
704.531	2626.18
704.719	2437.77
704.907	2456.2
705.096	2462.34
705.284	2511.49
705.472	2505.35
705.661	2425.48
705.849	2577.03
706.037	2452.1
706.226	2400.9
706.414	2433.67
706.602	2511.49
706.79	2534.02
706.979	2538.12
707.167	2499.2
707.355	2398.85
707.543	2464.39
707.731	2429.57
707.919	2503.3
708.107	2407.05
708.296	2372.23
708.484	2351.75
708.672	2386.57
708.86	2382.47
709.048	2343.56
709.236	2353.8
709.424	2456.2
709.612	2544.26
709.8	2359.94
709.988	2390.66
710.176	2359.94
710.364	2275.98
710.551	2273.93
710.739	2441.86
710.927	2323.08
711.115	2349.7
711.303	2243.21
711.491	2286.22
711.679	2361.99
711.866	2271.88
712.054	2292.36
712.242	2220.68
712.43	2382.47
712.617	2220.68
712.805	2372.23
712.993	2314.89
713.181	2202.25
713.368	2304.65
713.556	2372.23
713.744	2249.35
713.931	2415.24
714.119	2306.7
714.306	2257.54
714.494	2273.93
714.682	2355.85
714.869	2298.5
715.057	2265.74
715.244	2214.54
715.432	2269.83
715.619	2232.97
715.807	2257.54
715.994	2173.58
716.182	2278.02
716.369	2151.05
716.556	2187.91
716.744	2108.04
716.931	2202.25
717.119	2196.11
717.306	2243.21
717.493	2151.05
717.681	2112.14
717.868	2161.29
718.055	2122.38
718.242	2194.06
718.43	2239.11
718.617	2208.39
718.804	2134.67
718.991	2261.64
719.179	2153.1
719.366	2101.9
719.553	2077.32
719.74	2134.67
719.927	2112.14
720.114	2044.56
720.301	2089.61
720.488	2138.76
720.676	2069.13
720.863	2103.95
721.05	2093.71
721.237	2069.13
721.424	2085.51
721.611	2130.57
721.798	2056.84
721.985	1974.92
722.172	2081.42
722.358	2110.09
722.545	2144.91
722.732	2093.71
722.919	1995.4
723.106	2077.32
723.293	2007.69
723.48	2024.08
723.667	2060.94
723.853	1995.4
724.04	2159.24
724.227	1962.64
724.414	1954.44
724.6	1989.26
724.787	2042.51
724.974	1991.31
725.161	2038.41
725.347	1995.4
725.534	1876.62
725.72	2040.46
725.907	1964.68
726.094	1888.91
726.28	1974.92
726.467	1819.28
726.653	1985.16
726.84	2007.69
727.027	1976.97
727.213	1931.92
727.4	2013.84
727.586	1995.4
727.773	1874.57
727.959	1876.62
728.145	1936.01
728.332	2011.79
728.518	1938.06
728.705	1946.25
728.891	1905.29
729.077	1901.2
729.264	1936.01
729.45	1983.12
729.636	1850
729.823	1909.39
730.009	1872.53
730.195	1888.91
730.382	1868.43
730.568	1895.05
730.754	1856.14
730.94	1882.77
731.126	2019.98
731.313	1839.76
731.499	1809.04
731.685	1960.59
731.871	1901.2
732.057	1950.35
732.243	1909.39
732.429	1770.13
732.615	1864.33
732.801	1815.18
732.987	1809.04
733.173	1897.1
733.359	1813.14
733.545	1852.05
733.731	1800.85
733.917	1786.51
734.103	1847.95
734.289	1819.28
734.475	1790.61
734.661	1893.01
734.847	1735.31
735.033	1905.29
735.219	1831.57
735.404	1831.57
735.59	1770.13
735.776	1825.42
735.962	1847.95
736.148	1888.91
736.333	1831.57
736.519	1874.57
736.705	1800.85
736.89	1929.87
737.076	1766.03
737.262	1708.69
737.447	1671.83
737.633	1624.72
737.819	1735.31
738.004	1643.15
738.19	1835.66
738.375	1733.26
738.561	1710.74
738.747	1655.44
738.932	1632.91
739.118	1741.46
739.303	1692.3
739.489	1692.3
739.674	1716.88
739.859	1680.02
740.045	1782.42
740.23	1544.85
740.416	1675.92
740.601	1608.34
740.786	1708.69
740.972	1661.59
741.157	1694.35
741.342	1665.68
741.528	1659.54
741.713	1716.88
741.898	1688.21
742.084	1675.92
742.269	1686.16
742.454	1653.39
742.639	1606.29
742.824	1528.47
743.01	1555.09
743.195	1540.76
743.38	1438.36
743.565	1581.71
743.75	1634.96
743.935	1528.47
744.12	1606.29
744.305	1522.32
744.49	1475.22
744.675	1516.18
744.86	1471.12
745.045	1553.04
745.23	1399.45
745.415	1495.7
745.6	1487.51
745.785	1405.59
745.97	1471.12
746.155	1479.32
746.34	1405.59
746.525	1417.88
746.71	1544.85
746.895	1426.07
747.079	1417.88
747.264	1309.33
747.449	1446.55
747.634	1403.54
747.819	1352.34
748.003	1335.96
748.188	1358.49
748.373	1370.77
748.557	1405.59
748.742	1438.36
748.927	1403.54
749.111	1356.44
749.296	1348.25
749.481	1278.62
749.665	1327.77
749.85	1309.33
750.034	1241.75
750.219	1249.94
750.404	1217.18
750.588	1333.91
750.773	1243.8
750.957	1163.93
751.141	1329.81
751.326	1190.55
751.51	1284.76
751.695	1202.84
751.879	1192.6
752.064	1219.22
752.248	1204.89
752.432	1266.33
752.617	1200.79
752.801	1221.27
752.985	1129.11
753.17	1151.64
753.354	1122.97
753.538	1188.5
753.722	1118.87
753.907	1184.41
754.091	1104.54
754.275	1127.07
754.459	1071.77
754.643	1079.96
754.828	1036.95
755.012	1020.57
755.196	1026.72
755.38	1129.11
755.564	1020.57
755.748	1065.63
755.932	1010.33
756.116	1036.95
756.3	957.08
756.484	1026.72
756.668	1043.1
756.852	1032.86
757.036	1071.77
757.22	959.13
757.404	909.98
757.588	926.36
757.772	1028.76
757.956	918.17
758.14	979.61
758.323	860.83
758.507	883.36
758.691	979.61
758.875	914.08
759.059	899.74
759.242	922.27
759.426	930.46
759.61	885.41
759.794	930.46
759.977	940.7
760.161	936.6
760.345	942.75
760.528	1002.14
760.712	848.54
760.895	963.23
761.079	815.77
761.263	828.06
761.446	848.54
761.63	848.54
761.813	916.12
761.997	889.5
762.18	799.39
762.364	823.97
762.547	809.63
762.731	783.01
762.914	817.82
763.098	836.25
763.281	746.14
763.464	834.21
763.648	887.45
763.831	789.15
764.015	721.57
764.198	750.24
764.381	836.25
764.564	799.39
764.748	821.92
764.931	815.77
765.114	758.43
765.297	793.25
765.481	721.57
765.664	803.49
765.847	785.05
766.03	844.45
766.213	717.47
766.397	766.62
766.58	748.19
766.763	725.66
766.946	758.43
767.129	754.34
767.312	692.9
767.495	836.25
767.678	733.86
767.861	723.62
768.044	766.62
768.227	692.9
768.41	696.99
768.593	758.43
768.776	766.62
768.959	705.18
769.142	758.43
769.324	733.86
769.507	758.43
769.69	688.8
769.873	729.76
770.056	750.24
770.239	725.66
770.421	795.29
770.604	684.7
770.787	742.05
770.97	643.74
771.152	686.75
771.335	645.79
771.518	590.5
771.7	725.66
771.883	711.33
772.066	631.46
772.248	680.61
772.431	676.51
772.613	653.98
772.796	744.1
772.978	570.02
773.161	703.14
773.343	666.27
773.526	610.98
773.708	582.31
773.891	631.46
774.073	682.66
774.256	651.94
774.438	664.22
774.621	656.03
774.803	619.17
774.985	463.52
775.168	588.45
775.35	553.63
775.532	623.27
775.715	594.59
775.897	580.26
776.079	586.4
776.261	563.87
776.444	559.78
776.626	522.91
776.808	527.01
776.99	553.63
777.173	529.06
777.355	565.92
777.537	549.54
777.719	582.31
777.901	479.91
778.083	563.87
778.265	484
778.447	512.67
778.629	481.96
778.811	545.44
778.993	473.76
779.175	615.07
779.357	469.67
779.539	551.59
779.721	496.29
779.903	441
780.085	502.43
780.267	504.48
780.449	522.91
780.631	430.76
780.812	481.96
780.994	520.87
781.176	510.63
781.358	545.44
781.54	406.18
781.721	537.25
781.903	484
782.085	484
782.267	441
782.448	471.72
782.63	430.76
782.812	447.14
782.993	479.91
783.175	348.84
783.357	363.17
783.538	402.08
783.72	402.08
783.901	434.85
784.083	373.41
784.264	438.95
784.446	395.94
784.627	357.03
784.809	436.9
784.99	365.22
785.172	422.56
785.353	369.32
785.535	414.37
785.716	426.66
785.897	387.75
786.079	381.6
786.26	389.8
786.441	389.8
786.623	359.08
786.804	426.66
786.985	328.36
787.167	303.78
787.348	354.98
787.529	357.03
787.71	326.31
787.891	338.6
788.073	291.49
788.254	287.4
788.435	342.69
788.616	414.37
788.797	375.46
788.978	291.49
789.159	275.11
789.34	381.6
789.522	275.11
789.703	234.15
789.884	299.69
790.065	277.16
790.246	293.54
790.427	291.49
790.607	326.31
790.788	316.07
790.969	275.11
791.15	289.45
791.331	299.69
791.512	205.48
791.693	332.45
791.874	295.59
792.054	299.69
792.235	275.11
792.416	221.86
792.597	256.68
792.778	264.87
792.958	295.59
793.139	305.83
793.32	365.22
793.5	213.67
793.681	299.69
793.862	283.3
794.042	240.3
794.223	197.29
794.404	307.88
794.584	209.58
794.765	266.92
794.945	160.42
795.126	318.12
795.306	262.82
795.487	191.14
795.667	187.05
795.848	316.07
796.028	133.8
796.209	127.66
796.389	287.4
796.57	275.11
796.75	225.96
796.93	250.53
797.111	197.29
797.291	240.3
797.471	219.82
797.652	223.91
797.832	144.04
798.012	234.15
798.192	146.09
798.373	221.86
798.553	74.41
798.733	211.62
798.913	256.68
799.093	205.48
799.274	225.96
799.454	160.42
799.634	203.43
799.814	252.58
799.994	244.39
800.174	238.25
800.354	180.9
800.534	180.9
800.714	211.62
800.894	201.38
801.074	178.86
801.254	189.1
801.434	168.62
801.614	156.33
801.794	176.81
801.974	819.87
802.154	160.42
802.334	242.34
802.514	168.62
802.693	228.01
802.873	199.34
803.053	152.23
803.233	242.34
803.413	119.46
803.592	160.42
803.772	176.81
803.952	111.27
804.131	115.37
804.311	187.05
804.491	160.42
804.67	193.19
804.85	113.32
805.03	154.28
805.209	242.34
805.389	162.47
805.568	129.7
805.748	137.9
805.928	201.38
806.107	166.57
806.287	209.58
806.466	191.14
806.646	135.85
806.825	152.23
807.004	111.27
807.184	113.32
807.363	195.24
807.543	234.15
807.722	176.81
807.901	209.58
808.081	152.23
808.26	98.99
808.439	51.88
808.619	86.7
808.798	168.62
808.977	201.38
809.156	166.57
809.336	90.79
809.515	203.43
809.694	113.32
809.873	168.62
810.052	152.23
810.231	139.94
810.411	123.56
810.59	72.36
810.769	129.7
810.948	148.14
811.127	62.12
811.306	86.7
811.485	115.37
811.664	170.66
811.843	80.55
812.022	133.8
812.201	125.61
812.38	144.04
812.559	94.89
812.737	64.17
812.916	72.36
813.095	164.52
813.274	152.23
813.453	78.51
813.632	35.5
813.811	125.61
813.989	115.37
814.168	29.35
814.347	96.94
814.526	103.08
814.704	80.55
814.883	137.9
815.062	131.75
815.24	170.66
815.419	144.04
815.598	133.8
815.776	55.98
815.955	86.7
816.133	139.94
816.312	29.35
816.49	101.03
816.669	129.7
816.847	111.27
817.026	217.77
817.204	98.99
817.383	70.31
817.561	74.41
817.74	94.89
817.918	88.75
818.097	88.75
818.275	62.12
818.453	109.23
818.632	94.89
818.81	96.94
818.988	152.23
819.167	39.59
819.345	121.51
819.523	111.27
819.701	27.31
819.879	39.59
820.058	84.65
820.236	109.23
820.414	129.7
820.592	158.38
820.77	53.93
820.948	78.51
821.127	103.08
821.305	88.75
821.483	58.03
821.661	98.99
821.839	119.46
822.017	55.98
822.195	144.04
822.373	107.18
822.551	39.59
822.729	78.51
822.907	80.55
823.085	127.66
823.262	53.93
823.44	78.51
823.618	90.79
823.796	103.08
823.974	70.31
824.152	80.55
824.329	37.55
824.507	88.75
824.685	68.27
824.863	23.21
825.04	66.22
825.218	25.26
825.396	111.27
825.574	103.08
825.751	53.93
825.929	68.27
826.107	78.51
826.284	37.55
826.462	119.46
826.639	-11.61
826.817	92.84
826.994	90.79
827.172	37.55
827.349	86.7
827.527	58.03
827.704	82.6
827.882	47.79
828.059	111.27
828.237	33.45
828.414	103.08
828.591	8.87
828.769	66.22
828.946	68.27
829.124	29.35
829.301	45.74
829.478	88.75
829.655	37.55
829.833	53.93
830.01	45.74
830.187	109.23
830.364	31.4
830.542	70.31
830.719	121.51
830.896	82.6
831.073	58.03
831.25	37.55
831.427	37.55
831.604	78.51
831.782	39.59
831.959	31.4
832.136	25.26
832.313	53.93
832.49	-48.47
832.667	51.88
832.844	62.12
833.021	62.12
833.198	53.93
833.374	92.84
833.551	-25.94
833.728	2.73
833.905	19.11
834.082	37.55
834.259	15.02
834.436	70.31
834.612	21.16
834.789	94.89
834.966	19.11
835.143	78.51
835.319	17.07
835.496	60.07
835.673	21.16
835.85	117.42
836.026	37.55
836.203	55.98
836.38	-17.75
836.556	62.12
836.733	-7.51
836.909	103.08
837.086	72.36
837.262	-1.37
837.439	6.83
837.616	94.89
837.792	39.59
837.968	74.41
838.145	-17.75
838.321	53.93
838.498	88.75
838.674	12.97
838.851	37.55
839.027	-9.56
839.203	21.16
839.38	55.98
839.556	15.02
839.732	31.4
839.909	-19.8
840.085	37.55
840.261	31.4
840.437	98.99
840.614	33.45
840.79	70.31
840.966	33.45
841.142	51.88
841.318	45.74
841.494	103.08
841.671	-11.61
841.847	47.79
842.023	47.79
842.199	-27.99
842.375	43.69
842.551	-27.99
842.727	23.21
842.903	82.6
843.079	25.26
843.255	101.03
843.431	15.02
843.607	8.87
843.783	4.78
843.959	21.16
844.134	33.45
844.31	150.18
844.486	37.55
844.662	-3.41
844.838	6.83
845.013	74.41
845.189	37.55
845.365	-13.65
845.541	117.42
845.716	4.78
845.892	19.11
846.068	-23.89
846.244	58.03
846.419	23.21
846.595	-30.04
846.77	15.02
846.946	21.16
847.122	53.93
847.297	2.73
847.473	78.51
847.648	113.32
847.824	49.83
847.999	-66.9
848.175	0.68
848.35	-21.84
848.526	-7.51
848.701	-7.51
848.876	6.83
849.052	29.35
849.227	-32.08
849.403	58.03
849.578	-42.32
849.753	39.59
849.929	86.7
850.104	-11.61
850.279	53.93
850.454	66.22
850.63	33.45
850.805	-19.8
850.98	84.65
851.155	-62.8
851.33	15.02
851.505	49.83
851.681	15.02
851.856	-44.37
852.031	51.88
852.206	37.55
852.381	31.4
852.556	-23.89
852.731	12.97
852.906	45.74
853.081	21.16
853.256	12.97
853.431	-7.51
853.606	12.97
853.781	66.22
853.956	-7.51
854.131	74.41
854.305	-21.84
854.48	-15.7
854.655	21.16
854.83	-71
855.005	94.89
855.18	47.79
855.354	-13.65
855.529	6.83
855.704	-9.56
855.879	58.03
856.053	-85.33
856.228	4.78
856.403	-19.8
856.577	70.31
856.752	-9.56
856.926	105.13
857.101	-44.37
857.276	-1.37
857.45	-15.7
857.625	80.55
857.799	-46.42
857.974	-23.89
858.148	-13.65
858.323	39.59
858.497	21.16
858.672	-23.89
858.846	-7.51
859.02	107.18
859.195	-17.75
859.369	4.78
859.543	33.45
859.718	-68.95
859.892	-25.94
860.066	15.02
860.241	-32.08
860.415	-11.61
860.589	-38.23
860.763	49.83
860.938	-56.66
861.112	-19.8
861.286	-13.65
861.46	-27.99
861.634	-25.94
861.808	10.92
861.982	53.93
862.157	-21.84
862.331	15.02
862.505	-40.28
862.679	-11.61
862.853	17.07
863.027	-77.14
863.201	29.35
863.375	8.87
863.549	12.97
863.722	-17.75
863.896	80.55
864.07	41.64
864.244	-3.41
864.418	12.97
864.592	29.35
864.766	-23.89
864.939	-17.75
865.113	-1.37
865.287	82.6
865.461	6.83
865.634	-3.41
865.808	4.78
865.982	39.59
866.156	-62.8
866.329	-40.28
866.503	4.78
866.676	29.35
866.85	74.41
867.024	4.78
867.197	12.97
867.371	31.4
867.544	-19.8
867.718	-81.24
867.891	17.07
868.065	21.16
868.238	-27.99
868.412	-11.61
868.585	-52.56
868.759	4.78
868.932	-15.7
869.105	-17.75
869.279	39.59
869.452	6.83
869.625	21.16
869.799	-11.61
869.972	15.02
870.145	-27.99
870.319	96.94
870.492	-11.61
870.665	-3.41
870.838	8.87
871.011	-36.18
871.185	41.64
871.358	-11.61
871.531	-44.37
871.704	35.5
871.877	6.83
872.05	37.55
872.223	6.83
872.396	45.74
872.569	29.35
872.742	-56.66
872.915	-25.94
873.088	-36.18
873.261	-7.51
873.434	-9.56
873.607	-25.94
873.78	12.97
873.953	21.16
874.126	21.16
874.299	-91.48
874.471	-27.99
874.644	29.35
874.817	-79.19
874.99	21.16
875.163	-5.46
875.335	37.55
875.508	-64.85
875.681	-27.99
875.853	-54.61
876.026	-19.8
876.199	62.12
876.371	-60.76
876.544	45.74
876.717	49.83
876.889	-9.56
877.062	-48.47
877.234	-52.56
877.407	-11.61
877.579	8.87
877.752	62.12
877.924	-36.18
878.097	-66.9
878.269	23.21
878.442	15.02
878.614	-66.9
878.786	94.89
878.959	-23.89
879.131	92.84
879.303	-85.33
879.476	45.74
879.648	-19.8
879.82	10.92
879.993	-3.41
880.165	-68.95
880.337	-48.47
880.509	-9.56
880.681	0.68
880.854	-152.91
881.026	4.78
881.198	33.45
881.37	23.21
881.542	-62.8
881.714	43.69
881.886	-36.18
882.058	25.26
882.23	-23.89
882.402	-17.75
882.574	31.4
882.746	0.68
882.918	29.35
883.09	17.07
883.262	-9.56
883.434	-68.95
883.606	-44.37
883.778	25.26
883.95	29.35
884.122	-85.33
884.293	47.79
884.465	62.12
884.637	-19.8
884.809	-32.08
884.98	-46.42
885.152	-44.37
885.324	21.16
885.496	-1.37
885.667	-32.08
885.839	29.35
886.011	88.75
886.182	6.83
886.354	-40.28
886.525	-19.8
886.697	-17.75
886.869	-66.9
887.04	78.51
887.212	86.7
887.383	53.93
887.555	31.4
887.726	-36.18
887.897	-25.94
888.069	21.16
888.24	4.78
888.412	4.78
888.583	21.16
888.754	-15.7
888.926	4.78
889.097	-23.89
889.268	-21.84
889.44	29.35
889.611	-3.41
889.782	-19.8
889.953	-42.32
890.125	0.68
890.296	-50.52
890.467	-50.52
890.638	-19.8
890.809	-19.8
890.98	12.97
891.151	-17.75
891.323	21.16
891.494	29.35
891.665	-40.28
891.836	21.16
892.007	-52.56
892.178	-52.56
892.349	-15.7
892.52	-52.56
892.691	-27.99
892.862	-27.99
893.032	0.68
893.203	12.97
893.374	17.07
893.545	39.59
893.716	6.83
893.887	-11.61
894.057	-34.13
894.228	103.08
894.399	-7.51
894.57	72.36
894.74	51.88
894.911	-23.89
895.082	-50.52
895.253	-44.37
895.423	-38.23
895.594	53.93
895.764	0.68
895.935	-19.8
896.106	-44.37
896.276	-11.61
896.447	-56.66
896.617	-66.9
896.788	-73.04
896.958	15.02
897.129	-32.08
897.299	2.73
897.47	66.22
897.64	70.31
897.81	6.83
897.981	29.35
898.151	-13.65
898.322	35.5
898.492	12.97
898.662	-58.71
898.832	-60.76
899.003	-23.89
899.173	-3.41
899.343	-60.76
899.513	-27.99
