Data from USB4F104151__174__14-45-00-994.txt Node

Date: Thu Mar 13 14:45:00 EDT 2025
User: louis
Spectrometer: USB4F10415
Trigger mode: 4
Integration Time (sec): 2.000000E-2
Scans to average: 1
Electric dark correction enabled: true
Nonlinearity correction enabled: false
Boxcar width: 0
XAxis mode: Wavelengths
Number of Pixels in Spectrum: 3648
>>>>>Begin Spectral Data<<<<<
178.204	-198.14
178.424	-198.14
178.644	-198.14
178.864	-134.65
179.084	-120.32
179.304	14.85
179.524	-13.82
179.744	-42.5
179.964	10.75
180.184	59.9
180.404	4.61
180.624	39.42
180.844	35.33
181.064	-52.74
181.283	-60.93
181.503	-42.5
181.723	47.62
181.943	-112.13
182.163	109.05
182.383	10.75
182.602	27.14
182.822	31.23
183.042	6.66
183.262	-13.82
183.482	-71.17
183.701	-38.4
183.921	18.94
184.141	-38.4
184.361	78.33
184.58	25.09
184.8	-7.68
185.02	29.18
185.239	20.99
185.459	-1.54
185.679	-42.5
185.898	51.71
186.118	76.29
186.338	2.56
186.557	10.75
186.777	-42.5
186.997	35.33
187.216	-48.64
187.436	-19.97
187.655	2.56
187.875	10.75
188.095	-38.4
188.314	64
188.534	35.33
188.753	-9.73
188.973	12.8
189.192	25.09
189.412	4.61
189.631	45.57
189.851	-38.4
190.07	74.24
190.29	37.38
190.509	6.66
190.729	35.33
190.948	100.86
191.168	109.05
191.387	68.09
191.607	-36.35
191.826	-28.16
192.045	-19.97
192.265	-32.26
192.484	72.19
192.704	12.8
192.923	-69.12
193.142	84.48
193.362	39.42
193.581	43.52
193.8	35.33
194.02	35.33
194.239	59.9
194.458	4.61
194.678	27.14
194.897	20.99
195.116	2.56
195.335	10.75
195.555	27.14
195.774	10.75
195.993	-11.78
196.212	55.81
196.432	37.38
196.651	49.66
196.87	-30.21
197.089	64
197.308	10.75
197.528	-17.92
197.747	-52.74
197.966	-5.63
198.185	51.71
198.404	-54.78
198.623	43.52
198.842	-44.54
199.062	53.76
199.281	10.75
199.5	-9.73
199.719	-11.78
199.938	84.48
200.157	37.38
200.376	-9.73
200.595	61.95
200.814	37.38
201.033	23.04
201.252	43.52
201.471	10.75
201.69	133.63
201.909	-22.02
202.128	27.14
202.347	104.96
202.566	-13.82
202.785	-30.21
203.004	-13.82
203.223	76.29
203.442	4.61
203.661	29.18
203.879	-5.63
204.098	35.33
204.317	-22.02
204.536	18.94
204.755	-34.3
204.974	92.67
205.193	2.56
205.411	125.44
205.63	-24.06
205.849	43.52
206.068	70.14
206.287	45.57
206.505	-28.16
206.724	-24.06
206.943	-42.5
207.162	-26.11
207.381	-34.3
207.599	86.53
207.818	14.85
208.037	-34.3
208.255	-46.59
208.474	27.14
208.693	-60.93
208.911	-11.78
209.13	68.09
209.349	-34.3
209.567	-15.87
209.786	53.76
210.005	8.7
210.223	-11.78
210.442	-36.35
210.661	31.23
210.879	-22.02
211.098	-19.97
211.316	35.33
211.535	6.66
211.753	-1.54
211.972	39.42
212.191	23.04
212.409	18.94
212.628	76.29
212.846	-62.98
213.065	18.94
213.283	35.33
213.502	18.94
213.72	10.75
213.938	-13.82
214.157	-38.4
214.375	39.42
214.594	39.42
214.812	43.52
215.031	-44.54
215.249	23.04
215.467	-28.16
215.686	23.04
215.904	111.1
216.122	2.56
216.341	68.09
216.559	10.75
216.778	2.56
216.996	10.75
217.214	-42.5
217.432	-1.54
217.651	-19.97
217.869	-44.54
218.087	-71.17
218.306	6.66
218.524	-50.69
218.742	-1.54
218.96	4.61
219.179	12.8
219.397	31.23
219.615	18.94
219.833	-19.97
220.051	-26.11
220.27	18.94
220.488	31.23
220.706	20.99
220.924	14.85
221.142	-46.59
221.36	76.29
221.578	61.95
221.796	61.95
222.015	-3.58
222.233	64
222.451	10.75
222.669	-11.78
222.887	10.75
223.105	-34.3
223.323	-77.31
223.541	-62.98
223.759	-9.73
223.977	6.66
224.195	27.14
224.413	-26.11
224.631	55.81
224.849	-24.06
225.067	27.14
225.285	25.09
225.503	-3.58
225.721	-79.36
225.939	61.95
226.157	45.57
226.375	35.33
226.592	-75.26
226.81	35.33
227.028	35.33
227.246	23.04
227.464	-5.63
227.682	74.24
227.9	27.14
228.117	64
228.335	47.62
228.553	0.51
228.771	33.28
228.989	-7.68
229.206	51.71
229.424	-30.21
229.642	6.66
229.86	-1.54
230.077	43.52
230.295	51.71
230.513	45.57
230.731	59.9
230.948	68.09
231.166	37.38
231.384	-52.74
231.601	-17.92
231.819	31.23
232.037	43.52
232.254	-19.97
232.472	2.56
232.689	-1.54
232.907	-13.82
233.125	43.52
233.342	-13.82
233.56	-17.92
233.777	-36.35
233.995	2.56
234.213	41.47
234.43	43.52
234.648	-5.63
234.865	4.61
235.083	18.94
235.3	-54.78
235.518	43.52
235.735	27.14
235.953	-13.82
236.17	-58.88
236.388	39.42
236.605	16.9
236.822	14.85
237.04	84.48
237.257	51.71
237.475	-26.11
237.692	10.75
237.909	66.05
238.127	-52.74
238.344	12.8
238.562	10.75
238.779	10.75
238.996	6.66
239.214	-15.87
239.431	55.81
239.648	-1.54
239.865	59.9
240.083	-24.06
240.3	-3.58
240.517	6.66
240.735	31.23
240.952	35.33
241.169	51.71
241.386	-38.4
241.603	-30.21
241.821	-5.63
242.038	6.66
242.255	10.75
242.472	-17.92
242.689	35.33
242.907	35.33
243.124	-9.73
243.341	68.09
243.558	14.85
243.775	2.56
243.992	-22.02
244.209	-7.68
244.426	4.61
244.643	10.75
244.86	23.04
245.078	18.94
245.295	14.85
245.512	-5.63
245.729	25.09
245.946	61.95
246.163	-9.73
246.38	45.57
246.597	27.14
246.814	10.75
247.031	43.52
247.248	-69.12
247.464	31.23
247.681	12.8
247.898	4.61
248.115	-52.74
248.332	-22.02
248.549	27.14
248.766	70.14
248.983	-30.21
249.2	39.42
249.417	-15.87
249.633	-38.4
249.85	55.81
250.067	6.66
250.284	27.14
250.501	70.14
250.717	-5.63
250.934	6.66
251.151	-22.02
251.368	-17.92
251.585	37.38
251.801	-3.58
252.018	6.66
252.235	55.81
252.451	-46.59
252.668	29.18
252.885	76.29
253.102	-28.16
253.318	18.94
253.535	-17.92
253.752	2.56
253.968	-46.59
254.185	-17.92
254.401	-28.16
254.618	-46.59
254.835	-79.36
255.051	59.9
255.268	-22.02
255.484	109.05
255.701	-38.4
255.917	80.38
256.134	-13.82
256.351	-13.82
256.567	-11.78
256.784	-17.92
257	-26.11
257.217	45.57
257.433	4.61
257.65	27.14
257.866	14.85
258.082	-26.11
258.299	-32.26
258.515	-5.63
258.732	-65.02
258.948	6.66
259.165	4.61
259.381	-22.02
259.597	6.66
259.814	45.57
260.03	10.75
260.246	-11.78
260.463	35.33
260.679	14.85
260.895	72.19
261.112	-22.02
261.328	-34.3
261.544	12.8
261.761	33.28
261.977	27.14
262.193	68.09
262.409	-38.4
262.626	51.71
262.842	55.81
263.058	-5.63
263.274	51.71
263.49	-42.5
263.707	10.75
263.923	23.04
264.139	-52.74
264.355	-42.5
264.571	10.75
264.787	4.61
265.004	51.71
265.22	35.33
265.436	10.75
265.652	-22.02
265.868	-28.16
266.084	-40.45
266.3	0.51
266.516	57.86
266.732	-17.92
266.948	-5.63
267.164	27.14
267.38	25.09
267.596	-7.68
267.812	27.14
268.028	14.85
268.244	-83.45
268.46	-15.87
268.676	61.95
268.892	31.23
269.108	-9.73
269.324	43.52
269.54	-30.21
269.756	-1.54
269.972	-22.02
270.188	-44.54
270.403	-3.58
270.619	4.61
270.835	0.51
271.051	-1.54
271.267	41.47
271.483	-9.73
271.698	-5.63
271.914	59.9
272.13	51.71
272.346	45.57
272.562	8.7
272.777	51.71
272.993	68.09
273.209	12.8
273.425	6.66
273.64	10.75
273.856	31.23
274.072	27.14
274.287	-60.93
274.503	-22.02
274.719	-7.68
274.934	-40.45
275.15	4.61
275.366	-13.82
275.581	-13.82
275.797	51.71
276.012	18.94
276.228	-1.54
276.444	53.76
276.659	4.61
276.875	-1.54
277.09	100.86
277.306	-38.4
277.521	27.14
277.737	-24.06
277.952	68.09
278.168	10.75
278.383	61.95
278.599	37.38
278.814	18.94
279.03	20.99
279.245	117.25
279.461	37.38
279.676	20.99
279.892	-44.54
280.107	-26.11
280.322	51.71
280.538	104.96
280.753	8.7
280.969	61.95
281.184	6.66
281.399	-30.21
281.615	64
281.83	76.29
282.045	84.48
282.26	-48.64
282.476	-32.26
282.691	-3.58
282.906	96.77
283.122	27.14
283.337	18.94
283.552	43.52
283.767	70.14
283.983	-1.54
284.198	-24.06
284.413	76.29
284.628	-34.3
284.843	14.85
285.058	51.71
285.274	6.66
285.489	27.14
285.704	31.23
285.919	-38.4
286.134	-19.97
286.349	27.14
286.564	-22.02
286.779	-11.78
286.995	35.33
287.21	-69.12
287.425	-77.31
287.64	-22.02
287.855	18.94
288.07	-9.73
288.285	51.71
288.5	39.42
288.715	14.85
288.93	27.14
289.145	-5.63
289.36	35.33
289.575	-13.82
289.79	61.95
290.004	-28.16
290.219	-19.97
290.434	-13.82
290.649	-13.82
290.864	20.99
291.079	-50.69
291.294	-5.63
291.509	-22.02
291.724	47.62
291.938	-28.16
292.153	23.04
292.368	27.14
292.583	-9.73
292.798	16.9
293.012	-30.21
293.227	-3.58
293.442	-7.68
293.657	100.86
293.871	45.57
294.086	-22.02
294.301	43.52
294.516	37.38
294.73	4.61
294.945	-17.92
295.16	6.66
295.374	51.71
295.589	39.42
295.804	-1.54
296.018	27.14
296.233	27.14
296.447	43.52
296.662	-46.59
296.877	29.18
297.091	10.75
297.306	-5.63
297.52	2.56
297.735	53.76
297.949	-3.58
298.164	39.42
298.378	-19.97
298.593	-28.16
298.807	-3.58
299.022	-19.97
299.236	37.38
299.451	-30.21
299.665	72.19
299.88	55.81
300.094	72.19
300.309	-26.11
300.523	-22.02
300.737	-5.63
300.952	20.99
301.166	68.09
301.381	-19.97
301.595	59.9
301.809	-1.54
302.024	-26.11
302.238	-54.78
302.452	80.38
302.667	78.33
302.881	-15.87
303.095	51.71
303.309	31.23
303.524	2.56
303.738	-71.17
303.952	-58.88
304.166	-22.02
304.381	-52.74
304.595	61.95
304.809	35.33
305.023	111.1
305.237	35.33
305.452	55.81
305.666	6.66
305.88	0.51
306.094	-7.68
306.308	55.81
306.522	45.57
306.736	43.52
306.95	31.23
307.164	37.38
307.379	88.57
307.593	23.04
307.807	-54.78
308.021	-5.63
308.235	143.87
308.449	-17.92
308.663	-9.73
308.877	43.52
309.091	-22.02
309.305	61.95
309.519	-9.73
309.733	12.8
309.947	18.94
310.161	18.94
310.374	12.8
310.588	-93.69
310.802	-36.35
311.016	-50.69
311.23	-60.93
311.444	35.33
311.658	68.09
311.872	-1.54
312.085	-28.16
312.299	20.99
312.513	78.33
312.727	-22.02
312.941	-15.87
313.154	-13.82
313.368	-22.02
313.582	53.76
313.796	59.9
314.009	-46.59
314.223	41.47
314.437	43.52
314.651	51.71
314.864	-11.78
315.078	6.66
315.292	-22.02
315.505	39.42
315.719	-28.16
315.933	39.42
316.146	43.52
316.36	-19.97
316.573	68.09
316.787	-9.73
317.001	-19.97
317.214	10.75
317.428	59.9
317.641	-34.3
317.855	20.99
318.068	49.66
318.282	27.14
318.495	18.94
318.709	51.71
318.922	12.8
319.136	49.66
319.349	49.66
319.563	59.9
319.776	-3.58
319.99	35.33
320.203	31.23
320.417	31.23
320.63	35.33
320.843	88.57
321.057	88.57
321.27	43.52
321.483	14.85
321.697	29.18
321.91	31.23
322.124	-22.02
322.337	27.14
322.55	27.14
322.763	-1.54
322.977	70.14
323.19	-38.4
323.403	-77.31
323.617	0.51
323.83	59.9
324.043	33.28
324.256	68.09
324.469	-15.87
324.683	10.75
324.896	-1.54
325.109	-9.73
325.322	-62.98
325.535	117.25
325.748	45.57
325.962	37.38
326.175	-42.5
326.388	39.42
326.601	45.57
326.814	-50.69
327.027	27.14
327.24	18.94
327.453	-50.69
327.666	-54.78
327.879	61.95
328.092	86.53
328.305	31.23
328.518	-3.58
328.731	-13.82
328.944	43.52
329.157	61.95
329.37	-9.73
329.583	64
329.796	59.9
330.009	-34.3
330.222	86.53
330.435	20.99
330.648	6.66
330.861	2.56
331.073	104.96
331.286	41.47
331.499	53.76
331.712	-30.21
331.925	20.99
332.138	-28.16
332.35	76.29
332.563	-22.02
332.776	4.61
332.989	-46.59
333.202	53.76
333.414	27.14
333.627	12.8
333.84	-62.98
334.053	72.19
334.265	-34.3
334.478	41.47
334.691	20.99
334.903	-54.78
335.116	-26.11
335.329	18.94
335.541	8.7
335.754	53.76
335.966	-38.4
336.179	-26.11
336.392	20.99
336.604	45.57
336.817	53.76
337.029	-13.82
337.242	86.53
337.454	-7.68
337.667	18.94
337.88	86.53
338.092	-87.55
338.305	41.47
338.517	-13.82
338.729	2.56
338.942	12.8
339.154	-38.4
339.367	35.33
339.579	37.38
339.792	-26.11
340.004	2.56
340.217	78.33
340.429	10.75
340.641	-3.58
340.854	10.75
341.066	10.75
341.278	29.18
341.491	27.14
341.703	16.9
341.915	27.14
342.128	41.47
342.34	-13.82
342.552	31.23
342.764	2.56
342.977	45.57
343.189	70.14
343.401	14.85
343.613	37.38
343.826	37.38
344.038	-1.54
344.25	-54.78
344.462	-22.02
344.674	-42.5
344.886	27.14
345.099	51.71
345.311	-1.54
345.523	-5.63
345.735	-13.82
345.947	-24.06
346.159	6.66
346.371	29.18
346.583	2.56
346.795	111.1
347.007	-3.58
347.219	-75.26
347.431	-22.02
347.643	10.75
347.855	-42.5
348.067	18.94
348.279	-5.63
348.491	37.38
348.703	-13.82
348.915	78.33
349.127	-30.21
349.339	6.66
349.551	-120.32
349.763	76.29
349.975	-30.21
350.187	37.38
350.399	37.38
350.61	10.75
350.822	10.75
351.034	18.94
351.246	-11.78
351.458	23.04
351.669	23.04
351.881	-3.58
352.093	150.01
352.305	-30.21
352.517	-1.54
352.728	61.95
352.94	23.04
353.152	12.8
353.363	-44.54
353.575	55.81
353.787	59.9
353.999	27.14
354.21	-5.63
354.422	-5.63
354.633	27.14
354.845	4.61
355.057	37.38
355.268	-26.11
355.48	117.25
355.692	-30.21
355.903	41.47
356.115	-26.11
356.326	-9.73
356.538	43.52
356.749	8.7
356.961	70.14
357.172	-1.54
357.384	59.9
357.595	66.05
357.807	31.23
358.018	18.94
358.23	-22.02
358.441	90.62
358.653	20.99
358.864	0.51
359.075	-11.78
359.287	35.33
359.498	-26.11
359.709	41.47
359.921	14.85
360.132	90.62
360.344	39.42
360.555	-34.3
360.766	43.52
360.977	-1.54
361.189	61.95
361.4	-26.11
361.611	51.71
361.823	49.66
362.034	68.09
362.245	45.57
362.456	119.29
362.667	57.86
362.879	4.61
363.09	51.71
363.301	92.67
363.512	-22.02
363.723	72.19
363.935	-17.92
364.146	64
364.357	2.56
364.568	43.52
364.779	20.99
364.99	68.09
365.201	43.52
365.412	76.29
365.623	23.04
365.834	76.29
366.045	14.85
366.256	51.71
366.467	100.86
366.678	27.14
366.889	64
367.1	61.95
367.311	53.76
367.522	-17.92
367.733	70.14
367.944	12.8
368.155	70.14
368.366	14.85
368.577	35.33
368.788	51.71
368.999	-71.17
369.209	27.14
369.42	96.77
369.631	117.25
369.842	-13.82
370.053	-54.78
370.264	6.66
370.474	45.57
370.685	27.14
370.896	43.52
371.107	100.86
371.317	41.47
371.528	23.04
371.739	113.15
371.95	49.66
372.16	16.9
372.371	-5.63
372.582	6.66
372.792	12.8
373.003	35.33
373.214	68.09
373.424	47.62
373.635	-38.4
373.846	43.52
374.056	-17.92
374.267	14.85
374.477	23.04
374.688	12.8
374.898	4.61
375.109	86.53
375.319	20.99
375.53	100.86
375.74	25.09
375.951	-19.97
376.161	-26.11
376.372	68.09
376.582	27.14
376.793	-1.54
377.003	10.75
377.214	-28.16
377.424	-26.11
377.635	-38.4
377.845	2.56
378.055	94.72
378.266	49.66
378.476	-75.26
378.686	78.33
378.897	-30.21
379.107	78.33
379.317	86.53
379.528	-38.4
379.738	27.14
379.948	-24.06
380.158	70.14
380.369	-38.4
380.579	59.9
380.789	53.76
380.999	-22.02
381.21	37.38
381.42	14.85
381.63	-13.82
381.84	51.71
382.05	18.94
382.261	12.8
382.471	94.72
382.681	33.28
382.891	84.48
383.101	-13.82
383.311	6.66
383.521	6.66
383.731	27.14
383.941	-1.54
384.151	68.09
384.361	10.75
384.571	68.09
384.781	61.95
384.991	80.38
385.201	23.04
385.411	41.47
385.621	-36.35
385.831	39.42
386.041	113.15
386.251	72.19
386.461	127.49
386.671	84.48
386.881	64
387.091	10.75
387.301	55.81
387.511	-24.06
387.72	35.33
387.93	59.9
388.14	-22.02
388.35	-19.97
388.56	-9.73
388.769	74.24
388.979	57.86
389.189	68.09
389.399	74.24
389.609	51.71
389.818	111.1
390.028	29.18
390.238	94.72
390.447	4.61
390.657	-38.4
390.867	-50.69
391.076	27.14
391.286	61.95
391.496	92.67
391.705	6.66
391.915	80.38
392.125	49.66
392.334	-22.02
392.544	37.38
392.753	29.18
392.963	-7.68
393.172	76.29
393.382	27.14
393.591	84.48
393.801	-26.11
394.01	51.71
394.22	53.76
394.429	35.33
394.639	-5.63
394.848	23.04
395.058	-9.73
395.267	43.52
395.477	-19.97
395.686	59.9
395.895	168.45
396.105	59.9
396.314	113.15
396.524	51.71
396.733	76.29
396.942	68.09
397.152	43.52
397.361	68.09
397.57	14.85
397.78	125.44
397.989	66.05
398.198	59.9
398.407	59.9
398.617	53.76
398.826	61.95
399.035	-9.73
399.244	74.24
399.453	84.48
399.663	-13.82
399.872	107.01
400.081	-1.54
400.29	37.38
400.499	35.33
400.708	119.29
400.917	10.75
401.127	25.09
401.336	92.67
401.545	66.05
401.754	27.14
401.963	51.71
402.172	70.14
402.381	37.38
402.59	61.95
402.799	117.25
403.008	158.21
403.217	61.95
403.426	43.52
403.635	-3.58
403.844	-1.54
404.053	100.86
404.262	72.19
404.471	70.14
404.68	66.05
404.888	166.4
405.097	64
405.306	117.25
405.515	127.49
405.724	78.33
405.933	139.77
406.142	127.49
406.35	68.09
406.559	145.92
406.768	117.25
406.977	174.59
407.185	45.57
407.394	137.73
407.603	88.57
407.812	100.86
408.02	64
408.229	135.68
408.438	127.49
408.646	133.63
408.855	119.29
409.064	100.86
409.272	160.25
409.481	84.48
409.69	127.49
409.898	193.02
410.107	117.25
410.315	170.49
410.524	197.12
410.733	145.92
410.941	119.29
411.15	227.84
411.358	256.51
411.567	264.7
411.775	201.21
411.984	272.89
412.192	301.56
412.401	242.17
412.609	315.9
412.818	334.33
413.026	352.76
413.234	274.94
413.443	283.13
413.651	301.56
413.86	281.08
414.068	365.05
414.276	438.78
414.485	412.15
414.693	473.59
414.901	530.94
415.11	410.11
415.318	469.5
415.526	436.73
415.734	459.26
415.943	559.61
416.151	514.55
416.359	535.03
416.567	592.37
416.776	543.22
416.984	666.1
417.192	586.23
417.4	633.33
417.608	555.51
417.817	657.91
418.025	662.01
418.233	682.49
418.441	723.44
418.649	780.79
418.857	854.51
419.065	831.99
419.273	791.03
419.481	852.47
419.689	825.84
419.897	963.06
420.105	944.63
420.313	940.53
420.521	1042.93
420.729	1087.98
420.937	1036.78
421.145	1100.27
421.353	1159.66
421.561	1235.44
421.769	1235.44
421.977	1206.77
422.185	1358.32
422.393	1468.91
422.601	1509.86
422.809	1446.38
423.017	1423.85
423.224	1548.78
423.432	1493.48
423.64	1583.59
423.848	1815.01
424.056	1567.21
424.263	1726.95
424.471	1696.23
424.679	1808.87
424.887	1866.21
425.094	1987.04
425.302	1952.23
425.51	2005.47
425.718	2023.91
425.925	2183.65
426.133	2120.16
426.341	2388.44
426.548	2413.02
426.756	2472.41
426.964	2517.47
427.171	2759.13
427.379	2689.49
427.586	2789.85
427.794	2771.41
428.001	2931.16
428.209	3140.05
428.417	3084.75
428.624	3320.27
428.832	3312.08
429.039	3033.55
429.247	3287.5
429.454	3516.87
429.662	3791.3
429.869	3402.19
430.076	3725.77
430.284	3611.08
430.491	3754.44
430.699	3955.14
430.906	4022.72
431.114	3977.67
431.321	4135.36
431.528	4301.25
431.736	4575.67
431.943	4835.77
432.15	4522.43
432.358	4745.66
432.565	4798.9
432.772	4966.84
432.979	5052.85
433.187	5122.48
433.394	5329.33
433.601	5700.01
433.808	5773.74
434.016	5745.06
434.223	5857.7
434.43	6066.6
434.637	6195.62
434.844	6498.72
435.052	6760.86
435.259	6545.82
435.466	6707.61
435.673	6769.05
435.88	6949.27
436.087	7401.87
436.294	7211.41
436.501	7233.94
436.708	7260.56
436.915	7612.81
437.122	7833.99
437.329	8149.38
437.537	8053.13
437.743	8227.2
437.95	8169.86
438.157	8665.47
438.364	9017.72
438.571	8952.18
438.778	8935.8
438.985	9828.71
439.192	9529.71
439.399	9673.07
439.606	9410.93
439.813	10090.85
440.02	10447.2
440.227	10357.09
440.433	10197.35
440.64	10836.31
440.847	10639.71
441.054	10684.76
441.261	11624.78
441.467	11475.28
441.674	11569.49
441.881	11946.31
442.088	11929.93
442.294	11864.39
442.501	12224.84
442.708	12679.49
442.914	12859.71
443.121	13381.94
443.328	13082.94
443.534	13941.04
443.741	13799.73
443.948	13261.11
444.154	14395.68
444.361	14264.61
444.568	14342.44
444.774	14299.43
444.981	14471.46
445.187	15173.91
445.394	15739.15
445.6	15331.61
445.807	16890.11
446.013	16251.14
446.22	16156.94
446.426	16967.93
446.633	17127.67
446.839	17934.57
447.046	17213.69
447.252	18073.84
447.459	18139.37
447.665	18086.12
447.871	18778.34
448.078	19810.51
448.284	18862.3
448.491	19007.71
448.697	19974.35
448.903	20566.21
449.11	20322.51
449.316	20195.53
449.522	20390.09
449.728	20824.26
449.935	21262.52
450.141	21098.69
450.347	21657.78
450.553	20959.42
450.76	21358.78
450.966	22114.48
451.172	21696.69
451.378	22311.08
451.584	21950.64
451.791	22421.67
451.997	22444.2
452.203	22837.41
452.409	22798.5
452.615	22933.67
452.821	21758.13
453.027	21665.97
453.233	22993.06
453.44	22173.87
453.646	21969.07
453.852	22048.94
454.058	22679.72
454.264	22005.94
454.47	22732.97
454.676	21801.14
454.882	22667.43
455.088	20701.38
455.294	20842.69
455.5	21498.04
455.705	21567.67
455.911	20793.54
456.117	20242.64
456.323	20121.8
456.529	19079.39
456.735	19830.99
456.941	19204.31
457.147	19134.68
457.352	18524.39
457.558	18350.31
457.764	18573.54
457.97	18016.49
458.176	17633.52
458.381	17688.82
458.587	17025.28
458.793	16759.04
458.999	16060.68
459.204	17148.15
459.41	16632.07
459.616	15597.84
459.821	15757.58
460.027	15395.09
460.233	15089.95
460.438	14487.84
460.644	14758.17
460.85	14051.63
461.055	13719.85
461.261	13859.12
461.466	12589.38
461.672	12413.25
461.878	13125.94
462.083	12431.68
462.289	12081.48
462.494	11964.75
462.7	11290.96
462.905	11094.36
463.111	11506
463.316	11534.67
463.522	11360.59
463.727	11290.96
463.932	11340.11
464.138	11063.64
464.343	11241.81
464.549	10916.19
464.754	11256.15
464.959	11229.52
465.165	11018.58
465.37	10627.42
465.575	10344.8
465.781	10871.13
465.986	10797.4
466.191	10262.88
466.397	10226.02
466.602	9542
466.807	9972.07
467.012	9873.77
467.218	10217.83
467.423	9890.15
467.628	9939.3
467.833	10420.58
468.038	9744.75
468.244	9709.93
468.449	9894.25
468.654	9611.63
468.859	9836.91
469.064	9560.43
469.269	9109.88
469.474	9412.98
469.679	9585.01
469.885	9171.32
470.09	9542
470.295	9267.57
470.5	9122.16
470.705	9251.19
470.91	8984.95
471.115	8837.5
471.32	8847.74
471.525	8923.51
471.73	8589.69
471.935	8761.72
472.139	8423.81
472.344	8329.6
472.549	8491.39
472.754	8280.45
472.959	8190.34
473.164	8130.95
473.369	7948.68
473.574	8270.21
473.778	8063.36
473.983	8128.9
474.188	8016.26
474.393	7713.16
474.598	7647.63
474.802	7442.83
475.007	7532.94
475.212	7561.61
475.417	7424.4
475.621	7383.44
475.826	7348.62
476.031	7170.45
476.235	7043.48
476.44	7281.04
476.645	7188.88
476.849	6992.28
477.054	6818.2
477.259	6760.86
477.463	6908.31
477.668	6629.79
477.872	6719.9
478.077	6668.7
478.282	6349.22
478.486	6334.88
478.691	6418.85
478.895	6281.63
479.1	6396.32
479.304	6357.41
479.509	6248.86
479.713	6398.37
479.918	6140.32
480.122	6107.55
480.326	6085.03
480.531	6105.51
480.735	5943.72
480.94	5933.48
481.144	6113.7
481.348	5874.09
481.553	6050.21
481.757	5738.92
481.961	5966.24
482.166	5849.51
482.37	5974.44
482.574	5849.51
482.778	5759.4
482.983	5851.56
483.187	6113.7
483.391	5896.61
483.595	5999.01
483.8	5999.01
484.004	5839.27
484.208	5814.7
484.412	5992.87
484.616	5816.74
484.821	5925.29
485.025	5724.58
485.229	5835.17
485.433	5730.73
485.637	5939.62
485.841	5849.51
486.045	5904.81
486.249	5921.19
486.453	5751.21
486.657	5826.98
486.861	5790.12
487.065	5654.95
487.269	5986.72
487.473	5880.23
487.677	5929.38
487.881	5863.85
488.085	5726.63
488.289	6023.59
488.493	5777.83
488.697	6031.78
488.901	5913
489.105	5878.18
489.309	5921.19
489.512	5972.39
489.716	5886.37
489.92	5841.32
490.124	6013.35
490.328	5927.33
490.531	5919.14
490.735	5990.82
490.939	5800.36
491.143	6074.79
491.346	5970.34
491.55	6154.66
491.754	6179.23
491.958	6146.47
492.161	6187.43
492.365	6226.34
492.569	6209.95
492.772	6199.71
492.976	6328.74
493.18	6130.08
493.383	6189.47
493.587	6379.93
493.79	6418.85
493.994	6375.84
494.197	6453.66
494.401	6601.12
494.605	6478.24
494.808	6568.35
495.012	6547.87
495.215	6625.69
495.419	6742.43
495.622	6605.21
495.825	6805.91
496.029	6717.85
496.232	6998.42
496.436	6973.85
496.639	7145.87
496.843	6914.45
497.046	7270.8
497.249	7295.38
497.453	7143.83
497.656	7258.51
497.859	7391.63
498.063	7483.79
498.266	7651.72
498.469	7405.97
498.673	7850.38
498.876	7823.75
499.079	7856.52
499.282	7666.06
499.485	8114.56
499.689	7989.64
499.892	8042.89
500.095	8395.14
500.298	8298.88
500.501	8210.82
500.705	8616.32
500.908	8786.3
501.111	8563.07
501.314	8880.5
501.517	8737.15
501.72	9124.21
501.923	9103.73
502.126	9122.16
502.329	9400.69
502.532	9193.84
502.735	9359.73
502.938	9685.36
503.141	9621.87
503.344	9824.62
503.547	9818.47
503.75	10068.33
503.953	9961.83
504.156	10277.22
504.359	10217.83
504.562	10221.92
504.765	10670.43
504.968	10662.24
505.17	10832.22
505.373	10559.84
505.576	11071.83
505.779	10946.9
505.982	11094.36
506.185	11448.66
506.387	11434.32
506.59	11641.17
506.793	11778.38
506.996	11727.18
507.198	11942.22
507.401	12126.53
507.604	12085.58
507.807	12280.13
508.009	12396.87
508.212	12517.7
508.415	12579.14
508.617	12499.27
508.82	12923.19
509.022	13031.74
509.225	13127.99
509.428	13474.1
509.63	13592.88
509.833	13515.06
510.035	13771.05
510.238	13668.66
510.44	13951.28
510.643	14108.97
510.845	14221.61
511.048	14176.55
511.25	14205.22
511.453	14534.95
511.655	15501.59
511.858	14991.64
512.06	14883.1
512.262	15298.84
512.465	15143.19
512.667	15427.86
512.87	15716.62
513.072	15700.24
513.274	15767.82
513.477	16052.49
513.679	16101.64
513.881	16429.32
514.084	16568.58
514.286	16634.11
514.488	16724.22
514.69	17213.69
514.893	17225.98
515.095	17297.66
515.297	17678.58
515.499	17828.08
515.701	17672.43
515.904	17971.44
516.106	18122.99
516.308	18188.52
516.51	18534.63
516.712	18467.05
516.914	18688.23
517.116	18876.64
517.318	18983.13
517.52	19206.36
517.722	19218.65
517.925	19493.08
518.127	19712.21
518.329	19857.62
518.531	19953.87
518.733	20318.41
518.935	20535.49
519.136	20406.47
519.338	20474.06
519.54	20859.07
519.742	21088.45
519.944	21250.24
520.146	21190.84
520.348	21446.84
520.55	21577.91
520.752	21776.56
520.954	22225.07
521.155	22143.15
521.357	22214.83
521.559	22460.59
521.761	22513.83
521.963	22775.97
522.164	22943.91
522.366	23025.82
522.568	23249.05
522.77	23210.14
522.971	23693.46
523.173	23722.13
523.375	23586.97
523.576	23916.69
523.778	24014.99
523.98	24426.64
524.181	24180.88
524.383	24488.07
524.584	24801.41
524.786	24619.14
524.988	24600.71
525.189	25315.45
525.391	25084.03
525.592	25231.49
525.794	25665.66
525.995	25577.59
526.197	25458.81
526.398	25677.94
526.6	25606.27
526.801	25868.41
527.003	26026.1
527.204	25716.86
527.406	26566.76
527.607	26073.2
527.808	26613.87
528.01	26089.59
528.211	26519.66
528.412	26726.5
528.614	26826.85
528.815	26837.09
529.016	26816.61
529.218	26945.64
529.419	26921.06
529.62	27005.03
529.822	26908.77
530.023	27146.34
530.224	27207.78
530.425	27132
530.626	26978.4
530.828	27123.81
531.029	27713.63
531.23	26814.57
531.431	26970.21
531.632	27457.63
531.833	27609.18
532.035	27459.68
532.236	27615.32
532.437	27596.89
532.638	27318.37
532.839	27764.82
533.04	27615.32
533.241	27566.17
533.442	28090.45
533.643	28018.77
533.844	27699.29
534.045	27838.55
534.246	27201.63
534.447	27848.79
534.648	27775.06
534.849	27607.13
535.05	27609.18
535.251	27734.1
535.451	27992.15
535.652	27850.84
535.853	27869.27
536.054	28067.92
536.255	27775.06
536.456	27498.59
536.657	28260.43
536.857	27918.42
537.058	27730.01
537.259	27725.91
537.46	27932.76
537.66	27856.98
537.861	27742.3
538.062	27635.8
538.263	28026.96
538.463	27943
538.664	27762.78
538.865	27719.77
539.065	28139.6
539.266	27854.93
539.466	28133.46
539.667	27693.15
539.868	27877.46
540.068	27816.02
540.269	27770.97
540.469	27947.09
540.67	27549.79
540.87	27703.39
541.071	27703.39
541.271	27760.73
541.472	27652.19
541.672	27689.05
541.873	27566.17
542.073	27480.16
542.274	27879.51
542.474	27506.78
542.675	27834.46
542.875	27908.18
543.075	27293.79
543.276	27490.4
543.476	28055.64
543.676	27512.92
543.877	27805.78
544.077	27613.27
544.277	27449.44
544.478	27471.96
544.678	27609.18
544.878	27580.51
545.078	27697.24
545.279	27410.53
545.479	27727.96
545.679	27773.02
545.879	27441.25
546.079	27218.02
546.28	27578.46
546.48	27287.65
546.68	27533.4
546.88	27398.24
547.08	27498.59
547.28	27793.5
547.48	27398.24
547.68	27353.18
547.88	27734.1
548.081	27662.43
548.281	27502.68
548.481	27263.07
548.681	27609.18
548.881	27529.31
549.081	27586.65
549.28	27361.37
549.48	27699.29
549.68	27242.59
549.88	27625.56
550.08	27433.05
550.28	27420.77
550.48	27455.58
550.68	27975.77
550.88	27521.12
551.08	27406.43
551.279	27557.98
551.479	27265.12
551.679	27289.7
551.879	27127.91
552.079	27525.21
552.278	27267.17
552.478	27474.01
552.678	27148.39
552.878	27539.55
553.077	27301.98
553.277	26964.07
553.477	27574.36
553.676	27060.32
553.876	27109.47
554.076	26730.6
554.275	27031.65
554.475	26468.46
554.674	27359.33
554.874	27248.74
555.074	26947.68
555.273	26839.14
555.473	27144.29
555.672	26853.48
555.872	26871.91
556.071	27306.08
556.271	27066.47
556.47	26972.26
556.67	26564.71
556.869	26560.62
557.068	27015.27
557.268	26949.73
557.467	26542.19
557.667	26933.35
557.866	26609.77
558.065	26714.22
558.265	26503.28
558.464	26318.96
558.663	26833
558.863	26159.22
559.062	26456.17
559.261	26114.16
559.461	26753.13
559.66	26200.18
559.859	26419.31
560.058	26407.02
560.258	26454.12
560.457	26091.63
560.656	26376.3
560.855	26005.62
561.054	26368.11
561.253	25694.33
561.453	26138.74
561.652	25976.95
561.851	26208.37
562.05	25970.8
562.249	25606.27
562.448	25935.99
562.647	25954.42
562.846	25655.42
563.045	25604.22
563.244	25456.76
563.443	25831.54
563.642	25172.1
563.841	25632.89
564.04	25307.26
564.239	25544.83
564.438	25170.05
564.637	25514.11
564.836	25393.28
565.035	25245.82
565.234	25479.29
565.432	25192.58
565.631	25069.7
565.83	25041.03
566.029	24768.65
566.228	24797.32
566.427	24668.3
566.625	24641.67
566.824	24490.12
567.023	24879.24
567.222	24432.78
567.42	24459.4
567.619	24307.85
567.818	24381.58
568.016	24342.67
568.215	24664.2
568.414	24107.15
568.612	24420.49
568.811	24031.38
569.01	24232.08
569.208	23830.68
569.407	24109.2
569.605	23908.5
569.804	24123.54
570.002	23627.93
570.201	23812.24
570.4	23808.15
570.598	23425.18
570.797	23472.28
570.995	23892.12
571.193	23447.71
571.392	23392.41
571.59	23251.1
571.789	23416.99
571.987	23101.6
572.186	23357.6
572.384	23191.71
572.582	23435.42
572.781	23218.33
572.979	22597.8
573.177	22890.66
573.376	23017.63
573.574	22595.75
573.772	22859.94
573.971	22636.71
574.169	22483.11
574.367	22472.87
574.565	22757.54
574.763	22427.82
574.962	22493.35
575.16	22202.54
575.358	22343.85
575.556	22245.55
575.754	22218.92
575.952	22247.6
576.151	21893.3
576.349	21754.04
576.547	21860.53
576.745	21758.13
576.943	22038.7
577.141	21803.19
577.339	21936.31
577.537	21643.45
577.735	21446.84
577.933	21442.74
578.131	21629.11
578.329	21495.99
578.527	21250.24
578.725	21530.81
578.923	21303.48
579.121	21147.84
579.319	21082.3
579.516	21356.73
579.714	21158.08
579.912	21194.94
580.11	20809.92
580.308	20754.63
580.506	20814.02
580.704	20375.75
580.901	20572.36
581.099	20973.76
581.297	20306.12
581.495	20625.61
581.692	20820.16
581.89	20414.66
582.088	20717.76
582.285	20400.33
582.483	20523.21
582.681	20320.46
582.878	20189.39
583.076	20140.24
583.274	20121.8
583.471	19943.63
583.669	20031.69
583.866	19935.44
584.064	20015.31
584.262	19921.1
584.459	20183.24
584.657	19695.83
584.854	19581.14
585.052	19431.64
585.249	19558.61
585.447	19450.07
585.644	19325.15
585.841	19376.34
586.039	19345.62
586.236	19441.88
586.434	18893.02
586.631	19323.1
586.828	19286.23
587.026	19101.92
587.223	19032.29
587.42	19114.2
587.618	19030.24
587.815	18841.82
588.012	18778.34
588.21	18542.82
588.407	18946.27
588.604	18606.31
588.801	18692.32
588.999	18591.97
589.196	18626.79
589.393	18512.1
589.59	18403.56
589.787	18284.78
589.984	18426.09
590.182	18077.93
590.379	18157.8
590.576	17864.94
590.773	18219.24
590.97	17987.82
591.167	18194.67
591.364	17756.4
591.561	17748.21
591.758	17780.98
591.955	17641.71
592.152	17893.61
592.349	17836.27
592.546	17721.59
592.743	17551.6
592.94	17340.66
593.137	17385.72
593.334	17590.52
593.531	17547.51
593.727	17367.29
593.924	17451.25
594.121	17170.68
594.318	17225.98
594.515	16916.73
594.712	17355
594.908	17125.63
595.105	16830.72
595.302	16767.23
595.499	17008.89
595.696	16935.17
595.892	16746.75
596.089	16900.35
596.286	16709.89
596.482	16580.87
596.679	16550.15
596.876	16767.23
597.072	16523.52
597.269	16328.97
597.466	16245
597.662	16484.61
597.859	16255.24
598.055	16320.77
598.252	16240.9
598.448	16048.4
598.645	16210.18
598.841	16048.4
599.038	16339.21
599.234	15968.52
599.431	15800.59
599.627	15735.06
599.824	15997.2
600.02	16021.77
600.217	15673.62
600.413	15720.72
600.609	15712.53
600.806	15597.84
601.002	15597.84
601.198	15292.69
601.395	15409.43
601.591	15460.63
601.787	15354.13
601.984	15429.91
602.18	15515.92
602.376	15042.84
602.572	14956.83
602.769	14960.92
602.965	14977.31
603.161	15149.34
603.357	14743.84
603.553	14917.92
603.75	14790.94
603.946	14930.2
604.142	14874.91
604.338	14731.55
604.534	14770.46
604.73	14792.99
604.926	14586.15
605.122	14739.74
605.318	14575.91
605.514	14403.88
605.71	14539.04
605.906	14573.86
606.102	14299.43
606.298	14203.18
606.494	14383.4
606.69	14481.7
606.886	14276.9
607.082	14215.46
607.278	14051.63
607.474	13920.56
607.67	14289.19
607.866	13838.64
608.062	14133.54
608.257	13887.79
608.453	13949.23
608.649	14100.78
608.845	13822.25
609.041	13904.17
609.236	13631.79
609.432	13830.44
609.628	14057.77
609.824	13676.85
610.019	13773.1
610.215	13734.19
610.411	13814.06
610.606	13652.27
610.802	13699.37
610.998	13463.86
611.193	13701.42
611.389	13529.39
611.584	13447.47
611.78	13373.75
611.976	13467.95
612.171	13470
612.367	13287.73
612.562	13218.1
612.758	13416.76
612.953	13383.99
613.149	13445.43
613.344	13084.98
613.539	13306.16
613.735	13226.29
613.93	13293.88
614.126	12876.09
614.321	13199.67
614.517	12980.54
614.712	13351.22
614.907	13234.49
615.103	12972.35
615.298	12951.87
615.493	12876.09
615.688	12652.86
615.884	13041.98
616.079	12908.86
616.274	12978.49
616.47	12939.58
616.665	12898.62
616.86	12822.84
617.055	12734.78
617.25	12669.25
617.445	12775.74
617.641	12507.46
617.836	12529.98
618.031	12585.28
618.226	12452.16
618.421	12439.87
618.616	12546.37
618.811	12222.79
619.006	12695.87
619.201	12286.28
619.396	12439.87
619.591	12247.37
619.786	12243.27
619.981	11833.68
620.176	12077.38
620.371	12116.3
620.566	12134.73
620.761	11907.4
620.956	11987.27
621.151	11704.65
621.346	11954.51
621.541	11604.3
621.735	11882.83
621.93	11227.48
622.125	11401.55
622.32	11428.18
622.515	11372.88
622.709	11467.09
622.904	11409.75
623.099	11196.76
623.294	11383.12
623.488	11096.41
623.683	10969.43
623.878	10938.71
624.072	11186.52
624.267	10881.37
624.462	10844.51
624.656	10809.69
624.851	10752.35
625.046	10500.45
625.24	10604.89
625.435	10471.78
625.629	10516.83
625.824	10289.51
626.018	10396
626.213	10072.42
626.407	10262.88
626.602	10299.75
626.796	10277.22
626.991	10258.79
627.185	10111.33
627.38	9918.82
627.574	9998.7
627.768	9836.91
627.963	10240.36
628.157	9718.12
628.352	9834.86
628.546	9746.8
628.74	9609.58
628.935	9537.9
629.129	9636.2
629.323	9318.77
629.517	9423.22
629.712	9527.66
629.906	9431.41
630.1	9296.24
630.294	9472.37
630.489	9345.39
630.683	9339.25
630.877	8857.98
631.071	8874.36
631.265	8931.7
631.459	8915.32
631.653	8829.31
631.848	8952.18
632.042	8790.39
632.236	8923.51
632.43	8956.28
632.624	8814.97
632.818	8614.27
633.012	8595.84
633.206	8685.95
633.4	8642.94
633.594	8644.99
633.788	8444.29
633.982	8249.73
634.176	8458.62
634.369	8307.07
634.563	8464.77
634.757	8104.32
634.951	8317.31
635.145	8161.67
635.339	8184.2
635.533	8139.14
635.726	7985.54
635.92	8022.41
636.114	7893.38
636.308	8032.65
636.501	7801.22
636.695	7977.35
636.889	7686.54
637.083	7618.96
637.276	7711.11
637.47	7702.92
637.664	7643.53
637.857	7592.33
638.051	7432.59
638.244	7567.76
638.438	7506.32
638.632	7287.18
638.825	7231.89
639.019	7475.6
639.212	7166.35
639.406	7387.54
639.599	7117.2
639.793	7201.17
639.986	6941.08
640.18	6957.46
640.373	7082.39
640.567	6767
640.76	7033.24
640.954	6916.5
641.147	6863.26
641.34	7076.24
641.534	6990.23
641.727	6756.76
641.92	6828.44
642.114	6771.1
642.307	6631.83
642.5	6637.98
642.694	6597.02
642.887	6457.76
643.08	6572.44
643.273	6586.78
643.467	6525.34
643.66	6504.86
643.853	6343.07
644.046	6252.96
644.239	6459.81
644.432	6306.21
644.626	6255.01
644.819	6238.62
645.012	6156.71
645.205	6072.74
645.398	6025.64
645.591	6050.21
645.784	6007.2
645.977	5951.91
646.17	6138.27
646.363	5953.96
646.556	5839.27
646.749	5994.92
646.942	5982.63
647.135	5865.89
647.328	5796.26
647.521	5908.9
647.714	5855.65
647.907	5888.42
648.099	5810.6
648.292	5720.49
648.485	5691.82
648.678	5697.96
648.871	5527.98
649.064	5632.43
649.256	5503.4
649.449	5458.35
649.642	5472.68
649.835	5384.62
650.027	5452.2
650.22	5503.4
650.413	5296.56
650.605	5251.5
650.798	5206.45
650.991	5269.94
651.183	5343.66
651.376	5222.83
651.568	5294.51
651.761	5030.32
651.954	5032.37
652.146	5226.93
652.339	5122.48
652.531	5169.59
652.724	5122.48
652.916	4934.07
653.109	4942.26
653.301	4985.27
653.494	4958.64
653.686	4950.45
653.879	5034.42
654.071	4753.85
654.263	4716.98
654.456	4766.14
654.648	4915.64
654.84	4690.36
655.033	4659.64
655.225	4643.26
655.417	4657.59
655.61	4518.33
655.802	4811.19
655.994	4661.69
656.186	4512.19
656.379	4557.24
656.571	4532.67
656.763	4499.9
656.955	4424.12
657.148	4450.75
657.34	4633.02
657.532	4450.75
657.724	4518.33
657.916	4430.27
658.108	4434.36
658.3	4346.3
658.492	4262.33
658.684	4196.8
658.876	4346.3
659.068	4307.39
659.26	4194.75
659.452	4262.33
659.644	4108.74
659.836	4207.04
660.028	4096.45
660.22	4065.73
660.412	4137.41
660.604	4018.63
660.796	4157.89
660.988	3951.04
661.18	4086.21
661.372	4057.54
661.563	4055.49
661.755	3934.66
661.947	3914.18
662.139	3891.65
662.331	3871.17
662.522	3879.36
662.714	3883.46
662.906	3791.3
663.097	3822.02
663.289	3905.99
663.481	3652.04
663.673	3789.25
663.864	3676.62
664.056	3766.73
664.247	3758.53
664.439	3756.49
664.631	3850.69
664.822	3680.71
665.014	3582.41
665.205	3717.58
665.397	3437
665.588	3586.51
665.78	3426.76
665.971	3537.35
666.163	3512.78
666.354	3600.84
666.546	3447.24
666.737	3379.66
666.929	3482.06
667.12	3494.35
667.311	3447.24
667.503	3363.28
667.694	3428.81
667.885	3320.27
668.077	3254.73
668.268	3365.32
668.459	3328.46
668.651	3355.08
668.842	3432.91
669.033	3217.87
669.224	3283.41
669.416	3496.39
669.607	3193.3
669.798	3262.93
669.989	3371.47
670.18	3209.68
670.371	3121.62
670.563	3097.04
670.754	3185.1
670.945	3262.93
671.136	3267.02
671.327	3152.34
671.518	3148.24
671.709	3092.94
671.9	3066.32
672.091	3060.18
672.282	3133.9
672.473	2984.4
672.664	3033.55
672.855	2996.69
673.046	3072.47
673.237	2945.49
673.428	2925.01
673.619	3066.32
673.809	2976.21
674	3074.51
674.191	2869.72
674.382	2959.83
674.573	2970.07
674.764	2910.68
674.954	2976.21
675.145	2961.87
675.336	2916.82
675.527	2871.76
675.717	2988.5
675.908	2904.53
676.099	2935.25
676.289	2974.16
676.48	2877.91
676.671	3002.83
676.861	2947.54
677.052	2945.49
677.243	2894.29
677.433	2855.38
677.624	2701.78
677.814	2906.58
678.005	2814.42
678.195	2902.48
678.386	2853.33
678.576	2836.95
678.767	2777.56
678.957	2933.2
679.148	2871.76
679.338	2800.09
679.529	2877.91
679.719	2765.27
679.909	2861.52
680.1	2935.25
680.29	2783.7
680.481	2767.32
680.671	2779.61
680.861	2660.82
681.052	2763.22
681.242	2730.45
681.432	2724.31
681.622	2779.61
681.813	2712.02
682.003	2773.46
682.193	2632.15
682.383	2748.89
682.573	2802.13
682.764	2640.34
682.954	2828.76
683.144	2685.4
683.334	2748.89
683.524	2648.54
683.714	2652.63
683.904	2642.39
684.094	2673.11
684.284	2681.3
684.474	2730.45
684.664	2705.88
684.854	2650.58
685.044	2691.54
685.234	2681.3
685.424	2628.06
685.614	2603.48
685.804	2589.14
685.994	2636.25
686.184	2664.92
686.374	2601.43
686.564	2673.11
686.753	2703.83
686.943	2370.01
687.133	2435.55
687.323	2542.04
687.513	2658.78
687.702	2443.74
687.892	2425.31
688.082	2474.46
688.272	2570.71
688.461	2443.74
688.651	2533.85
688.841	2533.85
689.03	2353.63
689.22	2394.59
689.41	2423.26
689.599	2410.97
689.789	2370.01
689.979	2345.44
690.168	2410.97
690.358	2394.59
690.547	2345.44
690.737	2355.68
690.926	2370.01
691.116	2339.29
691.305	2462.17
691.495	2257.37
691.684	2318.81
691.874	2183.65
692.063	2169.31
692.252	2306.52
692.442	2290.14
692.631	2183.65
692.82	2144.74
693.01	2257.37
693.199	2249.18
693.388	2220.51
693.578	2177.5
693.767	2240.99
693.956	2111.97
694.146	2173.41
694.335	2181.6
694.524	2222.56
694.713	2173.41
694.902	2083.3
695.092	2132.45
695.281	2222.56
695.47	2089.44
695.659	2140.64
695.848	2101.73
696.037	2193.89
696.226	2005.47
696.415	2116.06
696.604	2038.24
696.793	1954.27
696.982	2042.34
697.171	2107.87
697.36	2025.95
697.549	2017.76
697.738	2013.67
697.927	2013.67
698.116	2111.97
698.305	1984.99
698.494	1972.71
698.683	1978.85
698.872	2003.43
699.061	2025.95
699.25	1980.9
699.438	1966.56
699.627	1835.49
699.816	2003.43
700.005	1944.03
700.193	2021.86
700.382	2130.4
700.571	1933.79
700.76	1845.73
700.948	1880.55
701.137	1927.65
701.326	1972.71
701.514	1876.45
701.703	1952.23
701.892	1929.7
702.08	1978.85
702.269	1964.51
702.457	1923.55
702.646	1870.31
702.834	1880.55
703.023	1931.75
703.212	1909.22
703.4	1898.98
703.589	1919.46
703.777	1878.5
703.965	1907.17
704.154	1923.55
704.342	1888.74
704.531	1692.13
704.719	1982.95
704.907	1812.96
705.096	1919.46
705.284	1870.31
705.472	1837.54
705.661	2028
705.849	1874.4
706.037	1954.27
706.226	1866.21
706.414	1880.55
706.602	1862.12
706.79	1962.47
706.979	1886.69
707.167	1845.73
707.355	1915.36
707.543	1823.2
707.731	2040.29
707.919	2017.76
708.107	1815.01
708.296	1982.95
708.484	1991.14
708.672	1919.46
708.86	2017.76
709.048	1864.16
709.236	1872.36
709.424	1872.36
709.612	1974.75
709.8	1829.35
709.988	1851.88
710.176	2005.47
710.364	1878.5
710.551	1903.07
710.739	1987.04
710.927	1886.69
711.115	1890.79
711.303	1935.84
711.491	1919.46
711.679	1894.88
711.866	1890.79
712.054	1919.46
712.242	1864.16
712.43	1980.9
712.617	1851.88
712.805	1929.7
712.993	1882.6
713.181	1847.78
713.368	1927.65
713.556	1882.6
713.744	1855.97
713.931	2005.47
714.119	1927.65
714.306	1989.09
714.494	1970.66
714.682	1921.51
714.869	1911.27
715.057	1995.23
715.244	1845.73
715.432	1868.26
715.619	1886.69
715.807	1935.84
715.994	1864.16
716.182	1890.79
716.369	1974.75
716.556	1935.84
716.744	1903.07
716.931	1939.94
717.119	2003.43
717.306	1927.65
717.493	1862.12
717.681	1964.51
717.868	1944.03
718.055	2011.62
718.242	1868.26
718.43	1968.61
718.617	1960.42
718.804	1913.31
718.991	2013.67
719.179	1993.19
719.366	1862.12
719.553	1952.23
719.74	2066.91
719.927	1874.4
720.114	2025.95
720.301	1993.19
720.488	1880.55
720.676	1862.12
720.863	1970.66
721.05	2054.62
721.237	2019.81
721.424	1941.99
721.611	2046.43
721.798	2001.38
721.985	1886.69
722.172	2015.71
722.358	1933.79
722.545	2052.58
722.732	2001.38
722.919	1989.09
723.106	2030.05
723.293	2040.29
723.48	2013.67
723.667	2095.58
723.853	1958.37
724.04	1923.55
724.227	2023.91
724.414	1958.37
724.6	2064.86
724.787	2028
724.974	1980.9
725.161	1958.37
725.347	2079.2
725.534	1972.71
725.72	2042.34
725.907	2013.67
726.094	1980.9
726.28	1960.42
726.467	2019.81
726.653	1982.95
726.84	2011.62
727.027	2124.26
727.213	2036.19
727.4	2003.43
727.586	2073.06
727.773	1931.75
727.959	2040.29
728.145	2066.91
728.332	2058.72
728.518	1958.37
728.705	1976.8
728.891	2042.34
729.077	2054.62
729.264	1970.66
729.45	1984.99
729.636	2132.45
729.823	2028
730.009	2148.83
730.195	2152.93
730.382	2044.38
730.568	2107.87
730.754	1987.04
730.94	2083.3
731.126	2165.21
731.313	2191.84
731.499	2001.38
731.685	2126.3
731.871	2005.47
732.057	2107.87
732.243	2079.2
732.429	2032.1
732.615	2222.56
732.801	2083.3
732.987	2138.59
733.173	1987.04
733.359	2089.44
733.545	2003.43
733.731	2130.4
733.917	2009.57
734.103	2103.78
734.289	2099.68
734.475	2023.91
734.661	2077.15
734.847	2042.34
735.033	2089.44
735.219	2068.96
735.404	2068.96
735.59	1991.14
735.776	2050.53
735.962	2109.92
736.148	2068.96
736.333	2068.96
736.519	2003.43
736.705	2079.2
736.89	1991.14
737.076	2060.77
737.262	2034.14
737.447	2015.71
737.633	2025.95
737.819	2028
738.004	2036.19
738.19	2040.29
738.375	1968.61
738.561	2157.02
738.747	1962.47
738.932	2095.58
739.118	2001.38
739.303	1987.04
739.489	2038.24
739.674	1905.12
739.859	2089.44
740.045	2036.19
740.23	2017.76
740.416	1958.37
740.601	2075.1
740.786	2066.91
740.972	1919.46
741.157	2005.47
741.342	1937.89
741.528	1982.95
741.713	2011.62
741.898	1927.65
742.084	1905.12
742.269	1878.5
742.454	2038.24
742.639	1987.04
742.824	1919.46
743.01	1882.6
743.195	1968.61
743.38	1870.31
743.565	1880.55
743.75	1839.59
743.935	1874.4
744.12	1937.89
744.305	1706.47
744.49	1884.64
744.675	1870.31
744.86	1810.92
745.045	1874.4
745.23	1843.68
745.415	1964.51
745.6	1880.55
745.785	1845.73
745.97	1767.91
746.155	1841.64
746.34	1772
746.525	1831.4
746.71	1706.47
746.895	1782.24
747.079	1731.05
747.264	1722.85
747.449	1819.11
747.634	1755.62
747.819	1718.76
748.003	1690.09
748.188	1712.61
748.373	1657.32
748.557	1761.77
748.742	1634.79
748.927	1636.84
749.111	1698.28
749.296	1673.7
749.481	1661.41
749.665	1726.95
749.85	1567.21
750.034	1583.59
750.219	1550.82
750.404	1520.1
750.588	1526.25
750.773	1651.17
750.957	1579.5
751.141	1554.92
751.326	1489.39
751.51	1421.8
751.695	1530.34
751.879	1444.33
752.064	1575.4
752.248	1481.19
752.432	1509.86
752.617	1526.25
752.801	1477.1
752.985	1419.75
753.17	1452.52
753.354	1473
753.538	1460.71
753.722	1454.57
753.907	1354.22
754.091	1313.26
754.275	1456.62
754.459	1362.41
754.643	1397.23
754.828	1399.27
755.012	1354.22
755.196	1264.11
755.38	1348.08
755.564	1397.23
755.748	1333.74
755.932	1337.84
756.116	1397.23
756.3	1407.47
756.484	1241.58
756.668	1321.45
756.852	1155.57
757.036	1239.53
757.22	1323.5
757.404	1186.29
757.588	1239.53
757.772	1249.77
757.956	1329.64
758.14	1235.44
758.323	1243.63
758.507	1266.16
758.691	1241.58
758.875	1219.05
759.059	1137.13
759.242	1149.42
759.426	1208.81
759.61	1178.09
759.794	1087.98
759.977	1241.58
760.161	1171.95
760.345	1143.28
760.528	1104.37
760.712	1100.27
760.895	1161.71
761.079	1085.94
761.263	1116.65
761.446	1032.69
761.63	1063.41
761.813	1034.74
761.997	1085.94
762.18	1141.23
762.364	1090.03
762.547	969.2
762.731	997.87
762.914	1116.65
763.098	1014.26
763.281	952.82
763.464	995.82
763.648	1012.21
763.831	1006.06
764.015	1057.26
764.198	993.78
764.381	999.92
764.564	989.68
764.748	1028.59
764.931	961.01
765.114	965.11
765.297	969.2
765.481	985.58
765.664	940.53
765.847	950.77
766.03	954.87
766.213	881.14
766.397	946.67
766.58	997.87
766.763	944.63
766.946	862.71
767.129	920.05
767.312	901.62
767.495	977.39
767.678	840.18
767.861	961.01
768.044	940.53
768.227	854.51
768.41	780.79
768.593	918
768.776	891.38
768.959	834.04
769.142	913.91
769.324	1010.16
769.507	774.64
769.69	887.28
769.873	913.91
770.056	907.76
770.239	915.95
770.421	903.67
770.604	862.71
770.787	864.75
770.97	879.09
771.152	825.84
771.335	829.94
771.518	799.22
771.7	797.17
771.883	899.57
772.066	831.99
772.248	729.59
772.431	899.57
772.613	805.36
772.796	930.29
772.978	862.71
773.161	797.17
773.343	838.13
773.526	725.49
773.708	813.56
773.891	657.91
774.073	762.36
774.256	809.46
774.438	844.28
774.621	690.68
774.803	725.49
774.985	686.58
775.168	733.68
775.35	668.15
775.532	772.6
775.715	715.25
775.897	682.49
776.079	698.87
776.261	729.59
776.444	651.77
776.626	817.65
776.808	657.91
776.99	688.63
777.173	616.95
777.355	707.06
777.537	711.16
777.719	653.81
777.901	678.39
778.083	584.18
778.265	596.47
778.447	633.33
778.629	551.42
778.811	655.86
778.993	621.05
779.175	594.42
779.357	627.19
779.539	600.57
779.721	627.19
779.903	555.51
780.085	637.43
780.267	592.37
780.449	502.26
780.631	643.57
780.812	555.51
780.994	649.72
781.176	532.98
781.358	516.6
781.54	500.22
781.721	557.56
781.903	537.08
782.085	461.3
782.267	506.36
782.448	500.22
782.63	547.32
782.812	399.87
782.993	502.26
783.175	530.94
783.357	532.98
783.538	477.69
783.72	498.17
783.901	471.54
784.083	514.55
784.264	469.5
784.446	434.68
784.627	436.73
784.809	489.98
784.99	479.74
785.172	440.83
785.353	461.3
785.535	428.54
785.716	453.11
785.897	389.63
786.079	365.05
786.26	363
786.441	395.77
786.623	406.01
786.804	381.43
786.985	418.3
787.167	446.97
787.348	381.43
787.529	537.08
787.71	395.77
787.891	543.22
788.073	383.48
788.254	371.19
788.435	395.77
788.616	395.77
788.797	346.62
788.978	432.63
789.159	293.37
789.34	371.19
789.522	403.96
789.703	383.48
789.884	406.01
790.065	375.29
790.246	350.71
790.427	375.29
790.607	438.78
790.788	367.1
790.969	354.81
791.15	274.94
791.331	363
791.512	381.43
791.693	399.87
791.874	330.23
792.054	356.86
792.235	301.56
792.416	322.04
792.597	252.41
792.778	244.22
792.958	322.04
793.139	371.19
793.32	260.6
793.5	270.84
793.681	383.48
793.862	295.42
794.042	330.23
794.223	233.98
794.404	244.22
794.584	313.85
794.765	266.75
794.945	272.89
795.126	283.13
795.306	348.67
795.487	395.77
795.667	219.64
795.848	346.62
796.028	289.28
796.209	283.13
796.389	225.79
796.57	236.03
796.75	240.12
796.93	285.18
797.111	328.19
797.291	242.17
797.471	266.75
797.652	279.04
797.832	285.18
798.012	231.93
798.192	260.6
798.373	264.7
798.553	264.7
798.733	266.75
798.913	283.13
799.093	279.04
799.274	225.79
799.454	238.08
799.634	266.75
799.814	248.32
799.994	211.45
800.174	211.45
800.354	268.8
800.534	242.17
800.714	264.7
800.894	240.12
801.074	217.6
801.254	223.74
801.434	281.08
801.614	272.89
801.794	260.6
801.974	815.6
802.154	115.2
802.334	266.75
802.514	193.02
802.693	240.12
802.873	182.78
803.053	240.12
803.233	186.88
803.413	240.12
803.592	117.25
803.772	258.56
803.952	266.75
804.131	240.12
804.311	209.4
804.491	207.36
804.67	190.97
804.85	174.59
805.03	203.26
805.209	225.79
805.389	199.16
805.568	113.15
805.748	193.02
805.928	150.01
806.107	182.78
806.287	227.84
806.466	186.88
806.646	207.36
806.825	150.01
807.004	190.97
807.184	92.67
807.363	223.74
807.543	174.59
807.722	236.03
807.901	158.21
808.081	248.32
808.26	225.79
808.439	193.02
808.619	174.59
808.798	219.64
808.977	127.49
809.156	207.36
809.336	162.3
809.515	205.31
809.694	129.53
809.873	150.01
810.052	188.93
810.231	268.8
810.411	176.64
810.59	178.69
810.769	158.21
810.948	160.25
811.127	86.53
811.306	170.49
811.485	211.45
811.664	223.74
811.843	145.92
812.022	186.88
812.201	129.53
812.38	184.83
812.559	47.62
812.737	182.78
812.916	84.48
813.095	113.15
813.274	168.45
813.453	119.29
813.632	201.21
813.811	129.53
813.989	121.34
814.168	117.25
814.347	117.25
814.526	143.87
814.704	193.02
814.883	154.11
815.062	102.91
815.24	125.44
815.419	59.9
815.598	162.3
815.776	150.01
815.955	100.86
816.133	53.76
816.312	133.63
816.49	166.4
816.669	88.57
816.847	98.81
817.026	166.4
817.204	88.57
817.383	80.38
817.561	100.86
817.74	158.21
817.918	150.01
818.097	168.45
818.275	78.33
818.453	131.58
818.632	125.44
818.81	133.63
818.988	121.34
819.167	170.49
819.345	109.05
819.523	133.63
819.701	76.29
819.879	117.25
820.058	117.25
820.236	199.16
820.414	143.87
820.592	80.38
820.77	109.05
820.948	145.92
821.127	133.63
821.305	98.81
821.483	137.73
821.661	92.67
821.839	129.53
822.017	88.57
822.195	107.01
822.373	94.72
822.551	64
822.729	98.81
822.907	92.67
823.085	113.15
823.262	90.62
823.44	111.1
823.618	150.01
823.796	158.21
823.974	70.14
824.152	29.18
824.329	43.52
824.507	86.53
824.685	94.72
824.863	104.96
825.04	121.34
825.218	117.25
825.396	55.81
825.574	90.62
825.751	92.67
825.929	55.81
826.107	41.47
826.284	129.53
826.462	47.62
826.639	70.14
826.817	137.73
826.994	61.95
827.172	51.71
827.349	98.81
827.527	78.33
827.704	109.05
827.882	166.4
828.059	18.94
828.237	39.42
828.414	121.34
828.591	6.66
828.769	100.86
828.946	43.52
829.124	55.81
829.301	104.96
829.478	94.72
829.655	78.33
829.833	35.33
830.01	68.09
830.187	111.1
830.364	18.94
830.542	84.48
830.719	119.29
830.896	45.57
831.073	109.05
831.25	104.96
831.427	-34.3
831.604	111.1
831.782	-13.82
831.959	100.86
832.136	51.71
832.313	10.75
832.49	-32.26
832.667	96.77
832.844	51.71
833.021	23.04
833.198	72.19
833.374	59.9
833.551	49.66
833.728	10.75
833.905	78.33
834.082	74.24
834.259	18.94
834.436	86.53
834.612	12.8
834.789	109.05
834.966	-9.73
835.143	43.52
835.319	86.53
835.496	80.38
835.673	86.53
835.85	37.38
836.026	55.81
836.203	111.1
836.38	-5.63
836.556	49.66
836.733	94.72
836.909	53.76
837.086	-69.12
837.262	-13.82
837.439	-9.73
837.616	72.19
837.792	72.19
837.968	82.43
838.145	14.85
838.321	-5.63
838.498	55.81
838.674	0.51
838.851	43.52
839.027	84.48
839.203	76.29
839.38	61.95
839.556	86.53
839.732	92.67
839.909	68.09
840.085	68.09
840.261	-5.63
840.437	29.18
840.614	10.75
840.79	55.81
840.966	109.05
841.142	109.05
841.318	43.52
841.494	66.05
841.671	6.66
841.847	25.09
842.023	43.52
842.199	70.14
842.375	61.95
842.551	-34.3
842.727	23.04
842.903	-11.78
843.079	39.42
843.255	2.56
843.431	-1.54
843.607	29.18
843.783	-17.92
843.959	-17.92
844.134	-30.21
844.31	70.14
844.486	72.19
844.662	37.38
844.838	12.8
845.013	35.33
845.189	100.86
845.365	57.86
845.541	18.94
845.716	70.14
845.892	57.86
846.068	72.19
846.244	-28.16
846.419	78.33
846.595	59.9
846.77	51.71
846.946	35.33
847.122	49.66
847.297	-79.36
847.473	20.99
847.648	-40.45
847.824	55.81
847.999	39.42
848.175	12.8
848.35	123.39
848.526	37.38
848.701	45.57
848.876	141.82
849.052	51.71
849.227	66.05
849.403	53.76
849.578	39.42
849.753	88.57
849.929	92.67
850.104	59.9
850.279	18.94
850.454	37.38
850.63	102.91
850.805	-50.69
850.98	45.57
851.155	76.29
851.33	39.42
851.505	10.75
851.681	45.57
851.856	76.29
852.031	-52.74
852.206	-36.35
852.381	6.66
852.556	-5.63
852.731	6.66
852.906	-5.63
853.081	-15.87
853.256	43.52
853.431	-5.63
853.606	-22.02
853.781	74.24
853.956	-65.02
854.131	55.81
854.305	76.29
854.48	20.99
854.655	-11.78
854.83	-17.92
855.005	49.66
855.18	12.8
855.354	-22.02
855.529	70.14
855.704	27.14
855.879	72.19
856.053	27.14
856.228	14.85
856.403	-22.02
856.577	29.18
856.752	23.04
856.926	25.09
857.101	43.52
857.276	43.52
857.45	23.04
857.625	29.18
857.799	-3.58
857.974	25.09
858.148	-7.68
858.323	14.85
858.497	-44.54
858.672	70.14
858.846	-9.73
859.02	59.9
859.195	10.75
859.369	-5.63
859.543	55.81
859.718	-11.78
859.892	64
860.066	51.71
860.241	20.99
860.415	-13.82
860.589	84.48
860.763	102.91
860.938	-32.26
861.112	68.09
861.286	2.56
861.46	-22.02
861.634	29.18
861.808	27.14
861.982	-52.74
862.157	35.33
862.331	-19.97
862.505	-60.93
862.679	-48.64
862.853	-54.78
863.027	-50.69
863.201	35.33
863.375	-48.64
863.549	-7.68
863.722	45.57
863.896	-19.97
864.07	16.9
864.244	76.29
864.418	18.94
864.592	-75.26
864.766	29.18
864.939	10.75
865.113	-5.63
865.287	2.56
865.461	12.8
865.634	31.23
865.808	-13.82
865.982	-1.54
866.156	29.18
866.329	-9.73
866.503	-22.02
866.676	-5.63
866.85	18.94
867.024	-54.78
867.197	-30.21
867.371	51.71
867.544	-60.93
867.718	12.8
867.891	12.8
868.065	-46.59
868.238	10.75
868.412	4.61
868.585	37.38
868.759	47.62
868.932	94.72
869.105	33.28
869.279	2.56
869.452	10.75
869.625	14.85
869.799	-32.26
869.972	-77.31
870.145	37.38
870.319	20.99
870.492	2.56
870.665	-54.78
870.838	-52.74
871.011	-34.3
871.185	-1.54
871.358	-93.69
871.531	-11.78
871.704	-13.82
871.877	-11.78
872.05	-11.78
872.223	-17.92
872.396	0.51
872.569	29.18
872.742	-103.93
872.915	29.18
873.088	-30.21
873.261	-5.63
873.434	-7.68
873.607	29.18
873.78	-36.35
873.953	-42.5
874.126	-36.35
874.299	4.61
874.471	4.61
874.644	10.75
874.817	2.56
874.99	39.42
875.163	-50.69
875.335	0.51
875.508	6.66
875.681	39.42
875.853	-19.97
876.026	20.99
876.199	31.23
876.371	-30.21
876.544	-19.97
876.717	-13.82
876.889	-26.11
877.062	-13.82
877.234	14.85
877.407	14.85
877.579	-19.97
877.752	-13.82
877.924	-17.92
878.097	-50.69
878.269	-1.54
878.442	23.04
878.614	76.29
878.786	31.23
878.959	-38.4
879.131	4.61
879.303	-54.78
879.476	-9.73
879.648	23.04
879.82	-5.63
879.993	0.51
880.165	23.04
880.337	43.52
880.509	-17.92
880.681	-69.12
880.854	-69.12
881.026	76.29
881.198	41.47
881.37	2.56
881.542	-11.78
881.714	2.56
881.886	-28.16
882.058	-17.92
882.23	39.42
882.402	14.85
882.574	-36.35
882.746	-13.82
882.918	57.86
883.09	-24.06
883.262	-38.4
883.434	6.66
883.606	-34.3
883.778	-87.55
883.95	23.04
884.122	-62.98
884.293	39.42
884.465	-11.78
884.637	-9.73
884.809	18.94
884.98	14.85
885.152	-30.21
885.324	-26.11
885.496	37.38
885.667	-95.74
885.839	-13.82
886.011	10.75
886.182	2.56
886.354	0.51
886.525	-22.02
886.697	-13.82
886.869	-79.36
887.04	-42.5
887.212	27.14
887.383	-13.82
887.555	37.38
887.726	47.62
887.897	-44.54
888.069	-5.63
888.24	-65.02
888.412	-28.16
888.583	10.75
888.754	-24.06
888.926	47.62
889.097	-126.46
889.268	-38.4
889.44	2.56
889.611	-11.78
889.782	-22.02
889.953	-103.93
890.125	6.66
890.296	29.18
890.467	-28.16
890.638	6.66
890.809	14.85
890.98	-60.93
891.151	31.23
891.323	-24.06
891.494	-50.69
891.665	-54.78
891.836	-26.11
892.007	12.8
892.178	-34.3
892.349	-50.69
892.52	-42.5
892.691	-30.21
892.862	-13.82
893.032	31.23
893.203	-38.4
893.374	-30.21
893.545	59.9
893.716	-52.74
893.887	8.7
894.057	-30.21
894.228	-60.93
894.399	-30.21
894.57	-1.54
894.74	-50.69
894.911	-28.16
895.082	-34.3
895.253	2.56
895.423	-26.11
895.594	-19.97
895.764	-5.63
895.935	-22.02
896.106	-30.21
896.276	-13.82
896.447	68.09
896.617	-24.06
896.788	4.61
896.958	-22.02
897.129	-13.82
897.299	14.85
897.47	-62.98
897.64	82.43
897.81	4.61
897.981	45.57
898.151	-40.45
898.322	-56.83
898.492	64
898.662	-54.78
898.832	-15.87
899.003	-19.97
899.173	33.28
899.343	-40.45
899.513	-19.97
