Data from USB4F104151__191__14-45-13-111.txt Node

Date: Thu Mar 13 14:45:13 EDT 2025
User: louis
Spectrometer: USB4F10415
Trigger mode: 4
Integration Time (sec): 2.000000E-2
Scans to average: 1
Electric dark correction enabled: true
Nonlinearity correction enabled: false
Boxcar width: 0
XAxis mode: Wavelengths
Number of Pixels in Spectrum: 3648
>>>>>Begin Spectral Data<<<<<
178.204	-107.86
178.424	-107.86
178.644	-107.86
178.864	-87.38
179.084	-120.15
179.304	-25.94
179.524	-42.32
179.744	-40.28
179.964	27.31
180.184	-62.8
180.404	4.78
180.624	55.98
180.844	84.65
181.064	6.83
181.283	29.35
181.503	-27.99
181.723	-9.56
181.943	-5.46
182.163	55.98
182.383	62.12
182.602	51.88
182.822	92.84
183.042	101.03
183.262	-1.37
183.482	-58.71
183.701	-5.46
183.921	84.65
184.141	-71
184.361	94.89
184.58	-7.51
184.8	8.87
185.02	29.35
185.239	41.64
185.459	70.31
185.679	51.88
185.898	-32.08
186.118	135.85
186.338	131.75
186.557	51.88
186.777	41.64
186.997	53.93
187.216	-3.41
187.436	68.27
187.655	10.92
187.875	12.97
188.095	51.88
188.314	-38.23
188.534	117.42
188.753	-52.56
188.973	37.55
189.192	68.27
189.412	-11.61
189.631	141.99
189.851	68.27
190.07	105.13
190.29	-46.42
190.509	-38.23
190.729	51.88
190.948	47.79
191.168	152.23
191.387	76.46
191.607	-42.32
191.826	60.07
192.045	64.17
192.265	-5.46
192.484	49.83
192.704	19.11
192.923	-15.7
193.142	29.35
193.362	101.03
193.581	37.55
193.8	-21.85
194.02	80.55
194.239	55.98
194.458	23.21
194.678	64.17
194.897	64.17
195.116	21.16
195.335	-13.65
195.555	49.83
195.774	125.61
195.993	35.5
196.212	76.46
196.432	-21.85
196.651	8.87
196.87	39.59
197.089	127.66
197.308	68.27
197.528	-9.56
197.747	-50.52
197.966	-48.47
198.185	62.12
198.404	21.16
198.623	94.89
198.842	125.61
199.062	35.5
199.281	84.65
199.5	-5.46
199.719	43.69
199.938	121.51
200.157	53.93
200.376	94.89
200.595	51.88
200.814	23.21
201.033	43.69
201.252	111.27
201.471	60.07
201.69	45.74
201.909	86.7
202.128	31.4
202.347	35.5
202.566	12.97
202.785	43.69
203.004	31.4
203.223	162.47
203.442	51.88
203.661	43.69
203.879	76.46
204.098	43.69
204.317	19.11
204.536	80.55
204.755	109.22
204.974	-1.37
205.193	6.83
205.411	80.55
205.63	4.78
205.849	51.88
206.068	70.31
206.287	-71
206.505	88.75
206.724	-36.18
206.943	15.02
207.162	6.83
207.381	27.31
207.599	-19.8
207.818	2.73
208.037	-36.18
208.255	12.97
208.474	29.35
208.693	51.88
208.911	35.5
209.13	53.93
209.349	101.03
209.567	84.65
209.786	2.73
210.005	8.87
210.223	27.31
210.442	39.59
210.661	35.5
210.879	-1.37
211.098	-1.37
211.316	-103.76
211.535	64.17
211.753	10.92
211.972	53.93
212.191	27.31
212.409	60.07
212.628	41.64
212.846	35.5
213.065	58.03
213.283	103.08
213.502	55.98
213.72	-40.28
213.938	43.69
214.157	88.75
214.375	17.07
214.594	-27.99
214.812	68.27
215.031	55.98
215.249	-7.51
215.467	92.84
215.686	6.83
215.904	86.7
216.122	51.88
216.341	82.6
216.559	45.74
216.778	84.65
216.996	109.22
217.214	-21.85
217.432	25.26
217.651	-34.13
217.869	113.32
218.087	10.92
218.306	2.73
218.524	19.11
218.742	23.21
218.96	109.22
219.179	-27.99
219.397	39.59
219.615	133.8
219.833	51.88
220.051	2.73
220.27	78.51
220.488	64.17
220.706	129.7
220.924	-21.85
221.142	21.16
221.36	35.5
221.578	121.51
221.796	45.74
222.015	-21.85
222.233	78.51
222.451	-5.46
222.669	33.45
222.887	72.36
223.105	62.12
223.323	2.73
223.541	15.02
223.759	51.88
223.977	12.97
224.195	111.27
224.413	76.46
224.631	68.27
224.849	64.17
225.067	47.79
225.285	35.5
225.503	70.31
225.721	29.35
225.939	12.97
226.157	51.88
226.375	148.14
226.592	-27.99
226.81	27.31
227.028	92.84
227.246	21.16
227.464	27.31
227.682	39.59
227.9	86.7
228.117	62.12
228.335	51.88
228.553	76.46
228.771	31.4
228.989	94.89
229.206	15.02
229.424	62.12
229.642	19.11
229.86	21.16
230.077	19.11
230.295	152.23
230.513	84.65
230.731	109.22
230.948	68.27
231.166	119.46
231.384	31.4
231.601	10.92
231.819	-17.75
232.037	29.35
232.254	-21.85
232.472	27.31
232.689	-87.38
232.907	119.46
233.125	51.88
233.342	70.31
233.56	41.64
233.777	10.92
233.995	-27.99
234.213	94.89
234.43	12.97
234.648	35.5
234.865	27.31
235.083	15.02
235.3	117.42
235.518	27.31
235.735	35.5
235.953	41.64
236.17	23.21
236.388	78.51
236.605	78.51
236.822	33.45
237.04	53.93
237.257	72.36
237.475	-3.41
237.692	84.65
237.909	35.5
238.127	158.38
238.344	70.31
238.562	43.69
238.779	-11.61
238.996	6.83
239.214	68.27
239.431	43.69
239.648	39.59
239.865	10.92
240.083	117.42
240.3	8.87
240.517	51.88
240.735	96.94
240.952	58.03
241.169	47.79
241.386	6.83
241.603	86.7
241.821	92.84
242.038	64.17
242.255	6.83
242.472	-17.75
242.689	25.26
242.907	70.31
243.124	29.35
243.341	2.73
243.558	29.35
243.775	-60.76
243.992	2.73
244.209	92.84
244.426	119.46
244.643	37.55
244.86	-3.41
245.078	27.31
245.295	27.31
245.512	29.35
245.729	21.16
245.946	51.88
246.163	25.26
246.38	80.55
246.597	37.55
246.814	4.78
247.031	43.69
247.248	47.79
247.464	60.07
247.681	39.59
247.898	64.17
248.115	62.12
248.332	-19.8
248.549	76.46
248.766	51.88
248.983	35.5
249.2	2.73
249.417	47.79
249.633	2.73
249.85	-5.46
250.067	43.69
250.284	-21.85
250.501	84.65
250.717	82.6
250.934	31.4
251.151	-1.37
251.368	47.79
251.585	2.73
251.801	29.35
252.018	19.11
252.235	15.02
252.451	19.11
252.668	31.4
252.885	60.07
253.102	15.02
253.318	64.17
253.535	53.93
253.752	47.79
253.968	68.27
254.185	-44.37
254.401	37.55
254.618	84.65
254.835	-13.65
255.051	37.55
255.268	105.13
255.484	51.88
255.701	37.55
255.917	-44.37
256.134	31.4
256.351	-19.8
256.567	27.31
256.784	66.22
257	-36.18
257.217	53.93
257.433	43.69
257.65	55.98
257.866	84.65
258.082	-21.85
258.299	2.73
258.515	90.79
258.732	35.5
258.948	10.92
259.165	51.88
259.381	60.07
259.597	129.7
259.814	19.11
260.03	6.83
260.246	68.27
260.463	12.97
260.679	84.65
260.895	-30.04
261.112	10.92
261.328	68.27
261.544	37.55
261.761	103.08
261.977	70.31
262.193	80.55
262.409	70.31
262.626	27.31
262.842	15.02
263.058	-42.32
263.274	60.07
263.49	-25.94
263.707	31.4
263.923	10.92
264.139	2.73
264.355	76.46
264.571	-17.75
264.787	21.16
265.004	111.27
265.22	37.55
265.436	55.98
265.652	47.79
265.868	4.78
266.084	-5.46
266.3	21.16
266.516	39.59
266.732	35.5
266.948	101.03
267.164	68.27
267.38	15.02
267.596	84.65
267.812	78.51
268.028	12.97
268.244	86.7
268.46	84.65
268.676	80.55
268.892	90.79
269.108	45.74
269.324	19.11
269.54	-44.37
269.756	101.03
269.972	74.41
270.188	-38.23
270.403	25.26
270.619	111.27
270.835	33.45
271.051	31.4
271.267	-17.75
271.483	-25.94
271.698	35.5
271.914	144.04
272.13	0.68
272.346	27.31
272.562	72.36
272.777	-3.41
272.993	35.5
273.209	-13.65
273.425	2.73
273.64	-23.89
273.856	51.88
274.072	12.97
274.287	62.12
274.503	21.16
274.719	76.46
274.934	43.69
275.15	84.65
275.366	51.88
275.581	21.16
275.797	-3.41
276.012	68.27
276.228	62.12
276.444	31.4
276.659	68.27
276.875	-11.61
277.09	2.73
277.306	64.17
277.521	144.04
277.737	15.02
277.952	115.37
278.168	27.31
278.383	68.27
278.599	35.5
278.814	94.89
279.03	70.31
279.245	45.74
279.461	101.03
279.676	94.89
279.892	60.07
280.107	105.13
280.322	21.16
280.538	105.13
280.753	19.11
280.969	62.12
281.184	27.31
281.399	101.03
281.615	-11.61
281.83	43.69
282.045	29.35
282.26	43.69
282.476	15.02
282.691	88.75
282.906	6.83
283.122	51.88
283.337	37.55
283.552	17.07
283.767	19.11
283.983	76.46
284.198	10.92
284.413	51.88
284.628	43.69
284.843	31.4
285.058	76.46
285.274	60.07
285.489	-3.41
285.704	2.73
285.919	35.5
286.134	64.17
286.349	58.03
286.564	27.31
286.779	174.76
286.995	2.73
287.21	-7.51
287.425	51.88
287.64	-23.89
287.855	68.27
288.07	15.02
288.285	101.03
288.5	68.27
288.715	117.42
288.93	37.55
289.145	10.92
289.36	92.84
289.575	51.88
289.79	33.45
290.004	43.69
290.219	98.99
290.434	27.31
290.649	27.31
290.864	98.99
291.079	-27.99
291.294	74.41
291.509	37.55
291.724	31.4
291.938	39.59
292.153	8.87
292.368	-17.75
292.583	68.27
292.798	96.94
293.012	39.59
293.227	68.27
293.442	31.4
293.657	-15.7
293.871	68.27
294.086	-27.99
294.301	45.74
294.516	80.55
294.73	21.16
294.945	21.16
295.16	19.11
295.374	55.98
295.589	23.21
295.804	-17.75
296.018	33.45
296.233	62.12
296.447	-21.85
296.662	43.69
296.877	23.21
297.091	51.88
297.306	43.69
297.52	27.31
297.735	109.22
297.949	33.45
298.164	12.97
298.378	6.83
298.593	12.97
298.807	84.65
299.022	60.07
299.236	90.79
299.451	6.83
299.665	10.92
299.88	4.78
300.094	-30.04
300.309	2.73
300.523	51.88
300.737	121.51
300.952	-21.85
301.166	19.11
301.381	-3.41
301.595	-21.85
301.809	39.59
302.024	96.94
302.238	60.07
302.452	35.5
302.667	-5.46
302.881	27.31
303.095	64.17
303.309	53.93
303.524	19.11
303.738	53.93
303.952	29.35
304.166	62.12
304.381	4.78
304.595	92.84
304.809	15.02
305.023	64.17
305.237	39.59
305.452	37.55
305.666	-17.75
305.88	84.65
306.094	53.93
306.308	72.36
306.522	15.02
306.736	84.65
306.95	103.08
307.164	-52.56
307.379	-34.13
307.593	19.11
307.807	68.27
308.021	10.92
308.235	8.87
308.449	19.11
308.663	27.31
308.877	53.93
309.091	51.88
309.305	68.27
309.519	25.26
309.733	133.8
309.947	-34.13
310.161	117.42
310.374	68.27
310.588	55.98
310.802	15.02
311.016	19.11
311.23	35.5
311.444	-17.75
311.658	10.92
311.872	109.22
312.085	72.36
312.299	86.7
312.513	129.7
312.727	47.79
312.941	53.93
313.154	-5.46
313.368	15.02
313.582	27.31
313.796	45.74
314.009	72.36
314.223	23.21
314.437	45.74
314.651	2.73
314.864	86.7
315.078	53.93
315.292	47.79
315.505	51.88
315.719	80.55
315.933	45.74
316.146	12.97
316.36	4.78
316.573	103.08
316.787	109.22
317.001	43.69
317.214	53.93
317.428	60.07
317.641	4.78
317.855	15.02
318.068	101.03
318.282	37.55
318.495	72.36
318.709	43.69
318.922	-13.65
319.136	133.8
319.349	27.31
319.563	53.93
319.776	84.65
319.99	27.31
320.203	-13.65
320.417	12.97
320.63	68.27
320.843	19.11
321.057	27.31
321.27	64.17
321.483	51.88
321.697	51.88
321.91	37.55
322.124	-5.46
322.337	80.55
322.55	-9.56
322.763	80.55
322.977	80.55
323.19	68.27
323.403	60.07
323.617	27.31
323.83	12.97
324.043	96.94
324.256	21.16
324.469	35.5
324.683	129.7
324.896	29.35
325.109	-1.37
325.322	23.21
325.535	101.03
325.748	19.11
325.962	103.08
326.175	31.4
326.388	86.7
326.601	92.84
326.814	80.55
327.027	51.88
327.24	84.65
327.453	-21.85
327.666	101.03
327.879	84.65
328.092	-9.56
328.305	101.03
328.518	84.65
328.731	-7.51
328.944	33.45
329.157	84.65
329.37	-17.75
329.583	76.46
329.796	76.46
330.009	60.07
330.222	109.22
330.435	64.17
330.648	60.07
330.861	43.69
331.073	68.27
331.286	53.93
331.499	35.5
331.712	62.12
331.925	84.65
332.138	29.35
332.35	19.11
332.563	111.27
332.776	2.73
332.989	80.55
333.202	60.07
333.414	31.4
333.627	12.97
333.84	27.31
334.053	82.6
334.265	-60.76
334.478	80.55
334.691	10.92
334.903	6.83
335.116	-11.61
335.329	21.16
335.541	66.22
335.754	45.74
335.966	-30.04
336.179	45.74
336.392	64.17
336.604	-3.41
336.817	64.17
337.029	62.12
337.242	4.78
337.454	86.7
337.667	68.27
337.88	35.5
338.092	49.83
338.305	62.12
338.517	27.31
338.729	68.27
338.942	55.98
339.154	39.59
339.367	-13.65
339.579	135.85
339.792	109.22
340.004	27.31
340.217	-23.89
340.429	64.17
340.641	17.07
340.854	21.16
341.066	-13.65
341.278	43.69
341.491	133.8
341.703	139.94
341.915	10.92
342.128	92.84
342.34	51.88
342.552	60.07
342.764	29.35
342.977	19.11
343.189	23.21
343.401	64.17
343.613	-1.37
343.826	35.5
344.038	10.92
344.25	37.55
344.462	43.69
344.674	47.79
344.886	51.88
345.099	86.7
345.311	53.93
345.523	31.4
345.735	49.83
345.947	64.17
346.159	-23.89
346.371	-5.46
346.583	-5.46
346.795	92.84
347.007	-3.41
347.219	-13.65
347.431	55.98
347.643	127.66
347.855	45.74
348.067	2.73
348.279	-60.76
348.491	35.5
348.703	43.69
348.915	10.92
349.127	35.5
349.339	37.55
349.551	21.16
349.763	72.36
349.975	60.07
350.187	15.02
350.399	137.9
350.61	27.31
350.822	53.93
351.034	90.79
351.246	43.69
351.458	15.02
351.669	62.12
351.881	15.02
352.093	135.85
352.305	74.41
352.517	29.35
352.728	53.93
352.94	10.92
353.152	80.55
353.363	68.27
353.575	39.59
353.787	141.99
353.999	17.07
354.21	19.11
354.422	98.99
354.633	113.32
354.845	72.36
355.057	-3.41
355.268	82.6
355.48	27.31
355.692	10.92
355.903	-3.41
356.115	58.03
356.326	-1.37
356.538	60.07
356.749	-17.75
356.961	86.7
357.172	41.64
357.384	12.97
357.595	133.8
357.807	21.16
358.018	53.93
358.23	4.78
358.441	51.88
358.653	43.69
358.864	101.03
359.075	109.22
359.287	6.83
359.498	21.16
359.709	121.51
359.921	51.88
360.132	98.99
360.344	41.64
360.555	10.92
360.766	6.83
360.977	125.61
361.189	64.17
361.4	2.73
361.611	88.75
361.823	70.31
362.034	109.22
362.245	6.83
362.456	86.7
362.667	51.88
362.879	84.65
363.09	31.4
363.301	55.98
363.512	64.17
363.723	68.27
363.935	37.55
364.146	84.65
364.357	-13.65
364.568	86.7
364.779	-30.04
364.99	19.11
365.201	35.5
365.412	94.89
365.623	-9.56
365.834	53.93
366.045	15.02
366.256	51.88
366.467	66.22
366.678	19.11
366.889	51.88
367.1	4.78
367.311	62.12
367.522	84.65
367.733	47.79
367.944	96.94
368.155	70.31
368.366	62.12
368.577	80.55
368.788	29.35
368.999	6.83
369.209	129.7
369.42	92.84
369.631	117.42
369.842	51.88
370.053	90.79
370.264	64.17
370.474	80.55
370.685	17.07
370.896	62.12
371.107	125.61
371.317	74.41
371.528	92.84
371.739	88.75
371.95	27.31
372.16	70.31
372.371	21.16
372.582	96.94
372.792	55.98
373.003	70.31
373.214	94.89
373.424	27.31
373.635	84.65
373.846	47.79
374.056	64.17
374.267	29.35
374.477	27.31
374.688	76.46
374.898	41.64
375.109	62.12
375.319	27.31
375.53	60.07
375.74	27.31
375.951	27.31
376.161	51.88
376.372	113.32
376.582	33.45
376.793	43.69
377.003	92.84
377.214	12.97
377.424	43.69
377.635	2.73
377.845	84.65
378.055	125.61
378.266	47.79
378.476	80.55
378.686	35.5
378.897	51.88
379.107	70.31
379.317	37.55
379.528	76.46
379.738	76.46
379.948	10.92
380.158	74.41
380.369	21.16
380.579	45.74
380.789	96.94
380.999	146.09
381.21	105.13
381.42	90.79
381.63	101.03
381.84	76.46
382.05	96.94
382.261	51.88
382.471	4.78
382.681	31.4
382.891	103.08
383.101	64.17
383.311	125.61
383.521	-52.56
383.731	27.31
383.941	62.12
384.151	47.79
384.361	-7.51
384.571	62.12
384.781	74.41
384.991	-40.28
385.201	131.75
385.411	29.35
385.621	152.23
385.831	33.45
386.041	15.02
386.251	53.93
386.461	84.65
386.671	78.51
386.881	82.6
387.091	68.27
387.301	43.69
387.511	37.55
387.72	68.27
387.93	19.11
388.14	19.11
388.35	53.93
388.56	101.03
388.769	53.93
388.979	74.41
389.189	58.03
389.399	76.46
389.609	58.03
389.818	-5.46
390.028	70.31
390.238	96.94
390.447	49.83
390.657	115.37
390.867	-17.75
391.076	-27.99
391.286	-1.37
391.496	111.27
391.705	76.46
391.915	111.27
392.125	66.22
392.334	19.11
392.544	17.07
392.753	80.55
392.963	41.64
393.172	23.21
393.382	10.92
393.591	139.94
393.801	47.79
394.01	90.79
394.22	55.98
394.429	64.17
394.639	68.27
394.848	72.36
395.058	55.98
395.267	27.31
395.477	111.27
395.686	72.36
395.895	152.23
396.105	135.85
396.314	78.51
396.524	43.69
396.733	60.07
396.942	60.07
397.152	37.55
397.361	45.74
397.57	60.07
397.78	119.46
397.989	76.46
398.198	166.57
398.407	72.36
398.617	92.84
398.826	101.03
399.035	103.08
399.244	45.74
399.453	109.22
399.663	148.14
399.872	172.71
400.081	62.12
400.29	86.7
400.499	10.92
400.708	72.36
400.917	82.6
401.127	60.07
401.336	101.03
401.545	133.8
401.754	76.46
401.963	101.03
402.172	123.56
402.381	37.55
402.59	64.17
402.799	82.6
403.008	121.51
403.217	92.84
403.426	197.29
403.635	80.55
403.844	121.51
404.053	90.79
404.262	137.9
404.471	209.58
404.68	148.14
404.888	84.65
405.097	158.38
405.306	121.51
405.515	156.33
405.724	152.23
405.933	178.86
406.142	150.18
406.35	170.66
406.559	150.18
406.768	107.18
406.977	217.77
407.185	158.38
407.394	191.14
407.603	189.1
407.812	123.56
408.02	182.95
408.229	158.38
408.438	209.58
408.646	141.99
408.855	252.58
409.064	217.77
409.272	182.95
409.481	285.35
409.69	238.25
409.898	141.99
410.107	252.58
410.315	187.05
410.524	244.39
410.733	268.97
410.941	266.92
411.15	268.97
411.358	264.87
411.567	291.49
411.775	330.41
411.984	268.97
412.192	363.17
412.401	365.22
412.609	389.8
412.818	363.17
413.026	426.66
413.234	322.21
413.443	408.23
413.651	395.94
413.86	420.52
414.068	426.66
414.276	457.38
414.485	428.71
414.693	531.11
414.901	543.39
415.11	498.34
415.318	375.46
415.526	610.98
415.734	615.07
415.943	502.43
416.151	664.22
416.359	561.83
416.567	643.74
416.776	676.51
416.984	725.66
417.192	703.14
417.4	674.46
417.608	723.62
417.817	701.09
418.025	762.53
418.233	885.41
418.441	858.78
418.649	875.17
418.857	858.78
419.065	1014.43
419.273	926.36
419.481	1026.71
419.689	1059.48
419.897	1077.91
420.105	1131.16
420.313	1194.65
420.521	1182.36
420.729	1110.68
420.937	1233.56
421.145	1215.13
421.353	1264.28
421.561	1493.65
421.769	1387.16
421.977	1477.27
422.185	1411.73
422.393	1561.23
422.601	1657.49
422.809	1557.14
423.017	1624.72
423.224	1596.05
423.432	1860.24
423.64	1815.18
423.848	1956.49
424.056	1886.86
424.263	2026.12
424.471	2046.6
424.679	2026.12
424.887	2183.82
425.094	2380.42
425.302	2255.5
425.51	2296.46
425.718	2534.02
425.925	2437.77
426.133	2460.29
426.341	2779.78
426.548	2771.58
426.756	2835.07
426.964	2878.08
427.171	3025.53
427.379	3027.58
427.586	3066.49
427.794	3230.33
428.001	3349.11
428.209	3558
428.417	3347.06
428.624	3646.07
428.832	3615.35
429.039	3617.4
429.247	3598.96
429.454	4084.33
429.662	4274.79
429.869	4196.97
430.076	4248.17
430.284	4143.72
430.491	4407.91
430.699	4405.86
430.906	4592.23
431.114	4555.37
431.321	4846.18
431.528	4833.89
431.736	5089.88
431.943	5233.24
432.15	5405.27
432.358	5399.13
432.565	5638.74
432.772	5616.21
432.979	5941.84
433.187	6195.79
433.394	6097.49
433.601	6404.68
433.808	6457.93
434.016	6302.28
434.223	6734.4
434.43	7074.37
434.637	7012.93
434.844	7334.46
435.052	7490.1
435.259	7492.15
435.466	7506.49
435.673	7377.47
435.88	8182.32
436.087	8174.13
436.294	8403.5
436.501	8124.97
436.708	8145.45
436.915	8841.76
437.122	9036.32
437.329	8862.24
437.537	9194.01
437.743	9304.6
437.95	9271.84
438.157	9800.21
438.364	10138.13
438.571	9964.05
438.778	10144.27
438.985	10928.64
439.192	10545.67
439.399	10742.28
439.606	10711.56
439.813	11375.1
440.02	12075.51
440.227	11749.88
440.433	11741.69
440.64	12077.55
440.847	12065.27
441.054	12294.64
441.261	13238.75
441.467	12872.17
441.674	12954.08
441.881	14080.47
442.088	13777.37
442.294	13552.09
442.501	13918.68
442.708	14035.41
442.914	14582.22
443.121	15235.52
443.328	14827.98
443.534	16026.04
443.741	15610.3
443.948	15124.93
444.154	16431.54
444.361	16290.23
444.568	16136.63
444.774	16335.28
444.981	16296.37
445.187	17045.93
445.394	17729.95
445.6	17783.2
445.807	19243.4
446.013	18348.43
446.22	18526.61
446.426	19319.17
446.633	19622.27
446.839	20259.19
447.046	19405.19
447.252	20709.74
447.459	20550
447.665	20283.77
447.871	21272.93
448.078	22206.81
448.284	20988.27
448.491	21997.91
448.697	22495.57
448.903	23296.33
449.11	22991.18
449.316	22827.34
449.522	23157.07
449.728	23621.95
449.935	23890.24
450.141	23701.82
450.347	24357.17
450.553	24115.51
450.76	24080.7
450.966	24817.97
451.172	24742.19
451.378	25297.19
451.584	24719.67
451.791	25375.02
451.997	25360.68
452.203	26048.8
452.409	25993.5
452.615	26112.28
452.821	24832.3
453.027	24705.33
453.233	25667.87
453.44	24711.47
453.646	24938.8
453.852	24916.27
454.058	25504.04
454.264	24754.48
454.47	25803.04
454.676	24797.49
454.882	25426.21
455.088	23451.97
455.294	23521.6
455.5	24037.69
455.705	24457.53
455.911	23327.05
456.117	22978.89
456.323	22491.48
456.529	21547.36
456.735	22499.67
456.941	22184.28
457.147	21180.78
457.352	20851.05
457.558	20521.33
457.764	20738.41
457.97	20654.45
458.176	20068.73
458.381	19884.41
458.587	19257.73
458.793	18897.29
458.999	18039.19
459.204	19319.17
459.41	18592.14
459.616	17695.13
459.821	17451.42
460.027	17385.89
460.233	17152.42
460.438	16601.52
460.644	16652.72
460.85	15626.68
461.055	15415.74
461.261	15417.79
461.466	14139.86
461.672	13812.18
461.878	14862.79
462.083	13871.57
462.289	13855.19
462.494	13566.43
462.7	12827.11
462.905	12440.04
463.111	13042.15
463.316	13093.35
463.522	12720.62
463.727	12843.49
463.932	12782.06
464.138	12683.75
464.343	12882.41
464.549	11878.9
464.754	12577.26
464.959	12456.43
465.165	12382.7
465.37	12028.4
465.575	11614.71
465.781	12046.83
465.986	12089.84
466.191	11571.71
466.397	11702.78
466.602	11020.8
466.807	11282.94
467.012	11086.34
467.218	11028.99
467.423	11160.06
467.628	11143.68
467.833	11747.83
468.038	11371.01
468.244	10947.08
468.449	11387.39
468.654	11002.37
468.859	10945.03
469.064	10826.25
469.269	10531.34
469.474	10562.06
469.679	10697.22
469.885	10648.07
470.09	10553.87
470.295	10498.57
470.5	10261.01
470.705	10361.36
470.91	10127.89
471.115	9898.52
471.32	9896.47
471.525	10050.07
471.73	9939.48
471.935	9794.07
472.139	9253.41
472.344	9609.75
472.549	9413.15
472.754	9400.86
472.959	9128.48
473.164	9105.95
473.369	8792.61
473.574	9308.7
473.778	9091.62
473.983	9024.03
474.188	9050.66
474.393	8661.54
474.598	8636.97
474.802	8622.63
475.007	8460.84
475.212	8636.97
475.417	8069.68
475.621	8280.62
475.826	8141.36
476.031	8110.64
476.235	7879.22
476.44	8045.1
476.645	7926.32
476.849	7850.55
477.054	7828.02
477.259	7600.69
477.463	7588.41
477.668	7553.59
477.872	7541.3
478.077	7359.03
478.282	7209.53
478.486	7268.92
478.691	7195.2
478.895	7352.89
479.1	7162.43
479.304	7227.96
479.509	6849.09
479.713	7113.28
479.918	6752.84
480.122	6662.72
480.326	6761.03
480.531	6920.77
480.735	6752.84
480.94	6752.84
481.144	6931.01
481.348	6664.77
481.553	6765.12
481.757	6433.35
481.961	6703.68
482.166	6720.07
482.37	6726.21
482.574	6593.09
482.778	6550.09
482.983	6740.55
483.187	6605.38
483.391	6654.53
483.595	6683.2
483.8	6601.29
484.004	6597.19
484.208	6656.58
484.412	6531.65
484.616	6793.79
484.821	6793.79
485.025	6312.52
485.229	6550.09
485.433	6607.43
485.637	6550.09
485.841	6531.65
486.045	6609.48
486.249	6482.5
486.453	6648.39
486.657	6679.11
486.861	6582.85
487.065	6554.18
487.269	6605.38
487.473	6474.31
487.677	6699.59
487.881	6521.42
488.085	6611.53
488.289	6523.46
488.493	6687.3
488.697	6621.77
488.901	6597.19
489.105	6591.05
489.309	6683.2
489.512	6548.04
489.716	6705.73
489.92	6709.83
490.124	6650.44
490.328	6859.33
490.531	6769.22
490.735	6775.36
490.939	6705.73
491.143	6564.42
491.346	6855.23
491.55	6933.06
491.754	6771.27
491.958	6810.18
492.161	7057.98
492.365	6933.06
492.569	6912.58
492.772	6926.91
492.976	7064.13
493.18	7111.23
493.383	7121.47
493.587	7092.8
493.79	7203.39
493.994	7236.16
494.197	7268.92
494.401	7115.33
494.605	7244.35
494.808	7406.14
495.012	7375.42
495.215	7440.95
495.419	7514.68
495.622	7508.54
495.825	7563.83
496.029	7670.33
496.232	7805.49
496.436	7711.28
496.639	8018.48
496.843	7918.13
497.046	7995.95
497.249	8028.72
497.453	8227.37
497.656	8210.99
497.859	8305.2
498.063	8317.48
498.266	8423.98
498.469	8403.5
498.673	8583.72
498.876	8710.69
499.079	8876.58
499.282	8487.47
499.485	8874.53
499.689	9083.42
499.892	9173.53
500.095	9196.06
500.298	9380.38
500.501	9284.12
500.705	9660.95
500.908	9720.34
501.111	9812.5
501.314	9927.19
501.517	10013.2
501.72	10136.08
501.923	10097.17
502.126	10095.12
502.329	10316.3
502.532	10572.3
502.735	10738.18
502.938	10719.75
503.141	10783.24
503.344	10979.84
503.547	10971.65
503.75	11045.38
503.953	11450.88
504.156	11442.68
504.359	11545.08
504.562	11522.55
504.765	11729.4
504.968	11966.96
505.17	12210.67
505.373	12003.83
505.576	12347.89
505.779	12501.48
505.982	12405.23
506.185	12708.33
506.387	12689.9
506.59	12890.6
506.793	13244.9
506.996	13199.84
507.198	13521.37
507.401	13316.58
507.604	13568.48
507.807	13748.7
508.009	14133.72
508.212	13879.77
508.415	14213.59
508.617	14457.29
508.82	14619.08
509.022	14408.14
509.225	14791.11
509.428	14729.67
509.63	14893.51
509.833	14877.13
510.035	15593.92
510.238	15413.7
510.44	15518.14
510.643	15716.79
510.845	15985.08
511.048	15944.12
511.25	16206.26
511.453	16312.75
511.655	16751.02
511.858	16576.94
512.06	16507.31
512.262	16837.03
512.465	16880.04
512.667	17424.8
512.87	17529.25
513.072	17494.43
513.274	17879.45
513.477	18047.38
513.679	18264.47
513.881	18383.25
514.084	18471.31
514.286	18520.46
514.488	18653.58
514.69	18893.19
514.893	18993.54
515.095	19138.95
515.297	19294.6
515.499	19343.75
515.701	19652.99
515.904	19904.89
516.106	20091.26
516.308	20371.83
516.51	20660.59
516.712	20810.09
516.914	20875.63
517.116	21090.66
517.318	21031.27
517.52	21506.4
517.722	21139.82
517.925	21703.01
518.127	21942.62
518.329	21961.05
518.531	22139.22
518.733	22538.58
518.935	22882.64
519.136	22565.2
519.338	22874.45
519.54	23200.07
519.742	23007.56
519.944	23230.79
520.146	23599.43
520.348	24000.83
520.55	24047.93
520.752	23988.54
520.954	24496.44
521.155	24287.54
521.357	24623.41
521.559	24922.41
521.761	24912.17
521.963	25205.03
522.164	25065.77
522.366	25319.72
522.568	25317.67
522.77	25807.14
522.971	26355.99
523.173	25968.93
523.375	26386.71
523.576	26095.9
523.778	26409.24
523.98	26835.22
524.181	26968.34
524.383	26802.45
524.584	27191.56
524.786	27224.33
524.988	26921.23
525.189	27496.71
525.391	27369.74
525.592	27767.04
525.794	27767.04
525.995	27887.87
526.197	27818.24
526.398	28147.97
526.6	28104.96
526.801	28096.77
527.003	28670.2
527.204	28387.58
527.406	29130.99
527.607	28709.11
527.808	29049.07
528.01	28571.89
528.211	28674.29
528.412	29896.93
528.614	29569.26
528.815	29274.35
529.016	29501.67
529.218	28967.15
529.419	29565.16
529.62	29659.37
529.822	29362.41
530.023	29569.26
530.224	29755.62
530.425	29356.27
530.626	29585.64
530.828	29532.39
531.029	30144.73
531.23	29464.81
531.431	30023.9
531.632	29882.59
531.833	30257.37
532.035	29989.09
532.236	29890.79
532.437	30228.7
532.638	29737.19
532.839	30032.1
533.04	30599.38
533.241	29917.41
533.442	30310.62
533.643	30056.67
533.844	30269.66
534.045	30275.8
534.246	29958.37
534.447	30214.37
534.648	29907.17
534.849	30189.79
535.05	30230.75
535.251	30458.07
535.451	30249.18
535.652	30114.02
535.853	30642.39
536.054	30677.21
536.255	30384.35
536.456	30167.26
536.657	30675.16
536.857	30183.65
537.058	29903.07
537.259	30791.89
537.46	30597.34
537.66	30224.61
537.861	30378.2
538.062	30222.56
538.263	30224.61
538.463	30222.56
538.664	30136.54
538.865	30712.02
539.065	30322.91
539.266	30036.19
539.466	30474.46
539.667	30173.41
539.868	31189.2
540.068	30400.73
540.269	30085.34
540.469	30453.98
540.67	30249.18
540.87	29962.47
541.071	30068.96
541.271	30245.09
541.472	30064.86
541.672	30128.35
541.873	29892.83
542.073	29534.44
542.274	30453.98
542.474	30146.78
542.675	30040.29
542.875	30394.59
543.075	29780.2
543.276	29538.54
543.476	30161.12
543.676	29958.37
543.877	29776.1
544.077	30261.47
544.277	30081.25
544.478	30365.92
544.678	30316.76
544.878	30083.3
545.078	30148.83
545.279	29800.68
545.479	29729
545.679	30177.5
545.879	30052.58
546.079	29866.21
546.28	29735.14
546.48	29706.47
546.68	29657.32
546.88	30081.25
547.08	29935.84
547.28	30263.52
547.48	29726.95
547.68	30216.41
547.88	29599.97
548.081	29821.16
548.281	30114.02
548.481	29606.12
548.681	30109.92
548.881	29634.79
549.081	29712.61
549.28	29733.09
549.48	29864.16
549.68	29802.72
549.88	29999.33
550.08	29602.02
550.28	29659.37
550.48	29800.68
550.68	29954.27
550.88	29585.64
551.08	29636.84
551.279	30144.73
551.479	29683.94
551.679	29520.1
551.879	29368.55
552.079	29827.3
552.278	29460.71
552.478	29954.27
552.678	29927.65
552.878	29634.79
553.077	29737.19
553.277	29321.45
553.477	29788.39
553.676	29346.03
553.876	29581.54
554.076	29356.27
554.275	29325.55
554.475	29309.16
554.674	29268.2
554.874	29278.44
555.074	29253.87
555.273	29530.34
555.473	29585.64
555.672	29032.69
555.872	29143.28
556.071	29161.71
556.271	29806.82
556.47	29030.64
556.67	28926.19
556.869	28901.62
557.068	29219.05
557.268	28997.87
557.467	29405.42
557.667	29210.86
557.866	28977.39
558.065	29092.08
558.265	28891.38
558.464	28975.34
558.663	29303.02
558.863	28270.84
559.062	28666.1
559.261	28016.9
559.461	28840.18
559.66	28619
559.859	28221.69
560.058	28141.82
560.258	28537.08
560.457	28520.7
560.656	28680.44
560.855	28485.88
561.054	28477.69
561.253	28164.35
561.453	28233.98
561.652	28385.53
561.851	28145.92
562.05	27980.03
562.249	27937.02
562.448	28029.18
562.647	28174.59
562.846	28123.39
563.045	27939.07
563.244	27994.37
563.443	28123.39
563.642	27486.47
563.841	27779.33
564.04	27592.97
564.239	28033.28
564.438	27087.12
564.637	27373.83
564.836	27678.98
565.035	27453.7
565.234	27250.95
565.432	27224.33
565.631	27560.2
565.83	27351.31
566.029	27162.89
566.228	27017.49
566.427	27212.04
566.625	26798.35
566.824	26929.42
567.023	27080.97
567.222	26495.25
567.42	26880.27
567.619	26822.93
567.818	26464.53
568.016	26519.83
568.215	26745.11
568.414	26505.49
568.612	26747.15
568.811	26374.42
569.01	26403.1
569.208	26155.29
569.407	26206.49
569.605	25899.3
569.804	26194.2
570.002	25975.07
570.201	26239.26
570.4	25782.56
570.598	25579.81
570.797	25674.02
570.995	25757.99
571.193	25397.54
571.392	25794.85
571.59	25338.15
571.789	25495.85
571.987	25262.38
572.186	25119.02
572.384	25286.95
572.582	25401.64
572.781	25340.2
572.979	25047.34
573.177	24844.59
573.376	25336.1
573.574	25076.01
573.772	25082.16
573.971	24854.83
574.169	24822.06
574.367	24766.77
574.565	24492.34
574.763	24570.16
574.962	24527.16
575.16	24082.75
575.358	24500.53
575.556	24303.93
575.754	24363.32
575.952	23834.94
576.151	24533.3
576.349	23994.68
576.547	24150.33
576.745	24113.47
576.943	23984.44
577.141	23757.12
577.339	24142.14
577.537	23660.87
577.735	23933.25
577.933	23427.4
578.131	23775.55
578.329	23218.5
578.527	23042.38
578.725	23564.61
578.923	23327.05
579.121	23353.67
579.319	23339.33
579.516	23050.57
579.714	22966.6
579.912	22907.21
580.11	22690.13
580.308	22894.93
580.506	22632.79
580.704	22317.4
580.901	22890.83
581.099	22706.51
581.297	22661.46
581.495	22864.21
581.692	22571.35
581.89	22362.45
582.088	22618.45
582.285	22485.33
582.483	22456.66
582.681	22278.49
582.878	22370.65
583.076	21903.71
583.274	22393.17
583.471	21901.66
583.669	22047.07
583.866	22016.35
584.064	21852.51
584.262	21619.04
584.459	21842.27
584.657	21829.98
584.854	21944.67
585.052	21397.86
585.249	21434.72
585.447	21430.63
585.644	21293.41
585.841	21383.52
586.039	21344.61
586.236	21309.8
586.434	21227.88
586.631	21082.47
586.828	20785.52
587.026	21225.83
587.223	20887.92
587.42	20562.29
587.618	20719.98
587.815	20693.36
588.012	20570.48
588.21	20263.29
588.407	20672.88
588.604	20625.78
588.801	20283.77
588.999	20308.34
589.196	20230.52
589.393	20384.12
589.59	20314.48
589.787	20271.48
589.984	20132.22
590.182	20027.77
590.379	20187.51
590.576	19945.85
590.773	19962.23
590.97	19886.46
591.167	19704.19
591.364	19718.53
591.561	19616.13
591.758	19474.82
591.955	19478.91
592.152	19648.89
592.349	19388.8
592.546	19376.51
592.743	19491.2
592.94	18837.9
593.137	19388.8
593.334	19280.26
593.531	18968.97
593.727	19134.85
593.924	18993.54
594.121	18901.39
594.318	19048.84
594.515	18782.6
594.712	18934.15
594.908	18739.6
595.105	18786.7
595.302	18688.4
595.499	18919.82
595.696	18469.26
595.892	18393.49
596.089	18510.22
596.286	18305.43
596.482	18067.86
596.679	18157.97
596.876	18309.52
597.072	18151.83
597.269	18266.52
597.466	18139.54
597.662	18112.92
597.859	17815.96
598.055	17901.98
598.252	17799.58
598.448	17705.37
598.645	17621.41
598.841	17410.46
599.038	17531.3
599.234	17541.53
599.431	17271.2
599.627	17404.32
599.824	17453.47
600.02	17238.44
600.217	17234.34
600.413	17138.09
600.609	17148.32
600.806	16951.72
601.002	17183.14
601.198	16869.8
601.395	17146.28
601.591	16828.84
601.787	16755.11
601.984	16523.69
602.18	16945.58
602.376	16597.42
602.572	16646.57
602.769	16843.18
602.965	16449.97
603.161	16572.85
603.357	16241.07
603.553	16566.7
603.75	16095.67
603.946	16103.86
604.142	16384.43
604.338	15905.21
604.534	16181.68
604.73	16040.37
604.926	15827.39
605.122	16255.41
605.318	15952.31
605.514	15829.43
605.71	15954.36
605.906	16005.56
606.102	15688.12
606.298	15698.36
606.494	15735.23
606.69	15739.32
606.886	15821.24
607.082	15501.76
607.278	15649.21
607.474	15464.89
607.67	15552.96
607.866	15305.15
608.062	15460.8
608.257	15305.15
608.453	15299.01
608.649	15530.43
608.845	14971.33
609.041	15212.99
609.236	15274.43
609.432	15155.65
609.628	15141.32
609.824	15180.23
610.019	15061.44
610.215	14969.29
610.411	15182.27
610.606	14725.58
610.802	14983.62
610.998	14897.61
611.193	14944.71
611.389	14797.26
611.584	14670.28
611.78	14877.13
611.976	14725.58
612.171	14653.9
612.367	14881.22
612.562	14596.56
612.758	14520.78
612.953	14512.59
613.149	14670.28
613.344	14363.09
613.539	14416.33
613.735	14471.63
613.93	14428.62
614.126	14322.13
614.321	14690.76
614.517	14395.85
614.712	14272.98
614.907	14227.92
615.103	14307.79
615.298	14098.9
615.493	14209.49
615.688	14010.84
615.884	14293.46
616.079	13971.93
616.274	14021.08
616.47	14039.51
616.665	14098.9
616.86	14182.87
617.055	14023.12
617.25	14074.32
617.445	13945.3
617.641	13670.87
617.836	13967.83
618.031	13439.45
618.226	13717.98
618.421	13627.87
618.616	13808.09
618.811	13474.27
619.006	13683.16
619.201	13330.91
619.396	13445.6
619.591	13046.24
619.786	13535.71
619.981	13201.89
620.176	13232.61
620.371	13025.76
620.566	13191.65
620.761	13154.79
620.956	12978.66
621.151	13095.39
621.346	12929.51
621.541	12845.54
621.735	12921.32
621.93	12657.13
622.125	12898.79
622.32	12620.27
622.515	12642.79
622.709	12407.28
622.904	12620.27
623.099	12286.45
623.294	12268.02
623.488	12245.49
623.683	12210.67
623.878	11938.29
624.072	12145.14
624.267	12069.36
624.462	12014.07
624.656	11772.41
624.851	12012.02
625.046	11913.72
625.24	11649.53
625.435	11571.71
625.629	11414.01
625.824	11586.04
626.018	11395.58
626.213	11233.79
626.407	11209.22
626.602	11155.97
626.796	11201.02
626.991	11037.19
627.185	11106.82
627.38	11074.05
627.574	10881.54
627.768	10777.09
627.963	10703.37
628.157	10689.03
628.352	10875.4
628.546	10562.06
628.74	10811.91
628.935	10416.65
629.129	10570.25
629.323	10363.4
629.517	10342.92
629.712	10271.25
629.906	10263.05
630.1	10101.26
630.294	10226.19
630.489	10093.07
630.683	9990.67
630.877	9839.12
631.071	9777.69
631.265	9941.52
631.459	9775.64
631.653	9908.76
631.848	9992.72
632.042	9550.36
632.236	9685.53
632.43	9566.74
632.624	9511.45
632.818	9407
633.012	9300.51
633.206	9458.2
633.4	9349.66
633.594	9216.54
633.788	9308.7
633.982	9148.96
634.176	9189.92
634.369	9136.67
634.563	9122.34
634.757	8878.63
634.951	8821.28
635.145	8944.16
635.339	8907.3
635.533	9046.56
635.726	8768.04
635.92	8653.35
636.114	8653.35
636.308	8657.45
636.501	8512.04
636.695	8624.68
636.889	8710.69
637.083	8356.4
637.276	8434.22
637.47	8473.13
637.664	8149.55
637.857	8446.51
638.051	8186.41
638.244	8008.24
638.438	8315.44
638.632	8055.34
638.825	8016.43
639.019	8129.07
639.212	7809.59
639.406	7932.47
639.599	7848.5
639.793	8157.74
639.986	7801.4
640.18	7754.29
640.373	8010.29
640.567	7678.52
640.76	7760.44
640.954	7645.75
641.147	7615.03
641.34	7393.85
641.534	7486.01
641.727	7465.53
641.92	7526.97
642.114	7389.75
642.307	7330.36
642.5	7334.46
642.694	7154.24
642.887	7412.28
643.08	7248.44
643.273	7277.12
643.467	7172.67
643.66	7094.85
643.853	6926.91
644.046	7045.7
644.239	6834.75
644.432	7051.84
644.626	6900.29
644.819	6894.15
645.012	6836.8
645.205	6877.76
645.398	6769.22
645.591	6613.57
645.784	6623.81
645.977	6466.12
646.17	6703.68
646.363	6543.94
646.556	6515.27
646.749	6494.79
646.942	6509.13
647.135	6556.23
647.328	6498.89
647.521	6357.58
647.714	6085.2
647.907	6328.91
648.099	6195.79
648.292	6318.67
648.485	6333
648.678	6181.45
648.871	6138.44
649.064	6101.58
649.256	6150.73
649.449	6040.14
649.642	5974.61
649.835	5984.85
650.027	5806.67
650.22	5886.54
650.413	5716.56
650.605	5792.34
650.798	5769.81
650.991	5642.84
651.183	5755.47
651.376	5757.52
651.568	5720.66
651.761	5589.59
651.954	5546.58
652.146	5503.57
652.339	5653.08
652.531	5597.78
652.724	5567.06
652.916	5335.64
653.109	5433.94
653.301	5515.86
653.494	5425.75
653.686	5370.46
653.879	5380.7
654.071	5384.79
654.263	5155.42
654.456	5147.23
654.648	5196.38
654.84	5157.47
655.033	5130.84
655.225	5010.01
655.417	5163.61
655.61	5190.24
655.802	5118.56
655.994	4977.25
656.186	5149.28
656.379	4991.58
656.571	4993.63
656.763	4825.7
656.955	4954.72
657.148	4821.6
657.34	4786.79
657.532	4737.63
657.724	4862.56
657.916	4749.92
658.108	4782.69
658.3	4754.02
658.492	4737.63
658.684	4518.5
658.876	4596.32
659.068	4739.68
659.26	4557.41
659.452	4592.23
659.644	4680.29
659.836	4573.8
660.028	4512.36
660.22	4356.71
660.412	4536.93
660.604	4450.92
660.796	4381.29
660.988	4381.29
661.18	4485.73
661.372	4319.85
661.563	4563.56
661.755	4260.46
661.947	4215.4
662.139	4229.74
662.331	4338.28
662.522	4172.39
662.714	4258.41
662.906	4213.35
663.097	4319.85
663.289	4084.33
663.481	4145.77
663.673	4182.63
663.864	4016.75
664.056	3783.28
664.247	4004.46
664.439	3918.45
664.631	3938.93
664.822	3938.93
665.014	3826.29
665.205	3971.69
665.397	4029.04
665.588	4080.24
665.78	3955.31
665.971	3787.38
666.163	3814
666.354	3779.18
666.546	3732.08
666.737	3650.16
666.929	3775.09
667.12	3787.38
667.311	3805.81
667.503	3535.48
667.694	3678.83
667.885	3693.17
668.077	3609.2
668.268	3738.23
668.459	3617.4
668.651	3547.76
668.842	3512.95
669.033	3455.61
669.224	3437.17
669.416	3617.4
669.607	3515
669.798	3541.62
669.989	3578.48
670.18	3510.9
670.371	3420.79
670.563	3476.09
670.754	3375.74
670.945	3443.32
671.136	3320.44
671.327	3289.72
671.518	3326.58
671.709	3314.3
671.9	3353.21
672.091	3289.72
672.282	3228.28
672.473	3281.53
672.664	3332.73
672.855	3267.19
673.046	3213.95
673.237	3248.76
673.428	3203.71
673.619	3195.51
673.809	3222.14
674	3248.76
674.191	3185.27
674.382	3209.85
674.573	3203.71
674.764	3213.95
674.954	3082.88
675.145	3121.79
675.336	3107.45
675.527	3111.55
675.717	2960
675.908	3168.89
676.099	3009.15
676.289	3117.69
676.48	3029.63
676.671	2884.22
676.861	3003
677.052	3000.96
677.243	2970.24
677.433	2964.09
677.624	3050.11
677.814	3078.78
678.005	2896.51
678.195	3054.2
678.386	3003
678.576	2947.71
678.767	2916.99
678.957	2947.71
679.148	2978.43
679.338	3082.88
679.529	2970.24
679.719	2970.24
679.909	2878.08
680.1	2818.69
680.29	2798.21
680.481	2755.2
680.671	2906.75
680.861	2857.6
681.052	2873.98
681.242	2792.06
681.432	2898.56
681.622	2822.78
681.813	2808.45
682.003	2808.45
682.193	2706.05
682.383	2798.21
682.573	2759.3
682.764	2736.77
682.954	2718.34
683.144	2796.16
683.334	2765.44
683.524	2839.17
683.714	2701.95
683.904	2714.24
684.094	2706.05
684.284	2673.28
684.474	2820.74
684.664	2804.35
684.854	2716.29
685.044	2706.05
685.234	2706.05
685.424	2632.32
685.614	2493.06
685.804	2663.04
685.994	2706.05
686.184	2665.09
686.374	2607.75
686.564	2603.65
686.753	2511.49
686.943	2460.29
687.133	2501.25
687.323	2480.77
687.513	2544.26
687.702	2503.3
687.892	2429.57
688.082	2413.19
688.272	2464.39
688.461	2407.05
688.651	2534.02
688.841	2323.08
689.03	2460.29
689.22	2423.43
689.41	2464.39
689.599	2445.96
689.789	2464.39
689.979	2386.57
690.168	2329.22
690.358	2339.46
690.547	2382.47
690.737	2288.26
690.926	2290.31
691.116	2316.94
691.305	2390.66
691.495	2343.56
691.684	2288.26
691.874	2247.3
692.063	2151.05
692.252	2364.04
692.442	2189.96
692.631	2216.58
692.82	2286.22
693.01	2169.48
693.199	2222.73
693.388	2120.33
693.578	2101.9
693.767	2142.86
693.956	2198.15
694.146	2034.32
694.335	2101.9
694.524	2136.71
694.713	2071.18
694.902	2198.15
695.092	2089.61
695.281	2120.33
695.47	2083.47
695.659	2085.51
695.848	2103.95
696.037	2058.89
696.226	2036.36
696.415	2067.08
696.604	2083.47
696.793	1960.59
696.982	2073.23
697.171	2054.8
697.36	2015.88
697.549	1995.4
697.738	1985.16
697.927	2075.27
698.116	2007.69
698.305	2034.32
698.494	1954.44
698.683	1987.21
698.872	1954.44
699.061	1960.59
699.25	1948.3
699.438	1862.29
699.627	2009.74
699.816	1970.83
700.005	1927.82
700.193	1954.44
700.382	1972.88
700.571	1886.86
700.76	1856.14
700.948	1872.53
701.137	1878.67
701.326	1823.37
701.514	2038.41
701.703	1960.59
701.892	1854.09
702.08	2017.93
702.269	1796.75
702.457	1915.53
702.646	1821.33
702.834	1864.33
703.023	1962.64
703.212	1921.68
703.4	1989.26
703.589	1790.61
703.777	1878.67
703.965	1901.2
704.154	1864.33
704.342	1845.9
704.531	1827.47
704.719	1763.98
704.907	1948.3
705.096	1864.33
705.284	1950.35
705.472	1831.57
705.661	1909.39
705.849	1919.63
706.037	1895.05
706.226	1929.87
706.414	1878.67
706.602	1780.37
706.79	1886.86
706.979	1931.92
707.167	1903.25
707.355	1895.05
707.543	1925.77
707.731	1862.29
707.919	1915.53
708.107	1735.31
708.296	1837.71
708.484	1823.37
708.672	1837.71
708.86	1911.44
709.048	1823.37
709.236	1858.19
709.424	1852.05
709.612	1847.95
709.8	1806.99
709.988	1882.77
710.176	1886.86
710.364	1893.01
710.551	1821.33
710.739	1903.25
710.927	1833.61
711.115	1852.05
711.303	1872.53
711.491	1938.06
711.679	1845.9
711.866	1813.13
712.054	1925.77
712.242	1749.65
712.43	1936.01
712.617	1921.68
712.805	1815.18
712.993	1772.18
713.181	1751.7
713.368	1847.95
713.556	1827.47
713.744	1850
713.931	1913.49
714.119	1806.99
714.306	1772.18
714.494	1829.52
714.682	1919.63
714.869	1933.97
715.057	1907.34
715.244	1886.86
715.432	1901.2
715.619	1862.29
715.807	1790.61
715.994	1936.01
716.182	1817.23
716.369	1886.86
716.556	2011.79
716.744	1780.37
716.931	1882.77
717.119	1798.8
717.306	1911.44
717.493	1837.71
717.681	1854.09
717.868	1890.96
718.055	1780.37
718.242	1852.05
718.43	1821.33
718.617	1944.2
718.804	1888.91
718.991	1847.95
719.179	1753.74
719.366	1800.85
719.553	1809.04
719.74	1780.37
719.927	1876.62
720.114	1823.37
720.301	1854.09
720.488	1938.06
720.676	1809.04
720.863	1806.99
721.05	1841.81
721.237	1862.29
721.424	1829.52
721.611	1890.96
721.798	1845.9
721.985	1796.75
722.172	1854.09
722.358	1776.27
722.545	1854.09
722.732	1823.37
722.919	1825.42
723.106	1950.35
723.293	1829.52
723.48	1776.27
723.667	1919.63
723.853	1878.67
724.04	1792.66
724.227	1895.05
724.414	1780.37
724.6	1788.56
724.787	1688.21
724.974	1850
725.161	1895.05
725.347	1763.98
725.534	1882.77
725.72	1845.9
725.907	1841.81
726.094	1919.63
726.28	1819.28
726.467	1864.33
726.653	1774.22
726.84	1915.53
727.027	1847.95
727.213	1798.8
727.4	1897.1
727.586	1919.63
727.773	1788.56
727.959	1915.53
728.145	1981.07
728.332	1766.03
728.518	1796.75
728.705	1870.48
728.891	1944.2
729.077	2028.17
729.264	1825.42
729.45	1911.44
729.636	1960.59
729.823	1845.9
730.009	1919.63
730.195	1862.29
730.382	1878.67
730.568	1862.29
730.754	1866.38
730.94	1921.68
731.126	1917.58
731.313	1944.2
731.499	1796.75
731.685	1872.53
731.871	1788.56
732.057	1976.97
732.243	1880.72
732.429	1817.23
732.615	1856.14
732.801	1954.44
732.987	1737.36
733.173	1829.52
733.359	1800.85
733.545	1864.33
733.731	1835.66
733.917	1798.8
734.103	1804.94
734.289	1858.19
734.475	1878.67
734.661	1854.09
734.847	1870.48
735.033	1806.99
735.219	1911.44
735.404	1749.65
735.59	1845.9
735.776	1962.64
735.962	1792.66
736.148	1878.67
736.333	1862.29
736.519	1882.77
736.705	1796.75
736.89	1788.56
737.076	1886.86
737.262	1784.46
737.447	1757.84
737.633	1800.85
737.819	1755.79
738.004	1772.18
738.19	1817.23
738.375	1776.27
738.561	1813.13
738.747	1827.47
738.932	1782.42
739.118	1966.73
739.303	1819.28
739.489	1806.99
739.674	1706.64
739.859	1829.52
740.045	1798.8
740.23	1751.7
740.416	1720.98
740.601	1684.11
740.786	1839.76
740.972	1698.45
741.157	1684.11
741.342	1792.66
741.528	1796.75
741.713	1690.26
741.898	1745.55
742.084	1716.88
742.269	1706.64
742.454	1751.7
742.639	1788.56
742.824	1731.22
743.01	1675.92
743.195	1743.5
743.38	1704.59
743.565	1677.97
743.75	1626.77
743.935	1739.41
744.12	1624.72
744.305	1577.62
744.49	1634.96
744.675	1706.64
744.86	1583.76
745.045	1659.54
745.23	1585.81
745.415	1583.76
745.6	1628.82
745.785	1520.28
745.97	1602.19
746.155	1567.38
746.34	1624.72
746.525	1587.86
746.71	1469.08
746.895	1526.42
747.079	1454.74
747.264	1567.38
747.449	1596.05
747.634	1518.23
747.819	1591.95
748.003	1477.27
748.188	1421.97
748.373	1614.48
748.557	1493.65
748.742	1510.04
748.927	1503.89
749.111	1493.65
749.296	1395.35
749.481	1413.78
749.665	1419.92
749.85	1280.66
750.034	1338.01
750.219	1460.88
750.404	1350.29
750.588	1348.25
750.773	1403.54
750.957	1364.63
751.141	1356.44
751.326	1424.02
751.51	1348.25
751.695	1413.78
751.879	1344.15
752.064	1288.85
752.248	1342.1
752.432	1381.01
752.617	1229.46
752.801	1307.29
752.985	1315.48
753.17	1331.86
753.354	1424.02
753.538	1274.52
753.722	1213.08
753.907	1288.85
754.091	1223.32
754.275	1233.56
754.459	1182.36
754.643	1235.61
754.828	1284.76
755.012	1116.83
755.196	1206.94
755.38	1190.55
755.564	1096.35
755.748	1174.17
755.932	1239.7
756.116	1186.46
756.3	1135.26
756.484	1200.79
756.668	1137.31
756.852	1092.25
757.036	1202.84
757.22	1108.63
757.404	1051.29
757.588	1079.96
757.772	1125.02
757.956	1063.58
758.14	1116.83
758.323	1075.87
758.507	1104.54
758.691	971.42
758.875	1090.2
759.059	1075.87
759.242	957.08
759.426	1073.82
759.61	959.13
759.794	969.37
759.977	1024.67
760.161	1039
760.345	1022.62
760.528	975.52
760.712	971.42
760.895	1065.63
761.079	1079.96
761.263	936.6
761.446	907.93
761.63	961.18
761.813	879.26
761.997	871.07
762.18	930.46
762.364	955.04
762.547	813.73
762.731	862.88
762.914	899.74
763.098	955.04
763.281	903.84
763.464	969.37
763.648	940.7
763.831	944.8
764.015	826.01
764.198	883.36
764.381	891.55
764.564	871.07
764.748	815.77
764.931	895.64
765.114	856.73
765.297	1012.38
765.481	801.44
765.664	885.41
765.847	899.74
766.03	895.64
766.213	895.64
766.397	914.08
766.58	815.77
766.763	793.25
766.946	842.4
767.129	778.91
767.312	840.35
767.495	942.75
767.678	772.77
767.861	766.62
768.044	912.03
768.227	729.76
768.41	772.77
768.593	920.22
768.776	746.14
768.959	864.93
769.142	854.69
769.324	772.77
769.507	797.34
769.69	770.72
769.873	740
770.056	735.9
770.239	854.69
770.421	805.53
770.604	864.93
770.787	821.92
770.97	805.53
771.152	764.57
771.335	805.53
771.518	711.33
771.7	821.92
771.883	830.11
772.066	731.81
772.248	701.09
772.431	733.86
772.613	787.1
772.796	715.42
772.978	690.85
773.161	772.77
773.343	760.48
773.526	617.12
773.708	785.05
773.891	643.74
774.073	701.09
774.256	682.66
774.438	694.94
774.621	617.12
774.803	578.21
774.985	744.1
775.168	703.14
775.35	668.32
775.532	684.7
775.715	748.19
775.897	613.03
776.079	674.46
776.261	725.66
776.444	647.84
776.626	670.37
776.808	600.74
776.99	602.79
777.173	637.6
777.355	733.86
777.537	643.74
777.719	717.47
777.901	684.7
778.083	596.64
778.265	477.86
778.447	613.03
778.629	664.22
778.811	643.74
778.993	590.5
779.175	518.82
779.357	580.26
779.539	529.06
779.721	535.2
779.903	553.63
780.085	557.73
780.267	610.98
780.449	584.35
780.631	531.11
780.812	471.72
780.994	545.44
781.176	494.24
781.358	563.87
781.54	576.16
781.721	488.1
781.903	477.86
782.085	461.48
782.267	537.25
782.448	498.34
782.63	486.05
782.812	424.61
782.993	492.2
783.175	529.06
783.357	441
783.538	500.39
783.72	473.76
783.901	502.43
784.083	445.09
784.264	420.52
784.446	455.33
784.627	420.52
784.809	506.53
784.99	406.18
785.172	477.86
785.353	363.17
785.535	430.76
785.716	422.56
785.897	400.04
786.079	428.71
786.26	443.04
786.441	397.99
786.623	354.98
786.804	436.9
786.985	414.37
787.167	375.46
787.348	502.43
787.529	453.28
787.71	430.76
787.891	404.13
788.073	395.94
788.254	363.17
788.435	371.36
788.616	418.47
788.797	354.98
788.978	318.12
789.159	412.32
789.34	359.08
789.522	354.98
789.703	346.79
789.884	305.83
790.065	391.84
790.246	488.1
790.427	340.65
790.607	422.56
790.788	322.21
790.969	266.92
791.15	357.03
791.331	236.2
791.512	350.89
791.693	346.79
791.874	340.65
792.054	324.26
792.235	340.65
792.416	180.9
792.597	426.66
792.778	299.69
792.958	352.93
793.139	203.43
793.32	320.17
793.5	369.32
793.681	314.02
793.862	307.88
794.042	328.36
794.223	228.01
794.404	297.64
794.584	250.53
794.765	240.29
794.945	146.09
795.126	264.87
795.306	297.64
795.487	324.26
795.667	248.49
795.848	199.34
796.028	279.21
796.209	344.74
796.389	260.77
796.57	172.71
796.75	160.42
796.93	185
797.111	248.49
797.291	228.01
797.471	248.49
797.652	209.58
797.832	182.95
798.012	332.45
798.192	250.53
798.373	174.76
798.553	244.39
798.733	324.26
798.913	271.01
799.093	307.88
799.274	244.39
799.454	271.01
799.634	258.73
799.814	182.95
799.994	291.49
800.174	223.91
800.354	211.62
800.534	260.77
800.714	281.25
800.894	242.34
801.074	232.1
801.254	199.34
801.434	236.2
801.614	240.29
801.794	166.57
801.974	789.15
802.154	244.39
802.334	250.53
802.514	221.86
802.693	215.72
802.873	199.34
803.053	293.54
803.233	201.38
803.413	225.96
803.592	185
803.772	182.95
803.952	277.16
804.131	207.53
804.311	299.69
804.491	248.49
804.67	176.81
804.85	172.71
805.03	182.95
805.209	225.96
805.389	133.8
805.568	217.77
805.748	195.24
805.928	182.95
806.107	156.33
806.287	211.62
806.466	197.29
806.646	158.38
806.825	219.82
807.004	199.34
807.184	146.09
807.363	191.14
807.543	205.48
807.722	217.77
807.901	182.95
808.081	248.49
808.26	137.9
808.439	225.96
808.619	117.42
808.798	242.34
808.977	158.38
809.156	154.28
809.336	146.09
809.515	168.62
809.694	191.14
809.873	146.09
810.052	146.09
810.231	70.31
810.411	211.62
810.59	211.62
810.769	129.7
810.948	166.57
811.127	127.66
811.306	109.22
811.485	133.8
811.664	195.24
811.843	166.57
812.022	129.7
812.201	70.31
812.38	141.99
812.559	105.13
812.737	199.34
812.916	176.81
813.095	207.53
813.274	172.71
813.453	117.42
813.632	119.46
813.811	139.94
813.989	92.84
814.168	150.18
814.347	135.85
814.526	199.34
814.704	193.19
814.883	70.31
815.062	168.62
815.24	209.58
815.419	209.58
815.598	72.36
815.776	92.84
815.955	129.7
816.133	111.27
816.312	240.29
816.49	109.22
816.669	152.23
816.847	19.11
817.026	189.1
817.204	125.61
817.383	133.8
817.561	133.8
817.74	148.14
817.918	158.38
818.097	162.47
818.275	129.7
818.453	160.42
818.632	92.84
818.81	115.37
818.988	133.8
819.167	164.52
819.345	86.7
819.523	78.51
819.701	117.42
819.879	115.37
820.058	166.57
820.236	203.43
820.414	109.22
820.592	123.56
820.77	37.55
820.948	158.38
821.127	47.79
821.305	195.24
821.483	123.56
821.661	107.18
821.839	60.07
822.017	51.88
822.195	86.7
822.373	96.94
822.551	68.27
822.729	86.7
822.907	96.94
823.085	88.75
823.262	109.22
823.44	174.76
823.618	86.7
823.796	55.98
823.974	80.55
824.152	160.42
824.329	68.27
824.507	84.65
824.685	86.7
824.863	133.8
825.04	39.59
825.218	92.84
825.396	103.08
825.574	60.07
825.751	125.61
825.929	76.46
826.107	74.41
826.284	115.37
826.462	174.76
826.639	64.17
826.817	47.79
826.994	101.03
827.172	43.69
827.349	103.08
827.527	152.23
827.704	101.03
827.882	72.36
828.059	109.22
828.237	113.32
828.414	109.22
828.591	23.21
828.769	60.07
828.946	47.79
829.124	86.7
829.301	111.27
829.478	58.03
829.655	76.46
829.833	86.7
830.01	88.75
830.187	88.75
830.364	94.89
830.542	109.22
830.719	117.42
830.896	96.94
831.073	86.7
831.25	45.74
831.427	127.66
831.604	51.88
831.782	53.93
831.959	117.42
832.136	51.88
832.313	51.88
832.49	78.51
832.667	47.79
832.844	35.5
833.021	125.61
833.198	158.38
833.374	101.03
833.551	88.75
833.728	33.45
833.905	43.69
834.082	43.69
834.259	70.31
834.436	66.22
834.612	51.88
834.789	135.85
834.966	70.31
835.143	127.66
835.319	109.22
835.496	92.84
835.673	111.27
835.85	170.66
836.026	35.5
836.203	74.41
836.38	88.75
836.556	37.55
836.733	66.22
836.909	45.74
837.086	111.27
837.262	105.13
837.439	121.51
837.616	68.27
837.792	123.56
837.968	35.5
838.145	-7.51
838.321	125.61
838.498	15.02
838.674	39.59
838.851	84.65
839.027	35.5
839.203	29.35
839.38	76.46
839.556	64.17
839.732	62.12
839.909	35.5
840.085	109.22
840.261	117.42
840.437	60.07
840.614	-46.42
840.79	90.79
840.966	66.22
841.142	45.74
841.318	35.5
841.494	76.46
841.671	72.36
841.847	-58.71
842.023	10.92
842.199	101.03
842.375	68.27
842.551	-5.46
842.727	144.04
842.903	121.51
843.079	31.4
843.255	80.55
843.431	41.64
843.607	139.94
843.783	-13.65
843.959	51.88
844.134	-36.18
844.31	107.18
844.486	43.69
844.662	2.73
844.838	12.97
845.013	55.98
845.189	68.27
845.365	76.46
845.541	39.59
845.716	35.5
845.892	92.84
846.068	109.22
846.244	-13.65
846.419	86.7
846.595	-25.94
846.77	68.27
846.946	94.89
847.122	86.7
847.297	88.75
847.473	70.31
847.648	6.83
847.824	41.64
847.999	10.92
848.175	64.17
848.35	62.12
848.526	94.89
848.701	133.8
848.876	35.5
849.052	-1.37
849.227	19.11
849.403	98.99
849.578	62.12
849.753	39.59
849.929	51.88
850.104	35.5
850.279	70.31
850.454	51.88
850.63	29.35
850.805	53.93
850.98	21.16
851.155	-5.46
851.33	64.17
851.505	27.31
851.681	27.31
851.856	27.31
852.031	76.46
852.206	-7.51
852.381	64.17
852.556	86.7
852.731	125.61
852.906	27.31
853.081	47.79
853.256	55.98
853.431	19.11
853.606	84.65
853.781	62.12
853.956	47.79
854.131	76.46
854.305	41.64
854.48	43.69
854.655	-21.85
854.83	66.22
855.005	-13.65
855.18	55.98
855.354	21.16
855.529	51.88
855.704	15.02
855.879	45.74
856.053	-48.47
856.228	31.4
856.403	80.55
856.577	15.02
856.752	70.31
856.926	62.12
857.101	-21.85
857.276	58.03
857.45	45.74
857.625	60.07
857.799	31.4
857.974	35.5
858.148	-34.13
858.323	51.88
858.497	55.98
858.672	25.26
858.846	31.4
859.02	70.31
859.195	72.36
859.369	39.59
859.543	-19.8
859.718	-36.18
859.892	15.02
860.066	6.83
860.241	51.88
860.415	10.92
860.589	47.79
860.763	60.07
860.938	58.03
861.112	64.17
861.286	19.11
861.46	12.97
861.634	6.83
861.808	72.36
861.982	27.31
862.157	45.74
862.331	105.13
862.505	-38.23
862.679	19.11
862.853	-34.13
863.027	-30.04
863.201	107.18
863.375	86.7
863.549	-5.46
863.722	21.16
863.896	-13.65
864.07	17.07
864.244	49.83
864.418	80.55
864.592	53.93
864.766	12.97
864.939	19.11
865.113	4.78
865.287	88.75
865.461	-13.65
865.634	21.16
865.808	101.03
865.982	6.83
866.156	21.16
866.329	-3.41
866.503	43.69
866.676	33.45
866.85	-7.51
867.024	55.98
867.197	70.31
867.371	94.89
867.544	35.5
867.718	-83.28
867.891	72.36
868.065	-38.23
868.238	-30.04
868.412	64.17
868.585	92.84
868.759	51.88
868.932	-5.46
869.105	-9.56
869.279	76.46
869.452	23.21
869.625	43.69
869.799	12.97
869.972	-25.94
870.145	12.97
870.319	29.35
870.492	-27.99
870.665	-21.85
870.838	-50.52
871.011	-13.65
871.185	-11.61
871.358	29.35
871.531	-44.37
871.704	17.07
871.877	35.5
872.05	47.79
872.223	-19.8
872.396	74.41
872.569	-9.56
872.742	-11.61
872.915	-3.41
873.088	8.87
873.261	19.11
873.434	62.12
873.607	51.88
873.78	35.5
873.953	6.83
874.126	68.27
874.299	84.65
874.471	-1.37
874.644	-13.65
874.817	-19.8
874.99	31.4
875.163	19.11
875.335	10.92
875.508	68.27
875.681	15.02
875.853	-5.46
876.026	88.75
876.199	45.74
876.371	12.97
876.544	27.31
876.717	2.73
876.889	31.4
877.062	60.07
877.234	-38.23
877.407	-68.95
877.579	12.97
877.752	2.73
877.924	-5.46
878.097	76.46
878.269	-23.89
878.442	39.59
878.614	-30.04
878.786	78.51
878.959	10.92
879.131	-3.41
879.303	-50.52
879.476	25.26
879.648	23.21
879.82	45.74
879.993	17.07
880.165	21.16
880.337	53.93
880.509	19.11
880.681	12.97
880.854	51.88
881.026	29.35
881.198	17.07
881.37	-21.85
881.542	-46.42
881.714	-97.62
881.886	2.73
882.058	19.11
882.23	60.07
882.402	35.5
882.574	-13.65
882.746	82.6
882.918	51.88
883.09	21.16
883.262	-27.99
883.434	21.16
883.606	55.98
883.778	31.4
883.95	84.65
884.122	-50.52
884.293	72.36
884.465	15.02
884.637	94.89
884.809	62.12
884.98	60.07
885.152	111.27
885.324	88.75
885.496	27.31
885.667	60.07
885.839	-79.19
886.011	101.03
886.182	12.97
886.354	-1.37
886.525	92.84
886.697	78.51
886.869	-101.72
887.04	-19.8
887.212	10.92
887.383	43.69
887.555	23.21
887.726	19.11
887.897	84.65
888.069	-44.37
888.24	15.02
888.412	-54.61
888.583	27.31
888.754	43.69
888.926	-17.75
889.097	70.31
889.268	-83.28
889.44	111.27
889.611	23.21
889.782	10.92
889.953	35.5
890.125	92.84
890.296	-52.56
890.467	15.02
890.638	4.78
890.809	51.88
890.98	31.4
891.151	68.27
891.323	-19.8
891.494	-11.61
891.665	-38.23
891.836	-64.85
892.007	92.84
892.178	6.83
892.349	58.03
892.52	4.78
892.691	23.21
892.862	35.5
893.032	-71
893.203	-1.37
893.374	45.74
893.545	35.5
893.716	17.07
893.887	-5.46
894.057	27.31
894.228	-62.8
894.399	-36.18
894.57	86.7
894.74	35.5
894.911	-5.46
895.082	-5.46
895.253	31.4
895.423	51.88
895.594	84.65
895.764	25.26
895.935	35.5
896.106	45.74
896.276	23.21
896.447	-9.56
896.617	-21.85
896.788	-1.37
896.958	15.02
897.129	45.74
897.299	51.88
897.47	12.97
897.64	39.59
897.81	55.98
897.981	0.68
898.151	10.92
898.322	29.35
898.492	84.65
898.662	-30.04
898.832	2.73
899.003	25.26
899.173	6.83
899.343	68.27
899.513	27.31
