Data from USB4F104151__137__14-44-08-386.txt Node

Date: Thu Mar 13 14:44:08 EDT 2025
User: louis
Spectrometer: USB4F10415
Trigger mode: 4
Integration Time (sec): 2.000000E-2
Scans to average: 1
Electric dark correction enabled: true
Nonlinearity correction enabled: false
Boxcar width: 0
XAxis mode: Wavelengths
Number of Pixels in Spectrum: 3648
>>>>>Begin Spectral Data<<<<<
178.204	-149.84
178.424	-149.84
178.644	-149.84
178.864	-164.18
179.084	-12.63
179.304	1.71
179.524	9.9
179.744	-2.39
179.964	38.57
180.184	18.09
180.404	-31.06
180.624	-18.77
180.844	40.62
181.064	13.99
181.283	-37.2
181.503	-57.68
181.723	24.23
181.943	-14.68
182.163	34.47
182.383	38.57
182.602	48.81
182.822	22.19
183.042	26.28
183.262	7.85
183.482	89.77
183.701	48.81
183.921	-4.44
184.141	-2.39
184.361	34.47
184.58	34.47
184.8	87.72
185.02	30.38
185.239	-6.49
185.459	-10.58
185.679	93.87
185.898	7.85
186.118	79.53
186.338	3.75
186.557	108.2
186.777	-18.77
186.997	-8.53
187.216	18.09
187.436	42.67
187.655	71.34
187.875	54.95
188.095	28.33
188.314	-16.73
188.534	52.91
188.753	9.9
188.973	28.33
189.192	71.34
189.412	20.14
189.631	95.91
189.851	18.09
190.07	63.15
190.29	24.23
190.509	20.14
190.729	-10.58
190.948	13.99
191.168	108.2
191.387	18.09
191.607	1.71
191.826	11.95
192.045	-33.11
192.265	-14.68
192.484	5.8
192.704	-4.44
192.923	-18.77
193.142	20.14
193.362	22.19
193.581	46.76
193.8	50.86
194.02	9.9
194.239	26.28
194.458	79.53
194.678	34.47
194.897	91.82
195.116	112.3
195.335	79.53
195.555	24.23
195.774	34.47
195.993	59.05
196.212	38.57
196.432	1.71
196.651	-6.49
196.87	-41.3
197.089	95.91
197.308	46.76
197.528	61.1
197.747	-39.25
197.966	13.99
198.185	26.28
198.404	-10.58
198.623	57
198.842	104.11
199.062	95.91
199.281	13.99
199.5	-49.49
199.719	24.23
199.938	30.38
200.157	22.19
200.376	52.91
200.595	54.95
200.814	13.99
201.033	89.77
201.252	40.62
201.471	-10.58
201.69	9.9
201.909	48.81
202.128	-65.88
202.347	38.57
202.566	-0.34
202.785	-26.96
203.004	-6.49
203.223	63.15
203.442	65.19
203.661	30.38
203.879	57
204.098	30.38
204.317	9.9
204.536	65.19
204.755	-39.25
204.974	-14.68
205.193	75.43
205.411	118.44
205.63	26.28
205.849	1.71
206.068	-14.68
206.287	-16.73
206.505	50.86
206.724	-6.49
206.943	7.85
207.162	26.28
207.381	-10.58
207.599	-18.77
207.818	34.47
208.037	-10.58
208.255	30.38
208.474	-35.16
208.693	89.77
208.911	30.38
209.13	24.23
209.349	9.9
209.567	9.9
209.786	77.48
210.005	48.81
210.223	1.71
210.442	-72.02
210.661	63.15
210.879	30.38
211.098	-8.53
211.316	16.04
211.535	46.76
211.753	26.28
211.972	5.8
212.191	-33.11
212.409	-43.35
212.628	20.14
212.846	34.47
213.065	38.57
213.283	71.34
213.502	-131.41
213.72	38.57
213.938	40.62
214.157	-22.87
214.375	-31.06
214.594	-18.77
214.812	61.1
215.031	38.57
215.249	7.85
215.467	38.57
215.686	-18.77
215.904	9.9
216.122	40.62
216.341	-18.77
216.559	-33.11
216.778	52.91
216.996	-0.34
217.214	9.9
217.432	13.99
217.651	-10.58
217.869	-18.77
218.087	13.99
218.306	34.47
218.524	57
218.742	13.99
218.96	24.23
219.179	-33.11
219.397	40.62
219.615	65.19
219.833	-6.49
220.051	-51.54
220.27	26.28
220.488	138.92
220.706	24.23
220.924	-18.77
221.142	50.86
221.36	22.19
221.578	95.91
221.796	22.19
222.015	28.33
222.233	-18.77
222.451	81.58
222.669	-90.45
222.887	40.62
223.105	-18.77
223.323	46.76
223.541	32.43
223.759	91.82
223.977	26.28
224.195	57
224.413	57
224.631	75.43
224.849	46.76
225.067	7.85
225.285	16.04
225.503	50.86
225.721	-47.44
225.939	20.14
226.157	46.76
226.375	30.38
226.592	-10.58
226.81	7.85
227.028	34.47
227.246	97.96
227.464	-2.39
227.682	-2.39
227.9	42.67
228.117	9.9
228.335	32.43
228.553	-35.16
228.771	7.85
228.989	34.47
229.206	26.28
229.424	24.23
229.642	26.28
229.86	-14.68
230.077	63.15
230.295	-2.39
230.513	65.19
230.731	22.19
230.948	63.15
231.166	95.91
231.384	13.99
231.601	-12.63
231.819	71.34
232.037	11.95
232.254	22.19
232.472	13.99
232.689	104.11
232.907	-2.39
233.125	59.05
233.342	46.76
233.56	-22.87
233.777	9.9
233.995	30.38
234.213	18.09
234.43	1.71
234.648	20.14
234.865	-2.39
235.083	42.67
235.3	13.99
235.518	30.38
235.735	65.19
235.953	38.57
236.17	40.62
236.388	57
236.605	-14.68
236.822	-2.39
237.04	120.49
237.257	22.19
237.475	9.9
237.692	-10.58
237.909	-2.39
238.127	91.82
238.344	83.63
238.562	48.81
238.779	59.05
238.996	-57.68
239.214	18.09
239.431	120.49
239.648	13.99
239.865	-26.96
240.083	7.85
240.3	7.85
240.517	-35.16
240.735	-39.25
240.952	-76.12
241.169	54.95
241.386	22.19
241.603	24.23
241.821	-43.35
242.038	48.81
242.255	59.05
242.472	-18.77
242.689	57
242.907	54.95
243.124	40.62
243.341	48.81
243.558	-6.49
243.775	-22.87
243.992	-35.16
244.209	38.57
244.426	42.67
244.643	46.76
244.86	5.8
245.078	32.43
245.295	42.67
245.512	9.9
245.729	-4.44
245.946	63.15
246.163	22.19
246.38	34.47
246.597	-26.96
246.814	42.67
247.031	77.48
247.248	50.86
247.464	83.63
247.681	16.04
247.898	16.04
248.115	52.91
248.332	-35.16
248.549	26.28
248.766	87.72
248.983	16.04
249.2	20.14
249.417	54.95
249.633	40.62
249.85	30.38
250.067	-45.4
250.284	71.34
250.501	46.76
250.717	34.47
250.934	-63.83
251.151	22.19
251.368	46.76
251.585	61.1
251.801	9.9
252.018	-10.58
252.235	-16.73
252.451	24.23
252.668	3.75
252.885	63.15
253.102	71.34
253.318	-18.77
253.535	-18.77
253.752	9.9
253.968	48.81
254.185	11.95
254.401	63.15
254.618	26.28
254.835	-31.06
255.051	196.26
255.268	32.43
255.484	-26.96
255.701	11.95
255.917	61.1
256.134	-29.01
256.351	-2.39
256.567	-43.35
256.784	-20.82
257	7.85
257.217	85.67
257.433	59.05
257.65	59.05
257.866	63.15
258.082	16.04
258.299	54.95
258.515	9.9
258.732	-18.77
258.948	34.47
259.165	22.19
259.381	-51.54
259.597	-16.73
259.814	-18.77
260.03	-12.63
260.246	13.99
260.463	-18.77
260.679	30.38
260.895	5.8
261.112	63.15
261.328	13.99
261.544	9.9
261.761	5.8
261.977	22.19
262.193	-43.35
262.409	28.33
262.626	57
262.842	50.86
263.058	-6.49
263.274	95.91
263.49	36.52
263.707	-0.34
263.923	48.81
264.139	5.8
264.355	18.09
264.571	67.24
264.787	79.53
265.004	22.19
265.22	13.99
265.436	5.8
265.652	16.04
265.868	67.24
266.084	5.8
266.3	-2.39
266.516	63.15
266.732	-35.16
266.948	-10.58
267.164	104.11
267.38	-18.77
267.596	-20.82
267.812	87.72
268.028	48.81
268.244	-8.53
268.46	95.91
268.676	-26.96
268.892	40.62
269.108	-2.39
269.324	-8.53
269.54	5.8
269.756	-26.96
269.972	9.9
270.188	-37.2
270.403	48.81
270.619	-84.31
270.835	18.09
271.051	-18.77
271.267	65.19
271.483	-14.68
271.698	71.34
271.914	9.9
272.13	-43.35
272.346	-16.73
272.562	32.43
272.777	91.82
272.993	59.05
273.209	-22.87
273.425	38.57
273.64	26.28
273.856	71.34
274.072	-16.73
274.287	11.95
274.503	24.23
274.719	46.76
274.934	26.28
275.15	-16.73
275.366	13.99
275.581	11.95
275.797	44.71
276.012	87.72
276.228	63.15
276.444	-0.34
276.659	54.95
276.875	106.15
277.09	-43.35
277.306	-2.39
277.521	57
277.737	3.75
277.952	5.8
278.168	-2.39
278.383	34.47
278.599	28.33
278.814	104.11
279.03	16.04
279.245	54.95
279.461	22.19
279.676	11.95
279.892	18.09
280.107	-0.34
280.322	22.19
280.538	13.99
280.753	57
280.969	50.86
281.184	54.95
281.399	63.15
281.615	18.09
281.83	67.24
282.045	16.04
282.26	73.39
282.476	30.38
282.691	42.67
282.906	87.72
283.122	71.34
283.337	3.75
283.552	13.99
283.767	-43.35
283.983	36.52
284.198	-10.58
284.413	67.24
284.628	-10.58
284.843	-4.44
285.058	24.23
285.274	1.71
285.489	-69.97
285.704	16.04
285.919	-18.77
286.134	30.38
286.349	-20.82
286.564	5.8
286.779	-2.39
286.995	83.63
287.21	38.57
287.425	97.96
287.64	5.8
287.855	16.04
288.07	-35.16
288.285	71.34
288.5	-16.73
288.715	38.57
288.93	-35.16
289.145	59.05
289.36	-18.77
289.575	71.34
289.79	38.57
290.004	38.57
290.219	46.76
290.434	-10.58
290.649	83.63
290.864	5.8
291.079	52.91
291.294	46.76
291.509	24.23
291.724	5.8
291.938	22.19
292.153	95.91
292.368	-35.16
292.583	5.8
292.798	30.38
293.012	13.99
293.227	87.72
293.442	-2.39
293.657	1.71
293.871	73.39
294.086	65.19
294.301	81.58
294.516	5.8
294.73	106.15
294.945	42.67
295.16	44.71
295.374	22.19
295.589	3.75
295.804	7.85
296.018	5.8
296.233	-43.35
296.447	36.52
296.662	-18.77
296.877	120.49
297.091	48.81
297.306	-0.34
297.52	20.14
297.735	-84.31
297.949	46.76
298.164	46.76
298.378	-26.96
298.593	-43.35
298.807	34.47
299.022	83.63
299.236	132.78
299.451	30.38
299.665	-18.77
299.88	48.81
300.094	9.9
300.309	18.09
300.523	77.48
300.737	-24.92
300.952	-12.63
301.166	13.99
301.381	-2.39
301.595	13.99
301.809	-0.34
302.024	22.19
302.238	-6.49
302.452	48.81
302.667	-2.39
302.881	120.49
303.095	38.57
303.309	-57.68
303.524	38.57
303.738	9.9
303.952	7.85
304.166	65.19
304.381	1.71
304.595	145.06
304.809	54.95
305.023	-24.92
305.237	34.47
305.452	-41.3
305.666	114.34
305.88	11.95
306.094	26.28
306.308	24.23
306.522	67.24
306.736	-35.16
306.95	79.53
307.164	40.62
307.379	28.33
307.593	75.43
307.807	40.62
308.021	42.67
308.235	7.85
308.449	13.99
308.663	-18.77
308.877	132.78
309.091	-0.34
309.305	89.77
309.519	-37.2
309.733	112.3
309.947	16.04
310.161	46.76
310.374	34.47
310.588	26.28
310.802	79.53
311.016	30.38
311.23	-14.68
311.444	38.57
311.658	-35.16
311.872	38.57
312.085	71.34
312.299	95.91
312.513	20.14
312.727	46.76
312.941	-33.11
313.154	-2.39
313.368	36.52
313.582	26.28
313.796	40.62
314.009	38.57
314.223	22.19
314.437	67.24
314.651	54.95
314.864	44.71
315.078	-24.92
315.292	-74.07
315.505	16.04
315.719	-14.68
315.933	24.23
316.146	95.91
316.36	22.19
316.573	50.86
316.787	83.63
317.001	83.63
317.214	1.71
317.428	-18.77
317.641	59.05
317.855	30.38
318.068	1.71
318.282	24.23
318.495	57
318.709	30.38
318.922	44.71
319.136	97.96
319.349	38.57
319.563	-4.44
319.776	67.24
319.99	83.63
320.203	46.76
320.417	38.57
320.63	69.29
320.843	100.01
321.057	77.48
321.27	65.19
321.483	77.48
321.697	93.87
321.91	28.33
322.124	-39.25
322.337	54.95
322.55	36.52
322.763	22.19
322.977	63.15
323.19	42.67
323.403	67.24
323.617	63.15
323.83	5.8
324.043	-39.25
324.256	-24.92
324.469	26.28
324.683	-31.06
324.896	-6.49
325.109	93.87
325.322	-31.06
325.535	-14.68
325.748	28.33
325.962	65.19
326.175	-41.3
326.388	38.57
326.601	20.14
326.814	106.15
327.027	38.57
327.24	106.15
327.453	7.85
327.666	-35.16
327.879	48.81
328.092	50.86
328.305	-72.02
328.518	26.28
328.731	30.38
328.944	91.82
329.157	-4.44
329.37	-22.87
329.583	59.05
329.796	93.87
330.009	-2.39
330.222	95.91
330.435	32.43
330.648	71.34
330.861	93.87
331.073	46.76
331.286	5.8
331.499	26.28
331.712	-20.82
331.925	-22.87
332.138	69.29
332.35	65.19
332.563	36.52
332.776	112.3
332.989	24.23
333.202	-35.16
333.414	-0.34
333.627	16.04
333.84	1.71
334.053	1.71
334.265	79.53
334.478	7.85
334.691	9.9
334.903	26.28
335.116	-18.77
335.329	46.76
335.541	63.15
335.754	36.52
335.966	26.28
336.179	50.86
336.392	52.91
336.604	63.15
336.817	38.57
337.029	83.63
337.242	7.85
337.454	16.04
337.667	-0.34
337.88	91.82
338.092	63.15
338.305	79.53
338.517	59.05
338.729	9.9
338.942	108.2
339.154	44.71
339.367	-35.16
339.579	34.47
339.792	-4.44
340.004	65.19
340.217	40.62
340.429	63.15
340.641	46.76
340.854	7.85
341.066	-8.53
341.278	1.71
341.491	54.95
341.703	13.99
341.915	42.67
342.128	83.63
342.34	-2.39
342.552	5.8
342.764	22.19
342.977	77.48
343.189	30.38
343.401	122.54
343.613	46.76
343.826	95.91
344.038	28.33
344.25	120.49
344.462	-18.77
344.674	79.53
344.886	1.71
345.099	69.29
345.311	87.72
345.523	42.67
345.735	34.47
345.947	-8.53
346.159	3.75
346.371	57
346.583	93.87
346.795	52.91
347.007	-14.68
347.219	61.1
347.431	13.99
347.643	81.58
347.855	5.8
348.067	77.48
348.279	20.14
348.491	57
348.703	-6.49
348.915	32.43
349.127	-26.96
349.339	54.95
349.551	-8.53
349.763	112.3
349.975	22.19
350.187	48.81
350.399	65.19
350.61	32.43
350.822	83.63
351.034	34.47
351.246	81.58
351.458	112.3
351.669	38.57
351.881	61.1
352.093	24.23
352.305	114.34
352.517	71.34
352.728	153.26
352.94	52.91
353.152	81.58
353.363	-76.12
353.575	-6.49
353.787	3.75
353.999	69.29
354.21	106.15
354.422	63.15
354.633	65.19
354.845	71.34
355.057	40.62
355.268	63.15
355.48	54.95
355.692	-10.58
355.903	128.68
356.115	34.47
356.326	-18.77
356.538	34.47
356.749	34.47
356.961	81.58
357.172	32.43
357.384	22.19
357.595	157.35
357.807	11.95
358.018	5.8
358.23	26.28
358.441	38.57
358.653	54.95
358.864	63.15
359.075	-33.11
359.287	-29.01
359.498	-20.82
359.709	-22.87
359.921	83.63
360.132	38.57
360.344	26.28
360.555	-49.49
360.766	69.29
360.977	5.8
361.189	87.72
361.4	-35.16
361.611	46.76
361.823	67.24
362.034	91.82
362.245	-76.12
362.456	79.53
362.667	16.04
362.879	18.09
363.09	-26.96
363.301	13.99
363.512	114.34
363.723	3.75
363.935	63.15
364.146	54.95
364.357	71.34
364.568	-6.49
364.779	-2.39
364.99	7.85
365.201	28.33
365.412	63.15
365.623	-2.39
365.834	11.95
366.045	44.71
366.256	124.58
366.467	79.53
366.678	-16.73
366.889	7.85
367.1	13.99
367.311	124.58
367.522	34.47
367.733	42.67
367.944	30.38
368.155	77.48
368.366	1.71
368.577	79.53
368.788	104.11
368.999	-72.02
369.209	77.48
369.42	147.11
369.631	163.5
369.842	38.57
370.053	-0.34
370.264	54.95
370.474	54.95
370.685	32.43
370.896	-35.16
371.107	13.99
371.317	34.47
371.528	7.85
371.739	59.05
371.95	75.43
372.16	87.72
372.371	-8.53
372.582	-31.06
372.792	75.43
373.003	44.71
373.214	79.53
373.424	54.95
373.635	18.09
373.846	104.11
374.056	50.86
374.267	-8.53
374.477	54.95
374.688	30.38
374.898	1.71
375.109	34.47
375.319	79.53
375.53	73.39
375.74	34.47
375.951	-20.82
376.161	22.19
376.372	34.47
376.582	24.23
376.793	-0.34
377.003	63.15
377.214	30.38
377.424	120.49
377.635	-12.63
377.845	-22.87
378.055	24.23
378.266	5.8
378.476	61.1
378.686	34.47
378.897	104.11
379.107	38.57
379.317	22.19
379.528	38.57
379.738	65.19
379.948	42.67
380.158	30.38
380.369	42.67
380.579	24.23
380.789	95.91
380.999	40.62
381.21	26.28
381.42	126.63
381.63	46.76
381.84	-16.73
382.05	59.05
382.261	48.81
382.471	46.76
382.681	5.8
382.891	52.91
383.101	65.19
383.311	46.76
383.521	112.3
383.731	40.62
383.941	71.34
384.151	-31.06
384.361	-6.49
384.571	48.81
384.781	-31.06
384.991	22.19
385.201	128.68
385.411	81.58
385.621	30.38
385.831	34.47
386.041	87.72
386.251	1.71
386.461	65.19
386.671	48.81
386.881	24.23
387.091	1.71
387.301	79.53
387.511	97.96
387.72	89.77
387.93	-39.25
388.14	97.96
388.35	54.95
388.56	69.29
388.769	69.29
388.979	-24.92
389.189	-33.11
389.399	30.38
389.609	67.24
389.818	38.57
390.028	104.11
390.238	81.58
390.447	26.28
390.657	50.86
390.867	59.05
391.076	24.23
391.286	79.53
391.496	104.11
391.705	50.86
391.915	71.34
392.125	50.86
392.334	54.95
392.544	20.14
392.753	57
392.963	24.23
393.172	89.77
393.382	65.19
393.591	120.49
393.801	93.87
394.01	155.3
394.22	87.72
394.429	71.34
394.639	-6.49
394.848	63.15
395.058	81.58
395.267	63.15
395.477	163.5
395.686	163.5
395.895	75.43
396.105	153.26
396.314	34.47
396.524	22.19
396.733	87.72
396.942	122.54
397.152	28.33
397.361	106.15
397.57	42.67
397.78	100.01
397.989	120.49
398.198	186.02
398.407	36.52
398.617	81.58
398.826	73.39
399.035	102.06
399.244	136.87
399.453	100.01
399.663	63.15
399.872	153.26
400.081	-16.73
400.29	128.68
400.499	54.95
400.708	79.53
400.917	26.28
401.127	147.11
401.336	71.34
401.545	138.92
401.754	128.68
401.963	153.26
402.172	54.95
402.381	102.06
402.59	81.58
402.799	112.3
403.008	145.06
403.217	73.39
403.426	81.58
403.635	89.77
403.844	54.95
404.053	79.53
404.262	69.29
404.471	204.46
404.68	177.83
404.888	126.63
405.097	165.54
405.306	79.53
405.515	81.58
405.724	169.64
405.933	65.19
406.142	108.2
406.35	147.11
406.559	104.11
406.768	116.39
406.977	226.98
407.185	153.26
407.394	157.35
407.603	229.03
407.812	196.26
408.02	226.98
408.229	186.02
408.438	222.89
408.646	251.56
408.855	243.37
409.064	216.74
409.272	165.54
409.481	267.94
409.69	171.69
409.898	278.18
410.107	214.7
410.315	259.75
410.524	280.23
410.733	247.46
410.941	290.47
411.15	333.48
411.358	292.52
411.567	366.25
411.775	343.72
411.984	317.09
412.192	374.44
412.401	435.88
412.609	448.16
412.818	427.68
413.026	513.7
413.234	376.48
413.443	450.21
413.651	489.12
413.86	458.4
414.068	612
414.276	546.47
414.485	554.66
414.693	552.61
414.901	605.86
415.11	663.2
415.318	661.15
415.526	579.23
415.734	638.62
415.943	728.74
416.151	749.22
416.359	685.73
416.567	726.69
416.776	771.74
416.984	923.29
417.192	870.05
417.4	800.41
417.608	851.61
417.817	890.53
418.025	1013.4
418.233	1009.31
418.441	1003.16
418.649	988.83
418.857	1107.61
419.065	1185.43
419.273	1218.2
419.481	1222.3
419.689	1169.05
419.897	1359.51
420.105	1326.74
420.313	1308.31
420.521	1402.52
420.729	1472.15
420.937	1480.34
421.145	1515.16
421.353	1644.18
421.561	1588.88
421.769	1668.75
421.977	1719.95
422.185	1795.73
422.393	1791.63
422.601	1961.61
422.809	1939.09
423.017	1939.09
423.224	2168.46
423.432	2145.93
423.64	2250.38
423.848	2330.25
424.056	2170.51
424.263	2506.37
424.471	2442.89
424.679	2469.51
424.887	2569.86
425.094	2772.61
425.302	2694.79
425.51	2864.77
425.718	2924.16
425.925	2961.02
426.133	3102.33
426.341	3159.67
426.548	3260.02
426.756	3364.47
426.964	3423.86
427.171	3618.42
427.379	3780.21
427.586	3794.54
427.794	3845.74
428.001	3960.43
428.209	4308.58
428.417	4193.9
428.624	4464.23
428.832	4572.77
429.039	4437.61
429.247	4472.42
429.454	4814.43
429.662	5056.09
429.869	4847.2
430.076	5305.95
430.284	5160.54
430.491	5269.08
430.699	5551.7
430.906	5604.95
431.114	5590.61
431.321	5832.27
431.528	6057.55
431.736	6162
431.943	6407.75
432.15	6538.82
432.358	6641.22
432.565	6794.82
432.772	6725.19
432.979	7315
433.187	7460.41
433.394	7149.12
433.601	7632.44
433.808	7657.01
434.016	7689.78
434.223	8228.4
434.43	8660.52
434.637	8515.11
434.844	8943.14
435.052	8988.19
435.259	9209.37
435.466	9258.53
435.673	9037.34
435.88	9809.43
436.087	10106.38
436.294	10202.64
436.501	9764.37
436.708	10010.13
436.915	10397.2
437.122	10665.48
437.329	10827.27
437.537	11251.2
437.743	11439.61
437.95	11314.69
438.157	12000.76
438.364	12367.34
438.571	12203.5
438.778	12295.66
438.985	13655.51
439.192	12916.2
439.399	13401.57
439.606	12879.33
439.813	13882.84
440.02	14702.03
440.227	14263.76
440.433	14159.31
440.64	14775.75
440.847	14511.57
441.054	14783.95
441.261	15801.79
441.467	15926.71
441.674	16041.4
441.881	16752.04
442.088	16471.47
442.294	16291.25
442.501	16870.83
442.708	17089.96
442.914	17964.44
443.121	18648.46
443.328	18046.36
443.534	19379.59
443.741	18810.25
443.948	18644.37
444.154	19910.01
444.361	19774.84
444.568	19860.86
444.774	19731.84
444.981	20223.35
445.187	20788.59
445.394	21611.87
445.6	21249.38
445.807	23379.27
446.013	22271.32
446.22	22811.98
446.426	23475.52
446.633	23756.1
446.839	24655.15
447.046	23883.07
447.252	24919.34
447.459	24874.29
447.665	24888.62
447.871	25924.9
448.078	26854.67
448.284	25978.14
448.491	26658.07
448.697	27542.79
448.903	28151.04
449.11	28216.57
449.316	27772.16
449.522	27892.99
449.728	29046
449.935	29304.04
450.141	29146.35
450.347	29822.18
450.553	28853.49
450.76	29191.41
450.966	30291.16
451.172	29629.67
451.378	30354.65
451.584	30211.29
451.791	30620.89
451.997	30561.5
452.203	31608.01
452.409	31270.09
452.615	30819.54
452.821	29768.93
453.027	29549.8
453.233	31214.8
453.44	29932.77
453.646	30448.86
453.852	30305.5
454.058	31290.57
454.264	29648.1
454.47	30715.09
454.676	29938.91
454.882	30641.37
455.088	28222.72
455.294	28767.48
455.5	29132.01
455.705	29656.29
455.911	27979.01
456.117	28253.44
456.323	27690.24
456.529	26000.67
456.735	27337.99
456.941	26592.53
457.147	26377.5
457.352	25660.71
457.558	25337.13
457.764	24976.69
457.97	24884.53
458.176	24360.25
458.381	24106.3
458.587	23133.51
458.793	23055.69
458.999	21802.33
459.204	23641.41
459.41	22953.29
459.616	21202.28
459.821	21175.66
460.027	21392.74
460.233	20739.44
460.438	19813.76
460.644	20018.55
460.85	19232.13
461.055	18611.6
461.261	18703.76
461.466	17317.28
461.672	16821.67
461.878	17888.67
462.083	16971.18
462.289	16391.6
462.494	16315.83
462.7	15797.69
462.905	15254.98
463.111	16004.53
463.316	15852.98
463.522	15447.49
463.727	15410.62
463.932	15590.84
464.138	15510.97
464.343	15386.05
464.549	15072.71
464.754	15566.27
464.959	15099.33
465.165	15023.56
465.37	14546.38
465.575	14280.14
465.781	14689.74
465.986	14796.23
466.191	14065.11
466.397	13977.05
466.602	13553.12
466.807	13661.66
467.012	13759.96
467.218	13532.64
467.423	13475.29
467.628	13524.44
467.833	14163.41
468.038	13757.91
468.244	13237.73
468.449	13690.33
468.654	13174.24
468.859	13342.18
469.064	13207.01
469.269	12750.31
469.474	12781.03
469.679	13104.61
469.885	12416.49
470.09	12785.13
470.295	12703.21
470.5	12695.02
470.705	12549.61
470.91	12475.88
471.115	12084.72
471.32	12332.53
471.525	12205.55
471.73	11820.53
471.935	11781.62
472.139	11595.26
472.344	11625.98
472.549	11615.74
472.754	11419.13
472.959	11318.78
473.164	10915.33
473.369	10917.38
473.574	11271.68
473.778	11048.45
473.983	10835.46
474.188	10970.63
474.393	10452.49
474.598	10698.25
474.802	10427.92
475.007	10606.09
475.212	10442.25
475.417	10010.13
475.621	9965.07
475.826	10157.58
476.031	9956.88
476.235	9733.65
476.44	10180.11
476.645	9485.85
476.849	9733.65
477.054	9287.2
477.259	9231.9
477.463	9518.62
477.668	9190.94
477.872	9448.99
478.077	9147.94
478.282	8941.09
478.486	8818.21
478.691	8949.28
478.895	8713.77
479.1	8771.11
479.304	8814.12
479.509	8603.18
479.713	8599.08
479.918	8408.62
480.122	8212.01
480.326	8379.95
480.531	8461.87
480.735	8197.68
480.94	8316.46
481.144	8597.03
481.348	8148.53
481.553	8191.53
481.757	8005.17
481.961	8238.64
482.166	8261.16
482.37	8154.67
482.574	7814.71
482.778	7915.06
482.983	8173.1
483.187	7994.93
483.391	8193.58
483.595	8042.03
483.8	8019.5
484.004	8031.79
484.208	8015.41
484.412	8060.46
484.616	8126
484.821	8046.13
485.025	7882.29
485.229	8078.9
485.433	7917.11
485.637	7947.83
485.841	8187.44
486.045	7933.49
486.249	7956.02
486.453	7896.63
486.657	8046.13
486.861	7837.24
487.065	7790.13
487.269	7943.73
487.473	7837.24
487.677	8115.76
487.881	8009.26
488.085	8091.18
488.289	8066.61
488.493	7988.78
488.697	8095.28
488.901	8001.07
489.105	8166.96
489.309	8013.36
489.512	8322.6
489.716	8263.21
489.92	8144.43
490.124	8156.72
490.328	8257.07
490.531	8111.66
490.735	8285.74
490.939	8345.13
491.143	8099.38
491.346	8226.35
491.55	8418.86
491.754	8279.6
491.958	8562.22
492.161	8242.73
492.365	8341.04
492.569	8420.91
492.772	8295.98
492.976	8377.9
493.18	8377.9
493.383	8603.18
493.587	8838.69
493.79	8953.38
493.994	8681
494.197	8748.58
494.401	8918.56
494.605	8705.57
494.808	8926.75
495.012	9172.51
495.215	9037.34
495.419	8990.24
495.622	9238.05
495.825	9215.52
496.029	9313.82
496.232	9360.92
496.436	9442.84
496.639	9594.39
496.843	9606.68
497.046	9594.39
497.249	9856.53
497.453	10008.08
497.656	9899.54
497.859	9877.01
498.063	10155.54
498.266	10122.77
498.469	10214.93
498.673	10337.8
498.876	10579.47
499.079	10769.93
499.282	10728.97
499.485	10968.58
499.689	10946.05
499.892	11122.18
500.095	11118.08
500.298	11501.05
500.501	11214.34
500.705	11400.7
500.908	11793.91
501.111	11910.64
501.314	11910.64
501.517	11861.49
501.72	12228.08
501.923	12344.81
502.126	12320.24
502.329	12606.95
502.532	12592.62
502.735	12852.71
502.938	13114.85
503.141	13137.38
503.344	13405.66
503.547	13297.12
503.75	13514.2
503.953	13766.1
504.156	13694.43
504.359	14083.54
504.562	13860.31
504.765	14497.23
504.968	14292.43
505.17	14720.46
505.373	14562.76
505.576	15013.32
505.779	15185.35
505.982	15441.34
506.185	15431.1
506.387	15553.98
506.59	15709.63
506.793	16156.08
506.996	15668.67
507.198	16278.96
507.401	16246.19
507.604	16506.29
507.807	16487.86
508.009	16919.98
508.212	16936.36
508.415	17315.23
508.617	17413.54
508.82	17595.81
509.022	17413.54
509.225	17845.66
509.428	18113.94
509.63	18265.49
509.833	18005.4
510.035	18724.24
510.238	18593.17
510.44	18826.64
510.643	19031.43
510.845	19477.89
511.048	19355.01
511.25	19449.22
511.453	19682.69
511.655	20356.47
511.858	20034.94
512.06	20256.12
512.262	20495.73
512.465	20360.56
512.667	20940.14
512.87	21120.36
513.072	21118.31
513.274	21501.28
513.477	21620.06
513.679	21949.79
513.881	22093.15
514.084	22179.16
514.286	22115.67
514.488	22502.74
514.69	22875.47
514.893	23350.6
515.095	23373.13
515.297	23338.31
515.499	23737.66
515.701	23975.23
515.904	23993.66
516.106	24511.8
516.308	24415.54
516.51	24991.02
516.712	24710.45
516.914	25449.77
517.116	25609.51
517.318	25359.66
517.52	25830.69
517.722	25826.59
517.925	25984.29
518.127	26150.17
518.329	26916.11
518.531	26666.26
518.733	27155.72
518.935	27575.56
519.136	27669.76
519.338	27462.92
519.54	27884.8
519.742	28167.42
519.944	28390.65
520.146	28615.93
520.348	28859.63
520.55	28898.55
520.752	29246.7
520.954	29764.84
521.155	29222.12
521.357	29988.07
521.559	30555.35
521.761	30405.85
521.963	30577.88
522.164	30891.22
522.366	30622.94
522.568	31128.78
522.77	31478.99
522.971	31718.6
523.173	31763.65
523.375	31562.95
523.576	31945.92
523.778	31665.35
523.98	32738.49
524.181	32396.48
524.383	32330.94
524.584	33252.53
524.786	32732.34
524.988	32707.77
525.189	33567.91
525.391	33592.49
525.592	33969.32
525.794	33909.93
525.995	34180.26
526.197	34028.71
526.398	34217.12
526.6	34223.26
526.801	34604.19
527.003	34698.39
527.204	34745.5
527.406	34643.1
527.607	34722.97
527.808	35312.78
528.01	34475.16
528.211	35261.58
528.412	35701.9
528.614	35466.38
528.815	35427.47
529.016	35687.56
529.218	35480.72
529.419	35630.22
529.62	36035.72
529.822	35576.97
530.023	36154.5
530.224	35773.58
530.425	36082.82
530.626	35568.78
530.828	35671.18
531.029	36656.25
531.23	35990.66
531.431	36476.03
531.632	36473.98
531.833	36551.8
532.035	36373.63
532.236	36504.7
532.437	36795.51
532.638	36365.44
532.839	36795.51
533.04	36787.32
533.241	36342.91
533.442	37098.61
533.643	36910.2
533.844	36691.07
534.045	36924.54
534.246	36295.81
534.447	36709.5
534.648	36781.18
534.849	36922.49
535.05	36885.62
535.251	36621.44
535.451	36639.87
535.652	36965.49
535.853	36557.95
536.054	36899.96
536.255	36979.83
536.456	36439.17
536.657	37100.66
536.857	36703.35
537.058	36367.49
537.259	37061.75
537.46	36633.72
537.66	36531.33
537.861	36807.8
538.062	36512.89
538.263	36996.21
538.463	36265.09
538.664	36912.25
538.865	36588.67
539.065	37508.21
539.266	36220.03
539.466	37067.89
539.667	36332.67
539.868	36877.43
540.068	36701.31
540.269	37014.65
540.469	36785.27
540.67	37045.37
540.87	36590.72
541.071	36709.5
541.271	36938.87
541.472	36697.21
541.672	36471.93
541.873	36248.71
542.073	36316.29
542.274	36756.6
542.474	36535.42
542.675	36433.02
542.875	36914.3
543.075	36529.28
543.276	36332.67
543.476	36875.38
543.676	36553.85
543.877	36621.44
544.077	36623.48
544.277	36293.76
544.478	36162.69
544.678	36670.59
544.878	36250.75
545.078	36670.59
545.279	36152.45
545.479	36209.79
545.679	36531.33
545.879	36248.71
546.079	36412.54
546.28	36101.25
546.48	36195.46
546.68	36428.93
546.88	36260.99
547.08	36742.27
547.28	36240.51
547.48	36029.57
547.68	36383.87
547.88	35900.55
548.081	36361.34
548.281	36152.45
548.481	36060.29
548.681	36410.5
548.881	36093.06
549.081	36314.24
549.28	36236.42
549.48	36441.21
549.68	36127.88
549.88	36549.76
550.08	35708.04
550.28	35894.41
550.48	36336.77
550.68	36781.18
550.88	35931.27
551.08	36174.98
551.279	36220.03
551.479	35728.52
551.679	36197.51
551.879	35779.72
552.079	36152.45
552.278	36025.48
552.478	35998.85
552.678	35849.35
552.878	36095.11
553.077	36019.33
553.277	35810.44
553.477	35972.23
553.676	35751.05
553.876	35867.78
554.076	35929.22
554.275	35697.8
554.475	35337.36
554.674	35732.62
554.874	35892.36
555.074	35288.21
555.273	35841.16
555.473	36086.92
555.672	35320.98
555.872	35466.38
556.071	35103.89
556.271	35884.17
556.47	35253.39
556.67	35243.15
556.869	35341.46
557.068	35511.44
557.268	34765.98
557.467	35431.57
557.667	35194
557.866	35038.36
558.065	35087.51
558.265	34757.78
558.464	34618.52
558.663	35335.31
558.863	34663.58
559.062	35218.58
559.261	34720.92
559.461	35220.63
559.66	34589.85
559.859	34727.06
560.058	34647.19
560.258	34839.7
560.457	34174.11
560.656	34899.09
560.855	34348.19
561.054	34710.68
561.253	34423.97
561.453	34491.55
561.652	34282.66
561.851	34456.73
562.05	34337.95
562.249	33842.34
562.448	34325.66
562.647	34133.15
562.846	34249.89
563.045	33911.97
563.244	33729.7
563.443	34524.32
563.642	33488.04
563.841	33459.37
564.04	33537.19
564.239	33662.12
564.438	33227.95
564.637	33635.5
564.836	33344.69
565.035	33326.25
565.234	33741.99
565.432	33379.5
565.631	33168.56
565.83	33129.65
566.029	33133.75
566.228	32898.23
566.427	32658.62
566.625	32335.04
566.824	32533.69
567.023	32953.52
567.222	32543.93
567.42	32861.37
567.619	32468.16
567.818	32285.89
568.016	32232.64
568.215	32525.5
568.414	32230.59
568.612	32287.93
568.811	31876.29
569.01	32466.11
569.208	31495.37
569.407	32001.22
569.605	31640.78
569.804	31612.1
570.002	31241.42
570.201	31790.28
570.4	31376.59
570.598	31241.42
570.797	31470.79
570.995	31282.38
571.193	31161.55
571.392	31589.58
571.59	30934.23
571.789	31116.5
571.987	31218.89
572.186	30737.62
572.384	30657.75
572.582	30923.99
572.781	30975.19
572.979	30510.3
573.177	30618.84
573.376	30655.7
573.574	30264.54
573.772	30772.44
573.971	30059.74
574.169	29869.28
574.367	29934.82
574.565	30045.41
574.763	29971.68
574.962	29553.9
575.16	29318.38
575.358	29637.86
575.556	29037.81
575.754	29783.27
575.952	29381.87
576.151	29641.96
576.349	28982.51
576.547	29168.88
576.745	29164.78
576.943	29318.38
577.141	29107.44
577.339	28910.83
577.537	28939.51
577.735	28734.71
577.933	28712.18
578.131	28660.98
578.329	28894.45
578.527	28591.35
578.725	28476.66
578.923	28677.37
579.121	28456.18
579.319	28304.63
579.516	28339.45
579.714	28341.5
579.912	28204.28
580.11	27890.95
580.308	27817.22
580.506	27768.07
580.704	27333.9
580.901	27860.23
581.099	28019.97
581.297	27583.75
581.495	27440.39
581.692	27532.55
581.89	27045.13
582.088	27198.73
582.285	27219.21
582.483	27616.52
582.681	27342.09
582.878	26936.59
583.076	27145.48
583.274	27014.41
583.471	26467.61
583.669	26778.9
583.866	26434.84
584.064	26440.98
584.262	26432.79
584.459	26725.65
584.657	26508.57
584.854	26782.99
585.052	26180.89
585.249	26275.1
585.447	26287.39
585.644	25584.93
585.841	26141.98
586.039	26268.95
586.236	25509.16
586.434	25746.72
586.631	25791.78
586.828	25417
587.026	25355.56
587.223	25451.81
587.42	25441.57
587.618	25257.26
587.815	25234.73
588.012	25130.28
588.21	25179.43
588.407	25271.59
588.604	24638.77
588.801	24765.74
588.999	24870.19
589.196	24671.54
589.393	24595.76
589.59	24634.67
589.787	24599.86
589.984	24499.51
590.182	24452.41
590.379	24352.06
590.576	24169.79
590.773	24255.8
590.97	23960.89
591.167	24143.16
591.364	23895.36
591.561	24077.63
591.758	24065.34
591.955	23788.86
592.152	23756.1
592.349	23485.76
592.546	23795.01
592.743	23881.02
592.94	23276.87
593.137	23715.14
593.334	23610.69
593.531	23160.14
593.727	23350.6
593.924	23356.74
594.121	22965.58
594.318	22938.96
594.515	22785.36
594.712	22895.95
594.908	22984.01
595.105	22642
595.302	22512.98
595.499	22621.52
595.696	22631.76
595.892	22691.15
596.089	22535.51
596.286	22318.42
596.482	22488.4
596.679	22197.59
596.876	22254.94
597.072	22144.34
597.269	21976.41
597.466	21857.63
597.662	21687.65
597.859	21910.88
598.055	21857.63
598.252	21417.32
598.448	21755.23
598.645	21308.77
598.841	21529.95
599.038	21282.15
599.234	21341.54
599.431	21456.23
599.627	20825.45
599.824	21337.45
600.02	21126.5
600.217	21052.78
600.413	20876.65
600.609	21204.33
600.806	21026.15
601.002	21048.68
601.198	20811.12
601.395	20596.08
601.591	20458.87
601.787	20374.9
601.984	20544.88
602.18	20751.73
602.376	20401.52
602.572	20133.24
602.769	20419.96
602.965	20065.66
603.161	20237.69
603.357	20161.91
603.553	19875.2
603.75	20118.9
603.946	19844.48
604.142	20163.96
604.338	19453.31
604.534	19811.71
604.73	19625.34
604.926	19357.06
605.122	19522.94
605.318	19377.54
605.514	19275.14
605.71	19236.23
605.906	19150.21
606.102	19056.01
606.298	19326.34
606.494	19266.95
606.69	19015.05
606.886	19103.11
607.082	18937.23
607.278	19031.43
607.474	18816.4
607.67	18883.98
607.866	18550.16
608.062	18972.04
608.257	18544.02
608.453	18908.55
608.649	18898.31
608.845	18576.78
609.041	18503.06
609.236	18507.15
609.432	18527.63
609.628	18554.26
609.824	18503.06
610.019	18537.87
610.215	18261.4
610.411	18349.46
610.606	18140.57
610.802	18365.84
610.998	18093.46
611.193	18267.54
611.389	18089.37
611.584	18132.37
611.78	18132.37
611.976	17905.05
612.171	17950.1
612.367	18072.98
612.562	17589.66
612.758	17575.33
612.953	17663.39
613.149	17812.89
613.344	17601.95
613.539	18036.12
613.735	17554.85
613.93	17540.51
614.126	17450.4
614.321	17634.72
614.517	17669.53
614.712	17452.45
614.907	17266.08
615.103	17444.26
615.298	17401.25
615.493	17620.38
615.688	16905.64
615.884	17456.54
616.079	17192.36
616.274	17184.16
616.47	16874.92
616.665	17280.42
616.86	17194.4
617.055	17077.67
617.25	16913.83
617.445	17114.53
617.641	16864.68
617.836	16872.87
618.031	16709.04
618.226	17001.9
618.421	16688.56
618.616	16895.4
618.811	16418.22
619.006	16909.74
619.201	16360.88
619.396	16700.84
619.591	16203.19
619.786	16416.18
619.981	15875.51
620.176	16285.11
620.371	15928.76
620.566	16119.22
620.761	16033.21
620.956	16223.67
621.151	16004.53
621.346	15957.43
621.541	15750.59
621.735	15734.2
621.93	15594.94
622.125	15349.18
622.32	15177.16
622.515	15207.87
622.709	15093.19
622.904	14876.1
623.099	15412.67
623.294	15105.48
623.488	15011.27
623.683	15015.37
623.878	14595.53
624.072	14607.82
624.267	14667.21
624.462	14458.32
624.656	14411.21
624.851	14671.31
625.046	14513.61
625.24	14095.83
625.435	14001.62
625.629	14112.21
625.824	14224.85
626.018	14204.37
626.213	13751.77
626.407	13882.84
626.602	13725.15
626.796	13655.51
626.991	13667.8
627.185	13551.07
627.38	13477.34
627.574	13483.48
627.768	13460.96
627.963	13424.09
628.157	12967.4
628.352	13274.59
628.546	12711.4
628.74	13094.37
628.935	12883.43
629.129	12983.78
629.323	12772.84
629.517	12604.91
629.712	12768.74
629.906	12496.36
630.1	12539.37
630.294	12422.64
630.489	12434.92
630.683	12486.12
630.877	12160.5
631.071	12107.25
631.265	12131.83
631.459	12023.28
631.653	12019.19
631.848	12002.8
632.042	11828.73
632.236	11972.08
632.43	11783.67
632.624	11927.03
632.818	11679.22
633.012	11458.04
633.206	11367.93
633.4	11441.66
633.594	11271.68
633.788	11271.68
633.982	11263.49
634.176	11345.41
634.369	11097.6
634.563	11212.29
634.757	11154.94
634.951	10898.95
635.145	11032.07
635.339	10919.43
635.533	10759.69
635.726	10692.1
635.92	10569.23
636.114	10786.31
636.308	10577.42
636.501	10690.06
636.695	10419.72
636.889	10444.3
637.083	10343.95
637.276	10282.51
637.47	10319.37
637.664	10243.6
637.857	10204.69
638.051	9971.22
638.244	10073.62
638.438	10010.13
638.632	9819.67
638.825	9825.81
639.019	9868.82
639.212	9707.03
639.406	9821.72
639.599	9442.84
639.793	9725.46
639.986	9477.66
640.18	9530.91
640.373	9565.72
640.567	9442.84
640.76	9491.99
640.954	9106.98
641.147	9236
641.34	9276.96
641.534	9246.24
641.727	9061.92
641.92	8936.99
642.114	8955.43
642.307	8842.79
642.5	8912.42
642.694	8877.6
642.887	8726.05
643.08	8943.14
643.273	8926.75
643.467	8724.01
643.66	8779.3
643.853	8574.5
644.046	8615.46
644.239	8513.06
644.432	8492.59
644.626	8375.85
644.819	8386.09
645.012	8285.74
645.205	8451.63
645.398	8152.62
645.591	8234.54
645.784	8152.62
645.977	7986.74
646.17	7882.29
646.363	7937.59
646.556	8078.9
646.749	7986.74
646.942	8029.74
647.135	7827
647.328	7814.71
647.521	7829.04
647.714	7523.9
647.907	7648.82
648.099	7740.98
648.292	7601.72
648.485	7632.44
648.678	7501.37
648.871	7407.16
649.064	7605.81
649.256	7591.48
649.449	7456.31
649.642	7339.58
649.835	7536.18
650.027	7206.46
650.22	7331.39
650.413	7020.1
650.605	7071.29
650.798	7091.77
650.991	7155.26
651.183	7046.72
651.376	7108.16
651.568	7087.68
651.761	6897.22
651.954	6964.8
652.146	6944.32
652.339	6874.69
652.531	6764.1
652.724	6641.22
652.916	6780.48
653.109	6667.84
653.301	6579.78
653.494	6837.83
653.686	6436.42
653.879	6731.33
654.071	6538.82
654.263	6434.38
654.456	6321.74
654.648	6360.65
654.84	6331.98
655.033	6207.05
655.225	6346.31
655.417	6020.69
655.61	6438.47
655.802	6323.79
655.994	6297.16
656.186	6098.51
656.379	6313.55
656.571	6086.22
656.763	6094.41
656.955	6078.03
657.148	6094.41
657.34	5889.62
657.532	5940.82
657.724	6010.45
657.916	5940.82
658.108	5854.8
658.3	5768.79
658.492	5723.73
658.684	5725.78
658.876	5871.19
659.068	5731.92
659.26	5686.87
659.452	5670.48
659.644	5772.88
659.836	5461.59
660.028	5729.88
660.22	5494.36
660.412	5324.38
660.604	5412.44
660.796	5555.8
660.988	5498.45
661.18	5314.14
661.372	5221.98
661.563	5424.73
661.755	5244.51
661.947	5221.98
662.139	5133.92
662.331	5305.95
662.522	5160.54
662.714	5252.7
662.906	5205.6
663.097	5109.34
663.289	5211.74
663.481	5125.72
663.673	5099.1
663.864	5066.33
664.056	4978.27
664.247	4937.31
664.439	4839.01
664.631	5029.47
664.822	4986.46
665.014	4791.91
665.205	4970.08
665.397	4896.35
665.588	4845.15
665.78	4875.87
665.971	4888.16
666.163	4720.23
666.354	4675.17
666.546	4703.84
666.737	4802.15
666.929	4748.9
667.12	4701.79
667.311	4693.6
667.503	4609.64
667.694	4673.12
667.885	4605.54
668.077	4626.02
668.268	4486.76
668.459	4464.23
668.651	4445.8
668.842	4552.29
669.033	4564.58
669.224	4378.22
669.416	4445.8
669.607	4421.22
669.798	4339.3
669.989	4380.26
670.18	4312.68
670.371	4284.01
670.563	4400.74
670.754	4314.73
670.945	4265.58
671.136	4363.88
671.327	4269.67
671.518	4224.62
671.709	4449.89
671.9	4191.85
672.091	4259.43
672.282	4300.39
672.473	4171.37
672.664	4210.28
672.855	4208.23
673.046	4118.12
673.237	4249.19
673.428	4191.85
673.619	4085.36
673.809	4046.44
674	3997.29
674.191	4030.06
674.382	4001.39
674.573	3972.72
674.764	3985.01
674.954	4087.4
675.145	3939.95
675.336	3917.42
675.527	3933.81
675.717	3931.76
675.908	3864.18
676.099	3851.89
676.289	3976.81
676.48	4032.11
676.671	3792.5
676.861	3937.9
677.052	3952.24
677.243	3821.17
677.433	3937.9
677.624	3948.14
677.814	3855.98
678.005	3829.36
678.195	3757.68
678.386	3864.18
678.576	3767.92
678.767	3786.35
678.957	3745.39
679.148	3679.86
679.338	3919.47
679.529	3812.98
679.719	3833.46
679.909	3876.46
680.1	3743.35
680.29	3679.86
680.481	3640.95
680.671	3653.23
680.861	3788.4
681.052	3622.52
681.242	3868.27
681.432	3757.68
681.622	3569.27
681.813	3700.34
682.003	3667.57
682.193	3645.04
682.383	3667.57
682.573	3661.43
682.764	3513.97
682.954	3552.88
683.144	3729.01
683.334	3608.18
683.524	3626.61
683.714	3726.96
683.904	3589.75
684.094	3671.67
684.284	3626.61
684.474	3681.91
684.664	3683.95
684.854	3671.67
685.044	3544.69
685.234	3556.98
685.424	3473.01
685.614	3585.65
685.804	3618.42
685.994	3645.04
686.184	3546.74
686.374	3413.62
686.564	3374.71
686.753	3526.26
686.943	3380.86
687.133	3489.4
687.323	3421.81
687.513	3382.9
687.702	3479.16
687.892	3380.86
688.082	3319.42
688.272	3323.51
688.461	3380.86
688.651	3309.18
688.841	3290.74
689.03	3348.09
689.22	3341.94
689.41	3341.94
689.599	3153.53
689.789	3341.94
689.979	3323.51
690.168	3253.88
690.358	3415.67
690.547	3171.96
690.737	3057.28
690.926	3282.55
691.116	3202.68
691.305	3270.26
691.495	3061.37
691.684	3122.81
691.874	3051.13
692.063	2967.17
692.252	3192.44
692.442	3210.87
692.631	2950.78
692.82	3141.24
693.01	3014.27
693.199	2965.12
693.388	3047.04
693.578	2958.97
693.767	2934.4
693.956	2922.11
694.146	2930.3
694.335	2844.29
694.524	2971.26
694.713	2877.05
694.902	3026.56
695.092	2924.16
695.281	2848.38
695.47	2905.73
695.659	2709.12
695.848	2829.95
696.037	2913.92
696.226	2897.53
696.415	2702.98
696.604	2967.17
696.793	2784.9
696.982	2862.72
697.171	2791.04
697.36	2760.32
697.549	2788.99
697.738	2811.52
697.927	2666.11
698.116	2844.29
698.305	2743.94
698.494	2684.55
698.683	2702.98
698.872	2778.75
699.061	2821.76
699.25	2598.53
699.438	2635.39
699.627	2657.92
699.816	2819.71
700.005	2672.26
700.193	2635.39
700.382	2856.58
700.571	2729.6
700.76	2606.72
700.948	2784.9
701.137	2582.15
701.326	2793.09
701.514	2610.82
701.703	2766.46
701.892	2711.17
702.08	2705.03
702.269	2569.86
702.457	2637.44
702.646	2705.03
702.834	2514.56
703.023	2723.46
703.212	2596.48
703.4	2674.31
703.589	2588.29
703.777	2616.96
703.965	2621.06
704.154	2649.73
704.342	2614.91
704.531	2707.07
704.719	2653.83
704.907	2625.15
705.096	2727.55
705.284	2594.44
705.472	2619.01
705.661	2651.78
705.849	2659.97
706.037	2627.2
706.226	2604.67
706.414	2659.97
706.602	2616.96
706.79	2657.92
706.979	2586.24
707.167	2600.58
707.355	2627.2
707.543	2578.05
707.731	2438.79
707.919	2565.76
708.107	2537.09
708.296	2496.13
708.484	2539.14
708.672	2580.1
708.86	2621.06
709.048	2627.2
709.236	2553.48
709.424	2655.87
709.612	2606.72
709.8	2479.75
709.988	2578.05
710.176	2514.56
710.364	2555.52
710.551	2571.91
710.739	2619.01
710.927	2659.97
711.115	2586.24
711.303	2616.96
711.491	2553.48
711.679	2524.8
711.866	2586.24
712.054	2639.49
712.242	2578.05
712.43	2662.02
712.617	2483.84
712.805	2553.48
712.993	2561.67
713.181	2530.95
713.368	2496.13
713.556	2520.71
713.744	2573.96
713.931	2635.39
714.119	2481.8
714.306	2479.75
714.494	2524.8
714.682	2510.47
714.869	2457.22
715.057	2582.15
715.244	2612.87
715.432	2520.71
715.619	2670.21
715.807	2528.9
715.994	2459.27
716.182	2438.79
716.369	2602.63
716.556	2582.15
716.744	2508.42
716.931	2551.43
717.119	2668.16
717.306	2543.24
717.493	2569.86
717.681	2535.04
717.868	2528.9
718.055	2465.41
718.242	2533
718.43	2385.54
718.617	2573.96
718.804	2512.52
718.991	2520.71
719.179	2631.3
719.366	2440.84
719.553	2619.01
719.74	2547.33
719.927	2561.67
720.114	2514.56
720.301	2578.05
720.488	2545.28
720.676	2446.98
720.863	2520.71
721.05	2565.76
721.237	2496.13
721.424	2598.53
721.611	2553.48
721.798	2539.14
721.985	2578.05
722.172	2561.67
722.358	2530.95
722.545	2645.63
722.732	2580.1
722.919	2543.24
723.106	2584.2
723.293	2600.58
723.48	2483.84
723.667	2496.13
723.853	2600.58
724.04	2602.63
724.227	2528.9
724.414	2487.94
724.6	2537.09
724.787	2696.83
724.974	2487.94
725.161	2533
725.347	2569.86
725.534	2471.56
725.72	2530.95
725.907	2518.66
726.094	2514.56
726.28	2602.63
726.467	2453.13
726.653	2430.6
726.84	2569.86
727.027	2569.86
727.213	2504.32
727.4	2481.8
727.586	2512.52
727.773	2684.55
727.959	2479.75
728.145	2506.37
728.332	2512.52
728.518	2512.52
728.705	2561.67
728.891	2643.59
729.077	2449.03
729.264	2514.56
729.45	2455.17
729.636	2651.78
729.823	2424.45
730.009	2588.29
730.195	2547.33
730.382	2428.55
730.568	2440.84
730.754	2526.85
730.94	2537.09
731.126	2504.32
731.313	2573.96
731.499	2504.32
731.685	2483.84
731.871	2449.03
732.057	2600.58
732.243	2610.82
732.429	2489.99
732.615	2537.09
732.801	2414.21
732.987	2625.15
733.173	2530.95
733.359	2539.14
733.545	2422.41
733.731	2543.24
733.917	2481.8
734.103	2586.24
734.289	2588.29
734.475	2530.95
734.661	2678.4
734.847	2539.14
735.033	2459.27
735.219	2457.22
735.404	2547.33
735.59	2430.6
735.776	2569.86
735.962	2537.09
736.148	2547.33
736.333	2580.1
736.519	2391.69
736.705	2569.86
736.89	2455.17
737.076	2426.5
737.262	2494.08
737.447	2440.84
737.633	2414.21
737.819	2555.52
738.004	2510.47
738.19	2563.72
738.375	2483.84
738.561	2526.85
738.747	2479.75
738.932	2430.6
739.118	2522.76
739.303	2541.19
739.489	2444.93
739.674	2408.07
739.859	2483.84
740.045	2512.52
740.23	2446.98
740.416	2406.02
740.601	2422.41
740.786	2350.73
740.972	2332.3
741.157	2328.2
741.342	2354.82
741.528	2424.45
741.713	2365.06
741.898	2496.13
742.084	2369.16
742.269	2285.19
742.454	2332.3
742.639	2358.92
742.824	2184.84
743.01	2307.72
743.195	2248.33
743.38	2340.49
743.565	2264.71
743.75	2375.3
743.935	2303.62
744.12	2193.03
744.305	2233.99
744.49	2190.99
744.675	2211.46
744.86	2307.72
745.045	2301.58
745.23	2291.34
745.415	2274.95
745.6	2268.81
745.785	2158.22
745.97	2328.2
746.155	2274.95
746.34	2236.04
746.525	2250.38
746.71	2131.59
746.895	2096.78
747.079	2178.7
747.264	2250.38
747.449	2139.79
747.634	2078.35
747.819	2094.73
748.003	2029.2
748.188	2018.96
748.373	2053.77
748.557	2033.29
748.742	2053.77
748.927	1953.42
749.111	2037.39
749.296	1914.51
749.481	2074.25
749.665	1818.25
749.85	1945.23
750.034	2014.86
750.219	1801.87
750.404	1840.78
750.588	1906.32
750.773	1754.77
750.957	1889.93
751.141	1789.58
751.326	1758.86
751.51	1775.25
751.695	1848.97
751.879	1826.45
752.064	1836.69
752.248	1799.82
752.432	1748.62
752.617	1791.63
752.801	1767.06
752.985	1656.47
753.17	1744.53
753.354	1638.03
753.538	1736.34
753.722	1707.66
753.907	1656.47
754.091	1595.03
754.275	1658.51
754.459	1572.5
754.643	1562.26
754.828	1611.41
755.012	1646.23
755.196	1529.49
755.38	1554.07
755.564	1506.96
755.748	1521.3
755.932	1472.15
756.116	1513.11
756.3	1562.26
756.484	1373.85
756.668	1500.82
756.852	1435.28
757.036	1384.09
757.22	1455.76
757.404	1431.19
757.588	1339.03
757.772	1373.85
757.956	1367.7
758.14	1406.61
758.323	1504.92
758.507	1447.57
758.691	1326.74
758.875	1410.71
759.059	1433.24
759.242	1300.12
759.426	1334.93
759.61	1279.64
759.794	1308.31
759.977	1384.09
760.161	1375.89
760.345	1277.59
760.528	1304.21
760.712	1238.68
760.895	1291.93
761.079	1269.4
761.263	1171.1
761.446	1197.72
761.63	1310.36
761.813	1210.01
761.997	1302.17
762.18	1259.16
762.364	1226.39
762.547	1226.39
762.731	1128.09
762.914	1193.62
763.098	1128.09
763.281	1154.71
763.464	1095.32
763.648	1177.24
763.831	1103.51
764.015	1173.14
764.198	1164.95
764.381	1259.16
764.564	1179.29
764.748	1154.71
764.931	1087.13
765.114	1173.14
765.297	1138.33
765.481	1201.82
765.664	1001.12
765.847	1066.65
766.03	1128.09
766.213	1037.98
766.397	1074.84
766.58	1062.55
766.763	1025.69
766.946	1058.46
767.129	1115.8
767.312	1029.79
767.495	1064.6
767.678	954.01
767.861	1083.03
768.044	1072.79
768.227	1054.36
768.41	937.63
768.593	978.59
768.776	964.25
768.959	982.68
769.142	1085.08
769.324	1009.31
769.507	947.87
769.69	951.96
769.873	997.02
770.056	992.92
770.239	870.05
770.421	947.87
770.604	939.68
770.787	997.02
770.97	945.82
771.152	908.96
771.335	945.82
771.518	958.11
771.7	886.43
771.883	874.14
772.066	837.28
772.248	906.91
772.431	980.64
772.613	878.24
772.796	919.2
772.978	831.13
773.161	870.05
773.343	841.37
773.526	870.05
773.708	915.1
773.891	824.99
774.073	827.04
774.256	773.79
774.438	900.76
774.621	859.81
774.803	808.61
774.985	882.33
775.168	755.36
775.35	757.41
775.532	784.03
775.715	722.59
775.897	790.17
776.079	745.12
776.261	792.22
776.444	695.97
776.626	845.47
776.808	726.69
776.99	794.27
777.173	771.74
777.355	743.07
777.537	714.4
777.719	712.35
777.901	693.92
778.083	642.72
778.265	738.98
778.447	720.54
778.629	618.15
778.811	751.26
778.993	716.45
779.175	810.65
779.357	718.5
779.539	677.54
779.721	628.39
779.903	720.54
780.085	646.82
780.267	571.04
780.449	704.16
780.631	614.05
780.812	579.23
780.994	677.54
781.176	595.62
781.358	636.58
781.54	521.89
781.721	638.62
781.903	636.58
782.085	628.39
782.267	581.28
782.448	646.82
782.63	614.05
782.812	577.19
782.993	593.57
783.175	595.62
783.357	515.75
783.538	683.68
783.72	480.93
783.901	542.37
784.083	540.32
784.264	540.32
784.446	513.7
784.627	564.9
784.809	472.74
784.99	462.5
785.172	476.84
785.353	503.46
785.535	476.84
785.716	480.93
785.897	534.18
786.079	509.6
786.26	501.41
786.441	464.55
786.623	388.77
786.804	573.09
786.985	476.84
787.167	458.4
787.348	368.29
787.529	501.41
787.71	446.12
787.891	429.73
788.073	450.21
788.254	458.4
788.435	511.65
788.616	427.68
788.797	439.97
788.978	513.7
789.159	401.06
789.34	489.12
789.522	366.25
789.703	435.88
789.884	452.26
790.065	419.49
790.246	396.96
790.427	411.3
790.607	341.67
790.788	427.68
790.969	360.1
791.15	349.86
791.331	362.15
791.512	386.72
791.693	337.57
791.874	370.34
792.054	435.88
792.235	358.05
792.416	304.81
792.597	327.33
792.778	378.53
792.958	415.4
793.139	431.78
793.32	329.38
793.5	370.34
793.681	374.44
793.862	349.86
794.042	317.09
794.223	366.25
794.404	325.29
794.584	296.61
794.765	306.85
794.945	370.34
795.126	374.44
795.306	325.29
795.487	401.06
795.667	313
795.848	269.99
796.028	278.18
796.209	349.86
796.389	345.77
796.57	374.44
796.75	325.29
796.93	241.32
797.111	290.47
797.291	300.71
797.471	349.86
797.652	269.99
797.832	245.41
798.012	341.67
798.192	372.39
798.373	243.37
798.553	259.75
798.733	210.6
798.913	245.41
799.093	272.04
799.274	310.95
799.454	325.29
799.634	325.29
799.814	239.27
799.994	253.61
800.174	280.23
800.354	231.08
800.534	235.18
800.714	284.33
800.894	298.66
801.074	251.56
801.254	306.85
801.434	247.46
801.614	218.79
801.794	210.6
801.974	734.88
802.154	310.95
802.334	259.75
802.514	263.85
802.693	218.79
802.873	243.37
803.053	360.1
803.233	226.98
803.413	267.94
803.592	253.61
803.772	229.03
803.952	247.46
804.131	102.06
804.311	267.94
804.491	147.11
804.67	198.31
804.85	239.27
805.03	212.65
805.209	214.7
805.389	147.11
805.568	226.98
805.748	218.79
805.928	243.37
806.107	259.75
806.287	175.78
806.466	202.41
806.646	177.83
806.825	194.22
807.004	188.07
807.184	196.26
807.363	194.22
807.543	218.79
807.722	214.7
807.901	204.46
808.081	218.79
808.26	155.3
808.439	218.79
808.619	186.02
808.798	220.84
808.977	212.65
809.156	147.11
809.336	73.39
809.515	163.5
809.694	124.58
809.873	173.74
810.052	151.21
810.231	218.79
810.411	183.98
810.59	220.84
810.769	198.31
810.948	192.17
811.127	134.82
811.306	163.5
811.485	175.78
811.664	177.83
811.843	210.6
812.022	122.54
812.201	235.18
812.38	220.84
812.559	140.97
812.737	237.22
812.916	130.73
813.095	114.34
813.274	190.12
813.453	226.98
813.632	183.98
813.811	145.06
813.989	161.45
814.168	179.88
814.347	126.63
814.526	165.54
814.704	202.41
814.883	181.93
815.062	145.06
815.24	210.6
815.419	104.11
815.598	155.3
815.776	108.2
815.955	233.13
816.133	112.3
816.312	79.53
816.49	194.22
816.669	196.26
816.847	138.92
817.026	161.45
817.204	200.36
817.383	95.91
817.561	169.64
817.74	210.6
817.918	134.82
818.097	181.93
818.275	145.06
818.453	120.49
818.632	165.54
818.81	165.54
818.988	63.15
819.167	116.39
819.345	155.3
819.523	145.06
819.701	118.44
819.879	112.3
820.058	177.83
820.236	75.43
820.414	161.45
820.592	138.92
820.77	181.93
820.948	71.34
821.127	122.54
821.305	140.97
821.483	177.83
821.661	153.26
821.839	87.72
822.017	177.83
822.195	93.87
822.373	73.39
822.551	169.64
822.729	100.01
822.907	157.35
823.085	87.72
823.262	151.21
823.44	165.54
823.618	138.92
823.796	161.45
823.974	50.86
824.152	151.21
824.329	59.05
824.507	100.01
824.685	85.67
824.863	147.11
825.04	136.87
825.218	194.22
825.396	155.3
825.574	145.06
825.751	147.11
825.929	151.21
826.107	110.25
826.284	42.67
826.462	71.34
826.639	106.15
826.817	61.1
826.994	63.15
827.172	120.49
827.349	46.76
827.527	122.54
827.704	112.3
827.882	130.73
828.059	97.96
828.237	79.53
828.414	79.53
828.591	110.25
828.769	112.3
828.946	7.85
829.124	77.48
829.301	114.34
829.478	54.95
829.655	87.72
829.833	194.22
830.01	5.8
830.187	97.96
830.364	48.81
830.542	89.77
830.719	102.06
830.896	114.34
831.073	97.96
831.25	95.91
831.427	59.05
831.604	34.47
831.782	130.73
831.959	71.34
832.136	120.49
832.313	106.15
832.49	85.67
832.667	75.43
832.844	116.39
833.021	106.15
833.198	112.3
833.374	140.97
833.551	93.87
833.728	114.34
833.905	93.87
834.082	38.57
834.259	73.39
834.436	161.45
834.612	73.39
834.789	95.91
834.966	100.01
835.143	95.91
835.319	36.52
835.496	143.02
835.673	71.34
835.85	52.91
836.026	116.39
836.203	145.06
836.38	59.05
836.556	5.8
836.733	65.19
836.909	126.63
837.086	13.99
837.262	73.39
837.439	57
837.616	79.53
837.792	87.72
837.968	16.04
838.145	38.57
838.321	145.06
838.498	34.47
838.674	95.91
838.851	22.19
839.027	91.82
839.203	57
839.38	50.86
839.556	67.24
839.732	188.07
839.909	38.57
840.085	155.3
840.261	34.47
840.437	91.82
840.614	44.71
840.79	112.3
840.966	59.05
841.142	26.28
841.318	46.76
841.494	38.57
841.671	16.04
841.847	5.8
842.023	34.47
842.199	24.23
842.375	114.34
842.551	75.43
842.727	5.8
842.903	132.78
843.079	153.26
843.255	91.82
843.431	5.8
843.607	106.15
843.783	-59.73
843.959	59.05
844.134	-2.39
844.31	46.76
844.486	59.05
844.662	-6.49
844.838	57
845.013	18.09
845.189	46.76
845.365	85.67
845.541	61.1
845.716	16.04
845.892	81.58
846.068	61.1
846.244	20.14
846.419	91.82
846.595	20.14
846.77	38.57
846.946	71.34
847.122	75.43
847.297	28.33
847.473	30.38
847.648	24.23
847.824	40.62
847.999	-33.11
848.175	114.34
848.35	63.15
848.526	65.19
848.701	91.82
848.876	-0.34
849.052	26.28
849.227	46.76
849.403	13.99
849.578	11.95
849.753	-10.58
849.929	20.14
850.104	5.8
850.279	30.38
850.454	30.38
850.63	26.28
850.805	38.57
850.98	-0.34
851.155	5.8
851.33	57
851.505	7.85
851.681	71.34
851.856	5.8
852.031	63.15
852.206	-43.35
852.381	13.99
852.556	-59.73
852.731	9.9
852.906	57
853.081	30.38
853.256	79.53
853.431	42.67
853.606	30.38
853.781	-43.35
853.956	-31.06
854.131	57
854.305	-2.39
854.48	22.19
854.655	30.38
854.83	-10.58
855.005	65.19
855.18	20.14
855.354	16.04
855.529	54.95
855.704	22.19
855.879	32.43
856.053	-14.68
856.228	57
856.403	5.8
856.577	-2.39
856.752	-18.77
856.926	28.33
857.101	87.72
857.276	9.9
857.45	13.99
857.625	22.19
857.799	7.85
857.974	97.96
858.148	-6.49
858.323	22.19
858.497	13.99
858.672	16.04
858.846	-43.35
859.02	71.34
859.195	20.14
859.369	-2.39
859.543	-8.53
859.718	9.9
859.892	54.95
860.066	95.91
860.241	-43.35
860.415	-53.59
860.589	52.91
860.763	9.9
860.938	-53.59
861.112	138.92
861.286	-51.54
861.46	-26.96
861.634	-33.11
861.808	22.19
861.982	-2.39
862.157	1.71
862.331	-31.06
862.505	-26.96
862.679	65.19
862.853	5.8
863.027	22.19
863.201	65.19
863.375	-26.96
863.549	114.34
863.722	40.62
863.896	5.8
864.07	-47.44
864.244	-0.34
864.418	75.43
864.592	-16.73
864.766	42.67
864.939	-14.68
865.113	-26.96
865.287	71.34
865.461	-45.4
865.634	-10.58
865.808	50.86
865.982	-51.54
866.156	-26.96
866.329	-0.34
866.503	122.54
866.676	26.28
866.85	34.47
867.024	-8.53
867.197	28.33
867.371	-6.49
867.544	9.9
867.718	57
867.891	-6.49
868.065	-10.58
868.238	1.71
868.412	1.71
868.585	-26.96
868.759	54.95
868.932	-51.54
869.105	-43.35
869.279	-47.44
869.452	-18.77
869.625	57
869.799	-0.34
869.972	24.23
870.145	32.43
870.319	26.28
870.492	30.38
870.665	20.14
870.838	18.09
871.011	-43.35
871.185	-0.34
871.358	-22.87
871.531	145.06
871.704	-31.06
871.877	52.91
872.05	-26.96
872.223	-41.3
872.396	-6.49
872.569	-16.73
872.742	16.04
872.915	32.43
873.088	30.38
873.261	-29.01
873.434	-10.58
873.607	-8.53
873.78	-24.92
873.953	5.8
874.126	75.43
874.299	-41.3
874.471	38.57
874.644	22.19
874.817	5.8
874.99	38.57
875.163	-10.58
875.335	-2.39
875.508	22.19
875.681	3.75
875.853	-43.35
876.026	26.28
876.199	40.62
876.371	-49.49
876.544	-39.25
876.717	22.19
876.889	13.99
877.062	13.99
877.234	-51.54
877.407	-98.64
877.579	3.75
877.752	1.71
877.924	54.95
878.097	46.76
878.269	-14.68
878.442	79.53
878.614	44.71
878.786	42.67
878.959	-26.96
879.131	-18.77
879.303	-6.49
879.476	48.81
879.648	-24.92
879.82	22.19
879.993	26.28
880.165	1.71
880.337	-76.12
880.509	24.23
880.681	-35.16
880.854	13.99
881.026	73.39
881.198	11.95
881.37	26.28
881.542	-10.58
881.714	24.23
881.886	1.71
882.058	11.95
882.23	50.86
882.402	46.76
882.574	-0.34
882.746	-35.16
882.918	54.95
883.09	-26.96
883.262	-16.73
883.434	-10.58
883.606	-74.07
883.778	-26.96
883.95	18.09
884.122	-10.58
884.293	9.9
884.465	11.95
884.637	-2.39
884.809	-43.35
884.98	20.14
885.152	30.38
885.324	-14.68
885.496	46.76
885.667	-10.58
885.839	9.9
886.011	32.43
886.182	75.43
886.354	57
886.525	5.8
886.697	5.8
886.869	9.9
887.04	22.19
887.212	46.76
887.383	40.62
887.555	-55.64
887.726	30.38
887.897	11.95
888.069	-0.34
888.24	-35.16
888.412	-4.44
888.583	54.95
888.754	-18.77
888.926	11.95
889.097	42.67
889.268	7.85
889.44	-22.87
889.611	-37.2
889.782	16.04
889.953	52.91
890.125	16.04
890.296	30.38
890.467	5.8
890.638	-16.73
890.809	-51.54
890.98	-8.53
891.151	24.23
891.323	-8.53
891.494	-10.58
891.665	-39.25
891.836	30.38
892.007	-61.78
892.178	-26.96
892.349	-20.82
892.52	28.33
892.691	-18.77
892.862	-35.16
893.032	59.05
893.203	28.33
893.374	-22.87
893.545	11.95
893.716	87.72
893.887	7.85
894.057	-33.11
894.228	20.14
894.399	-76.12
894.57	63.15
894.74	-26.96
894.911	7.85
895.082	-49.49
895.253	7.85
895.423	24.23
895.594	95.91
895.764	57
895.935	46.76
896.106	-6.49
896.276	-33.11
896.447	54.95
896.617	57
896.788	-65.88
896.958	-74.07
897.129	-31.06
897.299	-20.82
897.47	54.95
897.64	-20.82
897.81	30.38
897.981	5.8
898.151	-43.35
898.322	-18.77
898.492	-26.96
898.662	-55.64
898.832	-10.58
899.003	-10.58
899.173	42.67
899.343	-14.68
899.513	5.8
