Data from USB4F104151__47__14-43-01-502.txt Node

Date: Thu Mar 13 14:43:01 EDT 2025
User: louis
Spectrometer: USB4F10415
Trigger mode: 4
Integration Time (sec): 2.000000E-2
Scans to average: 1
Electric dark correction enabled: true
Nonlinearity correction enabled: false
Boxcar width: 0
XAxis mode: Wavelengths
Number of Pixels in Spectrum: 3648
>>>>>Begin Spectral Data<<<<<
178.204	-186.37
178.424	-186.37
178.644	-186.37
178.864	-102.4
179.084	-151.55
179.304	-63.49
179.524	14.34
179.744	-30.72
179.964	20.48
180.184	45.06
180.404	14.34
180.624	-6.14
180.844	18.43
181.064	-51.2
181.283	83.97
181.503	-14.34
181.723	-30.72
181.943	-94.21
182.163	104.45
182.383	86.01
182.602	-34.82
182.822	69.63
183.042	67.58
183.262	-10.24
183.482	55.3
183.701	-6.14
183.921	69.63
184.141	-18.43
184.361	102.4
184.58	75.77
184.8	18.43
185.02	47.1
185.239	92.16
185.459	59.39
185.679	53.25
185.898	43.01
186.118	-18.43
186.338	30.72
186.557	100.35
186.777	-12.29
186.997	2.05
187.216	126.97
187.436	4.1
187.655	20.48
187.875	32.77
188.095	-12.29
188.314	36.86
188.534	34.82
188.753	26.62
188.973	18.43
189.192	26.62
189.412	67.58
189.631	98.3
189.851	-28.67
190.07	67.58
190.29	-32.77
190.509	34.82
190.729	55.3
190.948	86.01
191.168	79.87
191.387	51.2
191.607	-22.53
191.826	75.77
192.045	59.39
192.265	-51.2
192.484	18.43
192.704	36.86
192.923	18.43
193.142	92.16
193.362	2.05
193.581	26.62
193.8	36.86
194.02	14.34
194.239	143.36
194.458	43.01
194.678	43.01
194.897	63.49
195.116	-8.19
195.335	10.24
195.555	36.86
195.774	-47.1
195.993	34.82
196.212	2.05
196.432	-2.05
196.651	-20.48
196.87	28.67
197.089	71.68
197.308	122.88
197.528	-14.34
197.747	-12.29
197.966	47.1
198.185	83.97
198.404	59.39
198.623	-2.05
198.842	10.24
199.062	-2.05
199.281	53.25
199.5	26.62
199.719	96.25
199.938	71.68
200.157	77.82
200.376	59.39
200.595	61.44
200.814	26.62
201.033	20.48
201.252	14.34
201.471	26.62
201.69	67.58
201.909	47.1
202.128	45.06
202.347	79.87
202.566	10.24
202.785	-6.14
203.004	6.14
203.223	71.68
203.442	10.24
203.661	-12.29
203.879	26.62
204.098	79.87
204.317	14.34
204.536	100.35
204.755	61.44
204.974	-0
205.193	102.4
205.411	51.2
205.63	88.06
205.849	-6.14
206.068	53.25
206.287	14.34
206.505	75.77
206.724	-43.01
206.943	63.49
207.162	53.25
207.381	12.29
207.599	92.16
207.818	51.2
208.037	59.39
208.255	96.25
208.474	28.67
208.693	-22.53
208.911	-14.34
209.13	55.3
209.349	83.97
209.567	45.06
209.786	51.2
210.005	12.29
210.223	86.01
210.442	34.82
210.661	67.58
210.879	18.43
211.098	36.86
211.316	28.67
211.535	51.2
211.753	63.49
211.972	88.06
212.191	83.97
212.409	-6.14
212.628	34.82
212.846	38.91
213.065	96.25
213.283	12.29
213.502	-43.01
213.72	-16.38
213.938	-12.29
214.157	20.48
214.375	69.63
214.594	26.62
214.812	36.86
215.031	2.05
215.249	10.24
215.467	-22.53
215.686	34.82
215.904	108.54
216.122	20.48
216.341	-14.34
216.559	36.86
216.778	53.25
216.996	18.43
217.214	-4.1
217.432	-36.86
217.651	-4.1
217.869	-20.48
218.087	4.1
218.306	-16.38
218.524	34.82
218.742	65.53
218.96	51.2
219.179	12.29
219.397	-18.43
219.615	51.2
219.833	-0
220.051	2.05
220.27	20.48
220.488	55.3
220.706	43.01
220.924	-38.91
221.142	-30.72
221.36	12.29
221.578	59.39
221.796	38.91
222.015	38.91
222.233	8.19
222.451	69.63
222.669	45.06
222.887	38.91
223.105	26.62
223.323	-26.62
223.541	26.62
223.759	61.44
223.977	-0
224.195	57.34
224.413	14.34
224.631	108.54
224.849	-6.14
225.067	45.06
225.285	-6.14
225.503	24.58
225.721	-83.97
225.939	-38.91
226.157	-36.86
226.375	149.5
226.592	-20.48
226.81	-34.82
227.028	114.69
227.246	75.77
227.464	30.72
227.682	108.54
227.9	69.63
228.117	-12.29
228.335	43.01
228.553	55.3
228.771	45.06
228.989	-2.05
229.206	20.48
229.424	38.91
229.642	61.44
229.86	45.06
230.077	124.93
230.295	51.2
230.513	94.21
230.731	108.54
230.948	81.92
231.166	47.1
231.384	40.96
231.601	67.58
231.819	53.25
232.037	4.1
232.254	18.43
232.472	36.86
232.689	61.44
232.907	86.01
233.125	-4.1
233.342	18.43
233.56	-30.72
233.777	59.39
233.995	61.44
234.213	59.39
234.43	-6.14
234.648	88.06
234.865	45.06
235.083	61.44
235.3	34.82
235.518	104.45
235.735	30.72
235.953	34.82
236.17	26.62
236.388	18.43
236.605	18.43
236.822	30.72
237.04	59.39
237.257	59.39
237.475	-65.54
237.692	94.21
237.909	10.24
238.127	-10.24
238.344	-43.01
238.562	88.06
238.779	30.72
238.996	-43.01
239.214	71.68
239.431	14.34
239.648	4.1
239.865	49.15
240.083	86.01
240.3	59.39
240.517	-96.25
240.735	16.38
240.952	40.96
241.169	10.24
241.386	79.87
241.603	43.01
241.821	28.67
242.038	34.82
242.255	12.29
242.472	-45.06
242.689	126.97
242.907	83.97
243.124	36.86
243.341	45.06
243.558	-20.48
243.775	59.39
243.992	36.86
244.209	20.48
244.426	47.1
244.643	-47.1
244.86	14.34
245.078	4.1
245.295	12.29
245.512	30.72
245.729	-12.29
245.946	69.63
246.163	98.3
246.38	34.82
246.597	30.72
246.814	55.3
247.031	-28.67
247.248	16.38
247.464	47.1
247.681	43.01
247.898	65.53
248.115	28.67
248.332	-38.91
248.549	18.43
248.766	51.2
248.983	2.05
249.2	-8.19
249.417	88.06
249.633	47.1
249.85	45.06
250.067	43.01
250.284	77.82
250.501	18.43
250.717	71.68
250.934	45.06
251.151	-12.29
251.368	-4.1
251.585	38.91
251.801	28.67
252.018	-12.29
252.235	-18.43
252.451	51.2
252.668	-10.24
252.885	28.67
253.102	-47.1
253.318	92.16
253.535	-22.53
253.752	18.43
253.968	86.01
254.185	28.67
254.401	-14.34
254.618	135.17
254.835	4.1
255.051	77.82
255.268	59.39
255.484	14.34
255.701	-24.58
255.917	92.16
256.134	-55.3
256.351	51.2
256.567	-22.53
256.784	53.25
257	-88.06
257.217	43.01
257.433	-8.19
257.65	36.86
257.866	24.58
258.082	-18.43
258.299	18.43
258.515	69.63
258.732	61.44
258.948	34.82
259.165	20.48
259.381	69.63
259.597	28.67
259.814	51.2
260.03	10.24
260.246	24.58
260.463	34.82
260.679	51.2
260.895	2.05
261.112	36.86
261.328	75.77
261.544	-2.05
261.761	120.83
261.977	-63.49
262.193	10.24
262.409	55.3
262.626	-36.86
262.842	43.01
263.058	47.1
263.274	30.72
263.49	45.06
263.707	69.63
263.923	114.69
264.139	-2.05
264.355	18.43
264.571	112.64
264.787	55.3
265.004	-55.3
265.22	-12.29
265.436	-36.86
265.652	18.43
265.868	118.78
266.084	-4.1
266.3	94.21
266.516	4.1
266.732	45.06
266.948	43.01
267.164	67.58
267.38	4.1
267.596	34.82
267.812	38.91
268.028	124.93
268.244	51.2
268.46	36.86
268.676	28.67
268.892	43.01
269.108	75.77
269.324	10.24
269.54	-14.34
269.756	67.58
269.972	12.29
270.188	36.86
270.403	45.06
270.619	2.05
270.835	26.62
271.051	-26.62
271.267	-36.86
271.483	16.38
271.698	4.1
271.914	151.55
272.13	88.06
272.346	-10.24
272.562	-45.06
272.777	92.16
272.993	86.01
273.209	-4.1
273.425	51.2
273.64	-12.29
273.856	-28.67
274.072	-55.3
274.287	-14.34
274.503	-55.3
274.719	-16.38
274.934	59.39
275.15	-2.05
275.366	20.48
275.581	-81.92
275.797	75.77
276.012	34.82
276.228	59.39
276.444	-6.14
276.659	34.82
276.875	-38.91
277.09	26.62
277.306	14.34
277.521	83.97
277.737	14.34
277.952	75.77
278.168	18.43
278.383	34.82
278.599	16.38
278.814	51.2
279.03	16.38
279.245	24.58
279.461	69.63
279.676	67.58
279.892	43.01
280.107	53.25
280.322	47.1
280.538	18.43
280.753	4.1
280.969	10.24
281.184	36.86
281.399	110.59
281.615	53.25
281.83	51.2
282.045	10.24
282.26	45.06
282.476	-10.24
282.691	26.62
282.906	-38.91
283.122	30.72
283.337	-63.49
283.552	-0
283.767	69.63
283.983	92.16
284.198	28.67
284.413	53.25
284.628	-14.34
284.843	86.01
285.058	61.44
285.274	51.2
285.489	110.59
285.704	51.2
285.919	-12.29
286.134	2.05
286.349	18.43
286.564	-22.53
286.779	43.01
286.995	124.93
287.21	-49.15
287.425	61.44
287.64	2.05
287.855	-22.53
288.07	67.58
288.285	-28.67
288.5	14.34
288.715	30.72
288.93	-30.72
289.145	26.62
289.36	38.91
289.575	10.24
289.79	55.3
290.004	63.49
290.219	169.98
290.434	43.01
290.649	-28.67
290.864	30.72
291.079	-20.48
291.294	26.62
291.509	36.86
291.724	10.24
291.938	2.05
292.153	-6.14
292.368	12.29
292.583	79.87
292.798	43.01
293.012	4.1
293.227	88.06
293.442	-55.3
293.657	-22.53
293.871	59.39
294.086	43.01
294.301	69.63
294.516	59.39
294.73	51.2
294.945	96.25
295.16	-2.05
295.374	63.49
295.589	22.53
295.804	88.06
296.018	10.24
296.233	-14.34
296.447	61.44
296.662	-57.34
296.877	26.62
297.091	8.19
297.306	63.49
297.52	43.01
297.735	-14.34
297.949	16.38
298.164	12.29
298.378	10.24
298.593	47.1
298.807	43.01
299.022	10.24
299.236	63.49
299.451	4.1
299.665	-10.24
299.88	30.72
300.094	-14.34
300.309	51.2
300.523	73.73
300.737	4.1
300.952	30.72
301.166	94.21
301.381	-2.05
301.595	75.77
301.809	12.29
302.024	88.06
302.238	26.62
302.452	30.72
302.667	-28.67
302.881	116.73
303.095	-6.14
303.309	102.4
303.524	16.38
303.738	-16.38
303.952	-16.38
304.166	143.36
304.381	14.34
304.595	59.39
304.809	26.62
305.023	6.14
305.237	-4.1
305.452	51.2
305.666	-2.05
305.88	30.72
306.094	6.14
306.308	55.3
306.522	63.49
306.736	55.3
306.95	4.1
307.164	10.24
307.379	120.83
307.593	88.06
307.807	45.06
308.021	43.01
308.235	102.4
308.449	-22.53
308.663	63.49
308.877	53.25
309.091	59.39
309.305	36.86
309.519	-30.72
309.733	-20.48
309.947	-92.16
310.161	69.63
310.374	18.43
310.588	-6.14
310.802	86.01
311.016	30.72
311.23	36.86
311.444	43.01
311.658	63.49
311.872	67.58
312.085	51.2
312.299	67.58
312.513	65.53
312.727	51.2
312.941	34.82
313.154	75.77
313.368	14.34
313.582	77.82
313.796	-2.05
314.009	10.24
314.223	102.4
314.437	67.58
314.651	30.72
314.864	30.72
315.078	-30.72
315.292	69.63
315.505	43.01
315.719	4.1
315.933	32.77
316.146	12.29
316.36	26.62
316.573	102.4
316.787	8.19
317.001	51.2
317.214	-40.96
317.428	12.29
317.641	59.39
317.855	-20.48
318.068	-4.1
318.282	51.2
318.495	114.69
318.709	69.63
318.922	28.67
319.136	145.41
319.349	67.58
319.563	47.1
319.776	69.63
319.99	92.16
320.203	51.2
320.417	51.2
320.63	36.86
320.843	51.2
321.057	120.83
321.27	26.62
321.483	-6.14
321.697	12.29
321.91	51.2
322.124	10.24
322.337	43.01
322.55	18.43
322.763	26.62
322.977	-12.29
323.19	26.62
323.403	38.91
323.617	30.72
323.83	67.58
324.043	-6.14
324.256	86.01
324.469	61.44
324.683	59.39
324.896	-24.58
325.109	-6.14
325.322	4.1
325.535	139.26
325.748	92.16
325.962	2.05
326.175	57.34
326.388	102.4
326.601	36.86
326.814	10.24
327.027	69.63
327.24	106.49
327.453	26.62
327.666	133.12
327.879	75.77
328.092	47.1
328.305	8.19
328.518	30.72
328.731	4.1
328.944	92.16
329.157	59.39
329.37	36.86
329.583	126.97
329.796	86.01
330.009	45.06
330.222	98.3
330.435	26.62
330.648	47.1
330.861	26.62
331.073	34.82
331.286	22.53
331.499	75.77
331.712	38.91
331.925	51.2
332.138	28.67
332.35	86.01
332.563	-6.14
332.776	55.3
332.989	-40.96
333.202	14.34
333.414	-6.14
333.627	18.43
333.84	36.86
334.053	10.24
334.265	24.58
334.478	59.39
334.691	110.59
334.903	28.67
335.116	30.72
335.329	92.16
335.541	53.25
335.754	61.44
335.966	2.05
336.179	118.78
336.392	-2.05
336.604	75.77
336.817	30.72
337.029	53.25
337.242	-14.34
337.454	26.62
337.667	-28.67
337.88	75.77
338.092	112.64
338.305	77.82
338.517	43.01
338.729	26.62
338.942	75.77
339.154	-2.05
339.367	-4.1
339.579	73.73
339.792	-6.14
340.004	133.12
340.217	4.1
340.429	28.67
340.641	108.54
340.854	-38.91
341.066	10.24
341.278	116.73
341.491	100.35
341.703	55.3
341.915	59.39
342.128	51.2
342.34	-18.43
342.552	63.49
342.764	20.48
342.977	94.21
343.189	45.06
343.401	10.24
343.613	18.43
343.826	38.91
344.038	102.4
344.25	26.62
344.462	43.01
344.674	69.63
344.886	22.53
345.099	-34.82
345.311	104.45
345.523	51.2
345.735	10.24
345.947	28.67
346.159	110.59
346.371	-12.29
346.583	14.34
346.795	51.2
347.007	-30.72
347.219	18.43
347.431	-14.34
347.643	92.16
347.855	2.05
348.067	124.93
348.279	36.86
348.491	26.62
348.703	-18.43
348.915	63.49
349.127	-4.1
349.339	47.1
349.551	86.01
349.763	118.78
349.975	10.24
350.187	12.29
350.399	-18.43
350.61	118.78
350.822	67.58
351.034	63.49
351.246	112.64
351.458	151.55
351.669	34.82
351.881	51.2
352.093	110.59
352.305	26.62
352.517	-22.53
352.728	26.62
352.94	34.82
353.152	53.25
353.363	6.14
353.575	36.86
353.787	53.25
353.999	77.82
354.21	4.1
354.422	14.34
354.633	90.11
354.845	86.01
355.057	133.12
355.268	-51.2
355.48	55.3
355.692	20.48
355.903	86.01
356.115	57.34
356.326	20.48
356.538	61.44
356.749	49.15
356.961	81.92
357.172	32.77
357.384	49.15
357.595	118.78
357.807	51.2
358.018	10.24
358.23	90.11
358.441	63.49
358.653	45.06
358.864	34.82
359.075	36.86
359.287	59.39
359.498	67.58
359.709	24.58
359.921	26.62
360.132	-6.14
360.344	116.73
360.555	2.05
360.766	30.72
360.977	53.25
361.189	92.16
361.4	14.34
361.611	-10.24
361.823	133.12
362.034	-4.1
362.245	53.25
362.456	-0
362.667	24.58
362.879	30.72
363.09	59.39
363.301	14.34
363.512	45.06
363.723	-26.62
363.935	30.72
364.146	49.15
364.357	55.3
364.568	141.31
364.779	34.82
364.99	96.25
365.201	124.93
365.412	-14.34
365.623	67.58
365.834	38.91
366.045	8.19
366.256	53.25
366.467	18.43
366.678	73.73
366.889	18.43
367.1	4.1
367.311	61.44
367.522	18.43
367.733	51.2
367.944	28.67
368.155	100.35
368.366	96.25
368.577	-40.96
368.788	86.01
368.999	-6.14
369.209	20.48
369.42	55.3
369.631	18.43
369.842	26.62
370.053	2.05
370.264	73.73
370.474	-12.29
370.685	45.06
370.896	34.82
371.107	4.1
371.317	122.88
371.528	67.58
371.739	67.58
371.95	26.62
372.16	100.35
372.371	-30.72
372.582	98.3
372.792	26.62
373.003	63.49
373.214	122.88
373.424	28.67
373.635	36.86
373.846	30.72
374.056	22.53
374.267	83.97
374.477	57.34
374.688	26.62
374.898	61.44
375.109	51.2
375.319	2.05
375.53	112.64
375.74	86.01
375.951	36.86
376.161	38.91
376.372	67.58
376.582	63.49
376.793	81.92
377.003	71.68
377.214	-10.24
377.424	110.59
377.635	98.3
377.845	30.72
378.055	92.16
378.266	-28.67
378.476	61.44
378.686	81.92
378.897	43.01
379.107	10.24
379.317	45.06
379.528	18.43
379.738	10.24
379.948	-6.14
380.158	34.82
380.369	63.49
380.579	65.53
380.789	43.01
380.999	10.24
381.21	114.69
381.42	96.25
381.63	12.29
381.84	34.82
382.05	61.44
382.261	81.92
382.471	45.06
382.681	40.96
382.891	49.15
383.101	59.39
383.311	-14.34
383.521	67.58
383.731	34.82
383.941	43.01
384.151	20.48
384.361	36.86
384.571	47.1
384.781	4.1
384.991	118.78
385.201	114.69
385.411	51.2
385.621	73.73
385.831	75.77
386.041	83.97
386.251	116.73
386.461	75.77
386.671	-20.48
386.881	96.25
387.091	77.82
387.301	55.3
387.511	65.53
387.72	12.29
387.93	120.83
388.14	53.25
388.35	51.2
388.56	92.16
388.769	47.1
388.979	67.58
389.189	59.39
389.399	110.59
389.609	96.25
389.818	69.63
390.028	36.86
390.238	92.16
390.447	6.14
390.657	-4.1
390.867	38.91
391.076	28.67
391.286	10.24
391.496	53.25
391.705	36.86
391.915	92.16
392.125	126.97
392.334	92.16
392.544	96.25
392.753	-6.14
392.963	51.2
393.172	114.69
393.382	98.3
393.591	108.54
393.801	12.29
394.01	116.73
394.22	77.82
394.429	36.86
394.639	100.35
394.848	112.64
395.058	67.58
395.267	67.58
395.477	71.68
395.686	43.01
395.895	67.58
396.105	86.01
396.314	151.55
396.524	14.34
396.733	18.43
396.942	43.01
397.152	139.26
397.361	90.11
397.57	96.25
397.78	116.73
397.989	108.54
398.198	81.92
398.407	157.69
398.617	108.54
398.826	122.88
399.035	147.45
399.244	124.93
399.453	94.21
399.663	92.16
399.872	161.79
400.081	75.77
400.29	210.94
400.499	92.16
400.708	155.65
400.917	133.12
401.127	135.17
401.336	73.73
401.545	57.34
401.754	40.96
401.963	174.08
402.172	118.78
402.381	108.54
402.59	92.16
402.799	126.97
403.008	192.51
403.217	118.78
403.426	102.4
403.635	51.2
403.844	96.25
404.053	147.45
404.262	163.84
404.471	184.32
404.68	114.69
404.888	161.79
405.097	86.01
405.306	145.41
405.515	96.25
405.724	135.17
405.933	290.81
406.142	190.46
406.35	75.77
406.559	190.46
406.768	192.51
406.977	174.08
407.185	243.71
407.394	190.46
407.603	157.69
407.812	258.04
408.02	249.85
408.229	247.8
408.438	229.37
408.646	215.04
408.855	239.61
409.064	169.98
409.272	231.42
409.481	272.38
409.69	282.62
409.898	321.53
410.107	321.53
410.315	258.04
410.524	294.91
410.733	342.01
410.941	382.97
411.15	284.67
411.358	387.07
411.567	387.07
411.775	288.76
411.984	411.64
412.192	305.15
412.401	342.01
412.609	415.74
412.818	434.17
413.026	411.64
413.234	473.08
413.443	450.55
413.651	468.98
413.86	542.71
414.068	575.48
414.276	542.71
414.485	565.24
414.693	602.1
414.901	643.06
415.11	628.73
415.318	591.86
415.526	712.69
415.734	669.69
415.943	643.06
416.151	724.98
416.359	792.56
416.567	731.12
416.776	780.28
416.984	919.54
417.192	888.82
417.4	954.35
417.608	919.54
417.817	1017.84
418.025	962.55
418.233	1001.46
418.441	1023.98
418.649	1019.89
418.857	1144.81
419.065	1120.24
419.273	1144.81
419.481	1177.58
419.689	1189.87
419.897	1263.6
420.105	1222.64
420.313	1445.87
420.521	1560.55
420.729	1433.58
420.937	1505.26
421.145	1576.94
421.353	1599.46
421.561	1740.77
421.769	1789.92
421.977	1855.46
422.185	1798.12
422.393	1886.18
422.601	2156.51
422.809	2027.49
423.017	2056.16
423.224	2125.79
423.432	2224.09
423.64	2336.73
423.848	2459.61
424.056	2406.36
424.263	2598.87
424.471	2635.74
424.679	2672.6
424.887	2824.15
425.094	2893.78
425.302	2854.87
425.51	3016.66
425.718	3059.67
425.925	3076.05
426.133	3121.1
426.341	3426.25
426.548	3553.23
426.756	3540.94
426.964	3485.64
427.171	3655.62
427.379	3788.74
427.586	3872.71
427.794	3950.53
428.001	4192.19
428.209	4360.13
428.417	4335.55
428.624	4730.81
428.832	4585.4
429.039	4599.74
429.247	4515.77
429.454	5023.67
429.662	5351.34
429.869	5085.11
430.076	5236.66
430.284	5259.18
430.491	5308.33
430.699	5875.62
430.906	5695.4
431.114	5885.86
431.321	6131.62
431.528	6320.03
431.736	6444.96
431.943	6811.54
432.15	6752.15
432.358	6725.53
432.565	7049.11
432.772	7055.25
432.979	7464.85
433.187	7524.24
433.394	7473.04
433.601	8095.62
433.808	8005.51
434.016	7950.21
434.223	8347.52
434.43	8882.04
434.637	8605.56
434.844	9127.8
435.052	9375.6
435.259	9326.45
435.466	9391.98
435.673	9371.5
435.88	9992.04
436.087	10506.08
436.294	10628.96
436.501	10338.15
436.708	10467.17
436.915	10835.8
437.122	11218.77
437.329	11220.82
437.537	11626.32
437.743	11714.38
437.95	11626.32
438.157	12152.65
438.364	12676.93
438.571	12560.19
438.778	12728.13
438.985	13989.67
439.192	13387.57
439.399	13731.63
439.606	13502.26
439.813	14163.75
440.02	14984.99
440.227	14784.29
440.433	14677.79
440.64	15484.69
440.847	14982.94
441.054	15453.97
441.261	16498.44
441.467	16283.4
441.674	16523.01
441.881	17276.66
442.088	17141.5
442.294	16799.49
442.501	17356.54
442.708	17667.83
442.914	18351.85
443.121	19406.55
443.328	18730.72
443.534	20190.92
443.741	19312.35
443.948	19193.56
444.154	20565.7
444.361	20410.06
444.568	20754.12
444.774	20735.68
444.981	20680.39
445.187	21431.99
445.394	22220.46
445.6	22132.4
445.807	23996.05
446.013	23082.66
446.22	23533.21
446.426	24534.67
446.633	24673.93
446.839	25337.47
447.046	24532.62
447.252	25835.13
447.459	25988.72
447.665	25970.29
447.871	26850.92
448.078	28102.23
448.284	26361.45
448.491	27573.85
448.697	28481.1
448.903	29163.07
449.11	29439.55
449.316	28749.39
449.522	29285.95
449.728	30117.43
449.935	30008.89
450.141	30191.16
450.347	31112.74
450.553	29990.45
450.76	30391.86
450.966	31340.07
451.172	31194.66
451.378	31903.26
451.584	31391.26
451.791	31858.2
451.997	31911.45
452.203	32482.83
452.409	32574.99
452.615	32515.6
452.821	30862.89
453.027	30762.54
453.233	32595.47
453.44	30875.18
453.646	31571.49
453.852	32011.8
454.058	31909.4
454.264	31176.23
454.47	32060.95
454.676	30996.01
454.882	32128.53
455.088	29445.69
455.294	29449.79
455.5	30787.11
455.705	30381.62
455.911	29201.99
456.117	28919.37
456.323	28237.39
456.529	26773.1
456.735	28243.54
456.941	27709.02
457.147	26928.74
457.352	26144.37
457.558	26195.57
457.764	25724.54
457.97	25511.55
458.176	25028.23
458.381	25083.52
458.587	23703.19
458.793	23756.44
458.999	22351.53
459.204	24045.2
459.41	23625.37
459.616	22269.61
459.821	22005.42
460.027	21962.42
460.233	21477.05
460.438	20731.59
460.644	20692.68
460.85	19810
461.055	19592.92
461.261	19629.78
461.466	17884.91
461.672	17450.74
461.878	18654.95
462.083	17510.13
462.289	16987.9
462.494	17096.44
462.7	16226.06
462.905	15898.38
463.111	16303.88
463.316	16250.63
463.522	16008.97
463.727	15963.92
463.932	15849.23
464.138	16103.18
464.343	15992.59
464.549	15427.35
464.754	15722.26
464.959	15574.8
465.165	15398.68
465.37	14831.39
465.575	14673.7
465.781	15122.2
465.986	14968.6
466.191	14651.17
466.397	14446.37
466.602	13612.85
466.807	14235.43
467.012	14348.07
467.218	14067.5
467.423	13842.22
467.628	14092.07
467.833	14726.94
468.038	14184.23
468.244	13692.72
468.449	14264.1
468.654	13877.04
468.859	13762.35
469.064	13348.66
469.269	13086.52
469.474	13051.7
469.679	13387.57
469.885	13012.79
470.09	13193.01
470.295	13354.8
470.5	13068.09
470.705	12965.69
470.91	12484.42
471.115	12525.38
471.32	12652.35
471.525	12676.93
471.73	12253
471.935	12439.36
472.139	12103.5
472.344	11937.61
472.549	11806.54
472.754	11988.81
472.959	11458.39
473.164	11339.6
473.369	11331.41
473.574	11702.09
473.778	11259.73
473.983	11245.4
474.188	11208.53
474.393	10735.45
474.598	10860.38
474.802	10381.15
475.007	10561.37
475.212	10659.68
475.417	10465.12
475.621	10381.15
475.826	10442.59
476.031	10088.29
476.235	9684.84
476.44	10303.33
476.645	9910.12
476.849	9971.56
477.054	9807.72
477.259	9637.74
477.463	9699.18
477.668	9523.05
477.872	9535.34
478.077	9451.38
478.282	9000.82
478.486	9095.03
478.691	8884.09
478.895	8818.55
479.1	8984.44
479.304	8980.34
479.509	8628.09
479.713	9037.69
479.918	8667
480.122	8517.5
480.326	8597.37
480.531	8621.95
480.735	8611.71
480.94	8456.06
481.144	8701.82
481.348	8333.18
481.553	8636.28
481.757	8507.26
481.961	8529.79
482.166	8667
482.37	8435.58
482.574	8234.88
482.778	8300.42
482.983	8556.41
483.187	8337.28
483.391	8259.46
483.595	8204.16
483.8	8226.69
484.004	8247.17
484.208	8140.68
484.412	8204.16
484.616	8275.84
484.821	8349.57
485.025	8075.14
485.229	8402.82
485.433	8163.2
485.637	8245.12
485.841	8384.38
486.045	8216.45
486.249	8419.2
486.453	8204.16
486.657	8112
486.861	8050.57
487.065	8081.28
487.269	8349.57
487.473	8058.76
487.677	8357.76
487.881	8413.06
488.085	8359.81
488.289	8368
488.493	8155.01
488.697	8458.11
488.901	8341.38
489.105	8243.07
489.309	8312.71
489.512	8390.53
489.716	8331.14
489.92	8324.99
490.124	8400.77
490.328	8494.97
490.531	8437.63
490.735	8417.15
490.939	8499.07
491.143	8402.82
491.346	8486.78
491.55	8755.07
491.754	8679.29
491.958	8783.74
492.161	8490.88
492.365	8783.74
492.569	8531.84
492.772	8656.76
492.976	8972.15
493.18	8806.27
493.383	9070.45
493.587	8863.61
493.79	9056.12
493.994	8982.39
494.197	9031.54
494.401	9146.23
494.605	9156.47
494.808	9203.57
495.012	9217.91
495.215	9416.56
495.419	9609.07
495.622	9504.62
495.825	9521.01
496.029	9817.96
496.232	9740.14
496.436	9647.98
496.639	9793.39
496.843	9953.13
497.046	10190.69
497.249	10436.45
497.453	10205.03
497.656	10336.1
497.859	10182.5
498.063	10467.17
498.266	10757.98
498.469	10749.79
498.673	10792.8
498.876	11036.5
499.079	10911.58
499.282	11124.57
499.485	11521.87
499.689	11341.65
499.892	11595.6
500.095	11566.93
500.298	11767.63
500.501	11757.39
500.705	12377.92
500.908	11997
501.111	12293.96
501.314	12494.66
501.517	12605.25
501.72	12711.74
501.923	12789.56
502.126	12939.07
502.329	12953.4
502.532	13276.98
502.735	13330.23
502.938	13537.07
503.141	13553.46
503.344	13739.82
503.547	13901.61
503.75	13915.95
503.953	14378.79
504.156	14288.68
504.359	14550.82
504.562	14694.18
504.765	15146.78
504.968	14905.12
505.17	15263.51
505.373	15208.22
505.576	15566.61
505.779	15644.43
505.982	15886.09
506.185	15779.6
506.387	16160.52
506.59	16195.34
506.793	16518.92
506.996	16455.43
507.198	16992
507.401	16789.25
507.604	17215.23
507.807	17288.95
508.009	17534.71
508.212	17719.03
508.415	17889.01
508.617	18226.92
508.82	18071.28
509.022	18212.59
509.225	18626.28
509.428	18771.68
509.63	18751.2
509.833	19066.59
510.035	19441.37
510.238	19320.54
510.44	19404.5
510.643	19627.73
510.845	20129.48
511.048	20278.99
511.25	20190.92
511.453	20469.45
511.655	21186.24
511.858	20905.66
512.06	21225.15
512.262	21259.96
512.465	21587.64
512.667	21872.31
512.87	21921.46
513.072	22036.14
513.274	22269.61
513.477	22560.42
513.679	22703.78
513.881	23180.96
514.084	23307.93
514.286	23279.26
514.488	23541.4
514.69	24012.43
514.893	23979.67
515.095	24266.38
515.297	24379.02
515.499	24419.98
515.701	24620.68
515.904	25206.4
516.106	25124.48
516.308	25370.24
516.51	25661.05
516.712	25937.52
516.914	25845.37
517.116	26254.96
517.318	26508.91
517.52	26676.84
517.722	26840.68
517.925	27295.33
518.127	27596.38
518.329	27686.49
518.531	27588.19
518.733	27907.67
518.935	28323.41
519.136	28307.02
519.338	29001.29
519.54	28825.16
519.742	29296.19
519.944	29253.19
520.146	29877.82
520.348	30041.65
520.55	29652.54
520.752	30256.69
520.954	30717.48
521.155	30533.17
521.357	30742.06
521.559	31102.5
521.761	31854.11
521.963	31495.71
522.164	31792.67
522.366	31860.25
522.568	32099.86
522.77	32214.55
522.971	32908.81
523.173	32282.13
523.375	32953.87
523.576	32986.63
523.778	32927.24
523.98	33144.33
524.181	33742.33
524.383	33572.35
524.584	33963.51
524.786	34033.14
524.988	33875.45
525.189	34158.07
525.391	34366.96
525.592	34590.19
525.794	34801.13
525.995	34817.52
526.197	34883.05
526.398	35085.8
526.6	35515.87
526.801	35339.75
527.003	35603.94
527.204	35300.84
527.406	35796.45
527.607	36087.26
527.808	35960.28
528.01	35601.89
528.211	36099.55
528.412	36617.68
528.614	36629.97
528.815	36607.44
529.016	36732.37
529.218	36523.47
529.419	36386.26
529.62	36632.02
529.822	36535.76
530.023	37072.33
530.224	36939.21
530.425	36793.81
530.626	36758.99
530.828	36492.76
531.029	37662.15
531.23	37115.34
531.431	37219.78
531.632	37215.69
531.833	37471.68
532.035	36998.6
532.236	36908.49
532.437	37590.47
532.638	37473.73
532.839	37602.75
533.04	37363.14
533.241	37557.7
533.442	37664.19
533.643	37512.64
533.844	37479.88
534.045	37637.57
534.246	37725.63
534.447	37815.74
534.648	37174.73
534.849	37365.19
535.05	37072.33
535.251	37481.92
535.451	37709.25
535.652	37533.12
535.853	37621.19
536.054	37731.78
536.255	37830.08
536.456	37551.56
536.657	37891.52
536.857	37297.61
537.058	37383.62
537.259	37868.99
537.46	37879.23
537.66	37469.64
537.861	37588.42
538.062	37719.49
538.263	37987.77
538.463	37686.72
538.664	37387.72
538.865	37631.43
539.065	38094.27
539.266	37309.89
539.466	37862.85
539.667	37053.9
539.868	37811.65
540.068	37467.59
540.269	37440.96
540.469	37729.73
540.67	37316.04
540.87	37488.07
541.071	37340.61
541.271	37754.3
541.472	37209.54
541.672	37459.4
541.873	37230.02
542.073	37129.67
542.274	37707.2
542.474	37486.02
542.675	37297.61
542.875	37639.62
543.075	37088.71
543.276	37092.81
543.476	37615.04
543.676	37115.34
543.877	37309.89
544.077	37533.12
544.277	37303.75
544.478	37397.96
544.678	37338.57
544.878	37307.85
545.078	37311.94
545.279	37053.9
545.479	36808.14
545.679	37686.72
545.879	37363.14
546.079	37006.8
546.28	37123.53
546.48	37060.04
546.68	37092.81
546.88	36953.55
547.08	37051.85
547.28	36791.76
547.48	37152.2
547.68	37475.78
547.88	37064.14
548.081	37590.47
548.281	37367.24
548.481	36881.87
548.681	37453.25
548.881	37039.56
549.081	37242.31
549.28	37029.32
549.48	37187.02
549.68	36754.9
549.88	37541.32
550.08	37029.32
550.28	37096.91
550.48	37150.15
550.68	37369.29
550.88	36963.79
551.08	36869.58
551.279	36920.78
551.479	36287.96
551.679	37023.18
551.879	36799.95
552.079	36963.79
552.278	36488.66
552.478	36873.68
552.678	37014.99
552.878	37010.89
553.077	36953.55
553.277	36390.36
553.477	37076.43
553.676	36595.15
553.876	36935.12
554.076	36400.6
554.275	36625.87
554.475	35964.38
554.674	36634.07
554.874	36279.77
555.074	36910.54
555.273	36779.47
555.473	36564.43
555.672	36107.74
555.872	36306.39
556.071	36163.03
556.271	36267.48
556.47	36351.45
556.67	35948
556.869	36224.47
557.068	36117.98
557.268	35921.37
557.467	36214.23
557.667	36138.46
557.866	35986.91
558.065	36021.72
558.265	35800.54
558.464	35354.08
558.663	36318.68
558.863	35648.99
559.062	36158.94
559.261	35550.69
559.461	35706.34
559.66	35169.77
559.859	35546.59
560.058	35388.9
560.258	35425.76
560.457	34899.44
560.656	35659.23
560.855	35274.21
561.054	35323.36
561.253	35046.89
561.453	35202.53
561.652	35114.47
561.851	35456.48
562.05	34967.02
562.249	34921.96
562.448	35419.62
562.647	34897.39
562.846	34649.58
563.045	34938.35
563.244	34448.88
563.443	34964.97
563.642	34414.07
563.841	34725.36
564.04	34299.38
564.239	34866.67
564.438	34303.48
564.637	34606.58
564.836	34403.83
565.035	34020.86
565.234	33983.99
565.432	34137.59
565.631	33969.66
565.83	34082.3
566.029	33822.2
566.228	33748.48
566.427	33879.55
566.625	33435.14
566.824	33428.99
567.023	33771
567.222	33416.71
567.42	33482.24
567.619	33492.48
567.818	33371.65
568.016	33199.62
568.215	33652.22
568.414	32749.07
568.612	33234.44
568.811	32697.87
569.01	33283.59
569.208	32726.54
569.407	32896.52
569.605	32603.66
569.804	33203.72
570.002	32675.34
570.201	32953.87
570.4	32300.56
570.598	31823.39
570.797	32351.76
570.995	32370.19
571.193	32306.71
571.392	32626.19
571.59	32093.72
571.789	32056.85
571.987	32071.19
572.186	31647.26
572.384	31841.82
572.582	31739.42
572.781	31931.93
572.979	31405.6
573.177	31557.15
573.376	31653.4
573.574	31401.5
573.772	31434.27
573.971	30922.28
574.169	31329.83
574.367	30916.14
574.565	30789.16
574.763	30774.83
574.962	30533.17
575.16	30455.34
575.358	30639.66
575.556	30492.21
575.754	31100.45
575.952	30162.48
576.151	30508.59
576.349	30031.41
576.547	30219.83
576.745	30094.9
576.943	30373.42
577.141	30133.81
577.339	30228.02
577.537	29959.73
577.735	30105.14
577.933	29435.45
578.131	29621.82
578.329	29390.4
578.527	29290.05
578.725	29201.99
578.923	29638.2
579.121	29312.58
579.319	29247.04
579.516	29390.4
579.714	29167.17
579.912	29066.82
580.11	29040.2
580.308	29175.36
580.506	28862.02
580.704	28563.02
580.901	28917.32
581.099	28978.76
581.297	28608.08
581.495	28436.05
581.692	28743.24
581.89	28091.99
582.088	28556.88
582.285	28089.94
582.483	28292.69
582.681	28040.79
582.878	27973.21
583.076	27713.11
583.274	28081.75
583.471	27510.36
583.669	27938.39
583.866	27518.56
584.064	27580
584.262	27582.04
584.459	27580
584.657	27223.65
584.854	27256.42
585.052	26732.14
585.249	27225.7
585.447	27305.57
585.644	26836.58
585.841	26859.11
586.039	27096.67
586.236	26576.49
586.434	26963.56
586.631	26639.98
586.828	26603.11
587.026	26871.4
587.223	26328.69
587.42	26252.91
587.618	26295.92
587.815	26418.8
588.012	26207.86
588.21	25845.37
588.407	26041.97
588.604	25855.61
588.801	25757.3
588.999	25687.67
589.196	25501.31
589.393	25712.25
589.59	26066.55
589.787	25384.57
589.984	25284.22
590.182	25007.75
590.379	25243.26
590.576	25319.04
590.773	25560.7
590.97	25257.6
591.167	25120.38
591.364	24700.55
591.561	25077.38
591.758	24757.89
591.955	24637.06
592.152	24592.01
592.349	24620.68
592.546	24458.89
592.743	24575.62
592.94	24217.23
593.137	24729.22
593.334	24362.64
593.531	24163.98
593.727	23881.36
593.924	24143.5
594.121	23754.39
594.318	24047.25
594.515	23731.86
594.712	24278.67
594.908	23617.18
595.105	23803.54
595.302	23434.91
595.499	23617.18
595.696	23385.76
595.892	23240.35
596.089	23357.08
596.286	23252.64
596.482	23111.33
596.679	22994.59
596.876	23058.08
597.072	22920.87
597.269	22963.87
597.466	22761.12
597.662	22709.93
597.859	22941.35
598.055	22652.58
598.252	22369.96
598.448	22728.36
598.645	22234.8
598.841	22269.61
599.038	22386.35
599.234	22079.15
599.431	22050.48
599.627	22347.43
599.824	22001.33
600.02	21765.81
600.217	22007.47
600.413	21984.94
600.609	21628.6
600.806	21669.56
601.002	21821.11
601.198	21536.44
601.395	21520.06
601.591	21456.57
601.787	21190.33
601.984	20944.58
602.18	21472.95
602.376	21165.76
602.572	21575.35
602.769	20965.06
602.965	20893.38
603.161	21163.71
603.357	20721.35
603.553	20805.31
603.75	20948.67
603.946	20473.54
604.142	20590.28
604.338	20332.23
604.534	20815.55
604.73	20489.93
604.926	20168.4
605.122	20344.52
605.318	20080.33
605.514	20123.34
605.71	20104.91
605.906	19805.91
606.102	20223.69
606.298	20133.58
606.494	19875.54
606.69	20041.42
606.886	19842.77
607.082	19412.7
607.278	19914.45
607.474	19576.53
607.67	19967.7
607.866	19316.44
608.062	19836.63
608.257	19611.35
608.453	19437.27
608.649	19441.37
608.845	19470.04
609.041	19318.49
609.236	19318.49
609.432	19154.65
609.628	19191.52
609.824	18964.19
610.019	19097.31
610.215	18939.61
610.411	19304.15
610.606	19201.75
610.802	18806.5
610.998	18790.11
611.193	18812.64
611.389	18630.37
611.584	18513.64
611.78	18573.03
611.976	18728.67
612.171	18888.42
612.367	18439.91
612.562	18642.66
612.758	18245.35
612.953	18355.94
613.149	18640.61
613.344	18370.28
613.539	18630.37
613.735	18175.72
613.93	18433.77
614.126	18312.94
614.321	18355.94
614.517	18415.33
614.712	18089.71
614.907	18022.12
615.103	18255.59
615.298	18138.86
615.493	18122.48
615.688	17936.11
615.884	18212.59
616.079	17821.42
616.274	18034.41
616.47	17792.75
616.665	18052.84
616.86	17655.54
617.055	17839.86
617.25	17874.67
617.445	18134.76
617.641	17325.82
617.836	17671.92
618.031	17458.93
618.226	17540.85
618.421	17397.49
618.616	17602.29
618.811	17272.57
619.006	17432.31
619.201	16846.59
619.396	17260.28
619.591	16932.61
619.786	17055.48
619.981	16819.97
620.176	16834.3
620.371	16846.59
620.566	16754.43
620.761	16584.45
620.956	16537.35
621.151	16504.58
621.346	16576.26
621.541	16367.37
621.735	16414.47
621.93	16074.51
622.125	16256.78
622.32	15697.68
622.515	16140.04
622.709	15791.89
622.904	15675.15
623.099	15832.85
623.294	16080.65
623.488	15398.68
623.683	15615.76
623.878	15394.58
624.072	15132.44
624.267	15118.11
624.462	15150.87
624.656	15015.71
624.851	15146.78
625.046	14894.88
625.24	15165.21
625.435	14837.53
625.629	14759.71
625.824	14540.58
626.018	14585.63
626.213	14376.74
626.407	14460.71
626.602	14311.21
626.796	14266.15
626.991	14337.83
627.185	14133.03
627.38	14008.11
627.574	13952.81
627.768	13641.52
627.963	13666.1
628.157	13739.82
628.352	13670.19
628.546	13526.83
628.74	13659.95
628.935	13449.01
629.129	13301.56
629.323	13317.94
629.517	13176.63
629.712	13111.1
629.906	13031.23
630.1	12799.8
630.294	12894.01
630.489	12826.43
630.683	12791.61
630.877	12650.3
631.071	12711.74
631.265	12693.31
631.459	12613.44
631.653	12361.54
631.848	12392.26
632.042	12420.93
632.236	12488.51
632.43	12158.79
632.624	12083.02
632.818	12089.16
633.012	12117.83
633.206	12054.34
633.4	12052.3
633.594	12052.3
633.788	11685.71
633.982	11935.56
634.176	11667.28
634.369	11775.82
634.563	11573.07
634.757	11333.46
634.951	11370.32
635.145	11153.24
635.339	11339.6
635.533	11257.68
635.726	11104.09
635.92	11001.69
636.114	11204.44
636.308	11063.13
636.501	10925.91
636.695	11069.27
636.889	10737.5
637.083	10731.36
637.276	10563.42
637.47	10458.98
637.664	10485.6
637.857	10667.87
638.051	10446.69
638.244	10266.47
638.438	10375.01
638.632	10307.43
638.825	10159.97
639.019	10225.51
639.212	10180.45
639.406	10186.6
639.599	10252.13
639.793	10094.44
639.986	9680.75
640.18	9746.28
640.373	9807.72
640.567	9799.53
640.76	9721.71
640.954	9674.6
641.147	9639.79
641.34	9410.42
641.534	9389.94
641.727	9549.68
641.92	9572.21
642.114	9277.3
642.307	9494.38
642.5	9391.98
642.694	8994.68
642.887	9115.51
643.08	9265.01
643.273	9162.61
643.467	9189.24
643.66	8990.58
643.853	9189.24
644.046	8875.9
644.239	8920.95
644.432	8673.15
644.626	8738.68
644.819	8789.88
645.012	8761.21
645.205	8667
645.398	8605.56
645.591	8345.47
645.784	8564.61
645.977	8374.14
646.17	8583.04
646.363	8345.47
646.556	8224.64
646.749	8386.43
646.942	8337.28
647.135	8320.9
647.328	8152.96
647.521	8120.2
647.714	7997.32
647.907	7870.34
648.099	7808.9
648.292	7841.67
648.485	7888.78
648.678	7772.04
648.871	7530.38
649.064	7675.79
649.256	7688.07
649.449	7817.1
649.642	7702.41
649.835	7538.57
650.027	7649.16
650.22	7552.91
650.413	7552.91
650.605	7638.92
650.798	7448.46
650.991	7235.47
651.183	7391.12
651.376	7088.02
651.568	7092.12
651.761	7128.98
651.954	7088.02
652.146	7284.62
652.339	7010.2
652.531	6950.81
652.724	6942.61
652.916	6772.63
653.109	6918.04
653.301	6737.82
653.494	6944.66
653.686	6715.29
653.879	6932.37
654.071	6885.27
654.263	6746.01
654.456	6600.6
654.648	6655.9
654.84	6573.98
655.033	6492.06
655.225	6596.51
655.417	6547.36
655.61	6485.92
655.802	6551.45
655.994	6535.07
656.186	6563.74
656.379	6383.52
656.571	6205.35
656.763	6479.77
656.955	6272.93
657.148	6328.22
657.34	6143.91
657.532	6111.14
657.724	6180.77
657.916	6121.38
658.108	6131.62
658.3	5975.97
658.492	5996.45
658.684	5855.14
658.876	5875.62
659.068	5863.33
659.26	5853.09
659.452	5681.07
659.644	5836.71
659.836	5642.15
660.028	5789.61
660.22	5654.44
660.412	5664.68
660.604	5656.49
660.796	5621.67
660.988	5521.32
661.18	5646.25
661.372	5476.27
661.563	5408.69
661.755	5648.3
661.947	5402.54
662.139	5341.1
662.331	5228.46
662.522	5167.03
662.714	5255.09
662.906	5175.22
663.097	5173.17
663.289	5197.74
663.481	5132.21
663.673	5222.32
663.864	5060.53
664.056	5294
664.247	5048.24
664.439	4886.45
664.631	5138.35
664.822	5126.07
665.014	5158.83
665.205	4986.8
665.397	4935.6
665.588	4904.89
665.78	4999.09
665.971	4794.29
666.163	4810.68
666.354	4884.41
666.546	4777.91
666.737	4673.46
666.929	4687.8
667.12	4802.49
667.311	4636.6
667.503	4624.31
667.694	4847.54
667.885	4618.17
668.077	4487.1
668.268	4558.78
668.459	4544.44
668.651	4548.54
668.842	4487.1
669.033	4435.9
669.224	4337.6
669.416	4464.57
669.607	4247.49
669.798	4327.36
669.989	4415.42
670.18	4509.63
670.371	4274.11
670.563	4286.4
670.754	4313.02
670.945	4349.89
671.136	4329.41
671.327	4220.86
671.518	4108.23
671.709	4288.45
671.9	4194.24
672.091	4081.6
672.282	4040.64
672.473	4155.33
672.664	4116.42
672.855	4091.84
673.046	4059.07
673.237	4063.17
673.428	4085.7
673.619	4245.44
673.809	4106.18
674	3917.76
674.191	4024.26
674.382	3876.8
674.573	4044.74
674.764	3928
674.954	3944.39
675.145	3936.2
675.336	3844.04
675.527	3880.9
675.717	3876.8
675.908	3844.04
676.099	3753.93
676.289	3794.89
676.48	3846.09
676.671	3864.52
676.861	3891.14
677.052	3870.66
677.243	3731.4
677.433	3755.97
677.624	3725.26
677.814	3663.82
678.005	3731.4
678.195	3680.2
678.386	3639.24
678.576	3674.06
678.767	3643.34
678.957	3696.58
679.148	3639.24
679.338	3631.05
679.529	3655.62
679.719	3524.55
679.909	3659.72
680.1	3665.86
680.29	3516.36
680.481	3416.01
680.671	3598.28
680.861	3555.27
681.052	3522.51
681.242	3368.91
681.432	3524.55
681.622	3278.8
681.813	3475.4
682.003	3516.36
682.193	3348.43
682.383	3362.76
682.573	3510.22
682.764	3401.68
682.954	3379.15
683.144	3315.66
683.334	3352.52
683.524	3323.85
683.714	3413.96
683.904	3198.93
684.094	3368.91
684.284	3284.94
684.474	3327.95
684.664	3330
684.854	3313.61
685.044	3317.71
685.234	3297.23
685.424	3160.02
685.614	3289.04
685.804	3215.31
685.994	3274.7
686.184	3256.27
686.374	3262.41
686.564	3299.28
686.753	3098.58
686.943	3078.1
687.133	3123.15
687.323	3123.15
687.513	3074
687.702	3082.19
687.892	3076.05
688.082	3043.28
688.272	3043.28
688.461	3219.41
688.651	3086.29
688.841	3092.43
689.03	2985.94
689.22	3067.86
689.41	3041.23
689.599	3010.51
689.789	2967.51
689.979	2975.7
690.168	2983.89
690.358	2893.78
690.547	2934.74
690.737	2996.18
690.926	2979.79
691.116	2844.63
691.305	2904.02
691.495	2977.75
691.684	2789.33
691.874	2953.17
692.063	2729.94
692.252	2881.49
692.442	2815.96
692.631	2772.95
692.82	2717.65
693.01	2762.71
693.199	2762.71
693.388	2801.62
693.578	2723.8
693.767	2684.89
693.956	2715.61
694.146	2648.02
694.335	2785.24
694.524	2648.02
694.713	2709.46
694.902	2684.89
695.092	2656.22
695.281	2697.17
695.47	2729.94
695.659	2658.26
695.848	2641.88
696.037	2656.22
696.226	2496.47
696.415	2615.26
696.604	2648.02
696.793	2609.11
696.982	2473.95
697.171	2514.91
697.36	2572.25
697.549	2574.3
697.738	2502.62
697.927	2615.26
698.116	2375.64
698.305	2404.32
698.494	2543.58
698.683	2361.31
698.872	2543.58
699.061	2422.75
699.25	2527.19
699.438	2512.86
699.627	2457.56
699.816	2408.41
700.005	2422.75
700.193	2295.77
700.382	2551.77
700.571	2494.43
700.76	2363.36
700.948	2344.92
701.137	2471.9
701.326	2539.48
701.514	2437.08
701.703	2398.17
701.892	2338.78
702.08	2406.36
702.269	2443.23
702.457	2353.12
702.646	2459.61
702.834	2312.16
703.023	2244.57
703.212	2328.54
703.4	2289.63
703.589	2254.81
703.777	2377.69
703.965	2254.81
704.154	2246.62
704.342	2275.29
704.531	2312.16
704.719	2283.49
704.907	2430.94
705.096	2334.68
705.284	2250.72
705.472	2248.67
705.661	2418.65
705.849	2389.98
706.037	2394.08
706.226	2371.55
706.414	2320.35
706.602	2287.58
706.79	2267.1
706.979	2306.01
707.167	2254.81
707.355	2230.24
707.543	2367.45
707.731	2275.29
707.919	2373.6
708.107	2283.49
708.296	2273.25
708.484	2209.76
708.672	2299.87
708.86	2314.2
709.048	2226.14
709.236	2279.39
709.424	2283.49
709.612	2162.65
709.8	2144.22
709.988	2320.35
710.176	2226.14
710.364	2271.2
710.551	2344.92
710.739	2215.9
710.927	2181.09
711.115	2344.92
711.303	2232.29
711.491	2326.49
711.679	2191.33
711.866	2254.81
712.054	2205.66
712.242	2361.31
712.43	2369.5
712.617	2273.25
712.805	2418.65
712.993	2291.68
713.181	2185.18
713.368	2308.06
713.556	2156.51
713.744	2148.32
713.931	2197.47
714.119	2324.44
714.306	2263.01
714.494	2306.01
714.682	2213.85
714.869	2260.96
715.057	2267.1
715.244	2199.52
715.432	2316.25
715.619	2142.18
715.807	2164.7
715.994	2303.96
716.182	2265.05
716.369	2263.01
716.556	2246.62
716.744	2244.57
716.931	2322.4
717.119	2363.36
717.306	2258.91
717.493	2140.13
717.681	2156.51
717.868	2297.82
718.055	2146.27
718.242	2191.33
718.43	2238.43
718.617	2308.06
718.804	2131.94
718.991	2203.61
719.179	2295.77
719.366	2232.29
719.553	2260.96
719.74	2199.52
719.927	2127.84
720.114	2191.33
720.301	2232.29
720.488	2211.81
720.676	2146.27
720.863	2148.32
721.05	2263.01
721.237	2242.53
721.424	2363.36
721.611	2287.58
721.798	2213.85
721.985	2181.09
722.172	2174.94
722.358	2267.1
722.545	2115.55
722.732	2164.7
722.919	2240.48
723.106	2297.82
723.293	2336.73
723.48	2248.67
723.667	2156.51
723.853	2275.29
724.04	2232.29
724.227	2168.8
724.414	2107.36
724.6	2234.33
724.787	2258.91
724.974	2164.7
725.161	2289.63
725.347	2156.51
725.534	2244.57
725.72	2226.14
725.907	2209.76
726.094	2310.11
726.28	2156.51
726.467	2181.09
726.653	2195.42
726.84	2193.37
727.027	2369.5
727.213	2238.43
727.4	2260.96
727.586	2226.14
727.773	2172.89
727.959	2295.77
728.145	2238.43
728.332	2205.66
728.518	2164.7
728.705	2279.39
728.891	2226.14
729.077	2207.71
729.264	2238.43
729.45	2303.96
729.636	2263.01
729.823	2291.68
730.009	2271.2
730.195	2183.13
730.382	2369.5
730.568	2121.7
730.754	2310.11
730.94	2289.63
731.126	2172.89
731.313	2211.81
731.499	2090.98
731.685	2332.64
731.871	2303.96
732.057	2277.34
732.243	2213.85
732.429	2256.86
732.615	2353.12
732.801	2279.39
732.987	2172.89
733.173	2172.89
733.359	2316.25
733.545	2150.37
733.731	2301.92
733.917	2281.44
734.103	2258.91
734.289	2295.77
734.475	2111.46
734.661	2402.27
734.847	2203.61
735.033	2172.89
735.219	2189.28
735.404	2248.67
735.59	2312.16
735.776	2275.29
735.962	2293.72
736.148	2254.81
736.333	2314.2
736.519	2258.91
736.705	2254.81
736.89	2265.05
737.076	2144.22
737.262	2107.36
737.447	2236.38
737.633	2168.8
737.819	2287.58
738.004	2238.43
738.19	2228.19
738.375	2172.89
738.561	2248.67
738.747	2136.03
738.932	2140.13
739.118	2250.72
739.303	2213.85
739.489	2207.71
739.674	2127.84
739.859	2197.47
740.045	2078.69
740.23	2183.13
740.416	2095.07
740.601	2275.29
740.786	2105.31
740.972	2111.46
741.157	2131.94
741.342	2093.02
741.528	2220
741.713	2156.51
741.898	2076.64
742.084	2189.28
742.269	2064.35
742.454	2088.93
742.639	2148.32
742.824	2117.6
743.01	2033.63
743.195	2060.26
743.38	1996.77
743.565	1984.48
743.75	2060.26
743.935	2027.49
744.12	2172.89
744.305	2041.82
744.49	2054.11
744.675	2041.82
744.86	1867.75
745.045	1994.72
745.23	1943.52
745.415	1847.27
745.6	1953.76
745.785	1894.37
745.97	1918.95
746.155	1947.62
746.34	1955.81
746.525	1929.19
746.71	1890.28
746.895	1877.99
747.079	1886.18
747.264	1896.42
747.449	2029.54
747.634	1929.19
747.819	1834.98
748.003	1841.12
748.188	1781.73
748.373	1746.92
748.557	1763.3
748.742	1755.11
748.927	1757.16
749.111	1746.92
749.296	1783.78
749.481	1771.49
749.665	1730.53
749.85	1689.57
750.034	1804.26
750.219	1730.53
750.404	1632.23
750.588	1587.18
750.773	1593.32
750.957	1765.35
751.141	1656.81
751.326	1652.71
751.51	1708.01
751.695	1652.71
751.879	1574.89
752.064	1701.86
752.248	1554.41
752.432	1640.42
752.617	1578.98
752.801	1617.9
752.985	1533.93
753.17	1550.31
753.354	1492.97
753.538	1632.23
753.722	1435.63
753.907	1404.91
754.091	1538.02
754.275	1380.33
754.459	1423.34
754.643	1435.63
754.828	1429.48
755.012	1423.34
755.196	1443.82
755.38	1406.95
755.564	1427.43
755.748	1380.33
755.932	1279.98
756.116	1347.56
756.3	1353.71
756.484	1341.42
756.668	1394.67
756.852	1279.98
757.036	1304.56
757.22	1376.23
757.404	1271.79
757.588	1279.98
757.772	1341.42
757.956	1300.46
758.14	1435.63
758.323	1210.35
758.507	1320.94
758.691	1249.26
758.875	1359.85
759.059	1249.26
759.242	1181.68
759.426	1218.54
759.61	1159.15
759.794	1189.87
759.977	1271.79
760.161	1206.25
760.345	1191.92
760.528	1175.53
760.712	1054.7
760.895	1165.29
761.079	1251.31
761.263	1095.66
761.446	1132.53
761.63	1224.69
761.813	1144.81
761.997	1124.33
762.18	1130.48
762.364	1132.53
762.547	997.36
762.731	1054.7
762.914	1101.81
763.098	1185.77
763.281	1095.66
763.464	1134.57
763.648	1060.85
763.831	1015.79
764.015	1200.11
764.198	1107.95
764.381	1112.05
764.564	1077.23
764.748	1140.72
764.931	1021.94
765.114	1066.99
765.297	1083.38
765.481	956.4
765.664	1050.61
765.847	983.02
766.03	1001.46
766.213	1066.99
766.397	1001.46
766.58	1066.99
766.763	1034.22
766.946	1044.46
767.129	919.54
767.312	1028.08
767.495	923.63
767.678	937.97
767.861	942.07
768.044	911.35
768.227	976.88
768.41	919.54
768.593	1009.65
768.776	937.97
768.959	886.77
769.142	985.07
769.324	1001.46
769.507	1042.42
769.69	989.17
769.873	987.12
770.056	923.63
770.239	894.96
770.421	995.31
770.604	929.78
770.787	927.73
770.97	899.06
771.152	829.43
771.335	884.72
771.518	880.63
771.7	897.01
771.883	862.19
772.066	868.34
772.248	911.35
772.431	870.39
772.613	811
772.796	911.35
772.978	858.1
773.161	808.95
773.343	915.44
773.526	878.58
773.708	845.81
773.891	780.28
774.073	804.85
774.256	780.28
774.438	825.33
774.621	813.04
774.803	798.71
774.985	800.76
775.168	731.12
775.35	808.95
775.532	833.52
775.715	763.89
775.897	813.04
776.079	722.93
776.261	649.21
776.444	714.74
776.626	749.56
776.808	722.93
776.99	806.9
777.173	755.7
777.355	731.12
777.537	749.56
777.719	692.21
777.901	778.23
778.083	698.36
778.265	681.97
778.447	669.69
778.629	731.12
778.811	718.84
778.993	634.87
779.175	784.37
779.357	710.65
779.539	575.48
779.721	630.77
779.903	716.79
780.085	632.82
780.267	765.94
780.449	626.68
780.631	669.69
780.812	694.26
780.994	645.11
781.176	620.53
781.358	663.54
781.54	612.34
781.721	694.26
781.903	516.09
782.085	569.34
782.267	526.33
782.448	593.91
782.63	550.9
782.812	532.47
782.993	575.48
783.175	544.76
783.357	548.86
783.538	487.42
783.72	456.7
783.901	591.86
784.083	538.62
784.264	552.95
784.446	530.42
784.627	464.89
784.809	495.61
784.99	530.42
785.172	495.61
785.353	516.09
785.535	471.03
785.716	456.7
785.897	514.04
786.079	526.33
786.26	487.42
786.441	493.56
786.623	448.51
786.804	397.31
786.985	493.56
787.167	485.37
787.348	358.39
787.529	477.18
787.71	501.75
787.891	411.64
788.073	401.4
788.254	428.03
788.435	471.03
788.616	403.45
788.797	370.68
788.978	456.7
789.159	518.14
789.34	372.73
789.522	479.22
789.703	370.68
789.884	448.51
790.065	395.26
790.246	438.27
790.427	415.74
790.607	434.17
790.788	348.15
790.969	331.77
791.15	364.54
791.331	339.96
791.512	276.48
791.693	274.43
791.874	313.34
792.054	366.59
792.235	464.89
792.416	387.07
792.597	350.2
792.778	411.64
792.958	272.38
793.139	436.22
793.32	370.68
793.5	307.2
793.681	452.6
793.862	329.72
794.042	325.63
794.223	245.76
794.404	278.52
794.584	223.23
794.765	309.24
794.945	368.63
795.126	346.11
795.306	376.83
795.487	305.15
795.667	280.57
795.848	337.91
796.028	366.59
796.209	309.24
796.389	354.3
796.57	296.96
796.75	315.39
796.93	405.5
797.111	274.43
797.291	268.28
797.471	288.76
797.652	296.96
797.832	227.32
798.012	354.3
798.192	208.89
798.373	266.24
798.553	321.53
798.733	264.19
798.913	290.81
799.093	258.04
799.274	319.48
799.454	296.96
799.634	247.8
799.814	268.28
799.994	331.77
800.174	290.81
800.354	290.81
800.534	169.98
800.714	288.76
800.894	264.19
801.074	167.93
801.254	198.65
801.434	249.85
801.614	237.56
801.794	174.08
801.974	903.15
802.154	317.44
802.334	329.72
802.514	260.09
802.693	299
802.873	315.39
803.053	296.96
803.233	186.37
803.413	174.08
803.592	143.36
803.772	253.95
803.952	215.04
804.131	215.04
804.311	253.95
804.491	272.38
804.67	190.46
804.85	206.84
805.03	206.84
805.209	237.56
805.389	186.37
805.568	223.23
805.748	241.66
805.928	135.17
806.107	174.08
806.287	237.56
806.466	178.17
806.646	196.6
806.825	206.84
807.004	178.17
807.184	262.14
807.363	196.6
807.543	245.76
807.722	112.64
807.901	157.69
808.081	223.23
808.26	180.22
808.439	172.03
808.619	206.84
808.798	83.97
808.977	118.78
809.156	225.28
809.336	231.42
809.515	227.32
809.694	102.4
809.873	206.84
810.052	92.16
810.231	272.38
810.411	231.42
810.59	182.27
810.769	190.46
810.948	182.27
811.127	153.6
811.306	145.41
811.485	270.33
811.664	210.94
811.843	161.79
812.022	182.27
812.201	188.41
812.38	239.61
812.559	129.02
812.737	184.32
812.916	145.41
813.095	180.22
813.274	196.6
813.453	157.69
813.632	178.17
813.811	116.73
813.989	145.41
814.168	174.08
814.347	178.17
814.526	126.97
814.704	151.55
814.883	116.73
815.062	190.46
815.24	145.41
815.419	133.12
815.598	184.32
815.776	63.49
815.955	174.08
816.133	124.93
816.312	167.93
816.49	108.54
816.669	129.02
816.847	145.41
817.026	120.83
817.204	178.17
817.383	176.13
817.561	57.34
817.74	184.32
817.918	178.17
818.097	79.87
818.275	75.77
818.453	165.89
818.632	149.5
818.81	161.79
818.988	129.02
819.167	165.89
819.345	69.63
819.523	137.21
819.701	202.75
819.879	108.54
820.058	112.64
820.236	151.55
820.414	157.69
820.592	141.31
820.77	75.77
820.948	112.64
821.127	81.92
821.305	143.36
821.483	100.35
821.661	12.29
821.839	102.4
822.017	71.68
822.195	110.59
822.373	112.64
822.551	88.06
822.729	108.54
822.907	116.73
823.085	178.17
823.262	147.45
823.44	198.65
823.618	94.21
823.796	100.35
823.974	151.55
824.152	165.89
824.329	104.45
824.507	90.11
824.685	53.25
824.863	149.5
825.04	215.04
825.218	161.79
825.396	53.25
825.574	65.53
825.751	204.8
825.929	124.93
826.107	94.21
826.284	75.77
826.462	157.69
826.639	20.48
826.817	100.35
826.994	149.5
827.172	63.49
827.349	124.93
827.527	100.35
827.704	108.54
827.882	96.25
828.059	75.77
828.237	120.83
828.414	149.5
828.591	102.4
828.769	141.31
828.946	110.59
829.124	83.97
829.301	61.44
829.478	51.2
829.655	131.07
829.833	102.4
830.01	43.01
830.187	83.97
830.364	75.77
830.542	59.39
830.719	161.79
830.896	141.31
831.073	108.54
831.25	215.04
831.427	100.35
831.604	149.5
831.782	20.48
831.959	133.12
832.136	63.49
832.313	100.35
832.49	129.02
832.667	81.92
832.844	26.62
833.021	83.97
833.198	81.92
833.374	141.31
833.551	94.21
833.728	51.2
833.905	75.77
834.082	18.43
834.259	108.54
834.436	141.31
834.612	118.78
834.789	139.26
834.966	83.97
835.143	26.62
835.319	75.77
835.496	86.01
835.673	137.21
835.85	59.39
836.026	94.21
836.203	59.39
836.38	75.77
836.556	77.82
836.733	57.34
836.909	63.49
837.086	69.63
837.262	34.82
837.439	45.06
837.616	100.35
837.792	38.91
837.968	26.62
838.145	18.43
838.321	26.62
838.498	116.73
838.674	112.64
838.851	47.1
839.027	75.77
839.203	59.39
839.38	67.58
839.556	106.49
839.732	75.77
839.909	71.68
840.085	47.1
840.261	77.82
840.437	28.67
840.614	22.53
840.79	159.74
840.966	81.92
841.142	34.82
841.318	32.77
841.494	8.19
841.671	86.01
841.847	100.35
842.023	-6.14
842.199	118.78
842.375	67.58
842.551	112.64
842.727	-36.86
842.903	81.92
843.079	26.62
843.255	55.3
843.431	-8.19
843.607	34.82
843.783	-77.82
843.959	57.34
844.134	-28.67
844.31	36.86
844.486	43.01
844.662	-18.43
844.838	32.77
845.013	135.17
845.189	65.53
845.365	10.24
845.541	45.06
845.716	79.87
845.892	40.96
846.068	51.2
846.244	20.48
846.419	100.35
846.595	12.29
846.77	-6.14
846.946	104.45
847.122	75.77
847.297	32.77
847.473	139.26
847.648	-30.72
847.824	75.77
847.999	-4.1
848.175	67.58
848.35	34.82
848.526	65.53
848.701	45.06
848.876	100.35
849.052	94.21
849.227	18.43
849.403	34.82
849.578	98.3
849.753	34.82
849.929	96.25
850.104	2.05
850.279	36.86
850.454	57.34
850.63	47.1
850.805	51.2
850.98	92.16
851.155	47.1
851.33	57.34
851.505	4.1
851.681	43.01
851.856	106.49
852.031	79.87
852.206	102.4
852.381	-22.53
852.556	-38.91
852.731	59.39
852.906	63.49
853.081	83.97
853.256	116.73
853.431	63.49
853.606	36.86
853.781	73.73
853.956	104.45
854.131	-26.62
854.305	-36.86
854.48	92.16
854.655	77.82
854.83	2.05
855.005	16.38
855.18	10.24
855.354	116.73
855.529	18.43
855.704	88.06
855.879	10.24
856.053	-14.34
856.228	104.45
856.403	-38.91
856.577	-26.62
856.752	-30.72
856.926	-47.1
857.101	22.53
857.276	-14.34
857.45	61.44
857.625	61.44
857.799	30.72
857.974	79.87
858.148	-61.44
858.323	61.44
858.497	-2.05
858.672	75.77
858.846	-2.05
859.02	96.25
859.195	-20.48
859.369	30.72
859.543	34.82
859.718	96.25
859.892	18.43
860.066	2.05
860.241	28.67
860.415	30.72
860.589	10.24
860.763	2.05
860.938	55.3
861.112	40.96
861.286	-28.67
861.46	8.19
861.634	-6.14
861.808	67.58
861.982	38.91
862.157	81.92
862.331	18.43
862.505	16.38
862.679	34.82
862.853	-18.43
863.027	16.38
863.201	59.39
863.375	-10.24
863.549	-6.14
863.722	4.1
863.896	-6.14
864.07	6.14
864.244	65.53
864.418	51.2
864.592	45.06
864.766	34.82
864.939	20.48
865.113	53.25
865.287	61.44
865.461	6.14
865.634	28.67
865.808	47.1
865.982	-28.67
866.156	-4.1
866.329	-26.62
866.503	10.24
866.676	59.39
866.85	-36.86
867.024	-22.53
867.197	67.58
867.371	10.24
867.544	-12.29
867.718	-4.1
867.891	16.38
868.065	-47.1
868.238	59.39
868.412	83.97
868.585	34.82
868.759	55.3
868.932	-22.53
869.105	-34.82
869.279	-10.24
869.452	-28.67
869.625	26.62
869.799	-22.53
869.972	-32.77
870.145	43.01
870.319	4.1
870.492	12.29
870.665	61.44
870.838	36.86
871.011	-53.25
871.185	-14.34
871.358	71.68
871.531	92.16
871.704	-59.39
871.877	-16.38
872.05	-22.53
872.223	12.29
872.396	75.77
872.569	-22.53
872.742	-8.19
872.915	36.86
873.088	61.44
873.261	36.86
873.434	30.72
873.607	4.1
873.78	43.01
873.953	30.72
874.126	71.68
874.299	10.24
874.471	-4.1
874.644	59.39
874.817	-43.01
874.99	75.77
875.163	18.43
875.335	96.25
875.508	12.29
875.681	34.82
875.853	-26.62
876.026	-14.34
876.199	26.62
876.371	-2.05
876.544	53.25
876.717	-0
876.889	67.58
877.062	73.73
877.234	4.1
877.407	55.3
877.579	-53.25
877.752	47.1
877.924	2.05
878.097	92.16
878.269	-38.91
878.442	26.62
878.614	20.48
878.786	24.58
878.959	26.62
879.131	-71.68
879.303	-12.29
879.476	38.91
879.648	71.68
879.82	20.48
879.993	-43.01
880.165	79.87
880.337	-75.77
880.509	-38.91
880.681	4.1
880.854	-2.05
881.026	-26.62
881.198	34.82
881.37	-47.1
881.542	-4.1
881.714	-2.05
881.886	-0
882.058	34.82
882.23	-34.82
882.402	83.97
882.574	43.01
882.746	2.05
882.918	-2.05
883.09	45.06
883.262	34.82
883.434	26.62
883.606	-36.86
883.778	34.82
883.95	26.62
884.122	36.86
884.293	34.82
884.465	-38.91
884.637	12.29
884.809	22.53
884.98	110.59
885.152	-38.91
885.324	59.39
885.496	83.97
885.667	16.38
885.839	-59.39
886.011	28.67
886.182	-24.58
886.354	49.15
886.525	-22.53
886.697	10.24
886.869	63.49
887.04	-30.72
887.212	83.97
887.383	100.35
887.555	-14.34
887.726	30.72
887.897	2.05
888.069	67.58
888.24	32.77
888.412	-53.25
888.583	20.48
888.754	10.24
888.926	12.29
889.097	-45.06
889.268	-40.96
889.44	-63.49
889.611	-18.43
889.782	-36.86
889.953	-45.06
890.125	81.92
890.296	-36.86
890.467	-6.14
890.638	12.29
890.809	-4.1
890.98	-57.34
891.151	-4.1
891.323	43.01
891.494	-30.72
891.665	-30.72
891.836	2.05
892.007	81.92
892.178	26.62
892.349	73.73
892.52	14.34
892.691	-10.24
892.862	10.24
893.032	-12.29
893.203	61.44
893.374	12.29
893.545	71.68
893.716	-14.34
893.887	20.48
894.057	-16.38
894.228	12.29
894.399	12.29
894.57	-2.05
894.74	-63.49
894.911	26.62
895.082	-2.05
895.253	34.82
895.423	2.05
895.594	36.86
895.764	-30.72
895.935	-20.48
896.106	36.86
896.276	-8.19
896.447	-12.29
896.617	2.05
896.788	-67.58
896.958	-22.53
897.129	18.43
897.299	-94.21
897.47	83.97
897.64	65.53
897.81	12.29
897.981	55.3
898.151	-8.19
898.322	81.92
898.492	-26.62
898.662	-67.58
898.832	24.58
899.003	-55.3
899.173	18.43
899.343	-49.15
899.513	-28.67
