Data from USB4F104151__255__14-45-56-041.txt Node

Date: Thu Mar 13 14:45:56 EDT 2025
User: louis
Spectrometer: USB4F10415
Trigger mode: 4
Integration Time (sec): 2.000000E-2
Scans to average: 1
Electric dark correction enabled: true
Nonlinearity correction enabled: false
Boxcar width: 0
XAxis mode: Wavelengths
Number of Pixels in Spectrum: 3648
>>>>>Begin Spectral Data<<<<<
178.204	-120.32
178.424	-120.32
178.644	-120.32
178.864	-114.17
179.084	-93.69
179.304	4.61
179.524	8.7
179.744	-7.68
179.964	-5.63
180.184	-36.35
180.404	-50.69
180.624	70.14
180.844	45.57
181.064	-36.35
181.283	-3.58
181.503	33.28
181.723	-22.02
181.943	-69.12
182.163	29.18
182.383	39.42
182.602	12.8
182.822	6.66
183.042	45.57
183.262	-34.3
183.482	16.9
183.701	20.99
183.921	53.76
184.141	70.14
184.361	29.18
184.58	-19.97
184.8	-7.68
185.02	-15.87
185.239	61.95
185.459	-11.78
185.679	10.75
185.898	45.57
186.118	74.24
186.338	39.42
186.557	-11.78
186.777	-24.06
186.997	33.28
187.216	8.7
187.436	-3.58
187.655	59.9
187.875	-3.58
188.095	-11.78
188.314	86.53
188.534	70.14
188.753	-62.98
188.973	61.95
189.192	80.38
189.412	29.18
189.631	57.86
189.851	41.47
190.07	55.81
190.29	-42.5
190.509	-28.16
190.729	45.57
190.948	29.18
191.168	178.69
191.387	-44.54
191.607	16.9
191.826	29.18
192.045	2.56
192.265	-42.5
192.484	14.85
192.704	68.09
192.923	-3.58
193.142	59.9
193.362	-28.16
193.581	82.43
193.8	64
194.02	53.76
194.239	23.04
194.458	55.81
194.678	-65.02
194.897	-38.4
195.116	-3.58
195.335	4.61
195.555	-19.97
195.774	-34.3
195.993	-15.87
196.212	-11.78
196.432	-44.54
196.651	-17.92
196.87	14.85
197.089	76.29
197.308	80.38
197.528	8.7
197.747	-3.58
197.966	-44.54
198.185	-11.78
198.404	-36.35
198.623	29.18
198.842	47.62
199.062	68.09
199.281	45.57
199.5	14.85
199.719	-11.78
199.938	37.38
200.157	96.77
200.376	14.85
200.595	25.09
200.814	8.7
201.033	-9.73
201.252	31.23
201.471	74.24
201.69	20.99
201.909	47.62
202.128	57.86
202.347	-58.88
202.566	27.14
202.785	33.28
203.004	-32.26
203.223	45.57
203.442	0.51
203.661	23.04
203.879	88.57
204.098	49.66
204.317	-28.16
204.536	6.66
204.755	4.61
204.974	84.48
205.193	-9.73
205.411	6.66
205.63	74.24
205.849	4.61
206.068	20.99
206.287	37.38
206.505	14.85
206.724	-50.69
206.943	12.8
207.162	49.66
207.381	-15.87
207.599	45.57
207.818	20.99
208.037	57.86
208.255	37.38
208.474	-7.68
208.693	-3.58
208.911	4.61
209.13	66.05
209.349	8.7
209.567	-11.78
209.786	82.43
210.005	4.61
210.223	14.85
210.442	-44.54
210.661	8.7
210.879	37.38
211.098	-50.69
211.316	90.62
211.535	90.62
211.753	-19.97
211.972	-7.68
212.191	29.18
212.409	94.72
212.628	45.57
212.846	12.8
213.065	70.14
213.283	4.61
213.502	4.61
213.72	-13.82
213.938	-19.97
214.157	66.05
214.375	20.99
214.594	-17.92
214.812	27.14
215.031	14.85
215.249	12.8
215.467	102.91
215.686	-3.58
215.904	107.01
216.122	-50.69
216.341	137.73
216.559	57.86
216.778	88.57
216.996	35.33
217.214	47.62
217.432	14.85
217.651	-48.64
217.869	78.33
218.087	6.66
218.306	33.28
218.524	31.23
218.742	49.66
218.96	31.23
219.179	-69.12
219.397	45.57
219.615	47.62
219.833	14.85
220.051	14.85
220.27	86.53
220.488	37.38
220.706	53.76
220.924	-3.58
221.142	-3.58
221.36	29.18
221.578	-36.35
221.796	43.52
222.015	37.38
222.233	6.66
222.451	55.81
222.669	10.75
222.887	86.53
223.105	-46.59
223.323	-17.92
223.541	-44.54
223.759	55.81
223.977	-32.26
224.195	72.19
224.413	6.66
224.631	14.85
224.849	-46.59
225.067	0.51
225.285	-54.78
225.503	74.24
225.721	-11.78
225.939	-26.11
226.157	80.38
226.375	94.72
226.592	14.85
226.81	23.04
227.028	66.05
227.246	94.72
227.464	61.95
227.682	39.42
227.9	4.61
228.117	74.24
228.335	8.7
228.553	-5.63
228.771	61.95
228.989	23.04
229.206	39.42
229.424	70.14
229.642	53.76
229.86	-3.58
230.077	-9.73
230.295	-15.87
230.513	16.9
230.731	111.1
230.948	-28.16
231.166	33.28
231.384	82.43
231.601	-22.02
231.819	12.8
232.037	-13.82
232.254	16.9
232.472	10.75
232.689	-3.58
232.907	27.14
233.125	4.61
233.342	-19.97
233.56	53.76
233.777	-9.73
233.995	-5.63
234.213	76.29
234.43	53.76
234.648	20.99
234.865	39.42
235.083	-11.78
235.3	12.8
235.518	37.38
235.735	96.77
235.953	61.95
236.17	84.48
236.388	-38.4
236.605	-36.35
236.822	41.47
237.04	-9.73
237.257	-1.54
237.475	-32.26
237.692	29.18
237.909	37.38
238.127	64
238.344	-3.58
238.562	20.99
238.779	-36.35
238.996	-11.78
239.214	14.85
239.431	55.81
239.648	25.09
239.865	-32.26
240.083	70.14
240.3	16.9
240.517	-19.97
240.735	23.04
240.952	37.38
241.169	4.61
241.386	39.42
241.603	0.51
241.821	29.18
242.038	45.57
242.255	57.86
242.472	-3.58
242.689	59.9
242.907	12.8
243.124	25.09
243.341	20.99
243.558	37.38
243.775	20.99
243.992	-26.11
244.209	-11.78
244.426	123.39
244.643	41.47
244.86	-58.88
245.078	-24.06
245.295	33.28
245.512	-52.74
245.729	12.8
245.946	-19.97
246.163	29.18
246.38	33.28
246.597	41.47
246.814	-26.11
247.031	23.04
247.248	12.8
247.464	107.01
247.681	16.9
247.898	68.09
248.115	-5.63
248.332	-26.11
248.549	98.81
248.766	47.62
248.983	74.24
249.2	-7.68
249.417	29.18
249.633	41.47
249.85	49.66
250.067	43.52
250.284	45.57
250.501	-15.87
250.717	90.62
250.934	-28.16
251.151	-42.5
251.368	-56.83
251.585	143.87
251.801	-26.11
252.018	8.7
252.235	31.23
252.451	-11.78
252.668	2.56
252.885	47.62
253.102	70.14
253.318	53.76
253.535	-19.97
253.752	8.7
253.968	-19.97
254.185	-1.54
254.401	119.29
254.618	-69.12
254.835	-19.97
255.051	127.49
255.268	55.81
255.484	78.33
255.701	4.61
255.917	20.99
256.134	39.42
256.351	70.14
256.567	23.04
256.784	14.85
257	-93.69
257.217	-9.73
257.433	53.76
257.65	16.9
257.866	53.76
258.082	-36.35
258.299	-28.16
258.515	76.29
258.732	-19.97
258.948	57.86
259.165	61.95
259.381	47.62
259.597	57.86
259.814	64
260.03	-36.35
260.246	57.86
260.463	59.9
260.679	53.76
260.895	102.91
261.112	53.76
261.328	-56.83
261.544	4.61
261.761	88.57
261.977	23.04
262.193	10.75
262.409	61.95
262.626	53.76
262.842	53.76
263.058	-7.68
263.274	90.62
263.49	14.85
263.707	-44.54
263.923	23.04
264.139	14.85
264.355	49.66
264.571	74.24
264.787	12.8
265.004	-3.58
265.22	33.28
265.436	41.47
265.652	-13.82
265.868	25.09
266.084	-11.78
266.3	41.47
266.516	37.38
266.732	-1.54
266.948	20.99
267.164	45.57
267.38	51.71
267.596	4.61
267.812	57.86
268.028	-11.78
268.244	-32.26
268.46	53.76
268.676	66.05
268.892	39.42
269.108	-42.5
269.324	35.33
269.54	4.61
269.756	4.61
269.972	-3.58
270.188	-36.35
270.403	23.04
270.619	70.14
270.835	61.95
271.051	82.43
271.267	4.61
271.483	12.8
271.698	29.18
271.914	88.57
272.13	-62.98
272.346	23.04
272.562	23.04
272.777	37.38
272.993	8.7
273.209	14.85
273.425	-36.35
273.64	47.62
273.856	39.42
274.072	14.85
274.287	-9.73
274.503	16.9
274.719	61.95
274.934	35.33
275.15	70.14
275.366	35.33
275.581	-48.64
275.797	-28.16
276.012	68.09
276.228	-9.73
276.444	76.29
276.659	94.72
276.875	-1.54
277.09	-1.54
277.306	61.95
277.521	39.42
277.737	-17.92
277.952	4.61
278.168	-26.11
278.383	-11.78
278.599	84.48
278.814	61.95
279.03	12.8
279.245	43.52
279.461	-85.5
279.676	-26.11
279.892	6.66
280.107	-22.02
280.322	31.23
280.538	53.76
280.753	14.85
280.969	0.51
281.184	-36.35
281.399	86.53
281.615	-9.73
281.83	20.99
282.045	-22.02
282.26	6.66
282.476	-71.17
282.691	12.8
282.906	-30.21
283.122	10.75
283.337	8.7
283.552	57.86
283.767	39.42
283.983	12.8
284.198	-9.73
284.413	-26.11
284.628	-3.58
284.843	2.56
285.058	31.23
285.274	-32.26
285.489	-52.74
285.704	121.34
285.919	18.94
286.134	-32.26
286.349	-17.92
286.564	20.99
286.779	70.14
286.995	23.04
287.21	14.85
287.425	12.8
287.64	-11.78
287.855	16.9
288.07	29.18
288.285	92.67
288.5	37.38
288.715	76.29
288.93	-36.35
289.145	-42.5
289.36	37.38
289.575	2.56
289.79	-1.54
290.004	23.04
290.219	104.96
290.434	-1.54
290.649	-19.97
290.864	25.09
291.079	39.42
291.294	59.9
291.509	-11.78
291.724	8.7
291.938	61.95
292.153	35.33
292.368	86.53
292.583	72.19
292.798	47.62
293.012	49.66
293.227	72.19
293.442	16.9
293.657	96.77
293.871	53.76
294.086	37.38
294.301	94.72
294.516	29.18
294.73	-15.87
294.945	18.94
295.16	70.14
295.374	88.57
295.589	39.42
295.804	61.95
296.018	45.57
296.233	39.42
296.447	115.2
296.662	-11.78
296.877	61.95
297.091	25.09
297.306	2.56
297.52	-28.16
297.735	0.51
297.949	45.57
298.164	4.61
298.378	27.14
298.593	-11.78
298.807	10.75
299.022	20.99
299.236	33.28
299.451	-11.78
299.665	-9.73
299.88	-9.73
300.094	4.61
300.309	14.85
300.523	4.61
300.737	47.62
300.952	33.28
301.166	14.85
301.381	64
301.595	27.14
301.809	33.28
302.024	0.51
302.238	8.7
302.452	-17.92
302.667	20.99
302.881	12.8
303.095	10.75
303.309	64
303.524	55.81
303.738	-7.68
303.952	39.42
304.166	8.7
304.381	29.18
304.595	-11.78
304.809	51.71
305.023	88.57
305.237	0.51
305.452	29.18
305.666	49.66
305.88	37.38
306.094	-11.78
306.308	20.99
306.522	16.9
306.736	55.81
306.95	-1.54
307.164	6.66
307.379	-19.97
307.593	29.18
307.807	-3.58
308.021	43.52
308.235	-36.35
308.449	-3.58
308.663	59.9
308.877	29.18
309.091	37.38
309.305	47.62
309.519	20.99
309.733	90.62
309.947	-1.54
310.161	43.52
310.374	23.04
310.588	74.24
310.802	6.66
311.016	12.8
311.23	31.23
311.444	-7.68
311.658	25.09
311.872	-15.87
312.085	74.24
312.299	135.68
312.513	113.15
312.727	0.51
312.941	-28.16
313.154	39.42
313.368	6.66
313.582	119.29
313.796	-9.73
314.009	41.47
314.223	78.33
314.437	12.8
314.651	-34.3
314.864	53.76
315.078	14.85
315.292	45.57
315.505	57.86
315.719	82.43
315.933	14.85
316.146	37.38
316.36	4.61
316.573	66.05
316.787	20.99
317.001	20.99
317.214	-11.78
317.428	57.86
317.641	-3.58
317.855	-11.78
318.068	-60.93
318.282	55.81
318.495	31.23
318.709	33.28
318.922	119.29
319.136	39.42
319.349	53.76
319.563	20.99
319.776	82.43
319.99	6.66
320.203	45.57
320.417	-26.11
320.63	20.99
320.843	78.33
321.057	61.95
321.27	41.47
321.483	-11.78
321.697	14.85
321.91	-19.97
322.124	25.09
322.337	27.14
322.55	117.25
322.763	37.38
322.977	10.75
323.19	90.62
323.403	4.61
323.617	61.95
323.83	70.14
324.043	64
324.256	4.61
324.469	90.62
324.683	86.53
324.896	0.51
325.109	49.66
325.322	25.09
325.535	53.76
325.748	37.38
325.962	25.09
326.175	4.61
326.388	-44.54
326.601	25.09
326.814	-26.11
327.027	59.9
327.24	131.58
327.453	-60.93
327.666	61.95
327.879	20.99
328.092	-9.73
328.305	6.66
328.518	12.8
328.731	-42.5
328.944	41.47
329.157	-11.78
329.37	4.61
329.583	125.44
329.796	72.19
330.009	-7.68
330.222	72.19
330.435	47.62
330.648	45.57
330.861	33.28
331.073	29.18
331.286	0.51
331.499	6.66
331.712	-3.58
331.925	98.81
332.138	39.42
332.35	104.96
332.563	8.7
332.776	-3.58
332.989	2.56
333.202	61.95
333.414	111.1
333.627	4.61
333.84	2.56
334.053	6.66
334.265	39.42
334.478	-9.73
334.691	-77.31
334.903	4.61
335.116	20.99
335.329	31.23
335.541	94.72
335.754	70.14
335.966	76.29
336.179	-1.54
336.392	115.2
336.604	74.24
336.817	90.62
337.029	20.99
337.242	66.05
337.454	72.19
337.667	37.38
337.88	47.62
338.092	23.04
338.305	57.86
338.517	12.8
338.729	64
338.942	29.18
339.154	-24.06
339.367	-7.68
339.579	94.72
339.792	-3.58
340.004	47.62
340.217	61.95
340.429	94.72
340.641	-3.58
340.854	6.66
341.066	20.99
341.278	78.33
341.491	37.38
341.703	31.23
341.915	-71.17
342.128	92.67
342.34	31.23
342.552	25.09
342.764	-1.54
342.977	45.57
343.189	45.57
343.401	6.66
343.613	20.99
343.826	29.18
344.038	59.9
344.25	39.42
344.462	70.14
344.674	25.09
344.886	47.62
345.099	20.99
345.311	78.33
345.523	16.9
345.735	33.28
345.947	72.19
346.159	37.38
346.371	4.61
346.583	-15.87
346.795	33.28
347.007	-42.5
347.219	104.96
347.431	12.8
347.643	61.95
347.855	-26.11
348.067	72.19
348.279	-11.78
348.491	33.28
348.703	-54.78
348.915	-3.58
349.127	45.57
349.339	6.66
349.551	6.66
349.763	92.67
349.975	-9.73
350.187	119.29
350.399	6.66
350.61	78.33
350.822	6.66
351.034	39.42
351.246	-24.06
351.458	4.61
351.669	6.66
351.881	107.01
352.093	72.19
352.305	152.06
352.517	35.33
352.728	78.33
352.94	53.76
353.152	86.53
353.363	-58.88
353.575	-9.73
353.787	39.42
353.999	53.76
354.21	66.05
354.422	53.76
354.633	2.56
354.845	37.38
355.057	29.18
355.268	6.66
355.48	14.85
355.692	-17.92
355.903	4.61
356.115	45.57
356.326	-38.4
356.538	74.24
356.749	55.81
356.961	86.53
357.172	68.09
357.384	53.76
357.595	86.53
357.807	45.57
358.018	70.14
358.23	47.62
358.441	113.15
358.653	4.61
358.864	-9.73
359.075	20.99
359.287	33.28
359.498	80.38
359.709	-3.58
359.921	23.04
360.132	47.62
360.344	66.05
360.555	0.51
360.766	41.47
360.977	47.62
361.189	61.95
361.4	61.95
361.611	76.29
361.823	66.05
362.034	37.38
362.245	-15.87
362.456	-28.16
362.667	72.19
362.879	-11.78
363.09	31.23
363.301	72.19
363.512	16.9
363.723	4.61
363.935	33.28
364.146	76.29
364.357	12.8
364.568	96.77
364.779	29.18
364.99	152.06
365.201	33.28
365.412	121.34
365.623	39.42
365.834	78.33
366.045	23.04
366.256	80.38
366.467	37.38
366.678	55.81
366.889	-3.58
367.1	25.09
367.311	102.91
367.522	127.49
367.733	14.85
367.944	45.57
368.155	-28.16
368.366	86.53
368.577	29.18
368.788	53.76
368.999	25.09
369.209	-17.92
369.42	51.71
369.631	70.14
369.842	33.28
370.053	31.23
370.264	121.34
370.474	43.52
370.685	86.53
370.896	102.91
371.107	94.72
371.317	119.29
371.528	14.85
371.739	59.9
371.95	-1.54
372.16	55.81
372.371	53.76
372.582	78.33
372.792	23.04
373.003	98.81
373.214	6.66
373.424	-3.58
373.635	43.52
373.846	115.2
374.056	-9.73
374.267	141.82
374.477	35.33
374.688	14.85
374.898	45.57
375.109	6.66
375.319	-1.54
375.53	23.04
375.74	74.24
375.951	14.85
376.161	0.51
376.372	49.66
376.582	37.38
376.793	64
377.003	70.14
377.214	-1.54
377.424	47.62
377.635	29.18
377.845	23.04
378.055	135.68
378.266	70.14
378.476	31.23
378.686	96.77
378.897	29.18
379.107	61.95
379.317	33.28
379.528	-9.73
379.738	135.68
379.948	-44.54
380.158	123.39
380.369	14.85
380.579	61.95
380.789	0.51
380.999	66.05
381.21	113.15
381.42	76.29
381.63	33.28
381.84	33.28
382.05	53.76
382.261	88.57
382.471	43.52
382.681	-32.26
382.891	68.09
383.101	94.72
383.311	-3.58
383.521	16.9
383.731	61.95
383.941	-26.11
384.151	66.05
384.361	53.76
384.571	64
384.781	45.57
384.991	86.53
385.201	127.49
385.411	-1.54
385.621	35.33
385.831	84.48
386.041	68.09
386.251	94.72
386.461	39.42
386.671	66.05
386.881	104.96
387.091	31.23
387.301	131.58
387.511	86.53
387.72	37.38
387.93	18.94
388.14	45.57
388.35	70.14
388.56	133.63
388.769	12.8
388.979	-26.11
389.189	-7.68
389.399	37.38
389.609	86.53
389.818	23.04
390.028	29.18
390.238	76.29
390.447	-24.06
390.657	47.62
390.867	94.72
391.076	96.77
391.286	53.76
391.496	94.72
391.705	8.7
391.915	39.42
392.125	41.47
392.334	49.66
392.544	31.23
392.753	80.38
392.963	-3.58
393.172	57.86
393.382	-32.26
393.591	8.7
393.801	66.05
394.01	109.05
394.22	111.1
394.429	57.86
394.639	37.38
394.848	107.01
395.058	64
395.267	23.04
395.477	-9.73
395.686	57.86
395.895	94.72
396.105	102.91
396.314	72.19
396.524	72.19
396.733	90.62
396.942	45.57
397.152	76.29
397.361	119.29
397.57	98.81
397.78	61.95
397.989	70.14
398.198	70.14
398.407	33.28
398.617	53.76
398.826	133.63
399.035	41.47
399.244	78.33
399.453	137.73
399.663	127.49
399.872	121.34
400.081	111.1
400.29	104.96
400.499	113.15
400.708	78.33
400.917	35.33
401.127	25.09
401.336	113.15
401.545	111.1
401.754	20.99
401.963	156.16
402.172	-1.54
402.381	98.81
402.59	51.71
402.799	78.33
403.008	61.95
403.217	133.63
403.426	152.06
403.635	53.76
403.844	111.1
404.053	109.05
404.262	152.06
404.471	143.87
404.68	111.1
404.888	86.53
405.097	158.21
405.306	104.96
405.515	86.53
405.724	135.68
405.933	100.86
406.142	113.15
406.35	123.39
406.559	201.21
406.768	178.69
406.977	180.73
407.185	178.69
407.394	86.53
407.603	176.64
407.812	160.25
408.02	238.08
408.229	233.98
408.438	96.77
408.646	8.7
408.855	195.07
409.064	250.36
409.272	207.36
409.481	242.17
409.69	236.03
409.898	193.02
410.107	258.56
410.315	293.37
410.524	190.97
410.733	283.13
410.941	274.94
411.15	262.65
411.358	233.98
411.567	260.6
411.775	336.38
411.984	307.71
412.192	348.67
412.401	344.57
412.609	399.87
412.818	459.26
413.026	416.25
413.234	434.68
413.443	430.59
413.651	373.24
413.86	410.11
414.068	489.98
414.276	387.58
414.485	469.5
414.693	500.22
414.901	559.61
415.11	479.74
415.318	530.94
415.526	545.27
415.734	639.48
415.943	602.61
416.151	580.09
416.359	608.76
416.567	645.62
416.776	717.3
416.984	741.88
417.192	694.77
417.4	803.32
417.608	717.3
417.817	813.56
418.025	776.69
418.233	877.04
418.441	811.51
418.649	885.23
418.857	913.91
419.065	995.82
419.273	934.39
419.481	1004.02
419.689	1077.74
419.897	1110.51
420.105	1128.94
420.313	1163.76
420.521	1217.01
420.729	1167.85
420.937	1284.59
421.145	1231.34
421.353	1389.03
421.561	1538.54
421.769	1489.39
421.977	1530.34
422.185	1532.39
422.393	1647.08
422.601	1720.81
422.809	1724.9
423.017	1688.04
423.224	1782.24
423.432	1792.48
423.64	1882.6
423.848	2068.96
424.056	2103.78
424.263	2052.58
424.471	2064.86
424.679	2077.15
424.887	2286.05
425.094	2339.29
425.302	2327
425.51	2402.78
425.718	2564.57
425.925	2425.31
426.133	2699.73
426.341	2752.98
426.548	2882
426.756	2920.92
426.964	2945.49
427.171	3152.34
427.379	3086.8
427.586	3264.97
427.794	3246.54
428.001	3494.35
428.209	3615.18
428.417	3465.68
428.624	3738.05
428.832	3695.05
429.039	3875.27
429.247	3758.53
429.454	4110.79
429.662	4495.8
429.869	4098.5
430.076	4272.57
430.284	4411.84
430.491	4528.57
430.699	4729.27
430.906	4669.88
431.114	4932.02
431.321	5034.42
431.528	5069.23
431.736	5392.81
431.943	5550.51
432.15	5544.36
432.358	5755.3
432.565	5958.05
432.772	5857.7
432.979	6117.79
433.187	6197.67
433.394	6435.23
433.601	6734.23
433.808	6666.65
434.016	6605.21
434.223	6986.13
434.43	7422.35
434.637	7231.89
434.844	7575.95
435.052	7713.16
435.259	7737.74
435.466	7778.7
435.673	7717.26
435.88	8178.05
436.087	8739.19
436.294	8642.94
436.501	8475.01
436.708	8612.22
436.915	8984.95
437.122	9412.98
437.329	9316.72
437.537	9736.56
437.743	9898.34
437.95	9716.08
438.157	10260.84
438.364	10375.52
438.571	10658.14
438.778	10879.32
438.985	11495.76
439.192	11204.95
439.399	11594.06
439.606	11084.12
439.813	11927.88
440.02	12753.21
440.227	12304.71
440.433	12171.59
440.64	12482.88
440.847	12675.39
441.054	12984.63
441.261	13762.86
441.467	13443.38
441.674	13807.92
441.881	14080.3
442.088	14326.05
442.294	14350.63
442.501	14520.61
442.708	14852.38
442.914	15522.07
443.121	15978.76
443.328	15673.62
443.534	16892.16
443.741	16326.92
443.948	16034.06
444.154	17178.87
444.361	17541.36
444.568	17182.97
444.774	17047.8
444.981	17565.94
445.187	18010.35
445.394	18690.27
445.6	18647.27
445.807	20371.66
446.013	19497.17
446.22	19593.43
446.426	20775.11
446.633	20601.03
446.839	21493.94
447.046	20508.87
447.252	21672.12
447.459	21846.19
447.665	21860.53
447.871	22675.62
448.078	24064.14
448.284	22728.87
448.491	23488.67
448.697	24072.34
448.903	24547.47
449.11	24737.93
449.316	24449.16
449.522	24862.85
449.728	25536.63
449.935	25835.64
450.141	25698.42
450.347	26400.88
450.553	25469.05
450.76	25485.44
450.966	26839.14
451.172	26552.43
451.378	27281.5
451.584	26761.32
451.791	27363.42
451.997	27123.81
452.203	27529.31
452.409	27850.84
452.615	27508.83
452.821	26116.21
453.027	26241.14
453.233	27781.21
453.44	26947.68
453.646	27177.06
453.852	26925.16
454.058	27766.87
454.264	26728.55
454.47	27596.89
454.676	26972.26
454.882	27668.57
455.088	25118.85
455.294	25669.75
455.5	25983.09
455.705	26112.11
455.911	25389.18
456.117	24766.6
456.323	24326.28
456.529	22925.47
456.735	24694.92
456.941	23900.31
457.147	23474.33
457.352	22722.73
457.558	22470.83
457.764	22417.58
457.97	21985.46
458.176	21555.38
458.381	21459.13
458.587	20644.04
458.793	20463.82
458.999	19638.48
459.204	20959.42
459.41	20267.21
459.616	19095.77
459.821	19118.3
460.027	19052.77
460.233	18538.73
460.438	18090.22
460.644	17869.04
460.85	17201.4
461.055	16730.37
461.261	16754.94
461.466	15499.54
461.672	15018.27
461.878	16425.22
462.083	15350.04
462.289	14973.21
462.494	14686.5
462.7	14166.31
462.905	13740.33
463.111	14176.55
463.316	14416.16
463.522	14029.1
463.727	13971.75
463.932	14194.98
464.138	13840.68
464.343	13965.61
464.549	13652.27
464.754	14123.3
464.959	13660.46
465.165	13938.99
465.37	13033.79
465.575	12972.35
465.781	13482.29
465.986	13349.17
466.191	12996.92
466.397	12800.32
466.602	12052.81
466.807	12622.14
467.012	12716.35
467.218	12333.38
467.423	12171.59
467.628	12370.24
467.833	12810.56
468.038	12497.22
468.244	12165.45
468.449	12671.29
468.654	12112.2
468.859	11962.7
469.064	12259.65
469.269	11469.14
469.474	11651.41
469.679	11987.27
469.885	11557.2
470.09	11723.09
470.295	11624.78
470.5	11299.16
470.705	11585.87
470.91	11297.11
471.115	11254.1
471.32	11491.66
471.525	11307.35
471.73	10973.53
471.935	10899.8
472.139	10641.76
472.344	10826.07
472.549	10750.3
472.754	10572.13
472.959	10332.51
473.164	10039.65
473.369	10015.08
473.574	10279.27
473.778	10293.6
473.983	10033.51
474.188	10039.65
474.393	9621.87
474.598	9644.4
474.802	9613.68
475.007	9462.13
475.212	9638.25
475.417	9255.28
475.621	9230.71
475.826	9392.5
476.031	9302.39
476.235	8968.57
476.44	9130.36
476.645	8769.91
476.849	8999.29
477.054	8722.81
477.259	8688
477.463	8817.02
477.668	8350.08
477.872	8601.98
478.077	8507.77
478.282	8196.48
478.486	8085.89
478.691	8137.09
478.895	8067.46
479.1	8016.26
479.304	7963.01
479.509	7897.48
479.713	7958.92
479.918	7854.47
480.122	7444.88
480.326	7840.14
480.531	7844.23
480.735	7821.7
480.94	7690.63
481.144	7825.8
481.348	7354.77
481.553	7553.42
481.757	7551.37
481.961	7578
482.166	7487.89
482.37	7508.37
482.574	7573.9
482.778	7584.14
482.983	7692.68
483.187	7297.42
483.391	7408.01
483.595	7453.07
483.8	7403.92
484.004	7680.39
484.208	7537.04
484.412	7485.84
484.616	7412.11
484.821	7614.86
485.025	7453.07
485.229	7567.76
485.433	7600.52
485.637	7504.27
485.841	7534.99
486.045	7297.42
486.249	7451.02
486.453	7326.1
486.657	7463.31
486.861	7573.9
487.065	7242.13
487.269	7557.52
487.473	7311.76
487.677	7451.02
487.881	7561.61
488.085	7491.98
488.289	7545.23
488.493	7418.25
488.697	7637.39
488.901	7582.09
489.105	7555.47
489.309	7674.25
489.512	7698.83
489.716	7758.22
489.92	7680.39
490.124	7516.56
490.328	7934.34
490.531	7666.06
490.735	7877
490.939	7643.53
491.143	7881.1
491.346	7809.42
491.55	7903.62
491.754	7797.13
491.958	7999.88
492.161	7946.63
492.365	7840.14
492.569	7917.96
492.772	8006.02
492.976	8122.76
493.18	8198.53
493.383	8239.49
493.587	8262.02
493.79	8511.87
493.994	8309.12
494.197	8360.32
494.401	8515.97
494.605	8472.96
494.808	8788.35
495.012	8827.26
495.215	8892.79
495.419	8747.39
495.622	8925.56
495.825	8980.85
496.029	9034.1
496.232	9288.05
496.436	9206.13
496.639	9392.5
496.843	9171.32
497.046	9542
497.249	9875.82
497.453	9662.83
497.656	9912.68
497.859	9834.86
498.063	10006.89
498.266	10320.23
498.469	9998.7
498.673	10369.38
498.876	10504.54
499.079	10482.02
499.282	10580.32
499.485	10871.13
499.689	10781.02
499.892	11034.97
500.095	11229.52
500.298	11436.37
500.501	11293.01
500.705	11792.72
500.908	11714.89
501.111	11895.11
501.314	11876.68
501.517	12169.54
501.72	12267.84
501.923	12206.41
502.126	12616
502.329	12697.92
502.532	12761.41
502.735	12992.83
502.938	13277.49
503.141	13271.35
503.344	13613.36
503.547	13414.71
503.75	13695.28
503.953	13932.84
504.156	14180.65
504.359	14283.05
504.562	14747.93
504.765	14414.12
504.968	14733.6
505.17	15120.67
505.373	15020.31
505.576	15274.26
505.779	15665.42
505.982	15528.21
506.185	15999.24
506.387	16009.48
506.59	16175.37
506.793	16150.79
506.996	16724.22
507.198	17109.24
507.401	16814.34
507.604	17080.57
507.807	17180.92
508.009	17389.81
508.212	17518.84
508.415	18145.52
508.617	18497.77
508.82	18260.2
509.022	18446.57
509.225	18727.14
509.428	19073.24
509.63	19226.84
509.833	19132.64
510.035	19677.4
510.238	19945.68
510.44	19826.9
510.643	20420.81
510.845	20373.71
511.048	20465.86
511.25	20721.86
511.453	20906.18
511.655	21844.15
511.858	21414.07
512.06	21913.78
512.262	21747.89
512.465	21885.11
512.667	22390.95
512.87	22612.13
513.072	22501.54
513.274	23040.16
513.477	23441.56
513.679	23511.19
513.881	23853.2
514.084	24156.3
514.286	24135.82
514.488	24463.5
514.69	25041.03
514.893	24918.15
515.095	25200.77
515.297	25600.12
515.499	25686.14
515.701	25942.13
515.904	26275.95
516.106	26673.26
516.308	26792.04
516.51	27215.97
516.712	27086.95
516.914	27363.42
517.116	27945.05
517.318	27846.74
517.52	28276.82
517.722	28344.4
517.925	28833.86
518.127	28948.55
518.329	29360.19
518.531	28909.64
518.733	29904.95
518.935	30152.76
519.136	29945.91
519.338	30564.4
519.54	30611.5
519.742	30949.42
519.944	31074.34
520.146	31420.45
520.348	31592.48
520.55	31981.59
520.752	32055.32
520.954	32563.22
521.155	32602.13
521.357	33097.73
521.559	33460.23
521.761	33429.51
521.963	33603.58
522.164	33460.23
522.366	33916.92
522.568	34420.72
522.77	34369.52
522.971	35244.01
523.173	34883.56
523.375	35008.49
523.576	35340.26
523.778	35211.24
523.98	35565.54
524.181	35739.61
524.383	35608.54
524.584	36618.19
524.786	36706.26
524.988	36427.73
525.189	37062.6
525.391	36992.97
525.592	37316.55
525.794	37216.2
525.995	37042.12
526.197	37371.85
526.398	37605.31
526.6	37949.37
526.801	38199.23
527.003	38475.7
527.204	38176.7
527.406	38315.96
527.607	38295.48
527.808	38901.68
528.01	38080.44
528.211	38746.03
528.412	39372.71
528.614	39161.77
528.815	39073.71
529.016	39718.82
529.218	39159.72
529.419	39411.62
529.62	39585.7
529.822	39602.08
530.023	39567.27
530.224	39790.5
530.425	39647.14
530.626	39896.99
530.828	39403.43
531.029	40474.52
531.23	40073.12
531.431	40079.26
531.632	40046.49
531.833	40435.61
532.035	40245.15
532.236	40101.79
532.437	40576.92
532.638	40138.65
532.839	40757.14
533.04	40560.53
533.241	39763.87
533.442	41084.81
533.643	40259.48
533.844	40617.88
534.045	40558.49
534.246	40234.91
534.447	40685.46
534.648	40458.13
534.849	40736.66
535.05	40486.81
535.251	40724.37
535.451	40478.61
535.652	40748.95
535.853	40710.03
536.054	41103.24
536.255	40837.01
536.456	40642.45
536.657	41246.6
536.857	40648.6
537.058	40597.4
537.259	41041.81
537.46	41191.31
537.66	40699.79
537.861	40777.62
538.062	40617.88
538.263	41179.02
538.463	40304.54
538.664	40748.95
538.865	41207.69
539.065	40884.11
539.266	40474.52
539.466	41090.96
539.667	40699.79
539.868	41256.84
540.068	40423.32
540.269	40970.13
540.469	40957.84
540.67	40443.8
540.87	40740.75
541.071	40777.62
541.271	40963.98
541.472	40716.18
541.672	40802.19
541.873	40509.33
542.073	40320.92
542.274	40947.6
542.474	40644.5
542.675	40466.33
542.875	40972.17
543.075	40728.47
543.276	40314.78
543.476	41060.24
543.676	40386.46
543.877	40798.1
544.077	40787.86
544.277	40771.47
544.478	40495
544.678	40767.38
544.878	40646.55
545.078	40568.72
545.279	40234.91
545.479	40546.2
545.679	40658.84
545.879	40179.61
546.079	40529.81
546.28	40265.63
546.48	40148.89
546.68	40771.47
546.88	40650.64
547.08	40742.8
547.28	40486.81
547.48	40294.3
547.68	40347.54
547.88	40451.99
548.081	40427.42
548.281	40449.94
548.481	40437.65
548.681	40724.37
548.881	40404.89
549.081	40574.87
549.28	40177.56
549.48	40542.1
549.68	40157.08
549.88	40806.29
550.08	40269.72
550.28	40484.76
550.48	40263.58
550.68	40664.98
550.88	40402.84
551.08	40118.17
551.279	40619.92
551.479	40210.33
551.679	40089.5
551.879	39880.61
552.079	40554.39
552.278	40505.24
552.478	40142.75
552.678	40415.13
552.878	40482.71
553.077	40224.67
553.277	40089.5
553.477	40679.32
553.676	40163.23
553.876	40234.91
554.076	40060.83
554.275	39628.71
554.475	39522.21
554.674	39796.64
554.874	39853.98
555.074	39954.33
555.273	40181.66
555.473	40302.49
555.672	39597.99
555.872	39999.39
556.071	40236.95
556.271	39942.05
556.47	39831.46
556.67	39471.01
556.869	39745.44
557.068	39593.89
557.268	39581.6
557.467	39739.3
557.667	39618.47
557.866	39597.99
558.065	39450.53
558.265	39444.39
558.464	39276.46
558.663	39641
558.863	39245.74
559.062	39608.23
559.261	39432.1
559.461	39471.01
559.66	38723.51
559.859	39149.48
560.058	38682.55
560.258	38934.45
560.457	38803.38
560.656	38952.88
560.855	38705.07
561.054	38723.51
561.253	38422.45
561.453	38682.55
561.652	38737.84
561.851	38793.14
562.05	38369.21
562.249	38487.99
562.448	38694.83
562.647	38621.11
562.846	38344.63
563.045	38479.8
563.244	37795.78
563.443	38682.55
563.642	37810.11
563.841	37763.01
564.04	37937.09
564.239	38436.79
564.438	37398.47
564.637	37863.36
564.836	37881.79
565.035	37380.04
565.234	37681.09
565.432	37275.59
565.631	37947.32
565.83	37515.2
566.029	37599.17
566.228	37214.15
566.427	37007.31
566.625	37271.5
566.824	36923.34
567.023	37414.85
567.222	36886.48
567.42	37066.7
567.619	37238.73
567.818	36730.83
568.016	36702.16
568.215	37363.65
568.414	36644.82
568.612	36749.26
568.811	36724.69
569.01	36847.57
569.208	36007.9
569.407	36462.55
569.605	36335.57
569.804	36435.92
570.002	36065.24
570.201	36220.89
570.4	36263.89
570.598	35878.88
570.797	35862.49
570.995	35796.96
571.193	35657.7
571.392	35702.75
571.59	35229.67
571.789	35059.69
571.987	35354.6
572.186	35076.07
572.384	35110.89
572.582	35327.97
572.781	35622.88
572.979	34559.98
573.177	35008.49
573.376	35403.75
573.574	34936.81
573.772	34834.41
573.971	34863.08
574.169	34004.99
574.367	34170.87
574.565	34861.04
574.763	34203.64
574.962	34265.08
575.16	34080.76
575.358	34142.2
575.556	33859.58
575.754	34031.61
575.952	33843.2
576.151	34265.08
576.349	33505.28
576.547	33488.9
576.745	33476.61
576.943	33626.11
577.141	33234.95
577.339	33523.71
577.537	33208.33
577.735	33003.53
577.933	33085.45
578.131	33202.18
578.329	33050.63
578.527	32645.13
578.725	32673.81
578.923	32571.41
579.121	32581.65
579.319	32350.23
579.516	32458.77
579.714	32593.93
579.912	32022.55
580.11	32184.34
580.308	32210.96
580.506	31987.74
580.704	31277.09
580.901	31830.04
581.099	31973.4
581.297	31549.47
581.495	31623.2
581.692	31600.67
581.89	31635.49
582.088	31748.12
582.285	31211.56
582.483	31313.95
582.681	31019.05
582.878	30861.35
583.076	30826.54
583.274	30922.79
583.471	30941.22
583.669	31203.36
583.866	30926.89
584.064	30734.38
584.262	30253.11
584.459	30515.25
584.657	30079.03
584.854	30330.93
585.052	29757.5
585.249	30490.67
585.447	30013.49
585.644	29909.05
585.841	30050.36
586.039	30353.46
586.236	29630.52
586.434	29462.59
586.631	29450.3
586.828	29528.13
587.026	29151.3
587.223	29198.4
587.42	29192.26
587.618	29071.43
587.815	29124.68
588.012	28846.15
588.21	28938.31
588.407	29341.76
588.604	28510.28
588.801	28405.84
588.999	28440.65
589.196	28385.36
589.393	28385.36
589.59	28186.71
589.787	28190.8
589.984	28108.88
590.182	27828.31
590.379	28149.84
590.576	27734.1
590.773	27721.82
590.97	27861.08
591.167	27889.75
591.364	27410.53
591.561	27555.93
591.758	27482.2
591.955	27172.96
592.152	27596.89
592.349	27168.87
592.546	27351.13
592.743	27064.42
592.94	26947.68
593.137	26916.97
593.334	27033.7
593.531	26341.49
593.727	26658.92
593.924	26886.25
594.121	26620.01
594.318	26570.86
594.515	26368.11
594.712	26429.55
594.908	26280.05
595.105	26302.57
595.302	26034.29
595.499	26038.39
595.696	25892.98
595.892	25677.94
596.089	26128.5
596.286	25499.77
596.482	25987.19
596.679	25565.31
596.876	25593.98
597.072	25833.59
597.269	25401.47
597.466	25002.11
597.662	25067.65
597.859	24897.67
598.055	24942.72
598.252	24955.01
598.448	24971.39
598.645	24764.55
598.841	24440.97
599.038	24936.58
599.234	24782.98
599.431	24066.19
599.627	24541.32
599.824	24649.86
600.02	24457.35
600.217	24201.36
600.413	24070.29
600.609	24035.47
600.806	23904.4
601.002	24334.48
601.198	23994.51
601.395	23754.9
601.591	23529.62
601.787	23910.55
601.984	23519.39
602.18	23613.59
602.376	23566.49
602.572	23451.8
602.769	23187.61
602.965	23257.25
603.161	23257.25
603.357	23009.44
603.553	22835.36
603.75	23128.22
603.946	22956.19
604.142	22681.77
604.338	22622.37
604.534	23152.8
604.73	22655.14
604.926	22294.7
605.122	22827.17
605.318	22444.2
605.514	22522.02
605.71	22034.61
605.906	22425.77
606.102	22143.15
606.298	22087.85
606.494	21885.11
606.69	21799.09
606.886	21995.7
607.082	21657.78
607.278	22141.1
607.474	21870.77
607.67	21801.14
607.866	21461.18
608.062	21414.07
608.257	21582.01
608.453	21596.34
608.649	21565.62
608.845	21321.91
609.041	21237.95
609.236	21315.77
609.432	21016.77
609.628	21063.87
609.824	20885.7
610.019	20869.31
610.215	21059.77
610.411	21201.08
610.606	20779.2
610.802	20988.1
610.998	20809.92
611.193	20170.96
611.389	20791.49
611.584	20551.88
611.78	20639.94
611.976	20680.9
612.171	20596.93
612.367	20474.06
612.562	20451.53
612.758	20050.13
612.953	19976.4
613.149	20457.67
613.344	20003.02
613.539	20545.73
613.735	20064.46
613.93	20336.84
614.126	19919.06
614.321	20183.24
614.517	20070.61
614.712	20017.36
614.907	19951.82
615.103	19994.83
615.298	19556.57
615.493	19978.45
615.688	19665.11
615.884	19914.96
616.079	19796.18
616.274	19521.75
616.47	19609.81
616.665	19611.86
616.86	19300.57
617.055	19255.51
617.25	19196.12
617.445	19402.97
617.641	19353.82
617.836	19306.71
618.031	18780.39
618.226	19359.96
618.421	18751.71
618.616	18919.65
618.811	18680.03
619.006	19054.81
619.201	18528.49
619.396	18872.54
619.591	18110.7
619.786	18790.63
619.981	18645.22
620.176	18469.09
620.371	17891.57
620.566	18331.88
620.761	18055.4
620.956	18034.92
621.151	17770.74
621.346	18051.31
621.541	17496.31
621.735	17768.69
621.93	17518.84
622.125	17438.97
622.32	17256.7
622.515	17189.11
622.709	17164.54
622.904	17240.31
623.099	17133.82
623.294	16976.12
623.488	16761.09
623.683	16797.95
623.878	16603.39
624.072	16738.56
624.267	16466.18
624.462	16347.4
624.656	16398.6
624.851	16347.4
625.046	16361.73
625.24	16206.09
625.435	16038.16
625.629	16023.82
625.824	15929.61
626.018	15677.71
626.213	15464.72
626.407	15894.8
626.602	15446.29
626.796	15481.11
626.991	15227.16
627.185	15372.57
627.38	15290.65
627.574	15087.9
627.768	15151.38
627.963	15008.03
628.157	14520.61
628.352	14790.94
628.546	14450.98
628.74	14846.24
628.935	14455.08
629.129	14432.55
629.323	14434.6
629.517	14184.74
629.712	14332.2
629.906	14111.02
630.1	14119.21
630.294	14113.06
630.489	13893.93
630.683	13943.08
630.877	13867.31
631.071	13652.27
631.265	13766.96
631.459	13656.37
631.653	13492.53
631.848	13445.43
632.042	13504.82
632.236	13414.71
632.43	12996.92
632.624	13293.88
632.818	13312.31
633.012	12857.66
633.206	13044.02
633.4	12820.8
633.594	12601.66
633.788	12714.3
633.982	12693.82
634.176	12857.66
634.369	12501.31
634.563	12695.87
634.757	12376.39
634.951	12544.32
635.145	12439.87
635.339	12501.31
635.533	11845.96
635.726	12247.37
635.92	11813.2
636.114	11977.03
636.308	11948.36
636.501	11999.56
636.695	11678.03
636.889	11604.3
637.083	11604.3
637.276	11510.1
637.47	11452.75
637.664	11313.49
637.857	11573.58
638.051	11434.32
638.244	11352.4
638.438	11235.67
638.632	11311.44
638.825	11217.24
639.019	10867.03
639.212	10819.93
639.406	10817.88
639.599	10916.19
639.793	10834.27
639.986	10752.35
640.18	10770.78
640.373	10785.12
640.567	10565.98
640.76	10606.94
640.954	10396
641.147	10469.73
641.34	10518.88
641.534	10377.57
641.727	10191.2
641.92	10309.99
642.114	10078.57
642.307	10023.27
642.5	10033.51
642.694	9849.19
642.887	9777.51
643.08	10006.89
643.273	9785.71
643.467	9816.43
643.66	9744.75
643.853	9564.53
644.046	9578.86
644.239	9673.07
644.432	9544.05
644.626	9335.15
644.819	9331.06
645.012	9275.76
645.205	9460.08
645.398	9378.16
645.591	9025.91
645.784	9245.04
645.977	8974.71
646.17	8821.11
646.363	9015.67
646.556	8720.76
646.749	8884.6
646.942	8741.24
647.135	8749.43
647.328	8712.57
647.521	8579.45
647.714	8403.33
647.907	8393.09
648.099	8337.79
648.292	8515.97
648.485	8454.53
648.678	8319.36
648.871	8272.26
649.064	8163.72
649.256	8233.35
649.449	7967.11
649.642	7913.86
649.835	8042.89
650.027	7905.67
650.22	7901.58
650.413	7991.69
650.605	7721.35
650.798	7754.12
650.991	7725.45
651.183	7877
651.376	7639.44
651.568	7702.92
651.761	7639.44
651.954	7397.78
652.146	7621
652.339	7463.31
652.531	7537.04
652.724	7305.62
652.916	7207.31
653.109	7221.65
653.301	7162.26
653.494	7045.52
653.686	7086.48
653.879	7223.7
654.071	7047.57
654.263	6863.26
654.456	6965.65
654.648	6867.35
654.84	6896.02
655.033	6797.72
655.225	6664.6
655.417	6672.79
655.61	6660.51
655.802	6652.31
655.994	6654.36
656.186	6648.22
656.379	6601.12
656.571	6642.07
656.763	6480.29
656.955	6394.27
657.148	6431.13
657.34	6482.33
657.532	6468
657.724	6463.9
657.916	6328.74
658.108	6334.88
658.3	6132.13
658.492	6314.4
658.684	6021.54
658.876	5894.57
659.068	6123.94
659.26	6082.98
659.452	6148.51
659.644	5841.32
659.836	5843.37
660.028	5861.8
660.22	5714.34
660.412	5691.82
660.604	5902.76
660.796	5722.54
660.988	5706.15
661.18	5648.81
661.372	5601.71
661.563	5462.44
661.755	5482.92
661.947	5517.74
662.139	5407.15
662.331	5448.11
662.522	5433.77
662.714	5206.45
662.906	5370.29
663.097	5341.61
663.289	5351.85
663.481	5231.02
663.673	5192.11
663.864	5183.92
664.056	5247.41
664.247	5116.34
664.439	5026.23
664.631	5067.19
664.822	5196.21
665.014	4823.48
665.205	4983.22
665.397	4889.01
665.588	4817.33
665.78	4878.77
665.971	4823.48
666.163	4747.7
666.354	4673.98
666.546	4688.31
666.737	4559.29
666.929	4524.47
667.12	4747.7
667.311	4540.86
667.503	4522.43
667.694	4641.21
667.885	4551.1
668.077	4510.14
668.268	4383.17
668.459	4624.83
668.651	4460.99
668.842	4504
669.033	4340.16
669.224	4305.34
669.416	4362.69
669.607	4362.69
669.798	4268.48
669.989	4219.33
670.18	4192.7
670.371	4223.42
670.563	4108.74
670.754	4280.77
670.945	4028.87
671.136	4100.55
671.327	3985.86
671.518	4202.94
671.709	4116.93
671.9	4059.59
672.091	4082.11
672.282	4037.06
672.473	3944.9
672.664	3867.08
672.855	3871.17
673.046	3848.65
673.237	4035.01
673.428	3889.6
673.619	3822.02
673.809	3824.07
674	3797.45
674.191	3764.68
674.382	3809.73
674.573	3756.49
674.764	3830.21
674.954	3781.06
675.145	3838.41
675.336	3842.5
675.527	3731.91
675.717	3801.54
675.908	3598.79
676.099	3684.81
676.289	3643.85
676.48	3699.14
676.671	3617.22
676.861	3666.38
677.052	3563.98
677.243	3441.1
677.433	3627.46
677.624	3654.09
677.814	3486.15
678.005	3434.96
678.195	3627.46
678.386	3408.33
678.576	3527.11
678.767	3514.83
678.957	3471.82
679.148	3506.63
679.338	3463.63
679.529	3480.01
679.719	3369.42
679.909	3510.73
680.1	3480.01
680.29	3506.63
680.481	3355.08
680.671	3502.54
680.861	3346.89
681.052	3445.2
681.242	3498.44
681.432	3379.66
681.622	3400.14
681.813	3277.26
682.003	3428.81
682.193	3248.59
682.383	3453.39
682.573	3346.89
682.764	3359.18
682.954	3346.89
683.144	3248.59
683.334	3267.02
683.524	3275.21
683.714	3369.42
683.904	3260.88
684.094	3342.8
684.284	3195.34
684.474	3394
684.664	3207.63
684.854	3236.3
685.044	3228.11
685.234	3236.3
685.424	3342.8
685.614	3277.26
685.804	3199.44
685.994	3162.58
686.184	3346.89
686.374	3244.49
686.564	3242.45
686.753	3207.63
686.943	3168.72
687.133	3234.25
687.323	3224.01
687.513	3101.14
687.702	3176.91
687.892	3111.38
688.082	3045.84
688.272	3154.38
688.461	3191.25
688.651	3125.71
688.841	3056.08
689.03	3103.18
689.22	3129.81
689.41	3088.85
689.599	3070.42
689.789	2965.97
689.979	2996.69
690.168	2986.45
690.358	2937.3
690.547	2894.29
690.737	3068.37
690.926	2957.78
691.116	2961.87
691.305	2986.45
691.495	2896.34
691.684	2861.52
691.874	2920.92
692.063	2939.35
692.252	2898.39
692.442	2851.28
692.631	2916.82
692.82	2824.66
693.01	2945.49
693.199	2886.1
693.388	2879.96
693.578	2955.73
693.767	2804.18
693.956	2855.38
694.146	2855.38
694.335	2920.92
694.524	2851.28
694.713	2732.5
694.902	2912.72
695.092	2818.52
695.281	2841.04
695.47	2857.43
695.659	2789.85
695.848	2744.79
696.037	2859.48
696.226	2716.12
696.415	2744.79
696.604	2820.56
696.793	2773.46
696.982	2630.1
697.171	2707.93
697.36	2617.82
697.549	2693.59
697.738	2673.11
697.927	2699.73
698.116	2695.64
698.305	2685.4
698.494	2693.59
698.683	2626.01
698.872	2800.09
699.061	2734.55
699.25	2730.45
699.438	2658.78
699.627	2630.1
699.816	2793.94
700.005	2560.47
700.193	2773.46
700.382	2607.58
700.571	2685.4
700.76	2490.84
700.948	2646.49
701.137	2589.14
701.326	2617.82
701.514	2511.32
701.703	2560.47
701.892	2580.95
702.08	2619.86
702.269	2546.14
702.457	2511.32
702.646	2490.84
702.834	2445.79
703.023	2441.69
703.212	2537.95
703.4	2568.66
703.589	2511.32
703.777	2425.31
703.965	2474.46
704.154	2503.13
704.342	2505.18
704.531	2486.75
704.719	2439.64
704.907	2425.31
705.096	2417.12
705.284	2431.45
705.472	2367.96
705.661	2447.83
705.849	2560.47
706.037	2392.54
706.226	2513.37
706.414	2406.88
706.602	2509.27
706.79	2353.63
706.979	2376.16
707.167	2372.06
707.355	2318.81
707.543	2413.02
707.731	2445.79
707.919	2445.79
708.107	2353.63
708.296	2212.32
708.484	2384.35
708.672	2339.29
708.86	2380.25
709.048	2410.97
709.236	2253.28
709.424	2265.57
709.612	2367.96
709.8	2294.24
709.988	2220.51
710.176	2503.13
710.364	2376.16
710.551	2388.44
710.739	2187.74
710.927	2339.29
711.115	2322.91
711.303	2240.99
711.491	2306.52
711.679	2202.08
711.866	2202.08
712.054	2331.1
712.242	2181.6
712.43	2281.95
712.617	2281.95
712.805	2154.98
712.993	2101.73
713.181	2118.11
713.368	2277.85
713.556	2195.93
713.744	2081.25
713.931	2208.22
714.119	2163.17
714.306	2122.21
714.494	2144.74
714.682	2169.31
714.869	2122.21
715.057	2175.45
715.244	2054.62
715.432	2265.57
715.619	2179.55
715.807	2103.78
715.994	2062.82
716.182	2036.19
716.369	2099.68
716.556	2210.27
716.744	2105.82
716.931	2079.2
717.119	2128.35
717.306	1929.7
717.493	2122.21
717.681	2152.93
717.868	2095.58
718.055	2013.67
718.242	2036.19
718.43	2105.82
718.617	2036.19
718.804	2030.05
718.991	2019.81
719.179	2087.39
719.366	2126.3
719.553	2154.98
719.74	1980.9
719.927	1995.23
720.114	1997.28
720.301	1954.27
720.488	1911.27
720.676	2011.62
720.863	2019.81
721.05	2011.62
721.237	2036.19
721.424	1892.84
721.611	2044.38
721.798	2005.47
721.985	2001.38
722.172	1937.89
722.358	2007.52
722.545	1976.8
722.732	1964.51
722.919	2034.14
723.106	1933.79
723.293	1927.65
723.48	1946.08
723.667	1913.31
723.853	1958.37
724.04	1995.23
724.227	1970.66
724.414	1855.97
724.6	2013.67
724.787	2003.43
724.974	1917.41
725.161	1903.07
725.347	1843.68
725.534	1958.37
725.72	1901.03
725.907	1946.08
726.094	1937.89
726.28	1821.16
726.467	1860.07
726.653	1976.8
726.84	1907.17
727.027	1802.72
727.213	1931.75
727.4	1941.99
727.586	1868.26
727.773	1872.36
727.959	1776.1
728.145	1907.17
728.332	1933.79
728.518	1825.25
728.705	1841.64
728.891	1866.21
729.077	1882.6
729.264	1849.83
729.45	1769.96
729.636	1892.84
729.823	1780.2
730.009	1831.4
730.195	1792.48
730.382	1769.96
730.568	1786.34
730.754	1843.68
730.94	1790.44
731.126	1778.15
731.313	1909.22
731.499	1819.11
731.685	1825.25
731.871	1847.78
732.057	1858.02
732.243	1905.12
732.429	1874.4
732.615	1886.69
732.801	1708.52
732.987	1761.77
733.173	1817.06
733.359	1663.46
733.545	1743.33
733.731	1708.52
733.917	1772
734.103	1829.35
734.289	1794.53
734.475	1737.19
734.661	1774.05
734.847	1743.33
735.033	1827.3
735.219	1671.65
735.404	1659.37
735.59	1800.68
735.776	1630.7
735.962	1642.98
736.148	1724.9
736.333	1737.19
736.519	1692.13
736.705	1636.84
736.89	1745.38
737.076	1765.86
737.262	1642.98
737.447	1685.99
737.633	1602.02
737.819	1583.59
738.004	1618.41
738.19	1661.41
738.375	1628.65
738.561	1747.43
738.747	1733.09
738.932	1653.22
739.118	1583.59
739.303	1571.3
739.489	1683.94
739.674	1528.3
739.859	1569.26
740.045	1710.57
740.23	1708.52
740.416	1589.74
740.601	1628.65
740.786	1616.36
740.972	1579.5
741.157	1581.54
741.342	1438.19
741.528	1579.5
741.713	1663.46
741.898	1585.64
742.084	1573.35
742.269	1511.91
742.454	1509.86
742.639	1593.83
742.824	1538.54
743.01	1556.97
743.195	1499.63
743.38	1503.72
743.565	1487.34
743.75	1536.49
743.935	1448.43
744.12	1456.62
744.305	1479.15
744.49	1429.99
744.675	1462.76
744.86	1470.95
745.045	1442.28
745.23	1409.51
745.415	1438.19
745.6	1423.85
745.785	1432.04
745.97	1389.03
746.155	1391.08
746.34	1343.98
746.525	1442.28
746.71	1399.27
746.895	1350.12
747.079	1391.08
747.264	1378.79
747.449	1298.92
747.634	1360.36
747.819	1253.87
748.003	1360.36
748.188	1315.31
748.373	1290.73
748.557	1268.2
748.742	1262.06
748.927	1395.18
749.111	1260.01
749.296	1305.07
749.481	1327.6
749.665	1219.05
749.85	1282.54
750.034	1249.77
750.219	1257.96
750.404	1192.43
750.588	1280.49
750.773	1184.24
750.957	1227.25
751.141	1176.05
751.326	1229.29
751.51	1178.09
751.695	1073.65
751.879	1165.81
752.064	1325.55
752.248	1126.89
752.432	1126.89
752.617	1128.94
752.801	1063.41
752.985	1141.23
753.17	1114.61
753.354	1110.51
753.538	1161.71
753.722	1096.18
753.907	1186.29
754.091	1141.23
754.275	1102.32
754.459	1061.36
754.643	975.35
754.828	1106.42
755.012	1044.98
755.196	987.63
755.38	1079.79
755.564	1044.98
755.748	1022.45
755.932	971.25
756.116	1022.45
756.3	1032.69
756.484	997.87
756.668	897.52
756.852	1010.16
757.036	954.87
757.22	973.3
757.404	958.96
757.588	901.62
757.772	954.87
757.956	926.19
758.14	1036.78
758.323	889.33
758.507	961.01
758.691	936.43
758.875	971.25
759.059	965.11
759.242	858.61
759.426	854.51
759.61	795.12
759.794	807.41
759.977	889.33
760.161	934.39
760.345	897.52
760.528	823.8
760.712	825.84
760.895	889.33
761.079	754.16
761.263	848.37
761.446	852.47
761.63	831.99
761.813	780.79
761.997	807.41
762.18	829.94
762.364	842.23
762.547	776.69
762.731	856.56
762.914	881.14
763.098	838.13
763.281	793.08
763.464	840.18
763.648	688.63
763.831	748.02
764.015	885.23
764.198	733.68
764.381	727.54
764.564	840.18
764.748	745.97
764.931	782.84
765.114	727.54
765.297	662.01
765.481	686.58
765.664	692.73
765.847	743.92
766.03	823.8
766.213	784.88
766.397	768.5
766.58	774.64
766.763	770.55
766.946	719.35
767.129	778.74
767.312	735.73
767.495	635.38
767.678	702.97
767.861	717.3
768.044	733.68
768.227	702.97
768.41	688.63
768.593	784.88
768.776	786.93
768.959	760.31
769.142	670.2
769.324	635.38
769.507	709.11
769.69	565.75
769.873	717.3
770.056	756.21
770.239	688.63
770.421	684.53
770.604	659.96
770.787	625.14
770.97	651.77
771.152	678.39
771.335	678.39
771.518	727.54
771.7	702.97
771.883	684.53
772.066	645.62
772.248	684.53
772.431	635.38
772.613	637.43
772.796	578.04
772.978	647.67
773.161	668.15
773.343	625.14
773.526	627.19
773.708	735.73
773.891	537.08
774.073	596.47
774.256	571.9
774.438	580.09
774.621	549.37
774.803	588.28
774.985	586.23
775.168	541.18
775.35	586.23
775.532	580.09
775.715	541.18
775.897	541.18
776.079	578.04
776.261	573.94
776.444	532.98
776.626	612.85
776.808	528.89
776.99	508.41
777.173	553.46
777.355	485.88
777.537	481.78
777.719	514.55
777.901	496.12
778.083	547.32
778.265	547.32
778.447	571.9
778.629	578.04
778.811	449.02
778.993	438.78
779.175	465.4
779.357	492.02
779.539	506.36
779.721	504.31
779.903	506.36
780.085	446.97
780.267	475.64
780.449	483.83
780.631	483.83
780.812	504.31
780.994	434.68
781.176	438.78
781.358	532.98
781.54	438.78
781.721	471.54
781.903	479.74
782.085	471.54
782.267	463.35
782.448	410.11
782.63	406.01
782.812	475.64
782.993	451.07
783.175	473.59
783.357	365.05
783.538	432.63
783.72	299.52
783.901	463.35
784.083	436.73
784.264	453.11
784.446	434.68
784.627	412.15
784.809	348.67
784.99	432.63
785.172	426.49
785.353	389.63
785.535	397.82
785.716	328.19
785.897	342.52
786.079	295.42
786.26	336.38
786.441	356.86
786.623	295.42
786.804	268.8
786.985	332.28
787.167	348.67
787.348	344.57
787.529	344.57
787.71	352.76
787.891	330.23
788.073	276.99
788.254	377.34
788.435	397.82
788.616	393.72
788.797	283.13
788.978	293.37
789.159	358.91
789.34	393.72
789.522	311.8
789.703	365.05
789.884	266.75
790.065	315.9
790.246	283.13
790.427	326.14
790.607	315.9
790.788	307.71
790.969	266.75
791.15	311.8
791.331	309.76
791.512	283.13
791.693	203.26
791.874	215.55
792.054	401.91
792.235	289.28
792.416	252.41
792.597	131.58
792.778	248.32
792.958	236.03
793.139	221.69
793.32	287.23
793.5	238.08
793.681	276.99
793.862	233.98
794.042	227.84
794.223	285.18
794.404	260.6
794.584	201.21
794.765	285.18
794.945	254.46
795.126	244.22
795.306	320
795.487	307.71
795.667	365.05
795.848	250.36
796.028	193.02
796.209	262.65
796.389	252.41
796.57	217.6
796.75	274.94
796.93	217.6
797.111	199.16
797.291	197.12
797.471	197.12
797.652	156.16
797.832	205.31
798.012	270.84
798.192	211.45
798.373	168.45
798.553	211.45
798.733	174.59
798.913	201.21
799.093	104.96
799.274	217.6
799.454	219.64
799.634	201.21
799.814	227.84
799.994	233.98
800.174	217.6
800.354	195.07
800.534	86.53
800.714	195.07
800.894	252.41
801.074	213.5
801.254	195.07
801.434	197.12
801.614	215.55
801.794	227.84
801.974	696.82
802.154	184.83
802.334	266.75
802.514	154.11
802.693	168.45
802.873	209.4
803.053	238.08
803.233	143.87
803.413	170.49
803.592	190.97
803.772	176.64
803.952	209.4
804.131	137.73
804.311	162.3
804.491	279.04
804.67	193.02
804.85	197.12
805.03	203.26
805.209	266.75
805.389	147.97
805.568	135.68
805.748	180.73
805.928	186.88
806.107	162.3
806.287	244.22
806.466	33.28
806.646	127.49
806.825	104.96
807.004	102.91
807.184	233.98
807.363	225.79
807.543	160.25
807.722	176.64
807.901	219.64
808.081	219.64
808.26	49.66
808.439	102.91
808.619	168.45
808.798	164.35
808.977	139.77
809.156	156.16
809.336	184.83
809.515	178.69
809.694	145.92
809.873	23.04
810.052	197.12
810.231	100.86
810.411	90.62
810.59	211.45
810.769	119.29
810.948	162.3
811.127	51.71
811.306	127.49
811.485	72.19
811.664	203.26
811.843	68.09
812.022	152.06
812.201	123.39
812.38	55.81
812.559	143.87
812.737	45.57
812.916	41.47
813.095	145.92
813.274	137.73
813.453	170.49
813.632	109.05
813.811	135.68
813.989	135.68
814.168	135.68
814.347	66.05
814.526	86.53
814.704	70.14
814.883	170.49
815.062	37.38
815.24	82.43
815.419	109.05
815.598	90.62
815.776	143.87
815.955	160.25
816.133	88.57
816.312	59.9
816.49	-9.73
816.669	135.68
816.847	102.91
817.026	164.35
817.204	66.05
817.383	107.01
817.561	45.57
817.74	147.97
817.918	84.48
818.097	115.2
818.275	74.24
818.453	135.68
818.632	162.3
818.81	115.2
818.988	70.14
819.167	47.62
819.345	107.01
819.523	78.33
819.701	94.72
819.879	102.91
820.058	78.33
820.236	133.63
820.414	113.15
820.592	104.96
820.77	20.99
820.948	92.67
821.127	119.29
821.305	90.62
821.483	53.76
821.661	178.69
821.839	115.2
822.017	20.99
822.195	123.39
822.373	96.77
822.551	45.57
822.729	86.53
822.907	70.14
823.085	74.24
823.262	80.38
823.44	88.57
823.618	23.04
823.796	16.9
823.974	123.39
824.152	125.44
824.329	53.76
824.507	78.33
824.685	47.62
824.863	37.38
825.04	37.38
825.218	80.38
825.396	45.57
825.574	102.91
825.751	82.43
825.929	143.87
826.107	12.8
826.284	113.15
826.462	98.81
826.639	127.49
826.817	125.44
826.994	-19.97
827.172	20.99
827.349	47.62
827.527	6.66
827.704	84.48
827.882	80.38
828.059	-17.92
828.237	45.57
828.414	90.62
828.591	12.8
828.769	61.95
828.946	72.19
829.124	111.1
829.301	10.75
829.478	88.57
829.655	86.53
829.833	37.38
830.01	29.18
830.187	45.57
830.364	49.66
830.542	78.33
830.719	45.57
830.896	70.14
831.073	61.95
831.25	70.14
831.427	70.14
831.604	131.58
831.782	31.23
831.959	137.73
832.136	68.09
832.313	84.48
832.49	47.62
832.667	61.95
832.844	27.14
833.021	80.38
833.198	129.53
833.374	-19.97
833.551	45.57
833.728	94.72
833.905	33.28
834.082	-19.97
834.259	66.05
834.436	147.97
834.612	31.23
834.789	57.86
834.966	74.24
835.143	152.06
835.319	37.38
835.496	39.42
835.673	18.94
835.85	64
836.026	86.53
836.203	57.86
836.38	121.34
836.556	66.05
836.733	45.57
836.909	55.81
837.086	61.95
837.262	82.43
837.439	70.14
837.616	45.57
837.792	70.14
837.968	135.68
838.145	-36.35
838.321	66.05
838.498	61.95
838.674	53.76
838.851	70.14
839.027	-17.92
839.203	70.14
839.38	66.05
839.556	2.56
839.732	90.62
839.909	37.38
840.085	88.57
840.261	10.75
840.437	100.86
840.614	25.09
840.79	80.38
840.966	41.47
841.142	39.42
841.318	86.53
841.494	86.53
841.671	49.66
841.847	35.33
842.023	33.28
842.199	84.48
842.375	98.81
842.551	8.7
842.727	-3.58
842.903	86.53
843.079	33.28
843.255	37.38
843.431	86.53
843.607	49.66
843.783	-60.93
843.959	107.01
844.134	-11.78
844.31	102.91
844.486	12.8
844.662	-3.58
844.838	6.66
845.013	111.1
845.189	-19.97
845.365	-11.78
845.541	57.86
845.716	61.95
845.892	61.95
846.068	14.85
846.244	49.66
846.419	57.86
846.595	33.28
846.77	-19.97
846.946	-22.02
847.122	-7.68
847.297	37.38
847.473	172.54
847.648	12.8
847.824	35.33
847.999	-13.82
848.175	-15.87
848.35	25.09
848.526	61.95
848.701	12.8
848.876	-5.63
849.052	35.33
849.227	23.04
849.403	88.57
849.578	29.18
849.753	41.47
849.929	33.28
850.104	-34.3
850.279	39.42
850.454	96.77
850.63	20.99
850.805	55.81
850.98	-11.78
851.155	33.28
851.33	31.23
851.505	-32.26
851.681	80.38
851.856	37.38
852.031	53.76
852.206	55.81
852.381	-5.63
852.556	64
852.731	0.51
852.906	16.9
853.081	96.77
853.256	45.57
853.431	14.85
853.606	-5.63
853.781	-3.58
853.956	-7.68
854.131	45.57
854.305	-22.02
854.48	23.04
854.655	-42.5
854.83	70.14
855.005	37.38
855.18	-9.73
855.354	53.76
855.529	55.81
855.704	6.66
855.879	-11.78
856.053	31.23
856.228	49.66
856.403	-3.58
856.577	61.95
856.752	-11.78
856.926	76.29
857.101	37.38
857.276	37.38
857.45	-1.54
857.625	49.66
857.799	-3.58
857.974	-3.58
858.148	-13.82
858.323	45.57
858.497	59.9
858.672	-42.5
858.846	41.47
859.02	4.61
859.195	41.47
859.369	61.95
859.543	-19.97
859.718	6.66
859.892	8.7
860.066	33.28
860.241	-1.54
860.415	33.28
860.589	64
860.763	49.66
860.938	-48.64
861.112	37.38
861.286	-42.5
861.46	61.95
861.634	-11.78
861.808	27.14
861.982	-7.68
862.157	-19.97
862.331	-7.68
862.505	18.94
862.679	39.42
862.853	-11.78
863.027	-17.92
863.201	78.33
863.375	39.42
863.549	14.85
863.722	23.04
863.896	31.23
864.07	-17.92
864.244	16.9
864.418	20.99
864.592	29.18
864.766	72.19
864.939	123.39
865.113	-28.16
865.287	-19.97
865.461	0.51
865.634	-19.97
865.808	20.99
865.982	-17.92
866.156	20.99
866.329	14.85
866.503	-3.58
866.676	45.57
866.85	-19.97
867.024	-40.45
867.197	70.14
867.371	61.95
867.544	-75.26
867.718	-11.78
867.891	37.38
868.065	-11.78
868.238	23.04
868.412	-7.68
868.585	57.86
868.759	-5.63
868.932	43.52
869.105	14.85
869.279	-9.73
869.452	31.23
869.625	47.62
869.799	29.18
869.972	31.23
870.145	-30.21
870.319	127.49
870.492	72.19
870.665	-32.26
870.838	16.9
871.011	-36.35
871.185	16.9
871.358	12.8
871.531	-1.54
871.704	14.85
871.877	-11.78
872.05	29.18
872.223	4.61
872.396	12.8
872.569	53.76
872.742	-30.21
872.915	47.62
873.088	0.51
873.261	-1.54
873.434	98.81
873.607	-34.3
873.78	16.9
873.953	18.94
874.126	6.66
874.299	16.9
874.471	-40.45
874.644	41.47
874.817	-7.68
874.99	66.05
875.163	57.86
875.335	37.38
875.508	6.66
875.681	78.33
875.853	-3.58
876.026	6.66
876.199	61.95
876.371	-42.5
876.544	-24.06
876.717	-24.06
876.889	61.95
877.062	37.38
877.234	20.99
877.407	20.99
877.579	-52.74
877.752	-3.58
877.924	29.18
878.097	90.62
878.269	-17.92
878.442	-9.73
878.614	0.51
878.786	59.9
878.959	49.66
879.131	20.99
879.303	-52.74
879.476	31.23
879.648	12.8
879.82	-24.06
879.993	-58.88
880.165	-11.78
880.337	-24.06
880.509	-7.68
880.681	-56.83
880.854	16.9
881.026	43.52
881.198	41.47
881.37	0.51
881.542	-26.11
881.714	-9.73
881.886	12.8
882.058	0.51
882.23	45.57
882.402	-15.87
882.574	61.95
882.746	20.99
882.918	20.99
883.09	-24.06
883.262	-3.58
883.434	4.61
883.606	-52.74
883.778	-3.58
883.95	39.42
884.122	-56.83
884.293	94.72
884.465	-32.26
884.637	8.7
884.809	-65.02
884.98	16.9
885.152	39.42
885.324	20.99
885.496	0.51
885.667	6.66
885.839	-42.5
886.011	-11.78
886.182	29.18
886.354	70.14
886.525	61.95
886.697	39.42
886.869	-56.83
887.04	-9.73
887.212	12.8
887.383	-9.73
887.555	20.99
887.726	-3.58
887.897	-9.73
888.069	82.43
888.24	-24.06
888.412	0.51
888.583	47.62
888.754	4.61
888.926	-13.82
889.097	2.56
889.268	-15.87
889.44	6.66
889.611	23.04
889.782	16.9
889.953	-15.87
890.125	37.38
890.296	23.04
890.467	37.38
890.638	-19.97
890.809	37.38
890.98	6.66
891.151	-15.87
891.323	14.85
891.494	45.57
891.665	-36.35
891.836	-11.78
892.007	6.66
892.178	-11.78
892.349	55.81
892.52	-34.3
892.691	-11.78
892.862	-32.26
893.032	-48.64
893.203	-26.11
893.374	66.05
893.545	27.14
893.716	-48.64
893.887	29.18
894.057	-3.58
894.228	12.8
894.399	-17.92
894.57	14.85
894.74	-52.74
894.911	39.42
895.082	23.04
895.253	27.14
895.423	-19.97
895.594	8.7
895.764	53.76
895.935	12.8
896.106	39.42
896.276	-60.93
896.447	-19.97
896.617	-3.58
896.788	-89.6
896.958	-15.87
897.129	-3.58
897.299	20.99
897.47	-9.73
897.64	45.57
897.81	14.85
897.981	35.33
898.151	-34.3
898.322	-19.97
898.492	64
898.662	-22.02
898.832	31.23
899.003	31.23
899.173	-32.26
899.343	-38.4
899.513	20.99
