Data from USB4F104151__117__14-43-53-730.txt Node

Date: Thu Mar 13 14:43:53 EDT 2025
User: louis
Spectrometer: USB4F10415
Trigger mode: 4
Integration Time (sec): 2.000000E-2
Scans to average: 1
Electric dark correction enabled: true
Nonlinearity correction enabled: false
Boxcar width: 0
XAxis mode: Wavelengths
Number of Pixels in Spectrum: 3648
>>>>>Begin Spectral Data<<<<<
178.204	-112.98
178.424	-112.98
178.644	-112.98
178.864	-110.93
179.084	-67.92
179.304	-47.44
179.524	3.75
179.744	3.75
179.964	-12.63
180.184	40.62
180.404	20.14
180.624	9.9
180.844	-26.96
181.064	30.38
181.283	-18.77
181.503	42.67
181.723	-45.4
181.943	20.14
182.163	61.1
182.383	-33.11
182.602	-31.06
182.822	5.8
183.042	9.9
183.262	9.9
183.482	13.99
183.701	-12.63
183.921	42.67
184.141	59.05
184.361	75.43
184.58	22.19
184.8	67.24
185.02	-45.4
185.239	52.91
185.459	79.53
185.679	93.87
185.898	-55.64
186.118	1.71
186.338	20.14
186.557	30.38
186.777	32.43
186.997	28.33
187.216	50.86
187.436	118.44
187.655	46.76
187.875	42.67
188.095	-31.06
188.314	63.15
188.534	102.06
188.753	-22.87
188.973	52.91
189.192	65.19
189.412	71.34
189.631	1.71
189.851	7.85
190.07	67.24
190.29	-0.34
190.509	18.09
190.729	26.28
190.948	42.67
191.168	153.26
191.387	44.71
191.607	28.33
191.826	1.71
192.045	-8.53
192.265	-12.63
192.484	9.9
192.704	38.57
192.923	9.9
193.142	1.71
193.362	71.34
193.581	-8.53
193.8	-26.96
194.02	91.82
194.239	5.8
194.458	34.47
194.678	26.28
194.897	11.95
195.116	26.28
195.335	50.86
195.555	9.9
195.774	65.19
195.993	-12.63
196.212	52.91
196.432	-2.39
196.651	54.95
196.87	34.47
197.089	126.63
197.308	110.25
197.528	75.43
197.747	42.67
197.966	-10.58
198.185	42.67
198.404	75.43
198.623	52.91
198.842	-12.63
199.062	36.52
199.281	126.63
199.5	24.23
199.719	38.57
199.938	67.24
200.157	57
200.376	-22.87
200.595	46.76
200.814	50.86
201.033	-6.49
201.252	26.28
201.471	20.14
201.69	-16.73
201.909	13.99
202.128	52.91
202.347	52.91
202.566	20.14
202.785	-51.54
203.004	52.91
203.223	71.34
203.442	13.99
203.661	36.52
203.879	46.76
204.098	100.01
204.317	28.33
204.536	48.81
204.755	95.91
204.974	71.34
205.193	26.28
205.411	100.01
205.63	13.99
205.849	-12.63
206.068	50.86
206.287	42.67
206.505	61.1
206.724	11.95
206.943	1.71
207.162	11.95
207.381	34.47
207.599	36.52
207.818	5.8
208.037	36.52
208.255	-63.83
208.474	73.39
208.693	7.85
208.911	1.71
209.13	-4.44
209.349	52.91
209.567	63.15
209.786	40.62
210.005	-6.49
210.223	108.2
210.442	1.71
210.661	42.67
210.879	5.8
211.098	36.52
211.316	5.8
211.535	69.29
211.753	-6.49
211.972	11.95
212.191	-14.68
212.409	1.71
212.628	40.62
212.846	1.71
213.065	32.43
213.283	75.43
213.502	-39.25
213.72	63.15
213.938	85.67
214.157	3.75
214.375	46.76
214.594	9.9
214.812	-6.49
215.031	5.8
215.249	-2.39
215.467	46.76
215.686	95.91
215.904	59.05
216.122	50.86
216.341	110.25
216.559	118.44
216.778	54.95
216.996	28.33
217.214	34.47
217.432	44.71
217.651	11.95
217.869	20.14
218.087	79.53
218.306	-2.39
218.524	85.67
218.742	13.99
218.96	7.85
219.179	-0.34
219.397	-6.49
219.615	136.87
219.833	16.04
220.051	-8.53
220.27	67.24
220.488	18.09
220.706	108.2
220.924	-45.4
221.142	-22.87
221.36	-33.11
221.578	44.71
221.796	-47.44
222.015	-43.35
222.233	13.99
222.451	59.05
222.669	-14.68
222.887	91.82
223.105	13.99
223.323	26.28
223.541	-35.16
223.759	52.91
223.977	-47.44
224.195	89.77
224.413	61.1
224.631	97.96
224.849	77.48
225.067	128.68
225.285	-20.82
225.503	26.28
225.721	-26.96
225.939	93.87
226.157	44.71
226.375	73.39
226.592	1.71
226.81	32.43
227.028	26.28
227.246	100.01
227.464	63.15
227.682	-39.25
227.9	-6.49
228.117	91.82
228.335	18.09
228.553	20.14
228.771	-18.77
228.989	-55.64
229.206	48.81
229.424	11.95
229.642	-45.4
229.86	-18.77
230.077	69.29
230.295	20.14
230.513	13.99
230.731	36.52
230.948	71.34
231.166	75.43
231.384	50.86
231.601	-39.25
231.819	59.05
232.037	-22.87
232.254	54.95
232.472	26.28
232.689	-31.06
232.907	42.67
233.125	30.38
233.342	3.75
233.56	20.14
233.777	28.33
233.995	-2.39
234.213	-4.44
234.43	18.09
234.648	-29.01
234.865	-45.4
235.083	5.8
235.3	36.52
235.518	77.48
235.735	-6.49
235.953	46.76
236.17	32.43
236.388	69.29
236.605	18.09
236.822	57
237.04	46.76
237.257	26.28
237.475	87.72
237.692	75.43
237.909	34.47
238.127	-129.36
238.344	-4.44
238.562	9.9
238.779	-39.25
238.996	-6.49
239.214	20.14
239.431	75.43
239.648	44.71
239.865	26.28
240.083	13.99
240.3	61.1
240.517	48.81
240.735	18.09
240.952	32.43
241.169	50.86
241.386	28.33
241.603	20.14
241.821	-2.39
242.038	18.09
242.255	-14.68
242.472	-6.49
242.689	77.48
242.907	67.24
243.124	54.95
243.341	26.28
243.558	-8.53
243.775	-2.39
243.992	22.19
244.209	18.09
244.426	42.67
244.643	59.05
244.86	50.86
245.078	67.24
245.295	63.15
245.512	1.71
245.729	-84.31
245.946	16.04
246.163	18.09
246.38	26.28
246.597	-14.68
246.814	52.91
247.031	-39.25
247.248	34.47
247.464	-2.39
247.681	67.24
247.898	1.71
248.115	18.09
248.332	-59.73
248.549	91.82
248.766	106.15
248.983	38.57
249.2	-31.06
249.417	9.9
249.633	11.95
249.85	-20.82
250.067	73.39
250.284	65.19
250.501	42.67
250.717	36.52
250.934	-26.96
251.151	69.29
251.368	50.86
251.585	67.24
251.801	59.05
252.018	24.23
252.235	95.91
252.451	-45.4
252.668	1.71
252.885	106.15
253.102	9.9
253.318	28.33
253.535	77.48
253.752	-18.77
253.968	-41.3
254.185	-4.44
254.401	67.24
254.618	-31.06
254.835	52.91
255.051	75.43
255.268	50.86
255.484	-14.68
255.701	-24.92
255.917	114.34
256.134	3.75
256.351	85.67
256.567	-14.68
256.784	65.19
257	-14.68
257.217	30.38
257.433	-26.96
257.65	-39.25
257.866	16.04
258.082	57
258.299	34.47
258.515	83.63
258.732	-6.49
258.948	40.62
259.165	22.19
259.381	-10.58
259.597	1.71
259.814	36.52
260.03	-26.96
260.246	-14.68
260.463	30.38
260.679	130.73
260.895	61.1
261.112	3.75
261.328	-76.12
261.544	63.15
261.761	102.06
261.977	-10.58
262.193	13.99
262.409	-10.58
262.626	18.09
262.842	1.71
263.058	-12.63
263.274	44.71
263.49	46.76
263.707	93.87
263.923	50.86
264.139	3.75
264.355	50.86
264.571	1.71
264.787	28.33
265.004	18.09
265.22	28.33
265.436	-14.68
265.652	3.75
265.868	26.28
266.084	-6.49
266.3	52.91
266.516	-6.49
266.732	52.91
266.948	91.82
267.164	46.76
267.38	-12.63
267.596	46.76
267.812	30.38
268.028	-43.35
268.244	9.9
268.46	13.99
268.676	9.9
268.892	11.95
269.108	-6.49
269.324	-61.78
269.54	-20.82
269.756	-29.01
269.972	-49.49
270.188	75.43
270.403	46.76
270.619	77.48
270.835	-14.68
271.051	71.34
271.267	11.95
271.483	-22.87
271.698	44.71
271.914	91.82
272.13	9.9
272.346	48.81
272.562	63.15
272.777	63.15
272.993	67.24
273.209	-22.87
273.425	69.29
273.64	34.47
273.856	44.71
274.072	18.09
274.287	-53.59
274.503	34.47
274.719	20.14
274.934	13.99
275.15	-6.49
275.366	-6.49
275.581	16.04
275.797	44.71
276.012	-4.44
276.228	5.8
276.444	11.95
276.659	85.67
276.875	22.19
277.09	1.71
277.306	-6.49
277.521	59.05
277.737	36.52
277.952	5.8
278.168	32.43
278.383	40.62
278.599	-10.58
278.814	38.57
279.03	42.67
279.245	52.91
279.461	57
279.676	30.38
279.892	-2.39
280.107	67.24
280.322	-20.82
280.538	61.1
280.753	67.24
280.969	-31.06
281.184	1.71
281.399	63.15
281.615	-22.87
281.83	-14.68
282.045	13.99
282.26	-39.25
282.476	-14.68
282.691	20.14
282.906	-4.44
283.122	28.33
283.337	3.75
283.552	59.05
283.767	-51.54
283.983	44.71
284.198	-22.87
284.413	18.09
284.628	16.04
284.843	18.09
285.058	1.71
285.274	-20.82
285.489	9.9
285.704	-45.4
285.919	104.11
286.134	11.95
286.349	20.14
286.564	93.87
286.779	40.62
286.995	52.91
287.21	9.9
287.425	18.09
287.64	11.95
287.855	-12.63
288.07	-24.92
288.285	110.25
288.5	65.19
288.715	9.9
288.93	13.99
289.145	46.76
289.36	83.63
289.575	38.57
289.79	42.67
290.004	16.04
290.219	85.67
290.434	-10.58
290.649	-2.39
290.864	11.95
291.079	11.95
291.294	69.29
291.509	9.9
291.724	42.67
291.938	34.47
292.153	-12.63
292.368	42.67
292.583	44.71
292.798	54.95
293.012	-14.68
293.227	108.2
293.442	11.95
293.657	110.25
293.871	81.58
294.086	26.28
294.301	9.9
294.516	-8.53
294.73	-22.87
294.945	-6.49
295.16	36.52
295.374	42.67
295.589	44.71
295.804	-43.35
296.018	-22.87
296.233	42.67
296.447	91.82
296.662	26.28
296.877	50.86
297.091	57
297.306	79.53
297.52	50.86
297.735	-14.68
297.949	42.67
298.164	20.14
298.378	-10.58
298.593	-2.39
298.807	18.09
299.022	36.52
299.236	85.67
299.451	9.9
299.665	-14.68
299.88	61.1
300.094	30.38
300.309	-22.87
300.523	75.43
300.737	-18.77
300.952	11.95
301.166	20.14
301.381	-2.39
301.595	26.28
301.809	9.9
302.024	24.23
302.238	30.38
302.452	77.48
302.667	50.86
302.881	48.81
303.095	18.09
303.309	26.28
303.524	9.9
303.738	-29.01
303.952	48.81
304.166	100.01
304.381	-14.68
304.595	75.43
304.809	67.24
305.023	34.47
305.237	-22.87
305.452	-74.07
305.666	46.76
305.88	38.57
306.094	-14.68
306.308	16.04
306.522	22.19
306.736	18.09
306.95	28.33
307.164	9.9
307.379	67.24
307.593	61.1
307.807	7.85
308.021	26.28
308.235	16.04
308.449	-37.2
308.663	-6.49
308.877	87.72
309.091	42.67
309.305	13.99
309.519	-31.06
309.733	59.05
309.947	30.38
310.161	5.8
310.374	100.01
310.588	-78.16
310.802	-31.06
311.016	44.71
311.23	95.91
311.444	85.67
311.658	61.1
311.872	59.05
312.085	46.76
312.299	52.91
312.513	75.43
312.727	91.82
312.941	1.71
313.154	9.9
313.368	11.95
313.582	34.47
313.796	-4.44
314.009	3.75
314.223	-0.34
314.437	52.91
314.651	50.86
314.864	-6.49
315.078	26.28
315.292	3.75
315.505	36.52
315.719	-31.06
315.933	1.71
316.146	85.67
316.36	3.75
316.573	87.72
316.787	93.87
317.001	-6.49
317.214	3.75
317.428	59.05
317.641	13.99
317.855	34.47
318.068	9.9
318.282	83.63
318.495	20.14
318.709	-4.44
318.922	9.9
319.136	46.76
319.349	36.52
319.563	42.67
319.776	22.19
319.99	18.09
320.203	122.54
320.417	20.14
320.63	42.67
320.843	44.71
321.057	26.28
321.27	-8.53
321.483	16.04
321.697	87.72
321.91	9.9
322.124	102.06
322.337	-43.35
322.55	11.95
322.763	36.52
322.977	3.75
323.19	3.75
323.403	26.28
323.617	1.71
323.83	110.25
324.043	13.99
324.256	13.99
324.469	7.85
324.683	91.82
324.896	34.47
325.109	-0.34
325.322	-29.01
325.535	83.63
325.748	1.71
325.962	57
326.175	118.44
326.388	128.68
326.601	48.81
326.814	77.48
327.027	9.9
327.24	42.67
327.453	-8.53
327.666	18.09
327.879	69.29
328.092	52.91
328.305	65.19
328.518	9.9
328.731	-31.06
328.944	50.86
329.157	-65.88
329.37	-10.58
329.583	63.15
329.796	69.29
330.009	-31.06
330.222	36.52
330.435	20.14
330.648	18.09
330.861	61.1
331.073	18.09
331.286	69.29
331.499	-14.68
331.712	-20.82
331.925	75.43
332.138	44.71
332.35	52.91
332.563	26.28
332.776	-39.25
332.989	40.62
333.202	20.14
333.414	42.67
333.627	-67.92
333.84	-14.68
334.053	26.28
334.265	-20.82
334.478	7.85
334.691	11.95
334.903	91.82
335.116	16.04
335.329	13.99
335.541	-22.87
335.754	87.72
335.966	-37.2
336.179	30.38
336.392	30.38
336.604	102.06
336.817	63.15
337.029	77.48
337.242	24.23
337.454	73.39
337.667	26.28
337.88	100.01
338.092	-29.01
338.305	75.43
338.517	-14.68
338.729	104.11
338.942	46.76
339.154	52.91
339.367	-78.16
339.579	36.52
339.792	-16.73
340.004	26.28
340.217	18.09
340.429	59.05
340.641	36.52
340.854	-39.25
341.066	-4.44
341.278	71.34
341.491	73.39
341.703	11.95
341.915	61.1
342.128	95.91
342.34	26.28
342.552	-59.73
342.764	1.71
342.977	9.9
343.189	48.81
343.401	18.09
343.613	1.71
343.826	50.86
344.038	9.9
344.25	65.19
344.462	24.23
344.674	26.28
344.886	-2.39
345.099	93.87
345.311	9.9
345.523	61.1
345.735	28.33
345.947	20.14
346.159	-2.39
346.371	75.43
346.583	-29.01
346.795	9.9
347.007	-35.16
347.219	67.24
347.431	-35.16
347.643	-20.82
347.855	26.28
348.067	81.58
348.279	18.09
348.491	13.99
348.703	13.99
348.915	42.67
349.127	3.75
349.339	5.8
349.551	28.33
349.763	69.29
349.975	134.82
350.187	100.01
350.399	-4.44
350.61	50.86
350.822	13.99
351.034	40.62
351.246	26.28
351.458	-6.49
351.669	67.24
351.881	97.96
352.093	28.33
352.305	79.53
352.517	75.43
352.728	97.96
352.94	-4.44
353.152	83.63
353.363	104.11
353.575	93.87
353.787	48.81
353.999	75.43
354.21	128.68
354.422	42.67
354.633	71.34
354.845	52.91
355.057	9.9
355.268	1.71
355.48	42.67
355.692	7.85
355.903	5.8
356.115	75.43
356.326	-39.25
356.538	28.33
356.749	69.29
356.961	54.95
357.172	44.71
357.384	-12.63
357.595	85.67
357.807	100.01
358.018	-22.87
358.23	59.05
358.441	100.01
358.653	36.52
358.864	9.9
359.075	26.28
359.287	81.58
359.498	38.57
359.709	36.52
359.921	-45.4
360.132	54.95
360.344	20.14
360.555	36.52
360.766	59.05
360.977	11.95
361.189	67.24
361.4	44.71
361.611	81.58
361.823	26.28
362.034	34.47
362.245	-35.16
362.456	7.85
362.667	87.72
362.879	42.67
363.09	-0.34
363.301	28.33
363.512	52.91
363.723	1.71
363.935	-22.87
364.146	59.05
364.357	85.67
364.568	91.82
364.779	34.47
364.99	22.19
365.201	42.67
365.412	38.57
365.623	3.75
365.834	26.28
366.045	54.95
366.256	42.67
366.467	67.24
366.678	28.33
366.889	-72.02
367.1	-6.49
367.311	57
367.522	9.9
367.733	26.28
367.944	18.09
368.155	46.76
368.366	91.82
368.577	61.1
368.788	110.25
368.999	50.86
369.209	42.67
369.42	69.29
369.631	77.48
369.842	61.1
370.053	18.09
370.264	153.26
370.474	11.95
370.685	20.14
370.896	38.57
371.107	36.52
371.317	50.86
371.528	-10.58
371.739	26.28
371.95	54.95
372.16	36.52
372.371	-39.25
372.582	46.76
372.792	-10.58
373.003	73.39
373.214	20.14
373.424	50.86
373.635	-31.06
373.846	69.29
374.056	-45.4
374.267	38.57
374.477	67.24
374.688	16.04
374.898	42.67
375.109	44.71
375.319	11.95
375.53	114.34
375.74	-12.63
375.951	-22.87
376.161	18.09
376.372	75.43
376.582	-37.2
376.793	34.47
377.003	61.1
377.214	85.67
377.424	57
377.635	71.34
377.845	26.28
378.055	173.74
378.266	61.1
378.476	85.67
378.686	46.76
378.897	85.67
379.107	91.82
379.317	28.33
379.528	5.8
379.738	18.09
379.948	-6.49
380.158	61.1
380.369	108.2
380.579	57
380.789	-18.77
380.999	91.82
381.21	85.67
381.42	1.71
381.63	28.33
381.84	91.82
382.05	46.76
382.261	34.47
382.471	118.44
382.681	54.95
382.891	63.15
383.101	91.82
383.311	42.67
383.521	-0.34
383.731	9.9
383.941	87.72
384.151	36.52
384.361	16.04
384.571	118.44
384.781	-14.68
384.991	71.34
385.201	-12.63
385.411	77.48
385.621	83.63
385.831	57
386.041	79.53
386.251	59.05
386.461	77.48
386.671	50.86
386.881	136.87
387.091	9.9
387.301	102.06
387.511	42.67
387.72	77.48
387.93	138.92
388.14	-6.49
388.35	-47.44
388.56	75.43
388.769	26.28
388.979	95.91
389.189	-55.64
389.399	102.06
389.609	108.2
389.818	69.29
390.028	9.9
390.238	44.71
390.447	9.9
390.657	83.63
390.867	50.86
391.076	36.52
391.286	42.67
391.496	59.05
391.705	67.24
391.915	100.01
392.125	44.71
392.334	100.01
392.544	59.05
392.753	59.05
392.963	-12.63
393.172	9.9
393.382	13.99
393.591	77.48
393.801	67.24
394.01	42.67
394.22	44.71
394.429	102.06
394.639	48.81
394.848	87.72
395.058	100.01
395.267	30.38
395.477	5.8
395.686	75.43
395.895	93.87
396.105	153.26
396.314	38.57
396.524	75.43
396.733	48.81
396.942	-2.39
397.152	132.78
397.361	108.2
397.57	61.1
397.78	-33.11
397.989	136.87
398.198	85.67
398.407	116.39
398.617	50.86
398.826	108.2
399.035	28.33
399.244	30.38
399.453	1.71
399.663	26.28
399.872	63.15
400.081	106.15
400.29	157.35
400.499	91.82
400.708	93.87
400.917	34.47
401.127	108.2
401.336	59.05
401.545	161.45
401.754	124.58
401.963	79.53
402.172	77.48
402.381	38.57
402.59	65.19
402.799	79.53
403.008	59.05
403.217	149.16
403.426	50.86
403.635	65.19
403.844	34.47
404.053	83.63
404.262	69.29
404.471	149.16
404.68	114.34
404.888	93.87
405.097	71.34
405.306	83.63
405.515	134.82
405.724	85.67
405.933	91.82
406.142	124.58
406.35	173.74
406.559	102.06
406.768	216.74
406.977	155.3
407.185	59.05
407.394	177.83
407.603	102.06
407.812	112.3
408.02	198.31
408.229	136.87
408.438	171.69
408.646	194.22
408.855	181.93
409.064	175.78
409.272	190.12
409.481	216.74
409.69	183.98
409.898	159.4
410.107	235.18
410.315	292.52
410.524	257.7
410.733	229.03
410.941	196.26
411.15	231.08
411.358	263.85
411.567	396.96
411.775	231.08
411.984	255.65
412.192	300.71
412.401	239.27
412.609	327.33
412.818	349.86
413.026	386.72
413.234	247.46
413.443	290.47
413.651	386.72
413.86	323.24
414.068	396.96
414.276	427.68
414.485	431.78
414.693	403.11
414.901	501.41
415.11	495.27
415.318	452.26
415.526	511.65
415.734	544.42
415.943	530.08
416.151	632.48
416.359	552.61
416.567	448.16
416.776	601.76
416.984	673.44
417.192	714.4
417.4	673.44
417.608	659.1
417.817	761.5
418.025	687.78
418.233	816.8
418.441	779.93
418.649	761.5
418.857	843.42
419.065	839.33
419.273	919.2
419.481	980.64
419.689	1001.12
419.897	1025.69
420.105	870.05
420.313	1001.12
420.521	1042.07
420.729	1058.46
420.937	1109.66
421.145	1152.67
421.353	1148.57
421.561	1283.74
421.769	1248.92
421.977	1296.02
422.185	1277.59
422.393	1492.63
422.601	1492.63
422.809	1474.2
423.017	1414.81
423.224	1519.25
423.432	1664.66
423.64	1640.08
423.848	1769.1
424.056	1742.48
424.263	1902.22
424.471	1959.56
424.679	1822.35
424.887	2041.48
425.094	2029.2
425.302	2180.75
425.51	2133.64
425.718	2258.57
425.925	2176.65
426.133	2272.9
426.341	2479.75
426.548	2647.68
426.756	2500.23
426.964	2533
427.171	2639.49
427.379	2776.7
427.586	2918.01
427.794	2967.17
428.001	3174.01
428.209	3137.15
428.417	3083.9
428.624	3372.66
428.832	3380.86
429.039	3425.91
429.247	3307.13
429.454	3683.95
429.662	3903.09
429.869	3610.23
430.076	3835.5
430.284	3804.78
430.491	3942
430.699	4109.93
430.906	4083.31
431.114	4200.04
431.321	4439.65
431.528	4466.28
431.736	4699.75
431.943	5076.57
432.15	4937.31
432.358	4826.72
432.565	5146.2
432.772	5158.49
432.979	5324.38
433.187	5498.45
433.394	5588.57
433.601	5936.72
433.808	5805.65
434.016	5813.84
434.223	5871.19
434.43	6456.9
434.637	6358.6
434.844	6833.73
435.052	6796.87
435.259	6897.22
435.466	6901.31
435.673	6762.05
435.88	7269.95
436.087	7775.8
436.294	7573.05
436.501	7532.09
436.708	7607.86
436.915	7841.33
437.122	8293.93
437.329	8242.73
437.537	8300.08
437.743	8590.89
437.95	8435.24
438.157	8949.28
438.364	9141.79
438.571	9104.93
438.778	9123.36
438.985	10153.49
439.192	9565.72
439.399	9864.72
439.606	9725.46
439.813	10356.24
440.02	10954.24
440.227	10688.01
440.433	10585.61
440.64	10987.01
440.847	10937.86
441.054	11197.95
441.261	11873.78
441.467	11838.97
441.674	12011
441.881	12269.04
442.088	12381.68
442.294	12146.16
442.501	12813.8
442.708	12666.35
442.914	13424.09
443.121	13872.6
443.328	13487.58
443.534	14534.09
443.741	14065.11
443.948	13845.98
444.154	14929.35
444.361	14747.08
444.568	15095.24
444.774	14939.59
444.981	15019.46
445.187	15668.67
445.394	16256.43
445.6	15934.9
445.807	17448.35
446.013	16713.13
446.22	16948.65
446.426	17479.07
446.633	17816.99
446.839	18439.57
447.046	17442.21
447.252	18611.6
447.459	18896.27
447.665	18769.29
447.871	19275.14
448.078	20219.25
448.284	19092.87
448.491	19797.37
448.697	20505.97
448.903	20860.27
449.11	21118.31
449.316	20585.84
449.522	21210.47
449.728	21693.79
449.935	21804.38
450.141	21828.96
450.347	22435.16
450.553	21519.71
450.76	21955.93
450.966	23010.64
451.172	22474.07
451.378	23422.28
451.584	22637.91
451.791	23258.44
451.997	22938.96
452.203	23418.18
452.409	23725.38
452.615	23442.76
452.821	22822.22
453.027	22299.99
453.233	23565.64
453.44	22639.95
453.646	22791.5
453.852	23049.55
454.058	23278.92
454.264	22261.08
454.47	23403.85
454.676	22320.47
454.882	23280.97
455.088	21327.21
455.294	21667.17
455.5	21919.07
455.705	22293.85
455.911	21335.4
456.117	20829.55
456.323	20643.18
456.529	19647.87
456.735	20538.74
456.941	19957.11
457.147	20045.18
457.352	19047.82
457.558	18902.41
457.764	18830.73
457.97	18580.88
458.176	18187.67
458.381	18331.03
458.587	17278.37
458.793	17331.62
458.999	16510.38
459.204	17753.5
459.41	17098.15
459.616	15916.47
459.821	16004.53
460.027	15830.46
460.233	15574.46
460.438	14994.89
460.644	14992.84
460.85	14480.85
461.055	14083.54
461.261	14271.95
461.466	13190.63
461.672	12641.77
461.878	13444.57
462.083	12776.94
462.289	12371.44
462.494	12373.49
462.7	11675.13
462.905	11384.32
463.111	12092.91
463.316	11959.8
463.522	11515.39
463.727	11732.47
463.932	11679.22
464.138	11677.18
464.343	11550.2
464.549	11314.69
464.754	11451.9
464.959	11486.72
465.165	11392.51
465.37	10694.15
465.575	10366.48
465.781	11044.35
465.986	10997.25
466.191	10743.3
466.397	10585.61
466.602	10032.66
466.807	10456.59
467.012	10282.51
467.218	10421.77
467.423	10219.02
467.628	10249.74
467.833	10610.18
468.038	10380.81
468.244	9795.09
468.449	10253.84
468.654	10151.44
468.859	9815.57
469.064	9958.93
469.269	9504.28
469.474	9659.93
469.679	9717.27
469.885	9598.49
470.09	9498.14
470.295	9682.45
470.5	9367.07
470.705	9369.12
470.91	9332.25
471.115	9172.51
471.32	9352.73
471.525	9270.81
471.73	9074.21
471.935	9023.01
472.139	8750.63
472.344	8805.92
472.549	8627.75
472.754	8521.26
472.959	8263.21
473.164	8306.22
473.369	8365.61
473.574	8381.99
473.778	8259.12
473.983	8212.01
474.188	8267.31
474.393	7923.25
474.598	7814.71
474.802	7753.27
475.007	7796.28
475.212	7878.19
475.417	7607.86
475.621	7618.1
475.826	7429.69
476.031	7415.35
476.235	7251.52
476.44	7587.38
476.645	7208.51
476.849	7294.52
477.054	7022.14
477.259	7128.64
477.463	7161.41
477.668	6743.62
477.872	6972.99
478.077	6825.54
478.282	6727.24
478.486	6700.61
478.691	6598.21
478.895	6491.72
479.1	6387.27
479.304	6694.47
479.509	6383.18
479.713	6430.28
479.918	6270.54
480.122	6196.81
480.326	6268.49
480.531	6354.51
480.735	6219.34
480.94	6245.96
481.144	6309.45
481.348	5940.82
481.553	6137.42
481.757	6098.51
481.961	6059.6
482.166	6174.28
482.37	6237.77
482.574	5957.2
482.778	6055.5
482.983	6162
483.187	6202.96
483.391	6188.62
483.595	6053.45
483.8	5983.82
484.004	6084.17
484.208	5961.3
484.412	6147.66
484.616	6071.89
484.821	6055.5
485.025	5865.04
485.229	6104.65
485.433	5906
485.637	5906
485.841	5944.91
486.045	6084.17
486.249	5979.73
486.453	6147.66
486.657	6030.93
486.861	6014.54
487.065	6110.8
487.269	5879.38
487.473	5981.78
487.677	6100.56
487.881	6024.78
488.085	6059.6
488.289	6108.75
488.493	6049.36
488.697	6004.3
488.901	6194.76
489.105	6051.41
489.309	6106.7
489.512	6200.91
489.716	6213.2
489.92	6096.46
490.124	6014.54
490.328	6276.68
490.531	6162
490.735	6172.24
490.939	6334.03
491.143	6260.3
491.346	6227.53
491.55	6295.11
491.754	6250.06
491.958	6354.51
492.161	6450.76
492.365	6393.42
492.569	6336.07
492.772	6225.48
492.976	6389.32
493.18	6477.38
493.383	6555.21
493.587	6680.13
493.79	6600.26
493.994	6374.99
494.197	6776.39
494.401	6803.01
494.605	6669.89
494.808	6735.43
495.012	6719.04
495.215	6721.09
495.419	6848.07
495.622	6913.6
495.825	7030.34
496.029	6999.62
496.232	7194.17
496.436	7022.14
496.639	7267.9
496.843	7169.6
497.046	7300.67
497.249	7392.83
497.453	7409.21
497.656	7558.71
497.859	7579.19
498.063	7571
498.266	7814.71
498.469	7722.55
498.673	7820.85
498.876	7908.91
499.079	7890.48
499.282	8054.32
499.485	8476.2
499.689	8373.8
499.892	8353.32
500.095	8343.08
500.298	8848.93
500.501	8498.73
500.705	8793.64
500.908	9020.96
501.111	9127.46
501.314	8980
501.517	9307.68
501.72	9217.57
501.923	9270.81
502.126	9586.2
502.329	9604.63
502.532	9770.52
502.735	9635.35
502.938	9922.07
503.141	9868.82
503.344	10087.95
503.547	10186.26
503.75	10190.35
503.953	10331.66
504.156	10374.67
504.359	10739.21
504.562	10632.71
504.765	10593.8
504.968	10978.82
505.17	11105.79
505.373	10976.77
505.576	11154.94
505.779	11355.65
505.982	11554.3
506.185	11806.2
506.387	11759.1
506.59	11750.9
506.793	12103.15
506.996	12176.88
507.198	12512.75
507.401	12328.43
507.604	12596.71
507.807	12824.04
508.009	13041.12
508.212	12875.24
508.415	13071.84
508.617	13114.85
508.82	13245.92
509.022	13264.35
509.225	13626.84
509.428	13764.06
509.63	13755.86
509.833	14058.96
510.035	14427.6
510.238	14187.99
510.44	14357.97
510.643	14527.95
510.845	14509.52
511.048	14740.94
511.25	15019.46
511.453	14937.54
511.655	15519.17
511.858	15371.71
512.06	15556.03
512.262	15666.62
512.465	15545.79
512.667	15941.05
512.87	16283.06
513.072	16057.78
513.274	16422.32
513.477	16428.46
513.679	16639.4
513.881	16899.5
514.084	16762.28
514.286	16960.94
514.488	17216.93
514.69	17694.11
514.893	17495.46
515.095	17747.36
515.297	17710.49
515.499	17769.88
515.701	18224.53
515.904	18503.06
516.106	18460.05
516.308	18859.4
516.51	18998.66
516.712	18675.09
516.914	19203.46
517.116	19740.03
517.318	19539.33
517.52	19731.84
517.722	19459.46
517.925	19877.24
518.127	20370.8
518.329	20387.19
518.531	20192.63
518.733	20671.86
518.935	20790.64
519.136	20989.29
519.338	21267.81
519.54	21296.49
519.742	21437.8
519.944	21581.15
520.146	21960.03
520.348	22205.78
520.55	22340.95
520.752	22349.14
520.954	22515.03
521.155	22492.5
521.357	22814.03
521.559	23047.5
521.761	23829.82
521.963	23381.32
522.164	23594.31
522.366	23522.63
522.568	23608.64
522.77	23702.85
522.971	24266.04
523.173	23981.37
523.375	24579.38
523.576	24601.91
523.778	24409.4
523.98	24773.94
524.181	25109.8
524.383	24687.92
524.584	25249.07
524.786	25115.95
524.988	25240.87
525.189	25427.24
525.391	25462.05
525.592	25920.8
525.794	25926.94
525.995	26213.66
526.197	26342.68
526.398	25988.38
526.6	25898.27
526.801	26160.41
527.003	26527
527.204	26565.91
527.406	26709.27
527.607	26889.49
527.808	26858.77
528.01	26746.13
528.211	26793.23
528.412	27260.17
528.614	27143.44
528.815	27288.84
529.016	27675.91
529.218	27108.62
529.419	27200.78
529.62	27544.84
529.822	27364.62
530.023	27704.58
530.224	27659.52
530.425	27421.96
530.626	27553.03
530.828	27303.18
531.029	28124.41
531.23	27368.71
531.431	27430.15
531.632	27899.14
531.833	28009.73
532.035	27743.49
532.236	27860.23
532.437	28189.95
532.638	28056.83
532.839	27823.36
533.04	28241.15
533.241	27972.86
533.442	28280.06
533.643	28040.45
533.844	27856.13
534.045	28337.4
534.246	27888.9
534.447	28400.89
534.648	27979.01
534.849	28222.72
535.05	28022.02
535.251	28259.58
535.451	27854.08
535.652	28116.22
535.853	27946.24
536.054	28200.19
536.255	28030.21
536.456	27933.95
536.657	28339.45
536.857	27976.96
537.058	28456.18
537.259	28200.19
537.46	28413.18
537.66	28232.96
537.861	28126.46
538.062	28378.36
538.263	27888.9
538.463	28060.93
538.664	27852.03
538.865	28122.37
539.065	28114.17
539.266	27786.5
539.466	28368.12
539.667	27954.43
539.868	28384.51
540.068	27858.18
540.269	28194.04
540.469	28261.63
540.67	28105.98
540.87	27968.77
541.071	28167.42
541.271	27917.57
541.472	28087.55
541.672	27983.1
541.873	27895.04
542.073	27847.94
542.274	28124.41
542.474	27725.06
542.675	27942.14
542.875	28181.76
543.075	27880.71
543.276	27745.54
543.476	28366.07
543.676	27641.09
543.877	28011.78
544.077	27979.01
544.277	27860.23
544.478	27696.39
544.678	28058.88
544.878	27892.99
545.078	27768.07
545.279	27299.08
545.479	27571.46
545.679	27890.95
545.879	27921.66
546.079	27907.33
546.28	27874.56
546.48	27782.4
546.68	27931.9
546.88	27804.93
547.08	27788.55
547.28	27929.86
547.48	27804.93
547.68	27665.67
547.88	27432.2
548.081	28077.31
548.281	28103.93
548.481	27839.75
548.681	27575.56
548.881	27573.51
549.081	27503.88
549.28	27315.47
549.48	27901.18
549.68	27911.42
549.88	28212.48
550.08	27624.71
550.28	27395.34
550.48	27442.44
550.68	27710.72
550.88	27544.84
551.08	27587.85
551.279	27737.35
551.479	27378.95
551.679	27733.25
551.879	27172.11
552.079	27827.46
552.278	27262.22
552.478	27315.47
552.678	27421.96
552.878	27710.72
553.077	27673.86
553.277	27030.8
553.477	27362.57
553.676	27159.82
553.876	27342.09
554.076	27307.27
554.275	27337.99
554.475	27360.52
554.674	27280.65
554.874	27198.73
555.074	27143.44
555.273	27434.25
555.473	27342.09
555.672	26873.1
555.872	27024.65
556.071	26848.53
556.271	27168.01
556.47	27127.05
556.67	26762.51
556.869	26955.02
557.068	27137.29
557.268	26920.21
557.467	26760.47
557.667	27098.38
557.866	26893.58
558.065	26639.64
558.265	26492.18
558.464	26643.73
558.663	27004.17
558.863	26557.72
559.062	27174.16
559.261	26651.92
559.461	26688.79
559.66	26113.31
559.859	26150.17
560.058	26141.98
560.258	26395.93
560.457	26088.73
560.656	26447.13
560.855	26232.09
561.054	26232.09
561.253	26107.16
561.453	26283.29
561.652	26144.03
561.851	26406.17
562.05	25965.85
562.249	25695.52
562.448	26158.36
562.647	25617.7
562.846	25679.14
563.045	26144.03
563.244	25648.42
563.443	25992.48
563.642	25629.99
563.841	25748.77
564.04	25511.21
564.239	25664.8
564.438	25689.38
564.637	25408.81
564.836	25482.53
565.035	25095.47
565.234	25367.85
565.432	25165.1
565.631	25093.42
565.83	25056.56
566.029	25097.52
566.228	25107.76
566.427	24843.57
566.625	24780.08
566.824	24907.05
567.023	24911.15
567.222	24421.69
567.42	24775.98
567.619	24581.43
567.818	24571.19
568.016	24642.87
568.215	24841.52
568.414	24388.92
568.612	24563
568.811	24479.03
569.01	24104.25
569.208	23940.41
569.407	24522.04
569.605	23838.01
569.804	24046.91
570.002	23924.03
570.201	24333.62
570.4	23811.39
570.598	24042.81
570.797	23539.01
570.995	23713.09
571.193	23524.68
571.392	23870.78
571.59	23436.61
571.789	23457.09
571.987	23487.81
572.186	23641.41
572.384	23194.95
572.582	23305.54
572.781	23547.2
572.979	23014.73
573.177	23158.09
573.376	23258.44
573.574	23115.08
573.772	23475.52
573.971	22787.41
574.169	22951.24
574.367	22590.8
574.565	22959.44
574.763	22785.36
574.962	22181.21
575.16	22447.44
575.358	22590.8
575.556	22076.76
575.754	22619.47
575.952	21910.88
576.151	22754.64
576.349	22105.43
576.547	22099.29
576.745	22330.71
576.943	22058.33
577.141	22140.25
577.339	21757.28
577.537	21933.4
577.735	21683.55
577.933	21734.75
578.131	22023.51
578.329	21788
578.527	21413.22
578.725	21452.13
578.923	21470.56
579.121	21484.9
579.319	21216.61
579.516	21427.56
579.714	21091.69
579.912	21390.69
580.11	21093.74
580.308	21009.77
580.506	21079.4
580.704	20753.77
580.901	20954.47
581.099	20764.01
581.297	20874.6
581.495	20510.07
581.692	20405.62
581.89	20581.74
582.088	20682.1
582.285	20413.81
582.483	20641.14
582.681	20411.76
582.878	20741.49
583.076	20243.83
583.274	20305.27
583.471	20407.67
583.669	20444.53
583.866	20084.09
584.064	20430.19
584.262	19776.89
584.459	20145.53
584.657	20006.27
584.854	20204.92
585.052	19805.56
585.249	19754.37
585.447	19930.49
585.644	19545.47
585.841	19469.7
586.039	19555.71
586.236	19481.99
586.434	19326.34
586.631	19148.17
586.828	19578.24
587.026	19400.07
587.223	19125.64
587.42	19293.57
587.618	19262.85
587.815	19039.62
588.012	19191.17
588.21	18757
588.407	19086.73
588.604	19043.72
588.801	18705.81
588.999	18621.84
589.196	18664.85
589.393	18877.83
589.59	18584.98
589.787	18453.91
589.984	18515.34
590.182	18193.81
590.379	18453.91
590.576	18062.74
590.773	18109.85
590.97	18238.87
591.167	18251.16
591.364	18052.5
591.561	18261.4
591.758	17665.44
591.955	17851.8
592.152	17927.58
592.349	17753.5
592.546	17816.99
592.743	17843.61
592.94	17567.13
593.137	17767.84
593.334	17550.75
593.531	17321.38
593.727	17479.07
593.924	17499.55
594.121	17360.29
594.318	17403.3
594.515	17116.58
594.712	17397.15
594.908	17042.85
595.105	17159.59
595.302	16874.92
595.499	17098.15
595.696	16856.49
595.892	16827.82
596.089	17010.09
596.286	17028.52
596.482	16836.01
596.679	16805.29
596.876	16340.4
597.072	16692.65
597.269	16600.49
597.466	16457.14
597.662	16491.95
597.859	16149.94
598.055	16567.73
598.252	16305.59
598.448	16524.72
598.645	16256.43
598.841	16008.63
599.038	15988.15
599.234	16129.46
599.431	16201.14
599.627	16029.11
599.824	16330.16
600.02	16020.92
600.217	15779.26
600.413	15664.57
600.609	15771.07
600.806	15676.86
601.002	15762.87
601.198	15814.07
601.395	15695.29
601.591	15605.18
601.787	15424.96
601.984	15527.36
602.18	15562.17
602.376	15226.31
602.572	15275.46
602.769	15353.28
602.965	15097.28
603.161	15140.29
603.357	15109.57
603.553	14972.36
603.75	14798.28
603.946	14622.16
604.142	14859.72
604.338	14896.58
604.534	14923.21
604.73	14630.35
604.926	14566.86
605.122	14939.59
605.318	14603.72
605.514	14779.85
605.71	14585.29
605.906	14519.76
606.102	14433.74
606.298	14398.93
606.494	14525.9
606.69	14585.29
606.886	14443.98
607.082	14089.68
607.278	14214.61
607.474	14161.36
607.67	14245.33
607.866	14071.25
608.062	14433.74
608.257	14097.88
608.453	14132.69
608.649	13985.24
608.845	13952.47
609.041	14048.72
609.236	13860.31
609.432	13948.37
609.628	13956.57
609.824	13790.68
610.019	13651.42
610.215	13784.54
610.411	13782.49
610.606	13768.15
610.802	13688.28
610.998	13569.5
611.193	13743.58
611.389	13719
611.584	13524.44
611.78	13592.03
611.976	13370.85
612.171	13557.21
612.367	13454.81
612.562	13323.74
612.758	13391.33
612.953	13311.46
613.149	13223.39
613.344	13143.52
613.539	13352.41
613.735	12924.39
613.93	13415.9
614.126	13198.82
614.321	13092.32
614.517	13010.4
614.712	13290.98
614.907	12924.39
615.103	13288.93
615.298	13043.17
615.493	12963.3
615.688	12793.32
615.884	13247.97
616.079	12758.5
616.274	13051.36
616.47	12883.43
616.665	12920.29
616.86	12596.71
617.055	12871.14
617.25	12977.64
617.445	12725.74
617.641	12461.55
617.836	12658.15
618.031	12420.59
618.226	12744.17
618.421	12531.18
618.616	12541.42
618.811	12475.88
619.006	12764.65
619.201	12340.72
619.396	12324.33
619.591	12011
619.786	12359.15
619.981	12205.55
620.176	12322.29
620.371	11939.32
620.566	12240.37
620.761	11929.08
620.956	12011
621.151	11730.42
621.346	11898.36
621.541	11728.38
621.735	11898.36
621.93	11576.83
622.125	11529.72
622.32	11392.51
622.515	11470.33
622.709	11492.86
622.904	11447.8
623.099	11261.44
623.294	11472.38
623.488	11269.63
623.683	11232.77
623.878	11003.39
624.072	10946.05
624.267	11101.7
624.462	10864.13
624.656	10896.9
624.851	10708.49
625.046	10790.41
625.24	10698.25
625.435	10614.28
625.629	10706.44
625.824	10421.77
626.018	10407.44
626.213	10288.65
626.407	10382.86
626.602	10130.96
626.796	10440.2
626.991	10249.74
627.185	10192.4
627.38	9928.21
627.574	9877.01
627.768	9834
627.963	9831.96
628.157	9727.51
628.352	9913.88
628.546	9623.06
628.74	9891.35
628.935	9653.78
629.129	9858.58
629.323	9498.14
629.517	9471.51
629.712	9373.21
629.906	9508.38
630.1	9182.75
630.294	9250.33
630.489	9377.31
630.683	9272.86
630.877	9135.65
631.071	9006.63
631.265	9070.11
631.459	9070.11
631.653	8873.51
631.848	8963.62
632.042	8807.97
632.236	8814.12
632.43	8762.92
632.624	8635.94
632.818	8746.53
633.012	8578.6
633.206	8859.17
633.4	8533.54
633.594	8492.59
633.788	8597.03
633.982	8468.01
634.176	8443.43
634.369	8291.88
634.563	8355.37
634.757	8160.81
634.951	8338.99
635.145	8398.38
635.339	8203.82
635.533	8009.26
635.726	8179.25
635.92	7882.29
636.114	7972.4
636.308	7923.25
636.501	7800.37
636.695	7829.04
636.889	7865.91
637.083	7857.71
637.276	7712.31
637.47	7732.79
637.664	7476.79
637.857	7597.62
638.051	7611.96
638.244	7525.94
638.438	7487.03
638.632	7530.04
638.825	7470.65
639.019	7288.38
639.212	7317.05
639.406	7345.72
639.599	7169.6
639.793	7177.79
639.986	7063.1
640.18	7112.25
640.373	7173.69
640.567	7171.65
640.76	7112.25
640.954	7024.19
641.147	6843.97
641.34	6811.2
641.534	7032.38
641.727	6997.57
641.92	6671.94
642.114	6858.31
642.307	6792.77
642.5	6731.33
642.694	6618.69
642.887	6573.64
643.08	6610.5
643.273	6563.4
643.467	6526.54
643.66	6450.76
643.853	6411.85
644.046	6344.27
644.239	6334.03
644.432	6178.38
644.626	6317.64
644.819	6125.13
645.012	6202.96
645.205	6211.15
645.398	6051.41
645.591	6143.56
645.784	6082.13
645.977	6039.12
646.17	5936.72
646.363	5799.51
646.556	5846.61
646.749	5975.63
646.942	5967.44
647.135	5819.99
647.328	5727.83
647.521	5768.79
647.714	5805.65
647.907	5768.79
648.099	5641.81
648.292	5873.23
648.485	5688.92
648.678	5566.04
648.871	5500.5
649.064	5467.74
649.256	5586.52
649.449	5711.44
649.642	5467.74
649.835	5293.66
650.027	5531.22
650.22	5338.71
650.413	5322.33
650.605	5219.93
650.798	5172.83
650.991	5254.75
651.183	5271.13
651.376	5295.71
651.568	5215.84
651.761	5140.06
651.954	5195.36
652.146	5095
652.339	5123.68
652.531	5072.48
652.724	4959.84
652.916	5060.19
653.109	5090.91
653.301	4968.03
653.494	5031.52
653.686	4904.54
653.879	4927.07
654.071	4871.78
654.263	4793.95
654.456	4802.15
654.648	4974.17
654.84	4843.1
655.033	4761.19
655.225	4884.06
655.417	4685.41
655.61	4671.08
655.802	4644.45
655.994	4638.31
656.186	4613.73
656.379	4671.08
656.571	4609.64
656.763	4544.1
656.955	4605.54
657.148	4675.17
657.34	4449.89
657.532	4380.26
657.724	4363.88
657.916	4298.35
658.108	4404.84
658.3	4372.07
658.492	4386.41
658.684	4134.51
658.876	4247.15
659.068	4257.39
659.26	4255.34
659.452	4136.56
659.644	4089.45
659.836	4210.28
660.028	4095.6
660.22	4056.68
660.412	3999.34
660.604	4154.99
660.796	4064.88
660.988	4189.8
661.18	4083.31
661.372	4015.73
661.563	3974.77
661.755	3819.12
661.947	3855.98
662.139	3954.29
662.331	3737.2
662.522	3853.94
662.714	3927.66
662.906	3786.35
663.097	3843.7
663.289	3845.74
663.481	3739.25
663.673	3716.72
663.864	3626.61
664.056	3669.62
664.247	3589.75
664.439	3745.39
664.631	3640.95
664.822	3729.01
665.014	3729.01
665.205	3761.78
665.397	3700.34
665.588	3616.37
665.78	3522.16
665.971	3585.65
666.163	3556.98
666.354	3667.57
666.546	3597.94
666.737	3466.87
666.929	3495.54
667.12	3561.08
667.311	3593.84
667.503	3559.03
667.694	3501.69
667.885	3401.33
668.077	3329.66
668.268	3393.14
668.459	3450.49
668.651	3452.53
668.842	3331.7
669.033	3399.29
669.224	3270.26
669.416	3354.23
669.607	3233.4
669.798	3294.84
669.989	3327.61
670.18	3171.96
670.371	3262.07
670.563	3221.11
670.754	3294.84
670.945	3249.79
671.136	3188.35
671.327	3184.25
671.518	3171.96
671.709	3047.04
671.9	3133.05
672.091	3194.49
672.282	3059.32
672.473	3018.36
672.664	3055.23
672.855	3098.24
673.046	3176.06
673.237	2987.65
673.428	3118.72
673.619	3063.42
673.809	3104.38
674	3077.76
674.191	3073.66
674.382	2975.36
674.573	2932.35
674.764	3069.56
674.954	3067.52
675.145	2893.44
675.336	2991.74
675.527	3030.65
675.717	3044.99
675.908	2920.06
676.099	2954.88
676.289	3108.48
676.48	3010.17
676.671	2911.87
676.861	3010.17
677.052	3067.52
677.243	3098.24
677.433	2918.01
677.624	2936.45
677.814	2885.25
678.005	2870.91
678.195	3008.12
678.386	2973.31
678.576	2901.63
678.767	2977.41
678.957	2899.58
679.148	2967.17
679.338	2989.69
679.529	3014.27
679.719	2868.86
679.909	2938.49
680.1	2844.29
680.29	2850.43
680.481	2967.17
680.671	2905.73
680.861	2928.25
681.052	2811.52
681.242	2829.95
681.432	2999.93
681.622	2944.64
681.813	2786.94
682.003	2813.57
682.193	2774.66
682.383	2934.4
682.573	2698.88
682.764	2754.18
682.954	2940.54
683.144	2823.81
683.334	2756.22
683.524	2963.07
683.714	2938.49
683.904	2778.75
684.094	2797.18
684.284	2780.8
684.474	2788.99
684.664	2877.05
684.854	2821.76
685.044	2788.99
685.234	2709.12
685.424	2657.92
685.614	2752.13
685.804	2819.71
685.994	2852.48
686.184	2815.62
686.374	2815.62
686.564	2762.37
686.753	2659.97
686.943	2614.91
687.133	2690.69
687.323	2813.57
687.513	2709.12
687.702	2569.86
687.892	2709.12
688.082	2623.11
688.272	2680.45
688.461	2600.58
688.651	2690.69
688.841	2657.92
689.03	2573.96
689.22	2528.9
689.41	2483.84
689.599	2500.23
689.789	2504.32
689.979	2569.86
690.168	2530.95
690.358	2541.19
690.547	2506.37
690.737	2414.21
690.926	2530.95
691.116	2487.94
691.305	2479.75
691.495	2500.23
691.684	2412.17
691.874	2444.93
692.063	2375.3
692.252	2352.77
692.442	2393.73
692.631	2410.12
692.82	2481.8
693.01	2330.25
693.199	2369.16
693.388	2324.1
693.578	2256.52
693.767	2444.93
693.956	2313.86
694.146	2328.2
694.335	2297.48
694.524	2209.42
694.713	2285.19
694.902	2231.94
695.092	2262.66
695.281	2233.99
695.47	2172.55
695.659	2156.17
695.848	2207.37
696.037	2090.63
696.226	2199.18
696.415	2250.38
696.604	2096.78
696.793	2221.7
696.982	2166.41
697.171	2199.18
697.36	2109.07
697.549	2145.93
697.738	2170.51
697.927	2066.06
698.116	2123.4
698.305	2141.83
698.494	2119.31
698.683	2127.5
698.872	2135.69
699.061	2098.83
699.25	2016.91
699.438	2057.87
699.627	2172.55
699.816	2137.74
700.005	2098.83
700.193	2090.63
700.382	2033.29
700.571	2180.75
700.76	2088.59
700.948	2045.58
701.137	2035.34
701.326	2184.84
701.514	2123.4
701.703	2043.53
701.892	2037.39
702.08	2131.59
702.269	1967.76
702.457	2008.72
702.646	2078.35
702.834	2061.96
703.023	2127.5
703.212	2145.93
703.4	2039.44
703.589	2066.06
703.777	2094.73
703.965	2033.29
704.154	2074.25
704.342	1982.09
704.531	1992.33
704.719	2018.96
704.907	1990.28
705.096	1953.42
705.284	2004.62
705.472	2000.52
705.661	1918.61
705.849	1918.61
706.037	2057.87
706.226	2025.1
706.414	2002.57
706.602	1953.42
706.79	1967.76
706.979	2133.64
707.167	1971.85
707.355	2006.67
707.543	2068.11
707.731	2012.81
707.919	1994.38
708.107	2074.25
708.296	1959.56
708.484	2029.2
708.672	2072.2
708.86	2092.68
709.048	2010.76
709.236	1978
709.424	1978
709.612	1975.95
709.8	2008.72
709.988	2000.52
710.176	1996.43
710.364	1969.8
710.551	2068.11
710.739	2043.53
710.927	2072.2
711.115	2025.1
711.303	2010.76
711.491	1926.8
711.679	1848.97
711.866	2139.79
712.054	1975.95
712.242	2049.68
712.43	1955.47
712.617	2049.68
712.805	2098.83
712.993	2049.68
713.181	2045.58
713.368	1990.28
713.556	2035.34
713.744	2219.66
713.931	2057.87
714.119	2000.52
714.306	2033.29
714.494	1980.04
714.682	2041.48
714.869	1922.7
715.057	2117.26
715.244	2025.1
715.432	2139.79
715.619	2000.52
715.807	2098.83
715.994	2041.48
716.182	2109.07
716.369	2025.1
716.556	2147.98
716.744	2100.87
716.931	2102.92
717.119	2006.67
717.306	2000.52
717.493	2076.3
717.681	2078.35
717.868	2061.96
718.055	2018.96
718.242	2049.68
718.43	2068.11
718.617	2238.09
718.804	2102.92
718.991	2008.72
719.179	2176.65
719.366	1971.85
719.553	2172.55
719.74	2070.16
719.927	2057.87
720.114	2160.27
720.301	2078.35
720.488	2088.59
720.676	2051.72
720.863	2164.36
721.05	2123.4
721.237	2217.61
721.424	2160.27
721.611	2098.83
721.798	1975.95
721.985	2127.5
722.172	2049.68
722.358	2078.35
722.545	2166.41
722.732	2041.48
722.919	2295.43
723.106	2217.61
723.293	2180.75
723.48	2176.65
723.667	2098.83
723.853	2156.17
724.04	2238.09
724.227	2350.73
724.414	2127.5
724.6	2213.51
724.787	2350.73
724.974	2168.46
725.161	2082.44
725.347	2170.51
725.534	2147.98
725.72	2238.09
725.907	2131.59
726.094	2229.9
726.28	2248.33
726.467	2215.56
726.653	2109.07
726.84	2231.94
727.027	2225.8
727.213	2223.75
727.4	2115.21
727.586	2152.07
727.773	2164.36
727.959	2190.99
728.145	2184.84
728.332	2174.6
728.518	2188.94
728.705	2221.7
728.891	2201.23
729.077	2328.2
729.264	2219.66
729.45	2180.75
729.636	2334.34
729.823	2123.4
730.009	2221.7
730.195	2354.82
730.382	2317.96
730.568	2270.86
730.754	2303.62
730.94	2238.09
731.126	2293.38
731.313	2254.47
731.499	2297.48
731.685	2246.28
731.871	2203.27
732.057	2248.33
732.243	2369.16
732.429	2248.33
732.615	2389.64
732.801	2172.55
732.987	2250.38
733.173	2360.97
733.359	2385.54
733.545	2274.95
733.731	2258.57
733.917	2264.71
734.103	2313.86
734.289	2240.14
734.475	2348.68
734.661	2365.06
734.847	2328.2
735.033	2391.69
735.219	2295.43
735.404	2279.05
735.59	2313.86
735.776	2393.73
735.962	2330.25
736.148	2412.17
736.333	2360.97
736.519	2123.4
736.705	2309.77
736.89	2311.82
737.076	2281.1
737.262	2289.29
737.447	2320.01
737.633	2223.75
737.819	2340.49
738.004	2215.56
738.19	2254.47
738.375	2197.13
738.561	2373.25
738.747	2182.79
738.932	2150.03
739.118	2344.58
739.303	2332.3
739.489	2262.66
739.674	2274.95
739.859	2297.48
740.045	2336.39
740.23	2217.61
740.416	2219.66
740.601	2152.07
740.786	2246.28
740.972	2231.94
741.157	2352.77
741.342	2233.99
741.528	2213.51
741.713	2270.86
741.898	2209.42
742.084	2180.75
742.269	2178.7
742.454	2117.26
742.639	2158.22
742.824	2270.86
743.01	2147.98
743.195	2182.79
743.38	2143.88
743.565	2072.2
743.75	2109.07
743.935	2166.41
744.12	2274.95
744.305	2223.75
744.49	2121.35
744.675	2014.86
744.86	2139.79
745.045	2162.31
745.23	2225.8
745.415	2098.83
745.6	2137.74
745.785	2068.11
745.97	2135.69
746.155	2078.35
746.34	2100.87
746.525	2070.16
746.71	2111.11
746.895	2049.68
747.079	2123.4
747.264	2049.68
747.449	2000.52
747.634	1984.14
747.819	2014.86
748.003	1912.46
748.188	1910.41
748.373	1988.24
748.557	1953.42
748.742	1869.45
748.927	1871.5
749.111	1828.49
749.296	1861.26
749.481	2012.81
749.665	1830.54
749.85	1836.69
750.034	1877.65
750.219	1932.94
750.404	1787.54
750.588	1838.73
750.773	1814.16
750.957	1771.15
751.141	1793.68
751.326	1689.23
751.51	1816.21
751.695	1781.39
751.879	1650.32
752.064	1783.44
752.248	1656.47
752.432	1857.17
752.617	1722
752.801	1740.43
752.985	1758.86
753.17	1644.18
753.354	1715.86
753.538	1627.79
753.722	1676.95
753.907	1525.4
754.091	1615.51
754.275	1631.89
754.459	1660.56
754.643	1537.68
754.828	1455.76
755.012	1513.11
755.196	1476.24
755.38	1373.85
755.564	1511.06
755.748	1373.85
755.932	1439.38
756.116	1500.82
756.3	1410.71
756.484	1511.06
756.668	1527.44
756.852	1298.07
757.036	1339.03
757.22	1451.67
757.404	1402.52
757.588	1396.37
757.772	1308.31
757.956	1379.99
758.14	1437.33
758.323	1306.26
758.507	1382.04
758.691	1423
758.875	1328.79
759.059	1394.33
759.242	1339.03
759.426	1316.5
759.61	1334.93
759.794	1291.93
759.977	1279.64
760.161	1336.98
760.345	1343.13
760.528	1210.01
760.712	1230.49
760.895	1271.45
761.079	1222.3
761.263	1248.92
761.446	1148.57
761.63	1164.95
761.813	1214.1
761.997	1115.8
762.18	1210.01
762.364	1283.74
762.547	1207.96
762.731	1246.87
762.914	1175.19
763.098	1035.93
763.281	1126.04
763.464	1128.09
763.648	1111.71
763.831	1115.8
764.015	1142.43
764.198	1207.96
764.381	1091.23
764.564	1091.23
764.748	1103.51
764.931	1095.32
765.114	1142.43
765.297	1070.75
765.481	1048.22
765.664	1113.75
765.847	1093.27
766.03	1091.23
766.213	945.82
766.397	1085.08
766.58	1101.47
766.763	997.02
766.946	1021.6
767.129	1068.7
767.312	1001.12
767.495	1066.65
767.678	978.59
767.861	1033.88
768.044	1001.12
768.227	1048.22
768.41	1140.38
768.593	1136.28
768.776	1033.88
768.959	1007.26
769.142	962.2
769.324	958.11
769.507	960.16
769.69	992.92
769.873	951.96
770.056	1046.17
770.239	919.2
770.421	964.25
770.604	1005.21
770.787	976.54
770.97	976.54
771.152	890.53
771.335	917.15
771.518	921.24
771.7	919.2
771.883	890.53
772.066	968.35
772.248	978.59
772.431	870.05
772.613	962.2
772.796	790.17
772.978	861.85
773.161	894.62
773.343	806.56
773.526	872.09
773.708	767.65
773.891	702.11
774.073	820.89
774.256	788.13
774.438	919.2
774.621	829.09
774.803	929.44
774.985	749.22
775.168	816.8
775.35	781.98
775.532	804.51
775.715	859.81
775.897	790.17
776.079	749.22
776.261	790.17
776.444	812.7
776.626	745.12
776.808	681.63
776.99	786.08
777.173	698.02
777.355	702.11
777.537	652.96
777.719	757.41
777.901	751.26
778.083	788.13
778.265	601.76
778.447	691.87
778.629	734.88
778.811	714.4
778.993	704.16
779.175	716.45
779.357	607.91
779.539	601.76
779.721	648.86
779.903	650.91
780.085	603.81
780.267	644.77
780.449	675.49
780.631	716.45
780.812	665.25
780.994	513.7
781.176	661.15
781.358	691.87
781.54	511.65
781.721	632.48
781.903	595.62
782.085	630.43
782.267	638.62
782.448	538.27
782.63	595.62
782.812	628.39
782.993	612
783.175	585.38
783.357	528.03
783.538	560.8
783.72	517.79
783.901	452.26
784.083	501.41
784.264	464.55
784.446	489.12
784.627	394.92
784.809	421.54
784.99	472.74
785.172	556.71
785.353	515.75
785.535	538.27
785.716	558.75
785.897	528.03
786.079	476.84
786.26	427.68
786.441	497.32
786.623	431.78
786.804	554.66
786.985	493.22
787.167	448.16
787.348	444.07
787.529	532.13
787.71	521.89
787.891	450.21
788.073	337.57
788.254	396.96
788.435	411.3
788.616	458.4
788.797	310.95
788.978	427.68
789.159	347.81
789.34	460.45
789.522	292.52
789.703	415.4
789.884	452.26
790.065	388.77
790.246	431.78
790.427	362.15
790.607	478.88
790.788	427.68
790.969	485.03
791.15	384.68
791.331	358.05
791.512	288.42
791.693	339.62
791.874	362.15
792.054	337.57
792.235	374.44
792.416	290.47
792.597	259.75
792.778	358.05
792.958	390.82
793.139	351.91
793.32	306.85
793.5	358.05
793.681	392.87
793.862	317.09
794.042	442.02
794.223	302.76
794.404	360.1
794.584	239.27
794.765	370.34
794.945	296.61
795.126	407.2
795.306	374.44
795.487	339.62
795.667	306.85
795.848	249.51
796.028	278.18
796.209	272.04
796.389	282.28
796.57	329.38
796.75	284.33
796.93	296.61
797.111	292.52
797.291	263.85
797.471	294.57
797.652	226.98
797.832	313
798.012	263.85
798.192	206.5
798.373	282.28
798.553	313
798.733	321.19
798.913	245.41
799.093	290.47
799.274	313
799.454	321.19
799.634	249.51
799.814	249.51
799.994	306.85
800.174	300.71
800.354	231.08
800.534	249.51
800.714	335.53
800.894	315.05
801.074	214.7
801.254	263.85
801.434	239.27
801.614	263.85
801.794	263.85
801.974	820.89
802.154	274.09
802.334	255.65
802.514	216.74
802.693	190.12
802.873	229.03
803.053	214.7
803.233	257.7
803.413	245.41
803.592	241.32
803.772	216.74
803.952	233.13
804.131	265.89
804.311	269.99
804.491	325.29
804.67	284.33
804.85	175.78
805.03	265.89
805.209	231.08
805.389	247.46
805.568	231.08
805.748	181.93
805.928	190.12
806.107	177.83
806.287	241.32
806.466	218.79
806.646	292.52
806.825	247.46
807.004	206.5
807.184	200.36
807.363	214.7
807.543	257.7
807.722	192.17
807.901	177.83
808.081	247.46
808.26	83.63
808.439	200.36
808.619	251.56
808.798	222.89
808.977	177.83
809.156	237.22
809.336	280.23
809.515	210.6
809.694	181.93
809.873	157.35
810.052	63.15
810.231	263.85
810.411	218.79
810.59	198.31
810.769	165.54
810.948	175.78
811.127	124.58
811.306	198.31
811.485	173.74
811.664	224.94
811.843	202.41
812.022	175.78
812.201	181.93
812.38	151.21
812.559	181.93
812.737	73.39
812.916	151.21
813.095	165.54
813.274	206.5
813.453	140.97
813.632	190.12
813.811	183.98
813.989	167.59
814.168	93.87
814.347	104.11
814.526	183.98
814.704	163.5
814.883	102.06
815.062	177.83
815.24	243.37
815.419	93.87
815.598	194.22
815.776	120.49
815.955	140.97
816.133	149.16
816.312	147.11
816.49	106.15
816.669	140.97
816.847	151.21
817.026	161.45
817.204	52.91
817.383	145.06
817.561	132.78
817.74	181.93
817.918	126.63
818.097	165.54
818.275	128.68
818.453	151.21
818.632	145.06
818.81	147.11
818.988	75.43
819.167	126.63
819.345	157.35
819.523	104.11
819.701	165.54
819.879	190.12
820.058	89.77
820.236	177.83
820.414	173.74
820.592	134.82
820.77	116.39
820.948	61.1
821.127	118.44
821.305	132.78
821.483	73.39
821.661	116.39
821.839	169.64
822.017	79.53
822.195	136.87
822.373	149.16
822.551	214.7
822.729	208.55
822.907	95.91
823.085	149.16
823.262	108.2
823.44	73.39
823.618	177.83
823.796	132.78
823.974	151.21
824.152	61.1
824.329	118.44
824.507	75.43
824.685	89.77
824.863	118.44
825.04	140.97
825.218	100.01
825.396	67.24
825.574	102.06
825.751	126.63
825.929	71.34
826.107	59.05
826.284	83.63
826.462	163.5
826.639	69.29
826.817	91.82
826.994	136.87
827.172	50.86
827.349	77.48
827.527	83.63
827.704	128.68
827.882	140.97
828.059	26.28
828.237	108.2
828.414	143.02
828.591	100.01
828.769	85.67
828.946	67.24
829.124	138.92
829.301	83.63
829.478	91.82
829.655	132.78
829.833	116.39
830.01	-6.49
830.187	104.11
830.364	-37.2
830.542	100.01
830.719	181.93
830.896	128.68
831.073	63.15
831.25	124.58
831.427	140.97
831.604	71.34
831.782	95.91
831.959	130.73
832.136	75.43
832.313	16.04
832.49	61.1
832.667	83.63
832.844	140.97
833.021	120.49
833.198	75.43
833.374	46.76
833.551	18.09
833.728	108.2
833.905	124.58
834.082	42.67
834.259	42.67
834.436	108.2
834.612	42.67
834.789	26.28
834.966	67.24
835.143	28.33
835.319	122.54
835.496	52.91
835.673	108.2
835.85	85.67
836.026	30.38
836.203	44.71
836.38	85.67
836.556	67.24
836.733	95.91
836.909	106.15
837.086	54.95
837.262	22.19
837.439	54.95
837.616	83.63
837.792	16.04
837.968	108.2
838.145	9.9
838.321	44.71
838.498	42.67
838.674	75.43
838.851	106.15
839.027	16.04
839.203	100.01
839.38	-14.68
839.556	110.25
839.732	26.28
839.909	28.33
840.085	100.01
840.261	54.95
840.437	52.91
840.614	-12.63
840.79	95.91
840.966	34.47
841.142	136.87
841.318	3.75
841.494	116.39
841.671	85.67
841.847	81.58
842.023	46.76
842.199	-2.39
842.375	79.53
842.551	34.47
842.727	63.15
842.903	104.11
843.079	18.09
843.255	169.64
843.431	42.67
843.607	63.15
843.783	100.01
843.959	18.09
844.134	79.53
844.31	50.86
844.486	116.39
844.662	63.15
844.838	124.58
845.013	87.72
845.189	44.71
845.365	13.99
845.541	42.67
845.716	34.47
845.892	128.68
846.068	34.47
846.244	1.71
846.419	97.96
846.595	136.87
846.77	52.91
846.946	102.06
847.122	108.2
847.297	42.67
847.473	85.67
847.648	34.47
847.824	13.99
847.999	40.62
848.175	34.47
848.35	32.43
848.526	50.86
848.701	71.34
848.876	81.58
849.052	46.76
849.227	67.24
849.403	34.47
849.578	30.38
849.753	79.53
849.929	28.33
850.104	-12.63
850.279	5.8
850.454	59.05
850.63	85.67
850.805	9.9
850.98	93.87
851.155	36.52
851.33	-0.34
851.505	-33.11
851.681	118.44
851.856	3.75
852.031	63.15
852.206	9.9
852.381	34.47
852.556	11.95
852.731	116.39
852.906	65.19
853.081	46.76
853.256	34.47
853.431	40.62
853.606	26.28
853.781	69.29
853.956	-16.73
854.131	-45.4
854.305	9.9
854.48	30.38
854.655	-51.54
854.83	46.76
855.005	-20.82
855.18	20.14
855.354	61.1
855.529	1.71
855.704	-45.4
855.879	61.1
856.053	67.24
856.228	30.38
856.403	59.05
856.577	32.43
856.752	-12.63
856.926	38.57
857.101	26.28
857.276	36.52
857.45	36.52
857.625	63.15
857.799	1.71
857.974	61.1
858.148	36.52
858.323	69.29
858.497	28.33
858.672	67.24
858.846	71.34
859.02	11.95
859.195	50.86
859.369	-4.44
859.543	30.38
859.718	1.71
859.892	-0.34
860.066	110.25
860.241	34.47
860.415	67.24
860.589	7.85
860.763	-10.58
860.938	44.71
861.112	42.67
861.286	-37.2
861.46	1.71
861.634	-18.77
861.808	79.53
861.982	24.23
862.157	20.14
862.331	-14.68
862.505	11.95
862.679	-39.25
862.853	50.86
863.027	9.9
863.201	38.57
863.375	50.86
863.549	-29.01
863.722	-33.11
863.896	-10.58
864.07	-14.68
864.244	124.58
864.418	-2.39
864.592	87.72
864.766	20.14
864.939	-12.63
865.113	1.71
865.287	20.14
865.461	52.91
865.634	34.47
865.808	63.15
865.982	-14.68
866.156	-51.54
866.329	-59.73
866.503	26.28
866.676	42.67
866.85	44.71
867.024	26.28
867.197	-14.68
867.371	102.06
867.544	-31.06
867.718	-53.59
867.891	108.2
868.065	9.9
868.238	-2.39
868.412	102.06
868.585	-0.34
868.759	26.28
868.932	26.28
869.105	11.95
869.279	1.71
869.452	-31.06
869.625	-12.63
869.799	-53.59
869.972	-37.2
870.145	-53.59
870.319	83.63
870.492	-10.58
870.665	42.67
870.838	-41.3
871.011	-47.44
871.185	63.15
871.358	50.86
871.531	16.04
871.704	-33.11
871.877	26.28
872.05	75.43
872.223	-29.01
872.396	59.05
872.569	-14.68
872.742	79.53
872.915	42.67
873.088	-14.68
873.261	-55.64
873.434	34.47
873.607	-37.2
873.78	46.76
873.953	-18.77
874.126	-12.63
874.299	1.71
874.471	34.47
874.644	42.67
874.817	-4.44
874.99	18.09
875.163	-20.82
875.335	50.86
875.508	-18.77
875.681	28.33
875.853	-6.49
876.026	-78.16
876.199	-6.49
876.371	13.99
876.544	-26.96
876.717	-43.35
876.889	-2.39
877.062	3.75
877.234	7.85
877.407	-43.35
877.579	34.47
877.752	16.04
877.924	30.38
878.097	3.75
878.269	-76.12
878.442	22.19
878.614	3.75
878.786	-8.53
878.959	-55.64
879.131	46.76
879.303	5.8
879.476	-22.87
879.648	50.86
879.82	100.01
879.993	71.34
880.165	13.99
880.337	-18.77
880.509	83.63
880.681	26.28
880.854	-12.63
881.026	-26.96
881.198	93.87
881.37	36.52
881.542	3.75
881.714	-12.63
881.886	11.95
882.058	3.75
882.23	34.47
882.402	75.43
882.574	1.71
882.746	36.52
882.918	-12.63
883.09	26.28
883.262	-6.49
883.434	42.67
883.606	46.76
883.778	11.95
883.95	34.47
884.122	1.71
884.293	26.28
884.465	-6.49
884.637	-43.35
884.809	-39.25
884.98	9.9
885.152	-12.63
885.324	-29.01
885.496	34.47
885.667	-53.59
885.839	44.71
886.011	11.95
886.182	-4.44
886.354	30.38
886.525	24.23
886.697	-20.82
886.869	-53.59
887.04	26.28
887.212	-2.39
887.383	11.95
887.555	65.19
887.726	7.85
887.897	7.85
888.069	24.23
888.24	87.72
888.412	-29.01
888.583	87.72
888.754	22.19
888.926	-53.59
889.097	-6.49
889.268	-61.78
889.44	-35.16
889.611	-47.44
889.782	-6.49
889.953	38.57
890.125	-49.49
890.296	28.33
890.467	1.71
890.638	30.38
890.809	54.95
890.98	-6.49
891.151	26.28
891.323	42.67
891.494	-18.77
891.665	-55.64
891.836	-51.54
892.007	67.24
892.178	11.95
892.349	1.71
892.52	-31.06
892.691	34.47
892.862	18.09
893.032	1.71
893.203	46.76
893.374	11.95
893.545	95.91
893.716	-10.58
893.887	50.86
894.057	7.85
894.228	5.8
894.399	44.71
894.57	-2.39
894.74	-67.92
894.911	71.34
895.082	20.14
895.253	-2.39
895.423	-29.01
895.594	63.15
895.764	52.91
895.935	-18.77
896.106	34.47
896.276	-10.58
896.447	-22.87
896.617	9.9
896.788	34.47
896.958	-39.25
897.129	75.43
897.299	3.75
897.47	16.04
897.64	50.86
897.81	46.76
897.981	-14.68
898.151	-55.64
898.322	20.14
898.492	24.23
898.662	-47.44
898.832	13.99
899.003	50.86
899.173	34.47
899.343	-2.39
899.513	5.8
