Data from USB4F104151__169__14-44-55-855.txt Node

Date: Thu Mar 13 14:44:55 EDT 2025
User: louis
Spectrometer: USB4F10415
Trigger mode: 4
Integration Time (sec): 2.000000E-2
Scans to average: 1
Electric dark correction enabled: true
Nonlinearity correction enabled: false
Boxcar width: 0
XAxis mode: Wavelengths
Number of Pixels in Spectrum: 3648
>>>>>Begin Spectral Data<<<<<
178.204	-80.04
178.424	-80.04
178.644	-80.04
178.864	-125.1
179.084	-204.97
179.304	-34.99
179.524	16.21
179.744	-34.99
179.964	81.75
180.184	-26.79
180.404	55.12
180.624	-0.17
180.844	-26.79
181.064	-18.6
181.283	-39.08
181.503	34.64
181.723	-6.31
181.943	-43.18
182.163	12.12
182.383	-28.84
182.602	8.02
182.822	14.17
183.042	61.27
183.262	-63.66
183.482	-43.18
183.701	65.36
183.921	-18.6
184.141	-8.36
184.361	8.02
184.58	71.51
184.8	59.22
185.02	-6.31
185.239	57.17
185.459	59.22
185.679	46.93
185.898	-41.13
186.118	79.7
186.338	26.45
186.557	61.27
186.777	14.17
186.997	106.32
187.216	-59.56
187.436	34.64
187.655	128.85
187.875	63.32
188.095	30.55
188.314	63.32
188.534	73.56
188.753	46.93
188.973	38.74
189.192	40.79
189.412	-24.75
189.631	57.17
189.851	-8.36
190.07	38.74
190.29	-4.27
190.509	34.64
190.729	-49.32
190.948	8.02
191.168	81.75
191.387	22.36
191.607	-37.03
191.826	87.89
192.045	8.02
192.265	22.36
192.484	16.21
192.704	65.36
192.923	-2.22
193.142	79.7
193.362	-10.41
193.581	44.88
193.8	5.97
194.02	77.65
194.239	51.03
194.458	116.56
194.678	46.93
194.897	-14.51
195.116	-10.41
195.335	42.84
195.555	106.32
195.774	55.12
195.993	34.64
196.212	36.69
196.432	30.55
196.651	65.36
196.87	-14.51
197.089	51.03
197.308	96.08
197.528	55.12
197.747	14.17
197.966	10.07
198.185	79.7
198.404	-12.46
198.623	53.08
198.842	16.21
199.062	14.17
199.281	46.93
199.5	12.12
199.719	22.36
199.938	42.84
200.157	30.55
200.376	55.12
200.595	59.22
200.814	42.84
201.033	5.97
201.252	-41.13
201.471	22.36
201.69	73.56
201.909	112.47
202.128	18.26
202.347	26.45
202.566	-16.55
202.785	-41.13
203.004	-22.7
203.223	100.18
203.442	5.97
203.661	8.02
203.879	26.45
204.098	71.51
204.317	-10.41
204.536	55.12
204.755	106.32
204.974	14.17
205.193	81.75
205.411	3.93
205.63	77.65
205.849	75.6
206.068	5.97
206.287	-26.79
206.505	71.51
206.724	1.88
206.943	48.98
207.162	46.93
207.381	16.21
207.599	14.17
207.818	34.64
208.037	42.84
208.255	-12.46
208.474	20.31
208.693	51.03
208.911	38.74
209.13	10.07
209.349	-0.17
209.567	22.36
209.786	55.12
210.005	73.56
210.223	63.32
210.442	10.07
210.661	-18.6
210.879	26.45
211.098	-22.7
211.316	48.98
211.535	22.36
211.753	-8.36
211.972	46.93
212.191	-45.23
212.409	30.55
212.628	87.89
212.846	48.98
213.065	-6.31
213.283	46.93
213.502	32.6
213.72	73.56
213.938	55.12
214.157	-0.17
214.375	-43.18
214.594	10.07
214.812	30.55
215.031	34.64
215.249	8.02
215.467	81.75
215.686	14.17
215.904	67.41
216.122	-10.41
216.341	32.6
216.559	-0.17
216.778	42.84
216.996	102.23
217.214	-16.55
217.432	20.31
217.651	-8.36
217.869	-30.89
218.087	51.03
218.306	-43.18
218.524	30.55
218.742	38.74
218.96	34.64
219.179	-4.27
219.397	46.93
219.615	61.27
219.833	38.74
220.051	30.55
220.27	-2.22
220.488	-6.31
220.706	46.93
220.924	34.64
221.142	5.97
221.36	-8.36
221.578	79.7
221.796	-16.55
222.015	71.51
222.233	77.65
222.451	71.51
222.669	-43.18
222.887	-10.41
223.105	-51.37
223.323	-16.55
223.541	30.55
223.759	-8.36
223.977	-49.32
224.195	89.94
224.413	1.88
224.631	63.32
224.849	57.17
225.067	96.08
225.285	-8.36
225.503	38.74
225.721	-0.17
225.939	30.55
226.157	28.5
226.375	-12.46
226.592	-67.75
226.81	38.74
227.028	81.75
227.246	130.9
227.464	18.26
227.682	30.55
227.9	100.18
228.117	26.45
228.335	44.88
228.553	-34.99
228.771	8.02
228.989	48.98
229.206	-34.99
229.424	22.36
229.642	1.88
229.86	59.22
230.077	79.7
230.295	24.4
230.513	59.22
230.731	18.26
230.948	48.98
231.166	16.21
231.384	57.17
231.601	-41.13
231.819	104.28
232.037	14.17
232.254	16.21
232.472	83.8
232.689	8.02
232.907	26.45
233.125	14.17
233.342	46.93
233.56	30.55
233.777	22.36
233.995	63.32
234.213	38.74
234.43	46.93
234.648	38.74
234.865	32.6
235.083	-43.18
235.3	-2.22
235.518	122.71
235.735	-10.41
235.953	89.94
236.17	-2.22
236.388	79.7
236.605	5.97
236.822	46.93
237.04	79.7
237.257	-14.51
237.475	-8.36
237.692	61.27
237.909	-82.09
238.127	-0.17
238.344	8.02
238.562	3.93
238.779	30.55
238.996	34.64
239.214	-14.51
239.431	18.26
239.648	16.21
239.865	22.36
240.083	96.08
240.3	5.97
240.517	-14.51
240.735	-18.6
240.952	36.69
241.169	22.36
241.386	48.98
241.603	79.7
241.821	65.36
242.038	22.36
242.255	22.36
242.472	24.4
242.689	14.17
242.907	55.12
243.124	75.6
243.341	46.93
243.558	38.74
243.775	-82.09
243.992	-26.79
244.209	57.17
244.426	83.8
244.643	40.79
244.86	-16.55
245.078	89.94
245.295	48.98
245.512	63.32
245.729	-2.22
245.946	46.93
246.163	67.41
246.38	5.97
246.597	30.55
246.814	65.36
247.031	46.93
247.248	44.88
247.464	-0.17
247.681	-18.6
247.898	-18.6
248.115	24.4
248.332	16.21
248.549	57.17
248.766	79.7
248.983	40.79
249.2	71.51
249.417	71.51
249.633	14.17
249.85	81.75
250.067	-43.18
250.284	30.55
250.501	40.79
250.717	75.6
250.934	14.17
251.151	5.97
251.368	30.55
251.585	63.32
251.801	24.4
252.018	-32.94
252.235	24.4
252.451	-30.89
252.668	-73.9
252.885	59.22
253.102	46.93
253.318	-57.51
253.535	-26.79
253.752	53.08
253.968	3.93
254.185	-16.55
254.401	16.21
254.618	79.7
254.835	-24.75
255.051	63.32
255.268	48.98
255.484	38.74
255.701	-0.17
255.917	32.6
256.134	-16.55
256.351	30.55
256.567	-43.18
256.784	73.56
257	89.94
257.217	20.31
257.433	32.6
257.65	96.08
257.866	65.36
258.082	32.6
258.299	-75.95
258.515	5.97
258.732	34.64
258.948	-2.22
259.165	22.36
259.381	14.17
259.597	-0.17
259.814	38.74
260.03	-2.22
260.246	55.12
260.463	24.4
260.679	65.36
260.895	5.97
261.112	67.41
261.328	38.74
261.544	-12.46
261.761	104.28
261.977	24.4
262.193	51.03
262.409	65.36
262.626	-8.36
262.842	24.4
263.058	40.79
263.274	22.36
263.49	63.32
263.707	71.51
263.923	8.02
264.139	46.93
264.355	36.69
264.571	65.36
264.787	30.55
265.004	30.55
265.22	28.5
265.436	3.93
265.652	30.55
265.868	-51.37
266.084	-75.95
266.3	-43.18
266.516	38.74
266.732	59.22
266.948	-39.08
267.164	3.93
267.38	46.93
267.596	-14.51
267.812	63.32
268.028	81.75
268.244	-22.7
268.46	-0.17
268.676	5.97
268.892	-0.17
269.108	-34.99
269.324	5.97
269.54	34.64
269.756	55.12
269.972	-10.41
270.188	-10.41
270.403	-2.22
270.619	-43.18
270.835	77.65
271.051	-4.27
271.267	71.51
271.483	-8.36
271.698	65.36
271.914	-26.79
272.13	14.17
272.346	8.02
272.562	34.64
272.777	57.17
272.993	55.12
273.209	12.12
273.425	10.07
273.64	8.02
273.856	81.75
274.072	55.12
274.287	87.89
274.503	104.28
274.719	14.17
274.934	22.36
275.15	-2.22
275.366	1.88
275.581	20.31
275.797	-2.22
276.012	16.21
276.228	26.45
276.444	20.31
276.659	108.37
276.875	-4.27
277.09	24.4
277.306	1.88
277.521	-2.22
277.737	73.56
277.952	30.55
278.168	46.93
278.383	51.03
278.599	-2.22
278.814	40.79
279.03	42.84
279.245	63.32
279.461	-6.31
279.676	100.18
279.892	-26.79
280.107	-41.13
280.322	46.93
280.538	63.32
280.753	5.97
280.969	75.6
281.184	34.64
281.399	55.12
281.615	44.88
281.83	53.08
282.045	18.26
282.26	79.7
282.476	-0.17
282.691	87.89
282.906	40.79
283.122	10.07
283.337	14.17
283.552	65.36
283.767	18.26
283.983	42.84
284.198	18.26
284.413	59.22
284.628	-28.84
284.843	3.93
285.058	73.56
285.274	22.36
285.489	10.07
285.704	57.17
285.919	22.36
286.134	14.17
286.349	18.26
286.564	1.88
286.779	96.08
286.995	44.88
287.21	-8.36
287.425	38.74
287.64	24.4
287.855	26.45
288.07	-18.6
288.285	40.79
288.5	73.56
288.715	124.76
288.93	-18.6
289.145	55.12
289.36	67.41
289.575	-2.22
289.79	89.94
290.004	55.12
290.219	14.17
290.434	83.8
290.649	38.74
290.864	59.22
291.079	8.02
291.294	73.56
291.509	22.36
291.724	57.17
291.938	16.21
292.153	106.32
292.368	61.27
292.583	38.74
292.798	24.4
293.012	48.98
293.227	73.56
293.442	55.12
293.657	87.89
293.871	63.32
294.086	5.97
294.301	83.8
294.516	46.93
294.73	46.93
294.945	28.5
295.16	14.17
295.374	59.22
295.589	132.95
295.804	67.41
296.018	42.84
296.233	61.27
296.447	8.02
296.662	-10.41
296.877	32.6
297.091	-22.7
297.306	161.62
297.52	26.45
297.735	24.4
297.949	18.26
298.164	-4.27
298.378	-14.51
298.593	87.89
298.807	1.88
299.022	61.27
299.236	28.5
299.451	-2.22
299.665	30.55
299.88	12.12
300.094	20.31
300.309	5.97
300.523	14.17
300.737	-45.23
300.952	63.32
301.166	14.17
301.381	-2.22
301.595	79.7
301.809	20.31
302.024	8.02
302.238	-20.65
302.452	34.64
302.667	18.26
302.881	104.28
303.095	-10.41
303.309	73.56
303.524	22.36
303.738	8.02
303.952	38.74
304.166	40.79
304.381	-39.08
304.595	61.27
304.809	30.55
305.023	91.99
305.237	22.36
305.452	1.88
305.666	16.21
305.88	30.55
306.094	73.56
306.308	106.32
306.522	30.55
306.736	38.74
306.95	102.23
307.164	30.55
307.379	16.21
307.593	75.6
307.807	69.46
308.021	18.26
308.235	55.12
308.449	40.79
308.663	24.4
308.877	79.7
309.091	-45.23
309.305	61.27
309.519	-59.56
309.733	30.55
309.947	26.45
310.161	26.45
310.374	71.51
310.588	36.69
310.802	20.31
311.016	5.97
311.23	3.93
311.444	10.07
311.658	32.6
311.872	153.43
312.085	79.7
312.299	38.74
312.513	87.89
312.727	65.36
312.941	-22.7
313.154	5.97
313.368	-94.38
313.582	40.79
313.796	48.98
314.009	12.12
314.223	87.89
314.437	30.55
314.651	34.64
314.864	34.64
315.078	24.4
315.292	34.64
315.505	26.45
315.719	48.98
315.933	40.79
316.146	38.74
316.36	55.12
316.573	38.74
316.787	38.74
317.001	24.4
317.214	145.24
317.428	38.74
317.641	57.17
317.855	-10.41
318.068	132.95
318.282	-0.17
318.495	32.6
318.709	75.6
318.922	-10.41
319.136	79.7
319.349	48.98
319.563	124.76
319.776	87.89
319.99	24.4
320.203	38.74
320.417	14.17
320.63	55.12
320.843	48.98
321.057	18.26
321.27	40.79
321.483	30.55
321.697	48.98
321.91	1.88
322.124	46.93
322.337	-26.79
322.55	-22.7
322.763	22.36
322.977	55.12
323.19	1.88
323.403	-2.22
323.617	38.74
323.83	38.74
324.043	5.97
324.256	57.17
324.469	42.84
324.683	63.32
324.896	3.93
325.109	-32.94
325.322	30.55
325.535	104.28
325.748	57.17
325.962	-18.6
326.175	14.17
326.388	81.75
326.601	22.36
326.814	8.02
327.027	-4.27
327.24	128.85
327.453	5.97
327.666	87.89
327.879	59.22
328.092	22.36
328.305	57.17
328.518	40.79
328.731	-18.6
328.944	10.07
329.157	30.55
329.37	24.4
329.583	112.47
329.796	-2.22
330.009	5.97
330.222	16.21
330.435	18.26
330.648	22.36
330.861	38.74
331.073	112.47
331.286	26.45
331.499	87.89
331.712	55.12
331.925	120.66
332.138	8.02
332.35	73.56
332.563	8.02
332.776	5.97
332.989	38.74
333.202	85.84
333.414	63.32
333.627	55.12
333.84	-18.6
334.053	53.08
334.265	73.56
334.478	-43.18
334.691	48.98
334.903	112.47
335.116	-22.7
335.329	3.93
335.541	38.74
335.754	48.98
335.966	22.36
336.179	-34.99
336.392	-14.51
336.604	34.64
336.817	104.28
337.029	5.97
337.242	38.74
337.454	46.93
337.667	81.75
337.88	51.03
338.092	71.51
338.305	73.56
338.517	-4.27
338.729	124.76
338.942	110.42
339.154	73.56
339.367	8.02
339.579	-24.75
339.792	65.36
340.004	48.98
340.217	71.51
340.429	16.21
340.641	8.02
340.854	65.36
341.066	14.17
341.278	57.17
341.491	128.85
341.703	26.45
341.915	-0.17
342.128	-18.6
342.34	14.17
342.552	48.98
342.764	57.17
342.977	-4.27
343.189	22.36
343.401	26.45
343.613	40.79
343.826	81.75
344.038	40.79
344.25	65.36
344.462	71.51
344.674	116.56
344.886	96.08
345.099	65.36
345.311	67.41
345.523	73.56
345.735	-24.75
345.947	32.6
346.159	100.18
346.371	59.22
346.583	-34.99
346.795	137.04
347.007	30.55
347.219	63.32
347.431	-41.13
347.643	114.52
347.855	87.89
348.067	65.36
348.279	40.79
348.491	73.56
348.703	83.8
348.915	26.45
349.127	28.5
349.339	100.18
349.551	48.98
349.763	106.32
349.975	63.32
350.187	116.56
350.399	40.79
350.61	96.08
350.822	-30.89
351.034	57.17
351.246	48.98
351.458	48.98
351.669	10.07
351.881	34.64
352.093	87.89
352.305	22.36
352.517	87.89
352.728	24.4
352.94	106.32
353.152	71.51
353.363	61.27
353.575	46.93
353.787	71.51
353.999	87.89
354.21	48.98
354.422	30.55
354.633	63.32
354.845	22.36
355.057	32.6
355.268	55.12
355.48	126.8
355.692	-2.22
355.903	98.13
356.115	48.98
356.326	-2.22
356.538	122.71
356.749	-34.99
356.961	130.9
357.172	83.8
357.384	79.7
357.595	108.37
357.807	26.45
358.018	10.07
358.23	14.17
358.441	59.22
358.653	-2.22
358.864	-2.22
359.075	-43.18
359.287	24.4
359.498	69.46
359.709	112.47
359.921	5.97
360.132	71.51
360.344	8.02
360.555	-8.36
360.766	26.45
360.977	91.99
361.189	63.32
361.4	48.98
361.611	67.41
361.823	59.22
362.034	73.56
362.245	-51.37
362.456	89.94
362.667	8.02
362.879	46.93
363.09	-14.51
363.301	89.94
363.512	14.17
363.723	83.8
363.935	-2.22
364.146	114.52
364.357	24.4
364.568	-37.03
364.779	-18.6
364.99	116.56
365.201	63.32
365.412	75.6
365.623	-18.6
365.834	59.22
366.045	24.4
366.256	71.51
366.467	59.22
366.678	-20.65
366.889	38.74
367.1	-10.41
367.311	79.7
367.522	149.33
367.733	20.31
367.944	-10.41
368.155	44.88
368.366	8.02
368.577	89.94
368.788	132.95
368.999	26.45
369.209	18.26
369.42	73.56
369.631	147.28
369.842	-2.22
370.053	55.12
370.264	42.84
370.474	-39.08
370.685	94.04
370.896	10.07
371.107	32.6
371.317	16.21
371.528	44.88
371.739	14.17
371.95	24.4
372.16	71.51
372.371	16.21
372.582	24.4
372.792	40.79
373.003	8.02
373.214	3.93
373.424	79.7
373.635	38.74
373.846	55.12
374.056	34.64
374.267	30.55
374.477	61.27
374.688	63.32
374.898	65.36
375.109	100.18
375.319	-2.22
375.53	16.21
375.74	5.97
375.951	-18.6
376.161	112.47
376.372	104.28
376.582	122.71
376.793	42.84
377.003	67.41
377.214	51.03
377.424	73.56
377.635	87.89
377.845	-24.75
378.055	67.41
378.266	67.41
378.476	79.7
378.686	3.93
378.897	79.7
379.107	104.28
379.317	57.17
379.528	-0.17
379.738	96.08
379.948	-34.99
380.158	87.89
380.369	-12.46
380.579	71.51
380.789	94.04
380.999	104.28
381.21	73.56
381.42	91.99
381.63	-32.94
381.84	57.17
382.05	114.52
382.261	40.79
382.471	151.38
382.681	-49.32
382.891	87.89
383.101	118.61
383.311	145.24
383.521	-20.65
383.731	124.76
383.941	89.94
384.151	12.12
384.361	-18.6
384.571	67.41
384.781	48.98
384.991	112.47
385.201	116.56
385.411	16.21
385.621	65.36
385.831	22.36
386.041	108.37
386.251	55.12
386.461	20.31
386.671	20.31
386.881	100.18
387.091	40.79
387.301	83.8
387.511	81.75
387.72	1.88
387.93	153.43
388.14	-8.36
388.35	-34.99
388.56	94.04
388.769	112.47
388.979	100.18
389.189	32.6
389.399	3.93
389.609	65.36
389.818	38.74
390.028	73.56
390.238	26.45
390.447	34.64
390.657	55.12
390.867	32.6
391.076	32.6
391.286	10.07
391.496	48.98
391.705	77.65
391.915	91.99
392.125	147.28
392.334	38.74
392.544	14.17
392.753	104.28
392.963	-2.22
393.172	59.22
393.382	-2.22
393.591	79.7
393.801	24.4
394.01	96.08
394.22	67.41
394.429	63.32
394.639	57.17
394.848	89.94
395.058	65.36
395.267	71.51
395.477	63.32
395.686	71.51
395.895	143.19
396.105	149.33
396.314	161.62
396.524	81.75
396.733	8.02
396.942	87.89
397.152	79.7
397.361	98.13
397.57	96.08
397.78	30.55
397.989	108.37
398.198	124.76
398.407	22.36
398.617	96.08
398.826	71.51
399.035	102.23
399.244	157.52
399.453	104.28
399.663	20.31
399.872	104.28
400.081	51.03
400.29	122.71
400.499	89.94
400.708	128.85
400.917	81.75
401.127	48.98
401.336	57.17
401.545	147.28
401.754	81.75
401.963	96.08
402.172	130.9
402.381	114.52
402.59	145.24
402.799	122.71
403.008	122.71
403.217	98.13
403.426	151.38
403.635	147.28
403.844	161.62
404.053	63.32
404.262	161.62
404.471	71.51
404.68	157.52
404.888	141.14
405.097	153.43
405.306	100.18
405.515	132.95
405.724	155.47
405.933	151.38
406.142	153.43
406.35	77.65
406.559	145.24
406.768	157.52
406.977	221.01
407.185	149.33
407.394	214.87
407.603	159.57
407.812	175.95
408.02	173.91
408.229	239.44
408.438	139.09
408.646	210.77
408.855	196.43
409.064	292.69
409.272	237.39
409.481	313.17
409.69	223.06
409.898	233.3
410.107	243.54
410.315	339.79
410.524	253.78
410.733	374.61
410.941	345.94
411.15	364.37
411.358	333.65
411.567	382.8
411.775	309.07
411.984	362.32
412.192	431.95
412.401	390.99
412.609	419.66
412.818	411.47
413.026	427.85
413.234	444.24
413.443	489.29
413.651	464.72
413.86	458.57
414.068	620.36
414.276	606.03
414.485	499.53
414.693	612.17
414.901	587.6
415.11	716.62
415.318	657.23
415.526	653.13
415.734	730.95
415.943	692.04
416.151	778.06
416.359	726.86
416.567	761.67
416.776	755.53
416.984	876.36
417.192	876.36
417.4	886.6
417.608	935.75
417.817	853.83
418.025	960.33
418.233	1040.2
418.441	1066.82
418.649	1124.16
418.857	1204.03
419.065	1193.8
419.273	1130.31
419.481	1169.22
419.689	1259.33
419.897	1234.75
420.105	1335.1
420.313	1359.68
420.521	1374.02
420.729	1474.37
420.937	1505.09
421.145	1498.94
421.353	1689.4
421.561	1666.88
421.769	1746.75
421.977	1818.43
422.185	1759.03
422.393	1914.68
422.601	2111.29
422.809	2080.57
423.017	2070.33
423.224	2232.12
423.432	2209.59
423.64	2139.96
423.848	2420.53
424.056	2348.85
424.263	2537.26
424.471	2623.28
424.679	2549.55
424.887	2690.86
425.094	2897.71
425.302	2678.57
425.51	2834.22
425.718	2957.1
425.925	3053.35
426.133	3204.9
426.341	3327.78
426.548	3634.97
426.756	3522.34
426.964	3462.94
427.171	3823.39
427.379	3741.47
427.586	3970.84
427.794	3876.63
428.001	4046.62
428.209	4380.43
428.417	4298.52
428.624	4577.04
428.832	4421.39
429.039	4585.23
429.247	4536.08
429.454	5146.37
429.662	5283.59
429.869	5015.3
430.076	5263.11
430.284	5107.46
430.491	5342.98
430.699	5609.22
430.906	5625.6
431.114	5662.46
431.321	5979.9
431.528	6027
431.736	6543.09
431.943	6649.58
432.15	6493.94
432.358	6674.16
432.565	7165.67
432.772	7081.71
432.979	7278.31
433.187	7468.77
433.394	7556.83
433.601	8103.64
433.808	7933.66
434.016	7962.33
434.223	8249.05
434.43	8795.86
434.637	8382.17
434.844	9101
435.052	9391.81
435.259	9270.98
435.466	9402.05
435.673	9334.47
435.88	9672.39
436.087	10319.54
436.294	10512.05
436.501	10139.32
436.708	10313.4
436.915	10731.19
437.122	11234.99
437.329	11126.44
437.537	11415.21
437.743	11531.94
437.95	11437.73
438.157	12101.28
438.364	12580.5
438.571	12654.23
438.778	12615.32
438.985	13878.91
439.192	12973.71
439.399	13598.34
439.606	13401.74
439.813	14210.68
440.02	15132.27
440.227	14605.94
440.433	14495.35
440.64	14980.72
440.847	14710.39
441.054	15431.27
441.261	16125.54
441.467	16174.69
441.674	16440.92
441.881	17075.79
442.088	16717.4
442.294	16698.97
442.501	17296.97
442.708	17475.15
442.914	18013.76
443.121	18984.5
443.328	18607.67
443.534	19781.16
443.741	19271.22
443.948	19066.42
444.154	20227.62
444.361	20291.1
444.568	20526.62
444.774	20475.42
444.981	20375.07
445.187	21184.02
445.394	22105.6
445.6	21743.11
445.807	24178.15
446.013	23166.45
446.22	23258.61
446.426	24069.61
446.633	24155.62
446.839	25400.79
447.046	24126.95
447.252	25658.83
447.459	25349.59
447.665	25472.46
447.871	26531.26
448.078	27798.96
448.284	26373.57
448.491	26824.12
448.697	27927.98
448.903	28433.83
449.11	28513.7
449.316	28126.63
449.522	28831.13
449.728	29500.82
449.935	30320.01
450.141	29980.04
450.347	30578.05
450.553	29668.75
450.76	30053.77
450.966	30690.69
451.172	30582.15
451.378	31362.42
451.584	30911.87
451.791	31182.2
451.997	31438.2
452.203	31751.54
452.409	31952.24
452.615	32107.88
452.821	30561.67
453.027	30315.91
453.233	32386.41
453.44	30829.95
453.646	31327.61
453.852	31542.64
454.058	31792.5
454.264	30926.21
454.47	31647.09
454.676	30948.73
454.882	31780.21
455.088	29054.36
455.294	29435.28
455.5	30205.32
455.705	30371.21
455.911	29119.9
456.117	28485.03
456.323	28073.38
456.529	26533.31
456.735	27663.79
456.941	27159.99
457.147	26879.42
457.352	26021.32
457.558	25716.17
457.764	25781.71
457.97	25683.41
458.176	24684
458.381	24813.02
458.587	23350.77
458.793	23664.11
458.999	22504.96
459.204	23834.09
459.41	23385.58
459.616	21616.14
459.821	22093.32
460.027	21820.94
460.233	21241.36
460.438	20299.3
460.644	20534.81
460.85	19670.57
461.055	19400.24
461.261	18978.36
461.466	18087.49
461.672	17311.31
461.878	18478.65
462.083	17204.81
462.289	16963.15
462.494	16653.91
462.7	16053.86
462.905	15486.57
463.111	16047.71
463.316	15976.03
463.522	15711.85
463.727	15959.65
463.932	16143.97
464.138	15478.38
464.343	15808.1
464.549	15087.22
464.754	15439.47
464.959	15623.78
465.165	15300.2
465.37	14909.04
465.575	14456.44
465.781	15038.06
465.986	15111.79
466.191	14696.05
466.397	14358.14
466.602	13487.75
466.807	14268.03
467.012	14061.18
467.218	14040.7
467.423	13923.97
467.628	13932.16
467.833	14415.48
468.038	13919.87
468.244	13424.26
468.449	14241.4
468.654	13655.68
468.859	13614.73
469.064	13397.64
469.269	12820.11
469.474	13162.12
469.679	13280.91
469.885	12977.81
470.09	13096.59
470.295	12934.8
470.5	12482.2
470.705	12762.77
470.91	12426.9
471.115	12342.94
471.32	12557.97
471.525	12574.36
471.73	12359.32
471.935	12150.43
472.139	11830.94
472.344	11812.51
472.549	11835.04
472.754	11787.94
472.959	11450.02
473.164	11263.66
473.369	11093.68
473.574	11228.84
473.778	11232.94
473.983	11413.16
474.188	11314.86
474.393	10540.72
474.598	10708.66
474.802	10729.14
475.007	10512.05
475.212	10624.69
475.417	10145.47
475.621	10323.64
475.826	10254.01
476.031	10071.74
476.235	9823.94
476.44	9979.58
476.645	9817.79
476.849	9959.1
477.054	9496.26
477.259	9387.72
477.463	9479.88
477.668	9017.04
477.872	9365.19
478.077	9275.08
478.282	8859.34
478.486	8894.16
478.691	9002.7
478.895	9062.09
479.1	8707.79
479.304	8994.51
479.509	8498.9
479.713	8746.7
479.918	8632.02
480.122	8318.68
480.326	8517.33
480.531	8552.15
480.735	8232.66
480.94	8361.69
481.144	8632.02
481.348	8251.1
481.553	8337.11
481.757	8060.63
481.961	8314.58
482.166	8470.23
482.37	8474.32
482.574	8074.97
482.778	8091.35
482.983	8064.73
483.187	8249.05
483.391	8251.1
483.595	8193.75
483.8	8101.59
484.004	8234.71
484.208	8232.66
484.412	8140.51
484.616	8281.81
484.821	8369.88
485.025	7886.56
485.229	8191.7
485.433	8099.55
485.637	7976.67
485.841	8085.21
486.045	8169.18
486.249	8031.96
486.453	7984.86
486.657	8224.47
486.861	8064.73
487.065	7911.13
487.269	8201.94
487.473	8021.72
487.677	8140.51
487.881	8247
488.085	8234.71
488.289	8238.81
488.493	8019.67
488.697	8380.12
488.901	8193.75
489.105	8189.66
489.309	8234.71
489.512	8369.88
489.716	8462.04
489.92	8226.52
490.124	8095.45
490.328	8304.34
490.531	8306.39
490.735	8300.25
490.939	8459.99
491.143	8363.73
491.346	8345.3
491.55	8533.72
491.754	8382.17
491.958	8271.58
492.161	8535.76
492.365	8558.29
492.569	8447.7
492.772	8476.37
492.976	8611.54
493.18	8881.87
493.383	8812.24
493.587	8754.9
493.79	8906.45
493.994	8697.55
494.197	8830.67
494.401	9082.57
494.605	8873.68
494.808	9182.92
495.012	9213.64
495.215	9266.89
495.419	9365.19
495.622	9197.26
495.825	9408.2
496.029	9504.45
496.232	9660.1
496.436	9590.47
496.639	9883.33
496.843	9864.89
497.046	9944.77
497.249	9967.29
497.453	10278.58
497.656	10094.27
497.859	10315.45
498.063	10368.7
498.266	10655.41
498.469	10606.26
498.673	10639.03
498.876	10860.21
499.079	10759.86
499.282	10735.28
499.485	11312.81
499.689	11280.04
499.892	11327.14
500.095	11445.93
500.298	11636.39
500.501	11407.02
500.705	12017.31
500.908	11959.97
501.111	12107.42
501.314	12027.55
501.517	12072.61
501.72	12457.62
501.923	12424.86
502.126	12754.58
502.329	12832.4
502.532	12992.14
502.735	13055.63
502.938	13489.8
503.141	13323.91
503.344	13432.46
503.547	13416.07
503.75	13778.56
503.953	14036.61
504.156	14130.81
504.359	14296.7
504.562	14192.25
504.765	14501.5
504.968	14661.24
505.17	14651
505.373	14964.34
505.576	15134.32
505.779	15185.52
505.982	15228.52
506.185	15793.76
506.387	15885.92
506.59	15928.93
506.793	16135.78
506.996	16316
507.198	16420.44
507.401	16709.21
507.604	16655.96
507.807	16934.48
508.009	17116.75
508.212	17231.44
508.415	17170
508.617	17733.19
508.82	17866.31
509.022	17569.35
509.225	18052.67
509.428	18236.99
509.63	18325.05
509.833	18454.08
510.035	18791.99
510.238	18695.74
510.44	19093.04
510.643	19226.16
510.845	19742.25
511.048	19162.67
511.25	19727.91
511.453	19738.15
511.655	20686.36
511.858	20215.33
512.06	20647.45
512.262	20799
512.465	20774.42
512.667	21001.75
512.87	21267.98
513.072	21214.74
513.274	21554.7
513.477	22091.27
513.679	22105.6
513.881	22627.84
514.084	22623.74
514.286	22306.3
514.488	22619.64
514.69	23393.78
514.893	23191.03
515.095	23262.71
515.297	23873
515.499	23270.9
515.701	24143.33
515.904	24272.35
516.106	24729.05
516.308	24788.44
516.51	24972.76
516.712	25142.74
516.914	25218.52
517.116	25773.52
517.318	25548.24
517.52	25849.29
517.722	25769.42
517.925	26408.39
518.127	26846.65
518.329	26822.08
518.531	26709.44
518.733	27145.66
518.935	27327.92
519.136	27272.63
519.338	27684.27
519.54	27970.99
519.742	28231.08
519.944	28349.86
520.146	28929.44
520.348	28978.59
520.55	28994.97
520.752	28947.87
520.954	29910.41
521.155	29769.1
521.357	29750.67
521.559	30502.28
521.761	30289.29
521.963	30500.23
522.164	30559.62
522.366	30870.91
522.568	31139.19
522.77	30946.69
522.971	32032.11
523.173	31448.44
523.375	31784.3
523.576	31782.26
523.778	31741.3
523.98	32105.84
524.181	32212.33
524.383	32216.43
524.584	33228.12
524.786	32912.74
524.988	32787.81
525.189	33424.73
525.391	33269.08
525.592	33709.39
525.794	33924.43
525.995	33815.89
526.197	33930.58
526.398	34073.93
526.6	34157.9
526.801	34256.2
527.003	34426.18
527.204	34284.87
527.406	34614.6
527.607	34731.33
527.808	34940.22
528.01	34796.87
528.211	35167.55
528.412	35781.94
528.614	35341.63
528.815	35421.5
529.016	35556.66
529.218	35136.83
529.419	35611.96
529.62	35863.86
529.822	35884.34
530.023	35573.05
530.224	35788.08
530.425	35353.91
530.626	35423.54
530.828	35237.18
531.029	36212.01
531.23	35611.96
531.431	35843.38
531.632	35972.4
531.833	36058.42
532.035	35956.02
532.236	36289.84
532.437	36054.32
532.638	36185.39
532.839	36418.86
533.04	36263.21
533.241	36173.1
533.442	36715.81
533.643	36246.83
533.844	36265.26
534.045	36615.46
534.246	36302.12
534.447	36701.48
534.648	36330.79
534.849	36056.37
535.05	36377.9
535.251	36588.84
535.451	36404.52
535.652	36594.98
535.853	36377.9
536.054	36547.88
536.255	36502.82
536.456	36164.91
536.657	37174.56
536.857	36336.94
537.058	36271.4
537.259	36646.18
537.46	36597.03
537.66	36605.22
537.861	36574.5
538.062	36033.84
538.263	36420.91
538.463	36332.84
538.664	36433.19
538.865	36218.16
539.065	36916.51
539.266	36132.14
539.466	36748.58
539.667	35982.64
539.868	36554.02
540.068	36357.42
540.269	36336.94
540.469	36232.49
540.67	36377.9
540.87	36275.5
541.071	36504.87
541.271	36824.36
541.472	36617.51
541.672	36285.74
541.873	36234.54
542.073	35749.17
542.274	36511.02
542.474	36162.86
542.675	35667.25
542.875	36355.37
543.075	36246.83
543.276	35831.09
543.476	36644.13
543.676	36025.65
543.877	36402.47
544.077	36148.53
544.277	36324.65
544.478	36158.77
544.678	36193.58
544.878	36369.71
545.078	36091.18
545.279	35519.8
545.479	35697.97
545.679	36338.99
545.879	35956.02
546.079	35851.57
546.28	35593.53
546.48	35595.57
546.68	36033.84
546.88	35882.29
547.08	35990.83
547.28	35945.78
547.48	35607.86
547.68	35761.46
547.88	35743.03
548.081	35882.29
548.281	35947.82
548.481	35743.03
548.681	35757.36
548.881	35765.56
549.081	35665.21
549.28	35360.06
549.48	35718.45
549.68	36070.7
549.88	36095.28
550.08	35732.79
550.28	35833.14
550.48	35200.32
550.68	36062.51
550.88	35671.35
551.08	35640.63
551.279	35382.59
551.479	35398.97
551.679	35726.64
551.879	35327.29
552.079	35982.64
552.278	35489.08
552.478	35454.26
552.678	35226.94
552.878	35839.28
553.077	35720.5
553.277	35425.59
553.477	35953.97
553.676	35136.83
553.876	35609.91
554.076	35417.4
554.275	35274.04
554.475	34975.04
554.674	35378.49
554.874	35532.09
555.074	35423.54
555.273	35333.43
555.473	35212.6
555.672	35179.84
555.872	35138.88
556.071	35102.01
556.271	35011.9
556.47	34958.66
556.67	34536.77
556.869	34970.94
557.068	34839.87
557.268	34698.56
557.467	34948.42
557.667	35052.86
557.866	34534.73
558.065	34757.95
558.265	34395.46
558.464	34243.91
558.663	34852.16
558.863	34442.57
559.062	34630.98
559.261	34491.72
559.461	34805.06
559.66	34159.95
559.859	34583.88
560.058	34037.07
560.258	34178.38
560.457	33998.16
560.656	34481.48
560.855	34217.29
561.054	34069.84
561.253	33985.87
561.453	33865.04
561.652	34184.52
561.851	33989.97
562.05	33695.06
562.249	33582.42
562.448	33750.35
562.647	33650
562.846	33539.41
563.045	33553.75
563.244	33152.35
563.443	33641.81
563.642	33158.49
563.841	33633.62
564.04	33224.03
564.239	33283.42
564.438	32836.96
564.637	33355.1
564.836	33283.42
565.035	32785.76
565.234	32865.63
565.432	32712.03
565.631	32998.75
565.83	32806.24
566.029	32957.79
566.228	32517.48
566.427	32699.75
566.625	32261.48
566.824	31966.57
567.023	32712.03
567.222	31888.75
567.42	32419.17
567.619	32437.61
567.818	31968.62
568.016	32269.67
568.215	32021.87
568.414	31870.32
568.612	31997.29
568.811	31716.72
569.01	31982.96
569.208	31231.35
569.407	31724.91
569.605	31221.11
569.804	31642.99
570.002	30891.39
570.201	31354.23
570.4	31081.85
570.598	30948.73
570.797	30807.42
570.995	31307.13
571.193	30930.3
571.392	30819.71
571.59	30590.34
571.789	30864.77
571.987	30637.44
572.186	30633.35
572.384	30492.04
572.582	30625.15
572.781	30786.94
572.979	30107.02
573.177	30352.77
573.376	30633.35
573.574	29875.6
573.772	30281.1
573.971	29941.13
574.169	29916.56
574.367	29871.5
574.565	29879.69
574.763	29789.58
574.962	29748.62
575.16	29115.8
575.358	29810.06
575.556	29017.5
575.754	29642.13
575.952	29134.23
576.151	29453.72
576.349	29013.4
576.547	29382.04
576.745	29025.69
576.943	28870.04
577.141	29250.97
577.339	29009.31
577.537	28693.92
577.735	28986.78
577.933	28554.66
578.131	28503.46
578.329	28497.31
578.527	28204.45
578.725	28194.22
578.923	28362.15
579.121	28091.82
579.319	28329.38
579.516	28163.5
579.714	28171.69
579.912	28288.42
580.11	27678.13
580.308	27825.58
580.506	27735.47
580.704	27221.43
580.901	27598.26
581.099	27909.55
581.297	27248.05
581.495	27694.51
581.692	27485.62
581.89	27010.49
582.088	27731.37
582.285	26910.14
582.483	27106.74
582.681	26889.66
582.878	27049.4
583.076	26721.73
583.274	26957.24
583.471	26586.56
583.669	26365.38
583.866	26279.36
584.064	26275.27
584.262	26297.8
584.459	26512.83
584.657	26564.03
584.854	26439.11
585.052	26017.22
585.249	26322.37
585.447	25642.45
585.644	25644.49
585.841	25982.41
586.039	26246.6
586.236	25810.38
586.434	25687.5
586.631	25499.09
586.828	25417.17
587.026	25464.27
587.223	25521.62
587.42	25449.94
587.618	25329.11
587.815	25456.08
588.012	25185.75
588.21	24798.68
588.407	25060.82
588.604	24813.02
588.801	24882.65
588.999	24749.53
589.196	24770.01
589.393	24745.44
589.59	24204.77
589.787	24534.49
589.984	24520.16
590.182	24589.79
590.379	24264.16
590.576	24186.34
590.773	24442.34
590.97	24182.24
591.167	24114.66
591.364	23741.93
591.561	24008.17
591.758	23731.69
591.955	23889.38
592.152	24102.37
592.349	23649.77
592.546	23627.24
592.743	23494.13
592.94	23621.1
593.137	23703.02
593.334	23346.67
593.531	23141.88
593.727	23295.47
593.924	23432.69
594.121	23025.14
594.318	23053.81
594.515	22914.55
594.712	23012.85
594.908	22494.72
595.105	22593.02
595.302	22685.18
595.499	22660.6
595.696	22455.81
595.892	22447.61
596.089	22640.12
596.286	22666.75
596.482	22367.74
596.679	22107.65
596.876	22085.12
597.072	22064.64
597.269	22019.59
597.466	21898.76
597.662	21880.33
597.859	21755.4
598.055	21630.48
598.252	21669.39
598.448	21687.82
598.645	21839.37
598.841	21345.81
599.038	21528.08
599.234	21411.34
599.431	21100.05
599.627	21157.39
599.824	21282.32
600.02	21155.35
600.217	21028.37
600.413	20917.78
600.609	20925.97
600.806	20815.38
601.002	20846.1
601.198	20727.32
601.395	20815.38
601.591	20794.9
601.787	20567.58
601.984	20284.96
602.18	20831.77
602.376	20479.52
602.572	20217.38
602.769	19985.96
602.965	19842.6
603.161	20182.56
603.357	19736.1
603.553	20149.79
603.75	20031.01
603.946	19826.21
604.142	19777.06
604.338	19672.62
604.534	19873.32
604.73	19674.67
604.926	19490.35
605.122	19701.29
605.318	19508.78
605.514	19220.02
605.71	19197.49
605.906	19324.46
606.102	19099.19
606.298	19248.69
606.494	19428.91
606.69	19101.23
606.886	19002.93
607.082	18857.53
607.278	19152.43
607.474	18849.33
607.67	19052.08
607.866	18511.42
608.062	18841.14
608.257	18718.26
608.453	18757.18
608.649	18699.83
608.845	18390.59
609.041	18544.19
609.236	18570.81
609.432	18724.41
609.628	18462.27
609.824	18202.18
610.019	18138.69
610.215	18335.29
610.411	18392.64
610.606	18275.9
610.802	18286.14
610.998	18361.92
611.193	18232.9
611.389	17821.25
611.584	17931.84
611.78	17950.28
611.976	18009.67
612.171	17917.51
612.367	17755.72
612.562	17591.88
612.758	17653.32
612.953	17813.06
613.149	17876.55
613.344	17417.8
613.539	18050.63
613.735	17643.08
613.93	17737.29
614.126	17647.18
614.321	17774.15
614.517	17757.77
614.712	17755.72
614.907	17323.6
615.103	17536.59
615.298	17577.55
615.493	17612.36
615.688	16948.82
615.884	17675.85
616.079	17503.82
616.274	17278.54
616.47	17094.22
616.665	17069.65
616.86	16952.91
617.055	17020.5
617.25	17004.11
617.445	17145.42
617.641	16723.54
617.836	17098.32
618.031	16557.66
618.226	16965.2
618.421	16686.68
618.616	17057.36
618.811	16438.87
619.006	17043.03
619.201	16365.15
619.396	16639.58
619.591	16258.65
619.786	16389.72
619.981	16162.4
620.176	16346.72
620.371	16285.28
620.566	16158.3
620.761	16037.47
620.956	16328.28
621.151	15787.62
621.346	15902.31
621.541	15861.35
621.735	15611.5
621.93	15484.52
622.125	15474.28
622.32	15251.05
622.515	15574.63
622.709	15165.04
622.904	15222.38
623.099	14997.1
623.294	15236.72
623.488	14999.15
623.683	14835.31
623.878	14743.16
624.072	14892.66
624.267	14724.72
624.462	14581.37
624.656	14292.6
624.851	14526.07
625.046	14456.44
625.24	14145.15
625.435	14163.58
625.629	14112.38
625.824	13817.47
626.018	13876.87
626.213	13999.74
626.407	13710.98
626.602	13751.94
626.796	13653.64
626.991	13760.13
627.185	13684.36
627.38	13620.87
627.574	13344.39
627.768	13225.61
627.963	13287.05
628.157	13168.27
628.352	13266.57
628.546	13022.86
628.74	13137.55
628.935	12687
629.129	12818.07
629.323	12551.83
629.517	12836.5
629.712	12578.45
629.906	12588.69
630.1	12629.65
630.294	12504.73
630.489	12189.34
630.683	12351.13
630.877	12166.81
631.071	12267.16
631.265	12252.83
631.459	12103.32
631.653	12082.84
631.848	12050.08
632.042	11806.37
632.236	11880.1
632.43	11779.75
632.624	11724.45
632.818	11566.76
633.012	11511.46
633.206	11474.6
633.4	11628.2
633.594	11503.27
633.788	11204.27
633.982	11396.78
634.176	11105.96
634.369	11124.4
634.563	11110.06
634.757	10876.59
634.951	11093.68
635.145	11126.44
635.339	10991.28
635.533	10929.84
635.726	10839.73
635.92	10608.31
636.114	10725.04
636.308	10335.93
636.501	10659.51
636.695	10579.64
636.889	10483.38
637.083	10475.19
637.276	10194.62
637.47	10182.33
637.664	10041.02
637.857	10309.3
638.051	10124.99
638.244	9979.58
638.438	9901.76
638.632	9983.68
638.825	9899.71
639.019	9811.65
639.212	9606.85
639.406	9647.81
639.599	9627.33
639.793	9696.96
639.986	9447.11
640.18	9627.33
640.373	9543.36
640.567	9283.27
640.76	9363.14
640.954	9422.53
641.147	9299.66
641.34	9303.75
641.534	9346.76
641.727	9148.11
641.92	9250.5
642.114	9080.52
642.307	9021.13
642.5	8982.22
642.694	8908.49
642.887	8847.05
643.08	8922.83
643.273	8791.76
643.467	8836.81
643.66	8642.26
643.853	8756.94
644.046	8658.64
644.239	8611.54
644.432	8412.88
644.626	8558.29
644.819	8414.93
645.012	8333.01
645.205	8582.87
645.398	8152.79
645.591	8238.81
645.784	8220.38
645.977	8128.22
646.17	8199.9
646.363	8064.73
646.556	7970.52
646.749	8320.73
646.942	8025.82
647.135	8001.24
647.328	7980.76
647.521	7855.84
647.714	7614.18
647.907	7708.38
648.099	7673.57
648.292	7732.96
648.485	7538.4
648.678	7515.87
648.871	7698.14
649.064	7444.2
649.256	7585.51
649.449	7446.24
649.642	7268.07
649.835	7358.18
650.027	7151.34
650.22	7263.97
650.413	7257.83
650.605	7255.78
650.798	7126.76
650.991	7151.34
651.183	7128.81
651.376	6960.88
651.568	6868.72
651.761	6969.07
651.954	7007.98
652.146	6891.24
652.339	6936.3
652.531	6817.52
652.724	6891.24
652.916	6616.82
653.109	6733.55
653.301	6674.16
653.494	6797.04
653.686	6551.28
653.879	6711.02
654.071	6483.7
654.263	6469.36
654.456	6522.61
654.648	6395.64
654.84	6342.39
655.033	6438.64
655.225	6420.21
655.417	6117.11
655.61	6332.15
655.802	6457.07
655.994	6180.6
656.186	6412.02
656.379	6117.11
656.571	6194.93
656.763	6018.81
656.955	5957.37
657.148	6045.43
657.34	6045.43
657.532	5873.4
657.724	6051.58
657.916	5754.62
658.108	6037.24
658.3	5836.54
658.492	5969.66
658.684	5660.41
658.876	5633.79
659.068	5695.23
659.26	5611.26
659.452	5641.98
659.644	5613.31
659.836	5469.95
660.028	5564.16
660.22	5474.05
660.412	5453.57
660.604	5263.11
660.796	5568.26
660.988	5404.42
661.18	5355.27
661.372	5345.03
661.563	5265.16
661.755	5334.79
661.947	5166.85
662.139	5185.29
662.331	5306.12
662.522	5029.64
662.714	5127.94
662.906	5099.27
663.097	5175.05
663.289	5158.66
663.481	5093.13
663.673	5152.52
663.864	4912.91
664.056	5058.31
664.247	4943.63
664.439	4871.95
664.631	4962.06
664.822	4826.89
665.014	4871.95
665.205	4974.35
665.397	4777.74
665.588	4830.99
665.78	4855.56
665.971	4812.56
666.163	4638.48
666.354	4701.97
666.546	4572.94
666.737	4605.71
666.929	4630.29
667.12	4589.33
667.311	4560.66
667.503	4552.46
667.694	4675.34
667.885	4454.16
668.077	4634.38
668.268	4491.02
668.459	4392.72
668.651	4441.87
668.842	4355.86
669.033	4347.67
669.224	4298.52
669.416	4415.25
669.607	4275.99
669.798	4185.88
669.989	4370.19
670.18	4333.33
670.371	4200.21
670.563	4181.78
670.754	4087.57
670.945	4149.01
671.136	4331.28
671.327	4118.29
671.518	4138.77
671.709	4187.93
671.9	4097.81
672.091	4230.93
672.282	3938.07
672.473	4046.62
672.664	4161.3
672.855	3915.55
673.046	4015.9
673.237	3983.13
673.428	3970.84
673.619	4011.8
673.809	3913.5
674	3938.07
674.191	3979.03
674.382	3843.87
674.573	3860.25
674.764	3835.67
674.954	3800.86
675.145	3817.24
675.336	3792.67
675.527	3725.08
675.717	3774.24
675.908	3737.37
676.099	3780.38
676.289	3819.29
676.48	3718.94
676.671	3626.78
676.861	3872.54
677.052	3569.44
677.243	3634.97
677.433	3530.53
677.624	3714.84
677.814	3651.36
678.005	3610.4
678.195	3743.52
678.386	3571.49
678.576	3655.45
678.767	3581.73
678.957	3598.11
679.148	3733.28
679.338	3606.3
679.529	3610.4
679.719	3501.86
679.909	3602.21
680.1	3497.76
680.29	3487.52
680.481	3573.53
680.671	3538.72
680.861	3430.18
681.052	3356.45
681.242	3348.26
681.432	3532.58
681.622	3495.71
681.813	3391.27
682.003	3462.94
682.193	3274.53
682.383	3397.41
682.573	3415.84
682.764	3317.54
682.954	3481.38
683.144	3282.72
683.334	3479.33
683.524	3481.38
683.714	3362.59
683.904	3389.22
684.094	3419.94
684.284	3358.5
684.474	3436.32
684.664	3292.96
684.854	3217.19
685.044	3219.24
685.234	3069.73
685.424	3274.53
685.614	3139.37
685.804	3180.32
685.994	3270.44
686.184	3163.94
686.374	3219.24
686.564	3131.17
686.753	3239.72
686.943	3141.41
687.133	3102.5
687.323	3122.98
687.513	3143.46
687.702	3032.87
687.892	2971.43
688.082	3000.1
688.272	3020.58
688.461	3071.78
688.651	2998.06
688.841	2989.86
689.03	3028.78
689.22	2950.95
689.41	3036.97
689.599	2922.28
689.789	2848.55
689.979	2924.33
690.168	3041.06
690.358	2807.59
690.547	2776.87
690.737	2922.28
690.926	2768.68
691.116	2844.46
691.305	2842.41
691.495	2869.03
691.684	2791.21
691.874	2809.64
692.063	2842.41
692.252	2807.59
692.442	2785.07
692.631	2625.33
692.82	2615.09
693.01	2602.8
693.199	2774.83
693.388	2623.28
693.578	2629.42
693.767	2643.76
693.956	2660.14
694.146	2592.56
694.335	2539.31
694.524	2574.13
694.713	2637.61
694.902	2602.8
695.092	2613.04
695.281	2524.97
695.47	2664.24
695.659	2416.43
695.848	2367.28
696.037	2557.74
696.226	2465.58
696.415	2594.61
696.604	2408.24
696.793	2627.37
696.982	2533.17
697.171	2473.78
697.36	2512.69
697.549	2500.4
697.738	2354.99
697.927	2361.14
698.116	2471.73
698.305	2498.35
698.494	2398
698.683	2281.27
698.872	2508.59
699.061	2426.67
699.25	2279.22
699.438	2326.32
699.627	2424.62
699.816	2443.06
700.005	2254.64
700.193	2361.14
700.382	2334.51
700.571	2283.31
700.76	2449.2
700.948	2508.59
701.137	2301.75
701.326	2375.47
701.514	2283.31
701.703	2422.58
701.892	2279.22
702.08	2373.43
702.269	2383.66
702.457	2379.57
702.646	2242.36
702.834	2242.36
703.023	2246.45
703.212	2283.31
703.4	2254.64
703.589	2373.43
703.777	2283.31
703.965	2268.98
704.154	2264.88
704.342	2242.36
704.531	2217.78
704.719	2264.88
704.907	2262.83
705.096	2279.22
705.284	2219.83
705.472	2348.85
705.661	2172.72
705.849	2185.01
706.037	2324.27
706.226	2318.13
706.414	2283.31
706.602	2309.94
706.79	2148.15
706.979	2146.1
707.167	2209.59
707.355	2277.17
707.543	2160.44
707.731	2307.89
707.919	2201.4
708.107	2170.68
708.296	2287.41
708.484	2121.52
708.672	2232.12
708.86	2225.97
709.048	2133.81
709.236	2142
709.424	2391.86
709.612	2228.02
709.8	2254.64
709.988	2266.93
710.176	2230.07
710.364	2189.11
710.551	2209.59
710.739	2158.39
710.927	2260.79
711.115	2113.33
711.303	2217.78
711.491	2178.87
711.679	2119.48
711.866	2221.88
712.054	2094.9
712.242	2170.68
712.43	2209.59
712.617	2217.78
712.805	2242.36
712.993	2168.63
713.181	2090.81
713.368	2285.36
713.556	2154.29
713.744	2144.05
713.931	2357.04
714.119	2131.76
714.306	2121.52
714.494	1996.6
714.682	2209.59
714.869	2064.18
715.057	2113.33
715.244	2127.67
715.432	2221.88
715.619	2164.53
715.807	2172.72
715.994	2262.83
716.182	2076.47
716.369	2236.21
716.556	2271.03
716.744	2131.76
716.931	2209.59
717.119	2221.88
717.306	2250.55
717.493	2127.67
717.681	2137.91
717.868	2211.64
718.055	2221.88
718.242	2258.74
718.43	2162.48
718.617	2113.33
718.804	2217.78
718.991	2266.93
719.179	2178.87
719.366	2307.89
719.553	2320.18
719.74	2148.15
719.927	2232.12
720.114	2252.59
720.301	2137.91
720.488	2248.5
720.676	2203.44
720.863	2129.72
721.05	2144.05
721.237	2322.23
721.424	2176.82
721.611	2234.16
721.798	2152.24
721.985	2213.68
722.172	2252.59
722.358	2187.06
722.545	2248.5
722.732	2219.83
722.919	2322.23
723.106	2012.98
723.293	2119.48
723.48	2201.4
723.667	2082.61
723.853	2287.41
724.04	2144.05
724.227	2166.58
724.414	2193.2
724.6	2103.09
724.787	2066.23
724.974	2139.96
725.161	2115.38
725.347	2062.13
725.534	2150.2
725.72	2096.95
725.907	2135.86
726.094	2230.07
726.28	2139.96
726.467	2182.96
726.653	2064.18
726.84	2213.68
727.027	2299.7
727.213	2127.67
727.4	2275.12
727.586	2193.2
727.773	2295.6
727.959	2209.59
728.145	2250.55
728.332	2258.74
728.518	2174.77
728.705	2191.16
728.891	2121.52
729.077	2131.76
729.264	2174.77
729.45	2189.11
729.636	2152.24
729.823	2361.14
730.009	2094.9
730.195	2225.97
730.382	2125.62
730.568	2109.24
730.754	2242.36
730.94	2084.66
731.126	2172.72
731.313	2238.26
731.499	2094.9
731.685	2142
731.871	2242.36
732.057	2258.74
732.243	2271.03
732.429	2123.57
732.615	2217.78
732.801	2248.5
732.987	2146.1
733.173	2129.72
733.359	2168.63
733.545	2230.07
733.731	2119.48
733.917	2170.68
734.103	2131.76
734.289	2119.48
734.475	2168.63
734.661	2191.16
734.847	2166.58
735.033	2139.96
735.219	2146.1
735.404	2185.01
735.59	2266.93
735.776	2160.44
735.962	2197.3
736.148	2121.52
736.333	2256.69
736.519	2207.54
736.705	2172.72
736.89	2135.86
737.076	2254.64
737.262	2064.18
737.447	2080.57
737.633	2117.43
737.819	2115.38
738.004	2146.1
738.19	2133.81
738.375	2037.56
738.561	2152.24
738.747	2035.51
738.932	2072.37
739.118	2119.48
739.303	2103.09
739.489	2160.44
739.674	1937.21
739.859	2070.33
740.045	2033.46
740.23	2064.18
740.416	1996.6
740.601	2137.91
740.786	2062.13
740.972	2060.09
741.157	1972.02
741.342	1957.69
741.528	2021.17
741.713	2006.84
741.898	2033.46
742.084	2019.13
742.269	1873.72
742.454	1955.64
742.639	2086.71
742.824	1949.5
743.01	1959.74
743.195	2017.08
743.38	1931.06
743.565	1816.38
743.75	2074.42
743.935	1840.95
744.12	1939.26
744.305	1931.06
744.49	1877.82
744.675	1959.74
744.86	1877.82
745.045	1890.1
745.23	1857.34
745.415	1949.5
745.6	1898.3
745.785	1812.28
745.97	1808.19
746.155	1873.72
746.34	1818.43
746.525	1818.43
746.71	1908.54
746.895	1795.9
747.079	1785.66
747.264	1728.31
747.449	1812.28
747.634	1853.24
747.819	1701.69
748.003	1840.95
748.188	1623.87
748.373	1701.69
748.557	1769.27
748.742	1726.27
748.927	1652.54
749.111	1709.88
749.296	1783.61
749.481	1720.12
749.665	1660.73
749.85	1644.35
750.034	1705.79
750.219	1597.24
750.404	1599.29
750.588	1615.68
750.773	1595.2
750.957	1572.67
751.141	1599.29
751.326	1531.71
751.51	1527.61
751.695	1472.32
751.879	1627.96
752.064	1687.36
752.248	1496.89
752.432	1496.89
752.617	1470.27
752.801	1564.48
752.985	1441.6
753.17	1447.74
753.354	1480.51
753.538	1505.09
753.722	1451.84
753.907	1496.89
754.091	1439.55
754.275	1423.17
754.459	1335.1
754.643	1310.53
754.828	1435.46
755.012	1388.35
755.196	1294.15
755.38	1417.02
755.564	1316.67
755.748	1292.1
755.932	1333.06
756.116	1349.44
756.3	1333.06
756.484	1302.34
756.668	1296.19
756.852	1269.57
757.036	1378.11
757.22	1275.71
757.404	1251.14
757.588	1191.75
757.772	1310.53
757.956	1281.86
758.14	1290.05
758.323	1152.84
758.507	1257.28
758.691	1130.31
758.875	1181.51
759.059	1195.84
759.242	1212.23
759.426	1201.99
759.61	1163.08
759.794	1136.45
759.977	1238.85
760.161	1204.03
760.345	1226.56
760.528	1199.94
760.712	1101.64
760.895	1095.49
761.079	1244.99
761.263	1081.16
761.446	1103.68
761.63	1062.73
761.813	1070.92
761.997	1042.25
762.18	1056.58
762.364	1099.59
762.547	1095.49
762.731	1072.96
762.914	1079.11
763.098	999.24
763.281	1013.57
763.464	1089.35
763.648	986.95
763.831	1050.44
764.015	1089.35
764.198	997.19
764.381	943.94
764.564	972.61
764.748	980.81
764.931	974.66
765.114	1032.01
765.297	1034.05
765.481	1013.57
765.664	1017.67
765.847	960.33
766.03	1001.29
766.213	966.47
766.397	1005.38
766.58	874.31
766.763	993.09
766.946	890.7
767.129	976.71
767.312	870.22
767.495	898.89
767.678	921.42
767.861	915.27
768.044	890.7
768.227	896.84
768.41	1005.38
768.593	939.85
768.776	976.71
768.959	784.2
769.142	974.66
769.324	919.37
769.507	956.23
769.69	859.98
769.873	857.93
770.056	1015.62
770.239	919.37
770.421	841.54
770.604	866.12
770.787	833.35
770.97	874.31
771.152	905.03
771.335	954.18
771.518	833.35
771.7	808.78
771.883	931.66
772.066	800.59
772.248	919.37
772.431	890.7
772.613	886.6
772.796	802.63
772.978	870.22
773.161	816.97
773.343	792.39
773.526	845.64
773.708	757.58
773.891	788.3
774.073	780.11
774.256	782.15
774.438	778.06
774.621	816.97
774.803	714.57
774.985	782.15
775.168	728.91
775.35	784.2
775.532	761.67
775.715	685.9
775.897	751.43
776.079	730.95
776.261	747.34
776.444	673.61
776.626	616.27
776.808	730.95
776.99	591.69
777.173	702.28
777.355	751.43
777.537	601.93
777.719	669.52
777.901	696.14
778.083	579.4
778.265	681.8
778.447	653.13
778.629	726.86
778.811	669.52
778.993	560.97
779.175	714.57
779.357	610.12
779.539	657.23
779.721	608.08
779.903	653.13
780.085	632.65
780.267	628.56
780.449	577.36
780.631	655.18
780.812	622.41
780.994	542.54
781.176	554.83
781.358	587.6
781.54	606.03
781.721	606.03
781.903	540.49
782.085	524.11
782.267	612.17
782.448	579.4
782.63	532.3
782.812	540.49
782.993	581.45
783.175	571.21
783.357	493.39
783.538	489.29
783.72	534.35
783.901	528.21
784.083	571.21
784.264	499.53
784.446	534.35
784.627	487.25
784.809	466.77
784.99	483.15
785.172	468.81
785.353	538.45
785.535	513.87
785.716	505.68
785.897	456.53
786.079	456.53
786.26	415.57
786.441	534.35
786.623	390.99
786.804	481.1
786.985	415.57
787.167	540.49
787.348	407.38
787.529	489.29
787.71	429.9
787.891	472.91
788.073	384.85
788.254	386.9
788.435	390.99
788.616	431.95
788.797	380.75
788.978	393.04
789.159	386.9
789.34	464.72
789.522	345.94
789.703	456.53
789.884	403.28
790.065	366.42
790.246	390.99
790.427	444.24
790.607	319.31
790.788	407.38
790.969	302.93
791.15	352.08
791.331	315.22
791.512	302.93
791.693	218.96
791.874	350.03
792.054	384.85
792.235	360.27
792.416	350.03
792.597	304.98
792.778	399.18
792.958	374.61
793.139	384.85
793.32	407.38
793.5	366.42
793.681	390.99
793.862	253.78
794.042	358.22
794.223	333.65
794.404	309.07
794.584	341.84
794.765	333.65
794.945	343.89
795.126	350.03
795.306	321.36
795.487	284.5
795.667	356.18
795.848	278.35
796.028	333.65
796.209	345.94
796.389	296.78
796.57	313.17
796.75	288.59
796.93	247.63
797.111	284.5
797.291	339.79
797.471	276.31
797.652	284.5
797.832	300.88
798.012	302.93
798.192	309.07
798.373	319.31
798.553	251.73
798.733	307.02
798.913	296.78
799.093	169.81
799.274	259.92
799.454	249.68
799.634	239.44
799.814	278.35
799.994	311.12
800.174	300.88
800.354	210.77
800.534	194.39
800.714	221.01
800.894	251.73
801.074	261.97
801.254	221.01
801.434	239.44
801.614	309.07
801.794	249.68
801.974	816.97
802.154	313.17
802.334	227.15
802.514	202.58
802.693	251.73
802.873	190.29
803.053	237.39
803.233	212.82
803.413	204.63
803.592	302.93
803.772	192.34
803.952	292.69
804.131	178
804.311	178
804.491	227.15
804.67	239.44
804.85	294.74
805.03	235.35
805.209	235.35
805.389	302.93
805.568	204.63
805.748	200.53
805.928	231.25
806.107	200.53
806.287	225.11
806.466	190.29
806.646	202.58
806.825	132.95
807.004	180.05
807.184	159.57
807.363	155.47
807.543	190.29
807.722	202.58
807.901	225.11
808.081	255.83
808.26	104.28
808.439	124.76
808.619	122.71
808.798	186.19
808.977	104.28
809.156	169.81
809.336	255.83
809.515	163.67
809.694	147.28
809.873	145.24
810.052	221.01
810.231	184.15
810.411	216.91
810.59	139.09
810.769	108.37
810.948	264.02
811.127	141.14
811.306	130.9
811.485	169.81
811.664	204.63
811.843	153.43
812.022	145.24
812.201	161.62
812.38	202.58
812.559	139.09
812.737	200.53
812.916	159.57
813.095	73.56
813.274	155.47
813.453	149.33
813.632	132.95
813.811	161.62
813.989	145.24
814.168	198.48
814.347	55.12
814.526	157.52
814.704	165.71
814.883	141.14
815.062	118.61
815.24	130.9
815.419	190.29
815.598	104.28
815.776	171.86
815.955	186.19
816.133	108.37
816.312	40.79
816.49	120.66
816.669	96.08
816.847	122.71
817.026	141.14
817.204	112.47
817.383	153.43
817.561	67.41
817.74	137.04
817.918	81.75
818.097	116.56
818.275	87.89
818.453	130.9
818.632	225.11
818.81	147.28
818.988	110.42
819.167	112.47
819.345	210.77
819.523	155.47
819.701	132.95
819.879	149.33
820.058	137.04
820.236	153.43
820.414	79.7
820.592	96.08
820.77	171.86
820.948	106.32
821.127	57.17
821.305	112.47
821.483	135
821.661	235.35
821.839	85.84
822.017	155.47
822.195	196.43
822.373	204.63
822.551	36.69
822.729	114.52
822.907	130.9
823.085	184.15
823.262	112.47
823.44	69.46
823.618	75.6
823.796	108.37
823.974	96.08
824.152	-2.22
824.329	96.08
824.507	96.08
824.685	69.46
824.863	122.71
825.04	96.08
825.218	104.28
825.396	81.75
825.574	114.52
825.751	180.05
825.929	173.91
826.107	14.17
826.284	46.93
826.462	91.99
826.639	91.99
826.817	67.41
826.994	116.56
827.172	120.66
827.349	137.04
827.527	108.37
827.704	108.37
827.882	178
828.059	139.09
828.237	81.75
828.414	116.56
828.591	79.7
828.769	104.28
828.946	57.17
829.124	96.08
829.301	124.76
829.478	63.32
829.655	75.6
829.833	26.45
830.01	51.03
830.187	178
830.364	81.75
830.542	130.9
830.719	79.7
830.896	89.94
831.073	137.04
831.25	30.55
831.427	81.75
831.604	71.51
831.782	79.7
831.959	79.7
832.136	69.46
832.313	16.21
832.49	28.5
832.667	-16.55
832.844	46.93
833.021	110.42
833.198	87.89
833.374	71.51
833.551	98.13
833.728	71.51
833.905	69.46
834.082	-18.6
834.259	85.84
834.436	106.32
834.612	14.17
834.789	100.18
834.966	8.02
835.143	112.47
835.319	57.17
835.496	32.6
835.673	55.12
835.85	73.56
836.026	147.28
836.203	81.75
836.38	57.17
836.556	8.02
836.733	51.03
836.909	182.1
837.086	48.98
837.262	40.79
837.439	83.8
837.616	12.12
837.792	98.13
837.968	94.04
838.145	5.97
838.321	71.51
838.498	87.89
838.674	100.18
838.851	59.22
839.027	83.8
839.203	55.12
839.38	61.27
839.556	-39.08
839.732	169.81
839.909	32.6
840.085	73.56
840.261	-18.6
840.437	137.04
840.614	-6.31
840.79	63.32
840.966	83.8
841.142	34.64
841.318	10.07
841.494	42.84
841.671	116.56
841.847	10.07
842.023	63.32
842.199	110.42
842.375	112.47
842.551	79.7
842.727	24.4
842.903	112.47
843.079	8.02
843.255	141.14
843.431	57.17
843.607	63.32
843.783	14.17
843.959	96.08
844.134	38.74
844.31	5.97
844.486	75.6
844.662	24.4
844.838	51.03
845.013	-10.41
845.189	73.56
845.365	71.51
845.541	18.26
845.716	46.93
845.892	34.64
846.068	5.97
846.244	-30.89
846.419	44.88
846.595	38.74
846.77	-18.6
846.946	59.22
847.122	57.17
847.297	51.03
847.473	91.99
847.648	-47.27
847.824	81.75
847.999	32.6
848.175	14.17
848.35	3.93
848.526	91.99
848.701	65.36
848.876	28.5
849.052	59.22
849.227	32.6
849.403	30.55
849.578	77.65
849.753	67.41
849.929	87.89
850.104	1.88
850.279	104.28
850.454	-12.46
850.63	3.93
850.805	16.21
850.98	57.17
851.155	14.17
851.33	-22.7
851.505	1.88
851.681	112.47
851.856	42.84
852.031	67.41
852.206	30.55
852.381	59.22
852.556	38.74
852.731	81.75
852.906	8.02
853.081	59.22
853.256	87.89
853.431	28.5
853.606	12.12
853.781	-16.55
853.956	55.12
854.131	63.32
854.305	-67.75
854.48	-18.6
854.655	28.5
854.83	-16.55
855.005	63.32
855.18	67.41
855.354	20.31
855.529	-8.36
855.704	-22.7
855.879	63.32
856.053	28.5
856.228	12.12
856.403	22.36
856.577	87.89
856.752	-39.08
856.926	22.36
857.101	-55.47
857.276	63.32
857.45	30.55
857.625	-14.51
857.799	79.7
857.974	8.02
858.148	26.45
858.323	-30.89
858.497	-51.37
858.672	-26.79
858.846	-10.41
859.02	26.45
859.195	5.97
859.369	-34.99
859.543	-8.36
859.718	-0.17
859.892	-8.36
860.066	-39.08
860.241	-59.56
860.415	42.84
860.589	-2.22
860.763	71.51
860.938	18.26
861.112	114.52
861.286	40.79
861.46	-0.17
861.634	-14.51
861.808	79.7
861.982	14.17
862.157	-2.22
862.331	24.4
862.505	30.55
862.679	36.69
862.853	-2.22
863.027	-0.17
863.201	59.22
863.375	-41.13
863.549	-8.36
863.722	16.21
863.896	87.89
864.07	3.93
864.244	14.17
864.418	10.07
864.592	38.74
864.766	-24.75
864.939	59.22
865.113	12.12
865.287	51.03
865.461	22.36
865.634	34.64
865.808	18.26
865.982	5.97
866.156	-6.31
866.329	38.74
866.503	24.4
866.676	-30.89
866.85	57.17
867.024	87.89
867.197	-61.61
867.371	122.71
867.544	59.22
867.718	-20.65
867.891	34.64
868.065	5.97
868.238	57.17
868.412	63.32
868.585	-18.6
868.759	14.17
868.932	106.32
869.105	-22.7
869.279	12.12
869.452	-16.55
869.625	-24.75
869.799	-59.56
869.972	34.64
870.145	42.84
870.319	63.32
870.492	-6.31
870.665	38.74
870.838	-2.22
871.011	-67.75
871.185	-28.84
871.358	-8.36
871.531	34.64
871.704	-8.36
871.877	34.64
872.05	-34.99
872.223	79.7
872.396	67.41
872.569	8.02
872.742	-10.41
872.915	5.97
873.088	14.17
873.261	14.17
873.434	22.36
873.607	51.03
873.78	79.7
873.953	-18.6
874.126	12.12
874.299	30.55
874.471	-90.28
874.644	-2.22
874.817	65.36
874.99	55.12
875.163	10.07
875.335	-43.18
875.508	22.36
875.681	102.23
875.853	-41.13
876.026	-4.27
876.199	-75.95
876.371	-75.95
876.544	-28.84
876.717	14.17
876.889	28.5
877.062	-0.17
877.234	5.97
877.407	98.13
877.579	8.02
877.752	18.26
877.924	-14.51
878.097	-51.37
878.269	-12.46
878.442	3.93
878.614	-10.41
878.786	46.93
878.959	10.07
879.131	-16.55
879.303	-34.99
879.476	34.64
879.648	16.21
879.82	22.36
879.993	53.08
880.165	38.74
880.337	-18.6
880.509	-47.27
880.681	14.17
880.854	-8.36
881.026	91.99
881.198	46.93
881.37	-18.6
881.542	18.26
881.714	1.88
881.886	32.6
882.058	63.32
882.23	-30.89
882.402	22.36
882.574	-47.27
882.746	-63.66
882.918	38.74
883.09	34.64
883.262	63.32
883.434	5.97
883.606	28.5
883.778	5.97
883.95	71.51
884.122	-4.27
884.293	79.7
884.465	-49.32
884.637	16.21
884.809	-8.36
884.98	22.36
885.152	-59.56
885.324	69.46
885.496	55.12
885.667	-0.17
885.839	83.8
886.011	59.22
886.182	30.55
886.354	18.26
886.525	-2.22
886.697	5.97
886.869	38.74
887.04	46.93
887.212	57.17
887.383	8.02
887.555	-8.36
887.726	30.55
887.897	-10.41
888.069	3.93
888.24	24.4
888.412	20.31
888.583	1.88
888.754	34.64
888.926	30.55
889.097	22.36
889.268	-2.22
889.44	-20.65
889.611	-57.51
889.782	-10.41
889.953	-22.7
890.125	8.02
890.296	-22.7
890.467	-30.89
890.638	59.22
890.809	10.07
890.98	10.07
891.151	22.36
891.323	34.64
891.494	44.88
891.665	-8.36
891.836	67.41
892.007	1.88
892.178	46.93
892.349	22.36
892.52	30.55
892.691	-16.55
892.862	-10.41
893.032	-14.51
893.203	5.97
893.374	-30.89
893.545	-14.51
893.716	-18.6
893.887	38.74
894.057	-47.27
894.228	14.17
894.399	-12.46
894.57	-24.75
894.74	14.17
894.911	-6.31
895.082	-18.6
895.253	-41.13
895.423	-10.41
895.594	79.7
895.764	22.36
895.935	-51.37
896.106	5.97
896.276	24.4
896.447	14.17
896.617	42.84
896.788	-45.23
896.958	10.07
897.129	-18.6
897.299	-84.14
897.47	67.41
897.64	55.12
897.81	-30.89
897.981	14.17
898.151	-39.08
898.322	77.65
898.492	8.02
898.662	-10.41
898.832	16.21
899.003	-18.6
899.173	24.4
899.343	-18.6
899.513	-34.99
