Data from USB4F104151__212__14-45-27-148.txt Node

Date: Thu Mar 13 14:45:27 EDT 2025
User: louis
Spectrometer: USB4F10415
Trigger mode: 4
Integration Time (sec): 2.000000E-2
Scans to average: 1
Electric dark correction enabled: true
Nonlinearity correction enabled: false
Boxcar width: 0
XAxis mode: Wavelengths
Number of Pixels in Spectrum: 3648
>>>>>Begin Spectral Data<<<<<
178.204	-23.55
178.424	-23.55
178.644	-23.55
178.864	-97.28
179.084	-48.13
179.304	-3.07
179.524	-39.94
179.744	19.46
179.964	3.07
180.184	68.61
180.404	-23.55
180.624	93.18
180.844	-84.99
181.064	-15.36
181.283	19.46
181.503	-54.27
181.723	17.41
181.943	-9.22
182.163	64.51
182.383	17.41
182.602	11.26
182.822	101.37
183.042	39.94
183.262	37.89
183.482	1.02
183.701	-23.55
183.921	-1.02
184.141	58.37
184.361	128
184.58	111.61
184.8	1.02
185.02	41.98
185.239	39.94
185.459	56.32
185.679	101.37
185.898	-60.42
186.118	17.41
186.338	115.71
186.557	109.57
186.777	17.41
186.997	76.8
187.216	50.18
187.436	107.52
187.655	-29.7
187.875	54.27
188.095	1.02
188.314	78.85
188.534	-21.5
188.753	44.03
188.973	82.94
189.192	76.8
189.412	41.98
189.631	44.03
189.851	99.33
190.07	93.18
190.29	-3.07
190.509	25.6
190.729	19.46
190.948	82.94
191.168	173.05
191.387	13.31
191.607	91.13
191.826	99.33
192.045	87.04
192.265	62.46
192.484	35.84
192.704	95.23
192.923	-3.07
193.142	87.04
193.362	70.65
193.581	78.85
193.8	107.52
194.02	41.98
194.239	54.27
194.458	33.79
194.678	52.22
194.897	66.56
195.116	91.13
195.335	84.99
195.555	95.23
195.774	35.84
195.993	66.56
196.212	35.84
196.432	29.7
196.651	11.26
196.87	37.89
197.089	132.09
197.308	87.04
197.528	101.37
197.747	50.18
197.966	-41.98
198.185	101.37
198.404	62.46
198.623	109.57
198.842	68.61
199.062	44.03
199.281	125.95
199.5	87.04
199.719	9.22
199.938	-44.03
200.157	52.22
200.376	25.6
200.595	78.85
200.814	158.72
201.033	25.6
201.252	99.33
201.471	66.56
201.69	62.46
201.909	46.08
202.128	70.65
202.347	15.36
202.566	41.98
202.785	35.84
203.004	33.79
203.223	123.9
203.442	66.56
203.661	25.6
203.879	125.95
204.098	48.13
204.317	-1.02
204.536	89.09
204.755	78.85
204.974	9.22
205.193	82.94
205.411	117.76
205.63	70.65
205.849	91.13
206.068	62.46
206.287	19.46
206.505	130.05
206.724	78.85
206.943	52.22
207.162	5.12
207.381	37.89
207.599	41.98
207.818	15.36
208.037	29.7
208.255	29.7
208.474	25.6
208.693	103.42
208.911	-5.12
209.13	140.29
209.349	68.61
209.567	82.94
209.786	74.75
210.005	-3.07
210.223	9.22
210.442	1.02
210.661	33.79
210.879	5.12
211.098	41.98
211.316	152.57
211.535	140.29
211.753	13.31
211.972	82.94
212.191	52.22
212.409	35.84
212.628	72.7
212.846	-19.46
213.065	25.6
213.283	76.8
213.502	168.96
213.72	11.26
213.938	62.46
214.157	17.41
214.375	82.94
214.594	33.79
214.812	103.42
215.031	64.51
215.249	25.6
215.467	74.75
215.686	25.6
215.904	91.13
216.122	-13.31
216.341	95.23
216.559	78.85
216.778	82.94
216.996	95.23
217.214	15.36
217.432	62.46
217.651	-7.17
217.869	66.56
218.087	5.12
218.306	25.6
218.524	15.36
218.742	41.98
218.96	166.91
219.179	115.71
219.397	99.33
219.615	107.52
219.833	66.56
220.051	27.65
220.27	62.46
220.488	-15.36
220.706	27.65
220.924	82.94
221.142	60.42
221.36	-29.7
221.578	33.79
221.796	99.33
222.015	91.13
222.233	84.99
222.451	33.79
222.669	58.37
222.887	33.79
223.105	82.94
223.323	41.98
223.541	9.22
223.759	78.85
223.977	-21.5
224.195	9.22
224.413	113.66
224.631	125.95
224.849	48.13
225.067	132.09
225.285	3.07
225.503	19.46
225.721	-33.79
225.939	-23.55
226.157	107.52
226.375	132.09
226.592	33.79
226.81	107.52
227.028	78.85
227.246	146.43
227.464	68.61
227.682	117.76
227.9	33.79
228.117	13.31
228.335	44.03
228.553	54.27
228.771	-37.89
228.989	66.56
229.206	62.46
229.424	21.5
229.642	11.26
229.86	54.27
230.077	117.76
230.295	27.65
230.513	62.46
230.731	31.74
230.948	19.46
231.166	13.31
231.384	-15.36
231.601	7.17
231.819	52.22
232.037	95.23
232.254	17.41
232.472	35.84
232.689	-7.17
232.907	76.8
233.125	56.32
233.342	101.37
233.56	68.61
233.777	68.61
233.995	91.13
234.213	123.9
234.43	41.98
234.648	78.85
234.865	56.32
235.083	74.75
235.3	91.13
235.518	91.13
235.735	148.48
235.953	33.79
236.17	35.84
236.388	125.95
236.605	70.65
236.822	58.37
237.04	130.05
237.257	41.98
237.475	-78.85
237.692	95.23
237.909	70.65
238.127	7.17
238.344	-23.55
238.562	99.33
238.779	58.37
238.996	87.04
239.214	146.43
239.431	54.27
239.648	78.85
239.865	99.33
240.083	132.09
240.3	5.12
240.517	21.5
240.735	37.89
240.952	41.98
241.169	68.61
241.386	52.22
241.603	41.98
241.821	-23.55
242.038	25.6
242.255	35.84
242.472	27.65
242.689	44.03
242.907	-11.26
243.124	70.65
243.341	66.56
243.558	68.61
243.775	-3.07
243.992	17.41
244.209	27.65
244.426	37.89
244.643	62.46
244.86	84.99
245.078	50.18
245.295	13.31
245.512	93.18
245.729	123.9
245.946	41.98
246.163	-7.17
246.38	107.52
246.597	33.79
246.814	54.27
247.031	101.37
247.248	115.71
247.464	82.94
247.681	125.95
247.898	9.22
248.115	64.51
248.332	27.65
248.549	193.53
248.766	72.7
248.983	76.8
249.2	11.26
249.417	66.56
249.633	54.27
249.85	107.52
250.067	1.02
250.284	35.84
250.501	25.6
250.717	-1.02
250.934	37.89
251.151	13.31
251.368	17.41
251.585	41.98
251.801	66.56
252.018	39.94
252.235	82.94
252.451	33.79
252.668	56.32
252.885	117.76
253.102	64.51
253.318	140.29
253.535	37.89
253.752	3.07
253.968	41.98
254.185	5.12
254.401	58.37
254.618	103.42
254.835	54.27
255.051	128
255.268	95.23
255.484	128
255.701	19.46
255.917	50.18
256.134	7.17
256.351	97.28
256.567	-17.41
256.784	-48.13
257	46.08
257.217	52.22
257.433	119.81
257.65	123.9
257.866	82.94
258.082	39.94
258.299	23.55
258.515	11.26
258.732	1.02
258.948	-5.12
259.165	66.56
259.381	41.98
259.597	-3.07
259.814	82.94
260.03	41.98
260.246	41.98
260.463	142.33
260.679	72.7
260.895	-15.36
261.112	58.37
261.328	-7.17
261.544	33.79
261.761	152.57
261.977	25.6
262.193	-15.36
262.409	70.65
262.626	68.61
262.842	46.08
263.058	48.13
263.274	60.42
263.49	89.09
263.707	44.03
263.923	70.65
264.139	29.7
264.355	84.99
264.571	74.75
264.787	52.22
265.004	115.71
265.22	7.17
265.436	76.8
265.652	50.18
265.868	78.85
266.084	84.99
266.3	66.56
266.516	50.18
266.732	1.02
266.948	68.61
267.164	70.65
267.38	140.29
267.596	66.56
267.812	125.95
268.028	97.28
268.244	1.02
268.46	82.94
268.676	97.28
268.892	111.61
269.108	84.99
269.324	66.56
269.54	41.98
269.756	66.56
269.972	31.74
270.188	-7.17
270.403	66.56
270.619	17.41
270.835	87.04
271.051	117.76
271.267	33.79
271.483	82.94
271.698	52.22
271.914	64.51
272.13	5.12
272.346	103.42
272.562	58.37
272.777	46.08
272.993	62.46
273.209	25.6
273.425	70.65
273.64	35.84
273.856	91.13
274.072	50.18
274.287	1.02
274.503	19.46
274.719	91.13
274.934	66.56
275.15	82.94
275.366	39.94
275.581	25.6
275.797	-31.74
276.012	37.89
276.228	44.03
276.444	17.41
276.659	113.66
276.875	41.98
277.09	66.56
277.306	64.51
277.521	50.18
277.737	78.85
277.952	109.57
278.168	-5.12
278.383	82.94
278.599	82.94
278.814	15.36
279.03	109.57
279.245	41.98
279.461	27.65
279.676	33.79
279.892	-58.37
280.107	27.65
280.322	74.75
280.538	117.76
280.753	68.61
280.969	95.23
281.184	70.65
281.399	115.71
281.615	66.56
281.83	58.37
282.045	13.31
282.26	-15.36
282.476	91.13
282.691	60.42
282.906	-7.17
283.122	41.98
283.337	41.98
283.552	56.32
283.767	27.65
283.983	93.18
284.198	52.22
284.413	41.98
284.628	46.08
284.843	138.24
285.058	44.03
285.274	125.95
285.489	62.46
285.704	50.18
285.919	87.04
286.134	107.52
286.349	82.94
286.564	91.13
286.779	107.52
286.995	76.8
287.21	23.55
287.425	125.95
287.64	33.79
287.855	25.6
288.07	7.17
288.285	13.31
288.5	95.23
288.715	33.79
288.93	-17.41
289.145	84.99
289.36	76.8
289.575	70.65
289.79	33.79
290.004	-19.46
290.219	37.89
290.434	-23.55
290.649	25.6
290.864	-11.26
291.079	25.6
291.294	21.5
291.509	132.09
291.724	41.98
291.938	60.42
292.153	19.46
292.368	41.98
292.583	13.31
292.798	9.22
293.012	87.04
293.227	76.8
293.442	91.13
293.657	91.13
293.871	33.79
294.086	76.8
294.301	97.28
294.516	132.09
294.73	31.74
294.945	3.07
295.16	60.42
295.374	128
295.589	168.96
295.804	15.36
296.018	19.46
296.233	91.13
296.447	84.99
296.662	3.07
296.877	62.46
297.091	70.65
297.306	84.99
297.52	13.31
297.735	68.61
297.949	91.13
298.164	44.03
298.378	33.79
298.593	33.79
298.807	33.79
299.022	99.33
299.236	-7.17
299.451	41.98
299.665	17.41
299.88	9.22
300.094	1.02
300.309	80.89
300.523	93.18
300.737	72.7
300.952	115.71
301.166	76.8
301.381	74.75
301.595	68.61
301.809	107.52
302.024	66.56
302.238	41.98
302.452	123.9
302.667	29.7
302.881	80.89
303.095	46.08
303.309	44.03
303.524	50.18
303.738	5.12
303.952	19.46
304.166	50.18
304.381	-15.36
304.595	125.95
304.809	-66.56
305.023	62.46
305.237	50.18
305.452	82.94
305.666	101.37
305.88	91.13
306.094	17.41
306.308	62.46
306.522	68.61
306.736	50.18
306.95	54.27
307.164	5.12
307.379	-5.12
307.593	50.18
307.807	93.18
308.021	76.8
308.235	56.32
308.449	56.32
308.663	-39.94
308.877	103.42
309.091	62.46
309.305	58.37
309.519	13.31
309.733	125.95
309.947	54.27
310.161	31.74
310.374	99.33
310.588	130.05
310.802	-5.12
311.016	54.27
311.23	-37.89
311.444	41.98
311.658	84.99
311.872	64.51
312.085	109.57
312.299	21.5
312.513	91.13
312.727	58.37
312.941	52.22
313.154	115.71
313.368	58.37
313.582	74.75
313.796	76.8
314.009	144.38
314.223	54.27
314.437	82.94
314.651	105.47
314.864	62.46
315.078	52.22
315.292	58.37
315.505	95.23
315.719	66.56
315.933	52.22
316.146	66.56
316.36	5.12
316.573	89.09
316.787	35.84
317.001	54.27
317.214	33.79
317.428	50.18
317.641	80.89
317.855	25.6
318.068	37.89
318.282	52.22
318.495	91.13
318.709	82.94
318.922	39.94
319.136	56.32
319.349	33.79
319.563	52.22
319.776	3.07
319.99	17.41
320.203	46.08
320.417	91.13
320.63	91.13
320.843	58.37
321.057	17.41
321.27	82.94
321.483	62.46
321.697	107.52
321.91	11.26
322.124	37.89
322.337	13.31
322.55	41.98
322.763	-15.36
322.977	33.79
323.19	78.85
323.403	140.29
323.617	50.18
323.83	29.7
324.043	-3.07
324.256	48.13
324.469	64.51
324.683	82.94
324.896	5.12
325.109	29.7
325.322	39.94
325.535	89.09
325.748	50.18
325.962	107.52
326.175	74.75
326.388	91.13
326.601	142.33
326.814	60.42
327.027	25.6
327.24	97.28
327.453	3.07
327.666	140.29
327.879	54.27
328.092	107.52
328.305	76.8
328.518	54.27
328.731	107.52
328.944	80.89
329.157	68.61
329.37	70.65
329.583	128
329.796	99.33
330.009	84.99
330.222	134.14
330.435	107.52
330.648	56.32
330.861	25.6
331.073	89.09
331.286	136.19
331.499	50.18
331.712	37.89
331.925	19.46
332.138	25.6
332.35	82.94
332.563	50.18
332.776	27.65
332.989	25.6
333.202	95.23
333.414	52.22
333.627	52.22
333.84	93.18
334.053	17.41
334.265	101.37
334.478	25.6
334.691	37.89
334.903	44.03
335.116	1.02
335.329	15.36
335.541	80.89
335.754	82.94
335.966	74.75
336.179	48.13
336.392	33.79
336.604	66.56
336.817	50.18
337.029	46.08
337.242	68.61
337.454	72.7
337.667	68.61
337.88	89.09
338.092	89.09
338.305	13.31
338.517	27.65
338.729	78.85
338.942	105.47
339.154	66.56
339.367	46.08
339.579	87.04
339.792	-60.42
340.004	76.8
340.217	66.56
340.429	46.08
340.641	41.98
340.854	78.85
341.066	66.56
341.278	44.03
341.491	140.29
341.703	41.98
341.915	-9.22
342.128	162.81
342.34	68.61
342.552	21.5
342.764	50.18
342.977	82.94
343.189	62.46
343.401	25.6
343.613	35.84
343.826	9.22
344.038	84.99
344.25	84.99
344.462	52.22
344.674	173.05
344.886	58.37
345.099	115.71
345.311	91.13
345.523	44.03
345.735	-19.46
345.947	113.66
346.159	99.33
346.371	78.85
346.583	31.74
346.795	132.09
347.007	91.13
347.219	33.79
347.431	89.09
347.643	37.89
347.855	52.22
348.067	123.9
348.279	-39.94
348.491	52.22
348.703	87.04
348.915	41.98
349.127	82.94
349.339	-3.07
349.551	11.26
349.763	121.85
349.975	41.98
350.187	95.23
350.399	93.18
350.61	84.99
350.822	115.71
351.034	93.18
351.246	31.74
351.458	41.98
351.669	76.8
351.881	46.08
352.093	117.76
352.305	74.75
352.517	58.37
352.728	99.33
352.94	48.13
353.152	74.75
353.363	119.81
353.575	68.61
353.787	54.27
353.999	134.14
354.21	132.09
354.422	7.17
354.633	41.98
354.845	78.85
355.057	50.18
355.268	35.84
355.48	84.99
355.692	91.13
355.903	74.75
356.115	-11.26
356.326	5.12
356.538	41.98
356.749	105.47
356.961	82.94
357.172	-17.41
357.384	25.6
357.595	148.48
357.807	-11.26
358.018	66.56
358.23	117.76
358.441	115.71
358.653	46.08
358.864	64.51
359.075	31.74
359.287	95.23
359.498	115.71
359.709	50.18
359.921	74.75
360.132	74.75
360.344	33.79
360.555	52.22
360.766	15.36
360.977	68.61
361.189	134.14
361.4	23.55
361.611	99.33
361.823	146.43
362.034	66.56
362.245	11.26
362.456	132.09
362.667	76.8
362.879	27.65
363.09	33.79
363.301	58.37
363.512	41.98
363.723	99.33
363.935	82.94
364.146	76.8
364.357	66.56
364.568	117.76
364.779	15.36
364.99	111.61
365.201	-5.12
365.412	37.89
365.623	87.04
365.834	111.61
366.045	70.65
366.256	80.89
366.467	138.24
366.678	111.61
366.889	152.57
367.1	41.98
367.311	142.33
367.522	52.22
367.733	87.04
367.944	60.42
368.155	66.56
368.366	91.13
368.577	99.33
368.788	58.37
368.999	37.89
369.209	21.5
369.42	134.14
369.631	50.18
369.842	-3.07
370.053	68.61
370.264	93.18
370.474	41.98
370.685	70.65
370.896	93.18
371.107	95.23
371.317	82.94
371.528	95.23
371.739	68.61
371.95	87.04
372.16	107.52
372.371	62.46
372.582	87.04
372.792	41.98
373.003	58.37
373.214	107.52
373.424	84.99
373.635	105.47
373.846	119.81
374.056	41.98
374.267	58.37
374.477	99.33
374.688	107.52
374.898	89.09
375.109	74.75
375.319	9.22
375.53	136.19
375.74	33.79
375.951	107.52
376.161	76.8
376.372	52.22
376.582	-11.26
376.793	115.71
377.003	1.02
377.214	60.42
377.424	91.13
377.635	91.13
377.845	41.98
378.055	158.72
378.266	50.18
378.476	84.99
378.686	41.98
378.897	150.53
379.107	91.13
379.317	19.46
379.528	84.99
379.738	78.85
379.948	27.65
380.158	148.48
380.369	91.13
380.579	123.9
380.789	95.23
380.999	134.14
381.21	60.42
381.42	160.77
381.63	50.18
381.84	148.48
382.05	80.89
382.261	156.67
382.471	66.56
382.681	76.8
382.891	119.81
383.101	46.08
383.311	70.65
383.521	134.14
383.731	84.99
383.941	60.42
384.151	91.13
384.361	50.18
384.571	52.22
384.781	115.71
384.991	76.8
385.201	78.85
385.411	52.22
385.621	58.37
385.831	109.57
386.041	80.89
386.251	95.23
386.461	132.09
386.671	3.07
386.881	68.61
387.091	91.13
387.301	189.44
387.511	74.75
387.72	134.14
387.93	66.56
388.14	35.84
388.35	107.52
388.56	164.86
388.769	58.37
388.979	119.81
389.189	52.22
389.399	27.65
389.609	101.37
389.818	82.94
390.028	148.48
390.238	109.57
390.447	50.18
390.657	150.53
390.867	58.37
391.076	111.61
391.286	80.89
391.496	119.81
391.705	134.14
391.915	99.33
392.125	82.94
392.334	99.33
392.544	140.29
392.753	74.75
392.963	25.6
393.172	101.37
393.382	50.18
393.591	76.8
393.801	74.75
394.01	146.43
394.22	41.98
394.429	117.76
394.639	29.7
394.848	99.33
395.058	140.29
395.267	50.18
395.477	132.09
395.686	193.53
395.895	142.33
396.105	171.01
396.314	66.56
396.524	58.37
396.733	97.28
396.942	125.95
397.152	31.74
397.361	113.66
397.57	91.13
397.78	130.05
397.989	148.48
398.198	177.15
398.407	74.75
398.617	123.9
398.826	84.99
399.035	107.52
399.244	103.42
399.453	13.31
399.663	105.47
399.872	175.1
400.081	33.79
400.29	95.23
400.499	93.18
400.708	111.61
400.917	89.09
401.127	115.71
401.336	183.29
401.545	144.38
401.754	146.43
401.963	164.86
402.172	123.9
402.381	74.75
402.59	123.9
402.799	95.23
403.008	142.33
403.217	132.09
403.426	201.72
403.635	37.89
403.844	91.13
404.053	84.99
404.262	107.52
404.471	177.15
404.68	168.96
404.888	99.33
405.097	103.42
405.306	201.72
405.515	189.44
405.724	197.63
405.933	156.67
406.142	197.63
406.35	205.82
406.559	164.86
406.768	140.29
406.977	207.87
407.185	300.03
407.394	234.49
407.603	99.33
407.812	224.25
408.02	222.2
408.229	304.12
408.438	226.3
408.646	140.29
408.855	214.01
409.064	273.4
409.272	197.63
409.481	340.99
409.69	199.68
409.898	320.51
410.107	304.12
410.315	238.59
410.524	330.75
410.733	254.97
410.941	273.4
411.15	396.28
411.358	314.36
411.567	281.6
411.775	386.04
411.984	418.81
412.192	422.91
412.401	388.09
412.609	439.29
412.818	455.67
413.026	445.43
413.234	402.43
413.443	470.01
413.651	504.82
413.86	402.43
414.068	519.16
414.276	553.98
414.485	560.12
414.693	521.21
414.901	545.78
415.11	642.04
415.318	517.11
415.526	660.47
415.734	664.57
415.943	728.05
416.151	715.77
416.359	664.57
416.567	707.57
416.776	736.24
416.984	828.4
417.192	877.55
417.4	828.4
417.608	840.69
417.817	879.6
418.025	951.28
418.233	1100.78
418.441	967.67
418.649	1012.72
418.857	1070.06
419.065	1104.88
419.273	1084.4
419.481	1061.87
419.689	1229.81
419.897	1188.85
420.105	1250.28
420.313	1332.2
420.521	1276.91
420.729	1344.49
420.937	1422.31
421.145	1457.13
421.353	1506.28
421.561	1676.26
421.769	1606.63
421.977	1651.69
422.185	1764.33
422.393	1797.09
422.601	1887.2
422.809	1862.63
423.017	1883.11
423.224	2024.42
423.432	2063.33
423.64	2073.57
423.848	2302.94
424.056	2155.49
424.263	2350.04
424.471	2266.08
424.679	2388.96
424.887	2540.51
425.094	2597.85
425.302	2616.28
425.51	2724.82
425.718	2765.78
425.925	2788.31
426.133	2919.38
426.341	3023.83
426.548	3183.57
426.756	3253.2
426.964	3158.99
427.171	3578.83
427.379	3539.91
427.586	3531.72
427.794	3611.59
428.001	3820.49
428.209	3892.16
428.417	3941.32
428.624	4336.57
428.832	4203.46
429.039	4244.42
429.247	4223.94
429.454	4555.71
429.662	4787.13
429.869	4551.61
430.076	4965.3
430.284	4717.5
430.491	4953.01
430.699	5190.58
430.906	5227.44
431.114	5344.17
431.321	5536.68
431.528	5659.56
431.736	5895.08
431.943	6185.89
432.15	6058.92
432.358	6126.5
432.565	6464.41
432.772	6456.22
432.979	6771.61
433.187	6857.62
433.394	6892.44
433.601	7271.31
433.808	7277.46
434.016	7279.5
434.223	7750.54
434.43	8141.7
434.637	8047.49
434.844	8352.64
435.052	8467.33
435.259	8489.85
435.466	8504.19
435.673	8672.12
435.88	9053.05
436.087	9472.88
436.294	9532.27
436.501	9339.76
436.708	9636.72
436.915	9861.99
437.122	10109.8
437.329	10173.28
437.537	10492.77
437.743	10732.38
437.95	10654.56
438.157	11166.55
438.364	11555.66
438.571	11645.77
438.778	11723.6
438.985	12501.83
439.192	12002.12
439.399	12503.87
439.606	12272.45
439.813	12995.39
440.02	13687.6
440.227	13609.78
440.433	13447.99
440.64	13699.89
440.847	13898.54
441.054	14107.43
441.261	15184.66
441.467	14793.5
441.674	15184.66
441.881	15895.31
442.088	15590.16
442.294	15246.1
442.501	15948.56
442.708	16306.95
442.914	16552.71
443.121	17636.08
443.328	17011.45
443.534	18279.15
443.741	17707.76
443.948	17406.71
444.154	18739.94
444.361	18477.8
444.568	18811.62
444.774	18647.78
444.981	18891.49
445.187	19514.07
445.394	20110.03
445.6	20036.3
445.807	21748.4
446.013	20894.4
446.22	21596.85
446.426	22237.87
446.633	22418.09
446.839	23323.29
447.046	22244.01
447.252	23513.75
447.459	23472.79
447.665	23163.55
447.871	24435.34
448.078	25709.18
448.284	24218.25
448.491	24705.67
448.697	25911.92
448.903	26354.29
449.11	26108.53
449.316	26163.82
449.522	26342
449.728	27320.93
449.935	27595.35
450.141	27538.01
450.347	27884.12
450.553	27488.86
450.76	27605.59
450.966	28262.99
451.172	28287.57
451.378	28852.81
451.584	28351.06
451.791	29350.46
451.997	29100.61
452.203	29305.41
452.409	29508.16
452.615	29405.76
452.821	28056.15
453.027	28025.43
453.233	29624.89
453.44	28201.55
453.646	28912.2
453.852	29016.65
454.058	29186.63
454.264	28418.64
454.47	29153.86
454.676	28033.62
454.882	29340.22
455.088	26911.33
455.294	27167.33
455.5	27902.55
455.705	27669.08
455.911	26597.99
456.117	26677.86
456.323	25778.81
456.529	24705.67
456.735	25743.99
456.941	24933
457.147	24732.29
457.352	23804.56
457.558	23669.4
457.764	24093.33
457.97	23501.47
458.176	23032.48
458.381	22667.94
458.587	21459.64
458.793	21775.03
458.999	20742.85
459.204	22297.26
459.41	21627.57
459.616	20181.71
459.821	20105.93
460.027	20046.54
460.233	19503.83
460.438	18850.53
460.644	18828
460.85	18148.08
461.055	17728.24
461.261	17947.37
461.466	16407.3
461.672	16055.05
461.878	16896.77
462.083	15926.03
462.289	15559.44
462.494	15268.63
462.7	14699.3
462.905	14320.42
463.111	14900
463.316	15010.59
463.522	14557.99
463.727	14533.41
463.932	14529.31
464.138	14437.16
464.343	14492.45
464.549	14095.14
464.754	14770.97
464.959	14396.2
465.165	14345
465.37	13536.05
465.575	13206.33
465.781	13693.74
465.986	13892.4
466.191	13587.25
466.397	13284.15
466.602	12526.4
466.807	12958.52
467.012	13237.05
467.218	12870.46
467.423	12579.65
467.628	12876.6
467.833	13257.53
468.038	12839.74
468.244	12532.54
468.449	13095.74
468.654	12612.42
468.859	12696.38
469.064	12321.6
469.269	11852.62
469.474	12151.62
469.679	12294.98
469.885	11936.59
470.09	12229.45
470.295	12022.6
470.5	11860.81
470.705	11516.75
470.91	11651.92
471.115	11494.22
471.32	11731.79
471.525	11660.11
471.73	11342.67
471.935	11307.86
472.139	10898.27
472.344	11121.49
472.549	11047.77
472.754	10689.37
472.959	10679.13
473.164	10382.18
473.369	10449.76
473.574	10548.06
473.778	10431.33
473.983	10369.89
474.188	10206.05
474.393	10089.32
474.598	9898.86
474.802	10060.65
475.007	9800.55
475.212	9798.51
475.417	9454.45
475.621	9540.46
475.826	9581.42
476.031	9460.59
476.235	9180.02
476.44	9317.23
476.645	8993.65
476.849	9104.25
477.054	8936.31
477.259	8782.71
477.463	8964.98
477.668	8741.75
477.872	8526.72
478.077	8573.82
478.282	8207.23
478.486	8338.3
478.691	8567.68
478.895	8227.71
479.1	8203.14
479.304	8143.75
479.509	8024.97
479.713	8098.69
479.918	7840.65
480.122	7740.3
480.326	7775.11
480.531	7838.6
480.735	7906.18
480.94	7627.66
481.144	8041.35
481.348	7693.19
481.553	7836.55
481.757	7560.08
481.961	7594.89
482.166	7865.22
482.37	7760.78
482.574	7644.04
482.778	7603.08
482.983	7832.46
483.187	7523.21
483.391	7764.87
483.595	7445.39
483.8	7424.91
484.004	7465.87
484.208	7748.49
484.412	7613.32
484.616	7433.1
484.821	7637.9
485.025	7545.74
485.229	7480.21
485.433	7586.7
485.637	7650.19
485.841	7490.45
486.045	7474.06
486.249	7553.93
486.453	7582.6
486.657	7635.85
486.861	7472.01
487.065	7449.49
487.269	7498.64
487.473	7365.52
487.677	7664.52
487.881	7648.14
488.085	7740.3
488.289	7539.6
488.493	7533.45
488.697	7795.59
488.901	7541.64
489.105	7533.45
489.309	7576.46
489.512	7705.48
489.716	7486.35
489.92	7670.67
490.124	7734.15
490.328	7934.85
490.531	7662.48
490.735	7906.18
490.939	7836.55
491.143	7895.94
491.346	7728.01
491.55	7910.28
491.754	7721.87
491.958	7979.91
492.161	7930.76
492.365	8108.93
492.569	7889.8
492.772	8020.87
492.976	8063.88
493.18	8135.56
493.383	8168.32
493.587	8227.71
493.79	8301.44
493.994	8147.84
494.197	8344.45
494.401	8397.7
494.605	8137.6
494.808	8584.06
495.012	8528.77
495.215	8668.03
495.419	8618.88
495.622	8440.7
495.825	8739.71
496.029	8676.22
496.232	9169.78
496.436	8979.32
496.639	9065.33
496.843	9124.72
497.046	9462.64
497.249	9421.68
497.453	9452.4
497.656	9200.5
497.859	9636.72
498.063	9646.96
498.266	9823.08
498.469	9671.53
498.673	9751.4
498.876	10191.72
499.079	9995.11
499.282	10070.89
499.485	10255.2
499.689	10535.78
499.892	10748.76
500.095	10693.47
500.298	10953.56
500.501	10738.52
500.705	10922.84
500.908	11137.88
501.111	11389.78
501.314	11350.87
501.517	11393.87
501.72	11739.98
501.923	11445.07
502.126	11717.45
502.329	11989.83
502.532	12114.76
502.735	12161.86
502.938	12450.63
503.141	12403.52
503.344	12684.09
503.547	12815.16
503.75	12852.03
503.953	13038.39
504.156	13155.13
504.359	13210.42
504.562	13337.4
504.765	13773.61
504.968	13699.89
505.17	13773.61
505.373	14043.95
505.576	14136.1
505.779	14263.08
505.982	14293.8
506.185	14787.36
506.387	14953.24
506.59	14918.43
506.793	15330.07
506.996	15274.77
507.198	15598.35
507.401	15379.22
507.604	15536.91
507.807	16055.05
508.009	16114.44
508.212	16245.51
508.415	16534.28
508.617	16702.21
508.82	16796.42
509.022	16630.53
509.225	17175.29
509.428	17253.11
509.63	17296.12
509.833	17316.6
510.035	17826.54
510.238	17810.16
510.44	18043.63
510.643	18232.04
510.845	18479.85
511.048	18463.46
511.25	18674.4
511.453	18569.96
511.655	19473.11
511.858	18860.77
512.06	19069.66
512.262	19563.22
512.465	19671.76
512.667	20015.82
512.87	20275.91
513.072	20701.89
513.274	20644.55
513.477	20761.28
513.679	20837.06
513.881	21234.36
514.084	21162.69
514.286	21482.17
514.488	21555.9
514.69	21988.02
514.893	21969.58
515.095	22031.02
515.297	22657.7
515.499	22661.8
515.701	23036.58
515.904	23159.45
516.106	23378.59
516.308	23816.85
516.51	23769.75
516.712	23759.51
516.914	24203.92
517.116	24447.63
517.318	24547.98
517.52	24820.36
517.722	24670.86
517.925	25129.6
518.127	25299.58
518.329	25729.66
518.531	25348.73
518.733	26120.82
518.935	26389.1
519.136	26325.61
519.338	26739.3
519.54	26800.74
519.742	27009.64
519.944	27011.68
520.146	27677.27
520.348	27740.76
520.55	27896.41
520.752	28070.48
520.954	28293.71
521.155	28299.86
521.357	28824.14
521.559	28248.66
521.761	29098.56
521.963	29020.74
522.164	29563.45
522.366	29487.68
522.568	29801.02
522.77	29606.46
522.971	30394.93
523.173	30169.65
523.375	30612.01
523.576	30687.79
523.778	30693.93
523.98	31369.76
524.181	31185.44
524.383	31349.28
524.584	31218.21
524.786	31482.4
524.988	31537.69
525.189	31853.08
525.391	32287.25
525.592	32367.12
525.794	32270.87
525.995	32055.83
526.197	32512.53
526.398	32891.4
526.6	32750.09
526.801	33049.1
527.003	32930.31
527.204	33061.38
527.406	33182.21
527.607	33786.36
527.808	33587.71
528.01	33180.17
528.211	33620.48
528.412	34238.97
528.614	34011.64
528.815	33729.02
529.016	34437.62
529.218	33987.07
529.419	34152.95
529.62	34439.67
529.822	34189.81
530.023	34185.72
530.224	34607.6
530.425	34580.98
530.626	34212.34
530.828	34265.59
531.029	35107.3
531.23	34646.51
531.431	34632.18
531.632	34673.13
531.833	34650.61
532.035	34843.12
532.236	35211.75
532.437	35074.54
532.638	35015.15
532.839	35133.93
533.04	35205.61
533.241	34773.49
533.442	35154.41
533.643	35000.81
533.844	34755.05
534.045	35287.53
534.246	34832.88
534.447	34968.04
534.648	35140.07
534.849	35265
535.05	34894.32
535.251	35412.45
535.451	35000.81
535.652	35195.37
535.853	34775.53
536.054	35217.89
536.255	35060.2
536.456	34765.29
536.657	35459.55
536.857	35334.63
537.058	34986.47
537.259	35119.59
537.46	35385.83
537.66	35052.01
537.861	35410.4
538.062	34906.6
538.263	35256.81
538.463	34922.99
538.664	35217.89
538.865	35330.53
539.065	35410.4
539.266	34783.73
539.466	35412.45
539.667	34773.49
539.868	35486.18
540.068	35025.39
540.269	35267.05
540.469	35359.2
540.67	34916.84
540.87	35043.82
541.071	35217.89
541.271	35351.01
541.472	34972.14
541.672	35058.15
541.873	34961.9
542.073	34681.33
542.274	35195.37
542.474	34957.8
542.675	34978.28
542.875	35066.34
543.075	34912.75
543.276	34447.86
543.476	35066.34
543.676	34603.5
543.877	34910.7
544.077	34828.78
544.277	35066.34
544.478	34869.74
544.678	34779.63
544.878	34869.74
545.078	35107.3
545.279	34791.92
545.479	34599.41
545.679	35009
545.879	34632.18
546.079	35023.34
546.28	34556.4
546.48	34492.91
546.68	35021.29
546.88	35205.61
547.08	35166.7
547.28	34845.16
547.48	34488.82
547.68	34808.3
547.88	34036.22
548.081	34888.17
548.281	34634.22
548.481	34642.42
548.681	35176.94
548.881	34839.02
549.081	34664.94
549.28	34656.75
549.48	34796.01
549.68	34689.52
549.88	34734.57
550.08	34431.47
550.28	34599.41
550.48	34560.5
550.68	34826.73
550.88	34626.03
551.08	34243.06
551.279	34529.78
551.479	34290.16
551.679	34427.38
551.879	34630.13
552.079	34552.3
552.278	33982.97
552.478	34650.61
552.678	34720.24
552.878	34611.7
553.077	34740.72
553.277	34140.66
553.477	34968.04
553.676	34257.4
553.876	34335.22
554.076	34357.75
554.275	34056.7
554.475	33921.53
554.674	34314.74
554.874	34265.59
555.074	34075.13
555.273	34396.66
555.473	34073.08
555.672	34058.74
555.872	34048.5
556.071	33815.04
556.271	34312.69
556.47	33800.7
556.67	33649.15
556.869	33585.66
557.068	33960.44
557.268	33694.21
557.467	33585.66
557.667	33989.11
557.866	33247.75
558.065	33585.66
558.265	33798.65
558.464	33561.09
558.663	33679.87
558.863	33204.74
559.062	33579.52
559.261	33120.77
559.461	33550.85
559.66	32657.93
559.859	33219.08
560.058	33036.81
560.258	33544.7
560.457	32813.58
560.656	33350.15
560.855	33276.42
561.054	33049.1
561.253	32936.46
561.453	32883.21
561.652	33159.69
561.851	33034.76
562.05	32731.66
562.249	32455.18
562.448	33255.94
562.647	32727.56
562.846	32430.61
563.045	32655.89
563.244	32324.11
563.443	32889.35
563.642	32051.73
563.841	32485.9
564.04	31642.14
564.239	32363.03
564.438	31926.81
564.637	32102.93
564.836	32268.82
565.035	31390.24
565.234	31914.52
565.432	31881.75
565.631	31754.78
565.83	31842.84
566.029	31775.26
566.228	31658.52
566.427	31824.41
566.625	31588.89
566.824	31228.45
567.023	31517.22
567.222	30880.3
567.42	31453.73
567.619	31158.82
567.818	30921.26
568.016	30757.42
568.215	31408.67
568.414	30874.15
568.612	31459.87
568.811	30741.03
569.01	30781.99
569.208	30476.85
569.407	31121.96
569.605	30247.47
569.804	30597.68
570.002	30089.78
570.201	30784.04
570.4	30327.35
570.598	30183.99
570.797	30028.34
570.995	29981.24
571.193	29848.12
571.392	30081.59
571.59	29327.94
571.789	29614.65
571.987	29624.89
572.186	29594.17
572.384	29219.39
572.582	29383.23
572.781	29536.83
572.979	29039.17
573.177	29313.6
573.376	29489.73
573.574	28979.78
573.772	29266.5
573.971	29274.69
574.169	28676.68
574.367	28668.49
574.565	29067.84
574.763	28330.58
574.962	28832.33
575.16	28330.58
575.358	28627.53
575.556	28027.48
575.754	28627.53
575.952	28209.75
576.151	28586.57
576.349	27781.72
576.547	28097.11
576.745	28025.43
576.943	27718.23
577.141	27593.31
577.339	27990.61
577.537	27837.02
577.735	27705.95
577.933	27566.68
578.131	27906.65
578.329	27335.26
578.527	27372.13
578.725	27286.11
578.923	27624.03
579.121	26944.1
579.319	27165.28
579.516	27222.62
579.714	27251.3
579.912	26956.39
580.11	26894.95
580.308	26690.15
580.506	26731.11
580.704	26753.64
580.901	26573.42
581.099	26733.16
581.297	26321.52
581.495	26327.66
581.692	26210.93
581.89	26073.71
582.088	26464.88
582.285	26180.21
582.483	26045.04
582.681	26151.54
582.878	26065.52
583.076	25555.58
583.274	26018.42
583.471	25490.04
583.669	25442.94
583.866	25168.51
584.064	25528.95
584.262	25238.14
584.459	25539.19
584.657	25617.02
584.854	25283.2
585.052	24767.11
585.249	25109.12
585.447	25297.53
585.644	24814.21
585.841	25270.91
586.039	24883.84
586.236	24574.6
586.434	24664.71
586.631	24885.89
586.828	24724.1
587.026	24722.05
587.223	24916.61
587.42	24429.2
587.618	24334.99
587.815	24158.86
588.012	23851.67
588.21	23933.59
588.407	24205.97
588.604	23900.82
588.801	23911.06
588.999	23788.18
589.196	23618.2
589.393	23954.07
589.59	23550.62
589.787	23575.19
589.984	23444.12
590.182	23417.5
590.379	23693.97
590.576	22995.62
590.773	23384.73
590.97	23102.11
591.167	23263.9
591.364	22897.31
591.561	23196.32
591.758	22645.41
591.955	23052.96
592.152	22686.37
592.349	22530.73
592.546	22893.22
592.743	22592.17
592.94	22325.93
593.137	22489.77
593.334	22426.28
593.531	22016.69
593.727	22344.36
593.924	22385.32
594.121	21934.77
594.318	22135.47
594.515	21910.19
594.712	21832.37
594.908	21842.61
595.105	21787.32
595.302	21410.49
595.499	21658.29
595.696	21697.2
595.892	21334.71
596.089	21492.41
596.286	21719.73
596.482	21250.75
596.679	21371.58
596.876	21236.41
597.072	21031.62
597.269	21332.67
597.466	21015.23
597.662	20818.63
597.859	20900.55
598.055	20667.08
598.252	20708.04
598.448	20628.17
598.645	20720.32
598.841	20783.81
599.038	20521.67
599.234	20669.12
599.431	20325.07
599.627	20357.83
599.824	20572.87
600.02	20107.98
600.217	20368.07
600.413	20329.16
600.609	20169.42
600.806	19962.58
601.002	20134.6
601.198	19755.73
601.395	19653.33
601.591	19811.03
601.787	19784.4
601.984	19677.91
602.18	19671.76
602.376	19522.26
602.572	19352.28
602.769	19378.9
602.965	19208.92
603.161	19401.43
603.357	19219.16
603.553	19165.92
603.75	19247.83
603.946	18881.25
604.142	19182.3
604.338	18811.62
604.534	19315.42
604.73	18531.05
604.926	18596.58
605.122	18690.79
605.318	18494.18
605.514	18479.85
605.71	18594.53
605.906	18522.85
606.102	18711.27
606.298	18565.86
606.494	18332.39
606.69	18434.79
606.886	18287.34
607.082	18229.99
607.278	18365.16
607.474	17916.65
607.67	18465.51
607.866	17980.14
608.062	18100.97
608.257	18057.96
608.453	17916.65
608.649	17822.45
608.845	17877.74
609.041	17844.98
609.236	17941.23
609.432	17603.32
609.628	17654.51
609.824	17674.99
610.019	17527.54
610.215	17687.28
610.411	17629.94
610.606	17441.53
610.802	17697.52
610.998	17369.85
611.193	17818.35
611.389	17076.99
611.584	17314.55
611.78	17279.74
611.976	17292.02
612.171	17541.88
612.367	17253.11
612.562	16954.11
612.758	16782.08
612.953	16892.67
613.149	17148.67
613.344	17119.99
613.539	17191.67
613.735	17048.32
613.93	16976.64
614.126	16644.87
614.321	16950.01
614.517	17042.17
614.712	16892.67
614.907	16833.28
615.103	16890.62
615.298	16550.66
615.493	16646.91
615.688	16507.65
615.884	16724.74
616.079	16519.94
616.274	16673.54
616.47	16558.85
616.665	16472.84
616.86	16311.05
617.055	16265.99
617.25	16263.94
617.445	16519.94
617.641	16110.35
617.836	16184.07
618.031	15983.37
618.226	16268.04
618.421	15586.07
618.616	16063.24
618.811	15665.94
619.006	15993.61
619.201	15575.83
619.396	15831.82
619.591	15481.62
619.786	15835.92
619.981	15569.68
620.176	15663.89
620.371	15278.87
620.566	15219.48
620.761	15242.01
620.956	15338.26
621.151	15188.76
621.346	15123.23
621.541	14990.11
621.735	15278.87
621.93	14707.49
622.125	14658.34
622.32	14795.55
622.515	14637.86
622.709	14508.83
622.904	14500.64
623.099	14426.92
623.294	14406.44
623.488	14224.17
623.683	14054.19
623.878	14263.08
624.072	14197.54
624.267	14115.62
624.462	13873.96
624.656	13904.68
624.851	13710.13
625.046	13574.96
625.24	13615.92
625.435	13460.27
625.629	13574.96
625.824	13501.23
626.018	13333.3
626.213	13099.83
626.407	13306.68
626.602	13085.5
626.796	13161.27
626.991	13191.99
627.185	13015.87
627.38	12952.38
627.574	13030.2
627.768	12626.75
627.963	12690.24
628.157	12610.37
628.352	12528.45
628.546	12421.95
628.74	12342.08
628.935	12272.45
629.129	12276.55
629.323	12090.18
629.517	11942.73
629.712	12108.62
629.906	11899.72
630.1	11838.28
630.294	11772.75
630.489	11780.94
630.683	11889.48
630.877	11400.02
631.071	11604.81
631.265	11758.41
631.459	11477.84
631.653	11541.33
631.848	11379.54
632.042	11281.24
632.236	11445.07
632.43	11301.72
632.624	11111.25
632.818	11015
633.012	11168.6
633.206	10937.18
633.4	11029.34
633.594	10709.85
633.788	10904.41
633.982	10683.23
634.176	10642.27
634.369	10613.6
634.563	10607.45
634.757	10716
634.951	10371.94
635.145	10402.66
635.339	10371.94
635.533	10019.69
635.726	10361.7
635.92	9825.13
636.114	10179.43
636.308	10068.84
636.501	10079.08
636.695	10085.22
636.889	9751.4
637.083	9767.79
637.276	9649
637.47	9847.66
637.664	9749.36
637.857	9847.66
638.051	9765.74
638.244	9499.5
638.438	9732.97
638.632	9413.49
638.825	9350
639.019	9350
639.212	9245.55
639.406	9233.27
639.599	9102.2
639.793	9255.79
639.986	9108.34
640.18	9106.29
640.373	8862.58
640.567	9149.3
640.76	8856.44
640.954	8676.22
641.147	8612.73
641.34	8717.18
641.534	8930.17
641.727	8663.93
641.92	8594.3
642.114	8403.84
642.307	8579.97
642.5	8647.55
642.694	8405.89
642.887	8463.23
643.08	8569.73
643.273	8270.72
643.467	8127.36
643.66	8205.19
643.853	8192.9
644.046	8078.21
644.239	8231.81
644.432	8004.49
644.626	8039.3
644.819	7893.9
645.012	8070.02
645.205	7791.5
645.398	7930.76
645.591	7713.67
645.784	7766.92
645.977	7740.3
646.17	7670.67
646.363	7570.32
646.556	7531.41
646.749	7525.26
646.942	7615.37
647.135	7535.5
647.328	7601.04
647.521	7447.44
647.714	7234.45
647.907	7267.22
648.099	7238.55
648.292	7273.36
648.485	7218.07
648.678	7127.96
648.871	7201.68
649.064	7080.85
649.256	6921.11
649.449	7054.23
649.642	7000.98
649.835	6845.34
650.027	6835.1
650.22	7060.37
650.413	6689.69
650.605	6699.93
650.798	6923.16
650.991	6812.57
651.183	6722.46
651.376	6605.72
651.568	6656.92
651.761	6605.72
651.954	6591.39
652.146	6587.29
652.339	6474.65
652.531	6359.97
652.724	6310.82
652.916	6128.55
653.109	6327.2
653.301	6341.54
653.494	6345.63
653.686	6144.93
653.879	6376.35
654.071	6208.42
654.263	6132.64
654.456	6007.72
654.648	6073.25
654.84	5940.13
655.033	5915.56
655.225	5882.79
655.417	6030.24
655.61	6005.67
655.802	6040.48
655.994	5827.5
656.186	5725.1
656.379	5950.37
656.571	5843.88
656.763	5665.71
656.955	5753.77
657.148	5858.21
657.34	5686.19
657.532	5657.51
657.724	5413.81
657.916	5602.22
658.108	5413.81
658.3	5346.22
658.492	5493.68
658.684	5432.24
658.876	5307.31
659.068	5432.24
659.26	5469.1
659.452	5286.83
659.644	5286.83
659.836	5120.95
660.028	5321.65
660.22	5122.99
660.412	5065.65
660.604	4989.88
660.796	5229.49
660.988	5159.86
661.18	4940.72
661.372	4985.78
661.563	5077.94
661.755	4928.44
661.947	4936.63
662.139	4858.81
662.331	4823.99
662.522	4871.09
662.714	4858.81
662.906	4823.99
663.097	4918.2
663.289	4854.71
663.481	4733.88
663.673	4697.02
663.864	4580.28
664.056	4752.31
664.247	4613.05
664.439	4621.24
664.631	4596.67
664.822	4608.95
665.014	4432.83
665.205	4522.94
665.397	4563.9
665.588	4459.45
665.78	4451.26
665.971	4514.75
666.163	4410.3
666.354	4504.51
666.546	4404.16
666.737	4301.76
666.929	4490.17
667.12	4264.89
667.311	4344.77
667.503	4248.51
667.694	4293.57
667.885	4189.12
668.077	4117.44
668.268	4142.02
668.459	4129.73
668.651	4139.97
668.842	4113.35
669.033	4154.3
669.224	4080.58
669.416	4082.63
669.607	4051.91
669.798	3976.13
669.989	4015.04
670.18	3935.17
670.371	4092.87
670.563	4000.71
670.754	3959.75
670.945	3863.49
671.136	3912.64
671.327	3890.12
671.518	3828.68
671.709	3912.64
671.9	3777.48
672.091	3826.63
672.282	3888.07
672.473	3769.29
672.664	3785.67
672.855	3752.9
673.046	3716.04
673.237	3777.48
673.428	3757
673.619	3705.8
673.809	3634.12
674	3683.27
674.191	3699.66
674.382	3630.02
674.573	3679.18
674.764	3548.11
674.954	3474.38
675.145	3468.24
675.336	3552.2
675.527	3519.43
675.717	3507.15
675.908	3519.43
676.099	3541.96
676.289	3507.15
676.48	3544.01
676.671	3501
676.861	3425.23
677.052	3472.33
677.243	3525.58
677.433	3355.6
677.624	3412.94
677.814	3531.72
678.005	3498.95
678.195	3189.71
678.386	3427.28
678.576	3374.03
678.767	3447.76
678.957	3328.97
679.148	3410.89
679.338	3437.52
679.529	3363.79
679.719	3349.45
679.909	3253.2
680.1	3257.29
680.29	3277.77
680.481	3249.1
680.671	3089.36
680.861	3216.33
681.052	3281.87
681.242	3300.3
681.432	3337.17
681.622	3193.81
681.813	3253.2
682.003	3122.13
682.193	3150.8
682.383	3212.24
682.573	3130.32
682.764	3163.09
682.954	3017.68
683.144	3179.47
683.334	3220.43
683.524	3109.84
683.714	3124.18
683.904	3060.69
684.094	3089.36
684.284	3023.83
684.474	3095.5
684.664	3107.79
684.854	3056.59
685.044	3081.17
685.234	3019.73
685.424	2941.91
685.614	2941.91
685.804	2917.33
685.994	2886.61
686.184	3023.83
686.374	3052.5
686.564	2927.57
686.753	3017.68
686.943	2843.6
687.133	2892.76
687.323	2903
687.513	2878.42
687.702	2937.81
687.892	2855.89
688.082	2851.8
688.272	2866.13
688.461	2827.22
688.651	2819.03
688.841	2855.89
689.03	2765.78
689.22	2810.84
689.41	2767.83
689.599	2698.2
689.789	2700.25
689.979	2827.22
690.168	2569.18
690.358	2782.17
690.547	2706.39
690.737	2743.25
690.926	2583.51
691.116	2667.48
691.305	2599.9
691.495	2690.01
691.684	2573.27
691.874	2573.27
692.063	2632.66
692.252	2540.51
692.442	2630.62
692.631	2540.51
692.82	2477.02
693.01	2528.22
693.199	2579.42
693.388	2431.96
693.578	2501.59
693.767	2493.4
693.956	2454.49
694.146	2450.39
694.335	2403.29
694.524	2395.1
694.713	2483.16
694.902	2368.48
695.092	2368.48
695.281	2309.08
695.47	2286.56
695.659	2386.91
695.848	2317.28
696.037	2264.03
696.226	2384.86
696.415	2307.04
696.604	2368.48
696.793	2321.37
696.982	2339.8
697.171	2370.52
697.36	2286.56
697.549	2239.45
697.738	2245.6
697.927	2266.08
698.116	2307.04
698.305	2278.37
698.494	2358.24
698.683	2302.94
698.872	2282.46
699.061	2304.99
699.25	2266.08
699.438	2304.99
699.627	2216.93
699.816	2393.05
700.005	2132.96
700.193	2294.75
700.382	2374.62
700.571	2122.72
700.76	2294.75
700.948	2294.75
701.137	2296.8
701.326	2255.84
701.514	2169.82
701.703	2108.38
701.892	2120.67
702.08	2155.49
702.269	2204.64
702.457	2237.41
702.646	2223.07
702.834	2118.62
703.023	2196.45
703.212	2239.45
703.4	2081.76
703.589	2157.54
703.777	2253.79
703.965	2288.61
704.154	2165.73
704.342	2192.35
704.531	2139.1
704.719	2108.38
704.907	2151.39
705.096	2175.97
705.284	2098.14
705.472	2124.77
705.661	2231.26
705.849	2165.73
706.037	2042.85
706.226	2110.43
706.414	2114.53
706.602	2116.58
706.79	2155.49
706.979	2192.35
707.167	2155.49
707.355	1987.55
707.543	2069.47
707.731	2163.68
707.919	2128.86
708.107	2122.72
708.296	1999.84
708.484	2173.92
708.672	2053.09
708.86	1999.84
709.048	2098.14
709.236	2122.72
709.424	2083.81
709.612	2180.06
709.8	2104.29
709.988	1969.12
710.176	2208.73
710.364	2132.96
710.551	2135.01
710.739	2073.57
710.927	2194.4
711.115	2032.61
711.303	2114.53
711.491	2120.67
711.679	2073.57
711.866	2085.86
712.054	2030.56
712.242	2061.28
712.43	2188.25
712.617	2132.96
712.805	2135.01
712.993	1995.75
713.181	1997.79
713.368	2221.02
713.556	2100.19
713.744	2044.9
713.931	2210.78
714.119	2094.05
714.306	2139.1
714.494	2094.05
714.682	2192.35
714.869	1971.17
715.057	2130.91
715.244	2008.03
715.432	2065.38
715.619	2120.67
715.807	2155.49
715.994	2089.95
716.182	2024.42
716.369	2139.1
716.556	2204.64
716.744	2040.8
716.931	2106.34
717.119	2089.95
717.306	2061.28
717.493	2065.38
717.681	2087.9
717.868	2081.76
718.055	2114.53
718.242	2122.72
718.43	2141.15
718.617	1991.65
718.804	2053.09
718.991	2108.38
719.179	2122.72
719.366	2024.42
719.553	2083.81
719.74	2122.72
719.927	2065.38
720.114	2059.23
720.301	2026.47
720.488	2005.99
720.676	2069.47
720.863	2051.04
721.05	2216.93
721.237	2081.76
721.424	2110.43
721.611	2089.95
721.798	2026.47
721.985	2089.95
722.172	2098.14
722.358	1960.93
722.545	2022.37
722.732	2032.61
722.919	1979.36
723.106	2096.1
723.293	1973.22
723.48	2081.76
723.667	2100.19
723.853	2147.3
724.04	2135.01
724.227	2173.92
724.414	2083.81
724.6	2114.53
724.787	2139.1
724.974	2100.19
725.161	2106.34
725.347	2008.03
725.534	2100.19
725.72	2053.09
725.907	2196.45
726.094	2094.05
726.28	2012.13
726.467	2040.8
726.653	2059.23
726.84	2098.14
727.027	2106.34
727.213	2143.2
727.4	2044.9
727.586	2100.19
727.773	1926.11
727.959	2034.66
728.145	2055.14
728.332	2196.45
728.518	2106.34
728.705	2085.86
728.891	2057.18
729.077	2026.47
729.264	2038.75
729.45	2010.08
729.636	2110.43
729.823	1983.46
730.009	2130.91
730.195	2042.85
730.382	1922.02
730.568	2008.03
730.754	2028.51
730.94	2067.42
731.126	2098.14
731.313	2167.77
731.499	2036.7
731.685	2083.81
731.871	2040.8
732.057	2145.25
732.243	1952.74
732.429	2040.8
732.615	2001.89
732.801	2059.23
732.987	1995.75
733.173	1991.65
733.359	2034.66
733.545	1999.84
733.731	2026.47
733.917	2079.71
734.103	1950.69
734.289	1928.16
734.475	2077.66
734.661	2192.35
734.847	2089.95
735.033	1860.58
735.219	1977.31
735.404	1948.64
735.59	2040.8
735.776	1928.16
735.962	1956.83
736.148	2067.42
736.333	1975.27
736.519	1952.74
736.705	2040.8
736.89	2024.42
737.076	1962.98
737.262	1969.12
737.447	1919.97
737.633	1977.31
737.819	1958.88
738.004	2008.03
738.19	1991.65
738.375	1954.79
738.561	1960.93
738.747	2008.03
738.932	1829.86
739.118	1969.12
739.303	1895.4
739.489	1942.5
739.674	1919.97
739.859	1985.51
740.045	1944.55
740.23	1870.82
740.416	1829.86
740.601	1893.35
740.786	1895.4
740.972	1893.35
741.157	1827.81
741.342	1991.65
741.528	1999.84
741.713	1829.86
741.898	1885.16
742.084	1954.79
742.269	1901.54
742.454	1879.01
742.639	1903.59
742.824	1922.02
743.01	1895.4
743.195	1838.05
743.38	1821.67
743.565	1760.23
743.75	1856.48
743.935	1780.71
744.12	1862.63
744.305	1737.7
744.49	1696.74
744.675	1737.7
744.86	1795.04
745.045	1799.14
745.23	1811.43
745.415	1795.04
745.6	1754.09
745.785	1819.62
745.97	1768.42
746.155	1682.41
746.34	1733.61
746.525	1721.32
746.71	1770.47
746.895	1684.45
747.079	1672.17
747.264	1620.97
747.449	1717.22
747.634	1756.13
747.819	1606.63
748.003	1639.4
748.188	1586.15
748.373	1592.3
748.557	1745.89
748.742	1700.84
748.927	1600.49
749.111	1586.15
749.296	1487.85
749.481	1600.49
749.665	1649.64
749.85	1479.66
750.034	1649.64
750.219	1500.14
750.404	1641.45
750.588	1526.76
750.773	1516.52
750.957	1450.99
751.141	1410.03
751.326	1580.01
751.51	1442.79
751.695	1428.46
751.879	1369.07
752.064	1414.12
752.248	1467.37
752.432	1493.99
752.617	1412.07
752.801	1270.76
752.985	1389.55
753.17	1377.26
753.354	1344.49
753.538	1369.07
753.722	1319.92
753.907	1487.85
754.091	1369.07
754.275	1332.2
754.459	1281
754.643	1377.26
754.828	1459.18
755.012	1360.88
755.196	1254.38
755.38	1272.81
755.564	1225.71
755.748	1254.38
755.932	1266.67
756.116	1252.33
756.3	1242.09
756.484	1182.7
756.668	1270.76
756.852	1180.65
757.036	1135.6
757.22	1217.52
757.404	1166.32
757.588	1207.28
757.772	1254.38
757.956	1217.52
758.14	1281
758.323	1238
758.507	1252.33
758.691	1121.26
758.875	1143.79
759.059	1205.23
759.242	1201.13
759.426	1131.5
759.61	1113.07
759.794	1172.46
759.977	1035.25
760.161	1180.65
760.345	1098.74
760.528	1096.69
760.712	1102.83
760.895	1164.27
761.079	1100.78
761.263	1106.93
761.446	1100.78
761.63	1025.01
761.813	1000.43
761.997	1057.78
762.18	1074.16
762.364	1049.58
762.547	1045.49
762.731	943.09
762.914	1004.53
763.098	918.51
763.281	928.75
763.464	1031.15
763.648	975.86
763.831	959.47
764.015	1018.86
764.198	1016.82
764.381	982
764.564	1045.49
764.748	988.14
764.931	857.07
765.114	906.23
765.297	992.24
765.481	828.4
765.664	904.18
765.847	1000.43
766.03	1025.01
766.213	951.28
766.397	945.14
766.58	953.33
766.763	918.51
766.946	926.71
767.129	848.88
767.312	916.47
767.495	932.85
767.678	961.52
767.861	879.6
768.044	869.36
768.227	916.47
768.41	797.68
768.593	934.9
768.776	834.55
768.959	877.55
769.142	910.32
769.324	836.6
769.507	852.98
769.69	902.13
769.873	889.84
770.056	920.56
770.239	836.6
770.421	838.64
770.604	867.31
770.787	838.64
770.97	840.69
771.152	779.25
771.335	771.06
771.518	803.83
771.7	779.25
771.883	953.33
772.066	879.6
772.248	869.36
772.431	881.65
772.613	873.46
772.796	756.72
772.978	836.6
773.161	781.3
773.343	683
773.526	887.79
773.708	717.81
773.891	791.54
774.073	746.48
774.256	746.48
774.438	707.57
774.621	787.44
774.803	766.96
774.985	701.43
775.168	836.6
775.35	633.85
775.532	769.01
775.715	611.32
775.897	789.49
776.079	719.86
776.261	738.29
776.444	855.03
776.626	697.33
776.808	726
776.99	695.29
777.173	683
777.355	660.47
777.537	592.89
777.719	660.47
777.901	695.29
778.083	756.72
778.265	601.08
778.447	689.14
778.629	576.5
778.811	615.41
778.993	703.48
779.175	705.53
779.357	631.8
779.539	584.7
779.721	631.8
779.903	601.08
780.085	609.27
780.267	549.88
780.449	607.22
780.631	652.28
780.812	680.95
780.994	519.16
781.176	578.55
781.358	574.46
781.54	551.93
781.721	523.26
781.903	566.26
782.085	556.02
782.267	582.65
782.448	603.13
782.63	607.22
782.812	470.01
782.993	492.54
783.175	623.61
783.357	488.44
783.538	525.3
783.72	498.68
783.901	476.15
784.083	484.34
784.264	529.4
784.446	484.34
784.627	496.63
784.809	551.93
784.99	422.91
785.172	502.78
785.353	461.82
785.535	431.1
785.716	492.54
785.897	445.43
786.079	461.82
786.26	480.25
786.441	443.39
786.623	451.58
786.804	447.48
786.985	400.38
787.167	406.52
787.348	353.27
787.529	433.15
787.71	420.86
787.891	402.43
788.073	418.81
788.254	441.34
788.435	361.47
788.616	418.81
788.797	394.23
788.978	443.39
789.159	355.32
789.34	447.48
789.522	390.14
789.703	320.51
789.884	367.61
790.065	427
790.246	470.01
790.427	386.04
790.607	402.43
790.788	347.13
790.969	379.9
791.15	388.09
791.331	330.75
791.512	412.67
791.693	383.99
791.874	363.51
792.054	373.75
792.235	429.05
792.416	410.62
792.597	363.51
792.778	388.09
792.958	398.33
793.139	394.23
793.32	336.89
793.5	328.7
793.681	383.99
793.862	347.13
794.042	349.18
794.223	320.51
794.404	349.18
794.584	295.93
794.765	377.85
794.945	381.95
795.126	351.23
795.306	359.42
795.487	349.18
795.667	314.36
795.848	295.93
796.028	295.93
796.209	336.89
796.389	281.6
796.57	271.36
796.75	361.47
796.93	263.16
797.111	304.12
797.291	191.49
797.471	289.79
797.652	254.97
797.832	232.44
798.012	289.79
798.192	308.22
798.373	248.83
798.553	287.74
798.733	250.88
798.913	257.02
799.093	226.3
799.274	310.27
799.454	267.26
799.634	271.36
799.814	353.27
799.994	291.84
800.174	316.41
800.354	250.88
800.534	271.36
800.714	263.16
800.894	220.16
801.074	230.4
801.254	214.01
801.434	156.67
801.614	246.78
801.794	291.84
801.974	846.84
802.154	349.18
802.334	271.36
802.514	232.44
802.693	236.54
802.873	183.29
803.053	224.25
803.233	304.12
803.413	265.21
803.592	205.82
803.772	226.3
803.952	191.49
804.131	164.86
804.311	203.77
804.491	199.68
804.67	244.73
804.85	199.68
805.03	287.74
805.209	164.86
805.389	279.55
805.568	195.58
805.748	265.21
805.928	254.97
806.107	230.4
806.287	205.82
806.466	248.83
806.646	214.01
806.825	199.68
807.004	254.97
807.184	156.67
807.363	254.97
807.543	175.1
807.722	187.39
807.901	289.79
808.081	289.79
808.26	123.9
808.439	142.33
808.619	211.96
808.798	234.49
808.977	197.63
809.156	295.93
809.336	154.62
809.515	218.11
809.694	109.57
809.873	150.53
810.052	113.66
810.231	232.44
810.411	275.45
810.59	148.48
810.769	162.81
810.948	166.91
811.127	101.37
811.306	226.3
811.485	150.53
811.664	250.88
811.843	214.01
812.022	201.72
812.201	220.16
812.38	123.9
812.559	168.96
812.737	214.01
812.916	123.9
813.095	164.86
813.274	164.86
813.453	222.2
813.632	248.83
813.811	240.64
813.989	123.9
814.168	173.05
814.347	140.29
814.526	209.92
814.704	173.05
814.883	234.49
815.062	113.66
815.24	173.05
815.419	91.13
815.598	205.82
815.776	72.7
815.955	166.91
816.133	160.77
816.312	207.87
816.49	230.4
816.669	109.57
816.847	132.09
817.026	148.48
817.204	267.26
817.383	156.67
817.561	140.29
817.74	166.91
817.918	119.81
818.097	150.53
818.275	115.71
818.453	156.67
818.632	224.25
818.81	173.05
818.988	199.68
819.167	140.29
819.345	183.29
819.523	230.4
819.701	175.1
819.879	166.91
820.058	84.99
820.236	140.29
820.414	76.8
820.592	166.91
820.77	142.33
820.948	117.76
821.127	74.75
821.305	148.48
821.483	123.9
821.661	76.8
821.839	109.57
822.017	93.18
822.195	82.94
822.373	162.81
822.551	123.9
822.729	140.29
822.907	93.18
823.085	74.75
823.262	142.33
823.44	74.75
823.618	128
823.796	128
823.974	115.71
824.152	44.03
824.329	168.96
824.507	84.99
824.685	150.53
824.863	191.49
825.04	134.14
825.218	164.86
825.396	132.09
825.574	125.95
825.751	125.95
825.929	115.71
826.107	148.48
826.284	68.61
826.462	17.41
826.639	97.28
826.817	74.75
826.994	115.71
827.172	93.18
827.349	144.38
827.527	115.71
827.704	60.42
827.882	162.81
828.059	134.14
828.237	84.99
828.414	138.24
828.591	1.02
828.769	148.48
828.946	84.99
829.124	117.76
829.301	50.18
829.478	93.18
829.655	99.33
829.833	44.03
830.01	76.8
830.187	33.79
830.364	128
830.542	156.67
830.719	140.29
830.896	160.77
831.073	91.13
831.25	140.29
831.427	109.57
831.604	66.56
831.782	80.89
831.959	99.33
832.136	46.08
832.313	27.65
832.49	25.6
832.667	115.71
832.844	76.8
833.021	168.96
833.198	44.03
833.374	68.61
833.551	78.85
833.728	152.57
833.905	132.09
834.082	50.18
834.259	95.23
834.436	166.91
834.612	164.86
834.789	150.53
834.966	109.57
835.143	-5.12
835.319	99.33
835.496	132.09
835.673	84.99
835.85	56.32
836.026	117.76
836.203	109.57
836.38	21.5
836.556	21.5
836.733	91.13
836.909	121.85
837.086	9.22
837.262	89.09
837.439	91.13
837.616	62.46
837.792	37.89
837.968	119.81
838.145	60.42
838.321	103.42
838.498	62.46
838.674	115.71
838.851	56.32
839.027	123.9
839.203	33.79
839.38	107.52
839.556	72.7
839.732	119.81
839.909	60.42
840.085	48.13
840.261	31.74
840.437	148.48
840.614	103.42
840.79	105.47
840.966	66.56
841.142	50.18
841.318	72.7
841.494	140.29
841.671	134.14
841.847	78.85
842.023	29.7
842.199	50.18
842.375	125.95
842.551	91.13
842.727	52.22
842.903	99.33
843.079	-97.28
843.255	117.76
843.431	54.27
843.607	142.33
843.783	-23.55
843.959	101.37
844.134	27.65
844.31	50.18
844.486	103.42
844.662	93.18
844.838	93.18
845.013	78.85
845.189	107.52
845.365	-25.6
845.541	103.42
845.716	103.42
845.892	95.23
846.068	9.22
846.244	74.75
846.419	82.94
846.595	27.65
846.77	44.03
846.946	68.61
847.122	9.22
847.297	19.46
847.473	109.57
847.648	44.03
847.824	164.86
847.999	9.22
848.175	134.14
848.35	76.8
848.526	78.85
848.701	50.18
848.876	74.75
849.052	125.95
849.227	70.65
849.403	25.6
849.578	1.02
849.753	99.33
849.929	25.6
850.104	70.65
850.279	115.71
850.454	162.81
850.63	123.9
850.805	23.55
850.98	87.04
851.155	35.84
851.33	52.22
851.505	123.9
851.681	146.43
851.856	-7.17
852.031	66.56
852.206	44.03
852.381	9.22
852.556	41.98
852.731	68.61
852.906	-60.42
853.081	107.52
853.256	68.61
853.431	78.85
853.606	82.94
853.781	60.42
853.956	17.41
854.131	78.85
854.305	23.55
854.48	13.31
854.655	62.46
854.83	82.94
855.005	56.32
855.18	95.23
855.354	58.37
855.529	109.57
855.704	5.12
855.879	78.85
856.053	66.56
856.228	109.57
856.403	76.8
856.577	35.84
856.752	-62.46
856.926	5.12
857.101	54.27
857.276	37.89
857.45	91.13
857.625	29.7
857.799	60.42
857.974	117.76
858.148	-35.84
858.323	50.18
858.497	66.56
858.672	-41.98
858.846	19.46
859.02	46.08
859.195	31.74
859.369	-11.26
859.543	27.65
859.718	78.85
859.892	54.27
860.066	60.42
860.241	41.98
860.415	-15.36
860.589	50.18
860.763	1.02
860.938	35.84
861.112	128
861.286	39.94
861.46	150.53
861.634	-37.89
861.808	41.98
861.982	1.02
862.157	-27.65
862.331	31.74
862.505	76.8
862.679	-33.79
862.853	46.08
863.027	33.79
863.201	74.75
863.375	78.85
863.549	99.33
863.722	101.37
863.896	11.26
864.07	15.36
864.244	1.02
864.418	27.65
864.592	111.61
864.766	95.23
864.939	64.51
865.113	17.41
865.287	58.37
865.461	27.65
865.634	54.27
865.808	33.79
865.982	33.79
866.156	58.37
866.329	1.02
866.503	-7.17
866.676	99.33
866.85	-31.74
867.024	54.27
867.197	29.7
867.371	44.03
867.544	25.6
867.718	41.98
867.891	62.46
868.065	17.41
868.238	54.27
868.412	68.61
868.585	44.03
868.759	-3.07
868.932	123.9
869.105	76.8
869.279	11.26
869.452	44.03
869.625	1.02
869.799	115.71
869.972	-35.84
870.145	35.84
870.319	50.18
870.492	-17.41
870.665	-60.42
870.838	39.94
871.011	3.07
871.185	60.42
871.358	-21.5
871.531	41.98
871.704	-27.65
871.877	35.84
872.05	58.37
872.223	-44.03
872.396	54.27
872.569	1.02
872.742	-60.42
872.915	84.99
873.088	41.98
873.261	1.02
873.434	46.08
873.607	58.37
873.78	84.99
873.953	48.13
874.126	-5.12
874.299	82.94
874.471	3.07
874.644	58.37
874.817	87.04
874.99	140.29
875.163	66.56
875.335	109.57
875.508	58.37
875.681	103.42
875.853	-27.65
876.026	21.5
876.199	70.65
876.371	107.52
876.544	70.65
876.717	1.02
876.889	37.89
877.062	56.32
877.234	13.31
877.407	-3.07
877.579	21.5
877.752	66.56
877.924	52.22
878.097	134.14
878.269	37.89
878.442	66.56
878.614	66.56
878.786	11.26
878.959	15.36
879.131	35.84
879.303	-17.41
879.476	89.09
879.648	29.7
879.82	46.08
879.993	-48.13
880.165	44.03
880.337	54.27
880.509	115.71
880.681	1.02
880.854	99.33
881.026	58.37
881.198	64.51
881.37	9.22
881.542	41.98
881.714	13.31
881.886	-15.36
882.058	105.47
882.23	82.94
882.402	9.22
882.574	27.65
882.746	37.89
882.918	74.75
883.09	58.37
883.262	23.55
883.434	29.7
883.606	7.17
883.778	44.03
883.95	111.61
884.122	3.07
884.293	44.03
884.465	31.74
884.637	25.6
884.809	9.22
884.98	5.12
885.152	50.18
885.324	64.51
885.496	11.26
885.667	33.79
885.839	68.61
886.011	52.22
886.182	19.46
886.354	74.75
886.525	25.6
886.697	52.22
886.869	17.41
887.04	50.18
887.212	41.98
887.383	115.71
887.555	27.65
887.726	58.37
887.897	-15.36
888.069	101.37
888.24	-27.65
888.412	13.31
888.583	101.37
888.754	33.79
888.926	-25.6
889.097	-3.07
889.268	35.84
889.44	-9.22
889.611	39.94
889.782	-41.98
889.953	-31.74
890.125	109.57
890.296	107.52
890.467	-29.7
890.638	82.94
890.809	66.56
890.98	-39.94
891.151	-9.22
891.323	80.89
891.494	54.27
891.665	31.74
891.836	50.18
892.007	-31.74
892.178	64.51
892.349	50.18
892.52	-19.46
892.691	41.98
892.862	52.22
893.032	-21.5
893.203	5.12
893.374	-52.22
893.545	44.03
893.716	1.02
893.887	72.7
894.057	3.07
894.228	-3.07
894.399	19.46
894.57	44.03
894.74	9.22
894.911	-11.26
895.082	-7.17
895.253	41.98
895.423	41.98
895.594	115.71
895.764	52.22
895.935	9.22
896.106	17.41
896.276	15.36
896.447	7.17
896.617	-13.31
896.788	7.17
896.958	60.42
897.129	56.32
897.299	50.18
897.47	44.03
897.64	58.37
897.81	3.07
897.981	1.02
898.151	54.27
898.322	41.98
898.492	7.17
898.662	-80.89
898.832	-7.17
899.003	58.37
899.173	-50.18
899.343	41.98
899.513	-46.08
