Data from USB4F104151__86__14-43-30-875.txt Node

Date: Thu Mar 13 14:43:30 EDT 2025
User: louis
Spectrometer: USB4F10415
Trigger mode: 4
Integration Time (sec): 2.000000E-2
Scans to average: 1
Electric dark correction enabled: true
Nonlinearity correction enabled: false
Boxcar width: 0
XAxis mode: Wavelengths
Number of Pixels in Spectrum: 3648
>>>>>Begin Spectral Data<<<<<
178.204	-83.45
178.424	-83.45
178.644	-83.45
178.864	-97.79
179.084	-103.93
179.304	61.95
179.524	-56.83
179.744	-87.55
179.964	31.23
180.184	12.8
180.404	29.18
180.624	39.42
180.844	-5.63
181.064	-15.87
181.283	12.8
181.503	-13.82
181.723	-7.68
181.943	-11.78
182.163	23.04
182.383	12.8
182.602	25.09
182.822	35.33
183.042	61.95
183.262	84.48
183.482	25.09
183.701	-36.35
183.921	-44.54
184.141	-34.3
184.361	94.72
184.58	53.76
184.8	25.09
185.02	123.39
185.239	-3.58
185.459	33.28
185.679	78.33
185.898	-48.64
186.118	16.9
186.338	70.14
186.557	16.9
186.777	-1.54
186.997	33.28
187.216	23.04
187.436	37.38
187.655	45.57
187.875	14.85
188.095	41.47
188.314	82.43
188.534	61.95
188.753	76.29
188.973	72.19
189.192	53.76
189.412	80.38
189.631	6.66
189.851	-11.78
190.07	49.66
190.29	-34.3
190.509	41.47
190.729	-11.78
190.948	86.53
191.168	143.87
191.387	66.05
191.607	53.76
191.826	43.52
192.045	-3.58
192.265	-73.21
192.484	8.7
192.704	37.38
192.923	20.99
193.142	102.91
193.362	41.47
193.581	107.01
193.8	104.96
194.02	57.86
194.239	20.99
194.458	12.8
194.678	-19.97
194.897	47.62
195.116	25.09
195.335	14.85
195.555	31.23
195.774	86.53
195.993	4.61
196.212	-13.82
196.432	-71.17
196.651	-3.58
196.87	45.57
197.089	70.14
197.308	14.85
197.528	55.81
197.747	-60.93
197.966	59.9
198.185	53.76
198.404	-40.45
198.623	66.05
198.842	49.66
199.062	113.15
199.281	55.81
199.5	53.76
199.719	4.61
199.938	14.85
200.157	74.24
200.376	-48.64
200.595	70.14
200.814	72.19
201.033	64
201.252	41.47
201.471	57.86
201.69	49.66
201.909	104.96
202.128	23.04
202.347	4.61
202.566	90.62
202.785	84.48
203.004	-30.21
203.223	88.57
203.442	-7.68
203.661	-34.3
203.879	82.43
204.098	43.52
204.317	16.9
204.536	84.48
204.755	-9.73
204.974	31.23
205.193	53.76
205.411	72.19
205.63	37.38
205.849	8.7
206.068	12.8
206.287	29.18
206.505	88.57
206.724	-36.35
206.943	0.51
207.162	61.95
207.381	78.33
207.599	20.99
207.818	43.52
208.037	6.66
208.255	20.99
208.474	84.48
208.693	41.47
208.911	49.66
209.13	45.57
209.349	-26.11
209.567	66.05
209.786	64
210.005	84.48
210.223	47.62
210.442	-36.35
210.661	47.62
210.879	37.38
211.098	-11.78
211.316	20.99
211.535	70.14
211.753	4.61
211.972	107.01
212.191	70.14
212.409	137.73
212.628	88.57
212.846	-3.58
213.065	57.86
213.283	121.34
213.502	20.99
213.72	-1.54
213.938	113.15
214.157	33.28
214.375	12.8
214.594	70.14
214.812	74.24
215.031	47.62
215.249	14.85
215.467	14.85
215.686	35.33
215.904	47.62
216.122	102.91
216.341	53.76
216.559	53.76
216.778	39.42
216.996	47.62
217.214	29.18
217.432	0.51
217.651	-36.35
217.869	10.75
218.087	16.9
218.306	41.47
218.524	16.9
218.742	45.57
218.96	4.61
219.179	72.19
219.397	23.04
219.615	61.95
219.833	111.1
220.051	74.24
220.27	25.09
220.488	12.8
220.706	-7.68
220.924	45.57
221.142	14.85
221.36	-19.97
221.578	4.61
221.796	66.05
222.015	37.38
222.233	-24.06
222.451	82.43
222.669	37.38
222.887	45.57
223.105	-15.87
223.323	-24.06
223.541	6.66
223.759	29.18
223.977	18.94
224.195	127.49
224.413	29.18
224.631	-40.45
224.849	70.14
225.067	70.14
225.285	74.24
225.503	-11.78
225.721	29.18
225.939	-11.78
226.157	94.72
226.375	115.2
226.592	29.18
226.81	-19.97
227.028	14.85
227.246	66.05
227.464	20.99
227.682	23.04
227.9	66.05
228.117	94.72
228.335	61.95
228.553	49.66
228.771	47.62
228.989	49.66
229.206	33.28
229.424	47.62
229.642	12.8
229.86	55.81
230.077	90.62
230.295	12.8
230.513	41.47
230.731	82.43
230.948	20.99
231.166	109.05
231.384	53.76
231.601	16.9
231.819	57.86
232.037	4.61
232.254	-50.69
232.472	37.38
232.689	39.42
232.907	4.61
233.125	88.57
233.342	45.57
233.56	23.04
233.777	53.76
233.995	53.76
234.213	127.49
234.43	64
234.648	31.23
234.865	-1.54
235.083	111.1
235.3	37.38
235.518	72.19
235.735	45.57
235.953	84.48
236.17	49.66
236.388	57.86
236.605	-24.06
236.822	47.62
237.04	55.81
237.257	29.18
237.475	45.57
237.692	70.14
237.909	104.96
238.127	-32.26
238.344	35.33
238.562	53.76
238.779	33.28
238.996	-9.73
239.214	-17.92
239.431	53.76
239.648	-42.5
239.865	29.18
240.083	78.33
240.3	25.09
240.517	4.61
240.735	90.62
240.952	66.05
241.169	45.57
241.386	8.7
241.603	27.14
241.821	-30.21
242.038	70.14
242.255	25.09
242.472	74.24
242.689	27.14
242.907	72.19
243.124	-56.83
243.341	-26.11
243.558	-65.02
243.775	8.7
243.992	-52.74
244.209	-17.92
244.426	68.09
244.643	37.38
244.86	-19.97
245.078	55.81
245.295	96.77
245.512	57.86
245.729	-3.58
245.946	47.62
246.163	29.18
246.38	35.33
246.597	-11.78
246.814	-40.45
247.031	33.28
247.248	-3.58
247.464	-15.87
247.681	53.76
247.898	-1.54
248.115	78.33
248.332	70.14
248.549	113.15
248.766	61.95
248.983	23.04
249.2	70.14
249.417	66.05
249.633	25.09
249.85	14.85
250.067	131.58
250.284	6.66
250.501	113.15
250.717	64
250.934	-19.97
251.151	31.23
251.368	53.76
251.585	70.14
251.801	80.38
252.018	39.42
252.235	86.53
252.451	-79.36
252.668	33.28
252.885	31.23
253.102	-9.73
253.318	16.9
253.535	-40.45
253.752	12.8
253.968	-5.63
254.185	70.14
254.401	76.29
254.618	104.96
254.835	51.71
255.051	55.81
255.268	94.72
255.484	78.33
255.701	74.24
255.917	14.85
256.134	66.05
256.351	-15.87
256.567	-9.73
256.784	111.1
257	-58.88
257.217	23.04
257.433	68.09
257.65	12.8
257.866	94.72
258.082	14.85
258.299	45.57
258.515	102.91
258.732	20.99
258.948	45.57
259.165	55.81
259.381	53.76
259.597	45.57
259.814	61.95
260.03	-9.73
260.246	39.42
260.463	113.15
260.679	-26.11
260.895	-9.73
261.112	37.38
261.328	53.76
261.544	-44.54
261.761	94.72
261.977	45.57
262.193	-22.02
262.409	66.05
262.626	53.76
262.842	16.9
263.058	-13.82
263.274	16.9
263.49	98.81
263.707	80.38
263.923	4.61
264.139	23.04
264.355	78.33
264.571	16.9
264.787	53.76
265.004	61.95
265.22	4.61
265.436	-7.68
265.652	-11.78
265.868	55.81
266.084	27.14
266.3	6.66
266.516	45.57
266.732	35.33
266.948	-5.63
267.164	-24.06
267.38	53.76
267.596	104.96
267.812	57.86
268.028	86.53
268.244	94.72
268.46	57.86
268.676	-42.5
268.892	20.99
269.108	39.42
269.324	14.85
269.54	-13.82
269.756	23.04
269.972	-15.87
270.188	23.04
270.403	39.42
270.619	61.95
270.835	53.76
271.051	49.66
271.267	31.23
271.483	23.04
271.698	59.9
271.914	72.19
272.13	23.04
272.346	-13.82
272.562	55.81
272.777	8.7
272.993	29.18
273.209	-3.58
273.425	90.62
273.64	-9.73
273.856	-3.58
274.072	53.76
274.287	-7.68
274.503	57.86
274.719	0.51
274.934	35.33
275.15	-17.92
275.366	104.96
275.581	-11.78
275.797	82.43
276.012	-24.06
276.228	4.61
276.444	45.57
276.659	61.95
276.875	-15.87
277.09	57.86
277.306	41.47
277.521	39.42
277.737	45.57
277.952	61.95
278.168	33.28
278.383	18.94
278.599	14.85
278.814	45.57
279.03	55.81
279.245	121.34
279.461	55.81
279.676	102.91
279.892	20.99
280.107	-42.5
280.322	-24.06
280.538	47.62
280.753	61.95
280.969	119.29
281.184	37.38
281.399	20.99
281.615	-9.73
281.83	45.57
282.045	12.8
282.26	12.8
282.476	-22.02
282.691	20.99
282.906	55.81
283.122	14.85
283.337	37.38
283.552	53.76
283.767	53.76
283.983	88.57
284.198	-9.73
284.413	78.33
284.628	-42.5
284.843	16.9
285.058	145.92
285.274	23.04
285.489	-32.26
285.704	104.96
285.919	-19.97
286.134	20.99
286.349	68.09
286.564	104.96
286.779	86.53
286.995	-1.54
287.21	12.8
287.425	49.66
287.64	-11.78
287.855	37.38
288.07	0.51
288.285	27.14
288.5	37.38
288.715	-9.73
288.93	64
289.145	33.28
289.36	20.99
289.575	70.14
289.79	57.86
290.004	33.28
290.219	37.38
290.434	12.8
290.649	84.48
290.864	12.8
291.079	59.9
291.294	-17.92
291.509	45.57
291.724	-11.78
291.938	94.72
292.153	64
292.368	-11.78
292.583	31.23
292.798	78.33
293.012	92.67
293.227	53.76
293.442	29.18
293.657	78.33
293.871	129.53
294.086	12.8
294.301	131.58
294.516	82.43
294.73	45.57
294.945	-19.97
295.16	4.61
295.374	12.8
295.589	102.91
295.804	47.62
296.018	43.52
296.233	145.92
296.447	64
296.662	53.76
296.877	47.62
297.091	64
297.306	-1.54
297.52	39.42
297.735	51.71
297.949	31.23
298.164	6.66
298.378	-3.58
298.593	59.9
298.807	12.8
299.022	66.05
299.236	49.66
299.451	20.99
299.665	47.62
299.88	80.38
300.094	53.76
300.309	45.57
300.523	94.72
300.737	-26.11
300.952	72.19
301.166	-19.97
301.381	47.62
301.595	37.38
301.809	100.86
302.024	29.18
302.238	20.99
302.452	143.87
302.667	37.38
302.881	14.85
303.095	111.1
303.309	12.8
303.524	57.86
303.738	70.14
303.952	-36.35
304.166	64
304.381	-11.78
304.595	94.72
304.809	78.33
305.023	94.72
305.237	6.66
305.452	74.24
305.666	127.49
305.88	45.57
306.094	0.51
306.308	57.86
306.522	12.8
306.736	27.14
306.95	53.76
307.164	-5.63
307.379	80.38
307.593	49.66
307.807	45.57
308.021	55.81
308.235	-19.97
308.449	-24.06
308.663	-11.78
308.877	113.15
309.091	4.61
309.305	86.53
309.519	-13.82
309.733	45.57
309.947	-28.16
310.161	86.53
310.374	70.14
310.588	94.72
310.802	43.52
311.016	31.23
311.23	23.04
311.444	55.81
311.658	55.81
311.872	47.62
312.085	20.99
312.299	111.1
312.513	70.14
312.727	-7.68
312.941	31.23
313.154	33.28
313.368	16.9
313.582	70.14
313.796	86.53
314.009	80.38
314.223	16.9
314.437	70.14
314.651	55.81
314.864	2.56
315.078	47.62
315.292	47.62
315.505	57.86
315.719	102.91
315.933	98.81
316.146	-11.78
316.36	-32.26
316.573	107.01
316.787	82.43
317.001	70.14
317.214	20.99
317.428	23.04
317.641	-34.3
317.855	25.09
318.068	6.66
318.282	37.38
318.495	37.38
318.709	27.14
318.922	41.47
319.136	86.53
319.349	96.77
319.563	37.38
319.776	51.71
319.99	70.14
320.203	78.33
320.417	96.77
320.63	37.38
320.843	180.73
321.057	55.81
321.27	12.8
321.483	37.38
321.697	23.04
321.91	23.04
322.124	96.77
322.337	127.49
322.55	-15.87
322.763	100.86
322.977	35.33
323.19	-44.54
323.403	18.94
323.617	33.28
323.83	88.57
324.043	4.61
324.256	-34.3
324.469	-54.78
324.683	49.66
324.896	37.38
325.109	90.62
325.322	-5.63
325.535	82.43
325.748	51.71
325.962	49.66
326.175	43.52
326.388	70.14
326.601	86.53
326.814	94.72
327.027	-1.54
327.24	88.57
327.453	12.8
327.666	102.91
327.879	23.04
328.092	45.57
328.305	49.66
328.518	39.42
328.731	70.14
328.944	90.62
329.157	70.14
329.37	68.09
329.583	127.49
329.796	78.33
330.009	68.09
330.222	96.77
330.435	61.95
330.648	98.81
330.861	86.53
331.073	-3.58
331.286	49.66
331.499	37.38
331.712	59.9
331.925	51.71
332.138	104.96
332.35	23.04
332.563	6.66
332.776	127.49
332.989	72.19
333.202	55.81
333.414	74.24
333.627	23.04
333.84	33.28
334.053	45.57
334.265	8.7
334.478	25.09
334.691	33.28
334.903	29.18
335.116	18.94
335.329	57.86
335.541	133.63
335.754	45.57
335.966	23.04
336.179	0.51
336.392	49.66
336.604	18.94
336.817	49.66
337.029	86.53
337.242	55.81
337.454	94.72
337.667	23.04
337.88	4.61
338.092	-36.35
338.305	86.53
338.517	-15.87
338.729	20.99
338.942	-17.92
339.154	47.62
339.367	47.62
339.579	25.09
339.792	61.95
340.004	12.8
340.217	18.94
340.429	37.38
340.641	70.14
340.854	61.95
341.066	76.29
341.278	127.49
341.491	66.05
341.703	20.99
341.915	41.47
342.128	70.14
342.34	-44.54
342.552	102.91
342.764	78.33
342.977	74.24
343.189	90.62
343.401	4.61
343.613	-9.73
343.826	66.05
344.038	-34.3
344.25	-3.58
344.462	70.14
344.674	2.56
344.886	-15.87
345.099	68.09
345.311	35.33
345.523	4.61
345.735	8.7
345.947	66.05
346.159	45.57
346.371	82.43
346.583	-1.54
346.795	119.29
347.007	94.72
347.219	68.09
347.431	72.19
347.643	45.57
347.855	-81.41
348.067	55.81
348.279	16.9
348.491	47.62
348.703	94.72
348.915	53.76
349.127	8.7
349.339	70.14
349.551	29.18
349.763	90.62
349.975	-15.87
350.187	25.09
350.399	41.47
350.61	55.81
350.822	-44.54
351.034	45.57
351.246	12.8
351.458	33.28
351.669	137.73
351.881	96.77
352.093	70.14
352.305	121.34
352.517	27.14
352.728	14.85
352.94	-60.93
353.152	25.09
353.363	-3.58
353.575	2.56
353.787	78.33
353.999	61.95
354.21	14.85
354.422	25.09
354.633	45.57
354.845	23.04
355.057	-17.92
355.268	115.2
355.48	66.05
355.692	45.57
355.903	94.72
356.115	39.42
356.326	-11.78
356.538	123.39
356.749	35.33
356.961	98.81
357.172	33.28
357.384	20.99
357.595	80.38
357.807	-28.16
358.018	23.04
358.23	45.57
358.441	82.43
358.653	64
358.864	80.38
359.075	78.33
359.287	59.9
359.498	33.28
359.709	8.7
359.921	51.71
360.132	12.8
360.344	39.42
360.555	37.38
360.766	39.42
360.977	39.42
361.189	74.24
361.4	8.7
361.611	29.18
361.823	74.24
362.034	72.19
362.245	49.66
362.456	51.71
362.667	12.8
362.879	61.95
363.09	135.68
363.301	102.91
363.512	102.91
363.723	115.2
363.935	14.85
364.146	86.53
364.357	70.14
364.568	61.95
364.779	16.9
364.99	64
365.201	47.62
365.412	61.95
365.623	-11.78
365.834	78.33
366.045	72.19
366.256	61.95
366.467	41.47
366.678	76.29
366.889	72.19
367.1	-34.3
367.311	94.72
367.522	39.42
367.733	31.23
367.944	57.86
368.155	-9.73
368.366	47.62
368.577	29.18
368.788	78.33
368.999	49.66
369.209	29.18
369.42	33.28
369.631	94.72
369.842	23.04
370.053	61.95
370.264	88.57
370.474	-36.35
370.685	82.43
370.896	72.19
371.107	39.42
371.317	125.44
371.528	29.18
371.739	29.18
371.95	49.66
372.16	6.66
372.371	29.18
372.582	66.05
372.792	88.57
373.003	59.9
373.214	90.62
373.424	119.29
373.635	35.33
373.846	57.86
374.056	-3.58
374.267	94.72
374.477	33.28
374.688	23.04
374.898	29.18
375.109	37.38
375.319	104.96
375.53	102.91
375.74	37.38
375.951	-11.78
376.161	37.38
376.372	86.53
376.582	47.62
376.793	86.53
377.003	23.04
377.214	8.7
377.424	12.8
377.635	78.33
377.845	35.33
378.055	72.19
378.266	4.61
378.476	96.77
378.686	61.95
378.897	29.18
379.107	133.63
379.317	115.2
379.528	-32.26
379.738	111.1
379.948	49.66
380.158	117.25
380.369	55.81
380.579	55.81
380.789	41.47
380.999	53.76
381.21	86.53
381.42	37.38
381.63	10.75
381.84	143.87
382.05	37.38
382.261	102.91
382.471	94.72
382.681	47.62
382.891	94.72
383.101	41.47
383.311	23.04
383.521	55.81
383.731	76.29
383.941	37.38
384.151	47.62
384.361	6.66
384.571	27.14
384.781	29.18
384.991	107.01
385.201	98.81
385.411	107.01
385.621	64
385.831	84.48
386.041	135.68
386.251	90.62
386.461	74.24
386.671	88.57
386.881	31.23
387.091	53.76
387.301	29.18
387.511	88.57
387.72	86.53
387.93	94.72
388.14	-50.69
388.35	72.19
388.56	100.86
388.769	127.49
388.979	45.57
389.189	-36.35
389.399	88.57
389.609	-1.54
389.818	111.1
390.028	-11.78
390.238	55.81
390.447	14.85
390.657	39.42
390.867	18.94
391.076	66.05
391.286	20.99
391.496	39.42
391.705	41.47
391.915	102.91
392.125	94.72
392.334	160.25
392.544	156.16
392.753	94.72
392.963	20.99
393.172	94.72
393.382	84.48
393.591	141.82
393.801	123.39
394.01	55.81
394.22	64
394.429	61.95
394.639	0.51
394.848	111.1
395.058	92.67
395.267	47.62
395.477	84.48
395.686	109.05
395.895	129.53
396.105	217.6
396.314	111.1
396.524	59.9
396.733	88.57
396.942	72.19
397.152	129.53
397.361	53.76
397.57	129.53
397.78	107.01
397.989	143.87
398.198	123.39
398.407	160.25
398.617	74.24
398.826	119.29
399.035	102.91
399.244	53.76
399.453	121.34
399.663	88.57
399.872	145.92
400.081	117.25
400.29	162.3
400.499	113.15
400.708	76.29
400.917	80.38
401.127	78.33
401.336	154.11
401.545	180.73
401.754	145.92
401.963	219.64
402.172	90.62
402.381	72.19
402.59	111.1
402.799	100.86
403.008	119.29
403.217	133.63
403.426	178.69
403.635	43.52
403.844	217.6
404.053	115.2
404.262	127.49
404.471	143.87
404.68	168.45
404.888	113.15
405.097	111.1
405.306	176.64
405.515	139.77
405.724	86.53
405.933	158.21
406.142	119.29
406.35	197.12
406.559	193.02
406.768	102.91
406.977	252.41
407.185	152.06
407.394	203.26
407.603	174.59
407.812	252.41
408.02	207.36
408.229	219.64
408.438	158.21
408.646	205.31
408.855	307.71
409.064	250.36
409.272	276.99
409.481	334.33
409.69	283.13
409.898	262.65
410.107	330.23
410.315	293.37
410.524	332.28
410.733	307.71
410.941	348.67
411.15	471.54
411.358	348.67
411.567	414.2
411.775	406.01
411.984	438.78
412.192	432.63
412.401	465.4
412.609	459.26
412.818	504.31
413.026	479.74
413.234	545.27
413.443	434.68
413.651	590.33
413.86	584.18
414.068	520.7
414.276	602.61
414.485	635.38
414.693	668.15
414.901	659.96
415.11	647.67
415.318	735.73
415.526	795.12
415.734	721.4
415.943	793.08
416.151	766.45
416.359	807.41
416.567	874.99
416.776	836.08
416.984	956.91
417.192	987.63
417.4	909.81
417.608	938.48
417.817	1006.06
418.025	1049.07
418.233	1176.05
418.441	1159.66
418.649	1190.38
418.857	1331.69
419.065	1225.2
419.273	1192.43
419.481	1315.31
419.689	1481.19
419.897	1384.94
420.105	1444.33
420.313	1487.34
420.521	1610.22
420.729	1577.45
420.937	1647.08
421.145	1788.39
421.353	1839.59
421.561	1905.12
421.769	1860.07
421.977	2015.71
422.185	2068.96
422.393	2130.4
422.601	2367.96
422.809	2212.32
423.017	2240.99
423.224	2417.12
423.432	2370.01
423.64	2513.37
423.848	2695.64
424.056	2609.62
424.263	2847.19
424.471	2867.67
424.679	2892.24
424.887	3088.85
425.094	3176.91
425.302	3209.68
425.51	3201.49
425.718	3439.05
425.925	3338.7
426.133	3520.97
426.341	3781.06
426.548	3764.68
426.756	3940.8
426.964	3854.79
427.171	4102.59
427.379	4286.91
427.586	4241.86
427.794	4477.37
428.001	4534.71
428.209	4903.35
428.417	4602.3
428.624	5026.23
428.832	4889.01
429.039	5005.75
429.247	5124.53
429.454	5470.64
429.662	5937.57
429.869	5550.51
430.076	5894.57
430.284	5603.75
430.491	5849.51
430.699	6353.31
430.906	6400.41
431.114	6422.94
431.321	6730.14
431.528	6762.9
431.736	7197.07
431.943	7356.82
432.15	7303.57
432.358	7393.68
432.565	7733.64
432.772	7778.7
432.979	8135.04
433.187	8188.29
433.394	8200.58
433.601	8972.66
433.808	8817.02
434.016	8796.54
434.223	9105.78
434.43	9720.17
434.637	9394.54
434.844	10047.85
435.052	10293.6
435.259	10150.25
435.466	10393.95
435.673	10352.99
435.88	10877.27
436.087	11456.85
436.294	11573.58
436.501	11307.35
436.708	11694.41
436.915	11956.55
437.122	12464.45
437.329	12480.83
437.537	12736.83
437.743	12878.14
437.95	12919.1
438.157	13519.15
438.364	13848.88
438.571	13850.92
438.778	13947.18
438.985	15626.51
439.192	14866.72
439.399	14897.44
439.606	14788.89
439.813	15657.23
440.02	16535.81
440.227	16224.52
440.433	16038.16
440.64	16773.38
440.847	16337.16
441.054	16875.77
441.261	17914.09
441.467	17905.9
441.674	18133.23
441.881	18796.77
442.088	18700.51
442.294	18460.9
442.501	19103.96
442.708	19456.22
442.914	20447.43
443.121	21049.53
443.328	20361.42
443.534	21745.84
443.741	21190.84
443.948	21039.29
444.154	22413.48
444.361	22599.85
444.568	22640.81
444.774	22411.43
444.981	22847.65
445.187	23666.84
445.394	24641.67
445.6	24348.81
445.807	26335.34
446.013	25348.22
446.22	25956.47
446.426	27109.47
446.633	27058.28
446.839	28002.39
447.046	27091.04
447.252	28387.41
447.459	28553.29
447.665	28117.07
447.871	29470.78
448.078	30703.66
448.284	29235.27
448.491	30064.69
448.697	31160.36
448.903	32030.74
449.11	32088.09
449.316	31475.74
449.522	31985.69
449.728	32823.31
449.935	33148.93
450.141	33112.07
450.347	34033.66
450.553	32958.47
450.76	33280
450.966	34326.52
451.172	33908.73
451.378	34652.14
451.584	34185.21
451.791	35141.61
451.997	34856.94
452.203	35643.36
452.409	35598.3
452.615	35379.17
452.821	33726.46
453.027	33523.71
453.233	36038.62
453.44	34488.31
453.646	34584.56
453.852	34691.05
454.058	35383.27
454.264	34084.86
454.47	35239.91
454.676	34334.71
454.882	35465.19
455.088	32649.23
455.294	33234.95
455.5	33237
455.705	33380.35
455.911	32434.19
456.117	31600.67
456.323	31246.37
456.529	29829.18
456.735	31307.81
456.941	30685.23
457.147	30048.31
457.352	28966.98
457.558	28545.1
457.764	28489.81
457.97	28160.08
458.176	27670.62
458.381	27940.95
458.587	26359.92
458.793	26208.37
458.999	25108.61
459.204	26898.53
459.41	25745.53
459.616	24203.41
459.821	24066.19
460.027	24158.35
460.233	23689.37
460.438	22866.08
460.644	23054.5
460.85	21631.16
461.055	21512.38
461.261	21289.15
461.466	19898.58
461.672	19202.27
461.878	20760.77
462.083	19476.69
462.289	19134.68
462.494	18579.68
462.7	17682.67
462.905	17643.76
463.111	18184.43
463.316	17793.26
463.522	17641.71
463.727	17817.84
463.932	17676.53
464.138	17537.27
464.343	17715.44
464.549	17207.55
464.754	17637.62
464.959	17332.47
465.165	17445.11
465.37	16558.34
465.575	16228.62
465.781	16660.74
465.986	16754.94
466.191	16079.11
466.397	16064.78
466.602	14979.36
466.807	15614.23
467.012	15814.93
467.218	15606.03
467.423	15202.58
467.628	15870.22
467.833	16304.39
468.038	15483.16
468.244	15210.78
468.449	15902.99
468.654	15370.52
468.859	15132.95
469.064	14993.69
469.269	14686.5
469.474	14639.39
469.679	15061.27
469.885	14397.73
470.09	14428.45
470.295	14483.75
470.5	14113.06
470.705	14405.92
470.91	14070.06
471.115	13750.57
471.32	13947.18
471.525	13857.07
471.73	13668.66
471.935	13648.18
472.139	13179.19
472.344	13304.12
472.549	12996.92
472.754	13037.88
472.959	12728.64
473.164	12628.29
473.369	12276.04
473.574	12929.34
473.778	12579.14
473.983	12482.88
474.188	12394.82
474.393	11940.17
474.598	12167.49
474.802	11899.21
475.007	11739.47
475.212	11759.95
475.417	11467.09
475.621	11415.89
475.826	11512.14
476.031	11268.44
476.235	11022.68
476.44	11338.07
476.645	11063.64
476.849	10924.38
477.054	11071.83
477.259	10635.61
477.463	10643.81
477.668	10525.02
477.872	10533.22
478.077	10172.77
478.282	9900.39
478.486	10131.81
478.691	10189.16
478.895	10051.94
479.1	9773.42
479.304	9838.95
479.509	9537.9
479.713	9662.83
479.918	9609.58
480.122	9476.46
480.326	9582.96
480.531	9701.74
480.735	9429.36
480.94	9261.43
481.144	9740.65
481.348	9150.84
481.553	9343.35
481.757	9015.67
481.961	9107.83
482.166	9271.67
482.37	9220.47
482.574	9060.73
482.778	9007.48
482.983	9351.54
483.187	9025.91
483.391	9036.15
483.595	8941.94
483.8	9167.22
484.004	9081.21
484.208	9218.42
484.412	9044.34
484.616	9204.08
484.821	9257.33
485.025	8851.83
485.229	9120.12
485.433	9240.95
485.637	9023.86
485.841	9136.5
486.045	9204.08
486.249	9163.12
486.453	9144.69
486.657	9124.21
486.861	9081.21
487.065	8937.85
487.269	9134.45
487.473	8733.05
487.677	9089.4
487.881	9255.28
488.085	9142.64
488.289	9042.29
488.493	8884.6
488.697	9116.02
488.901	9185.65
489.105	9206.13
489.309	9199.99
489.512	9312.63
489.716	8966.52
489.92	9146.74
490.124	9208.18
490.328	9367.92
490.531	9372.02
490.735	9386.35
490.939	9326.96
491.143	9365.87
491.346	9122.16
491.55	9646.44
491.754	9537.9
491.958	9476.46
492.161	9574.77
492.365	9548.14
492.569	9630.06
492.772	9623.92
492.976	9560.43
493.18	9634.16
493.383	9765.23
493.587	9836.91
493.79	10140.01
493.994	9800.04
494.197	9924.97
494.401	10133.86
494.605	9972.07
494.808	10291.55
495.012	10219.88
495.215	10441.06
495.419	10312.03
495.622	10121.57
495.825	10404.19
496.029	10301.79
496.232	10703.2
496.436	10627.42
496.639	11051.35
496.843	10914.14
497.046	11231.57
497.249	10998.1
497.453	11235.67
497.656	11243.86
497.859	11348.31
498.063	11213.14
498.266	11610.45
498.469	11739.47
498.673	11718.99
498.876	12061
499.079	12276.04
499.282	12132.68
499.485	12497.22
499.689	12552.51
499.892	12566.85
500.095	12702.01
500.298	12972.35
500.501	12589.38
500.705	13103.42
500.908	13316.4
501.111	13416.76
501.314	13613.36
501.517	13662.51
501.72	13889.84
501.923	13748.53
502.126	14186.79
502.329	14569.76
502.532	14510.37
502.735	14473.51
502.938	14774.56
503.141	14700.83
503.344	15122.71
503.547	15272.21
503.75	15270.17
503.953	15567.12
504.156	15612.18
504.359	15733.01
504.562	15868.17
504.765	16242.95
504.968	16302.34
505.17	16318.73
505.373	16492.8
505.576	16961.79
505.779	17246.46
505.982	17152.25
506.185	17621.24
506.387	17596.66
506.59	17768.69
506.793	17905.9
506.996	17871.09
507.198	18288.87
507.401	18333.93
507.604	18411.75
507.807	18970.85
508.009	19077.34
508.212	19038.43
508.415	19296.47
508.617	19581.14
508.82	19824.85
509.022	19845.33
509.225	20127.95
509.428	20132.04
509.63	20611.27
509.833	20574.41
510.035	21422.27
510.238	20850.88
510.44	21369.02
510.643	21792.95
510.845	21792.95
511.048	21686.45
511.25	21887.15
511.453	22257.84
511.655	22722.73
511.858	22659.24
512.06	22747.3
512.262	23001.25
512.465	23091.36
512.667	23543.96
512.87	23963.79
513.072	23912.6
513.274	24459.4
513.477	24404.11
513.679	24529.03
513.881	24907.91
514.084	25120.9
514.286	25008.26
514.488	25364.6
514.69	25917.56
514.893	26099.83
515.095	26423.4
515.297	26474.6
515.499	26540.14
515.701	26959.97
515.904	27148.39
516.106	27326.56
516.308	27455.58
516.51	27818.07
516.712	27762.78
516.914	28223.57
517.116	28753.99
517.318	28418.13
517.52	28239.95
517.722	28817.48
517.925	29421.63
518.127	29997.11
518.329	29956.15
518.531	29812.79
518.733	30689.32
518.935	30629.93
519.136	30582.83
519.338	30910.5
519.54	31119.4
519.742	31176.74
519.944	31643.68
520.146	32237.59
520.348	32053.27
520.55	31944.73
520.752	32366.61
520.954	32729.1
521.155	32532.5
521.357	33404.93
521.559	33638.4
521.761	34072.57
521.963	34197.49
522.164	34140.15
522.366	34084.86
522.568	34473.97
522.77	34562.03
522.971	35106.79
523.173	34846.7
523.375	35387.36
523.576	35530.72
523.778	35528.67
523.98	35583.97
524.181	36087.77
524.383	36306.9
524.584	36388.82
524.786	36569.04
524.988	36782.03
525.189	37101.51
525.391	36986.83
525.592	37113.8
525.794	37504.96
525.995	36970.44
526.197	37265.35
526.398	37357.51
526.6	37871.55
526.801	38008.76
527.003	38240.18
527.204	37869.5
527.406	38553.52
527.607	38705.07
527.808	38922.16
528.01	38504.37
528.211	38444.98
528.412	39286.7
528.614	38977.45
528.815	39090.09
529.016	39307.18
529.218	38942.64
529.419	39114.67
529.62	39473.06
529.822	39202.73
530.023	39471.01
530.224	39249.83
530.425	39432.1
530.626	39401.38
530.828	39024.56
531.029	40030.11
531.23	39825.31
531.431	39792.54
531.632	39974.81
531.833	39802.78
532.035	40003.49
532.236	39694.24
532.437	39911.33
532.638	39731.11
532.839	40210.33
533.04	40075.16
533.241	39692.19
533.442	40826.77
533.643	40216.47
533.844	39937.95
534.045	40656.79
534.246	39892.9
534.447	40427.42
534.648	39831.46
534.849	39761.83
535.05	39950.24
535.251	40638.36
535.451	40282.01
535.652	40351.64
535.853	40085.4
536.054	40265.63
536.255	40445.85
536.456	39794.59
536.657	40695.7
536.857	40226.71
537.058	39899.04
537.259	40488.85
537.46	40421.27
537.66	40157.08
537.861	40535.96
538.062	40384.41
538.263	40038.3
538.463	39696.29
538.664	40107.93
538.865	40159.13
539.065	40486.81
539.266	39864.22
539.466	40294.3
539.667	39479.21
539.868	40327.06
540.068	40124.32
540.269	40116.12
540.469	40384.41
540.67	39880.61
540.87	40036.25
541.071	40134.56
541.271	40347.54
541.472	40279.96
541.672	39843.74
541.873	39665.57
542.073	39239.59
542.274	40109.98
542.474	39821.22
542.675	39847.84
542.875	40126.36
543.075	39829.41
543.276	39520.16
543.476	40118.17
543.676	39806.88
543.877	40009.63
544.077	39962.53
544.277	39593.89
544.478	39876.51
544.678	40318.87
544.878	39874.46
545.078	40189.85
545.279	39720.87
545.479	39681.95
545.679	40097.69
545.879	39974.81
546.079	39827.36
546.28	39632.8
546.48	39421.86
546.68	39995.29
546.88	39892.9
547.08	40167.32
547.28	39507.88
547.48	39305.13
547.68	39958.43
547.88	39380.9
548.081	40026.01
548.281	39428.01
548.481	39655.33
548.681	39995.29
548.881	39514.02
549.081	39569.32
549.28	39305.13
549.48	39634.85
549.68	39489.45
549.88	39544.74
550.08	39489.45
550.28	39499.69
550.48	39292.84
550.68	39698.34
550.88	39067.56
551.08	39735.2
551.279	39516.07
551.479	39227.31
551.679	39587.75
551.879	39387.05
552.079	39356.33
552.278	39032.75
552.478	39022.51
552.678	39206.83
552.878	39311.27
553.077	39409.57
553.277	38887.34
553.477	39458.73
553.676	39131.05
553.876	38897.58
554.076	39002.03
554.275	39411.62
554.475	38608.82
554.674	39143.34
554.874	39036.84
555.074	38807.47
555.273	38963.12
555.473	39094.19
555.672	38768.56
555.872	38825.9
556.071	39047.08
556.271	38979.5
556.47	38567.86
556.67	38619.06
556.869	38739.89
557.068	38551.48
557.268	38426.55
557.467	38891.44
557.667	38373.3
557.866	38639.54
558.065	38565.81
558.265	38389.69
558.464	38324.15
558.663	38649.78
558.863	37840.83
559.062	38418.36
559.261	37625.79
559.461	38383.54
559.66	37912.51
559.859	38014.91
560.058	37597.12
560.258	38027.2
560.457	37754.82
560.656	38178.75
560.855	37531.59
561.054	38057.92
561.253	37234.63
561.453	37828.54
561.652	37683.14
561.851	37750.72
562.05	37429.19
562.249	37353.41
562.448	37808.06
562.647	37750.72
562.846	37369.8
563.045	37490.63
563.244	37066.7
563.443	37398.47
563.642	36669.39
563.841	37050.31
564.04	36538.32
564.239	37033.93
564.438	36523.99
564.637	37007.31
564.836	37042.12
565.035	36655.06
565.234	37113.8
565.432	36325.33
565.631	36472.79
565.83	36343.77
566.029	36110.3
566.228	36046.81
566.427	36120.54
566.625	36181.98
566.824	35766.24
567.023	36368.34
567.222	35848.16
567.42	36179.93
567.619	35885.02
567.818	35702.75
568.016	35454.95
568.215	36141.02
568.414	35543.01
568.612	35899.36
568.811	35385.32
569.01	35506.15
569.208	34732.01
569.407	35500
569.605	35022.83
569.804	35225.57
570.002	34736.11
570.201	34867.18
570.4	34699.25
570.598	34707.44
570.797	34228.21
570.995	34492.4
571.193	34482.16
571.392	34834.41
571.59	34478.07
571.789	34478.07
571.987	34041.85
572.186	33888.25
572.384	34260.98
572.582	34516.98
572.781	34576.37
572.979	33521.66
573.177	33753.08
573.376	33939.45
573.574	33345.54
573.772	34136.06
573.971	33634.3
574.169	33695.74
574.367	33468.42
574.565	33292.29
574.763	33486.85
574.962	33239.04
575.16	32653.33
575.358	33216.52
575.556	33013.77
575.754	33097.73
575.952	32671.76
576.151	33103.88
576.349	32675.85
576.547	32395.28
576.745	32540.69
576.943	32819.21
577.141	32489.49
577.339	32454.67
577.537	32348.18
577.735	32204.82
577.933	31838.23
578.131	31893.53
578.329	31868.95
578.527	31787.03
578.725	32049.17
578.923	32053.27
579.121	31584.29
579.319	31629.34
579.516	31494.18
579.714	31381.54
579.912	31510.56
580.11	31428.64
580.308	31397.92
580.506	31223.84
580.704	30672.94
580.901	31164.45
581.099	31297.57
581.297	30685.23
581.495	30726.19
581.692	30576.69
581.89	30257.2
582.088	30984.23
582.285	30134.32
582.483	30851.11
582.681	30554.16
582.878	30140.47
583.076	30150.71
583.274	30431.28
583.471	29765.69
583.669	29888.57
583.866	29638.72
584.064	29976.63
584.262	29734.97
584.459	29923.38
584.657	29327.42
584.854	29593.66
585.052	29198.4
585.249	29753.4
585.447	29386.82
585.644	28803.14
585.841	29147.2
586.039	29450.3
586.236	28842.06
586.434	29116.48
586.631	28747.85
586.828	28631.12
587.026	28534.86
587.223	28598.35
587.42	28311.63
587.618	28600.4
587.815	28366.93
588.012	28344.4
588.21	28160.08
588.407	28541
588.604	28012.63
588.801	27904.09
588.999	27844.7
589.196	28098.64
589.393	27701.34
589.59	27521.12
589.787	27668.57
589.984	27592.79
590.182	27449.44
590.379	27746.39
590.576	27205.73
590.773	27498.59
590.97	27144.29
591.167	27111.52
591.364	26540.14
591.561	27013.22
591.758	26699.88
591.955	26615.91
592.152	26699.88
592.349	26658.92
592.546	26542.19
592.743	26308.72
592.94	25933.94
593.137	26310.77
593.334	26271.86
593.531	25839.73
593.727	26271.86
593.924	25991.28
594.121	26052.72
594.318	26077.3
594.515	25550.97
594.712	25974.9
594.908	25725.05
595.105	25532.54
595.302	25168
595.499	25606.27
595.696	25188.48
595.892	25102.46
596.089	25356.41
596.286	25268.35
596.482	25057.41
596.679	25131.14
596.876	25043.07
597.072	24776.84
597.269	24928.39
597.466	24662.15
597.662	24705.16
597.859	24537.23
598.055	24774.79
598.252	24019.09
598.448	24395.92
598.645	24674.44
598.841	24201.36
599.038	24043.67
599.234	24322.19
599.431	23935.12
599.627	23830.68
599.824	24088.72
600.02	23722.13
600.217	23656.6
600.413	23509.15
600.609	23713.94
600.806	23343.26
601.002	23537.82
601.198	23531.67
601.395	23476.38
601.591	23199.9
601.787	23128.22
601.984	23144.61
602.18	23474.33
602.376	23052.45
602.572	22966.43
602.769	22671.53
602.965	22628.52
603.161	22493.35
603.357	22687.91
603.553	22681.77
603.75	22640.81
603.946	22333.61
604.142	22534.31
604.338	22208.69
604.534	22309.04
604.73	22257.84
604.926	21823.67
605.122	22077.62
605.318	21942.45
605.514	21881.01
605.71	21555.38
605.906	21674.17
606.102	21747.89
606.298	21760.18
606.494	21754.04
606.69	21782.71
606.886	21514.42
607.082	21366.97
607.278	21575.86
607.474	21000.38
607.67	21291.2
607.866	20981.95
608.062	21510.33
608.257	21115.07
608.453	21201.08
608.649	21162.17
608.845	20820.16
609.041	20893.89
609.236	20900.03
609.432	20887.75
609.628	20836.55
609.824	20687.04
610.019	20310.22
610.215	20639.94
610.411	20922.56
610.606	20566.21
610.802	20517.06
610.998	20680.9
611.193	20517.06
611.389	20361.42
611.584	20308.17
611.78	20078.8
611.976	20326.6
612.171	20574.41
612.367	20310.22
612.562	20168.91
612.758	20003.02
612.953	19917.01
613.149	20322.51
613.344	19894.48
613.539	20285.64
613.735	19980.5
613.93	20013.26
614.126	19837.14
614.321	20185.29
614.517	20029.65
614.712	19841.23
614.907	19546.33
615.103	19687.64
615.298	19726.55
615.493	20095.18
615.688	19302.62
615.884	19824.85
616.079	19370.2
616.274	19654.87
616.47	19699.92
616.665	19423.45
616.86	19325.15
617.055	19263.71
617.25	19380.44
617.445	19497.17
617.641	18970.85
617.836	19286.23
618.031	18884.83
618.226	19271.9
618.421	18852.06
618.616	19085.53
618.811	18702.56
619.006	18919.65
619.201	18637.03
619.396	18639.08
619.591	18508.01
619.786	18708.71
619.981	18391.27
620.176	18260.2
620.371	18256.11
620.566	18419.94
620.761	18096.36
620.956	18129.13
621.151	17953.01
621.346	17754.35
621.541	17637.62
621.735	17881.33
621.93	17553.65
622.125	17447.16
622.32	17441.01
622.515	17391.86
622.709	17047.8
622.904	17074.43
623.099	17103.1
623.294	16994.56
623.488	16810.24
623.683	17092.86
623.878	16609.54
624.072	16744.7
624.267	16726.27
624.462	16468.23
624.656	16199.94
624.851	16523.52
625.046	16357.64
625.24	16111.88
625.435	16457.99
625.629	16232.71
625.824	15950.09
626.018	15943.95
626.213	15489.3
626.407	15698.19
626.602	15421.72
626.796	15737.1
626.991	15337.75
627.185	15167.77
627.38	15096.09
627.574	15178.01
627.768	14895.39
627.963	14983.45
628.157	14844.19
628.352	14934.3
628.546	14655.78
628.74	14790.94
628.935	14547.23
629.129	14498.08
629.323	14338.34
629.517	14467.36
629.712	14244.13
629.906	14070.06
630.1	14143.78
630.294	14086.44
630.489	14033.19
630.683	14063.91
630.877	13803.82
631.071	13658.42
631.265	13519.15
631.459	13762.86
631.653	13570.35
631.848	13463.86
632.042	13091.13
632.236	13304.12
632.43	12996.92
632.624	13209.91
632.818	13484.34
633.012	13019.45
633.206	13062.46
633.4	12857.66
633.594	12826.94
633.788	12943.67
633.982	12538.18
634.176	12663.1
634.369	12448.07
634.563	12640.58
634.757	12294.47
634.951	12486.98
635.145	12495.17
635.339	12319.04
635.533	12374.34
635.726	12353.86
635.92	12120.39
636.114	12194.12
636.308	12032.33
636.501	11981.13
636.695	11745.61
636.889	11958.6
637.083	11731.28
637.276	11794.76
637.47	11614.54
637.664	11702.61
637.857	11428.18
638.051	11555.15
638.244	11428.18
638.438	11221.33
638.632	11235.67
638.825	11098.45
639.019	11254.1
639.212	11037.02
639.406	11010.39
639.599	10994.01
639.793	10793.31
639.986	10778.97
640.18	10754.4
640.373	10617.18
640.567	10721.63
640.76	10672.48
640.954	10572.13
641.147	10459.49
641.34	10457.44
641.534	10541.41
641.727	10408.29
641.92	10101.09
642.114	10211.68
642.307	10375.52
642.5	10260.84
642.694	9877.87
642.887	10045.8
643.08	10033.51
643.273	10066.28
643.467	9916.78
643.66	9785.71
643.853	9664.88
644.046	9693.55
644.239	9449.84
644.432	9470.32
644.626	9601.39
644.819	9656.68
645.012	9550.19
645.205	9576.81
645.398	9310.58
645.591	9351.54
645.784	9472.37
645.977	9091.45
646.17	9138.55
646.363	9226.61
646.556	8972.66
646.749	9222.52
646.942	9056.63
647.135	8860.02
647.328	8968.57
647.521	8640.89
647.714	8640.89
647.907	8921.46
648.099	8577.41
648.292	8831.35
648.485	8706.43
648.678	8462.72
648.871	8573.31
649.064	8573.31
649.256	8323.46
649.449	8468.86
649.642	8151.43
649.835	8081.8
650.027	8374.66
650.22	8073.6
650.413	8272.26
650.605	8233.35
650.798	7975.3
650.991	8108.42
651.183	7913.86
651.376	7909.77
651.568	7975.3
651.761	7938.44
651.954	7704.97
652.146	7786.89
652.339	7864.71
652.531	7590.28
652.724	7637.39
652.916	7336.34
653.109	7442.83
653.301	7567.76
653.494	7614.86
653.686	7434.64
653.879	7479.69
654.071	7559.56
654.263	7385.49
654.456	7156.11
654.648	7403.92
654.84	7100.82
655.033	7256.47
655.225	7158.16
655.417	6918.55
655.61	7078.29
655.802	7014.8
655.994	7002.52
656.186	7039.38
656.379	6951.32
656.571	6920.6
656.763	6885.78
656.955	6832.54
657.148	6816.15
657.34	6838.68
657.532	6566.3
657.724	6562.2
657.916	6662.55
658.108	6492.57
658.3	6398.37
658.492	6504.86
658.684	6541.72
658.876	6566.3
659.068	6541.72
659.26	6500.76
659.452	6508.96
659.644	6183.33
659.836	6412.7
660.028	6381.98
660.22	6066.6
660.412	6234.53
660.604	6121.89
660.796	6281.63
660.988	6052.26
661.18	6023.59
661.372	6205.86
661.563	6019.49
661.755	5906.85
661.947	6039.97
662.139	5947.81
662.331	5732.78
662.522	5765.54
662.714	5777.83
662.906	5804.46
663.097	5820.84
663.289	5611.95
663.481	5464.49
663.673	5751.21
663.864	5687.72
664.056	5505.45
664.247	5599.66
664.439	5548.46
664.631	5642.67
664.822	5497.26
665.014	5607.85
665.205	5452.2
665.397	5386.67
665.588	5360.05
665.78	5312.94
665.971	5292.46
666.163	5370.29
666.354	5360.05
666.546	5220.78
666.737	5048.75
666.929	5231.02
667.12	5190.06
667.311	5161.39
667.503	5099.95
667.694	5065.14
667.885	5145.01
668.077	5093.81
668.268	4919.73
668.459	4954.55
668.651	4870.58
668.842	4862.39
669.033	4790.71
669.224	4714.94
669.416	4874.68
669.607	4854.2
669.798	4698.55
669.989	4829.62
670.18	4694.46
670.371	4676.02
670.563	4649.4
670.754	4633.02
670.945	4676.02
671.136	4501.95
671.327	4667.83
671.518	4577.72
671.709	4602.3
671.9	4710.84
672.091	4544.95
672.282	4338.11
672.473	4395.45
672.664	4534.71
672.855	4379.07
673.046	4516.28
673.237	4436.41
673.428	4331.97
673.619	4479.42
673.809	4469.18
674	4145.6
674.191	4397.5
674.382	4297.15
674.573	4190.66
674.764	4233.66
674.954	4248
675.145	4170.18
675.336	4149.7
675.527	4125.12
675.717	4282.81
675.908	4174.27
676.099	3979.72
676.289	4166.08
676.48	4149.7
676.671	4139.46
676.861	4049.35
677.052	3873.22
677.243	3940.8
677.433	3942.85
677.624	4016.58
677.814	3985.86
678.005	3905.99
678.195	4043.2
678.386	3850.69
678.576	3756.49
678.767	3944.9
678.957	3899.84
679.148	3992
679.338	3985.86
679.529	3715.53
679.719	3879.36
679.909	3791.3
680.1	3723.72
680.29	3572.17
680.481	3770.82
680.671	3766.73
680.861	3690.95
681.052	3789.25
681.242	3609.03
681.432	3649.99
681.622	3740.1
681.813	3502.54
682.003	3656.14
682.193	3647.94
682.383	3588.55
682.573	3504.59
682.764	3551.69
682.954	3623.37
683.144	3572.17
683.334	3477.96
683.524	3561.93
683.714	3613.13
683.904	3463.63
684.094	3635.66
684.284	3572.17
684.474	3408.33
684.664	3494.35
684.854	3369.42
685.044	3555.79
685.234	3330.51
685.424	3318.22
685.614	3258.83
685.804	3338.7
685.994	3406.28
686.184	3297.74
686.374	3342.8
686.564	3340.75
686.753	3332.56
686.943	3228.11
687.133	3258.83
687.323	3320.27
687.513	3281.36
687.702	3252.69
687.892	3215.82
688.082	3209.68
688.272	3242.45
688.461	3217.87
688.651	3207.63
688.841	3115.47
689.03	3133.9
689.22	3103.18
689.41	3070.42
689.599	3019.22
689.789	3062.23
689.979	2888.15
690.168	3078.61
690.358	2984.4
690.547	3060.18
690.737	2875.86
690.926	2896.34
691.116	2820.56
691.305	3023.31
691.495	2888.15
691.684	2869.72
691.874	2961.87
692.063	2863.57
692.252	2884.05
692.442	2937.3
692.631	2740.69
692.82	2941.4
693.01	2892.24
693.199	2873.81
693.388	2888.15
693.578	2845.14
693.767	2767.32
693.956	2830.8
694.146	2857.43
694.335	2777.56
694.524	2767.32
694.713	2636.25
694.902	2722.26
695.092	2603.48
695.281	2740.69
695.47	2789.85
695.659	2793.94
695.848	2642.39
696.037	2675.16
696.226	2630.1
696.415	2677.21
696.604	2707.93
696.793	2593.24
696.982	2621.91
697.171	2724.31
697.36	2560.47
697.549	2527.71
697.738	2589.14
697.927	2523.61
698.116	2642.39
698.305	2548.19
698.494	2601.43
698.683	2413.02
698.872	2611.67
699.061	2511.32
699.25	2449.88
699.438	2484.7
699.627	2458.07
699.816	2496.99
700.005	2388.44
700.193	2468.31
700.382	2462.17
700.571	2380.25
700.76	2478.55
700.948	2378.2
701.137	2421.21
701.326	2503.13
701.514	2327
701.703	2423.26
701.892	2423.26
702.08	2357.72
702.269	2474.46
702.457	2468.31
702.646	2421.21
702.834	2363.87
703.023	2404.83
703.212	2456.03
703.4	2425.31
703.589	2306.52
703.777	2419.16
703.965	2294.24
704.154	2351.58
704.342	2318.81
704.531	2349.53
704.719	2339.29
704.907	2392.54
705.096	2382.3
705.284	2177.5
705.472	2316.76
705.661	2322.91
705.849	2335.2
706.037	2298.33
706.226	2320.86
706.414	2290.14
706.602	2185.69
706.79	2390.49
706.979	2388.44
707.167	2322.91
707.355	2169.31
707.543	2314.72
707.731	2339.29
707.919	2302.43
708.107	2240.99
708.296	2251.23
708.484	2247.13
708.672	2327
708.86	2341.34
709.048	2202.08
709.236	2175.45
709.424	2185.69
709.612	2314.72
709.8	2224.61
709.988	2216.41
710.176	2234.85
710.364	2251.23
710.551	2191.84
710.739	2372.06
710.927	2179.55
711.115	2324.96
711.303	2232.8
711.491	2275.81
711.679	2279.9
711.866	2157.02
712.054	2204.13
712.242	2259.42
712.43	2269.66
712.617	2234.85
712.805	2339.29
712.993	2281.95
713.181	2179.55
713.368	2224.61
713.556	2284
713.744	2290.14
713.931	2269.66
714.119	2195.93
714.306	2300.38
714.494	2318.81
714.682	2224.61
714.869	2056.67
715.057	2210.27
715.244	2046.43
715.432	2146.78
715.619	2286.05
715.807	2130.4
715.994	2193.89
716.182	2224.61
716.369	2185.69
716.556	2339.29
716.744	2171.36
716.931	2134.5
717.119	2169.31
717.306	2236.89
717.493	2163.17
717.681	2202.08
717.868	2140.64
718.055	2105.82
718.242	2275.81
718.43	2181.6
718.617	2220.51
718.804	2146.78
718.991	2152.93
719.179	2161.12
719.366	2171.36
719.553	2230.75
719.74	2095.58
719.927	2122.21
720.114	2107.87
720.301	2226.65
720.488	2101.73
720.676	2103.78
720.863	2052.58
721.05	2167.26
721.237	2003.43
721.424	2107.87
721.611	2118.11
721.798	2126.3
721.985	2075.1
722.172	2093.54
722.358	2103.78
722.545	2134.5
722.732	2120.16
722.919	2234.85
723.106	2064.86
723.293	2138.59
723.48	2224.61
723.667	2138.59
723.853	2191.84
724.04	2097.63
724.227	2175.45
724.414	2134.5
724.6	2208.22
724.787	2150.88
724.974	2163.17
725.161	2167.26
725.347	2116.06
725.534	2159.07
725.72	2052.58
725.907	2200.03
726.094	2159.07
726.28	1950.18
726.467	2087.39
726.653	2105.82
726.84	2089.44
727.027	2111.97
727.213	2044.38
727.4	2114.02
727.586	2109.92
727.773	2073.06
727.959	2071.01
728.145	2077.15
728.332	2109.92
728.518	2138.59
728.705	2114.02
728.891	2095.58
729.077	2052.58
729.264	2028
729.45	2087.39
729.636	2134.5
729.823	2085.34
730.009	2124.26
730.195	2146.78
730.382	2077.15
730.568	1997.28
730.754	2085.34
730.94	2066.91
731.126	2036.19
731.313	2126.3
731.499	2093.54
731.685	2005.47
731.871	2060.77
732.057	2073.06
732.243	2052.58
732.429	2036.19
732.615	2021.86
732.801	2087.39
732.987	2085.34
733.173	1946.08
733.359	1987.04
733.545	2060.77
733.731	1997.28
733.917	2017.76
734.103	2064.86
734.289	2142.69
734.475	2034.14
734.661	2136.54
734.847	2028
735.033	2060.77
735.219	2040.29
735.404	2085.34
735.59	1941.99
735.776	2044.38
735.962	2036.19
736.148	2073.06
736.333	1978.85
736.519	2034.14
736.705	2044.38
736.89	1964.51
737.076	2071.01
737.262	2038.24
737.447	1972.71
737.633	1978.85
737.819	1968.61
738.004	1919.46
738.19	1962.47
738.375	2052.58
738.561	2048.48
738.747	1872.36
738.932	1882.6
739.118	1997.28
739.303	1968.61
739.489	2032.1
739.674	1939.94
739.859	1962.47
740.045	1956.32
740.23	1884.64
740.416	1917.41
740.601	2005.47
740.786	1901.03
740.972	1868.26
741.157	1884.64
741.342	1862.12
741.528	1724.9
741.713	2003.43
741.898	1964.51
742.084	1896.93
742.269	1962.47
742.454	2109.92
742.639	2036.19
742.824	1839.59
743.01	1864.16
743.195	1980.9
743.38	1937.89
743.565	1741.29
743.75	1929.7
743.935	1849.83
744.12	1888.74
744.305	1761.77
744.49	1763.81
744.675	1755.62
744.86	1743.33
745.045	1749.48
745.23	1731.05
745.415	1780.2
745.6	1878.5
745.785	1593.83
745.97	1737.19
746.155	1722.85
746.34	1724.9
746.525	1802.72
746.71	1712.61
746.895	1731.05
747.079	1716.71
747.264	1642.98
747.449	1792.48
747.634	1792.48
747.819	1716.71
748.003	1522.15
748.188	1692.13
748.373	1743.33
748.557	1620.46
748.742	1712.61
748.927	1620.46
749.111	1585.64
749.296	1540.58
749.481	1530.34
749.665	1595.88
749.85	1470.95
750.034	1581.54
750.219	1610.22
750.404	1552.87
750.588	1479.15
750.773	1489.39
750.957	1491.43
751.141	1522.15
751.326	1548.78
751.51	1552.87
751.695	1440.23
751.879	1540.58
752.064	1491.43
752.248	1429.99
752.432	1429.99
752.617	1561.06
752.801	1378.79
752.985	1413.61
753.17	1483.24
753.354	1442.28
753.538	1429.99
753.722	1356.27
753.907	1311.21
754.091	1368.56
754.275	1352.17
754.459	1380.84
754.643	1438.19
754.828	1331.69
755.012	1333.74
755.196	1276.4
755.38	1319.4
755.564	1245.68
755.748	1309.16
755.932	1231.34
756.116	1307.12
756.3	1307.12
756.484	1210.86
756.668	1307.12
756.852	1192.43
757.036	1186.29
757.22	1217.01
757.404	1192.43
757.588	1180.14
757.772	1167.85
757.956	1169.9
758.14	1192.43
758.323	1063.41
758.507	1153.52
758.691	1143.28
758.875	1098.22
759.059	1110.51
759.242	1106.42
759.426	1120.75
759.61	1210.86
759.794	1085.94
759.977	1194.48
760.161	1155.57
760.345	1024.5
760.528	1102.32
760.712	961.01
760.895	1102.32
761.079	1141.23
761.263	1004.02
761.446	1020.4
761.63	1143.28
761.813	1032.69
761.997	1038.83
762.18	1102.32
762.364	1059.31
762.547	973.3
762.731	963.06
762.914	1006.06
763.098	1028.59
763.281	1038.83
763.464	1090.03
763.648	971.25
763.831	932.34
764.015	1063.41
764.198	969.2
764.381	973.3
764.564	1047.02
764.748	913.91
764.931	995.82
765.114	971.25
765.297	979.44
765.481	881.14
765.664	979.44
765.847	907.76
766.03	995.82
766.213	985.58
766.397	915.95
766.58	893.43
766.763	915.95
766.946	954.87
767.129	932.34
767.312	887.28
767.495	930.29
767.678	961.01
767.861	918
768.044	840.18
768.227	891.38
768.41	883.19
768.593	879.09
768.776	881.14
768.959	887.28
769.142	946.67
769.324	801.27
769.507	868.85
769.69	815.6
769.873	956.91
770.056	926.19
770.239	887.28
770.421	920.05
770.604	840.18
770.787	834.04
770.97	821.75
771.152	831.99
771.335	891.38
771.518	842.23
771.7	831.99
771.883	885.23
772.066	803.32
772.248	922.1
772.431	823.8
772.613	825.84
772.796	782.84
772.978	743.92
773.161	825.84
773.343	803.32
773.526	762.36
773.708	748.02
773.891	793.08
774.073	719.35
774.256	705.01
774.438	784.88
774.621	803.32
774.803	776.69
774.985	768.5
775.168	721.4
775.35	758.26
775.532	776.69
775.715	774.64
775.897	795.12
776.079	641.53
776.261	748.02
776.444	745.97
776.626	760.31
776.808	725.49
776.99	662.01
777.173	692.73
777.355	659.96
777.537	680.44
777.719	729.59
777.901	705.01
778.083	672.25
778.265	639.48
778.447	723.44
778.629	678.39
778.811	741.88
778.993	629.24
779.175	594.42
779.357	631.29
779.539	518.65
779.721	688.63
779.903	627.19
780.085	612.85
780.267	692.73
780.449	545.27
780.631	619
780.812	569.85
780.994	508.41
781.176	598.52
781.358	594.42
781.54	592.37
781.721	516.6
781.903	645.62
782.085	561.66
782.267	586.23
782.448	571.9
782.63	504.31
782.812	627.19
782.993	463.35
783.175	537.08
783.357	500.22
783.538	565.75
783.72	496.12
783.901	489.98
784.083	545.27
784.264	528.89
784.446	520.7
784.627	432.63
784.809	489.98
784.99	459.26
785.172	508.41
785.353	573.94
785.535	418.3
785.716	475.64
785.897	479.74
786.079	430.59
786.26	430.59
786.441	418.3
786.623	381.43
786.804	440.83
786.985	455.16
787.167	469.5
787.348	463.35
787.529	406.01
787.71	418.3
787.891	365.05
788.073	385.53
788.254	348.67
788.435	401.91
788.616	471.54
788.797	336.38
788.978	381.43
789.159	397.82
789.34	438.78
789.522	395.77
789.703	430.59
789.884	440.83
790.065	397.82
790.246	430.59
790.427	373.24
790.607	391.67
790.788	408.06
790.969	340.47
791.15	399.87
791.331	262.65
791.512	375.29
791.693	293.37
791.874	309.76
792.054	365.05
792.235	406.01
792.416	334.33
792.597	268.8
792.778	285.18
792.958	299.52
793.139	287.23
793.32	348.67
793.5	307.71
793.681	399.87
793.862	340.47
794.042	338.43
794.223	299.52
794.404	334.33
794.584	340.47
794.765	311.8
794.945	397.82
795.126	258.56
795.306	340.47
795.487	236.03
795.667	305.66
795.848	270.84
796.028	219.64
796.209	283.13
796.389	289.28
796.57	303.61
796.75	225.79
796.93	340.47
797.111	313.85
797.291	233.98
797.471	190.97
797.652	250.36
797.832	256.51
798.012	352.76
798.192	233.98
798.373	221.69
798.553	268.8
798.733	262.65
798.913	283.13
799.093	272.89
799.274	287.23
799.454	344.57
799.634	156.16
799.814	274.94
799.994	270.84
800.174	303.61
800.354	242.17
800.534	244.22
800.714	307.71
800.894	279.04
801.074	233.98
801.254	229.88
801.434	295.42
801.614	262.65
801.794	184.83
801.974	834.04
802.154	180.73
802.334	317.95
802.514	252.41
802.693	246.27
802.873	201.21
803.053	270.84
803.233	221.69
803.413	215.55
803.592	250.36
803.772	186.88
803.952	219.64
804.131	193.02
804.311	229.88
804.491	266.75
804.67	244.22
804.85	133.63
805.03	227.84
805.209	291.32
805.389	221.69
805.568	170.49
805.748	219.64
805.928	115.2
806.107	213.5
806.287	168.45
806.466	242.17
806.646	188.93
806.825	246.27
807.004	195.07
807.184	160.25
807.363	324.09
807.543	197.12
807.722	213.5
807.901	201.21
808.081	154.11
808.26	225.79
808.439	193.02
808.619	147.97
808.798	147.97
808.977	217.6
809.156	178.69
809.336	135.68
809.515	242.17
809.694	129.53
809.873	217.6
810.052	141.82
810.231	199.16
810.411	193.02
810.59	182.78
810.769	184.83
810.948	164.35
811.127	53.76
811.306	203.26
811.485	82.43
811.664	244.22
811.843	160.25
812.022	137.73
812.201	154.11
812.38	197.12
812.559	109.05
812.737	156.16
812.916	107.01
813.095	139.77
813.274	156.16
813.453	133.63
813.632	168.45
813.811	225.79
813.989	129.53
814.168	254.46
814.347	152.06
814.526	193.02
814.704	84.48
814.883	178.69
815.062	135.68
815.24	74.24
815.419	107.01
815.598	88.57
815.776	143.87
815.955	209.4
816.133	143.87
816.312	164.35
816.49	14.85
816.669	98.81
816.847	113.15
817.026	225.79
817.204	92.67
817.383	70.14
817.561	104.96
817.74	197.12
817.918	115.2
818.097	121.34
818.275	123.39
818.453	176.64
818.632	109.05
818.81	168.45
818.988	72.19
819.167	127.49
819.345	98.81
819.523	102.91
819.701	86.53
819.879	125.44
820.058	127.49
820.236	127.49
820.414	121.34
820.592	70.14
820.77	82.43
820.948	123.39
821.127	31.23
821.305	86.53
821.483	90.62
821.661	152.06
821.839	121.34
822.017	72.19
822.195	111.1
822.373	225.79
822.551	139.77
822.729	131.58
822.907	78.33
823.085	123.39
823.262	78.33
823.44	27.14
823.618	113.15
823.796	107.01
823.974	152.06
824.152	201.21
824.329	47.62
824.507	152.06
824.685	127.49
824.863	133.63
825.04	119.29
825.218	156.16
825.396	98.81
825.574	94.72
825.751	80.38
825.929	170.49
826.107	18.94
826.284	168.45
826.462	115.2
826.639	139.77
826.817	45.57
826.994	143.87
827.172	20.99
827.349	160.25
827.527	117.25
827.704	96.77
827.882	53.76
828.059	164.35
828.237	33.28
828.414	37.38
828.591	94.72
828.769	143.87
828.946	-24.06
829.124	64
829.301	80.38
829.478	111.1
829.655	90.62
829.833	96.77
830.01	88.57
830.187	78.33
830.364	86.53
830.542	37.38
830.719	152.06
830.896	78.33
831.073	88.57
831.25	172.54
831.427	94.72
831.604	98.81
831.782	121.34
831.959	135.68
832.136	-9.73
832.313	33.28
832.49	74.24
832.667	70.14
832.844	31.23
833.021	70.14
833.198	88.57
833.374	29.18
833.551	72.19
833.728	12.8
833.905	78.33
834.082	53.76
834.259	74.24
834.436	47.62
834.612	80.38
834.789	88.57
834.966	55.81
835.143	154.11
835.319	47.62
835.496	86.53
835.673	94.72
835.85	119.29
836.026	-7.68
836.203	55.81
836.38	-34.3
836.556	139.77
836.733	41.47
836.909	125.44
837.086	12.8
837.262	25.09
837.439	55.81
837.616	102.91
837.792	86.53
837.968	78.33
838.145	-19.97
838.321	33.28
838.498	57.86
838.674	94.72
838.851	53.76
839.027	127.49
839.203	4.61
839.38	72.19
839.556	86.53
839.732	123.39
839.909	76.29
840.085	57.86
840.261	47.62
840.437	0.51
840.614	4.61
840.79	115.2
840.966	8.7
841.142	55.81
841.318	12.8
841.494	31.23
841.671	31.23
841.847	72.19
842.023	-5.63
842.199	111.1
842.375	119.29
842.551	-28.16
842.727	4.61
842.903	70.14
843.079	-3.58
843.255	109.05
843.431	16.9
843.607	78.33
843.783	-3.58
843.959	59.9
844.134	29.18
844.31	78.33
844.486	8.7
844.662	94.72
844.838	4.61
845.013	102.91
845.189	80.38
845.365	94.72
845.541	49.66
845.716	96.77
845.892	68.09
846.068	61.95
846.244	4.61
846.419	41.47
846.595	59.9
846.77	20.99
846.946	80.38
847.122	49.66
847.297	25.09
847.473	102.91
847.648	45.57
847.824	16.9
847.999	53.76
848.175	37.38
848.35	14.85
848.526	74.24
848.701	45.57
848.876	86.53
849.052	-1.54
849.227	0.51
849.403	27.14
849.578	78.33
849.753	94.72
849.929	162.3
850.104	-3.58
850.279	107.01
850.454	94.72
850.63	39.42
850.805	33.28
850.98	64
851.155	29.18
851.33	104.96
851.505	8.7
851.681	74.24
851.856	29.18
852.031	61.95
852.206	0.51
852.381	-58.88
852.556	61.95
852.731	-1.54
852.906	68.09
853.081	55.81
853.256	33.28
853.431	29.18
853.606	10.75
853.781	29.18
853.956	57.86
854.131	53.76
854.305	2.56
854.48	14.85
854.655	16.9
854.83	27.14
855.005	39.42
855.18	68.09
855.354	64
855.529	43.52
855.704	18.94
855.879	82.43
856.053	-52.74
856.228	12.8
856.403	-11.78
856.577	94.72
856.752	41.47
856.926	61.95
857.101	80.38
857.276	0.51
857.45	8.7
857.625	6.66
857.799	-24.06
857.974	29.18
858.148	-13.82
858.323	4.61
858.497	12.8
858.672	-36.35
858.846	10.75
859.02	55.81
859.195	-85.5
859.369	-19.97
859.543	20.99
859.718	53.76
859.892	-60.93
860.066	-13.82
860.241	51.71
860.415	-22.02
860.589	37.38
860.763	31.23
860.938	37.38
861.112	102.91
861.286	61.95
861.46	27.14
861.634	20.99
861.808	70.14
861.982	29.18
862.157	-17.92
862.331	45.57
862.505	-11.78
862.679	-50.69
862.853	96.77
863.027	68.09
863.201	78.33
863.375	-1.54
863.549	39.42
863.722	20.99
863.896	4.61
864.07	39.42
864.244	49.66
864.418	45.57
864.592	-19.97
864.766	49.66
864.939	107.01
865.113	-26.11
865.287	16.9
865.461	-11.78
865.634	102.91
865.808	53.76
865.982	8.7
866.156	47.62
866.329	-3.58
866.503	55.81
866.676	102.91
866.85	88.57
867.024	-73.21
867.197	23.04
867.371	29.18
867.544	20.99
867.718	12.8
867.891	82.43
868.065	-15.87
868.238	66.05
868.412	-26.11
868.585	29.18
868.759	90.62
868.932	-13.82
869.105	43.52
869.279	23.04
869.452	-9.73
869.625	139.77
869.799	45.57
869.972	-9.73
870.145	12.8
870.319	8.7
870.492	39.42
870.665	0.51
870.838	-11.78
871.011	-1.54
871.185	-81.41
871.358	-19.97
871.531	45.57
871.704	33.28
871.877	16.9
872.05	-22.02
872.223	4.61
872.396	39.42
872.569	29.18
872.742	-1.54
872.915	6.66
873.088	72.19
873.261	-101.89
873.434	33.28
873.607	80.38
873.78	102.91
873.953	-56.83
874.126	43.52
874.299	74.24
874.471	29.18
874.644	12.8
874.817	-5.63
874.99	37.38
875.163	61.95
875.335	70.14
875.508	2.56
875.681	64
875.853	20.99
876.026	-11.78
876.199	80.38
876.371	47.62
876.544	41.47
876.717	23.04
876.889	-9.73
877.062	35.33
877.234	-36.35
877.407	-83.45
877.579	-40.45
877.752	41.47
877.924	-32.26
878.097	86.53
878.269	49.66
878.442	-36.35
878.614	47.62
878.786	61.95
878.959	45.57
879.131	29.18
879.303	12.8
879.476	37.38
879.648	68.09
879.82	-34.3
879.993	4.61
880.165	47.62
880.337	0.51
880.509	94.72
880.681	-75.26
880.854	-1.54
881.026	14.85
881.198	2.56
881.37	-28.16
881.542	20.99
881.714	2.56
881.886	-1.54
882.058	90.62
882.23	-13.82
882.402	31.23
882.574	49.66
882.746	57.86
882.918	64
883.09	-9.73
883.262	-3.58
883.434	33.28
883.606	-28.16
883.778	39.42
883.95	29.18
884.122	16.9
884.293	72.19
884.465	4.61
884.637	45.57
884.809	31.23
884.98	20.99
885.152	53.76
885.324	25.09
885.496	27.14
885.667	31.23
885.839	33.28
886.011	25.09
886.182	-40.45
886.354	55.81
886.525	-48.64
886.697	12.8
886.869	53.76
887.04	20.99
887.212	121.34
887.383	37.38
887.555	31.23
887.726	-1.54
887.897	-15.87
888.069	-11.78
888.24	-46.59
888.412	37.38
888.583	20.99
888.754	61.95
888.926	-50.69
889.097	4.61
889.268	-120.32
889.44	-15.87
889.611	-40.45
889.782	-3.58
889.953	6.66
890.125	-1.54
890.296	-3.58
890.467	45.57
890.638	4.61
890.809	31.23
890.98	33.28
891.151	12.8
891.323	53.76
891.494	-11.78
891.665	8.7
891.836	20.99
892.007	-9.73
892.178	-24.06
892.349	-17.92
892.52	27.14
892.691	-36.35
892.862	-42.5
893.032	8.7
893.203	-50.69
893.374	16.9
893.545	61.95
893.716	-11.78
893.887	70.14
894.057	-3.58
894.228	41.47
894.399	37.38
894.57	37.38
894.74	53.76
894.911	37.38
895.082	23.04
895.253	-52.74
895.423	41.47
895.594	12.8
895.764	0.51
895.935	-3.58
896.106	4.61
896.276	-124.41
896.447	37.38
896.617	57.86
896.788	39.42
896.958	-36.35
897.129	88.57
897.299	8.7
897.47	0.51
897.64	49.66
897.81	-1.54
897.981	8.7
898.151	-24.06
898.322	-9.73
898.492	8.7
898.662	-7.68
898.832	-32.26
899.003	29.18
899.173	23.04
899.343	-56.83
899.513	-52.74
