Data from USB4F104151__158__14-44-41-459.txt Node

Date: Thu Mar 13 14:44:41 EDT 2025
User: louis
Spectrometer: USB4F10415
Trigger mode: 4
Integration Time (sec): 2.000000E-2
Scans to average: 1
Electric dark correction enabled: true
Nonlinearity correction enabled: false
Boxcar width: 0
XAxis mode: Wavelengths
Number of Pixels in Spectrum: 3648
>>>>>Begin Spectral Data<<<<<
178.204	-154.62
178.424	-154.62
178.644	-154.62
178.864	-111.61
179.084	-54.27
179.304	33.79
179.524	1.02
179.744	3.07
179.964	46.08
180.184	-101.37
180.404	1.02
180.624	-7.17
180.844	1.02
181.064	-35.84
181.283	84.99
181.503	-23.55
181.723	-3.07
181.943	-3.07
182.163	58.37
182.383	1.02
182.602	50.18
182.822	41.98
183.042	82.94
183.262	-15.36
183.482	-1.02
183.701	-11.26
183.921	74.75
184.141	5.12
184.361	52.22
184.58	-7.17
184.8	17.41
185.02	-27.65
185.239	74.75
185.459	33.79
185.679	54.27
185.898	-54.27
186.118	-7.17
186.338	-19.46
186.557	41.98
186.777	19.46
186.997	13.31
187.216	39.94
187.436	41.98
187.655	19.46
187.875	1.02
188.095	21.5
188.314	29.7
188.534	72.7
188.753	-31.74
188.973	-23.55
189.192	78.85
189.412	56.32
189.631	11.26
189.851	41.98
190.07	66.56
190.29	-41.98
190.509	-23.55
190.729	74.75
190.948	58.37
191.168	134.14
191.387	68.61
191.607	-7.17
191.826	-23.55
192.045	17.41
192.265	13.31
192.484	-15.36
192.704	-7.17
192.923	-52.22
193.142	84.99
193.362	-11.26
193.581	9.22
193.8	33.79
194.02	74.75
194.239	58.37
194.458	46.08
194.678	-23.55
194.897	19.46
195.116	-5.12
195.335	21.5
195.555	3.07
195.774	41.98
195.993	74.75
196.212	-15.36
196.432	-29.7
196.651	-31.74
196.87	-37.89
197.089	156.67
197.308	44.03
197.528	-7.17
197.747	-3.07
197.966	91.13
198.185	111.61
198.404	54.27
198.623	48.13
198.842	-3.07
199.062	82.94
199.281	31.74
199.5	17.41
199.719	25.6
199.938	52.22
200.157	21.5
200.376	60.42
200.595	62.46
200.814	21.5
201.033	-56.32
201.252	-13.31
201.471	52.22
201.69	33.79
201.909	125.95
202.128	21.5
202.347	91.13
202.566	-46.08
202.785	37.89
203.004	-48.13
203.223	27.65
203.442	-31.74
203.661	-7.17
203.879	-19.46
204.098	82.94
204.317	9.22
204.536	58.37
204.755	-54.27
204.974	13.31
205.193	37.89
205.411	-7.17
205.63	-15.36
205.849	103.42
206.068	9.22
206.287	19.46
206.505	21.5
206.724	1.02
206.943	29.7
207.162	41.98
207.381	31.74
207.599	9.22
207.818	9.22
208.037	-48.13
208.255	33.79
208.474	25.6
208.693	5.12
208.911	140.29
209.13	17.41
209.349	80.89
209.567	19.46
209.786	74.75
210.005	35.84
210.223	103.42
210.442	-99.33
210.661	9.22
210.879	15.36
211.098	27.65
211.316	107.52
211.535	60.42
211.753	11.26
211.972	-56.32
212.191	99.33
212.409	7.17
212.628	87.04
212.846	-64.51
213.065	15.36
213.283	58.37
213.502	-3.07
213.72	1.02
213.938	35.84
214.157	-37.89
214.375	52.22
214.594	3.07
214.812	7.17
215.031	1.02
215.249	9.22
215.467	19.46
215.686	-19.46
215.904	31.74
216.122	-7.17
216.341	5.12
216.559	-17.41
216.778	41.98
216.996	74.75
217.214	-11.26
217.432	50.18
217.651	9.22
217.869	-29.7
218.087	9.22
218.306	33.79
218.524	70.65
218.742	-44.03
218.96	52.22
219.179	-41.98
219.397	-13.31
219.615	91.13
219.833	15.36
220.051	37.89
220.27	35.84
220.488	25.6
220.706	27.65
220.924	-3.07
221.142	-1.02
221.36	-7.17
221.578	29.7
221.796	-3.07
222.015	15.36
222.233	-15.36
222.451	78.85
222.669	-29.7
222.887	-41.98
223.105	-84.99
223.323	-31.74
223.541	-1.02
223.759	25.6
223.977	74.75
224.195	64.51
224.413	27.65
224.631	21.5
224.849	-37.89
225.067	82.94
225.285	15.36
225.503	87.04
225.721	13.31
225.939	50.18
226.157	101.37
226.375	84.99
226.592	-11.26
226.81	44.03
227.028	46.08
227.246	82.94
227.464	60.42
227.682	101.37
227.9	54.27
228.117	66.56
228.335	5.12
228.553	41.98
228.771	-46.08
228.989	11.26
229.206	-7.17
229.424	1.02
229.642	37.89
229.86	-29.7
230.077	146.43
230.295	91.13
230.513	-48.13
230.731	72.7
230.948	54.27
231.166	70.65
231.384	-44.03
231.601	-23.55
231.819	41.98
232.037	-60.42
232.254	-48.13
232.472	62.46
232.689	21.5
232.907	70.65
233.125	33.79
233.342	17.41
233.56	-64.51
233.777	-48.13
233.995	-25.6
234.213	37.89
234.43	41.98
234.648	-21.5
234.865	62.46
235.083	-5.12
235.3	33.79
235.518	-15.36
235.735	74.75
235.953	-3.07
236.17	-72.7
236.388	107.52
236.605	-89.09
236.822	140.29
237.04	9.22
237.257	7.17
237.475	-19.46
237.692	1.02
237.909	33.79
238.127	15.36
238.344	66.56
238.562	50.18
238.779	13.31
238.996	-1.02
239.214	-58.37
239.431	29.7
239.648	-23.55
239.865	117.76
240.083	33.79
240.3	58.37
240.517	50.18
240.735	33.79
240.952	-15.36
241.169	82.94
241.386	62.46
241.603	66.56
241.821	-64.51
242.038	15.36
242.255	29.7
242.472	33.79
242.689	58.37
242.907	-21.5
243.124	76.8
243.341	37.89
243.558	58.37
243.775	1.02
243.992	-132.09
244.209	-39.94
244.426	25.6
244.643	78.85
244.86	3.07
245.078	17.41
245.295	60.42
245.512	33.79
245.729	-11.26
245.946	50.18
246.163	27.65
246.38	76.8
246.597	25.6
246.814	-56.32
247.031	17.41
247.248	5.12
247.464	3.07
247.681	-48.13
247.898	54.27
248.115	11.26
248.332	5.12
248.549	50.18
248.766	74.75
248.983	68.61
249.2	58.37
249.417	17.41
249.633	99.33
249.85	25.6
250.067	58.37
250.284	19.46
250.501	74.75
250.717	27.65
250.934	-31.74
251.151	17.41
251.368	-37.89
251.585	107.52
251.801	19.46
252.018	-31.74
252.235	21.5
252.451	9.22
252.668	-31.74
252.885	3.07
253.102	56.32
253.318	41.98
253.535	60.42
253.752	-7.17
253.968	7.17
254.185	-23.55
254.401	9.22
254.618	29.7
254.835	-7.17
255.051	93.18
255.268	140.29
255.484	-5.12
255.701	70.65
255.917	74.75
256.134	39.94
256.351	-48.13
256.567	44.03
256.784	31.74
257	-35.84
257.217	33.79
257.433	74.75
257.65	74.75
257.866	29.7
258.082	13.31
258.299	-15.36
258.515	13.31
258.732	25.6
258.948	-5.12
259.165	56.32
259.381	-15.36
259.597	50.18
259.814	-21.5
260.03	54.27
260.246	35.84
260.463	19.46
260.679	-1.02
260.895	-29.7
261.112	13.31
261.328	48.13
261.544	25.6
261.761	144.38
261.977	33.79
262.193	25.6
262.409	68.61
262.626	33.79
262.842	58.37
263.058	-62.46
263.274	74.75
263.49	140.29
263.707	3.07
263.923	-5.12
264.139	-31.74
264.355	-15.36
264.571	-25.6
264.787	44.03
265.004	54.27
265.22	11.26
265.436	-64.51
265.652	-31.74
265.868	134.14
266.084	33.79
266.3	91.13
266.516	-19.46
266.732	3.07
266.948	54.27
267.164	9.22
267.38	35.84
267.596	46.08
267.812	-3.07
268.028	19.46
268.244	74.75
268.46	52.22
268.676	19.46
268.892	31.74
269.108	-31.74
269.324	1.02
269.54	-21.5
269.756	54.27
269.972	9.22
270.188	50.18
270.403	-29.7
270.619	7.17
270.835	-7.17
271.051	82.94
271.267	35.84
271.483	-33.79
271.698	58.37
271.914	-15.36
272.13	3.07
272.346	-15.36
272.562	109.57
272.777	27.65
272.993	31.74
273.209	5.12
273.425	-23.55
273.64	41.98
273.856	76.8
274.072	11.26
274.287	11.26
274.503	44.03
274.719	-37.89
274.934	41.98
275.15	-19.46
275.366	5.12
275.581	-23.55
275.797	9.22
276.012	-3.07
276.228	-46.08
276.444	13.31
276.659	-13.31
276.875	35.84
277.09	50.18
277.306	-13.31
277.521	50.18
277.737	138.24
277.952	58.37
278.168	9.22
278.383	35.84
278.599	54.27
278.814	60.42
279.03	-66.56
279.245	21.5
279.461	1.02
279.676	31.74
279.892	25.6
280.107	17.41
280.322	39.94
280.538	52.22
280.753	25.6
280.969	84.99
281.184	29.7
281.399	27.65
281.615	1.02
281.83	23.55
282.045	1.02
282.26	25.6
282.476	-82.94
282.691	-7.17
282.906	23.55
283.122	52.22
283.337	41.98
283.552	19.46
283.767	17.41
283.983	50.18
284.198	-13.31
284.413	117.76
284.628	41.98
284.843	46.08
285.058	17.41
285.274	-3.07
285.489	62.46
285.704	76.8
285.919	27.65
286.134	-15.36
286.349	25.6
286.564	-1.02
286.779	54.27
286.995	-31.74
287.21	9.22
287.425	9.22
287.64	25.6
287.855	41.98
288.07	-5.12
288.285	50.18
288.5	21.5
288.715	70.65
288.93	-21.5
289.145	19.46
289.36	19.46
289.575	84.99
289.79	72.7
290.004	37.89
290.219	1.02
290.434	50.18
290.649	-46.08
290.864	35.84
291.079	-1.02
291.294	-3.07
291.509	11.26
291.724	-13.31
291.938	50.18
292.153	-21.5
292.368	95.23
292.583	82.94
292.798	25.6
293.012	3.07
293.227	-11.26
293.442	25.6
293.657	13.31
293.871	9.22
294.086	-46.08
294.301	89.09
294.516	44.03
294.73	-11.26
294.945	-5.12
295.16	-27.65
295.374	107.52
295.589	27.65
295.804	-35.84
296.018	41.98
296.233	46.08
296.447	29.7
296.662	17.41
296.877	-7.17
297.091	-7.17
297.306	17.41
297.52	35.84
297.735	13.31
297.949	13.31
298.164	72.7
298.378	48.13
298.593	33.79
298.807	-23.55
299.022	-17.41
299.236	-19.46
299.451	41.98
299.665	-11.26
299.88	-13.31
300.094	-37.89
300.309	46.08
300.523	119.81
300.737	-13.31
300.952	13.31
301.166	29.7
301.381	-21.5
301.595	37.89
301.809	-72.7
302.024	-15.36
302.238	-15.36
302.452	44.03
302.667	58.37
302.881	58.37
303.095	15.36
303.309	101.37
303.524	58.37
303.738	50.18
303.952	15.36
304.166	41.98
304.381	7.17
304.595	25.6
304.809	-15.36
305.023	93.18
305.237	70.65
305.452	25.6
305.666	3.07
305.88	95.23
306.094	1.02
306.308	54.27
306.522	93.18
306.736	87.04
306.95	70.65
307.164	-19.46
307.379	-31.74
307.593	35.84
307.807	-35.84
308.021	41.98
308.235	62.46
308.449	-48.13
308.663	41.98
308.877	41.98
309.091	50.18
309.305	87.04
309.519	17.41
309.733	48.13
309.947	33.79
310.161	74.75
310.374	-5.12
310.588	-35.84
310.802	-31.74
311.016	-7.17
311.23	-3.07
311.444	84.99
311.658	15.36
311.872	-5.12
312.085	-15.36
312.299	44.03
312.513	128
312.727	93.18
312.941	-11.26
313.154	82.94
313.368	17.41
313.582	-3.07
313.796	15.36
314.009	1.02
314.223	76.8
314.437	37.89
314.651	76.8
314.864	-7.17
315.078	3.07
315.292	11.26
315.505	-9.22
315.719	41.98
315.933	13.31
316.146	9.22
316.36	-23.55
316.573	54.27
316.787	-27.65
317.001	13.31
317.214	60.42
317.428	-23.55
317.641	-17.41
317.855	7.17
318.068	5.12
318.282	62.46
318.495	68.61
318.709	52.22
318.922	11.26
319.136	66.56
319.349	80.89
319.563	-1.02
319.776	-35.84
319.99	78.85
320.203	91.13
320.417	58.37
320.63	89.09
320.843	72.7
321.057	11.26
321.27	-1.02
321.483	46.08
321.697	91.13
321.91	35.84
322.124	156.67
322.337	9.22
322.55	-21.5
322.763	70.65
322.977	99.33
323.19	87.04
323.403	17.41
323.617	66.56
323.83	-29.7
324.043	58.37
324.256	5.12
324.469	-3.07
324.683	41.98
324.896	-39.94
325.109	-33.79
325.322	50.18
325.535	99.33
325.748	17.41
325.962	72.7
326.175	107.52
326.388	78.85
326.601	-3.07
326.814	25.6
327.027	60.42
327.24	74.75
327.453	-25.6
327.666	-19.46
327.879	31.74
328.092	68.61
328.305	95.23
328.518	66.56
328.731	-11.26
328.944	9.22
329.157	54.27
329.37	19.46
329.583	50.18
329.796	39.94
330.009	-7.17
330.222	-11.26
330.435	19.46
330.648	31.74
330.861	17.41
331.073	109.57
331.286	41.98
331.499	1.02
331.712	56.32
331.925	54.27
332.138	37.89
332.35	78.85
332.563	11.26
332.776	-19.46
332.989	-39.94
333.202	58.37
333.414	9.22
333.627	15.36
333.84	-37.89
334.053	107.52
334.265	-1.02
334.478	-27.65
334.691	-15.36
334.903	17.41
335.116	13.31
335.329	35.84
335.541	48.13
335.754	21.5
335.966	41.98
336.179	58.37
336.392	82.94
336.604	25.6
336.817	84.99
337.029	9.22
337.242	66.56
337.454	37.89
337.667	29.7
337.88	115.71
338.092	17.41
338.305	80.89
338.517	29.7
338.729	56.32
338.942	66.56
339.154	21.5
339.367	-13.31
339.579	48.13
339.792	-19.46
340.004	91.13
340.217	13.31
340.429	17.41
340.641	-54.27
340.854	-23.55
341.066	-7.17
341.278	60.42
341.491	76.8
341.703	41.98
341.915	48.13
342.128	89.09
342.34	-54.27
342.552	41.98
342.764	50.18
342.977	46.08
343.189	46.08
343.401	50.18
343.613	9.22
343.826	123.9
344.038	-39.94
344.25	1.02
344.462	52.22
344.674	9.22
344.886	5.12
345.099	33.79
345.311	-27.65
345.523	-7.17
345.735	-23.55
345.947	132.09
346.159	-21.5
346.371	48.13
346.583	50.18
346.795	150.53
347.007	50.18
347.219	17.41
347.431	25.6
347.643	78.85
347.855	19.46
348.067	93.18
348.279	-23.55
348.491	17.41
348.703	19.46
348.915	-11.26
349.127	-46.08
349.339	91.13
349.551	82.94
349.763	56.32
349.975	9.22
350.187	68.61
350.399	62.46
350.61	13.31
350.822	35.84
351.034	76.8
351.246	33.79
351.458	66.56
351.669	33.79
351.881	76.8
352.093	9.22
352.305	-1.02
352.517	-15.36
352.728	-33.79
352.94	33.79
353.152	62.46
353.363	-48.13
353.575	25.6
353.787	99.33
353.999	27.65
354.21	58.37
354.422	27.65
354.633	46.08
354.845	-11.26
355.057	13.31
355.268	103.42
355.48	9.22
355.692	17.41
355.903	-7.17
356.115	17.41
356.326	-15.36
356.538	103.42
356.749	29.7
356.961	41.98
357.172	-7.17
357.384	37.89
357.595	37.89
357.807	50.18
358.018	52.22
358.23	84.99
358.441	27.65
358.653	41.98
358.864	54.27
359.075	58.37
359.287	105.47
359.498	62.46
359.709	7.17
359.921	-3.07
360.132	91.13
360.344	52.22
360.555	25.6
360.766	76.8
360.977	21.5
361.189	-11.26
361.4	-9.22
361.611	41.98
361.823	91.13
362.034	21.5
362.245	-19.46
362.456	25.6
362.667	46.08
362.879	-13.31
363.09	68.61
363.301	9.22
363.512	54.27
363.723	3.07
363.935	25.6
364.146	66.56
364.357	123.9
364.568	93.18
364.779	29.7
364.99	58.37
365.201	5.12
365.412	119.81
365.623	25.6
365.834	-37.89
366.045	11.26
366.256	74.75
366.467	46.08
366.678	70.65
366.889	17.41
367.1	3.07
367.311	25.6
367.522	84.99
367.733	136.19
367.944	93.18
368.155	29.7
368.366	91.13
368.577	15.36
368.788	-15.36
368.999	-31.74
369.209	80.89
369.42	25.6
369.631	66.56
369.842	82.94
370.053	-13.31
370.264	130.05
370.474	3.07
370.685	21.5
370.896	37.89
371.107	123.9
371.317	99.33
371.528	64.51
371.739	3.07
371.95	58.37
372.16	101.37
372.371	-21.5
372.582	-15.36
372.792	50.18
373.003	50.18
373.214	93.18
373.424	44.03
373.635	37.89
373.846	66.56
374.056	41.98
374.267	66.56
374.477	17.41
374.688	60.42
374.898	103.42
375.109	48.13
375.319	17.41
375.53	87.04
375.74	3.07
375.951	66.56
376.161	41.98
376.372	74.75
376.582	23.55
376.793	1.02
377.003	-13.31
377.214	41.98
377.424	39.94
377.635	58.37
377.845	66.56
378.055	-7.17
378.266	-23.55
378.476	66.56
378.686	41.98
378.897	82.94
379.107	25.6
379.317	-39.94
379.528	52.22
379.738	115.71
379.948	33.79
380.158	119.81
380.369	19.46
380.579	41.98
380.789	60.42
380.999	27.65
381.21	46.08
381.42	76.8
381.63	-48.13
381.84	87.04
382.05	21.5
382.261	84.99
382.471	91.13
382.681	144.38
382.891	74.75
383.101	-46.08
383.311	84.99
383.521	9.22
383.731	-3.07
383.941	44.03
384.151	21.5
384.361	5.12
384.571	78.85
384.781	33.79
384.991	80.89
385.201	41.98
385.411	62.46
385.621	31.74
385.831	5.12
386.041	74.75
386.251	15.36
386.461	76.8
386.671	103.42
386.881	50.18
387.091	41.98
387.301	74.75
387.511	76.8
387.72	66.56
387.93	84.99
388.14	9.22
388.35	1.02
388.56	87.04
388.769	35.84
388.979	95.23
389.189	72.7
389.399	91.13
389.609	37.89
389.818	82.94
390.028	5.12
390.238	68.61
390.447	9.22
390.657	37.89
390.867	44.03
391.076	3.07
391.286	-25.6
391.496	48.13
391.705	25.6
391.915	128
392.125	33.79
392.334	11.26
392.544	89.09
392.753	107.52
392.963	-9.22
393.172	58.37
393.382	46.08
393.591	101.37
393.801	1.02
394.01	175.1
394.22	44.03
394.429	50.18
394.639	21.5
394.848	72.7
395.058	62.46
395.267	76.8
395.477	27.65
395.686	101.37
395.895	164.86
396.105	76.8
396.314	95.23
396.524	3.07
396.733	125.95
396.942	66.56
397.152	41.98
397.361	58.37
397.57	60.42
397.78	107.52
397.989	113.66
398.198	168.96
398.407	44.03
398.617	117.76
398.826	56.32
399.035	99.33
399.244	95.23
399.453	52.22
399.663	58.37
399.872	164.86
400.081	117.76
400.29	76.8
400.499	76.8
400.708	58.37
400.917	144.38
401.127	123.9
401.336	72.7
401.545	121.85
401.754	148.48
401.963	99.33
402.172	58.37
402.381	74.75
402.59	117.76
402.799	103.42
403.008	84.99
403.217	82.94
403.426	23.55
403.635	33.79
403.844	138.24
404.053	84.99
404.262	91.13
404.471	113.66
404.68	33.79
404.888	173.05
405.097	84.99
405.306	76.8
405.515	82.94
405.724	109.57
405.933	60.42
406.142	136.19
406.35	99.33
406.559	93.18
406.768	175.1
406.977	125.95
407.185	160.77
407.394	173.05
407.603	175.1
407.812	181.25
408.02	199.68
408.229	160.77
408.438	203.77
408.646	150.53
408.855	168.96
409.064	158.72
409.272	279.55
409.481	271.36
409.69	230.4
409.898	111.61
410.107	197.63
410.315	259.07
410.524	185.34
410.733	207.87
410.941	214.01
411.15	353.27
411.358	242.68
411.567	265.21
411.775	242.68
411.984	322.56
412.192	347.13
412.401	295.93
412.609	314.36
412.818	357.37
413.026	412.67
413.234	394.23
413.443	451.58
413.651	394.23
413.86	418.81
414.068	517.11
414.276	486.39
414.485	476.15
414.693	519.16
414.901	623.61
415.11	517.11
415.318	615.41
415.526	562.17
415.734	574.46
415.943	639.99
416.151	705.53
416.359	635.89
416.567	717.81
416.776	728.05
416.984	795.64
417.192	844.79
417.4	783.35
417.608	721.91
417.817	861.17
418.025	850.93
418.233	943.09
418.441	893.94
418.649	893.94
418.857	1000.43
419.065	1016.82
419.273	959.47
419.481	1020.91
419.689	1135.6
419.897	1111.02
420.105	1156.08
420.313	1170.41
420.521	1299.44
420.729	1256.43
420.937	1305.58
421.145	1356.78
421.353	1371.12
421.561	1430.51
421.769	1487.85
421.977	1547.24
422.185	1606.63
422.393	1647.59
422.601	1676.26
422.809	1688.55
423.017	1786.85
423.224	1809.38
423.432	1864.68
423.64	2016.23
423.848	2098.14
424.056	1987.55
424.263	2218.97
424.471	2065.38
424.679	2239.45
424.887	2296.8
425.094	2319.32
425.302	2384.86
425.51	2462.68
425.718	2624.47
425.925	2622.42
426.133	2792.41
426.341	2726.87
426.548	2821.08
426.756	2880.47
426.964	2931.67
427.171	3255.25
427.379	3331.02
427.586	3255.25
427.794	3392.46
428.001	3638.22
428.209	3752.9
428.417	3699.66
428.624	3980.23
428.832	3769.29
429.039	3935.17
429.247	3902.4
429.454	4195.26
429.662	4484.03
429.869	4285.37
430.076	4580.28
430.284	4355.01
430.491	4692.92
430.699	4805.56
430.906	4867
431.114	4907.96
431.321	4944.82
431.528	5211.06
431.736	5630.89
431.943	5784.49
432.15	5673.9
432.358	5688.23
432.565	6140.83
432.772	5944.23
432.979	6173.6
433.187	6359.97
433.394	6474.65
433.601	6892.44
433.808	6769.56
434.016	6833.05
434.223	7130
434.43	7605.13
434.637	7306.13
434.844	7934.85
435.052	8045.45
435.259	8053.64
435.466	8049.54
435.673	7957.38
435.88	8465.28
436.087	8663.93
436.294	8989.56
436.501	8756.09
436.708	8731.51
436.915	9253.75
437.122	9728.88
437.329	9452.4
437.537	9751.4
437.743	10015.59
437.95	9976.68
438.157	10406.75
438.364	10703.71
438.571	10851.16
438.778	10875.74
438.985	11819.85
439.192	11549.52
439.399	11713.36
439.606	11514.7
439.813	12081.99
440.02	12993.34
440.227	12405.57
440.433	12530.5
440.64	12931.9
440.847	12684.09
441.054	13116.22
441.261	13951.79
441.467	13861.68
441.674	13943.6
441.881	14615.33
442.088	14394.15
442.294	14451.49
442.501	14840.61
442.708	15039.26
442.914	15690.51
443.121	16147.21
443.328	15760.14
443.534	16890.62
443.741	16466.69
443.948	16384.77
444.154	17591.03
444.361	17453.81
444.568	17451.77
444.774	17427.19
444.981	17621.75
445.187	18031.34
445.394	18926.3
445.6	18858.72
445.807	20576.97
446.013	19524.31
446.22	19978.96
446.426	20826.82
446.633	20980.42
446.839	21490.36
447.046	20599.49
447.252	21920.43
447.459	21889.71
447.665	21713.59
447.871	22729.38
448.078	23415.45
448.284	22637.22
448.491	23032.48
448.697	24113.81
448.903	24652.42
449.11	24717.96
449.316	24003.22
449.522	24906.37
449.728	25623.16
449.935	25797.24
450.141	25506.43
450.347	26145.39
450.553	25467.52
450.76	25379.45
450.966	26362.48
451.172	26298.99
451.378	27099.75
451.584	26448.49
451.791	26788.46
451.997	26989.16
452.203	27271.78
452.409	27583.07
452.615	27447.9
452.821	26434.16
453.027	26012.28
453.233	27525.72
453.44	26450.54
453.646	26626.67
453.852	26940
454.058	26890.85
454.264	26632.81
454.47	27308.64
454.676	26153.58
454.882	27376.22
455.088	24699.53
455.294	25391.74
455.5	25627.26
455.705	25942.64
455.911	24881.8
456.117	24449.67
456.323	23898.77
456.529	22868.64
456.735	24068.75
456.941	23192.22
457.147	22887.07
457.352	22356.65
457.558	21979.82
457.764	22063.79
457.97	21945.01
458.176	21234.36
458.381	21367.48
458.587	20050.64
458.793	20230.86
458.999	19155.68
459.204	20642.5
459.41	19841.75
459.616	18815.71
459.821	18776.8
460.027	18578.15
460.233	17898.22
460.438	17500.92
460.644	17369.85
460.85	16853.76
461.055	16386.82
461.261	16380.68
461.466	15102.75
461.672	14902.04
461.878	15833.87
462.083	14998.3
462.289	14578.47
462.494	14256.93
462.7	13648.69
462.905	13511.47
463.111	13740.85
463.316	13882.16
463.522	13638.45
463.727	13460.27
463.932	13558.58
464.138	13460.27
464.343	13550.39
464.549	13042.49
464.754	13476.66
464.959	13452.08
465.165	13286.2
465.37	12708.67
465.575	12393.28
465.781	13009.72
465.986	12786.49
466.191	12512.07
466.397	12141.38
466.602	11805.52
466.807	12223.3
467.012	12215.11
467.218	12059.46
467.423	11928.39
467.628	12028.74
467.833	12325.7
468.038	11891.53
468.244	11625.29
468.449	12024.65
468.654	11789.13
468.859	11631.44
469.064	11594.58
469.269	11217.75
469.474	11238.23
469.679	11412.31
469.885	11258.71
470.09	11373.39
470.295	11144.02
470.5	10933.08
470.705	11123.54
470.91	10793.82
471.115	10675.04
471.32	10713.95
471.525	11012.95
471.73	10460
471.935	10464.1
472.139	10199.91
472.344	10093.41
472.549	10060.65
472.754	10113.89
472.959	9751.4
473.164	9704.3
473.369	9735.02
473.574	9921.38
473.778	9601.9
473.983	9495.41
474.188	9616.24
474.393	9061.24
474.598	9143.16
474.802	9116.53
475.007	8975.22
475.212	9139.06
475.417	8702.84
475.621	8854.39
475.826	8973.18
476.031	8584.06
476.235	8545.15
476.44	8555.39
476.645	8405.89
476.849	8371.07
477.054	8184.71
477.259	8063.88
477.463	8219.52
477.668	8016.77
477.872	8233.86
478.077	7912.33
478.282	7680.91
478.486	8063.88
478.691	7629.71
478.895	7424.91
479.1	7496.59
479.304	7504.78
479.509	7304.08
479.713	7588.75
479.918	7373.71
480.122	7091.09
480.326	7265.17
480.531	7271.31
480.735	7416.72
480.94	7138.2
481.144	7496.59
481.348	7295.89
481.553	7146.39
481.757	7009.17
481.961	7113.62
482.166	7324.56
482.37	7228.31
482.574	6908.82
482.778	6968.21
482.983	7048.08
483.187	7046.04
483.391	7199.63
483.595	7005.08
483.8	6843.29
484.004	7082.9
484.208	6933.4
484.412	7123.86
484.616	7058.32
484.821	7154.58
485.025	6851.48
485.229	7023.51
485.433	6998.93
485.637	7039.89
485.841	6935.45
486.045	6910.87
486.249	7031.7
486.453	6925.21
486.657	7062.42
486.861	6988.69
487.065	6747.03
487.269	7023.51
487.473	6861.72
487.677	6955.93
487.881	7033.75
488.085	6951.83
488.289	6890.39
488.493	6884.25
488.697	6978.45
488.901	6955.93
489.105	7027.6
489.309	7066.52
489.512	7039.89
489.716	6998.93
489.92	7050.13
490.124	7033.75
490.328	7299.98
490.531	7111.57
490.735	7113.62
490.939	7209.87
491.143	7127.96
491.346	7197.59
491.55	7390.1
491.754	7304.08
491.958	7297.94
492.161	7357.33
492.365	7390.1
492.569	7402.38
492.772	7230.35
492.976	7472.01
493.18	7369.62
493.383	7424.91
493.587	7662.48
493.79	7646.09
493.994	7549.84
494.197	7615.37
494.401	7922.57
494.605	7811.98
494.808	7889.8
495.012	7992.2
495.215	7926.66
495.419	8035.21
495.622	7908.23
495.825	8156.04
496.029	8098.69
496.232	8164.23
496.436	8225.67
496.639	8307.59
496.843	8360.83
497.046	8813.43
497.249	8758.14
497.453	8663.93
497.656	8704.89
497.859	8670.08
498.063	8942.46
498.266	8831.87
498.469	9028.47
498.673	9186.16
498.876	9266.03
499.079	9376.62
499.282	9397.1
499.485	9720.68
499.689	9415.54
499.892	9808.75
500.095	9855.85
500.298	9888.62
500.501	9808.75
500.705	10210.15
500.908	10294.11
501.111	10312.55
501.314	10644.32
501.517	10584.93
501.72	10711.9
501.923	10619.74
502.126	11027.29
502.329	10928.99
502.532	11129.69
502.735	11311.96
502.938	11371.35
503.141	11537.23
503.344	11893.58
503.547	11813.71
503.75	11797.32
503.953	12034.89
504.156	12159.81
504.359	12424
504.562	12323.65
504.765	12636.99
504.968	12700.48
505.17	12845.88
505.373	12788.54
505.576	13177.65
505.779	13169.46
505.982	13540.15
506.185	13470.51
506.387	13611.82
506.59	13767.47
506.793	13894.44
506.996	14187.3
507.198	14439.2
507.401	14193.45
507.604	14318.37
507.807	14773.02
508.009	15100.7
508.212	14801.69
508.415	15381.27
508.617	15551.25
508.82	15387.41
509.022	15455
509.225	15737.62
509.428	15991.56
509.63	16089.87
509.833	15987.47
510.035	16773.89
510.238	16431.88
510.44	16827.14
510.643	16898.81
510.845	16999.16
511.048	17029.88
511.25	17230.59
511.453	17328.89
511.655	17822.45
511.858	17701.62
512.06	18164.46
512.262	18297.58
512.465	18203.37
512.667	18381.54
512.87	18817.76
513.072	18621.16
513.274	19184.35
513.477	19483.35
513.679	19598.04
513.881	19835.6
514.084	19962.58
514.286	19808.98
514.488	20142.8
514.69	20447.94
514.893	20480.71
515.095	20828.87
515.297	21119.68
515.499	21162.69
515.701	21267.13
515.904	21410.49
516.106	21459.64
516.308	21969.58
516.51	22080.18
516.712	22143.66
516.914	22532.78
517.116	22784.68
517.318	23003.81
517.52	22778.53
517.722	23311
517.925	23380.64
518.127	23671.45
518.329	24066.7
518.531	23618.2
518.733	24322.7
518.935	24625.8
519.136	24701.58
519.338	24785.54
519.54	24846.98
519.742	25369.21
519.944	25193.09
520.146	26081.91
520.348	26063.47
520.55	26018.42
520.752	26382.96
520.954	26622.57
521.155	26507.88
521.357	26964.58
521.559	27208.29
521.761	27488.86
521.963	27697.75
522.164	27722.33
522.366	27914.84
522.568	27996.76
522.77	28252.75
522.971	28777.03
523.173	28551.76
523.375	28672.59
523.576	28623.44
523.778	28953.16
523.98	29266.5
524.181	29508.16
524.383	29481.53
524.584	29917.75
524.786	29973.05
524.988	29821.5
525.189	30116.4
525.391	30429.74
525.592	30636.59
525.794	30278.19
525.995	31144.48
526.197	30825
526.398	30818.86
526.6	31058.47
526.801	31351.33
527.003	31005.22
527.204	31373.86
527.406	31881.75
527.607	31654.43
527.808	31644.19
528.01	31693.34
528.211	32348.69
528.412	32520.72
528.614	32272.92
528.815	32272.92
529.016	32391.7
529.218	32533.01
529.419	32727.56
529.62	32625.17
529.822	32854.54
530.023	32829.96
530.224	32958.99
530.425	32625.17
530.626	32535.06
530.828	32619.02
531.029	33241.6
531.23	32928.27
531.431	33231.36
531.632	33128.97
531.833	33475.07
532.035	33038.86
532.236	33157.64
532.437	33448.45
532.638	33438.21
532.839	33610.24
533.04	33655.29
533.241	33206.79
533.442	33716.73
533.643	33710.59
533.844	33573.38
534.045	33692.16
534.246	33614.34
534.447	33577.47
534.648	33831.42
534.849	33755.64
535.05	33479.17
535.251	34136.57
535.451	33753.6
535.652	33942.01
535.853	33776.12
536.054	33989.11
536.255	33825.28
536.456	33673.73
536.657	34218.49
536.857	33776.12
537.058	33610.24
537.259	33839.61
537.46	33882.62
537.66	33626.62
537.861	33837.56
538.062	33780.22
538.263	33800.7
538.463	33747.45
538.664	33980.92
538.865	33944.06
539.065	33968.63
539.266	33704.45
539.466	34081.27
539.667	33968.63
539.868	34073.08
540.068	33749.5
540.269	33733.12
540.469	34171.38
540.67	33784.32
540.87	33501.7
541.071	33419.78
541.271	34148.85
541.472	33688.06
541.672	33354.24
541.873	33528.32
542.073	33374.72
542.274	33786.36
542.474	33464.83
542.675	33460.74
542.875	33671.68
543.075	33614.34
543.276	33454.59
543.476	33821.18
543.676	33481.22
543.877	34017.78
544.077	33792.51
544.277	33647.1
544.478	33413.63
544.678	33624.57
544.878	33499.65
545.078	33749.5
545.279	33020.42
545.479	33233.41
545.679	33352.2
545.879	33409.54
546.079	33456.64
546.28	33274.37
546.48	33053.19
546.68	33536.51
546.88	33483.27
547.08	33513.98
547.28	33503.74
547.48	33284.61
547.68	33413.63
547.88	33049.1
548.081	33550.85
548.281	33516.03
548.481	33319.43
548.681	33511.94
548.881	33321.48
549.081	33448.45
549.28	33149.45
549.48	33534.46
549.68	33135.11
549.88	33423.87
550.08	33024.52
550.28	33274.37
550.48	33311.24
550.68	33321.48
550.88	33004.04
551.08	33137.16
551.279	33202.69
551.479	32973.32
551.679	33278.47
551.879	33274.37
552.079	33257.99
552.278	33135.11
552.478	33165.83
552.678	33165.83
552.878	33206.79
553.077	33217.03
553.277	32764.43
553.477	33585.66
553.676	33157.64
553.876	32864.78
554.076	33118.73
554.275	33026.57
554.475	32662.03
554.674	33155.59
554.874	32967.18
555.074	32692.75
555.273	33061.38
555.473	32967.18
555.672	32451.09
555.872	32457.23
556.071	32885.26
556.271	32770.57
556.47	32565.78
556.67	32145.94
556.869	32610.83
557.068	32801.29
557.268	32377.36
557.467	32625.17
557.667	32547.34
557.866	32330.26
558.065	32344.59
558.265	32047.64
558.464	32166.42
558.663	32246.29
558.863	32002.58
559.062	32547.34
559.261	31588.89
559.461	32047.64
559.66	31607.33
559.859	31857.18
560.058	31638.05
560.258	32209.43
560.457	31289.89
560.656	32191
560.855	31822.36
561.054	31533.6
561.253	31531.55
561.453	31582.75
561.652	31650.33
561.851	31568.41
562.05	31349.28
562.249	31373.86
562.448	31310.37
562.647	31179.3
562.846	30908.97
563.045	31277.6
563.244	30812.71
563.443	31382.05
563.642	30544.43
563.841	31144.48
564.04	30794.28
564.239	31197.73
564.438	30452.27
564.637	30396.98
564.836	30644.78
565.035	30345.78
565.234	30640.68
565.432	30032.44
565.631	30255.67
565.83	30591.53
566.029	30128.69
566.228	30302.77
566.427	30233.14
566.625	29864.5
566.824	29975.09
567.023	30186.04
567.222	29334.08
567.42	29821.5
567.619	29743.67
567.818	29614.65
568.016	29399.62
568.215	29844.02
568.414	29465.15
568.612	29680.19
568.811	29225.54
569.01	29561.4
569.208	28910.15
569.407	29295.17
569.605	28983.88
569.804	29067.84
570.002	29030.98
570.201	29051.46
570.4	28791.37
570.598	28619.34
570.797	28389.97
570.995	28639.82
571.193	28271.18
571.392	28930.63
571.59	28379.73
571.789	28355.15
571.987	28064.34
572.186	28224.08
572.384	27775.58
572.582	28191.31
572.781	27875.93
572.979	27368.03
573.177	27910.74
573.376	27476.57
573.574	27345.5
573.772	27546.2
573.971	27564.64
574.169	27236.96
574.367	27273.82
574.565	27607.64
574.763	27312.74
574.962	27083.36
575.16	26526.32
575.358	26931.81
575.556	26763.88
575.754	26950.24
575.952	26325.61
576.151	26894.95
576.349	26311.28
576.547	26473.07
576.745	26540.65
576.943	26573.42
577.141	26110.58
577.339	26313.33
577.537	25961.08
577.735	26143.35
577.933	25754.23
578.131	25666.17
578.329	25473.66
578.527	25488
578.725	25664.12
578.923	25496.19
579.121	25752.18
579.319	25500.28
579.516	25739.9
579.714	25242.24
579.912	24994.43
580.11	25191.04
580.308	25438.84
580.506	25219.71
580.704	24668.81
580.901	24781.45
581.099	25111.17
581.297	24842.88
581.495	24433.29
581.692	24744.58
581.89	24531.59
582.088	25035.39
582.285	24375.95
582.483	24638.09
582.681	24375.95
582.878	24349.32
583.076	24119.95
583.274	24373.9
583.471	23984.79
583.669	24177.3
583.866	23667.35
584.064	23759.51
584.262	23628.44
584.459	23868.05
584.657	23880.34
584.854	23943.83
585.052	23333.53
585.249	23499.42
585.447	23483.03
585.644	22964.9
585.841	23562.9
586.039	23505.56
586.236	22921.89
586.434	23079.58
586.631	22891.17
586.828	22772.39
587.026	22964.9
587.223	22659.75
587.42	23016.1
587.618	22997.67
587.815	22702.76
588.012	22340.27
588.21	22475.43
588.407	22880.93
588.604	22676.13
588.801	22209.2
588.999	22145.71
589.196	22364.84
589.393	22219.44
589.59	21764.79
589.787	21981.87
589.984	21676.73
590.182	21627.57
590.379	21887.67
590.576	21646.01
590.773	21480.12
590.97	21353.15
591.167	21541.56
591.364	21260.99
591.561	21486.26
591.758	21457.59
591.955	21320.38
592.152	21537.46
592.349	21095.1
592.546	21324.47
592.743	21185.21
592.94	20925.12
593.137	21041.85
593.334	20697.8
593.531	20943.55
593.727	20462.28
593.924	20730.56
594.121	20677.32
594.318	20658.88
594.515	20196.04
594.712	20638.41
594.908	20216.52
595.105	20460.23
595.302	20318.92
595.499	20312.78
595.696	20439.75
595.892	20107.98
596.089	19890.9
596.286	20136.65
596.482	20099.79
596.679	19940.05
596.876	19731.15
597.072	19688.15
597.269	19710.68
597.466	19565.27
597.662	19503.83
597.859	19606.23
598.055	19374.81
598.252	19395.29
598.448	19251.93
598.645	19446.49
598.841	19182.3
599.038	19266.27
599.234	19423.96
599.431	19038.94
599.627	19002.08
599.824	19098.33
600.02	18578.15
600.217	19057.37
600.413	18520.81
600.609	18600.68
600.806	18735.84
601.002	18672.36
601.198	18547.43
601.395	18359.02
601.591	18496.23
601.787	18586.34
601.984	18273
602.18	18485.99
602.376	17949.42
602.572	18078.44
602.769	17969.9
602.965	17804.02
603.161	18023.15
603.357	17631.99
603.553	17822.45
603.75	18039.53
603.946	17814.26
604.142	17844.98
604.338	17416.95
604.534	17574.64
604.73	17572.6
604.926	17435.38
605.122	17519.35
605.318	17203.96
605.514	17062.65
605.71	17187.58
605.906	17498.87
606.102	17206.01
606.298	16911.1
606.494	17199.87
606.69	17119.99
606.886	16915.2
607.082	16745.22
607.278	16829.18
607.474	16720.64
607.67	16722.69
607.866	16786.18
608.062	16763.65
608.257	16562.95
608.453	16812.8
608.649	16665.35
608.845	16456.45
609.041	16450.31
609.236	16395.01
609.432	16526.08
609.628	16362.25
609.824	16280.33
610.019	16229.13
610.215	16282.38
610.411	16360.2
610.606	16333.57
610.802	16206.6
610.998	16171.79
611.193	16087.82
611.389	16001.8
611.584	15911.69
611.78	15883.02
611.976	16028.43
612.171	16042.76
612.367	15751.95
612.562	15905.55
612.758	15571.73
612.953	15354.65
613.149	15786.77
613.344	15676.18
613.539	15928.08
613.735	15485.72
613.93	15729.42
614.126	15248.15
614.321	15878.93
614.517	15758.1
614.712	15440.66
614.907	15510.29
615.103	15819.53
615.298	15078.17
615.493	15637.27
615.688	15147.8
615.884	15448.85
616.079	15196.95
616.274	15147.8
616.47	15217.43
616.665	15147.8
616.86	15074.07
617.055	15149.85
617.25	14856.99
617.445	15155.99
617.641	14863.13
617.836	14756.64
618.031	14744.35
618.226	14986.01
618.421	14701.34
618.616	15031.07
618.811	14590.75
619.006	14813.98
619.201	14586.66
619.396	14578.47
619.591	14277.41
619.786	14576.42
619.981	14232.36
620.176	14500.64
620.371	14074.67
620.566	14324.52
620.761	14275.37
620.956	14113.58
621.151	13697.84
621.346	13976.36
621.541	13912.88
621.735	13892.4
621.93	13622.06
622.125	13781.81
622.32	13517.62
622.515	13620.02
622.709	13450.03
622.904	13499.19
623.099	13407.03
623.294	13503.28
623.488	13099.83
623.683	13257.53
623.878	13038.39
624.072	13091.64
624.267	13058.87
624.462	12804.92
624.656	12634.94
624.851	12815.16
625.046	12718.91
625.24	12665.66
625.435	12485.44
625.629	12342.08
625.824	12436.29
626.018	12204.87
626.213	12235.59
626.407	11987.79
626.602	12096.33
626.796	12073.8
626.991	11936.59
627.185	11987.79
627.38	11858.76
627.574	11989.83
627.768	11840.33
627.963	11647.82
628.157	11625.29
628.352	11608.91
628.546	11586.38
628.74	11440.98
628.935	11232.08
629.129	11354.96
629.323	11240.28
629.517	11301.72
629.712	11082.58
629.906	11129.69
630.1	10888.03
630.294	11043.67
630.489	10691.42
630.683	10881.88
630.877	10912.6
631.071	10691.42
631.265	10791.77
631.459	10744.67
631.653	10642.27
631.848	10513.25
632.042	10304.35
632.236	10285.92
632.43	10150.76
632.624	10388.32
632.818	10214.24
633.012	10056.55
633.206	10267.49
633.4	10181.48
633.594	10017.64
633.788	10163.04
633.982	9898.86
634.176	9790.31
634.369	9663.34
634.563	9704.3
634.757	9708.4
634.951	9724.78
635.145	9548.65
635.339	9630.57
635.533	9489.26
635.726	9620.33
635.92	9405.3
636.114	9483.12
636.308	9288.56
636.501	9241.46
636.695	9352.05
636.889	9317.23
637.083	9286.51
637.276	9079.67
637.47	8969.08
637.664	8987.51
637.857	8973.18
638.051	9024.37
638.244	8850.3
638.438	8823.67
638.632	8784.76
638.825	8764.28
639.019	8557.44
639.212	8586.11
639.406	8555.39
639.599	8547.2
639.793	8653.69
639.986	8500.09
640.18	8389.5
640.373	8283.01
640.567	8246.15
640.76	8160.13
640.954	8104.84
641.147	8090.5
641.34	8010.63
641.534	7979.91
641.727	7955.33
641.92	8078.21
642.114	7852.94
642.307	7871.37
642.5	7988.1
642.694	7660.43
642.887	7656.33
643.08	7889.8
643.273	7848.84
643.467	7672.71
643.66	7646.09
643.853	7531.41
644.046	7400.34
644.239	7529.36
644.432	7545.74
644.626	7410.57
644.819	7332.75
645.012	7187.35
645.205	7234.45
645.398	7166.87
645.591	7103.38
645.784	7062.42
645.977	7152.53
646.17	7299.98
646.363	6947.73
646.556	6871.96
646.749	6966.17
646.942	7007.13
647.135	6904.73
647.328	6845.34
647.521	6957.97
647.714	6845.34
647.907	6808.47
648.099	6697.88
648.292	6661.02
648.485	6652.83
648.678	6480.8
648.871	6556.57
649.064	6620.06
649.256	6443.93
649.449	6392.73
649.642	6552.48
649.835	6257.57
650.027	6267.81
650.22	6345.63
650.413	6204.32
650.605	6179.75
650.798	6138.79
650.991	6204.32
651.183	6142.88
651.376	6073.25
651.568	6054.82
651.761	6058.92
651.954	6017.96
652.146	6126.5
652.339	6022.05
652.531	5899.17
652.724	5942.18
652.916	5751.72
653.109	5811.11
653.301	5833.64
653.494	5807.02
653.686	5661.61
653.879	5669.8
654.071	5514.16
654.263	5696.43
654.456	5698.47
654.648	5766.06
654.84	5501.87
655.033	5350.32
655.225	5559.21
655.417	5387.18
655.61	5442.48
655.802	5417.9
655.994	5473.2
656.186	5477.29
656.379	5378.99
656.571	5407.66
656.763	5276.59
656.955	5186.48
657.148	5360.56
657.34	5211.06
657.532	5102.51
657.724	5186.48
657.916	5122.99
658.108	5145.52
658.3	5063.6
658.492	5049.27
658.684	4993.97
658.876	5043.12
659.068	4991.92
659.26	4899.77
659.452	4940.72
659.644	4979.64
659.836	4916.15
660.028	4907.96
660.22	4860.85
660.412	4711.35
660.604	4490.17
660.796	4666.3
660.988	4768.7
661.18	4656.06
661.372	4666.3
661.563	4608.95
661.755	4703.16
661.947	4600.76
662.139	4512.7
662.331	4551.61
662.522	4436.92
662.714	4512.7
662.906	4434.88
663.097	4453.31
663.289	4340.67
663.481	4287.42
663.673	4211.65
663.864	4524.99
664.056	4268.99
664.247	4393.92
664.439	4125.63
664.631	4320.19
664.822	4252.61
665.014	4156.35
665.205	4121.54
665.397	4273.09
665.588	4187.07
665.78	4080.58
665.971	4148.16
666.163	4105.15
666.354	4006.85
666.546	3998.66
666.737	3967.94
666.929	4017.09
667.12	4119.49
667.311	4035.52
667.503	3929.03
667.694	3976.13
667.885	3943.36
668.077	3988.42
668.268	3793.86
668.459	3892.16
668.651	3818.44
668.842	3902.4
669.033	3771.33
669.224	3752.9
669.416	3886.02
669.607	3808.2
669.798	3826.63
669.989	3763.14
670.18	3834.82
670.371	3720.14
670.563	3623.88
670.754	3564.49
670.945	3699.66
671.136	3668.94
671.327	3646.41
671.518	3591.11
671.709	3810.25
671.9	3746.76
672.091	3513.29
672.282	3431.37
672.473	3615.69
672.664	3617.74
672.855	3392.46
673.046	3529.67
673.237	3519.43
673.428	3552.2
673.619	3484.62
673.809	3503.05
674	3425.23
674.191	3492.81
674.382	3490.76
674.573	3396.56
674.764	3468.24
674.954	3357.64
675.145	3394.51
675.336	3339.21
675.527	3400.65
675.717	3431.37
675.908	3179.47
676.099	3245.01
676.289	3277.77
676.48	3339.21
676.671	3326.93
676.861	3216.33
677.052	3384.27
677.243	3224.53
677.433	3292.11
677.624	3236.81
677.814	3296.21
678.005	3199.95
678.195	3232.72
678.386	3097.55
678.576	3072.98
678.767	3269.58
678.957	3165.14
679.148	3212.24
679.338	3343.31
679.529	3161.04
679.719	3171.28
679.909	3253.2
680.1	3136.46
680.29	3189.71
680.481	2966.48
680.671	3328.97
680.861	3081.17
681.052	3171.28
681.242	3165.14
681.432	3050.45
681.622	3146.7
681.813	3089.36
682.003	3093.46
682.193	3032.02
682.383	3113.94
682.573	3005.39
682.764	3091.41
682.954	2993.11
683.144	2999.25
683.334	2970.58
683.524	3036.11
683.714	3072.98
683.904	3001.3
684.094	2993.11
684.284	2855.89
684.474	2943.96
684.664	3001.3
684.854	3064.79
685.044	2835.41
685.234	2933.72
685.424	3009.49
685.614	2991.06
685.804	2950.1
685.994	2958.29
686.184	2921.43
686.374	2982.87
686.564	2847.7
686.753	2876.37
686.943	2925.52
687.133	2884.56
687.323	2814.93
687.513	2857.94
687.702	2859.99
687.892	2771.93
688.082	2872.28
688.272	2917.33
688.461	2728.92
688.651	2786.26
688.841	2728.92
689.03	2655.19
689.22	2675.67
689.41	2780.12
689.599	2679.77
689.789	2866.13
689.979	2704.34
690.168	2687.96
690.358	2794.45
690.547	2647
690.737	2665.43
690.926	2556.89
691.116	2497.5
691.305	2593.75
691.495	2573.27
691.684	2642.9
691.874	2601.94
692.063	2485.21
692.252	2466.78
692.442	2505.69
692.631	2477.02
692.82	2524.12
693.01	2479.07
693.199	2462.68
693.388	2491.35
693.578	2401.24
693.767	2528.22
693.956	2503.64
694.146	2483.16
694.335	2436.06
694.524	2466.78
694.713	2444.25
694.902	2419.68
695.092	2395.1
695.281	2335.71
695.47	2454.49
695.659	2405.34
695.848	2407.39
696.037	2388.96
696.226	2376.67
696.415	2388.96
696.604	2413.53
696.793	2341.85
696.982	2231.26
697.171	2401.24
697.36	2364.38
697.549	2370.52
697.738	2249.69
697.927	2335.71
698.116	2339.8
698.305	2423.77
698.494	2261.98
698.683	2364.38
698.872	2462.68
699.061	2229.21
699.25	2327.52
699.438	2352.09
699.627	2284.51
699.816	2294.75
700.005	2233.31
700.193	2237.41
700.382	2292.7
700.571	2253.79
700.76	2304.99
700.948	2313.18
701.137	2315.23
701.326	2245.6
701.514	2257.89
701.703	2376.67
701.892	2212.83
702.08	2337.76
702.269	2397.15
702.457	2198.49
702.646	2311.13
702.834	2345.95
703.023	2253.79
703.212	2259.93
703.4	2264.03
703.589	2247.65
703.777	2278.37
703.965	2284.51
704.154	2198.49
704.342	2307.04
704.531	2083.81
704.719	2352.09
704.907	2188.25
705.096	2286.56
705.284	2276.32
705.472	2261.98
705.661	2354.14
705.849	2333.66
706.037	2180.06
706.226	2304.99
706.414	2274.27
706.602	2255.84
706.79	2352.09
706.979	2278.37
707.167	2218.97
707.355	2253.79
707.543	2280.41
707.731	2376.67
707.919	2278.37
708.107	2280.41
708.296	2268.13
708.484	2286.56
708.672	2286.56
708.86	2122.72
709.048	2317.28
709.236	2188.25
709.424	2147.3
709.612	2212.83
709.8	2282.46
709.988	2302.94
710.176	2278.37
710.364	2200.54
710.551	2403.29
710.739	2345.95
710.927	2003.94
711.115	2237.41
711.303	2204.64
711.491	2261.98
711.679	2196.45
711.866	2085.86
712.054	2229.21
712.242	2255.84
712.43	2419.68
712.617	2257.89
712.805	2249.69
712.993	2065.38
713.181	2206.69
713.368	2335.71
713.556	2356.19
713.744	2073.57
713.931	2214.88
714.119	2280.41
714.306	2309.08
714.494	2155.49
714.682	2200.54
714.869	2175.97
715.057	2335.71
715.244	2239.45
715.432	2257.89
715.619	2278.37
715.807	2261.98
715.994	2212.83
716.182	2225.12
716.369	2253.79
716.556	2286.56
716.744	2290.65
716.931	2214.88
717.119	2223.07
717.306	2343.9
717.493	2247.65
717.681	2309.08
717.868	2196.45
718.055	2278.37
718.242	2247.65
718.43	2321.37
718.617	2253.79
718.804	2329.56
718.991	2251.74
719.179	2311.13
719.366	2292.7
719.553	2266.08
719.74	2221.02
719.927	2237.41
720.114	2223.07
720.301	2245.6
720.488	2196.45
720.676	2251.74
720.863	2360.28
721.05	2302.94
721.237	2180.06
721.424	2255.84
721.611	2294.75
721.798	2141.15
721.985	2204.64
722.172	2270.17
722.358	2261.98
722.545	2233.31
722.732	2270.17
722.919	2329.56
723.106	2221.02
723.293	2204.64
723.48	2147.3
723.667	2171.87
723.853	2294.75
724.04	2171.87
724.227	2325.47
724.414	2206.69
724.6	2278.37
724.787	2288.61
724.974	2333.66
725.161	2221.02
725.347	2266.08
725.534	2190.3
725.72	2159.58
725.907	2368.48
726.094	2276.32
726.28	2243.55
726.467	2225.12
726.653	2161.63
726.84	2137.06
727.027	2261.98
727.213	2311.13
727.4	2206.69
727.586	2337.76
727.773	2278.37
727.959	2233.31
728.145	2255.84
728.332	2122.72
728.518	2141.15
728.705	2270.17
728.891	2206.69
729.077	2204.64
729.264	2247.65
729.45	2214.88
729.636	2237.41
729.823	2216.93
730.009	2278.37
730.195	2278.37
730.382	2327.52
730.568	2204.64
730.754	2214.88
730.94	2196.45
731.126	2266.08
731.313	2198.49
731.499	2165.73
731.685	2270.17
731.871	2225.12
732.057	2188.25
732.243	2327.52
732.429	2171.87
732.615	2204.64
732.801	2276.32
732.987	2245.6
733.173	2282.46
733.359	2225.12
733.545	2331.61
733.731	2171.87
733.917	2182.11
734.103	2264.03
734.289	2159.58
734.475	2233.31
734.661	2249.69
734.847	2214.88
735.033	2163.68
735.219	2227.17
735.404	2192.35
735.59	2137.06
735.776	2210.78
735.962	2171.87
736.148	2227.17
736.333	2132.96
736.519	2180.06
736.705	2180.06
736.89	2102.24
737.076	2106.34
737.262	1997.79
737.447	2204.64
737.633	2067.42
737.819	2163.68
738.004	2139.1
738.19	2155.49
738.375	2051.04
738.561	2204.64
738.747	2163.68
738.932	2028.51
739.118	2112.48
739.303	1987.55
739.489	2061.28
739.674	2087.9
739.859	2073.57
740.045	2083.81
740.23	2155.49
740.416	2063.33
740.601	2081.76
740.786	2128.86
740.972	2069.47
741.157	2124.77
741.342	2010.08
741.528	1950.69
741.713	2108.38
741.898	2065.38
742.084	1997.79
742.269	2139.1
742.454	2020.32
742.639	2003.94
742.824	1958.88
743.01	2092
743.195	2053.09
743.38	2038.75
743.565	2016.23
743.75	1942.5
743.935	1993.7
744.12	2051.04
744.305	1881.06
744.49	1901.54
744.675	1836
744.86	2028.51
745.045	1938.4
745.23	1938.4
745.415	1821.67
745.6	1819.62
745.785	1991.65
745.97	1805.28
746.155	1827.81
746.34	1942.5
746.525	1717.22
746.71	1983.46
746.895	1739.75
747.079	1848.29
747.264	1805.28
747.449	1895.4
747.634	1811.43
747.819	1735.65
748.003	1674.21
748.188	1641.45
748.373	1786.85
748.557	1733.61
748.742	1862.63
748.927	1688.55
749.111	1725.41
749.296	1598.44
749.481	1690.6
749.665	1672.17
749.85	1647.59
750.034	1670.12
750.219	1655.78
750.404	1645.54
750.588	1663.97
750.773	1602.54
750.957	1606.63
751.141	1680.36
751.326	1598.44
751.51	1584.1
751.695	1582.06
751.879	1549.29
752.064	1614.82
752.248	1600.49
752.432	1541.1
752.617	1557.48
752.801	1577.96
752.985	1438.7
753.17	1545.19
753.354	1532.9
753.538	1461.23
753.722	1399.79
753.907	1467.37
754.091	1510.38
754.275	1461.23
754.459	1379.31
754.643	1467.37
754.828	1467.37
755.012	1389.55
755.196	1383.4
755.38	1311.72
755.564	1344.49
755.748	1364.97
755.932	1369.07
756.116	1231.85
756.3	1369.07
756.484	1377.26
756.668	1369.07
756.852	1250.28
757.036	1260.52
757.22	1235.95
757.404	1328.11
757.588	1172.46
757.772	1209.33
757.956	1184.75
758.14	1209.33
758.323	1240.05
758.507	1207.28
758.691	1127.41
758.875	1250.28
759.059	1221.61
759.242	1176.56
759.426	1123.31
759.61	1156.08
759.794	1113.07
759.977	1143.79
760.161	1197.04
760.345	1160.17
760.528	1182.7
760.712	1190.89
760.895	1139.69
761.079	1025.01
761.263	1135.6
761.446	1076.21
761.63	1149.93
761.813	1151.98
761.997	1020.91
762.18	1119.21
762.364	1117.17
762.547	1012.72
762.731	1031.15
762.914	973.81
763.098	1027.06
763.281	1043.44
763.464	1065.97
763.648	1082.35
763.831	1033.2
764.015	994.29
764.198	953.33
764.381	855.03
764.564	1027.06
764.748	1035.25
764.931	1041.39
765.114	1000.43
765.297	1033.2
765.481	1010.67
765.664	953.33
765.847	984.05
766.03	975.86
766.213	887.79
766.397	982
766.58	947.19
766.763	934.9
766.946	889.84
767.129	900.08
767.312	967.67
767.495	895.99
767.678	871.41
767.861	904.18
768.044	926.71
768.227	979.95
768.41	996.34
768.593	951.28
768.776	885.75
768.959	930.8
769.142	857.07
769.324	953.33
769.507	762.87
769.69	869.36
769.873	871.41
770.056	951.28
770.239	912.37
770.421	902.13
770.604	857.07
770.787	848.88
770.97	943.09
771.152	820.21
771.335	877.55
771.518	754.68
771.7	943.09
771.883	904.18
772.066	816.12
772.248	879.6
772.431	824.31
772.613	879.6
772.796	766.96
772.978	820.21
773.161	830.45
773.343	773.11
773.526	760.82
773.708	693.24
773.891	805.88
774.073	734.2
774.256	674.81
774.438	828.4
774.621	732.15
774.803	744.44
774.985	697.33
775.168	730.1
775.35	812.02
775.532	678.9
775.715	635.89
775.897	726
776.079	664.57
776.261	801.78
776.444	644.09
776.626	766.96
776.808	582.65
776.99	648.18
777.173	666.61
777.355	699.38
777.537	676.85
777.719	680.95
777.901	693.24
778.083	715.77
778.265	599.03
778.447	672.76
778.629	558.07
778.811	666.61
778.993	701.43
779.175	707.57
779.357	625.65
779.539	603.13
779.721	607.22
779.903	699.38
780.085	592.89
780.267	543.74
780.449	535.54
780.631	639.99
780.812	635.89
780.994	486.39
781.176	590.84
781.358	578.55
781.54	519.16
781.721	541.69
781.903	541.69
782.085	515.06
782.267	556.02
782.448	517.11
782.63	529.4
782.812	517.11
782.993	478.2
783.175	553.98
783.357	558.07
783.538	508.92
783.72	455.67
783.901	451.58
784.083	590.84
784.264	543.74
784.446	386.04
784.627	510.97
784.809	480.25
784.99	508.92
785.172	494.58
785.353	527.35
785.535	451.58
785.716	461.82
785.897	422.91
786.079	386.04
786.26	486.39
786.441	486.39
786.623	435.19
786.804	441.34
786.985	396.28
787.167	416.76
787.348	345.08
787.529	404.47
787.71	470.01
787.891	437.24
788.073	402.43
788.254	312.32
788.435	443.39
788.616	429.05
788.797	338.94
788.978	377.85
789.159	349.18
789.34	406.52
789.522	404.47
789.703	427
789.884	320.51
790.065	345.08
790.246	455.67
790.427	371.71
790.607	431.1
790.788	463.86
790.969	334.84
791.15	355.32
791.331	355.32
791.512	359.42
791.693	371.71
791.874	379.9
792.054	347.13
792.235	320.51
792.416	281.6
792.597	324.6
792.778	322.56
792.958	324.6
793.139	324.6
793.32	324.6
793.5	226.3
793.681	330.75
793.862	396.28
794.042	347.13
794.223	244.73
794.404	287.74
794.584	304.12
794.765	277.5
794.945	304.12
795.126	312.32
795.306	295.93
795.487	287.74
795.667	259.07
795.848	316.41
796.028	246.78
796.209	297.98
796.389	293.88
796.57	345.08
796.75	312.32
796.93	193.53
797.111	173.05
797.291	295.93
797.471	279.55
797.652	273.4
797.832	240.64
798.012	271.36
798.192	314.36
798.373	273.4
798.553	199.68
798.733	330.75
798.913	181.25
799.093	277.5
799.274	238.59
799.454	177.15
799.634	293.88
799.814	314.36
799.994	265.21
800.174	273.4
800.354	183.29
800.534	328.7
800.714	224.25
800.894	209.92
801.074	228.35
801.254	207.87
801.434	269.31
801.614	150.53
801.794	318.46
801.974	869.36
802.154	263.16
802.334	275.45
802.514	232.44
802.693	279.55
802.873	238.59
803.053	234.49
803.233	312.32
803.413	181.25
803.592	261.12
803.772	158.72
803.952	222.2
804.131	177.15
804.311	183.29
804.491	216.06
804.67	240.64
804.85	209.92
805.03	175.1
805.209	214.01
805.389	267.26
805.568	177.15
805.748	197.63
805.928	224.25
806.107	189.44
806.287	246.78
806.466	177.15
806.646	205.82
806.825	156.67
807.004	173.05
807.184	199.68
807.363	265.21
807.543	164.86
807.722	273.4
807.901	160.77
808.081	232.44
808.26	173.05
808.439	197.63
808.619	111.61
808.798	238.59
808.977	136.19
809.156	173.05
809.336	185.34
809.515	173.05
809.694	119.81
809.873	158.72
810.052	142.33
810.231	242.68
810.411	173.05
810.59	189.44
810.769	220.16
810.948	166.91
811.127	82.94
811.306	158.72
811.485	144.38
811.664	187.39
811.843	160.77
812.022	123.9
812.201	25.6
812.38	154.62
812.559	119.81
812.737	152.57
812.916	115.71
813.095	142.33
813.274	181.25
813.453	148.48
813.632	181.25
813.811	140.29
813.989	25.6
814.168	214.01
814.347	156.67
814.526	111.61
814.704	142.33
814.883	181.25
815.062	103.42
815.24	132.09
815.419	187.39
815.598	144.38
815.776	117.76
815.955	177.15
816.133	64.51
816.312	142.33
816.49	5.12
816.669	166.91
816.847	111.61
817.026	160.77
817.204	109.57
817.383	91.13
817.561	66.56
817.74	140.29
817.918	128
818.097	130.05
818.275	58.37
818.453	125.95
818.632	162.81
818.81	76.8
818.988	181.25
819.167	123.9
819.345	150.53
819.523	80.89
819.701	164.86
819.879	197.63
820.058	191.49
820.236	134.14
820.414	74.75
820.592	89.09
820.77	132.09
820.948	78.85
821.127	74.75
821.305	107.52
821.483	82.94
821.661	218.11
821.839	156.67
822.017	119.81
822.195	87.04
822.373	148.48
822.551	134.14
822.729	150.53
822.907	181.25
823.085	99.33
823.262	123.9
823.44	107.52
823.618	101.37
823.796	107.52
823.974	46.08
824.152	62.46
824.329	115.71
824.507	128
824.685	109.57
824.863	101.37
825.04	103.42
825.218	95.23
825.396	103.42
825.574	62.46
825.751	156.67
825.929	99.33
826.107	-1.02
826.284	58.37
826.462	121.85
826.639	95.23
826.817	89.09
826.994	99.33
827.172	84.99
827.349	166.91
827.527	70.65
827.704	152.57
827.882	115.71
828.059	115.71
828.237	113.66
828.414	82.94
828.591	44.03
828.769	123.9
828.946	166.91
829.124	27.65
829.301	74.75
829.478	76.8
829.655	35.84
829.833	132.09
830.01	54.27
830.187	132.09
830.364	111.61
830.542	115.71
830.719	136.19
830.896	105.47
831.073	128
831.25	54.27
831.427	60.42
831.604	50.18
831.782	46.08
831.959	119.81
832.136	66.56
832.313	70.65
832.49	76.8
832.667	9.22
832.844	48.13
833.021	41.98
833.198	62.46
833.374	68.61
833.551	23.55
833.728	109.57
833.905	115.71
834.082	31.74
834.259	136.19
834.436	82.94
834.612	58.37
834.789	101.37
834.966	93.18
835.143	117.76
835.319	50.18
835.496	121.85
835.673	93.18
835.85	9.22
836.026	125.95
836.203	123.9
836.38	19.46
836.556	82.94
836.733	76.8
836.909	41.98
837.086	80.89
837.262	-15.36
837.439	74.75
837.616	33.79
837.792	21.5
837.968	87.04
838.145	17.41
838.321	15.36
838.498	27.65
838.674	54.27
838.851	41.98
839.027	5.12
839.203	74.75
839.38	15.36
839.556	17.41
839.732	103.42
839.909	123.9
840.085	62.46
840.261	76.8
840.437	41.98
840.614	5.12
840.79	25.6
840.966	41.98
841.142	54.27
841.318	74.75
841.494	82.94
841.671	107.52
841.847	46.08
842.023	-7.17
842.199	52.22
842.375	91.13
842.551	21.5
842.727	3.07
842.903	99.33
843.079	58.37
843.255	99.33
843.431	33.79
843.607	121.85
843.783	25.6
843.959	17.41
844.134	-41.98
844.31	76.8
844.486	15.36
844.662	103.42
844.838	82.94
845.013	1.02
845.189	13.31
845.365	58.37
845.541	66.56
845.716	50.18
845.892	44.03
846.068	37.89
846.244	-64.51
846.419	128
846.595	25.6
846.77	50.18
846.946	48.13
847.122	9.22
847.297	58.37
847.473	91.13
847.648	5.12
847.824	46.08
847.999	-60.42
848.175	41.98
848.35	97.28
848.526	60.42
848.701	87.04
848.876	91.13
849.052	89.09
849.227	89.09
849.403	-7.17
849.578	68.61
849.753	80.89
849.929	-31.74
850.104	21.5
850.279	3.07
850.454	1.02
850.63	58.37
850.805	37.89
850.98	99.33
851.155	-15.36
851.33	-27.65
851.505	56.32
851.681	109.57
851.856	27.65
852.031	-5.12
852.206	33.79
852.381	23.55
852.556	50.18
852.731	41.98
852.906	132.09
853.081	13.31
853.256	93.18
853.431	-11.26
853.606	119.81
853.781	76.8
853.956	-15.36
854.131	52.22
854.305	-19.46
854.48	19.46
854.655	27.65
854.83	-7.17
855.005	-23.55
855.18	99.33
855.354	11.26
855.529	54.27
855.704	1.02
855.879	91.13
856.053	-72.7
856.228	25.6
856.403	9.22
856.577	68.61
856.752	46.08
856.926	91.13
857.101	17.41
857.276	-23.55
857.45	41.98
857.625	125.95
857.799	-17.41
857.974	-35.84
858.148	-5.12
858.323	33.79
858.497	64.51
858.672	-29.7
858.846	64.51
859.02	27.65
859.195	-23.55
859.369	-7.17
859.543	37.89
859.718	44.03
859.892	-3.07
860.066	52.22
860.241	39.94
860.415	-9.22
860.589	29.7
860.763	-23.55
860.938	-7.17
861.112	44.03
861.286	-25.6
861.46	-3.07
861.634	-9.22
861.808	76.8
861.982	50.18
862.157	13.31
862.331	21.5
862.505	17.41
862.679	-3.07
862.853	-15.36
863.027	-11.26
863.201	109.57
863.375	11.26
863.549	76.8
863.722	33.79
863.896	-3.07
864.07	25.6
864.244	5.12
864.418	-15.36
864.592	-15.36
864.766	-41.98
864.939	62.46
865.113	-19.46
865.287	91.13
865.461	-29.7
865.634	11.26
865.808	17.41
865.982	-64.51
866.156	-64.51
866.329	-7.17
866.503	-23.55
866.676	60.42
866.85	-7.17
867.024	17.41
867.197	50.18
867.371	19.46
867.544	-15.36
867.718	-48.13
867.891	-11.26
868.065	19.46
868.238	-5.12
868.412	3.07
868.585	-31.74
868.759	52.22
868.932	-5.12
869.105	1.02
869.279	-9.22
869.452	37.89
869.625	17.41
869.799	-27.65
869.972	-44.03
870.145	115.71
870.319	33.79
870.492	-31.74
870.665	1.02
870.838	-56.32
871.011	7.17
871.185	60.42
871.358	-7.17
871.531	41.98
871.704	-62.46
871.877	97.28
872.05	1.02
872.223	19.46
872.396	3.07
872.569	66.56
872.742	-39.94
872.915	11.26
873.088	82.94
873.261	35.84
873.434	15.36
873.607	9.22
873.78	1.02
873.953	5.12
874.126	-39.94
874.299	-41.98
874.471	-39.94
874.644	-5.12
874.817	74.75
874.99	35.84
875.163	37.89
875.335	33.79
875.508	46.08
875.681	60.42
875.853	-19.46
876.026	-19.46
876.199	-7.17
876.371	68.61
876.544	-41.98
876.717	11.26
876.889	3.07
877.062	-56.32
877.234	-13.31
877.407	-62.46
877.579	58.37
877.752	3.07
877.924	37.89
878.097	29.7
878.269	-58.37
878.442	80.89
878.614	31.74
878.786	27.65
878.959	-5.12
879.131	-48.13
879.303	-21.5
879.476	11.26
879.648	-48.13
879.82	-46.08
879.993	-35.84
880.165	3.07
880.337	-84.99
880.509	3.07
880.681	-23.55
880.854	35.84
881.026	37.89
881.198	101.37
881.37	35.84
881.542	-19.46
881.714	1.02
881.886	1.02
882.058	-72.7
882.23	-31.74
882.402	-13.31
882.574	44.03
882.746	41.98
882.918	-7.17
883.09	50.18
883.262	-31.74
883.434	27.65
883.606	56.32
883.778	-5.12
883.95	93.18
884.122	-25.6
884.293	39.94
884.465	9.22
884.637	33.79
884.809	27.65
884.98	3.07
885.152	-15.36
885.324	50.18
885.496	-68.61
885.667	-37.89
885.839	-25.6
886.011	37.89
886.182	54.27
886.354	-3.07
886.525	-11.26
886.697	50.18
886.869	-5.12
887.04	5.12
887.212	56.32
887.383	68.61
887.555	-3.07
887.726	29.7
887.897	29.7
888.069	25.6
888.24	-3.07
888.412	11.26
888.583	5.12
888.754	33.79
888.926	-121.85
889.097	-48.13
889.268	-33.79
889.44	3.07
889.611	5.12
889.782	-23.55
889.953	-72.7
890.125	25.6
890.296	46.08
890.467	-39.94
890.638	19.46
890.809	33.79
890.98	-39.94
891.151	52.22
891.323	39.94
891.494	62.46
891.665	31.74
891.836	46.08
892.007	-29.7
892.178	-5.12
892.349	39.94
892.52	52.22
892.691	-17.41
892.862	-87.04
893.032	-29.7
893.203	-3.07
893.374	-3.07
893.545	87.04
893.716	-23.55
893.887	66.56
894.057	-60.42
894.228	46.08
894.399	-82.94
894.57	1.02
894.74	58.37
894.911	17.41
895.082	66.56
895.253	-56.32
895.423	-13.31
895.594	31.74
895.764	11.26
895.935	-35.84
896.106	72.7
896.276	68.61
896.447	5.12
896.617	33.79
896.788	37.89
896.958	21.5
897.129	9.22
897.299	9.22
897.47	39.94
897.64	91.13
897.81	29.7
897.981	54.27
898.151	-62.46
898.322	-35.84
898.492	-19.46
898.662	-7.17
898.832	-46.08
899.003	-23.55
899.173	5.12
899.343	-3.07
899.513	-84.99
