Data from USB4F104151__60__14-43-13-799.txt Node

Date: Thu Mar 13 14:43:13 EDT 2025
User: louis
Spectrometer: USB4F10415
Trigger mode: 4
Integration Time (sec): 2.000000E-2
Scans to average: 1
Electric dark correction enabled: true
Nonlinearity correction enabled: false
Boxcar width: 0
XAxis mode: Wavelengths
Number of Pixels in Spectrum: 3648
>>>>>Begin Spectral Data<<<<<
178.204	-77.48
178.424	-77.48
178.644	-77.48
178.864	-112.3
179.084	-100.01
179.304	47.44
179.524	59.73
179.744	-20.14
179.964	84.31
180.184	26.96
180.404	-28.33
180.624	-38.57
180.844	-22.19
181.064	-42.67
181.283	-13.99
181.503	-30.38
181.723	-22.19
181.943	-22.19
182.163	100.69
182.383	12.63
182.602	10.58
182.822	-24.23
183.042	18.77
183.262	16.73
183.482	20.82
183.701	35.16
183.921	74.07
184.141	12.63
184.361	-20.14
184.58	-26.28
184.8	59.73
185.02	-1.71
185.239	18.77
185.459	35.16
185.679	26.96
185.898	-79.53
186.118	43.35
186.338	-5.8
186.557	78.16
186.777	-87.72
186.997	92.5
187.216	10.58
187.436	98.64
187.655	-5.8
187.875	84.31
188.095	39.25
188.314	51.54
188.534	80.21
188.753	12.63
188.973	80.21
189.192	72.02
189.412	20.82
189.631	51.54
189.851	-38.57
190.07	133.46
190.29	33.11
190.509	-22.19
190.729	-34.47
190.948	78.16
191.168	186.71
191.387	57.68
191.607	-38.57
191.826	4.44
192.045	84.31
192.265	117.08
192.484	31.06
192.704	76.12
192.923	63.83
193.142	139.6
193.362	-34.47
193.581	18.77
193.8	76.12
194.02	14.68
194.239	2.39
194.458	22.87
194.678	-13.99
194.897	20.82
195.116	76.12
195.335	35.16
195.555	86.36
195.774	12.63
195.993	123.22
196.212	-7.85
196.432	6.49
196.651	18.77
196.87	-75.43
197.089	139.6
197.308	94.55
197.528	94.55
197.747	-63.15
197.966	65.88
198.185	100.69
198.404	57.68
198.623	2.39
198.842	-28.33
199.062	72.02
199.281	76.12
199.5	35.16
199.719	4.44
199.938	-46.76
200.157	33.11
200.376	26.96
200.595	80.21
200.814	29.01
201.033	26.96
201.252	63.83
201.471	-20.14
201.69	12.63
201.909	108.88
202.128	92.5
202.347	24.92
202.566	53.59
202.785	-9.9
203.004	45.4
203.223	47.44
203.442	-28.33
203.661	18.77
203.879	18.77
204.098	121.17
204.317	18.77
204.536	92.5
204.755	74.07
204.974	106.84
205.193	100.69
205.411	123.22
205.63	-26.28
205.849	-54.95
206.068	31.06
206.287	10.58
206.505	67.92
206.724	51.54
206.943	35.16
207.162	88.4
207.381	51.54
207.599	90.45
207.818	51.54
208.037	-13.99
208.255	-9.9
208.474	45.4
208.693	-5.8
208.911	39.25
209.13	88.4
209.349	10.58
209.567	18.77
209.786	76.12
210.005	76.12
210.223	4.44
210.442	61.78
210.661	100.69
210.879	-13.99
211.098	18.77
211.316	59.73
211.535	84.31
211.753	6.49
211.972	88.4
212.191	-5.8
212.409	69.97
212.628	88.4
212.846	-36.52
213.065	18.77
213.283	86.36
213.502	18.77
213.72	-1.71
213.938	90.45
214.157	39.25
214.375	80.21
214.594	35.16
214.812	59.73
215.031	76.12
215.249	33.11
215.467	74.07
215.686	55.64
215.904	45.4
216.122	10.58
216.341	129.36
216.559	31.06
216.778	59.73
216.996	26.96
217.214	22.87
217.432	45.4
217.651	133.46
217.869	35.16
218.087	63.83
218.306	82.26
218.524	43.35
218.742	10.58
218.96	39.25
219.179	76.12
219.397	-30.38
219.615	90.45
219.833	39.25
220.051	-44.71
220.27	135.51
220.488	-1.71
220.706	55.64
220.924	-5.8
221.142	67.92
221.36	65.88
221.578	18.77
221.796	-5.8
222.015	35.16
222.233	78.16
222.451	90.45
222.669	29.01
222.887	96.6
223.105	10.58
223.323	102.74
223.541	26.96
223.759	37.2
223.977	55.64
224.195	45.4
224.413	39.25
224.631	43.35
224.849	12.63
225.067	76.12
225.285	24.92
225.503	67.92
225.721	43.35
225.939	80.21
226.157	22.87
226.375	176.47
226.592	72.02
226.81	37.2
227.028	80.21
227.246	78.16
227.464	-13.99
227.682	14.68
227.9	127.32
228.117	35.16
228.335	76.12
228.553	53.59
228.771	41.3
228.989	53.59
229.206	78.16
229.424	92.5
229.642	-36.52
229.86	0.34
230.077	63.83
230.295	94.55
230.513	108.88
230.731	94.55
230.948	67.92
231.166	96.6
231.384	-20.14
231.601	-5.8
231.819	100.69
232.037	51.54
232.254	14.68
232.472	90.45
232.689	-20.14
232.907	82.26
233.125	45.4
233.342	-7.85
233.56	10.58
233.777	-13.99
233.995	-54.95
234.213	117.08
234.43	100.69
234.648	35.16
234.865	84.31
235.083	-5.8
235.3	0.34
235.518	12.63
235.735	94.55
235.953	63.83
236.17	24.92
236.388	10.58
236.605	26.96
236.822	72.02
237.04	43.35
237.257	67.92
237.475	26.96
237.692	39.25
237.909	10.58
238.127	59.73
238.344	69.97
238.562	18.77
238.779	22.87
238.996	18.77
239.214	29.01
239.431	47.44
239.648	-5.8
239.865	90.45
240.083	125.27
240.3	29.01
240.517	35.16
240.735	12.63
240.952	29.01
241.169	53.59
241.386	92.5
241.603	2.39
241.821	43.35
242.038	-5.8
242.255	51.54
242.472	59.73
242.689	-3.75
242.907	80.21
243.124	76.12
243.341	-20.14
243.558	84.31
243.775	35.16
243.992	43.35
244.209	-22.19
244.426	67.92
244.643	-9.9
244.86	117.08
245.078	67.92
245.295	12.63
245.512	43.35
245.729	47.44
245.946	29.01
246.163	20.82
246.38	4.44
246.597	47.44
246.814	67.92
247.031	22.87
247.248	47.44
247.464	67.92
247.681	8.53
247.898	117.08
248.115	22.87
248.332	-46.76
248.549	59.73
248.766	76.12
248.983	35.16
249.2	67.92
249.417	8.53
249.633	8.53
249.85	26.96
250.067	26.96
250.284	69.97
250.501	51.54
250.717	-5.8
250.934	2.39
251.151	-71.34
251.368	63.83
251.585	76.12
251.801	47.44
252.018	43.35
252.235	72.02
252.451	-22.19
252.668	16.73
252.885	31.06
253.102	2.39
253.318	92.5
253.535	18.77
253.752	26.96
253.968	104.79
254.185	-26.28
254.401	57.68
254.618	29.01
254.835	29.01
255.051	100.69
255.268	57.68
255.484	96.6
255.701	37.2
255.917	-28.33
256.134	39.25
256.351	-3.75
256.567	12.63
256.784	72.02
257	51.54
257.217	110.93
257.433	80.21
257.65	69.97
257.866	2.39
258.082	6.49
258.299	51.54
258.515	80.21
258.732	29.01
258.948	55.64
259.165	86.36
259.381	-28.33
259.597	-1.71
259.814	-3.75
260.03	6.49
260.246	69.97
260.463	104.79
260.679	43.35
260.895	26.96
261.112	33.11
261.328	76.12
261.544	61.78
261.761	166.23
261.977	10.58
262.193	29.01
262.409	12.63
262.626	20.82
262.842	-18.09
263.058	-18.09
263.274	92.5
263.49	12.63
263.707	57.68
263.923	12.63
264.139	78.16
264.355	61.78
264.571	84.31
264.787	37.2
265.004	86.36
265.22	18.77
265.436	-18.09
265.652	-26.28
265.868	76.12
266.084	67.92
266.3	-1.71
266.516	37.2
266.732	51.54
266.948	43.35
267.164	-13.99
267.38	149.84
267.596	59.73
267.812	133.46
268.028	106.84
268.244	43.35
268.46	59.73
268.676	-16.04
268.892	84.31
269.108	-38.57
269.324	35.16
269.54	18.77
269.756	59.73
269.972	-22.19
270.188	92.5
270.403	-13.99
270.619	6.49
270.835	-1.71
271.051	119.12
271.267	37.2
271.483	53.59
271.698	90.45
271.914	72.02
272.13	45.4
272.346	78.16
272.562	-5.8
272.777	69.97
272.993	0.34
273.209	26.96
273.425	37.2
273.64	-9.9
273.856	94.55
274.072	22.87
274.287	29.01
274.503	51.54
274.719	80.21
274.934	59.73
275.15	-7.85
275.366	12.63
275.581	67.92
275.797	37.2
276.012	-20.14
276.228	-16.04
276.444	51.54
276.659	6.49
276.875	22.87
277.09	67.92
277.306	47.44
277.521	61.78
277.737	59.73
277.952	86.36
278.168	100.69
278.383	35.16
278.599	59.73
278.814	10.58
279.03	-5.8
279.245	100.69
279.461	74.07
279.676	72.02
279.892	26.96
280.107	49.49
280.322	10.58
280.538	55.64
280.753	-46.76
280.969	14.68
281.184	43.35
281.399	166.23
281.615	2.39
281.83	39.25
282.045	-50.86
282.26	55.64
282.476	112.98
282.691	112.98
282.906	80.21
283.122	35.16
283.337	-32.43
283.552	160.08
283.767	51.54
283.983	80.21
284.198	51.54
284.413	16.73
284.628	-36.52
284.843	94.55
285.058	33.11
285.274	31.06
285.489	2.39
285.704	35.16
285.919	55.64
286.134	-11.95
286.349	63.83
286.564	72.02
286.779	80.21
286.995	125.27
287.21	-20.14
287.425	82.26
287.64	29.01
287.855	76.12
288.07	45.4
288.285	63.83
288.5	51.54
288.715	59.73
288.93	76.12
289.145	-36.52
289.36	45.4
289.575	78.16
289.79	45.4
290.004	59.73
290.219	57.68
290.434	-3.75
290.649	31.06
290.864	41.3
291.079	35.16
291.294	39.25
291.509	-26.28
291.724	-3.75
291.938	-7.85
292.153	119.12
292.368	67.92
292.583	104.79
292.798	72.02
293.012	80.21
293.227	18.77
293.442	-3.75
293.657	35.16
293.871	92.5
294.086	-7.85
294.301	55.64
294.516	96.6
294.73	51.54
294.945	72.02
295.16	51.54
295.374	100.69
295.589	94.55
295.804	-36.52
296.018	39.25
296.233	117.08
296.447	31.06
296.662	108.88
296.877	76.12
297.091	100.69
297.306	55.64
297.52	110.93
297.735	12.63
297.949	35.16
298.164	18.77
298.378	43.35
298.593	-30.38
298.807	-22.19
299.022	63.83
299.236	80.21
299.451	12.63
299.665	6.49
299.88	53.59
300.094	110.93
300.309	-44.71
300.523	4.44
300.737	35.16
300.952	55.64
301.166	43.35
301.381	-9.9
301.595	-32.43
301.809	43.35
302.024	35.16
302.238	35.16
302.452	76.12
302.667	35.16
302.881	100.69
303.095	88.4
303.309	59.73
303.524	92.5
303.738	2.39
303.952	63.83
304.166	112.98
304.381	6.49
304.595	57.68
304.809	10.58
305.023	94.55
305.237	-1.71
305.452	4.44
305.666	18.77
305.88	133.46
306.094	86.36
306.308	10.58
306.522	82.26
306.736	29.01
306.95	84.31
307.164	24.92
307.379	69.97
307.593	63.83
307.807	67.92
308.021	2.39
308.235	96.6
308.449	-28.33
308.663	76.12
308.877	108.88
309.091	31.06
309.305	37.2
309.519	12.63
309.733	141.65
309.947	-20.14
310.161	18.77
310.374	-18.09
310.588	69.97
310.802	20.82
311.016	6.49
311.23	47.44
311.444	59.73
311.658	43.35
311.872	24.92
312.085	108.88
312.299	63.83
312.513	69.97
312.727	65.88
312.941	55.64
313.154	72.02
313.368	94.55
313.582	108.88
313.796	55.64
314.009	8.53
314.223	100.69
314.437	43.35
314.651	35.16
314.864	74.07
315.078	-1.71
315.292	55.64
315.505	72.02
315.719	76.12
315.933	43.35
316.146	26.96
316.36	16.73
316.573	51.54
316.787	158.03
317.001	100.69
317.214	2.39
317.428	35.16
317.641	-30.38
317.855	24.92
318.068	63.83
318.282	117.08
318.495	84.31
318.709	35.16
318.922	16.73
319.136	102.74
319.349	100.69
319.563	39.25
319.776	29.01
319.99	14.68
320.203	41.3
320.417	35.16
320.63	94.55
320.843	61.78
321.057	76.12
321.27	6.49
321.483	43.35
321.697	55.64
321.91	65.88
322.124	51.54
322.337	100.69
322.55	96.6
322.763	76.12
322.977	26.96
323.19	24.92
323.403	78.16
323.617	-3.75
323.83	102.74
324.043	-5.8
324.256	24.92
324.469	35.16
324.683	37.2
324.896	26.96
325.109	10.58
325.322	14.68
325.535	102.74
325.748	72.02
325.962	45.4
326.175	-5.8
326.388	61.78
326.601	-46.76
326.814	39.25
327.027	-13.99
327.24	72.02
327.453	-22.19
327.666	53.59
327.879	49.49
328.092	117.08
328.305	24.92
328.518	-1.71
328.731	76.12
328.944	76.12
329.157	74.07
329.37	51.54
329.583	47.44
329.796	92.5
330.009	-20.14
330.222	119.12
330.435	80.21
330.648	43.35
330.861	29.01
331.073	22.87
331.286	6.49
331.499	117.08
331.712	76.12
331.925	10.58
332.138	-7.85
332.35	96.6
332.563	-22.19
332.776	92.5
332.989	-9.9
333.202	16.73
333.414	47.44
333.627	94.55
333.84	-1.71
334.053	125.27
334.265	61.78
334.478	-34.47
334.691	69.97
334.903	22.87
335.116	12.63
335.329	-30.38
335.541	92.5
335.754	-20.14
335.966	110.93
336.179	112.98
336.392	39.25
336.604	69.97
336.817	72.02
337.029	125.27
337.242	-38.57
337.454	51.54
337.667	18.77
337.88	59.73
338.092	53.59
338.305	53.59
338.517	39.25
338.729	129.36
338.942	63.83
339.154	18.77
339.367	-44.71
339.579	67.92
339.792	39.25
340.004	92.5
340.217	-3.75
340.429	78.16
340.641	-28.33
340.854	59.73
341.066	-30.38
341.278	80.21
341.491	80.21
341.703	127.32
341.915	10.58
342.128	104.79
342.34	43.35
342.552	14.68
342.764	53.59
342.977	31.06
343.189	37.2
343.401	110.93
343.613	31.06
343.826	110.93
344.038	33.11
344.25	67.92
344.462	14.68
344.674	31.06
344.886	8.53
345.099	61.78
345.311	29.01
345.523	35.16
345.735	-5.8
345.947	35.16
346.159	37.2
346.371	35.16
346.583	88.4
346.795	43.35
347.007	92.5
347.219	-30.38
347.431	16.73
347.643	53.59
347.855	-20.14
348.067	104.79
348.279	-22.19
348.491	-3.75
348.703	37.2
348.915	145.75
349.127	20.82
349.339	37.2
349.551	2.39
349.763	69.97
349.975	45.4
350.187	51.54
350.399	76.12
350.61	20.82
350.822	18.77
351.034	59.73
351.246	35.16
351.458	92.5
351.669	39.25
351.881	43.35
352.093	31.06
352.305	69.97
352.517	18.77
352.728	86.36
352.94	14.68
353.152	69.97
353.363	47.44
353.575	8.53
353.787	119.12
353.999	39.25
354.21	110.93
354.422	104.79
354.633	31.06
354.845	-22.19
355.057	53.59
355.268	69.97
355.48	76.12
355.692	49.49
355.903	35.16
356.115	-24.23
356.326	76.12
356.538	57.68
356.749	84.31
356.961	61.78
357.172	51.54
357.384	-5.8
357.595	182.61
357.807	80.21
358.018	31.06
358.23	76.12
358.441	112.98
358.653	-3.75
358.864	76.12
359.075	59.73
359.287	92.5
359.498	92.5
359.709	55.64
359.921	59.73
360.132	10.58
360.344	53.59
360.555	29.01
360.766	67.92
360.977	29.01
361.189	29.01
361.4	-5.8
361.611	63.83
361.823	76.12
362.034	63.83
362.245	10.58
362.456	98.64
362.667	51.54
362.879	37.2
363.09	29.01
363.301	18.77
363.512	78.16
363.723	35.16
363.935	-5.8
364.146	69.97
364.357	12.63
364.568	63.83
364.779	26.96
364.99	110.93
365.201	78.16
365.412	4.44
365.623	43.35
365.834	39.25
366.045	-5.8
366.256	35.16
366.467	115.03
366.678	78.16
366.889	14.68
367.1	26.96
367.311	92.5
367.522	8.53
367.733	102.74
367.944	67.92
368.155	53.59
368.366	35.16
368.577	29.01
368.788	117.08
368.999	55.64
369.209	102.74
369.42	76.12
369.631	108.88
369.842	35.16
370.053	78.16
370.264	69.97
370.474	12.63
370.685	123.22
370.896	26.96
371.107	67.92
371.317	43.35
371.528	6.49
371.739	37.2
371.95	96.6
372.16	119.12
372.371	26.96
372.582	4.44
372.792	37.2
373.003	72.02
373.214	74.07
373.424	43.35
373.635	59.73
373.846	100.69
374.056	72.02
374.267	10.58
374.477	96.6
374.688	10.58
374.898	92.5
375.109	-28.33
375.319	76.12
375.53	86.36
375.74	69.97
375.951	55.64
376.161	65.88
376.372	98.64
376.582	76.12
376.793	86.36
377.003	20.82
377.214	12.63
377.424	57.68
377.635	26.96
377.845	-54.95
378.055	82.26
378.266	-20.14
378.476	61.78
378.686	2.39
378.897	35.16
379.107	-11.95
379.317	57.68
379.528	-11.95
379.738	80.21
379.948	55.64
380.158	92.5
380.369	72.02
380.579	88.4
380.789	127.32
380.999	82.26
381.21	117.08
381.42	117.08
381.63	22.87
381.84	166.23
382.05	80.21
382.261	92.5
382.471	45.4
382.681	110.93
382.891	86.36
383.101	41.3
383.311	61.78
383.521	-22.19
383.731	92.5
383.941	100.69
384.151	14.68
384.361	39.25
384.571	10.58
384.781	-11.95
384.991	170.32
385.201	108.88
385.411	55.64
385.621	-24.23
385.831	100.69
386.041	26.96
386.251	57.68
386.461	110.93
386.671	22.87
386.881	94.55
387.091	51.54
387.301	147.8
387.511	18.77
387.72	57.68
387.93	117.08
388.14	-5.8
388.35	104.79
388.56	110.93
388.769	26.96
388.979	115.03
389.189	47.44
389.399	119.12
389.609	8.53
389.818	35.16
390.028	86.36
390.238	65.88
390.447	31.06
390.657	37.2
390.867	100.69
391.076	-28.33
391.286	53.59
391.496	47.44
391.705	43.35
391.915	149.84
392.125	69.97
392.334	100.69
392.544	108.88
392.753	110.93
392.963	26.96
393.172	117.08
393.382	94.55
393.591	86.36
393.801	86.36
394.01	69.97
394.22	78.16
394.429	63.83
394.639	51.54
394.848	72.02
395.058	127.32
395.267	47.44
395.477	100.69
395.686	108.88
395.895	209.23
396.105	55.64
396.314	69.97
396.524	-5.8
396.733	92.5
396.942	141.65
397.152	84.31
397.361	112.98
397.57	86.36
397.78	121.17
397.989	137.56
398.198	51.54
398.407	41.3
398.617	166.23
398.826	102.74
399.035	39.25
399.244	127.32
399.453	162.13
399.663	90.45
399.872	131.41
400.081	51.54
400.29	143.7
400.499	92.5
400.708	63.83
400.917	162.13
401.127	51.54
401.336	53.59
401.545	90.45
401.754	96.6
401.963	143.7
402.172	51.54
402.381	84.31
402.59	119.12
402.799	20.82
403.008	43.35
403.217	117.08
403.426	168.27
403.635	133.46
403.844	174.42
404.053	24.92
404.262	86.36
404.471	141.65
404.68	141.65
404.888	84.31
405.097	106.84
405.306	209.23
405.515	112.98
405.724	209.23
405.933	76.12
406.142	207.19
406.35	127.32
406.559	139.6
406.768	170.32
406.977	196.95
407.185	227.67
407.394	182.61
407.603	112.98
407.812	209.23
408.02	258.39
408.229	149.84
408.438	166.23
408.646	178.51
408.855	176.47
409.064	260.43
409.272	192.85
409.481	192.85
409.69	242
409.898	301.39
410.107	211.28
410.315	231.76
410.524	186.71
410.733	307.54
410.941	239.95
411.15	317.78
411.358	315.73
411.567	397.65
411.775	315.73
411.984	358.74
412.192	362.83
412.401	330.06
412.609	477.52
412.818	350.54
413.026	465.23
413.234	379.22
413.443	459.09
413.651	338.26
413.86	477.52
414.068	551.24
414.276	584.01
414.485	487.76
414.693	543.05
414.901	659.79
415.11	551.24
415.318	565.58
415.526	618.83
415.734	649.55
415.943	741.71
416.151	706.89
416.359	649.55
416.567	747.85
416.776	797
416.984	790.86
417.192	764.23
417.4	780.62
417.608	821.58
417.817	825.67
418.025	911.69
418.233	1009.99
418.441	952.65
418.649	883.02
418.857	1042.76
419.065	1083.72
419.273	1055.05
419.481	1231.17
419.689	1116.48
419.897	1239.36
420.105	1255.75
420.313	1210.69
420.521	1337.66
420.729	1423.68
420.937	1419.58
421.145	1395.01
421.353	1476.93
421.561	1583.42
421.769	1661.24
421.977	1552.7
422.185	1700.16
422.393	1784.12
422.601	1888.57
422.809	1788.22
423.017	1870.14
423.224	1995.06
423.432	1919.29
423.64	2027.83
423.848	2148.66
424.056	2173.24
424.263	2484.53
424.471	2289.97
424.679	2394.42
424.887	2509.1
425.094	2554.16
425.302	2578.73
425.51	2734.38
425.718	2808.11
425.925	2718
426.133	2844.97
426.341	2912.55
426.548	3123.49
426.756	3098.92
426.964	3254.56
427.171	3365.15
427.379	3514.66
427.586	3522.85
427.794	3709.21
428.001	3844.38
428.209	3850.52
428.417	3899.67
428.624	4188.44
428.832	4268.31
429.039	4223.25
429.247	4217.11
429.454	4688.14
429.662	4716.81
429.869	4475.15
430.076	5005.58
430.284	4716.81
430.491	4937.99
430.699	5175.56
430.906	5067.02
431.114	5304.58
431.321	5460.23
431.528	5484.8
431.736	5884.16
431.943	6220.02
432.15	6019.32
432.358	6099.19
432.565	6641.9
432.772	6187.25
432.979	6715.63
433.187	6768.88
433.394	6947.05
433.601	7319.78
433.808	7495.91
434.016	7401.7
434.223	7534.82
434.43	8145.11
434.637	7719.14
434.844	8612.05
435.052	8435.92
435.259	8554.71
435.466	8575.19
435.673	8433.88
435.88	8898.77
436.087	9603.27
436.294	9564.36
436.501	9425.09
436.708	9513.16
436.915	9842.88
437.122	10168.51
437.329	10248.38
437.537	10635.44
437.743	10655.92
437.95	10723.51
438.157	11116.72
438.364	11409.58
438.571	11483.3
438.778	11616.42
438.985	12732.56
439.192	11946.14
439.399	12472.47
439.606	12343.45
439.813	12806.29
440.02	13731.97
440.227	13469.83
440.433	13381.77
440.64	13699.2
440.847	13682.82
441.054	14143.61
441.261	14944.37
441.467	14676.09
441.674	15235.18
441.881	15612.01
442.088	15657.06
442.294	15659.11
442.501	15763.56
442.708	16150.62
442.914	16830.55
443.121	17633.35
443.328	17035.35
443.534	17942.6
443.741	17629.26
443.948	17344.59
444.154	18643
444.361	18749.5
444.568	18769.97
444.774	18745.4
444.981	18841.65
445.187	19261.49
445.394	20197.41
445.6	19916.84
445.807	21944.33
446.013	21194.77
446.22	21352.46
446.426	22001.67
446.633	22405.12
446.839	23320.56
447.046	22280.19
447.252	23238.64
447.459	23220.21
447.665	23105.52
447.871	24448.99
448.078	25485.26
448.284	24031.21
448.491	25077.72
448.697	26154.95
448.903	26415.04
449.11	26208.2
449.316	25954.25
449.522	26519.49
449.728	26855.36
449.935	27393.97
450.141	27408.31
450.347	27936.68
450.553	27017.15
450.76	27455.41
450.966	28387.24
451.172	28104.62
451.378	29007.77
451.584	28137.38
451.791	29206.42
451.997	28749.73
452.203	29288.34
452.409	29253.53
452.615	29380.5
452.821	27905.96
453.027	27926.44
453.233	29491.09
453.44	28348.32
453.646	28589.99
453.852	28682.14
454.058	28917.66
454.264	28374.95
454.47	28989.34
454.676	28239.78
454.882	29032.35
455.088	26638.27
455.294	27369.4
455.5	27641.78
455.705	28051.37
455.911	26877.88
456.117	26400.71
456.323	26064.84
456.529	24600.54
456.735	25878.47
456.941	25047
457.147	24594.4
457.352	24207.33
457.558	23963.62
457.764	23705.58
457.97	23367.66
458.176	22628.35
458.381	22835.19
458.587	21778.44
458.793	21846.02
458.999	20695.07
459.204	22415.36
459.41	21268.5
459.616	20082.72
459.821	20326.43
460.027	20236.32
460.233	19963.94
460.438	18767.93
460.644	18946.1
460.85	18221.12
461.055	17789
461.261	17662.02
461.466	16302.17
461.672	15943.78
461.878	17174.61
462.083	16021.6
462.289	15773.8
462.494	15480.94
462.7	14731.38
462.905	14454.9
463.111	14780.53
463.316	15026.29
463.522	14600.31
463.727	14600.31
463.932	14786.68
464.138	14444.66
464.343	14545.02
464.549	14116.99
464.754	14690.42
464.959	14289.02
465.165	14415.99
465.37	13797.51
465.575	13379.72
465.781	13723.78
465.986	13928.58
466.191	13224.08
466.397	13228.17
466.602	12396.7
466.807	12914.83
467.012	13064.33
467.218	12781.71
467.423	12628.12
467.628	12777.62
467.833	13310.09
468.038	12988.56
468.244	12548.25
468.449	13316.23
468.654	12773.52
468.859	12437.66
469.064	12411.03
469.269	12073.12
469.474	12048.54
469.679	12427.42
469.885	12226.71
470.09	12189.85
470.295	12073.12
470.5	11821.22
470.705	11724.96
470.91	11593.89
471.115	11473.06
471.32	11722.91
471.525	11690.15
471.73	11049.13
471.935	11204.78
472.139	10924.21
472.344	11204.78
472.549	10698.93
472.754	10803.38
472.959	10766.51
473.164	10381.49
473.369	10084.54
473.574	10553.52
473.778	10631.35
473.983	10471.61
474.188	10354.87
474.393	9980.09
474.598	10004.67
474.802	9846.98
475.007	9679.04
475.212	9603.27
475.417	9380.04
475.621	9574.6
475.826	9720
476.031	9310.41
476.235	9257.16
476.44	9236.68
476.645	9091.27
476.849	9162.95
477.054	9033.93
477.259	8868.05
477.463	9087.18
477.668	8745.17
477.872	8653.01
478.077	8562.9
478.282	8288.47
478.486	8566.99
478.691	8300.76
478.895	8157.4
479.1	8169.69
479.304	8333.53
479.509	7985.37
479.713	8087.77
479.918	7944.41
480.122	7813.34
480.326	8122.59
480.531	7964.89
480.735	7725.28
480.94	7913.69
481.144	8026.33
481.348	7465.19
481.553	7743.71
481.757	7465.19
481.961	7766.24
482.166	7764.19
482.37	7573.73
482.574	7543.01
482.778	7424.23
482.983	7563.49
483.187	7616.74
483.391	7524.58
483.595	7618.79
483.8	7500
484.004	7727.33
484.208	7608.55
484.412	7645.41
484.616	7473.38
484.821	7684.32
485.025	7411.94
485.229	7647.46
485.433	7506.15
485.637	7545.06
485.841	7346.41
486.045	7477.48
486.249	7547.11
486.453	7413.99
486.657	7549.15
486.861	7583.97
487.065	7418.08
487.269	7540.96
487.473	7385.32
487.677	7567.59
487.881	7565.54
488.085	7606.5
488.289	7557.35
488.493	7573.73
488.697	7739.62
488.901	7549.15
489.105	7491.81
489.309	7526.63
489.512	7522.53
489.716	7579.87
489.92	7686.37
490.124	7649.5
490.328	7882.97
490.531	7547.11
490.735	7790.81
490.939	7727.33
491.143	7776.48
491.346	7629.02
491.55	8046.81
491.754	7731.42
491.958	7809.25
492.161	7833.82
492.365	7993.56
492.569	8079.58
492.772	7710.94
492.976	7999.71
493.18	8069.34
493.383	8079.58
493.587	8341.72
493.79	8337.62
493.994	8251.61
494.197	8120.54
494.401	8394.97
494.605	8251.61
494.808	8257.75
495.012	8466.64
495.215	8409.3
495.419	8532.18
495.622	8628.43
495.825	8693.97
496.029	8685.78
496.232	8935.63
496.436	8698.06
496.639	8968.4
496.843	9236.68
497.046	9072.84
497.249	9253.06
497.453	9349.32
497.656	9488.58
497.859	9556.16
498.063	9474.24
498.266	9853.12
498.469	9578.69
498.673	9840.83
498.876	10037.44
499.079	9998.52
499.282	10111.16
499.485	10176.7
499.689	10168.51
499.892	10692.79
500.095	10643.63
500.298	10580.15
500.501	10592.44
500.705	11104.43
500.908	11167.91
501.111	11217.07
501.314	11249.83
501.517	11260.07
501.72	11407.53
501.923	11278.51
502.126	11751.59
502.329	11966.62
502.532	12224.67
502.735	11966.62
502.938	12318.87
503.141	12140.7
503.344	12648.6
503.547	12640.4
503.75	12787.86
503.953	12855.44
504.156	13056.14
504.359	13185.16
504.562	13305.99
504.765	13545.61
504.968	13813.89
505.17	13897.86
505.373	13588.61
505.576	14014.59
505.779	14014.59
505.982	14569.59
506.185	14440.57
506.387	14631.03
506.59	14610.55
506.793	14952.56
506.996	14895.22
507.198	15329.39
507.401	15353.96
507.604	15749.22
507.807	15790.18
508.009	15908.96
508.212	16025.7
508.415	16265.31
508.617	16212.06
508.82	16529.5
509.022	16334.94
509.225	17025.11
509.428	17055.83
509.63	17172.56
509.833	17135.7
510.035	17825.86
510.238	17397.84
510.44	17739.85
510.643	18010.18
510.845	18208.83
511.048	18075.71
511.25	18360.38
511.453	18563.13
511.655	19136.56
511.858	18952.24
512.06	19271.73
512.262	19460.14
512.465	19400.75
512.667	19703.85
512.87	19976.23
513.072	19863.59
513.274	20457.5
513.477	20490.27
513.679	20770.84
513.881	20832.28
514.084	21114.9
514.286	21135.38
514.488	21264.4
514.69	21901.32
514.893	22018.05
515.095	22102.02
515.297	22220.8
515.499	22534.14
515.701	22573.05
515.904	22835.19
516.106	23003.13
516.308	23134.2
516.51	23500.78
516.712	23476.21
516.914	23740.4
517.116	24113.13
517.318	24412.13
517.52	24365.03
517.722	24428.51
517.925	24618.97
518.127	25200.6
518.329	25206.74
518.531	25114.58
518.733	25868.23
518.935	25929.67
519.136	26126.28
519.338	26222.53
519.54	26376.13
519.742	26630.08
519.944	26697.66
520.146	27410.36
520.348	27344.82
520.55	27453.36
520.752	27531.19
520.954	27928.49
521.155	28041.13
521.357	28368.8
521.559	28348.32
521.761	28817.31
521.963	28925.85
522.164	29104.03
522.366	29011.87
522.568	29513.62
522.77	29898.64
522.971	30082.95
523.173	29704.08
523.375	30416.77
523.576	30314.37
523.778	30128.01
523.98	30379.91
524.181	30879.61
524.383	30844.8
524.584	31149.95
524.786	30902.14
524.988	31055.74
525.189	31616.88
525.391	31729.52
525.592	31999.85
525.794	32182.12
525.995	32286.57
526.197	32096.11
526.398	32038.76
526.6	32751.46
526.801	32526.18
527.003	32700.26
527.204	32556.9
527.406	33136.48
527.607	33195.87
527.808	33159
528.01	32726.88
528.211	33091.42
528.412	34131.79
528.614	33210.2
528.815	33630.04
529.016	34074.45
529.218	33714
529.419	33867.6
529.62	33972.05
529.822	34094.93
530.023	34484.04
530.224	34170.7
530.425	34049.87
530.626	33937.23
530.828	33816.4
531.029	34713.41
531.23	34209.61
531.431	34531.14
531.632	34527.05
531.833	34549.57
532.035	34479.94
532.236	34551.62
532.437	34914.11
532.638	34395.98
532.839	35010.37
533.04	34766.66
533.241	34518.85
533.442	35364.67
533.643	34854.72
533.844	34897.73
534.045	35198.78
534.246	34418.5
534.447	35022.65
534.648	34850.63
534.849	35016.51
535.05	34674.5
535.251	34905.92
535.451	34740.04
535.652	34971.46
535.853	34887.49
536.054	35104.57
536.255	35131.2
536.456	34111.31
536.657	35352.38
536.857	34903.87
537.058	34934.59
537.259	35587.89
537.46	34850.63
537.66	34826.05
537.861	35186.49
538.062	35006.27
538.263	35096.38
538.463	34666.31
538.664	34971.46
538.865	34561.86
539.065	35106.62
539.266	34928.45
539.466	35202.88
539.667	34643.78
539.868	35510.07
540.068	34969.41
540.269	34838.34
540.469	35143.49
540.67	34991.94
540.87	34924.35
541.071	34770.75
541.271	35024.7
541.472	34934.59
541.672	34754.37
541.873	34897.73
542.073	34387.78
542.274	35176.25
542.474	34948.93
542.675	34729.8
542.875	35045.18
543.075	34518.85
543.276	34608.97
543.476	35415.86
543.676	34692.93
543.877	35034.94
544.077	34680.64
544.277	34725.7
544.478	34772.8
544.678	35143.49
544.878	34576.2
545.078	34690.88
545.279	34793.28
545.479	34654.02
545.679	34654.02
545.879	34701.12
546.079	34686.79
546.28	34608.97
546.48	34531.14
546.68	34756.42
546.88	34793.28
547.08	34723.65
547.28	34414.41
547.48	34209.61
547.68	34461.51
547.88	34494.28
548.081	34989.89
548.281	34731.84
548.481	34551.62
548.681	34694.98
548.881	34563.91
549.081	34725.7
549.28	34293.58
549.48	34621.25
549.68	34778.95
549.88	34654.02
550.08	34463.56
550.28	34307.91
550.48	34221.9
550.68	34987.84
550.88	34295.63
551.08	34066.25
551.279	34299.72
551.479	34033.49
551.679	34076.49
551.879	34150.22
552.079	34666.31
552.278	34148.17
552.478	34651.97
552.678	34051.92
552.878	34838.34
553.077	34432.84
553.277	34013.01
553.477	34623.3
553.676	34080.59
553.876	34082.64
554.076	33869.65
554.275	33711.95
554.475	33863.5
554.674	34205.52
554.874	34178.89
555.074	34092.88
555.273	33900.37
555.473	34162.51
555.672	33867.6
555.872	34004.81
556.071	34076.49
556.271	34045.77
556.47	33439.58
556.67	33468.25
556.869	33716.05
557.068	33759.06
557.268	33488.73
557.467	33509.21
557.667	33728.34
557.866	33576.79
558.065	33294.17
558.265	33546.07
558.464	33138.52
558.663	33634.13
558.863	33265.5
559.062	33795.92
559.261	32892.77
559.461	33812.31
559.66	33326.94
559.859	33320.79
560.058	32849.76
560.258	33150.81
560.457	33003.36
560.656	33423.19
560.855	32819.04
561.054	33451.86
561.253	32814.94
561.453	32991.07
561.652	32870.24
561.851	32986.97
562.05	32687.97
562.249	32415.59
562.448	32728.93
562.647	32907.1
562.846	32442.21
563.045	32718.69
563.244	31881.07
563.443	32753.51
563.642	32049
563.841	32573.28
564.04	31776.62
564.239	32616.29
564.438	32257.9
564.637	32038.76
564.836	32012.14
565.035	31557.49
565.234	31975.28
565.432	31977.33
565.631	31924.08
565.83	31541.11
566.029	31489.91
566.228	31553.4
566.427	31266.68
566.625	31301.5
566.824	30971.77
567.023	31496.05
567.222	30953.34
567.42	31065.98
567.619	30914.43
567.818	31166.33
568.016	30916.48
568.215	31418.23
568.414	30760.83
568.612	30869.37
568.811	30619.52
569.01	31205.24
569.208	30470.02
569.407	30758.78
569.605	29982.6
569.804	30660.48
570.002	29935.5
570.201	30459.78
570.4	30060.43
570.598	29765.52
570.797	29728.66
570.995	29755.28
571.193	29544.34
571.392	30240.65
571.59	29564.82
571.789	29480.85
571.987	29673.36
572.186	29437.84
572.384	29374.36
572.582	29530
572.781	29591.44
572.979	28995.48
573.177	29396.88
573.376	29136.79
573.574	29249.43
573.772	29222.81
573.971	28764.06
574.169	28710.82
574.367	28780.45
574.565	28888.99
574.763	28573.6
574.962	28569.51
575.16	28333.99
575.358	28389.28
575.556	28506.02
575.754	28698.53
575.952	28153.77
576.151	28503.97
576.349	27877.29
576.547	27766.7
576.745	27717.55
576.943	28176.3
577.141	27633.58
577.339	27877.29
577.537	27486.13
577.735	27903.92
577.933	27672.5
578.131	27764.65
578.329	27324.34
578.527	27344.82
578.725	27258.81
578.923	27260.85
579.121	26894.27
579.319	27013.05
579.516	26871.74
579.714	27152.31
579.912	26701.76
580.11	26716.09
580.308	27047.86
580.506	26902.46
580.704	26300.36
580.901	26623.94
581.099	26439.62
581.297	25937.87
581.495	26081.22
581.692	26023.88
581.89	26009.54
582.088	26163.14
582.285	26015.69
582.483	26335.17
582.681	25778.12
582.878	26075.08
583.076	25808.84
583.274	25991.11
583.471	25219.03
583.669	25991.11
583.866	25378.77
584.064	25696.21
584.262	25083.86
584.459	25454.54
584.657	25081.81
584.854	25423.83
585.052	25044.95
585.249	25020.38
585.447	25233.36
585.644	24813.53
585.841	24893.4
586.039	25104.34
586.236	24561.63
586.434	24315.87
586.631	24444.9
586.828	24518.62
587.026	24557.53
587.223	24723.42
587.42	24389.6
587.618	24305.63
587.815	23904.23
588.012	23908.33
588.21	24117.22
588.407	24190.95
588.604	23812.07
588.801	23820.27
588.999	24250.34
589.196	23554.03
589.393	23857.13
589.59	23582.7
589.787	23289.84
589.984	23332.85
590.182	23095.28
590.379	23410.67
590.576	22941.69
590.773	23250.93
590.97	23275.51
591.167	22966.26
591.364	22554.62
591.561	23072.76
591.758	22800.38
591.955	22794.23
592.152	22622.2
592.349	22439.93
592.546	22607.87
592.743	22788.09
592.94	22335.49
593.137	22640.64
593.334	22798.33
593.531	22114.31
593.727	22366.21
593.924	22106.12
594.121	22044.68
594.318	22013.96
594.515	21815.3
594.712	22202.37
594.908	21690.38
595.105	22034.44
595.302	21688.33
595.499	21667.85
595.696	21614.6
595.892	21356.56
596.089	21610.51
596.286	21366.8
596.482	21483.53
596.679	21377.04
596.876	21227.54
597.072	20961.3
597.269	21053.46
597.466	20865.05
597.662	20666.39
597.859	20762.65
598.055	20871.19
598.252	20877.33
598.448	20682.78
598.645	20774.94
598.841	20572.19
599.038	20830.23
599.234	20484.12
599.431	20168.74
599.627	20299.81
599.824	20256.8
600.02	20164.64
600.217	20369.44
600.413	19830.82
600.609	20344.86
600.806	20072.48
601.002	20017.19
601.198	19845.16
601.395	19638.31
601.591	19804.2
601.787	19879.97
601.984	19517.48
602.18	19800.1
602.376	19507.24
602.572	19320.88
602.769	19552.3
602.965	19408.94
603.161	19421.23
603.357	19198
603.553	19241.01
603.75	19056.69
603.946	18907.19
604.142	19183.66
604.338	18722.87
604.534	18933.81
604.73	18704.44
604.926	19064.88
605.122	18671.67
605.318	18724.92
605.514	18614.33
605.71	18421.82
605.906	18245.69
606.102	18380.86
606.298	18436.16
606.494	18206.78
606.69	18397.24
606.886	18460.73
607.082	17950.79
607.278	17848.39
607.474	18116.67
607.67	17799.24
607.866	17801.29
608.062	18116.67
608.257	17985.6
608.453	17782.85
608.649	17899.59
608.845	17576.01
609.041	17748.04
609.236	17539.15
609.432	17721.41
609.628	17473.61
609.824	17616.97
610.019	17694.79
610.215	17619.02
610.411	17485.9
610.606	17621.06
610.802	17377.36
610.998	17434.7
611.193	17391.69
611.389	17254.48
611.584	17010.77
611.78	17277.01
611.976	17133.65
612.171	17096.78
612.367	17174.61
612.562	16765.01
612.758	16834.64
612.953	16760.92
613.149	17098.83
613.344	16867.41
613.539	17119.31
613.735	16803.92
613.93	16877.65
614.126	16840.79
614.321	16992.34
614.517	16746.58
614.712	16803.92
614.907	16652.38
615.103	16998.48
615.298	16607.32
615.493	16646.23
615.688	16371.8
615.884	16500.83
616.079	16339.04
616.274	16504.92
616.47	16552.02
616.665	16218.21
616.86	16255.07
617.055	16380
617.25	16367.71
617.445	16341.08
617.641	15982.69
617.836	16394.33
618.031	16042.08
618.226	16046.18
618.421	15970.4
618.616	15988.83
618.811	15798.37
619.006	15978.59
619.201	15667.3
619.396	15708.26
619.591	15491.18
619.786	15757.41
619.981	15497.32
620.176	15724.65
620.371	15261.8
620.566	15358.06
620.761	15435.88
620.956	15358.06
621.151	15014
621.346	15315.05
621.541	14862.45
621.735	14954.61
621.93	14565.5
622.125	14749.81
622.32	14479.48
622.515	14719.09
622.709	14690.42
622.904	14407.8
623.099	14608.5
623.294	14366.84
623.488	14209.15
623.683	14301.31
623.878	14004.35
624.072	14098.56
624.267	14145.66
624.462	13795.46
624.656	13715.59
624.851	13621.38
625.046	13774.98
625.24	13639.81
625.435	13486.22
625.629	13590.66
625.824	13314.19
626.018	13162.64
626.213	13174.92
626.407	13422.73
626.602	13043.85
626.796	12851.35
626.991	12892.3
627.185	12730.52
627.38	13035.66
627.574	12710.04
627.768	12548.25
627.963	12439.7
628.157	12556.44
628.352	12804.24
628.546	12433.56
628.74	12306.59
628.935	12214.43
629.129	12290.2
629.323	11997.34
629.517	12001.44
629.712	12060.83
629.906	12048.54
630.1	11927.71
630.294	11827.36
630.489	11815.07
630.683	11743.39
630.877	11528.36
631.071	11442.34
631.265	11716.77
631.459	11436.2
631.653	11735.2
631.848	11454.63
632.042	11243.69
632.236	11520.17
632.43	11200.68
632.624	11237.55
632.818	10944.69
633.012	10799.28
633.206	10881.2
633.4	10612.92
633.594	10827.95
633.788	10813.62
633.982	10694.83
634.176	10655.92
634.369	10723.51
634.563	10778.8
634.757	10541.24
634.951	10686.64
635.145	10414.26
635.339	10455.22
635.533	10352.82
635.726	10291.38
635.92	10305.72
636.114	10105.02
636.308	10229.95
636.501	10012.86
636.695	10119.35
636.889	9955.52
637.083	9701.57
637.276	9711.81
637.47	9611.46
637.664	9726.14
637.857	9595.07
638.051	9603.27
638.244	9435.33
638.438	9431.24
638.632	9636.03
638.825	9324.74
639.019	9269.45
639.212	9265.35
639.406	9291.98
639.599	9185.48
639.793	9087.18
639.986	9007.31
640.18	9113.8
640.373	8980.68
640.567	9009.36
640.76	8917.2
640.954	8958.16
641.147	8915.15
641.34	8712.4
641.534	8923.34
641.727	8685.78
641.92	8581.33
642.114	8612.05
642.307	8499.41
642.5	8444.12
642.694	8292.57
642.887	8466.64
643.08	8423.64
643.273	8351.96
643.467	8212.7
643.66	8220.89
643.853	8249.56
644.046	7954.65
644.239	8046.81
644.432	8083.67
644.626	7991.52
644.819	8046.81
645.012	8050.91
645.205	7919.84
645.398	7921.88
645.591	7850.21
645.784	7772.38
645.977	7745.76
646.17	7737.57
646.363	7606.5
646.556	7555.3
646.749	7522.53
646.942	7612.64
647.135	7551.2
647.328	7409.89
647.521	7434.47
647.714	7325.93
647.907	7319.78
648.099	7366.88
648.292	7248.1
648.485	7336.17
648.678	7182.57
648.871	7307.49
649.064	7272.68
649.256	7319.78
649.449	7088.36
649.642	6863.08
649.835	6918.38
650.027	6705.39
650.22	6918.38
650.413	6828.27
650.605	6734.06
650.798	6719.73
650.991	6625.52
651.183	6646
651.376	6678.77
651.568	6713.58
651.761	6646
651.954	6631.66
652.146	6641.9
652.339	6516.98
652.531	6494.45
652.724	6344.95
652.916	6273.27
653.109	6396.15
653.301	6195.45
653.494	6433.01
653.686	6224.12
653.879	6377.72
654.071	6131.96
654.263	6064.38
654.456	6228.21
654.648	6039.8
654.84	5933.31
655.033	5779.71
655.225	5918.97
655.417	5955.83
655.61	6019.32
655.802	5824.76
655.994	5943.55
656.186	5691.65
656.379	5708.03
656.571	5697.79
656.763	5540.1
656.955	5671.17
657.148	5697.79
657.34	5687.55
657.532	5675.26
657.724	5669.12
657.916	5527.81
658.108	5572.86
658.3	5351.68
658.492	5562.62
658.684	5298.44
658.876	5482.75
659.068	5425.41
659.26	5234.95
659.452	5411.07
659.644	5273.86
659.836	5384.45
660.028	5228.81
660.22	4972.81
660.412	5208.33
660.604	5142.79
660.796	5142.79
660.988	4985.1
661.18	4976.91
661.372	5026.06
661.563	5138.69
661.755	4757.77
661.947	5028.1
662.139	4954.38
662.331	4884.75
662.522	4983.05
662.714	4798.73
662.906	4843.79
663.097	4835.6
663.289	4696.33
663.481	4638.99
663.673	4733.2
663.864	4751.63
664.056	4606.22
664.247	4622.61
664.439	4532.5
664.631	4772.11
664.822	4602.13
665.014	4548.88
665.205	4548.88
665.397	4401.43
665.588	4485.39
665.78	4395.28
665.971	4460.82
666.163	4352.27
666.354	4374.8
666.546	4348.18
666.737	4335.89
666.929	4176.15
667.12	4352.27
667.311	4217.11
667.503	4260.12
667.694	4135.19
667.885	4049.18
668.077	4395.28
668.268	4088.09
668.459	4036.89
668.651	4022.55
668.842	4094.23
669.033	4053.27
669.224	3944.73
669.416	4065.56
669.607	3995.93
669.798	3950.87
669.989	4020.5
670.18	4083.99
670.371	4034.84
670.563	3893.53
670.754	3909.91
670.945	3744.03
671.136	3791.13
671.327	3909.91
671.518	3895.58
671.709	3899.67
671.9	3868.95
672.091	3729.69
672.282	3664.16
672.473	3877.15
672.664	3662.11
672.855	3631.39
673.046	3647.77
673.237	3737.88
673.428	3684.64
673.619	3586.33
673.809	3606.81
674	3598.62
674.191	3701.02
674.382	3559.71
674.573	3578.14
674.764	3490.08
674.954	3539.23
675.145	3508.51
675.336	3539.23
675.527	3502.37
675.717	3432.74
675.908	3492.13
676.099	3512.61
676.289	3557.66
676.48	3336.48
676.671	3430.69
676.861	3371.3
677.052	3420.45
677.243	3279.14
677.433	3258.66
677.624	3379.49
677.814	3395.87
678.005	3344.67
678.195	3295.52
678.386	3354.91
678.576	3232.04
678.767	3232.04
678.957	3127.59
679.148	3182.88
679.338	3246.37
679.529	3129.64
679.719	3158.31
679.909	3156.26
680.1	3115.3
680.29	3141.93
680.481	3098.92
680.671	3021.1
680.861	2992.42
681.052	3107.11
681.242	3127.59
681.432	3111.21
681.622	2967.85
681.813	3119.4
682.003	3017
682.193	2943.27
682.383	3002.66
682.573	3049.77
682.764	2881.83
682.954	2943.27
683.144	2976.04
683.334	2908.46
683.524	2826.54
683.714	2797.87
683.904	2912.55
684.094	2877.74
684.284	2816.3
684.474	2861.35
684.664	2955.56
684.854	2873.64
685.044	2844.97
685.234	2738.48
685.424	2804.01
685.614	2697.52
685.804	2890.03
685.994	2722.09
686.184	2877.74
686.374	2783.53
686.564	2699.56
686.753	2857.26
686.943	2756.91
687.133	2726.19
687.323	2648.36
687.513	2828.59
687.702	2674.99
687.892	2672.94
688.082	2740.52
688.272	2795.82
688.461	2584.88
688.651	2732.33
688.841	2601.26
689.03	2578.73
689.22	2640.17
689.41	2689.32
689.599	2595.12
689.789	2554.16
689.979	2513.2
690.168	2550.06
690.358	2646.32
690.547	2568.49
690.737	2640.17
690.926	2617.65
691.116	2484.53
691.305	2541.87
691.495	2449.71
691.684	2545.97
691.874	2548.01
692.063	2443.57
692.252	2310.45
692.442	2453.81
692.631	2410.8
692.82	2402.61
693.01	2339.12
693.199	2380.08
693.388	2390.32
693.578	2386.22
693.767	2382.13
693.956	2316.59
694.146	2386.22
694.335	2314.55
694.524	2396.46
694.713	2396.46
694.902	2287.92
695.092	2337.07
695.281	2347.31
695.47	2267.44
695.659	2304.31
695.848	2326.83
696.037	2226.48
696.226	2298.16
696.415	2255.15
696.604	2234.68
696.793	2136.37
696.982	2279.73
697.171	2197.81
697.36	2232.63
697.549	2197.81
697.738	2158.9
697.927	2165.04
698.116	2234.68
698.305	2177.33
698.494	2189.62
698.683	2160.95
698.872	2275.63
699.061	2283.83
699.25	2103.61
699.438	2156.85
699.627	2265.39
699.816	2306.35
700.005	2081.08
700.193	2074.93
700.382	2249.01
700.571	2175.28
700.76	2216.24
700.948	2144.56
701.137	2191.67
701.326	2132.28
701.514	2169.14
701.703	2173.24
701.892	2246.96
702.08	2287.92
702.269	2148.66
702.457	1947.96
702.646	2042.17
702.834	2240.82
703.023	2017.59
703.212	2173.24
703.4	2173.24
703.589	2230.58
703.777	2138.42
703.965	2052.41
704.154	2107.7
704.342	2025.78
704.531	2083.13
704.719	2132.28
704.907	2122.04
705.096	2169.14
705.284	2152.76
705.472	2165.04
705.661	2167.09
705.849	2160.95
706.037	2163
706.226	2132.28
706.414	2087.22
706.602	2081.08
706.79	2056.5
706.979	1962.3
707.167	2111.8
707.355	2058.55
707.543	2058.55
707.731	2062.65
707.919	1997.11
708.107	1863.99
708.296	2103.61
708.484	2066.74
708.672	2081.08
708.86	2066.74
709.048	2013.49
709.236	1947.96
709.424	2060.6
709.612	2058.55
709.8	2003.25
709.988	2058.55
710.176	1978.68
710.364	2140.47
710.551	2017.59
710.739	2011.45
710.927	2160.95
711.115	2074.93
711.303	2132.28
711.491	2189.62
711.679	1976.63
711.866	1995.06
712.054	2009.4
712.242	2068.79
712.43	2169.14
712.617	2062.65
712.805	2103.61
712.993	2124.08
713.181	1898.81
713.368	2011.45
713.556	2042.17
713.744	2052.41
713.931	2119.99
714.119	2087.22
714.306	2013.49
714.494	2001.21
714.682	2013.49
714.869	1956.15
715.057	2038.07
715.244	1902.9
715.432	2033.97
715.619	2017.59
715.807	2087.22
715.994	2021.69
716.182	2095.41
716.369	2085.17
716.556	2218.29
716.744	2025.78
716.931	1984.82
717.119	2165.04
717.306	1952.06
717.493	2038.07
717.681	2091.32
717.868	2079.03
718.055	1999.16
718.242	2027.83
718.43	2036.02
718.617	2044.21
718.804	1943.86
718.991	1995.06
719.179	2046.26
719.366	2031.93
719.553	2052.41
719.74	1937.72
719.927	1950.01
720.114	2025.78
720.301	1937.72
720.488	2009.4
720.676	2001.21
720.863	2019.64
721.05	2023.73
721.237	2036.02
721.424	2050.36
721.611	1900.86
721.798	1968.44
721.985	2036.02
722.172	2009.4
722.358	2052.41
722.545	1927.48
722.732	1929.53
722.919	2009.4
723.106	1874.23
723.293	1925.43
723.48	2066.74
723.667	1870.14
723.853	1919.29
724.04	2040.12
724.227	1933.62
724.414	2003.25
724.6	1970.49
724.787	1974.58
724.974	1960.25
725.161	1943.86
725.347	1970.49
725.534	1825.08
725.72	2058.55
725.907	1976.63
726.094	2005.3
726.28	1904.95
726.467	1972.54
726.653	2052.41
726.84	1986.87
727.027	1962.3
727.213	1888.57
727.4	2019.64
727.586	2074.93
727.773	1968.44
727.959	2009.4
728.145	2011.45
728.332	1907
728.518	1945.91
728.705	1861.94
728.891	1933.62
729.077	1997.11
729.264	1927.48
729.45	1947.96
729.636	1978.68
729.823	1890.62
730.009	2054.45
730.195	1960.25
730.382	1976.63
730.568	2036.02
730.754	1937.72
730.94	1966.39
731.126	1925.43
731.313	1984.82
731.499	2122.04
731.685	1931.58
731.871	1972.54
732.057	1999.16
732.243	1894.71
732.429	1956.15
732.615	1857.85
732.801	1952.06
732.987	1896.76
733.173	1964.34
733.359	1845.56
733.545	2033.97
733.731	1976.63
733.917	1845.56
734.103	1933.62
734.289	1997.11
734.475	1880.38
734.661	2052.41
734.847	1902.9
735.033	1954.1
735.219	1812.79
735.404	1880.38
735.59	1847.61
735.776	1888.57
735.962	1882.42
736.148	1751.35
736.333	1904.95
736.519	1904.95
736.705	1896.76
736.89	1820.99
737.076	1915.19
737.262	1847.61
737.447	1907
737.633	1915.19
737.819	1984.82
738.004	1790.27
738.19	1798.46
738.375	1820.99
738.561	1915.19
738.747	1814.84
738.932	1737.02
739.118	1898.81
739.303	1771.83
739.489	1790.27
739.674	1646.91
739.859	1747.26
740.045	1863.99
740.23	1872.18
740.416	1767.74
740.601	1820.99
740.786	1743.16
740.972	1784.12
741.157	1804.6
741.342	1730.87
741.528	1808.7
741.713	1831.23
741.898	1689.92
742.084	1718.59
742.269	1732.92
742.454	1771.83
742.639	1839.42
742.824	1702.2
743.01	1894.71
743.195	1773.88
743.38	1685.82
743.565	1702.2
743.75	1616.19
743.935	1730.87
744.12	1747.26
744.305	1714.49
744.49	1642.81
744.675	1575.23
744.86	1569.09
745.045	1548.61
745.23	1716.54
745.415	1657.15
745.6	1601.85
745.785	1575.23
745.97	1724.73
746.155	1612.09
746.34	1655.1
746.525	1571.13
746.71	1599.8
746.895	1579.33
747.079	1509.69
747.264	1589.57
747.449	1593.66
747.634	1567.04
747.819	1530.17
748.003	1524.03
748.188	1487.17
748.373	1427.78
748.557	1452.35
748.742	1517.89
748.927	1507.65
749.111	1472.83
749.296	1411.39
749.481	1511.74
749.665	1554.75
749.85	1417.54
750.034	1423.68
750.219	1435.97
750.404	1380.67
750.588	1405.25
750.773	1317.19
750.957	1438.02
751.141	1382.72
751.326	1329.47
751.51	1296.71
751.695	1376.58
751.879	1317.19
752.064	1382.72
752.248	1395.01
752.432	1403.2
752.617	1306.95
752.801	1337.66
752.985	1313.09
753.17	1263.94
753.354	1227.07
753.538	1282.37
753.722	1290.56
753.907	1229.12
754.091	1222.98
754.275	1280.32
754.459	1263.94
754.643	1153.35
754.828	1192.26
755.012	1235.27
755.196	1102.15
755.38	1259.84
755.564	1100.1
755.748	1208.64
755.932	1231.17
756.116	1206.59
756.3	1233.22
756.484	1077.57
756.668	1124.68
756.852	1067.33
757.036	1071.43
757.22	1114.44
757.404	1036.61
757.588	1069.38
757.772	1171.78
757.956	1110.34
758.14	1124.68
758.323	1085.76
758.507	1143.11
758.691	1065.29
758.875	1102.15
759.059	1067.33
759.242	1001.8
759.426	987.46
759.61	1136.96
759.794	1005.89
759.977	1118.53
760.161	1108.29
760.345	1001.8
760.528	1044.81
760.712	1067.33
760.895	903.5
761.079	921.93
761.263	907.59
761.446	1018.18
761.63	981.32
761.813	934.22
761.997	1005.89
762.18	973.13
762.364	1055.05
762.547	907.59
762.731	999.75
762.914	952.65
763.098	923.98
763.281	995.65
763.464	944.45
763.648	946.5
763.831	880.97
764.015	903.5
764.198	905.54
764.381	944.45
764.564	907.59
764.748	821.58
764.931	840.01
765.114	907.59
765.297	936.26
765.481	725.32
765.664	930.12
765.847	860.49
766.03	895.3
766.213	840.01
766.397	903.5
766.58	911.69
766.763	825.67
766.946	788.81
767.129	831.82
767.312	817.48
767.495	878.92
767.678	821.58
767.861	880.97
768.044	805.19
768.227	895.3
768.41	891.21
768.593	835.91
768.776	837.96
768.959	815.43
769.142	848.2
769.324	831.82
769.507	870.73
769.69	809.29
769.873	805.19
770.056	780.62
770.239	792.91
770.421	788.81
770.604	762.19
770.787	768.33
770.97	696.65
771.152	727.37
771.335	760.14
771.518	762.19
771.7	756.04
771.883	840.01
772.066	733.51
772.248	760.14
772.431	706.89
772.613	649.55
772.796	747.85
772.978	723.27
773.161	758.09
773.343	766.28
773.526	680.27
773.708	719.18
773.891	698.7
774.073	708.94
774.256	766.28
774.438	780.62
774.621	684.36
774.803	753.99
774.985	690.51
775.168	702.79
775.35	747.85
775.532	624.97
775.715	606.54
775.897	645.45
776.079	674.12
776.261	690.51
776.444	661.84
776.626	612.68
776.808	676.17
776.99	659.79
777.173	663.88
777.355	612.68
777.537	620.88
777.719	637.26
777.901	694.6
778.083	526.67
778.265	624.97
778.447	543.05
778.629	532.81
778.811	674.12
778.993	610.64
779.175	612.68
779.357	620.88
779.539	594.25
779.721	510.29
779.903	567.63
780.085	610.64
780.267	559.44
780.449	620.88
780.631	604.49
780.812	502.09
780.994	471.37
781.176	530.77
781.358	522.57
781.54	584.01
781.721	495.95
781.903	592.2
782.085	526.67
782.267	534.86
782.448	506.19
782.63	485.71
782.812	444.75
782.993	575.82
783.175	524.62
783.357	454.99
783.538	512.33
783.72	436.56
783.901	434.51
784.083	469.33
784.264	500.05
784.446	442.7
784.627	485.71
784.809	510.29
784.99	409.94
785.172	450.89
785.353	452.94
785.535	452.94
785.716	416.08
785.897	395.6
786.079	450.89
786.26	514.38
786.441	471.37
786.623	430.41
786.804	411.98
786.985	411.98
787.167	428.37
787.348	395.6
787.529	399.7
787.71	532.81
787.891	407.89
788.073	409.94
788.254	325.97
788.435	498
788.616	481.61
788.797	313.68
788.978	399.7
789.159	387.41
789.34	381.26
789.522	336.21
789.703	289.1
789.884	313.68
790.065	405.84
790.246	305.49
790.427	323.92
790.607	424.27
790.788	379.22
790.969	285.01
791.15	305.49
791.331	364.88
791.512	328.02
791.693	305.49
791.874	356.69
792.054	360.78
792.235	383.31
792.416	305.49
792.597	317.78
792.778	282.96
792.958	311.63
793.139	344.4
793.32	287.06
793.5	262.48
793.681	323.92
793.862	391.5
794.042	407.89
794.223	334.16
794.404	348.5
794.584	248.15
794.765	334.16
794.945	319.82
795.126	342.35
795.306	307.54
795.487	297.3
795.667	332.11
795.848	237.91
796.028	260.43
796.209	231.76
796.389	358.74
796.57	291.15
796.75	282.96
796.93	258.39
797.111	315.73
797.291	223.57
797.471	203.09
797.652	242
797.832	299.34
798.012	280.91
798.192	219.47
798.373	280.91
798.553	260.43
798.733	233.81
798.913	252.24
799.093	258.39
799.274	272.72
799.454	209.23
799.634	244.05
799.814	256.34
799.994	213.33
800.174	182.61
800.354	235.86
800.534	244.05
800.714	287.06
800.894	266.58
801.074	209.23
801.254	190.8
801.434	338.26
801.614	260.43
801.794	158.03
801.974	897.35
802.154	242
802.334	170.32
802.514	143.7
802.693	209.23
802.873	235.86
803.053	223.57
803.233	223.57
803.413	180.56
803.592	160.08
803.772	252.24
803.952	166.23
804.131	160.08
804.311	149.84
804.491	201.04
804.67	168.27
804.85	190.8
805.03	244.05
805.209	239.95
805.389	178.51
805.568	166.23
805.748	158.03
805.928	231.76
806.107	194.9
806.287	239.95
806.466	166.23
806.646	184.66
806.825	184.66
807.004	192.85
807.184	182.61
807.363	227.67
807.543	176.47
807.722	153.94
807.901	231.76
808.081	223.57
808.26	155.99
808.439	209.23
808.619	117.08
808.798	147.8
808.977	190.8
809.156	127.32
809.336	203.09
809.515	209.23
809.694	67.92
809.873	176.47
810.052	166.23
810.231	182.61
810.411	174.42
810.59	168.27
810.769	133.46
810.948	137.56
811.127	82.26
811.306	186.71
811.485	117.08
811.664	178.51
811.843	209.23
812.022	100.69
812.201	115.03
812.38	194.9
812.559	100.69
812.737	162.13
812.916	149.84
813.095	133.46
813.274	176.47
813.453	119.12
813.632	168.27
813.811	143.7
813.989	110.93
814.168	137.56
814.347	129.36
814.526	225.62
814.704	131.41
814.883	176.47
815.062	110.93
815.24	115.03
815.419	125.27
815.598	207.19
815.776	94.55
815.955	94.55
816.133	80.21
816.312	190.8
816.49	125.27
816.669	110.93
816.847	112.98
817.026	149.84
817.204	149.84
817.383	125.27
817.561	96.6
817.74	166.23
817.918	182.61
818.097	100.69
818.275	108.88
818.453	67.92
818.632	67.92
818.81	149.84
818.988	74.07
819.167	117.08
819.345	98.64
819.523	39.25
819.701	133.46
819.879	160.08
820.058	94.55
820.236	69.97
820.414	119.12
820.592	12.63
820.77	186.71
820.948	129.36
821.127	96.6
821.305	135.51
821.483	117.08
821.661	219.47
821.839	141.65
822.017	84.31
822.195	84.31
822.373	110.93
822.551	100.69
822.729	160.08
822.907	166.23
823.085	88.4
823.262	53.59
823.44	127.32
823.618	4.44
823.796	112.98
823.974	92.5
824.152	174.42
824.329	115.03
824.507	133.46
824.685	160.08
824.863	117.08
825.04	10.58
825.218	72.02
825.396	57.68
825.574	65.88
825.751	49.49
825.929	139.6
826.107	43.35
826.284	78.16
826.462	117.08
826.639	55.64
826.817	74.07
826.994	92.5
827.172	121.17
827.349	127.32
827.527	76.12
827.704	127.32
827.882	53.59
828.059	84.31
828.237	61.78
828.414	115.03
828.591	86.36
828.769	92.5
828.946	12.63
829.124	149.84
829.301	121.17
829.478	80.21
829.655	106.84
829.833	92.5
830.01	22.87
830.187	121.17
830.364	149.84
830.542	117.08
830.719	115.03
830.896	86.36
831.073	-9.9
831.25	119.12
831.427	160.08
831.604	92.5
831.782	112.98
831.959	80.21
832.136	51.54
832.313	72.02
832.49	41.3
832.667	108.88
832.844	69.97
833.021	61.78
833.198	35.16
833.374	92.5
833.551	22.87
833.728	98.64
833.905	16.73
834.082	106.84
834.259	72.02
834.436	92.5
834.612	22.87
834.789	96.6
834.966	84.31
835.143	84.31
835.319	121.17
835.496	92.5
835.673	12.63
835.85	72.02
836.026	49.49
836.203	-22.19
836.38	55.64
836.556	51.54
836.733	35.16
836.909	125.27
837.086	98.64
837.262	72.02
837.439	67.92
837.616	88.4
837.792	65.88
837.968	92.5
838.145	8.53
838.321	61.78
838.498	61.78
838.674	100.69
838.851	33.11
839.027	72.02
839.203	86.36
839.38	86.36
839.556	61.78
839.732	104.79
839.909	92.5
840.085	100.69
840.261	-9.9
840.437	18.77
840.614	45.4
840.79	65.88
840.966	47.44
841.142	61.78
841.318	4.44
841.494	100.69
841.671	59.73
841.847	43.35
842.023	69.97
842.199	88.4
842.375	43.35
842.551	72.02
842.727	37.2
842.903	108.88
843.079	51.54
843.255	96.6
843.431	86.36
843.607	84.31
843.783	51.54
843.959	2.39
844.134	18.77
844.31	53.59
844.486	110.93
844.662	61.78
844.838	22.87
845.013	33.11
845.189	100.69
845.365	18.77
845.541	49.49
845.716	88.4
845.892	59.73
846.068	53.59
846.244	51.54
846.419	69.97
846.595	26.96
846.77	78.16
846.946	53.59
847.122	67.92
847.297	-22.19
847.473	110.93
847.648	59.73
847.824	133.46
847.999	43.35
848.175	76.12
848.35	26.96
848.526	92.5
848.701	-9.9
848.876	57.68
849.052	80.21
849.227	35.16
849.403	39.25
849.578	49.49
849.753	43.35
849.929	92.5
850.104	53.59
850.279	10.58
850.454	139.6
850.63	31.06
850.805	31.06
850.98	61.78
851.155	47.44
851.33	86.36
851.505	22.87
851.681	67.92
851.856	4.44
852.031	2.39
852.206	78.16
852.381	84.31
852.556	24.92
852.731	110.93
852.906	53.59
853.081	78.16
853.256	76.12
853.431	80.21
853.606	20.82
853.781	33.11
853.956	26.96
854.131	16.73
854.305	22.87
854.48	51.54
854.655	-5.8
854.83	10.58
855.005	-22.19
855.18	31.06
855.354	67.92
855.529	143.7
855.704	43.35
855.879	112.98
856.053	20.82
856.228	31.06
856.403	-61.1
856.577	8.53
856.752	-63.15
856.926	-16.04
857.101	14.68
857.276	-13.99
857.45	-22.19
857.625	53.59
857.799	43.35
857.974	76.12
858.148	35.16
858.323	65.88
858.497	-9.9
858.672	55.64
858.846	59.73
859.02	76.12
859.195	59.73
859.369	69.97
859.543	-42.67
859.718	-28.33
859.892	14.68
860.066	47.44
860.241	-13.99
860.415	-30.38
860.589	84.31
860.763	55.64
860.938	10.58
861.112	59.73
861.286	67.92
861.46	100.69
861.634	20.82
861.808	80.21
861.982	29.01
862.157	35.16
862.331	6.49
862.505	-40.62
862.679	-3.75
862.853	78.16
863.027	12.63
863.201	59.73
863.375	37.2
863.549	37.2
863.722	100.69
863.896	86.36
864.07	12.63
864.244	45.4
864.418	133.46
864.592	135.51
864.766	51.54
864.939	84.31
865.113	-26.28
865.287	24.92
865.461	4.44
865.634	55.64
865.808	2.39
865.982	69.97
866.156	-9.9
866.329	43.35
866.503	26.96
866.676	6.49
866.85	10.58
867.024	90.45
867.197	57.68
867.371	43.35
867.544	80.21
867.718	6.49
867.891	31.06
868.065	84.31
868.238	92.5
868.412	33.11
868.585	2.39
868.759	-5.8
868.932	-30.38
869.105	-48.81
869.279	6.49
869.452	4.44
869.625	22.87
869.799	41.3
869.972	-22.19
870.145	31.06
870.319	47.44
870.492	-13.99
870.665	6.49
870.838	-22.19
871.011	-20.14
871.185	22.87
871.358	57.68
871.531	29.01
871.704	49.49
871.877	86.36
872.05	10.58
872.223	12.63
872.396	45.4
872.569	37.2
872.742	-24.23
872.915	-77.48
873.088	10.58
873.261	88.4
873.434	141.65
873.607	10.58
873.78	72.02
873.953	-22.19
874.126	41.3
874.299	51.54
874.471	-36.52
874.644	37.2
874.817	47.44
874.99	125.27
875.163	20.82
875.335	76.12
875.508	14.68
875.681	10.58
875.853	39.25
876.026	10.58
876.199	33.11
876.371	6.49
876.544	51.54
876.717	4.44
876.889	26.96
877.062	86.36
877.234	45.4
877.407	61.78
877.579	35.16
877.752	29.01
877.924	37.2
878.097	-13.99
878.269	-30.38
878.442	72.02
878.614	2.39
878.786	86.36
878.959	8.53
879.131	43.35
879.303	-11.95
879.476	117.08
879.648	96.6
879.82	112.98
879.993	84.31
880.165	84.31
880.337	-34.47
880.509	-50.86
880.681	-13.99
880.854	-40.62
881.026	33.11
881.198	10.58
881.37	-20.14
881.542	67.92
881.714	14.68
881.886	49.49
882.058	29.01
882.23	88.4
882.402	35.16
882.574	129.36
882.746	24.92
882.918	63.83
883.09	43.35
883.262	-3.75
883.434	2.39
883.606	-5.8
883.778	-18.09
883.95	29.01
884.122	0.34
884.293	133.46
884.465	-11.95
884.637	12.63
884.809	-59.05
884.98	-11.95
885.152	-13.99
885.324	22.87
885.496	-13.99
885.667	67.92
885.839	2.39
886.011	90.45
886.182	-22.19
886.354	29.01
886.525	10.58
886.697	24.92
886.869	-13.99
887.04	2.39
887.212	2.39
887.383	110.93
887.555	35.16
887.726	10.58
887.897	76.12
888.069	51.54
888.24	31.06
888.412	-22.19
888.583	4.44
888.754	94.55
888.926	-54.95
889.097	51.54
889.268	-24.23
889.44	86.36
889.611	-5.8
889.782	24.92
889.953	10.58
890.125	39.25
890.296	-18.09
890.467	33.11
890.638	35.16
890.809	18.77
890.98	76.12
891.151	72.02
891.323	49.49
891.494	2.39
891.665	74.07
891.836	-36.52
892.007	26.96
892.178	51.54
892.349	59.73
892.52	-1.71
892.691	61.78
892.862	-11.95
893.032	-46.76
893.203	16.73
893.374	63.83
893.545	39.25
893.716	-1.71
893.887	108.88
894.057	6.49
894.228	110.93
894.399	16.73
894.57	78.16
894.74	4.44
894.911	55.64
895.082	26.96
895.253	-26.28
895.423	-38.57
895.594	-1.71
895.764	96.6
895.935	-5.8
896.106	-34.47
896.276	10.58
896.447	39.25
896.617	24.92
896.788	10.58
896.958	76.12
897.129	12.63
897.299	47.44
897.47	-9.9
897.64	39.25
897.81	51.54
897.981	18.77
898.151	-7.85
898.322	6.49
898.492	-30.38
898.662	-38.57
898.832	49.49
899.003	14.68
899.173	24.92
899.343	-26.28
899.513	-22.19
