Data from USB4F104151__258__14-45-58-920.txt Node

Date: Thu Mar 13 14:45:58 EDT 2025
User: louis
Spectrometer: USB4F10415
Trigger mode: 4
Integration Time (sec): 2.000000E-2
Scans to average: 1
Electric dark correction enabled: true
Nonlinearity correction enabled: false
Boxcar width: 0
XAxis mode: Wavelengths
Number of Pixels in Spectrum: 3648
>>>>>Begin Spectral Data<<<<<
178.204	-123.9
178.424	-123.9
178.644	-123.9
178.864	-134.14
179.084	-132.09
179.304	-27.65
179.524	25.6
179.744	41.98
179.964	29.7
180.184	3.07
180.404	29.7
180.624	13.31
180.844	37.89
181.064	-60.42
181.283	29.7
181.503	-72.7
181.723	-50.18
181.943	-44.03
182.163	105.47
182.383	111.61
182.602	-64.51
182.822	13.31
183.042	31.74
183.262	-15.36
183.482	52.22
183.701	-44.03
183.921	-17.41
184.141	-27.65
184.361	62.46
184.58	-35.84
184.8	5.12
185.02	78.85
185.239	74.75
185.459	-23.55
185.679	70.65
185.898	29.7
186.118	48.13
186.338	27.65
186.557	70.65
186.777	-44.03
186.997	13.31
187.216	25.6
187.436	31.74
187.655	-15.36
187.875	31.74
188.095	-5.12
188.314	21.5
188.534	70.65
188.753	37.89
188.973	-19.46
189.192	39.94
189.412	66.56
189.631	37.89
189.851	35.84
190.07	52.22
190.29	-41.98
190.509	-21.5
190.729	15.36
190.948	31.74
191.168	152.57
191.387	-33.79
191.607	-41.98
191.826	-25.6
192.045	58.37
192.265	-99.33
192.484	-11.26
192.704	39.94
192.923	29.7
193.142	62.46
193.362	111.61
193.581	46.08
193.8	44.03
194.02	56.32
194.239	-27.65
194.458	-11.26
194.678	64.51
194.897	-33.79
195.116	33.79
195.335	21.5
195.555	70.65
195.774	74.75
195.993	13.31
196.212	-44.03
196.432	-27.65
196.651	29.7
196.87	-44.03
197.089	138.24
197.308	29.7
197.528	13.31
197.747	-17.41
197.966	64.51
198.185	21.5
198.404	5.12
198.623	-1.02
198.842	58.37
199.062	7.17
199.281	37.89
199.5	54.27
199.719	13.31
199.938	37.89
200.157	-17.41
200.376	58.37
200.595	136.19
200.814	37.89
201.033	7.17
201.252	60.42
201.471	31.74
201.69	41.98
201.909	111.61
202.128	-19.46
202.347	-35.84
202.566	54.27
202.785	31.74
203.004	-48.13
203.223	87.04
203.442	-15.36
203.661	-13.31
203.879	-11.26
204.098	95.23
204.317	29.7
204.536	-1.02
204.755	-46.08
204.974	37.89
205.193	-48.13
205.411	37.89
205.63	1.02
205.849	41.98
206.068	19.46
206.287	13.31
206.505	11.26
206.724	-3.07
206.943	74.75
207.162	64.51
207.381	25.6
207.599	39.94
207.818	-9.22
208.037	-15.36
208.255	-19.46
208.474	-11.26
208.693	-25.6
208.911	-19.46
209.13	5.12
209.349	70.65
209.567	128
209.786	-7.17
210.005	-37.89
210.223	-66.56
210.442	-29.7
210.661	37.89
210.879	-11.26
211.098	9.22
211.316	74.75
211.535	23.55
211.753	5.12
211.972	48.13
212.191	-19.46
212.409	56.32
212.628	27.65
212.846	46.08
213.065	-3.07
213.283	25.6
213.502	-19.46
213.72	-72.7
213.938	-11.26
214.157	52.22
214.375	54.27
214.594	-15.36
214.812	-11.26
215.031	-11.26
215.249	-17.41
215.467	80.89
215.686	15.36
215.904	46.08
216.122	-80.89
216.341	66.56
216.559	1.02
216.778	113.66
216.996	5.12
217.214	56.32
217.432	33.79
217.651	17.41
217.869	41.98
218.087	29.7
218.306	-19.46
218.524	70.65
218.742	19.46
218.96	5.12
219.179	25.6
219.397	29.7
219.615	62.46
219.833	-11.26
220.051	13.31
220.27	37.89
220.488	95.23
220.706	70.65
220.924	29.7
221.142	-3.07
221.36	-7.17
221.578	29.7
221.796	25.6
222.015	78.85
222.233	37.89
222.451	13.31
222.669	-41.98
222.887	5.12
223.105	-15.36
223.323	54.27
223.541	-7.17
223.759	19.46
223.977	-11.26
224.195	29.7
224.413	29.7
224.631	-3.07
224.849	-1.02
225.067	46.08
225.285	-31.74
225.503	-1.02
225.721	-50.18
225.939	-35.84
226.157	-52.22
226.375	70.65
226.592	-33.79
226.81	5.12
227.028	41.98
227.246	46.08
227.464	-11.26
227.682	-66.56
227.9	50.18
228.117	50.18
228.335	21.5
228.553	5.12
228.771	99.33
228.989	103.42
229.206	84.99
229.424	35.84
229.642	15.36
229.86	29.7
230.077	39.94
230.295	64.51
230.513	15.36
230.731	68.61
230.948	25.6
231.166	29.7
231.384	33.79
231.601	-17.41
231.819	80.89
232.037	5.12
232.254	21.5
232.472	35.84
232.689	-64.51
232.907	54.27
233.125	21.5
233.342	-7.17
233.56	91.13
233.777	-19.46
233.995	-3.07
234.213	56.32
234.43	-1.02
234.648	-27.65
234.865	-11.26
235.083	-21.5
235.3	23.55
235.518	29.7
235.735	33.79
235.953	64.51
236.17	-31.74
236.388	-19.46
236.605	21.5
236.822	29.7
237.04	111.61
237.257	82.94
237.475	-7.17
237.692	64.51
237.909	91.13
238.127	5.12
238.344	37.89
238.562	5.12
238.779	41.98
238.996	-19.46
239.214	72.7
239.431	62.46
239.648	-15.36
239.865	48.13
240.083	-33.79
240.3	-27.65
240.517	-23.55
240.735	-19.46
240.952	41.98
241.169	50.18
241.386	48.13
241.603	37.89
241.821	48.13
242.038	132.09
242.255	17.41
242.472	13.31
242.689	-50.18
242.907	33.79
243.124	70.65
243.341	-17.41
243.558	17.41
243.775	29.7
243.992	-60.42
244.209	-60.42
244.426	56.32
244.643	50.18
244.86	70.65
245.078	-11.26
245.295	-19.46
245.512	1.02
245.729	-7.17
245.946	13.31
246.163	-11.26
246.38	-15.36
246.597	58.37
246.814	48.13
247.031	-35.84
247.248	60.42
247.464	25.6
247.681	-33.79
247.898	72.7
248.115	-3.07
248.332	-52.22
248.549	21.5
248.766	72.7
248.983	15.36
249.2	-11.26
249.417	25.6
249.633	119.81
249.85	-39.94
250.067	-41.98
250.284	31.74
250.501	33.79
250.717	-54.27
250.934	-27.65
251.151	7.17
251.368	-17.41
251.585	23.55
251.801	35.84
252.018	-27.65
252.235	27.65
252.451	21.5
252.668	-3.07
252.885	21.5
253.102	-54.27
253.318	25.6
253.535	-66.56
253.752	13.31
253.968	60.42
254.185	-31.74
254.401	-21.5
254.618	21.5
254.835	-19.46
255.051	72.7
255.268	9.22
255.484	5.12
255.701	-19.46
255.917	21.5
256.134	-35.84
256.351	37.89
256.567	-33.79
256.784	78.85
257	-27.65
257.217	64.51
257.433	72.7
257.65	64.51
257.866	54.27
258.082	23.55
258.299	50.18
258.515	21.5
258.732	-29.7
258.948	15.36
259.165	17.41
259.381	-21.5
259.597	-35.84
259.814	29.7
260.03	64.51
260.246	29.7
260.463	-23.55
260.679	-5.12
260.895	39.94
261.112	41.98
261.328	1.02
261.544	-33.79
261.761	99.33
261.977	21.5
262.193	-41.98
262.409	-3.07
262.626	-11.26
262.842	-3.07
263.058	17.41
263.274	-27.65
263.49	-9.22
263.707	-3.07
263.923	33.79
264.139	35.84
264.355	95.23
264.571	21.5
264.787	-17.41
265.004	21.5
265.22	-37.89
265.436	-17.41
265.652	25.6
265.868	-1.02
266.084	13.31
266.3	-11.26
266.516	-29.7
266.732	-52.22
266.948	25.6
267.164	41.98
267.38	-23.55
267.596	46.08
267.812	62.46
268.028	23.55
268.244	-11.26
268.46	9.22
268.676	54.27
268.892	9.22
269.108	31.74
269.324	-33.79
269.54	5.12
269.756	1.02
269.972	-44.03
270.188	-33.79
270.403	-1.02
270.619	-35.84
270.835	41.98
271.051	27.65
271.267	-11.26
271.483	17.41
271.698	89.09
271.914	15.36
272.13	60.42
272.346	5.12
272.562	-3.07
272.777	9.22
272.993	33.79
273.209	44.03
273.425	-3.07
273.64	-3.07
273.856	37.89
274.072	50.18
274.287	7.17
274.503	46.08
274.719	-35.84
274.934	3.07
275.15	33.79
275.366	41.98
275.581	-5.12
275.797	39.94
276.012	58.37
276.228	7.17
276.444	-29.7
276.659	37.89
276.875	-1.02
277.09	-15.36
277.306	-35.84
277.521	-15.36
277.737	-19.46
277.952	41.98
278.168	21.5
278.383	103.42
278.599	7.17
278.814	25.6
279.03	37.89
279.245	7.17
279.461	-80.89
279.676	-44.03
279.892	-39.94
280.107	64.51
280.322	-9.22
280.538	5.12
280.753	-11.26
280.969	5.12
281.184	68.61
281.399	37.89
281.615	-17.41
281.83	35.84
282.045	13.31
282.26	-27.65
282.476	-25.6
282.691	-11.26
282.906	54.27
283.122	48.13
283.337	54.27
283.552	97.28
283.767	-39.94
283.983	5.12
284.198	-27.65
284.413	25.6
284.628	-44.03
284.843	72.7
285.058	-66.56
285.274	31.74
285.489	-7.17
285.704	87.04
285.919	66.56
286.134	78.85
286.349	23.55
286.564	31.74
286.779	46.08
286.995	56.32
287.21	-35.84
287.425	-9.22
287.64	-80.89
287.855	-27.65
288.07	-5.12
288.285	29.7
288.5	70.65
288.715	66.56
288.93	23.55
289.145	-31.74
289.36	48.13
289.575	41.98
289.79	31.74
290.004	-1.02
290.219	23.55
290.434	-29.7
290.649	5.12
290.864	82.94
291.079	39.94
291.294	46.08
291.509	54.27
291.724	-15.36
291.938	82.94
292.153	78.85
292.368	-11.26
292.583	31.74
292.798	99.33
293.012	-72.7
293.227	21.5
293.442	33.79
293.657	58.37
293.871	101.37
294.086	29.7
294.301	48.13
294.516	21.5
294.73	-27.65
294.945	-19.46
295.16	13.31
295.374	62.46
295.589	62.46
295.804	13.31
296.018	-1.02
296.233	64.51
296.447	17.41
296.662	52.22
296.877	50.18
297.091	48.13
297.306	29.7
297.52	46.08
297.735	-9.22
297.949	15.36
298.164	-3.07
298.378	-23.55
298.593	13.31
298.807	-84.99
299.022	58.37
299.236	-13.31
299.451	33.79
299.665	46.08
299.88	62.46
300.094	1.02
300.309	-7.17
300.523	5.12
300.737	-19.46
300.952	95.23
301.166	93.18
301.381	19.46
301.595	54.27
301.809	7.17
302.024	48.13
302.238	21.5
302.452	23.55
302.667	-19.46
302.881	41.98
303.095	46.08
303.309	5.12
303.524	-23.55
303.738	15.36
303.952	31.74
304.166	103.42
304.381	-39.94
304.595	95.23
304.809	-3.07
305.023	-60.42
305.237	54.27
305.452	31.74
305.666	29.7
305.88	-19.46
306.094	31.74
306.308	64.51
306.522	25.6
306.736	52.22
306.95	1.02
307.164	13.31
307.379	64.51
307.593	7.17
307.807	9.22
308.021	78.85
308.235	-15.36
308.449	-58.37
308.663	21.5
308.877	21.5
309.091	23.55
309.305	-3.07
309.519	-25.6
309.733	82.94
309.947	13.31
310.161	39.94
310.374	37.89
310.588	23.55
310.802	-27.65
311.016	44.03
311.23	25.6
311.444	-11.26
311.658	52.22
311.872	87.04
312.085	66.56
312.299	70.65
312.513	11.26
312.727	89.09
312.941	9.22
313.154	15.36
313.368	-15.36
313.582	-3.07
313.796	1.02
314.009	-11.26
314.223	46.08
314.437	-11.26
314.651	64.51
314.864	23.55
315.078	21.5
315.292	-109.57
315.505	19.46
315.719	19.46
315.933	48.13
316.146	-15.36
316.36	-5.12
316.573	101.37
316.787	29.7
317.001	41.98
317.214	-9.22
317.428	35.84
317.641	17.41
317.855	33.79
318.068	9.22
318.282	-9.22
318.495	5.12
318.709	21.5
318.922	25.6
319.136	74.75
319.349	31.74
319.563	15.36
319.776	-11.26
319.99	13.31
320.203	56.32
320.417	-17.41
320.63	-52.22
320.843	103.42
321.057	33.79
321.27	29.7
321.483	17.41
321.697	21.5
321.91	13.31
322.124	48.13
322.337	-52.22
322.55	52.22
322.763	23.55
322.977	5.12
323.19	-31.74
323.403	62.46
323.617	-1.02
323.83	62.46
324.043	29.7
324.256	17.41
324.469	-7.17
324.683	-39.94
324.896	7.17
325.109	37.89
325.322	-103.42
325.535	103.42
325.748	37.89
325.962	31.74
326.175	66.56
326.388	56.32
326.601	29.7
326.814	-35.84
327.027	-7.17
327.24	128
327.453	1.02
327.666	62.46
327.879	74.75
328.092	-3.07
328.305	19.46
328.518	27.65
328.731	1.02
328.944	-11.26
329.157	-17.41
329.37	68.61
329.583	31.74
329.796	95.23
330.009	-50.18
330.222	82.94
330.435	3.07
330.648	31.74
330.861	21.5
331.073	56.32
331.286	33.79
331.499	7.17
331.712	-33.79
331.925	-33.79
332.138	66.56
332.35	33.79
332.563	37.89
332.776	89.09
332.989	39.94
333.202	1.02
333.414	13.31
333.627	82.94
333.84	9.22
334.053	21.5
334.265	-17.41
334.478	37.89
334.691	21.5
334.903	132.09
335.116	-52.22
335.329	-44.03
335.541	-3.07
335.754	80.89
335.966	-44.03
336.179	-19.46
336.392	82.94
336.604	54.27
336.817	15.36
337.029	15.36
337.242	60.42
337.454	39.94
337.667	-1.02
337.88	-7.17
338.092	50.18
338.305	58.37
338.517	15.36
338.729	56.32
338.942	84.99
339.154	-9.22
339.367	13.31
339.579	66.56
339.792	54.27
340.004	9.22
340.217	9.22
340.429	27.65
340.641	-39.94
340.854	25.6
341.066	74.75
341.278	70.65
341.491	37.89
341.703	62.46
341.915	50.18
342.128	5.12
342.34	5.12
342.552	7.17
342.764	35.84
342.977	-15.36
343.189	54.27
343.401	9.22
343.613	-33.79
343.826	56.32
344.038	17.41
344.25	80.89
344.462	13.31
344.674	-9.22
344.886	68.61
345.099	68.61
345.311	48.13
345.523	-9.22
345.735	-44.03
345.947	70.65
346.159	35.84
346.371	-27.65
346.583	-9.22
346.795	64.51
347.007	44.03
347.219	31.74
347.431	54.27
347.643	37.89
347.855	13.31
348.067	74.75
348.279	-25.6
348.491	21.5
348.703	46.08
348.915	74.75
349.127	50.18
349.339	62.46
349.551	37.89
349.763	103.42
349.975	-25.6
350.187	-1.02
350.399	31.74
350.61	35.84
350.822	11.26
351.034	70.65
351.246	-3.07
351.458	-25.6
351.669	46.08
351.881	-15.36
352.093	25.6
352.305	46.08
352.517	39.94
352.728	64.51
352.94	66.56
353.152	37.89
353.363	15.36
353.575	82.94
353.787	39.94
353.999	5.12
354.21	87.04
354.422	-11.26
354.633	37.89
354.845	-11.26
355.057	23.55
355.268	46.08
355.48	41.98
355.692	1.02
355.903	-9.22
356.115	-19.46
356.326	-64.51
356.538	62.46
356.749	21.5
356.961	-1.02
357.172	15.36
357.384	7.17
357.595	80.89
357.807	-19.46
358.018	54.27
358.23	11.26
358.441	11.26
358.653	13.31
358.864	29.7
359.075	5.12
359.287	37.89
359.498	62.46
359.709	66.56
359.921	-3.07
360.132	70.65
360.344	39.94
360.555	27.65
360.766	29.7
360.977	11.26
361.189	54.27
361.4	101.37
361.611	48.13
361.823	80.89
362.034	39.94
362.245	-1.02
362.456	3.07
362.667	103.42
362.879	-33.79
363.09	13.31
363.301	54.27
363.512	54.27
363.723	-60.42
363.935	48.13
364.146	9.22
364.357	-5.12
364.568	50.18
364.779	-27.65
364.99	97.28
365.201	37.89
365.412	64.51
365.623	-23.55
365.834	72.7
366.045	11.26
366.256	64.51
366.467	54.27
366.678	7.17
366.889	9.22
367.1	-9.22
367.311	9.22
367.522	21.5
367.733	58.37
367.944	64.51
368.155	80.89
368.366	39.94
368.577	87.04
368.788	115.71
368.999	68.61
369.209	70.65
369.42	62.46
369.631	113.66
369.842	-33.79
370.053	33.79
370.264	50.18
370.474	64.51
370.685	50.18
370.896	23.55
371.107	144.38
371.317	7.17
371.528	-23.55
371.739	91.13
371.95	17.41
372.16	41.98
372.371	-66.56
372.582	-15.36
372.792	29.7
373.003	13.31
373.214	46.08
373.424	50.18
373.635	91.13
373.846	52.22
374.056	66.56
374.267	93.18
374.477	70.65
374.688	5.12
374.898	3.07
375.109	37.89
375.319	13.31
375.53	82.94
375.74	-19.46
375.951	-7.17
376.161	-9.22
376.372	87.04
376.582	95.23
376.793	54.27
377.003	-17.41
377.214	107.52
377.424	37.89
377.635	39.94
377.845	-50.18
378.055	80.89
378.266	-25.6
378.476	15.36
378.686	23.55
378.897	64.51
379.107	41.98
379.317	58.37
379.528	3.07
379.738	62.46
379.948	-1.02
380.158	-27.65
380.369	66.56
380.579	-7.17
380.789	29.7
380.999	74.75
381.21	64.51
381.42	119.81
381.63	70.65
381.84	46.08
382.05	29.7
382.261	23.55
382.471	-19.46
382.681	-11.26
382.891	132.09
383.101	-13.31
383.311	-3.07
383.521	37.89
383.731	39.94
383.941	23.55
384.151	46.08
384.361	78.85
384.571	70.65
384.781	160.77
384.991	-7.17
385.201	21.5
385.411	103.42
385.621	23.55
385.831	125.95
386.041	29.7
386.251	7.17
386.461	97.28
386.671	-15.36
386.881	105.47
387.091	-15.36
387.301	66.56
387.511	-11.26
387.72	48.13
387.93	-23.55
388.14	46.08
388.35	29.7
388.56	121.85
388.769	87.04
388.979	84.99
389.189	25.6
389.399	25.6
389.609	21.5
389.818	-13.31
390.028	46.08
390.238	13.31
390.447	33.79
390.657	56.32
390.867	-33.79
391.076	54.27
391.286	37.89
391.496	99.33
391.705	19.46
391.915	29.7
392.125	93.18
392.334	66.56
392.544	111.61
392.753	46.08
392.963	37.89
393.172	48.13
393.382	-19.46
393.591	111.61
393.801	41.98
394.01	95.23
394.22	56.32
394.429	132.09
394.639	-11.26
394.848	37.89
395.058	105.47
395.267	23.55
395.477	-19.46
395.686	25.6
395.895	95.23
396.105	132.09
396.314	21.5
396.524	13.31
396.733	62.46
396.942	39.94
397.152	60.42
397.361	39.94
397.57	21.5
397.78	9.22
397.989	25.6
398.198	95.23
398.407	58.37
398.617	64.51
398.826	97.28
399.035	99.33
399.244	119.81
399.453	160.77
399.663	87.04
399.872	97.28
400.081	17.41
400.29	148.48
400.499	70.65
400.708	138.24
400.917	23.55
401.127	95.23
401.336	5.12
401.545	60.42
401.754	115.71
401.963	41.98
402.172	72.7
402.381	48.13
402.59	74.75
402.799	132.09
403.008	160.77
403.217	134.14
403.426	39.94
403.635	91.13
403.844	87.04
404.053	123.9
404.262	1.02
404.471	164.86
404.68	136.19
404.888	171.01
405.097	95.23
405.306	177.15
405.515	121.85
405.724	103.42
405.933	183.29
406.142	132.09
406.35	136.19
406.559	111.61
406.768	130.05
406.977	207.87
407.185	187.39
407.394	216.06
407.603	140.29
407.812	160.77
408.02	179.2
408.229	146.43
408.438	156.67
408.646	66.56
408.855	193.53
409.064	168.96
409.272	228.35
409.481	209.92
409.69	238.59
409.898	168.96
410.107	220.16
410.315	211.96
410.524	185.34
410.733	302.08
410.941	300.03
411.15	332.79
411.358	326.65
411.567	343.03
411.775	261.12
411.984	318.46
412.192	369.66
412.401	250.88
412.609	357.37
412.818	381.95
413.026	435.19
413.234	381.95
413.443	439.29
413.651	361.47
413.86	418.81
414.068	414.71
414.276	521.21
414.485	447.48
414.693	527.35
414.901	545.78
415.11	484.34
415.318	553.98
415.526	570.36
415.734	580.6
415.943	517.11
416.151	660.47
416.359	613.37
416.567	646.13
416.776	543.74
416.984	824.31
417.192	750.58
417.4	754.68
417.608	678.9
417.817	775.16
418.025	807.92
418.233	916.47
418.441	748.53
418.649	877.55
418.857	992.24
419.065	1051.63
419.273	1014.77
419.481	971.76
419.689	1074.16
419.897	1168.37
420.105	1035.25
420.313	1168.37
420.521	1268.72
420.729	1258.48
420.937	1293.29
421.145	1293.29
421.353	1473.51
421.561	1446.89
421.769	1532.9
421.977	1553.38
422.185	1569.77
422.393	1557.48
422.601	1688.55
422.809	1676.26
423.017	1727.46
423.224	1799.14
423.432	1983.46
423.64	1922.02
423.848	1948.64
424.056	1989.6
424.263	2282.46
424.471	2159.58
424.679	2155.49
424.887	2413.53
425.094	2307.04
425.302	2348
425.51	2638.81
425.718	2618.33
425.925	2544.6
426.133	2620.38
426.341	2778.07
426.548	2946
426.756	2829.27
426.964	2900.95
427.171	2995.15
427.379	3357.64
427.586	3371.98
427.794	3294.16
428.001	3593.16
428.209	3736.52
428.417	3566.54
428.624	4043.71
428.832	3914.69
429.039	3734.47
429.247	3937.22
429.454	4344.77
429.662	4611
429.869	4240.32
430.076	4563.9
430.284	4481.98
430.491	4676.54
430.699	4748.22
430.906	4852.66
431.114	4989.88
431.321	5092.27
431.528	5168.05
431.736	5501.87
431.943	5821.35
432.15	5477.29
432.358	5706.66
432.565	5981.09
432.772	6003.62
432.979	6312.86
433.187	6314.91
433.394	6413.21
433.601	6796.18
433.808	6935.45
434.016	6824.86
434.223	7003.03
434.43	7508.88
434.637	7459.73
434.844	7846.79
435.052	7787.4
435.259	8070.02
435.466	8164.23
435.673	8055.69
435.88	8713.08
436.087	8786.81
436.294	8985.46
436.501	8483.71
436.708	8792.95
436.915	9216.88
437.122	9630.57
437.329	9675.63
437.537	9933.67
437.743	9986.92
437.95	9923.43
438.157	10720.09
438.364	10679.13
438.571	11006.81
438.778	11017.05
438.985	11694.93
439.192	11311.96
439.399	11529.04
439.606	11529.04
439.813	12303.17
440.02	12821.31
440.227	12581.7
440.433	12456.77
440.64	13034.3
440.847	12874.56
441.054	13292.34
441.261	14086.95
441.467	13865.77
441.674	14185.26
441.881	14752.54
442.088	14736.16
442.294	14357.28
442.501	14918.43
442.708	15256.34
442.914	15856.4
443.121	16505.6
443.328	15989.52
443.534	17171.19
443.741	16567.04
443.948	16659.2
444.154	17601.27
444.361	17670.9
444.568	17769.2
444.774	17711.86
444.981	17728.24
445.187	18674.4
445.394	18856.67
445.6	18801.38
445.807	20314.83
446.013	19870.42
446.22	20097.74
446.426	20779.71
446.633	21131.97
446.839	21705.4
447.046	21123.77
447.252	22059.7
447.459	22340.27
447.665	22096.56
447.871	23184.03
448.078	24046.23
448.284	23243.42
448.491	23610.01
448.697	24326.8
448.903	25107.07
449.11	25338.49
449.316	24947.33
449.522	25338.49
449.728	25918.07
449.935	26067.57
450.141	26073.71
450.347	26544.75
450.553	25750.14
450.76	26169.97
450.966	27126.37
451.172	26833.51
451.378	27736.66
451.584	27054.69
451.791	27810.39
451.997	27478.62
452.203	28013.14
452.409	28015.19
452.615	28097.11
452.821	27165.28
453.027	26853.99
453.233	28299.86
453.44	27114.08
453.646	27241.06
453.852	27581.02
454.058	28007
454.264	27279.97
454.47	27920.98
454.676	27095.65
454.882	28230.23
455.088	25301.63
455.294	26450.54
455.5	26401.39
455.705	26858.09
455.911	25625.21
456.117	25205.38
456.323	24879.75
456.529	23675.54
456.735	24691.34
456.941	24001.17
457.147	23585.43
457.352	23153.31
457.558	22575.78
457.764	22968.99
457.97	22778.53
458.176	22270.64
458.381	21947.06
458.587	20761.28
458.793	21117.63
458.999	19915.47
459.204	21588.66
459.41	20761.28
459.616	19413.72
459.821	19464.92
460.027	19522.26
460.233	19051.23
460.438	18250.47
460.644	18367.21
460.85	17666.8
461.055	17267.45
461.261	17414.9
461.466	15993.61
461.672	15438.61
461.878	16595.71
462.083	15518.48
462.289	15106.84
462.494	15119.13
462.7	14568.23
462.905	13941.55
463.111	14404.39
463.316	14572.32
463.522	14218.02
463.727	14089
463.932	14246.69
464.138	13949.74
464.343	14070.57
464.549	13501.23
464.754	14156.58
464.959	14111.53
465.165	13808.43
465.37	13384.5
465.575	12925.75
465.781	13630.26
465.986	13630.26
466.191	13235
466.397	12755.77
466.602	12270.4
466.807	12872.51
467.012	12782.4
467.218	12499.78
467.423	12340.04
467.628	12688.19
467.833	12901.18
468.038	12716.86
468.244	12084.04
468.449	12755.77
468.654	12399.43
468.859	12106.57
469.064	12094.28
469.269	11885.39
469.474	11789.13
469.679	11936.59
469.885	11434.83
470.09	11852.62
470.295	11768.65
470.5	11471.7
470.705	11557.71
470.91	11279.19
471.115	11449.17
471.32	11330.39
471.525	11391.83
471.73	11209.56
471.935	10834.78
472.139	10640.22
472.344	10638.17
472.549	10759
472.754	10605.41
472.959	10306.4
473.164	10273.64
473.369	10007.4
473.574	10390.37
473.778	10558.3
473.983	9892.71
474.188	10117.99
474.393	9763.69
474.598	9663.34
474.802	9614.19
475.007	9546.61
475.212	9403.25
475.417	9245.55
475.621	9180.02
475.826	9149.3
476.031	9157.49
476.235	9046.9
476.44	9122.68
476.645	8876.92
476.849	9032.57
477.054	8909.69
477.259	8561.53
477.463	8778.62
477.668	8430.46
477.872	8405.89
478.077	8565.63
478.282	8067.97
478.486	8360.83
478.691	8156.04
478.895	7994.25
479.1	8067.97
479.304	8043.4
479.509	7906.18
479.713	8041.35
479.918	7783.31
480.122	7543.69
480.326	7838.6
480.531	7959.43
480.735	7480.21
480.94	7494.54
481.144	7809.93
481.348	7488.4
481.553	7738.25
481.757	7504.78
481.961	7465.87
482.166	7635.85
482.37	7383.95
482.574	7322.51
482.778	7541.64
482.983	7730.06
483.187	7488.4
483.391	7615.37
483.595	7371.66
483.8	7248.79
484.004	7478.16
484.208	7558.03
484.412	7377.81
484.616	7506.83
484.821	7377.81
485.025	7287.7
485.229	7295.89
485.433	7459.73
485.637	7519.12
485.841	7431.05
486.045	7429.01
486.249	7578.51
486.453	7467.92
486.657	7414.67
486.861	7515.02
487.065	7263.12
487.269	7371.66
487.473	7322.51
487.677	7689.1
487.881	7652.24
488.085	7539.6
488.289	7680.91
488.493	7388.05
488.697	7435.15
488.901	7484.3
489.105	7652.24
489.309	7650.19
489.512	7562.12
489.716	7586.7
489.92	7486.35
490.124	7601.04
490.328	7689.1
490.531	7615.37
490.735	7566.22
490.939	7852.94
491.143	7832.46
491.346	7797.64
491.55	7865.22
491.754	7797.64
491.958	7953.29
492.161	7672.71
492.365	7986.05
492.569	7902.09
492.772	7871.37
492.976	7984.01
493.18	8205.19
493.383	8260.48
493.587	8358.78
493.79	8151.94
493.994	8330.11
494.197	8293.25
494.401	8354.69
494.605	8379.26
494.808	8606.59
495.012	8579.97
495.215	8622.97
495.419	8639.36
495.622	8526.72
495.825	8694.65
496.029	8885.11
496.232	8819.58
496.436	9098.1
496.639	9276.27
496.843	9057.14
497.046	9302.9
497.249	9335.67
497.453	9464.69
497.656	9491.31
497.859	9546.61
498.063	9624.43
498.266	9991.02
498.469	9720.68
498.673	9902.95
498.876	10236.77
499.079	10251.11
499.282	10279.78
499.485	10679.13
499.689	10457.95
499.892	10679.13
500.095	10599.26
500.298	11021.14
500.501	10863.45
500.705	11244.37
500.908	11367.25
501.111	11563.86
501.314	11516.75
501.517	11664.21
501.72	11881.29
501.923	11940.68
502.126	11932.49
502.329	12280.64
502.532	12483.39
502.735	12694.33
502.938	12866.36
503.141	12864.32
503.344	13177.65
503.547	12983.1
503.75	13202.23
503.953	13333.3
504.156	13679.41
504.359	13595.44
504.562	13665.07
504.765	13984.55
504.968	14121.77
505.17	14111.53
505.373	14211.88
505.576	14600.99
505.779	14719.78
505.982	14789.41
506.185	15231.77
506.387	15151.9
506.59	15393.56
506.793	15762.19
506.996	15768.34
507.198	16063.24
507.401	16085.77
507.604	16200.46
507.807	16556.8
508.009	16671.49
508.212	16689.92
508.415	16820.99
508.617	17365.75
508.82	17416.95
509.022	17351.42
509.225	17797.87
509.428	17955.57
509.63	17994.48
509.833	18221.8
510.035	18453.22
510.238	18461.41
510.44	18641.64
510.643	18895.58
510.845	19120.86
511.048	19227.35
511.25	19512.02
511.453	19567.32
511.655	20429.51
511.858	19856.08
512.06	20280.01
512.262	20456.14
512.465	20761.28
512.667	20714.18
512.87	21041.85
513.072	21217.98
513.274	21535.42
513.477	21807.8
513.679	22188.72
513.881	22422.19
514.084	22620.84
514.286	22375.08
514.488	23024.29
514.69	23425.69
514.893	23270.04
515.095	23601.82
515.297	23331.48
515.499	23622.3
515.701	24361.61
515.904	24083.09
516.106	24541.83
516.308	24846.98
516.51	24908.42
516.712	24908.42
516.914	25408.12
517.116	25961.08
517.318	25971.32
517.52	26178.16
517.722	26036.85
517.925	26747.5
518.127	26808.93
518.329	27093.6
518.531	26991.2
518.733	27251.3
518.935	27685.47
519.136	27861.59
519.338	27877.97
519.54	28457.55
519.742	28717.64
519.944	28629.58
520.146	29434.43
520.348	28940.87
520.55	29272.64
520.752	29461.05
520.954	30016.05
521.155	30040.63
521.357	30368.3
521.559	30427.7
521.761	30689.84
521.963	31160.87
522.164	30833.19
522.366	31459.87
522.568	31441.44
522.77	31986.2
522.971	32291.35
523.173	32076.31
523.375	32334.35
523.576	32391.7
523.778	32563.73
523.98	33292.8
524.181	33128.97
524.383	33186.31
524.584	33374.72
524.786	33335.81
524.988	33589.76
525.189	33567.23
525.391	33862.14
525.592	34374.13
525.794	33997.31
525.995	34300.4
526.197	34300.4
526.398	34439.67
526.6	34972.14
526.801	34914.8
527.003	35189.22
527.204	35244.52
527.406	35215.85
527.607	35561.95
527.808	35598.82
528.01	35316.2
528.211	35678.69
528.412	36256.21
528.614	36080.09
528.815	36184.54
529.016	36432.34
529.218	35992.03
529.419	36305.37
529.62	36313.56
529.822	36159.96
530.023	36401.62
530.224	36463.06
530.425	36274.65
530.626	36424.15
530.828	36090.33
531.029	37165.51
531.23	36319.7
531.431	36751.82
531.632	36993.48
531.833	37071.31
532.035	36868.56
532.236	36899.28
532.437	37054.92
532.638	36694.48
532.839	37294.53
533.04	37171.66
533.241	37259.72
533.442	37704.13
533.643	37255.62
533.844	37040.59
534.045	37421.51
534.246	37229
534.447	37726.66
534.648	36872.65
534.849	37345.73
535.05	37366.21
535.251	37382.6
535.451	37317.06
535.652	37394.89
535.853	37083.59
536.054	37390.79
536.255	37376.45
536.456	36987.34
536.657	38283.7
536.857	36923.85
537.058	37216.71
537.259	37712.32
537.46	37171.66
537.66	37237.19
537.861	37515.72
538.062	37386.69
538.263	37988.8
538.463	37362.12
538.664	37478.85
538.865	37380.55
539.065	37407.17
539.266	37253.58
539.466	37624.26
539.667	37222.86
539.868	37784
540.068	37521.86
540.269	37220.81
540.469	37597.63
540.67	36966.86
540.87	37341.64
541.071	37159.37
541.271	37638.59
541.472	37110.22
541.672	37415.37
541.873	37118.41
542.073	37153.23
542.274	37499.33
542.474	37321.16
542.675	37134.79
542.875	37433.8
543.075	36882.89
543.276	36889.04
543.476	37564.87
543.676	37190.09
543.877	37251.53
544.077	37079.5
544.277	37147.08
544.478	37099.98
544.678	37175.75
544.878	37259.72
545.078	37652.93
545.279	37124.55
545.479	37087.69
545.679	37857.73
545.879	37026.25
546.079	37159.37
546.28	37159.37
546.48	36704.72
546.68	37259.72
546.88	37030.35
547.08	37255.62
547.28	37108.17
547.48	36674
547.68	37079.5
547.88	36694.48
548.081	36749.78
548.281	37259.72
548.481	36886.99
548.681	37554.63
548.881	37239.24
549.081	36903.37
549.28	36557.27
549.48	36973
549.68	36725.2
549.88	37528
550.08	36848.08
550.28	37145.03
550.48	36954.57
550.68	37308.87
550.88	36708.82
551.08	36850.13
551.279	37016.01
551.479	36528.59
551.679	37214.66
551.879	36735.44
552.079	36768.21
552.278	36886.99
552.478	36733.39
552.678	36674
552.878	36966.86
553.077	36639.18
553.277	36424.15
553.477	36727.25
553.676	36614.61
553.876	36422.1
554.076	36465.11
554.275	36186.58
554.475	36307.41
554.674	36452.82
554.874	36461.01
555.074	36620.75
555.273	36506.07
555.473	36518.35
555.672	36209.11
555.872	36258.26
556.071	36815.31
556.271	36252.12
556.47	36524.5
556.67	35920.35
556.869	36202.97
557.068	36356.57
557.268	36100.57
557.467	36129.24
557.667	36055.51
557.866	36104.67
558.065	35776.99
558.265	35520.99
558.464	35916.25
558.663	36291.03
558.863	35602.91
559.062	36188.63
559.261	35647.97
559.461	36131.29
559.66	35371.49
559.859	35938.78
560.058	35387.88
560.258	35320.29
560.457	35287.53
560.656	36116.95
560.855	35152.36
561.054	35774.94
561.253	34853.36
561.453	35455.46
561.652	35613.15
561.851	35469.79
562.05	35015.15
562.249	35076.58
562.448	35211.75
562.647	34980.33
562.846	34951.66
563.045	35125.74
563.244	34165.24
563.443	35148.26
563.642	34593.26
563.841	34836.97
564.04	34367.99
564.239	34937.32
564.438	34257.4
564.637	34570.74
564.836	34558.45
565.035	34324.98
565.234	34464.24
565.432	34257.4
565.631	33878.52
565.83	34402.8
566.029	34036.22
566.228	33462.79
566.427	33909.24
566.625	33989.11
566.824	33839.61
567.023	34134.52
567.222	32879.11
567.42	33899
567.619	33946.11
567.818	33778.17
568.016	33585.66
568.215	33843.71
568.414	33704.45
568.612	33636.86
568.811	33174.02
569.01	33522.18
569.208	32639.5
569.407	33464.83
569.605	32520.72
569.804	33059.34
570.002	32741.9
570.201	33057.29
570.4	32717.32
570.598	32512.53
570.797	32424.47
570.995	32537.1
571.193	32283.16
571.392	32563.73
571.59	32086.55
571.789	32387.6
571.987	32219.67
572.186	32176.66
572.384	31695.39
572.582	31984.15
572.781	32178.71
572.979	31724.06
573.177	32006.68
573.376	32070.17
573.574	31285.79
573.772	31672.86
573.971	31408.67
574.169	31228.45
574.367	30964.26
574.565	31283.75
574.763	31124.01
574.962	31029.8
575.16	30661.16
575.358	31367.71
575.556	30736.94
575.754	30861.87
575.952	30784.04
576.151	31003.17
576.349	30439.98
576.547	30511.66
576.745	30501.42
576.943	30358.06
577.141	30036.53
577.339	30181.94
577.537	29954.61
577.735	30237.23
577.933	30063.16
578.131	29948.47
578.329	29801.02
578.527	29635.13
578.725	29692.47
578.923	29962.81
579.121	29663.8
579.319	29768.25
579.516	29870.65
579.714	29332.03
579.912	28963.4
580.11	28885.58
580.308	29057.6
580.506	29252.16
580.704	28658.25
580.901	29059.65
581.099	28930.63
581.297	28443.21
581.495	28715.59
581.692	28508.75
581.89	28535.37
582.088	28842.57
582.285	28222.03
582.483	28510.8
582.681	28310.1
582.878	28244.56
583.076	27890.26
583.274	28232.27
583.471	27707.99
583.669	27880.02
583.866	27927.13
584.064	27830.87
584.262	27349.6
584.459	27884.12
584.657	27763.29
584.854	27632.22
585.052	27286.11
585.249	27345.5
585.447	27161.19
585.644	27107.94
585.841	27054.69
586.039	27349.6
586.236	26858.09
586.434	26974.82
586.631	26671.72
586.828	26712.68
587.026	26899.05
587.223	26479.21
587.42	26335.85
587.618	26602.09
587.815	26063.47
588.012	26022.51
588.21	26231.41
588.407	26241.65
588.604	25946.74
588.801	25811.57
588.999	25991.8
589.196	25870.97
589.393	25858.68
589.59	25850.49
589.787	25567.87
589.984	25627.26
590.182	25256.57
590.379	25649.78
590.576	25442.94
590.773	25365.12
590.97	25219.71
591.167	25469.56
591.364	24853.12
591.561	25115.26
591.758	25051.78
591.955	25016.96
592.152	24863.36
592.349	24756.87
592.546	24599.18
592.743	24730.25
592.94	24384.14
593.137	24568.46
593.334	24763.01
593.531	24466.06
593.727	24449.67
593.924	24396.43
594.121	23845.52
594.318	24224.4
594.515	23837.33
594.712	24003.22
594.908	23739.03
595.105	23941.78
595.302	23759.51
595.499	23839.38
595.696	23757.46
595.892	23734.93
596.089	23769.75
596.286	23575.19
596.482	23581.34
596.679	23175.84
596.876	23282.33
597.072	22995.62
597.269	23257.76
597.466	22667.94
597.662	23122.59
597.859	22948.51
598.055	22885.03
598.252	22667.94
598.448	22579.88
598.645	22502.06
598.841	22330.03
599.038	22440.62
599.234	22424.23
599.431	22391.47
599.627	22270.64
599.824	22262.44
600.02	22194.86
600.217	22370.99
600.413	22069.94
600.609	21506.74
600.806	21803.7
601.002	21930.67
601.198	21557.94
601.395	21766.84
601.591	21627.57
601.787	21609.14
601.984	21361.34
602.18	21392.06
602.376	21238.46
602.572	21226.17
602.769	21387.96
602.965	21088.96
603.161	21084.86
603.357	21195.45
603.553	20808.39
603.75	21009.09
603.946	20812.48
604.142	20884.16
604.338	20738.76
604.534	20650.69
604.73	20372.17
604.926	20476.62
605.122	20449.99
605.318	20148.94
605.514	20017.87
605.71	20341.45
605.906	20296.39
606.102	20423.37
606.298	20064.97
606.494	20122.32
606.69	20155.08
606.886	19948.24
607.082	19966.67
607.278	20034.25
607.474	19536.6
607.67	20095.69
607.866	19233.5
608.062	19798.74
608.257	19555.03
608.453	19469.01
608.649	19747.54
608.845	19444.44
609.041	19493.59
609.236	19077.85
609.432	19419.86
609.628	19387.1
609.824	19368.66
610.019	18873.06
610.215	19383
610.411	19315.42
610.606	19016.41
610.802	18899.68
610.998	19004.13
611.193	19141.34
611.389	18918.11
611.584	18985.69
611.78	18811.62
611.976	18416.36
612.171	18952.93
612.367	18707.17
612.562	18680.55
612.758	18592.48
612.953	18504.42
613.149	18705.12
613.344	18154.22
613.539	18731.75
613.735	18176.75
613.93	18402.02
614.126	18289.38
614.321	18422.5
614.517	18576.1
614.712	18307.82
614.907	17810.16
615.103	18348.78
615.298	18094.83
615.493	18338.54
615.688	17773.3
615.884	18244.33
616.079	17761.01
616.274	18152.17
616.47	17933.04
616.665	17928.94
616.86	17623.8
617.055	18008.81
617.25	17842.93
617.445	17527.54
617.641	17378.04
617.836	17648.37
618.031	17328.89
618.226	17672.95
618.421	17412.85
618.616	17490.68
618.811	17070.84
619.006	17373.94
619.201	17027.84
619.396	17150.71
619.591	16710.4
619.786	16945.92
619.981	16569.09
620.176	17076.99
620.371	16759.55
620.566	16814.85
620.761	16782.08
620.956	16872.19
621.151	16470.79
621.346	16700.16
621.541	16153.35
621.735	16384.77
621.93	16085.77
622.125	16143.11
622.32	15952.65
622.515	15852.3
622.709	15530.77
622.904	15776.53
623.099	15618.83
623.294	15807.25
623.488	15469.33
623.683	15586.07
623.878	15180.57
624.072	15422.23
624.267	15465.24
624.462	15078.17
624.656	14957.34
624.851	15024.92
625.046	14918.43
625.24	15076.12
625.435	14789.41
625.629	14680.86
625.824	14574.37
626.018	14541.6
626.213	14152.49
626.407	14361.38
626.602	14150.44
626.796	14277.41
626.991	14179.11
627.185	14121.77
627.38	13992.75
627.574	13646.64
627.768	13878.06
627.963	13695.79
628.157	13570.86
628.352	13726.51
628.546	13511.47
628.74	13540.15
628.935	13435.7
629.129	13366.07
629.323	13075.26
629.517	13009.72
629.712	13091.64
629.906	13069.11
630.1	13140.79
630.294	12927.8
630.489	12991.29
630.683	12890.94
630.877	12694.33
631.071	12600.13
631.265	12761.92
631.459	12309.32
631.653	12477.25
631.848	12516.16
632.042	12188.49
632.236	12266.31
632.43	11952.97
632.624	12036.94
632.818	11979.59
633.012	11924.3
633.206	11918.15
633.4	12008.26
633.594	11502.42
633.788	11756.36
633.982	11721.55
634.176	11803.47
634.369	11633.49
634.563	11688.78
634.757	11303.76
634.951	11537.23
635.145	11242.32
635.339	11400.02
635.533	11242.32
635.726	11117.4
635.92	10961.75
636.114	10908.51
636.308	11004.76
636.501	11121.49
636.695	10904.41
636.889	10818.39
637.083	10785.63
637.276	10646.37
637.47	10597.21
637.664	10486.62
637.857	10421.09
638.051	10675.04
638.244	10484.58
638.438	10285.92
638.632	10369.89
638.825	10306.4
639.019	10089.32
639.212	9911.14
639.406	10017.64
639.599	10042.21
639.793	10083.17
639.986	9671.53
640.18	9937.77
640.373	9851.75
640.567	9675.63
640.76	9583.47
640.954	9601.9
641.147	9466.74
641.34	9665.39
641.534	9266.03
641.727	9300.85
641.92	9565.04
642.114	9229.17
642.307	9114.48
642.5	9147.25
642.694	9051
642.887	9034.61
643.08	8971.13
643.273	9032.57
643.467	8997.75
643.66	9145.2
643.853	8805.24
644.046	8672.12
644.239	8708.99
644.432	8655.74
644.626	8639.36
644.819	8672.12
645.012	8721.27
645.205	8489.85
645.398	8569.73
645.591	8469.37
645.784	8442.75
645.977	8301.44
646.17	8240
646.363	8430.46
646.556	8125.32
646.749	8303.49
646.942	8285.06
647.135	8182.66
647.328	8002.44
647.521	7975.81
647.714	7801.74
647.907	7945.09
648.099	7832.46
648.292	7842.7
648.485	7742.35
648.678	7617.42
648.871	7650.19
649.064	7687.05
649.256	7875.46
649.449	7660.43
649.642	7611.28
649.835	7265.17
650.027	7461.77
650.22	7467.92
650.413	7345.04
650.605	7408.53
650.798	7377.81
650.991	7146.39
651.183	7216.02
651.376	7066.52
651.568	7304.08
651.761	7123.86
651.954	7017.36
652.146	6831
652.339	7074.71
652.531	7013.27
652.724	6992.79
652.916	6726.55
653.109	6693.79
653.301	6689.69
653.494	6675.35
653.686	6706.07
653.879	6732.7
654.071	6558.62
654.263	6476.7
654.456	6632.35
654.648	6435.74
654.84	6562.72
655.033	6402.97
655.225	6378.4
655.417	6370.21
655.61	6577.05
655.802	6355.87
655.994	6323.1
656.186	6374.3
656.379	6202.27
656.571	6189.99
656.763	5995.43
656.955	6085.54
657.148	6126.5
657.34	6083.49
657.532	5694.38
657.724	5962.66
657.916	5960.61
658.108	5964.71
658.3	5983.14
658.492	5850.02
658.684	5845.93
658.876	5870.5
659.068	5714.86
659.26	5692.33
659.452	5600.17
659.644	5553.07
659.836	5630.89
660.028	5520.3
660.22	5381.04
660.412	5532.59
660.604	5487.53
660.796	5473.2
660.988	5381.04
661.18	5430.19
661.372	5311.41
661.563	5354.41
661.755	5235.63
661.947	5202.86
662.139	5153.71
662.331	5217.2
662.522	5143.47
662.714	5100.47
662.906	5041.08
663.097	5047.22
663.289	4993.97
663.481	4883.38
663.673	4928.44
663.864	4823.99
664.056	4944.82
664.247	4793.27
664.439	4791.22
664.631	4797.37
664.822	4862.9
665.014	4690.87
665.205	4682.68
665.397	4635.58
665.588	4694.97
665.78	4514.75
665.971	4645.82
666.163	4522.94
666.354	4567.99
666.546	4473.79
666.737	4559.8
666.929	4563.9
667.12	4535.23
667.311	4457.4
667.503	4238.27
667.694	4512.7
667.885	4260.8
668.077	4342.72
668.268	4297.66
668.459	4391.87
668.651	4252.61
668.842	4250.56
669.033	4256.7
669.224	4178.88
669.416	4371.39
669.607	4139.97
669.798	4223.94
669.989	4316.09
670.18	4289.47
670.371	4070.34
670.563	3892.16
670.754	4002.75
670.945	3972.04
671.136	4105.15
671.327	4074.43
671.518	3920.84
671.709	4000.71
671.9	3920.84
672.091	3890.12
672.282	3818.44
672.473	3832.77
672.664	3945.41
672.855	3797.96
673.046	3826.63
673.237	3859.4
673.428	3883.97
673.619	3941.32
673.809	3744.71
674	3759.05
674.191	3802.05
674.382	3679.18
674.573	3718.09
674.764	3750.85
674.954	3642.31
675.145	3732.42
675.336	3529.67
675.527	3638.22
675.717	3707.85
675.908	3605.45
676.099	3603.4
676.289	3447.76
676.48	3640.26
676.671	3589.07
676.861	3552.2
677.052	3568.59
677.243	3562.44
677.433	3521.48
677.624	3519.43
677.814	3515.34
678.005	3562.44
678.195	3464.14
678.386	3449.8
678.576	3265.49
678.767	3326.93
678.957	3351.5
679.148	3449.8
679.338	3396.56
679.529	3431.37
679.719	3363.79
679.909	3343.31
680.1	3347.4
680.29	3353.55
680.481	3273.68
680.671	3234.77
680.861	3290.06
681.052	3285.97
681.242	3298.25
681.432	3369.93
681.622	3271.63
681.813	3208.14
682.003	3167.18
682.193	3281.87
682.383	3232.72
682.573	3265.49
682.764	3103.7
682.954	3251.15
683.144	3202
683.334	3072.98
683.524	3161.04
683.714	3154.9
683.904	3177.42
684.094	3185.62
684.284	3232.72
684.474	3132.37
684.664	3202
684.854	3034.07
685.044	3052.5
685.234	3040.21
685.424	3077.07
685.614	3113.94
685.804	3232.72
685.994	3050.45
686.184	2995.15
686.374	3109.84
686.564	3038.16
686.753	3134.42
686.943	2952.15
687.133	3007.44
687.323	2913.24
687.513	2941.91
687.702	2999.25
687.892	2954.19
688.082	2974.67
688.272	2984.91
688.461	2849.75
688.651	2941.91
688.841	2907.09
689.03	2954.19
689.22	2778.07
689.41	2980.82
689.599	2986.96
689.789	2929.62
689.979	2864.08
690.168	2946
690.358	2839.51
690.547	2788.31
690.737	2800.6
690.926	2816.98
691.116	2716.63
691.305	2900.95
691.495	2786.26
691.684	2642.9
691.874	2765.78
692.063	2786.26
692.252	2735.06
692.442	2798.55
692.631	2687.96
692.82	2683.86
693.01	2595.8
693.199	2653.14
693.388	2634.71
693.578	2741.21
693.767	2636.76
693.956	2661.34
694.146	2651.1
694.335	2675.67
694.524	2560.98
694.713	2546.65
694.902	2485.21
695.092	2567.13
695.281	2509.79
695.47	2462.68
695.659	2454.49
695.848	2589.66
696.037	2520.03
696.226	2528.22
696.415	2571.22
696.604	2505.69
696.793	2511.83
696.982	2501.59
697.171	2544.6
697.36	2409.44
697.549	2429.91
697.738	2348
697.927	2427.87
698.116	2372.57
698.305	2384.86
698.494	2323.42
698.683	2401.24
698.872	2397.15
699.061	2374.62
699.25	2227.17
699.438	2325.47
699.627	2354.14
699.816	2489.31
700.005	2235.36
700.193	2282.46
700.382	2325.47
700.571	2319.32
700.76	2348
700.948	2386.91
701.137	2210.78
701.326	2372.57
701.514	2339.8
701.703	2429.91
701.892	2319.32
702.08	2415.58
702.269	2339.8
702.457	2317.28
702.646	2151.39
702.834	2380.76
703.023	2321.37
703.212	2237.41
703.4	2341.85
703.589	2231.26
703.777	2327.52
703.965	2274.27
704.154	2270.17
704.342	2247.65
704.531	2200.54
704.719	2184.16
704.907	2315.23
705.096	2126.82
705.284	2380.76
705.472	2147.3
705.661	2208.73
705.849	2290.65
706.037	2261.98
706.226	2161.63
706.414	2184.16
706.602	2126.82
706.79	2163.68
706.979	2128.86
707.167	2276.32
707.355	2036.7
707.543	2239.45
707.731	2298.84
707.919	2163.68
708.107	2135.01
708.296	2253.79
708.484	2184.16
708.672	2204.64
708.86	2122.72
709.048	2206.69
709.236	2077.66
709.424	2145.25
709.612	2126.82
709.8	2118.62
709.988	2210.78
710.176	2249.69
710.364	2053.09
710.551	1975.27
710.739	2108.38
710.927	2036.7
711.115	2075.62
711.303	2112.48
711.491	2083.81
711.679	1993.7
711.866	2081.76
712.054	2040.8
712.242	2055.14
712.43	2178.01
712.617	2110.43
712.805	2069.47
712.993	2020.32
713.181	2051.04
713.368	2132.96
713.556	2141.15
713.744	2048.99
713.931	2147.3
714.119	1950.69
714.306	1999.84
714.494	2036.7
714.682	2012.13
714.869	1979.36
715.057	2040.8
715.244	2012.13
715.432	2157.54
715.619	2083.81
715.807	2008.03
715.994	2061.28
716.182	2063.33
716.369	1965.03
716.556	2167.77
716.744	1938.4
716.931	1930.21
717.119	2071.52
717.306	1913.83
717.493	2044.9
717.681	2024.42
717.868	2022.37
718.055	1989.6
718.242	1917.92
718.43	2005.99
718.617	2065.38
718.804	1971.17
718.991	2030.56
719.179	1973.22
719.366	1997.79
719.553	2077.66
719.74	1948.64
719.927	2048.99
720.114	1997.79
720.301	1975.27
720.488	1977.31
720.676	1905.63
720.863	1919.97
721.05	2008.03
721.237	1954.79
721.424	1915.87
721.611	1999.84
721.798	1958.88
721.985	1866.72
722.172	1831.91
722.358	1967.07
722.545	1833.96
722.732	1893.35
722.919	1997.79
723.106	1930.21
723.293	1889.25
723.48	1997.79
723.667	1868.77
723.853	1870.82
724.04	1883.11
724.227	1981.41
724.414	1893.35
724.6	1930.21
724.787	1831.91
724.974	1938.4
725.161	1919.97
725.347	1811.43
725.534	1995.75
725.72	1799.14
725.907	1915.87
726.094	1850.34
726.28	1872.87
726.467	1889.25
726.653	1848.29
726.84	2022.37
727.027	1960.93
727.213	1786.85
727.4	1838.05
727.586	1856.48
727.773	1825.76
727.959	1840.1
728.145	1823.72
728.332	1868.77
728.518	1749.99
728.705	1932.26
728.891	1809.38
729.077	1801.19
729.264	1836
729.45	1913.83
729.636	1919.97
729.823	1850.34
730.009	1846.24
730.195	1868.77
730.382	1936.35
730.568	1883.11
730.754	1885.16
730.94	1831.91
731.126	1868.77
731.313	1774.56
731.499	1842.15
731.685	1809.38
731.871	1817.57
732.057	1850.34
732.243	1776.61
732.429	1805.28
732.615	1864.68
732.801	1881.06
732.987	1860.58
733.173	1811.43
733.359	1848.29
733.545	1831.91
733.731	1725.41
733.917	1821.67
734.103	1784.8
734.289	1774.56
734.475	1758.18
734.661	1723.37
734.847	1772.52
735.033	1793
735.219	1840.1
735.404	1821.67
735.59	1827.81
735.776	1809.38
735.962	1729.51
736.148	1825.76
736.333	1770.47
736.519	1719.27
736.705	1790.95
736.89	1709.03
737.076	1790.95
737.262	1778.66
737.447	1803.24
737.633	1762.28
737.819	1774.56
738.004	1737.7
738.19	1641.45
738.375	1686.5
738.561	1672.17
738.747	1774.56
738.932	1686.5
739.118	1731.56
739.303	1668.07
739.489	1692.65
739.674	1729.51
739.859	1661.93
740.045	1680.36
740.23	1659.88
740.416	1655.78
740.601	1635.3
740.786	1700.84
740.972	1643.49
741.157	1610.73
741.342	1651.69
741.528	1639.4
741.713	1692.65
741.898	1524.71
742.084	1706.98
742.269	1545.19
742.454	1569.77
742.639	1684.45
742.824	1645.54
743.01	1598.44
743.195	1668.07
743.38	1528.81
743.565	1594.34
743.75	1625.06
743.935	1616.87
744.12	1618.92
744.305	1586.15
744.49	1582.06
744.675	1573.86
744.86	1524.71
745.045	1569.77
745.23	1537
745.415	1561.58
745.6	1541.1
745.785	1440.75
745.97	1496.04
746.155	1438.7
746.34	1426.41
746.525	1397.74
746.71	1455.08
746.895	1432.55
747.079	1399.79
747.264	1434.6
747.449	1453.03
747.634	1399.79
747.819	1457.13
748.003	1393.64
748.188	1401.83
748.373	1430.51
748.557	1502.19
748.742	1412.07
748.927	1278.96
749.111	1283.05
749.296	1375.21
749.481	1407.98
749.665	1297.39
749.85	1332.2
750.034	1340.4
750.219	1319.92
750.404	1217.52
750.588	1342.44
750.773	1285.1
750.957	1303.53
751.141	1328.11
751.326	1297.39
751.51	1184.75
751.695	1278.96
751.879	1229.81
752.064	1299.44
752.248	1203.18
752.432	1262.57
752.617	1229.81
752.801	1260.52
752.985	1278.96
753.17	1201.13
753.354	1209.33
753.538	1192.94
753.722	1078.26
753.907	1113.07
754.091	1151.98
754.275	1158.13
754.459	1074.16
754.643	1158.13
754.828	1162.22
755.012	1151.98
755.196	1094.64
755.38	1106.93
755.564	1045.49
755.748	1041.39
755.932	1053.68
756.116	1025.01
756.3	1057.78
756.484	1037.3
756.668	1027.06
756.852	988.14
757.036	1016.82
757.22	1059.82
757.404	1070.06
757.588	1049.58
757.772	1057.78
757.956	1000.43
758.14	992.24
758.323	938.99
758.507	963.57
758.691	963.57
758.875	1043.44
759.059	947.19
759.242	906.23
759.426	996.34
759.61	982
759.794	963.57
759.977	889.84
760.161	957.43
760.345	902.13
760.528	945.14
760.712	824.31
760.895	984.05
761.079	889.84
761.263	824.31
761.446	844.79
761.63	914.42
761.813	938.99
761.997	908.27
762.18	791.54
762.364	799.73
762.547	836.6
762.731	760.82
762.914	885.75
763.098	840.69
763.281	852.98
763.464	775.16
763.648	850.93
763.831	793.59
764.015	803.83
764.198	750.58
764.381	762.87
764.564	799.73
764.748	834.55
764.931	766.96
765.114	809.97
765.297	840.69
765.481	775.16
765.664	758.77
765.847	783.35
766.03	766.96
766.213	777.2
766.397	769.01
766.58	769.01
766.763	814.07
766.946	758.77
767.129	734.2
767.312	715.77
767.495	769.01
767.678	721.91
767.861	748.53
768.044	826.36
768.227	816.12
768.41	762.87
768.593	820.21
768.776	709.62
768.959	728.05
769.142	791.54
769.324	738.29
769.507	734.2
769.69	666.61
769.873	674.81
770.056	807.92
770.239	734.2
770.421	728.05
770.604	750.58
770.787	742.39
770.97	717.81
771.152	728.05
771.335	769.01
771.518	648.18
771.7	713.72
771.883	594.93
772.066	599.03
772.248	742.39
772.431	734.2
772.613	685.05
772.796	668.66
772.978	683
773.161	695.29
773.343	738.29
773.526	660.47
773.708	607.22
773.891	611.32
774.073	613.37
774.256	637.94
774.438	732.15
774.621	637.94
774.803	676.85
774.985	629.75
775.168	652.28
775.35	599.03
775.532	562.17
775.715	654.33
775.897	601.08
776.079	683
776.261	603.13
776.444	590.84
776.626	580.6
776.808	525.3
776.99	515.06
777.173	623.61
777.355	588.79
777.537	617.46
777.719	590.84
777.901	564.22
778.083	525.3
778.265	498.68
778.447	553.98
778.629	541.69
778.811	596.98
778.993	582.65
779.175	539.64
779.357	496.63
779.539	496.63
779.721	537.59
779.903	439.29
780.085	553.98
780.267	492.54
780.449	498.68
780.631	562.17
780.812	484.34
780.994	482.3
781.176	463.86
781.358	412.67
781.54	474.1
781.721	472.06
781.903	439.29
782.085	449.53
782.267	420.86
782.448	467.96
782.63	482.3
782.812	381.95
782.993	441.34
783.175	472.06
783.357	447.48
783.538	422.91
783.72	328.7
783.901	365.56
784.083	461.82
784.264	398.33
784.446	453.63
784.627	318.46
784.809	451.58
784.99	441.34
785.172	373.75
785.353	363.51
785.535	377.85
785.716	381.95
785.897	441.34
786.079	326.65
786.26	394.23
786.441	406.52
786.623	357.37
786.804	365.56
786.985	338.94
787.167	320.51
787.348	392.19
787.529	320.51
787.71	416.76
787.891	381.95
788.073	381.95
788.254	316.41
788.435	285.69
788.616	316.41
788.797	287.74
788.978	300.03
789.159	345.08
789.34	291.84
789.522	328.7
789.703	300.03
789.884	349.18
790.065	359.42
790.246	355.32
790.427	269.31
790.607	383.99
790.788	316.41
790.969	234.49
791.15	326.65
791.331	302.08
791.512	250.88
791.693	279.55
791.874	300.03
792.054	343.03
792.235	310.27
792.416	265.21
792.597	285.69
792.778	357.37
792.958	357.37
793.139	173.05
793.32	222.2
793.5	218.11
793.681	267.26
793.862	293.88
794.042	246.78
794.223	234.49
794.404	283.64
794.584	195.58
794.765	179.2
794.945	234.49
795.126	252.92
795.306	226.3
795.487	261.12
795.667	326.65
795.848	152.57
796.028	273.4
796.209	205.82
796.389	246.78
796.57	162.81
796.75	304.12
796.93	205.82
797.111	214.01
797.291	218.11
797.471	154.62
797.652	250.88
797.832	271.36
798.012	185.34
798.192	203.77
798.373	125.95
798.553	164.86
798.733	148.48
798.913	185.34
799.093	185.34
799.274	179.2
799.454	271.36
799.634	156.67
799.814	230.4
799.994	209.92
800.174	187.39
800.354	197.63
800.534	228.35
800.714	238.59
800.894	285.69
801.074	138.24
801.254	154.62
801.434	228.35
801.614	199.68
801.794	175.1
801.974	799.73
802.154	156.67
802.334	173.05
802.514	117.76
802.693	179.2
802.873	156.67
803.053	185.34
803.233	187.39
803.413	185.34
803.592	97.28
803.772	207.87
803.952	171.01
804.131	80.89
804.311	214.01
804.491	193.53
804.67	156.67
804.85	136.19
805.03	177.15
805.209	152.57
805.389	185.34
805.568	117.76
805.748	209.92
805.928	203.77
806.107	195.58
806.287	148.48
806.466	177.15
806.646	162.81
806.825	242.68
807.004	140.29
807.184	130.05
807.363	226.3
807.543	107.52
807.722	103.42
807.901	185.34
808.081	175.1
808.26	99.33
808.439	189.44
808.619	121.85
808.798	183.29
808.977	171.01
809.156	130.05
809.336	113.66
809.515	130.05
809.694	119.81
809.873	82.94
810.052	164.86
810.231	72.7
810.411	152.57
810.59	103.42
810.769	162.81
810.948	185.34
811.127	125.95
811.306	111.61
811.485	117.76
811.664	132.09
811.843	201.72
812.022	146.43
812.201	58.37
812.38	89.09
812.559	103.42
812.737	130.05
812.916	91.13
813.095	70.65
813.274	128
813.453	107.52
813.632	99.33
813.811	103.42
813.989	9.22
814.168	70.65
814.347	70.65
814.526	111.61
814.704	148.48
814.883	121.85
815.062	89.09
815.24	76.8
815.419	13.31
815.598	164.86
815.776	113.66
815.955	95.23
816.133	46.08
816.312	138.24
816.49	95.23
816.669	128
816.847	105.47
817.026	115.71
817.204	136.19
817.383	56.32
817.561	31.74
817.74	121.85
817.918	91.13
818.097	103.42
818.275	72.7
818.453	152.57
818.632	103.42
818.81	72.7
818.988	156.67
819.167	103.42
819.345	144.38
819.523	74.75
819.701	177.15
819.879	152.57
820.058	70.65
820.236	130.05
820.414	99.33
820.592	148.48
820.77	103.42
820.948	70.65
821.127	70.65
821.305	148.48
821.483	39.94
821.661	117.76
821.839	95.23
822.017	70.65
822.195	91.13
822.373	107.52
822.551	91.13
822.729	158.72
822.907	46.08
823.085	142.33
823.262	62.46
823.44	17.41
823.618	105.47
823.796	68.61
823.974	39.94
824.152	54.27
824.329	87.04
824.507	95.23
824.685	142.33
824.863	113.66
825.04	113.66
825.218	54.27
825.396	62.46
825.574	54.27
825.751	123.9
825.929	183.29
826.107	44.03
826.284	134.14
826.462	68.61
826.639	56.32
826.817	-7.17
826.994	103.42
827.172	-9.22
827.349	58.37
827.527	105.47
827.704	72.7
827.882	138.24
828.059	78.85
828.237	74.75
828.414	121.85
828.591	23.55
828.769	29.7
828.946	111.61
829.124	113.66
829.301	105.47
829.478	21.5
829.655	103.42
829.833	70.65
830.01	58.37
830.187	31.74
830.364	115.71
830.542	87.04
830.719	78.85
830.896	17.41
831.073	144.38
831.25	103.42
831.427	78.85
831.604	82.94
831.782	64.51
831.959	111.61
832.136	107.52
832.313	1.02
832.49	-35.84
832.667	87.04
832.844	74.75
833.021	54.27
833.198	103.42
833.374	72.7
833.551	33.79
833.728	50.18
833.905	119.81
834.082	-17.41
834.259	87.04
834.436	-31.74
834.612	17.41
834.789	15.36
834.966	64.51
835.143	54.27
835.319	54.27
835.496	21.5
835.673	82.94
835.85	128
836.026	44.03
836.203	5.12
836.38	103.42
836.556	46.08
836.733	56.32
836.909	103.42
837.086	21.5
837.262	60.42
837.439	13.31
837.616	-3.07
837.792	13.31
837.968	15.36
838.145	29.7
838.321	31.74
838.498	-3.07
838.674	95.23
838.851	91.13
839.027	25.6
839.203	-25.6
839.38	39.94
839.556	-39.94
839.732	146.43
839.909	5.12
840.085	46.08
840.261	-33.79
840.437	17.41
840.614	11.26
840.79	64.51
840.966	5.12
841.142	-58.37
841.318	21.5
841.494	35.84
841.671	33.79
841.847	52.22
842.023	52.22
842.199	29.7
842.375	39.94
842.551	17.41
842.727	19.46
842.903	78.85
843.079	3.07
843.255	58.37
843.431	58.37
843.607	21.5
843.783	-31.74
843.959	70.65
844.134	13.31
844.31	117.76
844.486	33.79
844.662	54.27
844.838	64.51
845.013	46.08
845.189	70.65
845.365	25.6
845.541	89.09
845.716	-9.22
845.892	62.46
846.068	31.74
846.244	39.94
846.419	82.94
846.595	-7.17
846.77	29.7
846.946	68.61
847.122	87.04
847.297	-3.07
847.473	66.56
847.648	-19.46
847.824	62.46
847.999	17.41
848.175	-9.22
848.35	-7.17
848.526	-7.17
848.701	97.28
848.876	21.5
849.052	82.94
849.227	15.36
849.403	62.46
849.578	-68.61
849.753	46.08
849.929	74.75
850.104	9.22
850.279	17.41
850.454	9.22
850.63	-3.07
850.805	46.08
850.98	58.37
851.155	-5.12
851.33	-1.02
851.505	56.32
851.681	156.67
851.856	-17.41
852.031	80.89
852.206	54.27
852.381	35.84
852.556	3.07
852.731	11.26
852.906	-27.65
853.081	48.13
853.256	70.65
853.431	13.31
853.606	-9.22
853.781	1.02
853.956	21.5
854.131	19.46
854.305	50.18
854.48	23.55
854.655	21.5
854.83	13.31
855.005	-23.55
855.18	-19.46
855.354	39.94
855.529	64.51
855.704	-58.37
855.879	72.7
856.053	-125.95
856.228	35.84
856.403	-27.65
856.577	11.26
856.752	-1.02
856.926	46.08
857.101	5.12
857.276	11.26
857.45	-39.94
857.625	23.55
857.799	27.65
857.974	-44.03
858.148	-123.9
858.323	41.98
858.497	-3.07
858.672	-27.65
858.846	35.84
859.02	56.32
859.195	-3.07
859.369	15.36
859.543	13.31
859.718	48.13
859.892	54.27
860.066	56.32
860.241	-21.5
860.415	25.6
860.589	-35.84
860.763	1.02
860.938	-17.41
861.112	-9.22
861.286	-39.94
861.46	-1.02
861.634	-60.42
861.808	80.89
861.982	17.41
862.157	46.08
862.331	-58.37
862.505	-27.65
862.679	-39.94
862.853	5.12
863.027	78.85
863.201	46.08
863.375	-19.46
863.549	9.22
863.722	1.02
863.896	54.27
864.07	-27.65
864.244	7.17
864.418	13.31
864.592	19.46
864.766	-44.03
864.939	23.55
865.113	-19.46
865.287	103.42
865.461	-11.26
865.634	41.98
865.808	27.65
865.982	-21.5
866.156	-64.51
866.329	-33.79
866.503	27.65
866.676	103.42
866.85	62.46
867.024	-3.07
867.197	-76.8
867.371	-44.03
867.544	-3.07
867.718	-11.26
867.891	31.74
868.065	-97.28
868.238	19.46
868.412	37.89
868.585	19.46
868.759	39.94
868.932	-52.22
869.105	9.22
869.279	-11.26
869.452	-33.79
869.625	-44.03
869.799	-15.36
869.972	5.12
870.145	-17.41
870.319	50.18
870.492	-52.22
870.665	-44.03
870.838	-9.22
871.011	-54.27
871.185	5.12
871.358	-3.07
871.531	25.6
871.704	37.89
871.877	66.56
872.05	46.08
872.223	-19.46
872.396	44.03
872.569	-70.65
872.742	13.31
872.915	62.46
873.088	41.98
873.261	-5.12
873.434	-44.03
873.607	21.5
873.78	17.41
873.953	29.7
874.126	-25.6
874.299	-44.03
874.471	-25.6
874.644	7.17
874.817	-91.13
874.99	78.85
875.163	-7.17
875.335	-58.37
875.508	7.17
875.681	48.13
875.853	-11.26
876.026	-44.03
876.199	44.03
876.371	37.89
876.544	-15.36
876.717	29.7
876.889	-27.65
877.062	-11.26
877.234	7.17
877.407	87.04
877.579	37.89
877.752	44.03
877.924	-44.03
878.097	58.37
878.269	33.79
878.442	-3.07
878.614	78.85
878.786	-50.18
878.959	-33.79
879.131	-23.55
879.303	-44.03
879.476	-19.46
879.648	-23.55
879.82	13.31
879.993	-7.17
880.165	99.33
880.337	-44.03
880.509	-21.5
880.681	-27.65
880.854	13.31
881.026	46.08
881.198	7.17
881.37	-68.61
881.542	29.7
881.714	-25.6
881.886	-52.22
882.058	-35.84
882.23	15.36
882.402	13.31
882.574	54.27
882.746	66.56
882.918	29.7
883.09	60.42
883.262	-50.18
883.434	13.31
883.606	-84.99
883.778	-19.46
883.95	52.22
884.122	29.7
884.293	48.13
884.465	-37.89
884.637	56.32
884.809	-19.46
884.98	-52.22
885.152	11.26
885.324	5.12
885.496	46.08
885.667	-19.46
885.839	19.46
886.011	74.75
886.182	29.7
886.354	-60.42
886.525	-19.46
886.697	21.5
886.869	-56.32
887.04	-15.36
887.212	-1.02
887.383	48.13
887.555	21.5
887.726	9.22
887.897	-3.07
888.069	-7.17
888.24	50.18
888.412	29.7
888.583	-3.07
888.754	-13.31
888.926	15.36
889.097	39.94
889.268	-97.28
889.44	-3.07
889.611	27.65
889.782	-19.46
889.953	-76.8
890.125	46.08
890.296	-15.36
890.467	21.5
890.638	-52.22
890.809	-48.13
890.98	-68.61
891.151	-11.26
891.323	97.28
891.494	-17.41
891.665	1.02
891.836	-52.22
892.007	5.12
892.178	9.22
892.349	-5.12
892.52	-11.26
892.691	-62.46
892.862	13.31
893.032	-68.61
893.203	1.02
893.374	21.5
893.545	21.5
893.716	33.79
893.887	87.04
894.057	-37.89
894.228	-39.94
894.399	-31.74
894.57	-29.7
894.74	29.7
894.911	-93.18
895.082	-3.07
895.253	-39.94
895.423	9.22
895.594	23.55
895.764	9.22
895.935	-1.02
896.106	-11.26
896.276	37.89
896.447	25.6
896.617	37.89
896.788	-3.07
896.958	-35.84
897.129	-19.46
897.299	-93.18
897.47	-9.22
897.64	46.08
897.81	19.46
897.981	-64.51
898.151	-56.32
898.322	-33.79
898.492	13.31
898.662	17.41
898.832	-35.84
899.003	-33.79
899.173	29.7
899.343	-5.12
899.513	-35.84
