Data from USB4F104151__290__14-46-28-234.txt Node

Date: Thu Mar 13 14:46:28 EDT 2025
User: louis
Spectrometer: USB4F10415
Trigger mode: 4
Integration Time (sec): 2.000000E-2
Scans to average: 1
Electric dark correction enabled: true
Nonlinearity correction enabled: false
Boxcar width: 0
XAxis mode: Wavelengths
Number of Pixels in Spectrum: 3648
>>>>>Begin Spectral Data<<<<<
178.204	-59.56
178.424	-59.56
178.644	-59.56
178.864	-123.05
179.084	-108.71
179.304	16.21
179.524	12.12
179.744	-2.22
179.964	-30.89
180.184	-30.89
180.404	-2.22
180.624	-0.17
180.844	38.74
181.064	-18.6
181.283	1.88
181.503	-22.7
181.723	38.74
181.943	-20.65
182.163	77.65
182.383	34.64
182.602	-28.84
182.822	57.17
183.042	46.93
183.262	14.17
183.482	-67.75
183.701	18.26
183.921	-10.41
184.141	-24.75
184.361	26.45
184.58	-28.84
184.8	38.74
185.02	-32.94
185.239	81.75
185.459	5.97
185.679	65.36
185.898	-57.51
186.118	46.93
186.338	48.98
186.557	20.31
186.777	-20.65
186.997	-26.79
187.216	-37.03
187.436	46.93
187.655	71.51
187.875	63.32
188.095	-49.32
188.314	87.89
188.534	-18.6
188.753	-2.22
188.973	44.88
189.192	46.93
189.412	32.6
189.631	44.88
189.851	51.03
190.07	96.08
190.29	-18.6
190.509	3.93
190.729	22.36
190.948	40.79
191.168	132.95
191.387	30.55
191.607	-16.55
191.826	40.79
192.045	-47.27
192.265	1.88
192.484	-8.36
192.704	55.12
192.923	-30.89
193.142	63.32
193.362	59.22
193.581	55.12
193.8	83.8
194.02	108.37
194.239	57.17
194.458	32.6
194.678	5.97
194.897	10.07
195.116	-10.41
195.335	-41.13
195.555	30.55
195.774	10.07
195.993	69.46
196.212	16.21
196.432	63.32
196.651	-16.55
196.87	-65.71
197.089	89.94
197.308	5.97
197.528	16.21
197.747	8.02
197.966	18.26
198.185	104.28
198.404	14.17
198.623	73.56
198.842	20.31
199.062	100.18
199.281	94.04
199.5	-63.66
199.719	-18.6
199.938	46.93
200.157	57.17
200.376	-53.42
200.595	79.7
200.814	-2.22
201.033	-10.41
201.252	46.93
201.471	5.97
201.69	40.79
201.909	48.98
202.128	-10.41
202.347	-77.99
202.566	40.79
202.785	22.36
203.004	-55.47
203.223	104.28
203.442	5.97
203.661	75.6
203.879	-18.6
204.098	55.12
204.317	-0.17
204.536	-71.85
204.755	46.93
204.974	57.17
205.193	-16.55
205.411	38.74
205.63	46.93
205.849	1.88
206.068	57.17
206.287	-34.99
206.505	71.51
206.724	-24.75
206.943	-10.41
207.162	-20.65
207.381	-10.41
207.599	-12.46
207.818	-6.31
208.037	-49.32
208.255	-51.37
208.474	10.07
208.693	42.84
208.911	16.21
209.13	-8.36
209.349	81.75
209.567	55.12
209.786	59.22
210.005	-18.6
210.223	5.97
210.442	-22.7
210.661	8.02
210.879	-26.79
211.098	26.45
211.316	-26.79
211.535	8.02
211.753	30.55
211.972	22.36
212.191	89.94
212.409	42.84
212.628	96.08
212.846	22.36
213.065	55.12
213.283	65.36
213.502	1.88
213.72	5.97
213.938	22.36
214.157	36.69
214.375	8.02
214.594	-22.7
214.812	40.79
215.031	-18.6
215.249	-18.6
215.467	40.79
215.686	-16.55
215.904	44.88
216.122	-4.27
216.341	-2.22
216.559	-20.65
216.778	14.17
216.996	57.17
217.214	-34.99
217.432	48.98
217.651	18.26
217.869	28.5
218.087	26.45
218.306	20.31
218.524	-16.55
218.742	-47.27
218.96	16.21
219.179	51.03
219.397	10.07
219.615	87.89
219.833	67.41
220.051	-2.22
220.27	14.17
220.488	42.84
220.706	-10.41
220.924	-39.08
221.142	34.64
221.36	42.84
221.578	16.21
221.796	44.88
222.015	83.8
222.233	-14.51
222.451	5.97
222.669	-57.51
222.887	57.17
223.105	38.74
223.323	-22.7
223.541	-43.18
223.759	34.64
223.977	-14.51
224.195	71.51
224.413	65.36
224.631	55.12
224.849	5.97
225.067	32.6
225.285	-30.89
225.503	14.17
225.721	-16.55
225.939	44.88
226.157	8.02
226.375	75.6
226.592	22.36
226.81	-2.22
227.028	-22.7
227.246	36.69
227.464	-22.7
227.682	8.02
227.9	46.93
228.117	40.79
228.335	16.21
228.553	10.07
228.771	30.55
228.989	55.12
229.206	63.32
229.424	-6.31
229.642	-28.84
229.86	12.12
230.077	16.21
230.295	8.02
230.513	38.74
230.731	34.64
230.948	100.18
231.166	79.7
231.384	53.08
231.601	-0.17
231.819	96.08
232.037	1.88
232.254	51.03
232.472	81.75
232.689	32.6
232.907	55.12
233.125	-53.42
233.342	-8.36
233.56	-2.22
233.777	40.79
233.995	14.17
234.213	67.41
234.43	46.93
234.648	-34.99
234.865	10.07
235.083	24.4
235.3	-8.36
235.518	16.21
235.735	-10.41
235.953	38.74
236.17	-26.79
236.388	51.03
236.605	-0.17
236.822	55.12
237.04	40.79
237.257	16.21
237.475	14.17
237.692	22.36
237.909	79.7
238.127	16.21
238.344	48.98
238.562	46.93
238.779	14.17
238.996	5.97
239.214	32.6
239.431	-14.51
239.648	-26.79
239.865	5.97
240.083	10.07
240.3	-61.61
240.517	-41.13
240.735	-24.75
240.952	-2.22
241.169	22.36
241.386	16.21
241.603	-45.23
241.821	-59.56
242.038	-10.41
242.255	-0.17
242.472	-41.13
242.689	32.6
242.907	-0.17
243.124	1.88
243.341	10.07
243.558	-0.17
243.775	51.03
243.992	-57.51
244.209	24.4
244.426	91.99
244.643	18.26
244.86	40.79
245.078	-0.17
245.295	40.79
245.512	55.12
245.729	-34.99
245.946	5.97
246.163	14.17
246.38	-55.47
246.597	96.08
246.814	63.32
247.031	-18.6
247.248	5.97
247.464	12.12
247.681	-30.89
247.898	38.74
248.115	89.94
248.332	16.21
248.549	8.02
248.766	112.47
248.983	-0.17
249.2	81.75
249.417	-0.17
249.633	22.36
249.85	-43.18
250.067	-37.03
250.284	-16.55
250.501	-24.75
250.717	8.02
250.934	30.55
251.151	18.26
251.368	-22.7
251.585	34.64
251.801	10.07
252.018	-24.75
252.235	8.02
252.451	34.64
252.668	-2.22
252.885	89.94
253.102	-16.55
253.318	24.4
253.535	30.55
253.752	-34.99
253.968	38.74
254.185	34.64
254.401	-10.41
254.618	59.22
254.835	16.21
255.051	48.98
255.268	8.02
255.484	63.32
255.701	71.51
255.917	65.36
256.134	-26.79
256.351	38.74
256.567	14.17
256.784	32.6
257	40.79
257.217	75.6
257.433	46.93
257.65	63.32
257.866	34.64
258.082	8.02
258.299	14.17
258.515	18.26
258.732	59.22
258.948	10.07
259.165	-18.6
259.381	-63.66
259.597	22.36
259.814	-26.79
260.03	-16.55
260.246	-30.89
260.463	16.21
260.679	30.55
260.895	104.28
261.112	48.98
261.328	-32.94
261.544	-57.51
261.761	40.79
261.977	14.17
262.193	-22.7
262.409	42.84
262.626	-8.36
262.842	51.03
263.058	-41.13
263.274	38.74
263.49	69.46
263.707	-8.36
263.923	44.88
264.139	-14.51
264.355	-26.79
264.571	-43.18
264.787	63.32
265.004	98.13
265.22	-12.46
265.436	-39.08
265.652	-28.84
265.868	-0.17
266.084	-30.89
266.3	65.36
266.516	-28.84
266.732	42.84
266.948	18.26
267.164	55.12
267.38	1.88
267.596	32.6
267.812	10.07
268.028	14.17
268.244	-2.22
268.46	-59.56
268.676	22.36
268.892	5.97
269.108	18.26
269.324	-12.46
269.54	-43.18
269.756	22.36
269.972	5.97
270.188	18.26
270.403	-6.31
270.619	46.93
270.835	30.55
271.051	126.8
271.267	-92.33
271.483	3.93
271.698	30.55
271.914	-37.03
272.13	22.36
272.346	-28.84
272.562	71.51
272.777	55.12
272.993	69.46
273.209	-0.17
273.425	5.97
273.64	-26.79
273.856	-6.31
274.072	1.88
274.287	-12.46
274.503	46.93
274.719	-0.17
274.934	8.02
275.15	-8.36
275.366	22.36
275.581	34.64
275.797	-51.37
276.012	5.97
276.228	-51.37
276.444	-2.22
276.659	14.17
276.875	-59.56
277.09	5.97
277.306	16.21
277.521	10.07
277.737	-20.65
277.952	-0.17
278.168	38.74
278.383	34.64
278.599	3.93
278.814	22.36
279.03	-65.71
279.245	73.56
279.461	5.97
279.676	46.93
279.892	-26.79
280.107	20.31
280.322	44.88
280.538	18.26
280.753	5.97
280.969	8.02
281.184	-26.79
281.399	30.55
281.615	22.36
281.83	32.6
282.045	8.02
282.26	30.55
282.476	-57.51
282.691	3.93
282.906	79.7
283.122	5.97
283.337	3.93
283.552	-10.41
283.767	46.93
283.983	48.98
284.198	-26.79
284.413	67.41
284.628	-41.13
284.843	-18.6
285.058	30.55
285.274	85.84
285.489	24.4
285.704	30.55
285.919	-12.46
286.134	3.93
286.349	14.17
286.564	8.02
286.779	46.93
286.995	16.21
287.21	-18.6
287.425	71.51
287.64	34.64
287.855	71.51
288.07	87.89
288.285	-2.22
288.5	87.89
288.715	40.79
288.93	53.08
289.145	-18.6
289.36	-24.75
289.575	-57.51
289.79	69.46
290.004	-47.27
290.219	102.23
290.434	67.41
290.649	-16.55
290.864	26.45
291.079	-82.09
291.294	48.98
291.509	42.84
291.724	22.36
291.938	-8.36
292.153	24.4
292.368	18.26
292.583	-2.22
292.798	26.45
293.012	16.21
293.227	8.02
293.442	26.45
293.657	71.51
293.871	30.55
294.086	112.47
294.301	34.64
294.516	61.27
294.73	-24.75
294.945	10.07
295.16	-34.99
295.374	36.69
295.589	-24.75
295.804	5.97
296.018	48.98
296.233	94.04
296.447	-14.51
296.662	-28.84
296.877	55.12
297.091	48.98
297.306	22.36
297.52	-22.7
297.735	46.93
297.949	-41.13
298.164	12.12
298.378	55.12
298.593	-24.75
298.807	-51.37
299.022	42.84
299.236	22.36
299.451	1.88
299.665	-18.6
299.88	5.97
300.094	-28.84
300.309	-18.6
300.523	32.6
300.737	5.97
300.952	-41.13
301.166	34.64
301.381	10.07
301.595	-57.51
301.809	14.17
302.024	81.75
302.238	1.88
302.452	42.84
302.667	-10.41
302.881	16.21
303.095	30.55
303.309	-2.22
303.524	3.93
303.738	87.89
303.952	69.46
304.166	114.52
304.381	-8.36
304.595	10.07
304.809	-49.32
305.023	24.4
305.237	-47.27
305.452	-2.22
305.666	3.93
305.88	120.66
306.094	38.74
306.308	36.69
306.522	75.6
306.736	44.88
306.95	12.12
307.164	14.17
307.379	-2.22
307.593	38.74
307.807	-24.75
308.021	59.22
308.235	40.79
308.449	-14.51
308.663	-0.17
308.877	30.55
309.091	106.32
309.305	18.26
309.519	8.02
309.733	26.45
309.947	-59.56
310.161	63.32
310.374	34.64
310.588	40.79
310.802	-53.42
311.016	-59.56
311.23	14.17
311.444	-32.94
311.658	30.55
311.872	40.79
312.085	-24.75
312.299	63.32
312.513	34.64
312.727	53.08
312.941	-0.17
313.154	36.69
313.368	-55.47
313.582	71.51
313.796	-6.31
314.009	32.6
314.223	-10.41
314.437	-26.79
314.651	38.74
314.864	10.07
315.078	-45.23
315.292	-57.51
315.505	3.93
315.719	14.17
315.933	-6.31
316.146	-10.41
316.36	24.4
316.573	73.56
316.787	-2.22
317.001	-14.51
317.214	18.26
317.428	-24.75
317.641	20.31
317.855	8.02
318.068	20.31
318.282	-2.22
318.495	98.13
318.709	22.36
318.922	28.5
319.136	34.64
319.349	40.79
319.563	36.69
319.776	5.97
319.99	-39.08
320.203	-22.7
320.417	-30.89
320.63	83.8
320.843	14.17
321.057	46.93
321.27	71.51
321.483	30.55
321.697	-24.75
321.91	14.17
322.124	48.98
322.337	22.36
322.55	-2.22
322.763	24.4
322.977	-32.94
323.19	34.64
323.403	-10.41
323.617	51.03
323.83	-10.41
324.043	30.55
324.256	-43.18
324.469	-12.46
324.683	32.6
324.896	26.45
325.109	32.6
325.322	-10.41
325.535	3.93
325.748	40.79
325.962	-12.46
326.175	-20.65
326.388	8.02
326.601	20.31
326.814	-0.17
327.027	-57.51
327.24	55.12
327.453	-43.18
327.666	24.4
327.879	79.7
328.092	20.31
328.305	-10.41
328.518	-16.55
328.731	24.4
328.944	30.55
329.157	36.69
329.37	-8.36
329.583	71.51
329.796	32.6
330.009	-84.14
330.222	48.98
330.435	-2.22
330.648	61.27
330.861	-0.17
331.073	8.02
331.286	114.52
331.499	26.45
331.712	-39.08
331.925	18.26
332.138	20.31
332.35	-18.6
332.563	22.36
332.776	18.26
332.989	-2.22
333.202	63.32
333.414	-26.79
333.627	-10.41
333.84	-63.66
334.053	-14.51
334.265	100.18
334.478	14.17
334.691	-8.36
334.903	24.4
335.116	-24.75
335.329	-24.75
335.541	-39.08
335.754	57.17
335.966	-30.89
336.179	77.65
336.392	40.79
336.604	22.36
336.817	16.21
337.029	-55.47
337.242	57.17
337.454	-4.27
337.667	-2.22
337.88	53.08
338.092	-0.17
338.305	-10.41
338.517	1.88
338.729	38.74
338.942	55.12
339.154	3.93
339.367	1.88
339.579	34.64
339.792	38.74
340.004	34.64
340.217	48.98
340.429	-2.22
340.641	14.17
340.854	14.17
341.066	46.93
341.278	83.8
341.491	8.02
341.703	8.02
341.915	-18.6
342.128	57.17
342.34	42.84
342.552	-24.75
342.764	-24.75
342.977	51.03
343.189	1.88
343.401	42.84
343.613	-37.03
343.826	42.84
344.038	-18.6
344.25	-10.41
344.462	30.55
344.674	32.6
344.886	10.07
345.099	-2.22
345.311	30.55
345.523	24.4
345.735	30.55
345.947	-6.31
346.159	-18.6
346.371	-0.17
346.583	-47.27
346.795	57.17
347.007	14.17
347.219	34.64
347.431	46.93
347.643	40.79
347.855	-14.51
348.067	26.45
348.279	10.07
348.491	-37.03
348.703	10.07
348.915	-10.41
349.127	-0.17
349.339	59.22
349.551	-6.31
349.763	8.02
349.975	8.02
350.187	73.56
350.399	48.98
350.61	87.89
350.822	-43.18
351.034	5.97
351.246	59.22
351.458	85.84
351.669	24.4
351.881	137.04
352.093	8.02
352.305	24.4
352.517	44.88
352.728	5.97
352.94	-32.94
353.152	14.17
353.363	1.88
353.575	22.36
353.787	38.74
353.999	59.22
354.21	10.07
354.422	34.64
354.633	10.07
354.845	-75.95
355.057	-0.17
355.268	57.17
355.48	40.79
355.692	-43.18
355.903	26.45
356.115	44.88
356.326	-55.47
356.538	10.07
356.749	-2.22
356.961	85.84
357.172	22.36
357.384	-2.22
357.595	46.93
357.807	-47.27
358.018	51.03
358.23	91.99
358.441	81.75
358.653	79.7
358.864	24.4
359.075	-0.17
359.287	10.07
359.498	106.32
359.709	40.79
359.921	-57.51
360.132	67.41
360.344	-57.51
360.555	-43.18
360.766	65.36
360.977	55.12
361.189	30.55
361.4	1.88
361.611	14.17
361.823	18.26
362.034	65.36
362.245	-47.27
362.456	-0.17
362.667	-0.17
362.879	42.84
363.09	-47.27
363.301	-24.75
363.512	34.64
363.723	-16.55
363.935	12.12
364.146	26.45
364.357	48.98
364.568	71.51
364.779	-53.42
364.99	91.99
365.201	22.36
365.412	100.18
365.623	14.17
365.834	34.64
366.045	1.88
366.256	75.6
366.467	-22.7
366.678	-16.55
366.889	-18.6
367.1	-8.36
367.311	-51.37
367.522	14.17
367.733	-8.36
367.944	-43.18
368.155	-51.37
368.366	73.56
368.577	-10.41
368.788	75.6
368.999	1.88
369.209	40.79
369.42	38.74
369.631	108.37
369.842	57.17
370.053	63.32
370.264	55.12
370.474	-88.23
370.685	122.71
370.896	30.55
371.107	71.51
371.317	38.74
371.528	-16.55
371.739	87.89
371.95	1.88
372.16	57.17
372.371	-8.36
372.582	22.36
372.792	24.4
373.003	51.03
373.214	-14.51
373.424	42.84
373.635	5.97
373.846	5.97
374.056	8.02
374.267	-6.31
374.477	-4.27
374.688	46.93
374.898	53.08
375.109	22.36
375.319	-2.22
375.53	14.17
375.74	42.84
375.951	96.08
376.161	-12.46
376.372	79.7
376.582	10.07
376.793	30.55
377.003	-30.89
377.214	67.41
377.424	40.79
377.635	51.03
377.845	14.17
378.055	102.23
378.266	-10.41
378.476	26.45
378.686	-0.17
378.897	30.55
379.107	8.02
379.317	14.17
379.528	-34.99
379.738	71.51
379.948	8.02
380.158	26.45
380.369	40.79
380.579	5.97
380.789	-22.7
380.999	59.22
381.21	63.32
381.42	110.42
381.63	-34.99
381.84	46.93
382.05	18.26
382.261	122.71
382.471	34.64
382.681	-92.33
382.891	87.89
383.101	59.22
383.311	22.36
383.521	79.7
383.731	112.47
383.941	77.65
384.151	26.45
384.361	12.12
384.571	104.28
384.781	71.51
384.991	51.03
385.201	89.94
385.411	124.76
385.621	-10.41
385.831	55.12
386.041	51.03
386.251	75.6
386.461	81.75
386.671	-16.55
386.881	79.7
387.091	67.41
387.301	22.36
387.511	40.79
387.72	24.4
387.93	-73.9
388.14	16.21
388.35	18.26
388.56	65.36
388.769	63.32
388.979	75.6
389.189	69.46
389.399	3.93
389.609	38.74
389.818	112.47
390.028	22.36
390.238	36.69
390.447	40.79
390.657	55.12
390.867	34.64
391.076	14.17
391.286	18.26
391.496	34.64
391.705	-18.6
391.915	42.84
392.125	-0.17
392.334	26.45
392.544	28.5
392.753	55.12
392.963	79.7
393.172	40.79
393.382	1.88
393.591	98.13
393.801	40.79
394.01	65.36
394.22	63.32
394.429	24.4
394.639	20.31
394.848	102.23
395.058	63.32
395.267	-8.36
395.477	71.51
395.686	55.12
395.895	51.03
396.105	73.56
396.314	14.17
396.524	65.36
396.733	79.7
396.942	28.5
397.152	-16.55
397.361	51.03
397.57	67.41
397.78	96.08
397.989	51.03
398.198	71.51
398.407	46.93
398.617	8.02
398.826	22.36
399.035	18.26
399.244	30.55
399.453	22.36
399.663	51.03
399.872	55.12
400.081	65.36
400.29	22.36
400.499	57.17
400.708	124.76
400.917	5.97
401.127	22.36
401.336	55.12
401.545	89.94
401.754	75.6
401.963	71.51
402.172	87.89
402.381	71.51
402.59	38.74
402.799	55.12
403.008	51.03
403.217	75.6
403.426	87.89
403.635	-63.66
403.844	61.27
404.053	98.13
404.262	116.56
404.471	89.94
404.68	67.41
404.888	106.32
405.097	46.93
405.306	118.61
405.515	147.28
405.724	116.56
405.933	157.52
406.142	38.74
406.35	98.13
406.559	163.67
406.768	36.69
406.977	124.76
407.185	87.89
407.394	153.43
407.603	63.32
407.812	48.98
408.02	132.95
408.229	128.85
408.438	124.76
408.646	36.69
408.855	141.14
409.064	171.86
409.272	151.38
409.481	141.14
409.69	135
409.898	128.85
410.107	169.81
410.315	192.34
410.524	153.43
410.733	155.47
410.941	182.1
411.15	149.33
411.358	165.71
411.567	182.1
411.775	194.39
411.984	145.24
412.192	196.43
412.401	208.72
412.609	231.25
412.818	223.06
413.026	245.59
413.234	237.39
413.443	221.01
413.651	339.79
413.86	352.08
414.068	352.08
414.276	399.18
414.485	255.83
414.693	317.26
414.901	350.03
415.11	374.61
415.318	323.41
415.526	302.93
415.734	419.66
415.943	368.46
416.151	384.85
416.359	380.75
416.567	368.46
416.776	382.8
416.984	597.84
417.192	448.33
417.4	472.91
417.608	434
417.817	448.33
418.025	542.54
418.233	659.28
418.441	563.02
418.649	493.39
418.857	677.71
419.065	616.27
419.273	587.6
419.481	702.28
419.689	599.88
419.897	728.91
420.105	761.67
420.313	761.67
420.521	923.46
420.729	862.02
420.937	853.83
421.145	874.31
421.353	878.41
421.561	935.75
421.769	923.46
421.977	997.19
422.185	984.9
422.393	1079.11
422.601	1113.92
422.809	1152.84
423.017	1105.73
423.224	1242.95
423.432	1259.33
423.64	1201.99
423.848	1240.9
424.056	1251.14
424.263	1408.83
424.471	1412.93
424.679	1470.27
424.887	1472.32
425.094	1546.05
425.302	1582.91
425.51	1646.4
425.718	1734.46
425.925	1668.92
426.133	1693.5
426.341	1890.1
426.548	1838.91
426.756	2021.17
426.964	1828.67
427.171	2021.17
427.379	2111.29
427.586	2135.86
427.794	2185.01
428.001	2236.21
428.209	2410.29
428.417	2393.9
428.624	2463.54
428.832	2420.53
429.039	2514.73
429.247	2398
429.454	2811.69
429.662	2928.42
429.869	2774.83
430.076	3077.93
430.284	2803.5
430.491	2996.01
430.699	3249.96
430.906	3233.57
431.114	3270.44
431.321	3335.97
431.528	3254.05
431.736	3575.58
431.943	3669.79
432.15	3743.52
432.358	3548.96
432.565	3827.48
432.772	3768.09
432.979	4036.38
433.187	4038.42
433.394	4175.64
433.601	4413.2
433.808	4347.67
434.016	4495.12
434.223	4597.52
434.43	4945.67
434.637	4663.05
434.844	5062.41
435.052	5146.37
435.259	5146.37
435.466	5152.52
435.673	5150.47
435.88	5259.01
436.087	5809.92
436.294	5670.65
436.501	5588.74
436.708	5672.7
436.915	5920.51
437.122	6231.8
437.329	6229.75
437.537	6321.91
437.743	6403.83
437.95	6375.16
438.157	6657.78
438.364	7120.62
438.571	6977.26
438.778	6993.64
438.985	7567.07
439.192	7212.78
439.399	7632.61
439.606	7274.21
439.813	7720.67
440.02	8247
440.227	8218.33
440.433	7907.04
440.64	8437.46
440.847	8117.98
441.054	8412.88
441.261	9109.19
441.467	8869.58
441.674	9025.23
441.881	9316.04
442.088	9197.26
442.294	9246.41
442.501	9676.48
442.708	9856.7
442.914	10049.21
443.121	10669.75
443.328	10344.12
443.534	10987.18
443.741	10698.42
443.948	10516.15
444.154	11232.94
444.361	11261.61
444.568	11247.27
444.774	11376.3
444.981	11296.42
445.187	11738.79
445.394	12187.29
445.6	11861.66
445.807	13452.94
446.013	12506.77
446.22	12746.39
446.426	13244.04
446.633	13530.76
446.839	13768.32
447.046	13319.82
447.252	14032.51
447.459	14153.34
447.665	14208.64
447.871	14446.2
448.078	15160.94
448.284	14542.46
448.491	15021.68
448.697	15502.95
448.903	16062.05
449.11	15933.03
449.316	15752.8
449.522	15705.7
449.728	16248.41
449.935	16569.94
450.141	16367.2
450.347	17004.11
450.553	16260.7
450.76	16602.71
450.966	16924.24
451.172	17075.79
451.378	17299.02
451.584	17137.23
451.791	17366.6
451.997	17458.76
452.203	17749.57
452.409	17725
452.615	17690.18
452.821	17053.27
453.027	17008.21
453.233	17856.07
453.44	17368.65
453.646	17417.8
453.852	17327.69
454.058	17548.87
454.264	17006.16
454.47	17661.51
454.676	16948.82
454.882	17643.08
455.088	16397.92
455.294	16451.16
455.5	16879.19
455.705	16741.97
455.911	16209.5
456.117	15701.61
456.323	15826.53
456.529	14653.05
456.735	15490.66
456.941	15160.94
457.147	14972.53
457.352	14366.33
457.558	14186.11
457.764	14440.06
457.97	13909.63
458.176	13713.03
458.381	13745.8
458.587	13110.93
458.793	12932.75
458.999	12492.44
459.204	13450.89
459.41	13049.49
459.616	12154.52
459.821	12129.95
460.027	12017.31
460.233	11859.62
460.438	11081.39
460.644	11407.02
460.85	10845.87
461.055	10763.95
461.261	10634.93
461.466	9895.61
461.672	9572.04
461.878	10335.93
462.083	9602.75
462.289	9424.58
462.494	9455.3
462.7	9008.84
462.905	8660.69
463.111	9000.65
463.316	8928.97
463.522	8963.79
463.727	8754.9
463.932	8804.05
464.138	8683.22
464.343	8802
464.549	8564.43
464.754	8885.97
464.959	8732.37
465.165	8578.77
465.37	8410.84
465.575	8128.22
465.781	8369.88
465.986	8419.03
466.191	8156.89
466.397	7962.33
466.602	7685.86
466.807	7737.06
467.012	7927.52
467.218	7700.19
467.423	7618.27
467.628	7710.43
467.833	8017.63
468.038	7995.1
468.244	7587.55
468.449	7831.26
468.654	7536.35
468.859	7640.8
469.064	7366.37
469.269	7042.79
469.474	7415.52
469.679	7554.79
469.885	7214.82
470.09	7290.6
470.295	7085.8
470.5	7202.54
470.705	7093.99
470.91	6909.68
471.115	6928.11
471.32	7184.1
471.525	6960.88
471.73	6797.04
471.935	6821.61
472.139	6686.45
472.344	6610.67
472.549	6610.67
472.754	6614.77
472.959	6332.15
473.164	6256.37
473.369	6307.57
473.574	6270.71
473.778	6332.15
473.983	6239.99
474.188	6274.81
474.393	6031.1
474.598	6061.82
474.802	5990.14
475.007	5936.89
475.212	5955.32
475.417	5869.31
475.621	5660.41
475.826	5826.3
476.031	5641.98
476.235	5564.16
476.44	5691.13
476.645	5428.99
476.849	5412.61
477.054	5457.67
477.259	5351.17
477.463	5488.39
477.668	5306.12
477.872	5207.81
478.077	5082.89
478.282	4980.49
478.486	5121.8
478.691	5031.69
478.895	5037.83
479.1	5041.93
479.304	5138.18
479.509	4886.28
479.713	4982.54
479.918	4833.04
480.122	4736.78
480.326	4806.41
480.531	5005.06
480.735	4882.19
480.94	4618
481.144	4847.37
481.348	4681.49
481.553	4691.73
481.757	4618
481.961	4822.8
482.166	4732.69
482.37	4671.25
482.574	4511.5
482.778	4568.85
482.983	4790.03
483.187	4880.14
483.391	4714.25
483.595	4568.85
483.8	4636.43
484.004	4568.85
484.208	4529.94
484.412	4642.57
484.616	4632.33
484.821	4626.19
485.025	4572.94
485.229	4556.56
485.433	4595.47
485.637	4511.5
485.841	4556.56
486.045	4738.83
486.249	4638.48
486.453	4540.18
486.657	4667.15
486.861	4622.09
487.065	4462.35
487.269	4527.89
487.473	4661.01
487.677	4581.14
487.881	4658.96
488.085	4593.42
488.289	4724.49
488.493	4634.38
488.697	4478.74
488.901	4704.01
489.105	4546.32
489.309	4601.62
489.512	4658.96
489.716	4609.81
489.92	4699.92
490.124	4779.79
490.328	4771.6
490.531	4800.27
490.735	4867.85
490.939	4878.09
491.143	4826.89
491.346	4839.18
491.55	4822.8
491.754	4755.21
491.958	4855.56
492.161	4957.96
492.365	4796.17
492.569	4818.7
492.772	4863.76
492.976	5023.5
493.18	5017.35
493.383	4906.76
493.587	4921.1
493.79	5136.13
493.994	5019.4
494.197	5107.46
494.401	5306.12
494.605	5209.86
494.808	5205.77
495.012	5273.35
495.215	5326.6
495.419	5236.49
495.622	5265.16
495.825	5265.16
496.029	5363.46
496.232	5277.44
496.436	5299.97
496.639	5549.82
496.843	5482.24
497.046	5605.12
497.249	5760.77
497.453	5816.06
497.656	5807.87
497.859	5834.49
498.063	6037.24
498.266	6078.2
498.469	5951.23
498.673	6041.34
498.876	6166.26
499.079	6227.7
499.282	6194.93
499.485	6391.54
499.689	6274.81
499.892	6584.05
500.095	6678.26
500.298	6676.21
500.501	6528.75
500.705	6637.3
500.908	6817.52
501.111	7059.18
501.314	7098.09
501.517	6942.44
501.72	7288.55
501.923	7089.9
502.126	7401.19
502.329	7522.02
502.532	7419.62
502.735	7573.22
502.938	7550.69
503.141	7638.75
503.344	7661.28
503.547	7847.65
503.75	7818.97
503.953	8040.15
504.156	8095.45
504.359	8087.26
504.562	8226.52
504.765	8539.86
504.968	8388.31
505.17	8664.79
505.373	8773.33
505.576	8701.65
505.779	8771.28
505.982	9160.39
506.185	9160.39
506.387	8988.36
506.59	9262.79
506.793	9608.9
506.996	9559.75
507.198	9682.63
507.401	9569.99
507.604	9787.07
507.807	10059.45
508.009	9948.86
508.212	10155.71
508.415	10286.78
508.617	10323.64
508.82	10493.62
509.022	10481.33
509.225	10522.29
509.428	10739.38
509.63	10983.09
509.833	11036.33
510.035	11241.13
510.238	11155.12
510.44	11316.9
510.643	11507.37
510.845	11476.65
511.048	11404.97
511.25	11695.78
511.453	11869.86
511.655	12342.94
511.858	12416.66
512.06	12195.48
512.262	12213.91
512.465	12203.68
512.667	12678.8
512.87	12730
513.072	12893.84
513.274	13203.08
513.477	13069.97
513.679	13000.33
513.881	13604.49
514.084	13565.57
514.286	13600.39
514.488	13790.85
514.69	13969.02
514.893	14108.29
515.095	14358.14
515.297	14247.55
515.499	14333.56
515.701	14497.4
515.904	14759.54
516.106	14874.23
516.308	15103.6
516.51	15351.4
516.712	15464.04
516.914	15646.31
517.116	15707.75
517.318	15799.91
517.52	15900.26
517.722	16195.17
517.925	16281.18
518.127	16402.01
518.329	16467.55
518.531	16473.69
518.733	16713.3
518.935	16946.77
519.136	16694.87
519.338	17436.24
519.54	17491.53
519.742	17684.04
519.944	17532.49
520.146	18079.3
520.348	17997.38
520.55	18038.34
520.752	18218.56
520.954	18687.54
521.155	18435.64
521.357	18689.59
521.559	19062.32
521.761	19273.26
521.963	19148.34
522.164	19203.63
522.366	19215.92
522.568	19533.36
522.77	19777.06
522.971	20076.07
523.173	19813.93
523.375	20184.61
523.576	20348.45
523.778	20088.35
523.98	20569.63
524.181	20755.99
524.383	20704.79
524.584	20966.93
524.786	20653.59
524.988	20954.65
525.189	21468.69
525.391	21278.22
525.592	21542.41
525.794	21472.78
525.995	21671.43
526.197	21687.82
526.398	21886.47
526.6	21923.33
526.801	21917.19
527.003	21966.34
527.204	22117.89
527.406	22289.92
527.607	22400.51
527.808	22820.35
528.01	22216.19
528.211	22613.5
528.412	23047.67
528.614	22717.95
528.815	23076.34
529.016	22906.36
529.218	23098.87
529.419	23057.91
529.62	23285.23
529.822	23223.79
530.023	23045.62
530.224	23244.27
530.425	23055.86
530.626	23248.37
530.828	23410.16
531.029	23590.38
531.23	23459.31
531.431	23510.51
531.632	23868.91
531.833	23418.35
532.035	23748.07
532.236	23576.05
532.437	23977.45
532.638	23528.94
532.839	24014.31
533.04	24010.21
533.241	23547.37
533.442	24114.66
533.643	23934.44
533.844	23940.58
534.045	24192.48
534.246	23805.42
534.447	24049.13
534.648	23868.91
534.849	23897.58
535.05	24145.38
535.251	24241.64
535.451	24131.05
535.652	24229.35
535.853	24053.22
536.054	24120.81
536.255	23961.06
536.456	23963.11
536.657	24366.56
536.857	24163.81
537.058	23864.81
537.259	24378.85
537.46	24100.33
537.66	24079.85
537.861	24188.39
538.062	23895.53
538.263	24278.5
538.463	23997.93
538.664	24069.61
538.865	24294.88
539.065	24249.83
539.266	23844.33
539.466	24264.16
539.667	23821.8
539.868	24403.42
540.068	24348.13
540.269	24188.39
540.469	24444.38
540.67	23926.25
540.87	24348.13
541.071	24251.88
541.271	24042.98
541.472	23668.2
541.672	23918.06
541.873	24147.43
542.073	23809.51
542.274	24260.07
542.474	24212.96
542.675	23756.27
542.875	24143.33
543.075	23868.91
543.276	23997.93
543.476	24129
543.676	24292.83
543.877	24391.14
544.077	23854.57
544.277	24196.58
544.478	24137.19
544.678	23920.1
544.878	24049.13
545.078	23873
545.279	23782.89
545.479	24045.03
545.679	24208.87
545.879	23934.44
546.079	23944.68
546.28	24010.21
546.48	23791.08
546.68	23803.37
546.88	24149.48
547.08	23952.87
547.28	23981.54
547.48	23834.09
547.68	23801.32
547.88	23829.99
548.081	24098.28
548.281	24026.6
548.481	23856.62
548.681	24124.9
548.881	24178.15
549.081	23821.8
549.28	23750.12
549.48	24182.24
549.68	24120.81
549.88	24047.08
550.08	23760.36
550.28	24045.03
550.48	24083.94
550.68	24161.76
550.88	23928.3
551.08	23934.44
551.279	23995.88
551.479	23873
551.679	24163.81
551.879	23535.09
552.079	23916.01
552.278	23641.58
552.478	23784.94
552.678	23754.22
552.878	24061.41
553.077	23918.06
553.277	23805.42
553.477	23795.18
553.676	23971.3
553.876	23694.83
554.076	23737.84
554.275	23225.84
554.475	23524.85
554.674	23815.66
554.874	23852.52
555.074	23150.07
555.273	23936.49
555.473	23703.02
555.672	23647.72
555.872	23774.7
556.071	23651.82
556.271	23684.59
556.47	23412.21
556.67	23320.05
556.869	23309.81
557.068	23498.22
557.268	23221.75
557.467	23418.35
557.667	23459.31
557.866	23236.08
558.065	23096.82
558.265	23019
558.464	22996.47
558.663	23416.3
558.863	23066.1
559.062	23217.65
559.261	22711.8
559.461	23389.68
559.66	22959.61
559.859	23201.27
560.058	22863.35
560.258	22763
560.457	22765.05
560.656	22687.23
560.855	22574.59
561.054	22945.27
561.253	22670.84
561.453	22746.62
561.652	22719.99
561.851	22631.93
562.05	22580.73
562.249	22261.25
562.448	22543.87
562.647	22806.01
562.846	22267.39
563.045	22689.28
563.244	22154.76
563.443	22676.99
563.642	21816.84
563.841	22203.91
564.04	22212.1
564.239	21997.06
564.438	22044.16
564.637	22191.62
564.836	22095.36
565.035	21665.29
565.234	22085.12
565.432	21620.24
565.631	21552.65
565.83	21968.39
566.029	21601.8
566.228	21562.89
566.427	21712.39
566.625	21478.93
566.824	21218.83
567.023	21468.69
567.222	21022.23
567.42	21431.82
567.619	21009.94
567.818	21239.31
568.016	20925.97
568.215	21181.97
568.414	20827.67
568.612	21163.54
568.811	21057.04
569.01	20983.32
569.208	20682.27
569.407	20553.24
569.605	20459.04
569.804	20823.58
570.002	20418.08
570.201	20571.68
570.4	20282.91
570.598	20252.19
570.797	20385.31
570.995	20395.55
571.193	19963.43
571.392	20117.03
571.59	19813.93
571.789	19840.55
571.987	19795.5
572.186	19897.89
572.384	19750.44
572.582	19863.08
572.781	19887.65
572.979	19484.2
573.177	19582.51
573.376	19566.12
573.574	19514.92
573.772	19516.97
573.971	19584.55
574.169	19404.33
574.367	19152.43
574.565	19306.03
574.763	19134
574.962	18961.97
575.16	18808.37
575.358	19109.43
575.556	18716.22
575.754	19060.27
575.952	18646.58
576.151	18849.33
576.349	18519.61
576.547	18564.67
576.745	18761.27
576.943	18734.65
577.141	18679.35
577.339	18456.12
577.537	18239.04
577.735	18368.06
577.933	18353.73
578.131	18146.88
578.329	18011.71
578.527	17909.32
578.725	18200.13
578.923	18017.86
579.121	18017.86
579.319	17991.23
579.516	18009.67
579.714	17749.57
579.912	17790.53
580.11	17581.64
580.308	17569.35
580.506	17534.54
580.704	17233.49
580.901	17186.38
581.099	17851.97
581.297	17258.06
581.495	17286.73
581.692	17483.34
581.89	17354.32
582.088	17606.22
582.285	17184.34
582.483	17376.84
582.681	17057.36
582.878	16973.39
583.076	16918.1
583.274	17051.22
583.471	16635.48
583.669	16619.1
583.866	16524.89
584.064	16735.83
584.262	16625.24
584.459	16995.92
584.657	16445.02
584.854	16729.69
585.052	16182.88
585.249	16459.35
585.447	16426.59
585.644	16250.46
585.841	16475.74
586.039	16234.08
586.236	15998.56
586.434	16225.89
586.631	16057.95
586.828	16148.06
587.026	16184.93
587.223	15906.4
587.42	15840.87
587.618	15855.2
587.815	15750.76
588.012	15847.01
588.21	15529.58
588.407	15814.24
588.604	15550.06
588.801	15461.99
588.999	15521.38
589.196	15373.93
589.393	15242.86
589.59	15273.58
589.787	15423.08
589.984	15296.11
590.182	15011.44
590.379	15332.97
590.576	14943.86
590.773	15488.62
590.97	14982.77
591.167	15111.79
591.364	14995.06
591.561	15279.72
591.758	14970.48
591.955	14804.6
592.152	14931.57
592.349	14763.64
592.546	14730.87
592.743	14855.79
592.94	14374.52
593.137	14657.14
593.334	14618.23
593.531	14354.04
593.727	14472.82
593.924	14462.58
594.121	14261.88
594.318	14472.82
594.515	14288.51
594.712	14349.95
594.908	14038.66
595.105	14102.14
595.302	14245.5
595.499	14130.81
595.696	14036.61
595.892	13829.76
596.089	13983.36
596.286	13852.29
596.482	14022.27
596.679	13825.67
596.876	13819.52
597.072	13784.71
597.269	13694.6
597.466	13598.34
597.662	13512.33
597.859	13778.56
598.055	13569.67
598.252	13389.45
598.448	13448.84
598.645	13442.7
598.841	13203.08
599.038	13348.49
599.234	13260.43
599.431	13297.29
599.627	12961.42
599.824	13043.34
600.02	13078.16
600.217	13022.86
600.413	12922.51
600.609	13115.02
600.806	12846.74
601.002	13151.88
601.198	12902.03
601.395	12730
601.591	12742.29
601.787	12762.77
601.984	12646.04
602.18	12869.26
602.376	12656.28
602.572	12670.61
602.769	12646.04
602.965	12490.39
603.161	12664.47
603.357	12318.36
603.553	12433.05
603.75	12414.62
603.946	12316.31
604.142	12158.62
604.338	12162.72
604.534	12275.35
604.73	12275.35
604.926	12211.87
605.122	12232.35
605.318	11916.96
605.514	12064.41
605.71	12070.56
605.906	12072.61
606.102	11765.41
606.298	11814.56
606.494	11908.77
606.69	11884.19
606.886	11710.11
607.082	11671.2
607.278	11904.67
607.474	11458.21
607.67	11708.07
607.866	11355.82
608.062	11611.81
608.257	11554.47
608.453	11404.97
608.649	11527.85
608.845	11333.29
609.041	11503.27
609.236	11341.48
609.432	11527.85
609.628	11490.98
609.824	11247.27
610.019	11327.14
610.215	11337.38
610.411	11298.47
610.606	11351.72
610.802	11191.98
610.998	11159.21
611.193	11249.32
611.389	10966.7
611.584	11284.14
611.78	10997.42
611.976	11173.55
612.171	11052.72
612.367	11138.73
612.562	10837.68
612.758	10933.93
612.953	10663.6
613.149	10940.08
613.344	10837.68
613.539	11024.05
613.735	10825.39
613.93	10999.47
614.126	10819.25
614.321	10892.98
614.517	10895.02
614.712	10481.33
614.907	10647.22
615.103	10712.75
615.298	10542.77
615.493	10766
615.688	10475.19
615.884	10636.98
616.079	10403.51
616.274	10532.53
616.47	10458.81
616.665	10491.57
616.86	10337.98
617.055	10327.74
617.25	10534.58
617.445	10378.93
617.641	10235.58
617.836	10358.46
618.031	10182.33
618.226	10237.63
618.421	10337.98
618.616	10256.06
618.811	10061.5
619.006	10131.13
619.201	9754.3
619.396	10161.85
619.591	9940.67
619.786	9903.81
619.981	9961.15
620.176	9926.33
620.371	9854.65
620.566	9848.51
620.761	9717.44
620.956	9850.56
621.151	9615.04
621.346	9641.67
621.541	9316.04
621.735	9694.91
621.93	9365.19
622.125	9529.03
622.32	9238.22
622.515	9262.79
622.709	9332.42
622.904	9170.63
623.099	9197.26
623.294	9062.09
623.488	8908.49
623.683	9008.84
623.878	8842.96
624.072	9096.91
624.267	9000.65
624.462	8845.01
624.656	8562.39
624.851	8632.02
625.046	8664.79
625.24	8484.56
625.435	8595.15
625.629	8523.48
625.824	8459.99
626.018	8402.65
626.213	8527.57
626.407	8175.32
626.602	8160.98
626.796	8247
626.991	8509.14
627.185	8097.5
627.38	8265.43
627.574	8052.44
627.768	8050.39
627.963	8011.48
628.157	7902.94
628.352	7825.12
628.546	7700.19
628.74	7778.01
628.935	7763.68
629.129	7782.11
629.323	7413.48
629.517	7581.41
629.712	7632.61
629.906	7470.82
630.1	7370.47
630.294	7626.46
630.489	7601.89
630.683	7530.21
630.877	7290.6
631.071	7296.74
631.265	7313.13
631.459	7286.5
631.653	7087.85
631.848	7069.42
632.042	7055.08
632.236	7134.95
632.43	7116.52
632.624	7069.42
632.818	7003.88
633.012	6813.42
633.206	6846.19
633.4	6745.84
633.594	6774.51
633.788	6825.71
633.982	6774.51
634.176	6616.82
634.369	6643.44
634.563	6420.21
634.757	6625.01
634.951	6590.19
635.145	6643.44
635.339	6698.74
635.533	6477.55
635.726	6674.16
635.92	6426.36
636.114	6356.72
636.308	6407.92
636.501	6280.95
636.695	6354.68
636.889	6280.95
637.083	6278.9
637.276	6135.54
637.47	6231.8
637.664	6209.27
637.857	6027
638.051	5947.13
638.244	5926.65
638.438	6053.62
638.632	6043.39
638.825	5854.97
639.019	5785.34
639.212	5740.29
639.406	5936.89
639.599	5709.57
639.793	5646.08
639.986	5515.01
640.18	5803.77
640.373	5562.11
640.567	5543.68
640.76	5646.08
640.954	5639.94
641.147	5510.91
641.34	5428.99
641.534	5433.09
641.727	5547.78
641.92	5496.58
642.114	5385.99
642.307	5338.88
642.5	5302.02
642.694	5287.68
642.887	5324.55
643.08	5152.52
643.273	5142.28
643.467	5185.29
643.66	5117.7
643.853	5013.26
644.046	5099.27
644.239	4900.62
644.432	4849.42
644.626	4941.58
644.819	5107.46
645.012	4953.87
645.205	4947.72
645.398	4951.82
645.591	4871.95
645.784	4837.13
645.977	4755.21
646.17	4824.84
646.363	4695.82
646.556	4663.05
646.749	4554.51
646.942	4710.16
647.135	4513.55
647.328	4474.64
647.521	4452.11
647.714	4669.2
647.907	4577.04
648.099	4384.53
648.292	4450.07
648.485	4456.21
648.678	4314.9
648.871	4585.23
649.064	4355.86
649.256	4392.72
649.449	4302.61
649.642	4269.84
649.835	4294.42
650.027	4251.41
650.22	4259.6
650.413	4167.45
650.605	4185.88
650.798	4235.03
650.991	4224.79
651.183	4296.47
651.376	4103.96
651.568	4140.82
651.761	4060.95
651.954	3954.46
652.146	3958.55
652.339	4130.58
652.531	3933.98
652.724	4015.9
652.916	3946.27
653.109	3872.54
653.301	3866.39
653.494	3987.22
653.686	3774.24
653.879	3856.15
654.071	3807
654.263	3770.14
654.456	3741.47
654.648	3766.04
654.84	3780.38
655.033	3686.17
655.225	3727.13
655.417	3655.45
655.61	3684.13
655.802	3704.6
655.994	3579.68
656.186	3555.1
656.379	3649.31
656.571	3634.97
656.763	3553.06
656.955	3381.03
657.148	3426.08
657.34	3462.94
657.532	3372.83
657.724	3413.79
657.916	3481.38
658.108	3348.26
658.3	3358.5
658.492	3301.15
658.684	3317.54
658.876	3307.3
659.068	3288.87
659.26	3295.01
659.452	3274.53
659.644	3221.28
659.836	3235.62
660.028	3147.56
660.22	3196.71
660.412	3125.03
660.604	3176.23
660.796	3137.32
660.988	3221.28
661.18	3036.97
661.372	3188.52
661.563	3077.93
661.755	3069.73
661.947	3127.08
662.139	3192.61
662.331	3088.17
662.522	3143.46
662.714	2955.05
662.906	2815.79
663.097	2856.75
663.289	2955.05
663.481	2838.31
663.673	2983.72
663.864	2916.14
664.056	2877.23
664.247	2785.07
664.439	2914.09
664.631	2787.11
664.822	2791.21
665.014	2823.98
665.205	2719.53
665.397	2838.31
665.588	2703.15
665.78	2651.95
665.971	2701.1
666.163	2744.11
666.354	2823.98
666.546	2750.25
666.737	2547.5
666.929	2697
667.12	2598.7
667.311	2709.29
667.503	2596.65
667.694	2545.45
667.885	2625.33
668.077	2570.03
668.268	2590.51
668.459	2621.23
668.651	2467.63
668.842	2545.45
669.033	2570.03
669.224	2461.49
669.416	2533.17
669.607	2490.16
669.798	2481.97
669.989	2596.65
670.18	2492.21
670.371	2479.92
670.563	2299.7
670.754	2508.59
670.945	2529.07
671.136	2451.25
671.327	2213.68
671.518	2385.71
671.709	2357.04
671.9	2484.02
672.091	2479.92
672.282	2475.82
672.473	2320.18
672.664	2268.98
672.855	2311.99
673.046	2309.94
673.237	2332.47
673.428	2422.58
673.619	2268.98
673.809	2250.55
674	2299.7
674.191	2381.62
674.382	2178.87
674.573	2398
674.764	2211.64
674.954	2258.74
675.145	2271.03
675.336	2228.02
675.527	2301.75
675.717	2266.93
675.908	2250.55
676.099	2219.83
676.289	2268.98
676.48	2197.3
676.671	2242.36
676.861	2107.19
677.052	2164.53
677.243	2133.81
677.433	2217.78
677.624	2215.73
677.814	2096.95
678.005	2139.96
678.195	2131.76
678.386	2111.29
678.576	2053.94
678.767	2176.82
678.957	2090.81
679.148	2148.15
679.338	2131.76
679.529	2160.44
679.719	2123.57
679.909	2131.76
680.1	2078.52
680.29	2119.48
680.481	2080.57
680.671	2197.3
680.861	2078.52
681.052	2012.98
681.242	2047.8
681.432	2158.39
681.622	2064.18
681.813	2002.74
682.003	2064.18
682.193	1988.41
682.383	2062.13
682.573	1890.1
682.764	2070.33
682.954	2078.52
683.144	1996.6
683.334	2045.75
683.524	1941.3
683.714	1929.02
683.904	2004.79
684.094	2070.33
684.284	2037.56
684.474	1953.59
684.664	1969.98
684.854	2008.89
685.044	2004.79
685.234	1924.92
685.424	2019.13
685.614	1906.49
685.804	1947.45
685.994	1908.54
686.184	1976.12
686.374	1969.98
686.564	1969.98
686.753	1910.58
686.943	1908.54
687.133	1849.15
687.323	1873.72
687.513	1924.92
687.702	1922.87
687.892	1890.1
688.082	1974.07
688.272	1955.64
688.461	1787.71
688.651	1929.02
688.841	1849.15
689.03	1802.04
689.22	1873.72
689.41	1836.86
689.599	1830.71
689.789	1797.95
689.979	1812.28
690.168	1816.38
690.358	1865.53
690.547	1808.19
690.737	1865.53
690.926	1789.75
691.116	1718.08
691.305	1750.84
691.495	1687.36
691.684	1759.03
691.874	1756.99
692.063	1646.4
692.252	1765.18
692.442	1738.55
692.631	1754.94
692.82	1791.8
693.01	1744.7
693.199	1709.88
693.388	1685.31
693.578	1802.04
693.767	1793.85
693.956	1668.92
694.146	1718.08
694.335	1646.4
694.524	1613.63
694.713	1718.08
694.902	1701.69
695.092	1638.2
695.281	1597.24
695.47	1804.09
695.659	1611.58
695.848	1630.01
696.037	1681.21
696.226	1648.44
696.415	1648.44
696.604	1677.12
696.793	1709.88
696.982	1605.44
697.171	1734.46
697.36	1636.16
697.549	1537.85
697.738	1587.01
697.927	1572.67
698.116	1644.35
698.305	1736.51
698.494	1580.86
698.683	1630.01
698.872	1677.12
699.061	1599.29
699.25	1521.47
699.438	1615.68
699.627	1603.39
699.816	1675.07
700.005	1646.4
700.193	1546.05
700.382	1640.25
700.571	1623.87
700.76	1455.94
700.948	1613.63
701.137	1634.11
701.326	1570.62
701.514	1642.3
701.703	1642.3
701.892	1546.05
702.08	1644.35
702.269	1578.81
702.457	1640.25
702.646	1642.3
702.834	1709.88
703.023	1634.11
703.212	1582.91
703.4	1630.01
703.589	1664.83
703.777	1558.33
703.965	1597.24
704.154	1658.68
704.342	1619.77
704.531	1617.72
704.719	1601.34
704.907	1578.81
705.096	1562.43
705.284	1677.12
705.472	1632.06
705.661	1587.01
705.849	1627.96
706.037	1668.92
706.226	1679.16
706.414	1603.39
706.602	1605.44
706.79	1597.24
706.979	1578.81
707.167	1630.01
707.355	1634.11
707.543	1781.56
707.731	1632.06
707.919	1603.39
708.107	1691.45
708.296	1619.77
708.484	1621.82
708.672	1640.25
708.86	1701.69
709.048	1625.92
709.236	1529.66
709.424	1605.44
709.612	1699.64
709.8	1515.33
709.988	1705.79
710.176	1679.16
710.364	1763.13
710.551	1521.47
710.739	1548.09
710.927	1627.96
711.115	1660.73
711.303	1644.35
711.491	1587.01
711.679	1632.06
711.866	1539.9
712.054	1728.31
712.242	1605.44
712.43	1658.68
712.617	1578.81
712.805	1611.58
712.993	1664.83
713.181	1718.08
713.368	1574.72
713.556	1562.43
713.744	1685.31
713.931	1734.46
714.119	1720.12
714.306	1619.77
714.494	1668.92
714.682	1656.64
714.869	1642.3
715.057	1742.65
715.244	1533.76
715.432	1646.4
715.619	1599.29
715.807	1695.55
715.994	1607.48
716.182	1644.35
716.369	1660.73
716.556	1718.08
716.744	1627.96
716.931	1562.43
717.119	1683.26
717.306	1658.68
717.493	1728.31
717.681	1689.4
717.868	1679.16
718.055	1687.36
718.242	1611.58
718.43	1673.02
718.617	1756.99
718.804	1726.27
718.991	1726.27
719.179	1693.5
719.366	1664.83
719.553	1591.1
719.74	1648.44
719.927	1738.55
720.114	1720.12
720.301	1529.66
720.488	1623.87
720.676	1720.12
720.863	1593.15
721.05	1619.77
721.237	1652.54
721.424	1763.13
721.611	1611.58
721.798	1695.55
721.985	1535.81
722.172	1652.54
722.358	1709.88
722.545	1627.96
722.732	1617.72
722.919	1718.08
723.106	1656.64
723.293	1619.77
723.48	1652.54
723.667	1632.06
723.853	1554.24
724.04	1603.39
724.227	1677.12
724.414	1619.77
724.6	1636.16
724.787	1689.4
724.974	1718.08
725.161	1605.44
725.347	1580.86
725.534	1630.01
725.72	1632.06
725.907	1660.73
726.094	1662.78
726.28	1662.78
726.467	1693.5
726.653	1652.54
726.84	1644.35
727.027	1689.4
727.213	1646.4
727.4	1644.35
727.586	1654.59
727.773	1627.96
727.959	1611.58
728.145	1636.16
728.332	1619.77
728.518	1619.77
728.705	1627.96
728.891	1591.1
729.077	1701.69
729.264	1705.79
729.45	1644.35
729.636	1640.25
729.823	1726.27
730.009	1546.05
730.195	1677.12
730.382	1767.23
730.568	1619.77
730.754	1562.43
730.94	1632.06
731.126	1587.01
731.313	1597.24
731.499	1615.68
731.685	1591.1
731.871	1619.77
732.057	1662.78
732.243	1646.4
732.429	1681.21
732.615	1627.96
732.801	1652.54
732.987	1638.2
733.173	1537.85
733.359	1601.34
733.545	1677.12
733.731	1533.76
733.917	1664.83
734.103	1578.81
734.289	1718.08
734.475	1525.57
734.661	1603.39
734.847	1605.44
735.033	1640.25
735.219	1619.77
735.404	1574.72
735.59	1638.2
735.776	1570.62
735.962	1562.43
736.148	1570.62
736.333	1685.31
736.519	1486.65
736.705	1578.81
736.89	1513.28
737.076	1587.01
737.262	1611.58
737.447	1513.28
737.633	1615.68
737.819	1654.59
738.004	1548.09
738.19	1603.39
738.375	1537.85
738.561	1556.29
738.747	1544
738.932	1490.75
739.118	1580.86
739.303	1482.56
739.489	1480.51
739.674	1431.36
739.859	1496.89
740.045	1587.01
740.23	1521.47
740.416	1421.12
740.601	1480.51
740.786	1517.37
740.972	1500.99
741.157	1441.6
741.342	1488.7
741.528	1466.17
741.713	1455.94
741.898	1482.56
742.084	1484.61
742.269	1498.94
742.454	1449.79
742.639	1544
742.824	1398.59
743.01	1527.61
743.195	1431.36
743.38	1488.7
743.565	1433.41
743.75	1374.02
743.935	1425.22
744.12	1431.36
744.305	1374.02
744.49	1304.39
744.675	1382.21
744.86	1449.79
745.045	1443.65
745.23	1349.44
745.415	1322.82
745.6	1437.5
745.785	1310.53
745.97	1400.64
746.155	1417.02
746.34	1423.17
746.525	1279.81
746.71	1316.67
746.895	1283.91
747.079	1320.77
747.264	1308.48
747.449	1335.1
747.634	1308.48
747.819	1386.3
748.003	1236.8
748.188	1193.8
748.373	1283.91
748.557	1300.29
748.742	1308.48
748.927	1169.22
749.111	1142.6
749.296	1234.75
749.481	1226.56
749.665	1230.66
749.85	1201.99
750.034	1294.15
750.219	1222.47
750.404	1138.5
750.588	1165.12
750.773	1118.02
750.957	1136.45
751.141	1208.13
751.326	1097.54
751.51	1156.93
751.695	1138.5
751.879	1144.64
752.064	1077.06
752.248	1042.25
752.432	1062.73
752.617	1171.27
752.801	1087.3
752.985	1046.34
753.17	1050.44
753.354	1003.33
753.538	1105.73
753.722	933.7
753.907	1017.67
754.091	1011.53
754.275	1029.96
754.459	1087.3
754.643	1001.29
754.828	1052.49
755.012	989
755.196	894.79
755.38	952.13
755.564	995.14
755.748	935.75
755.932	939.85
756.116	966.47
756.3	874.31
756.484	827.21
756.668	878.41
756.852	939.85
757.036	943.94
757.22	868.17
757.404	841.54
757.588	929.61
757.772	874.31
757.956	827.21
758.14	933.7
758.323	882.5
758.507	833.35
758.691	890.7
758.875	733
759.059	972.61
759.242	859.98
759.426	773.96
759.61	837.45
759.794	845.64
759.977	853.83
760.161	849.74
760.345	821.06
760.528	827.21
760.712	898.89
760.895	833.35
761.079	878.41
761.263	753.48
761.446	763.72
761.63	751.43
761.813	825.16
761.997	743.24
762.18	737.1
762.364	751.43
762.547	726.86
762.731	784.2
762.914	773.96
763.098	716.62
763.281	620.36
763.464	767.82
763.648	776.01
763.831	743.24
764.015	718.67
764.198	769.87
764.381	689.99
764.564	733
764.748	776.01
764.931	679.75
765.114	689.99
765.297	749.39
765.481	646.99
765.664	683.85
765.847	702.28
766.03	710.47
766.213	687.95
766.397	702.28
766.58	659.28
766.763	710.47
766.946	681.8
767.129	755.53
767.312	603.98
767.495	733
767.678	620.36
767.861	706.38
768.044	655.18
768.227	593.74
768.41	649.04
768.593	622.41
768.776	712.52
768.959	739.15
769.142	608.08
769.324	624.46
769.507	679.75
769.69	589.64
769.873	583.5
770.056	745.29
770.239	671.56
770.421	608.08
770.604	636.75
770.787	669.52
770.97	628.56
771.152	661.32
771.335	685.9
771.518	638.8
771.7	655.18
771.883	628.56
772.066	560.97
772.248	636.75
772.431	644.94
772.613	597.84
772.796	661.32
772.978	634.7
773.161	534.35
773.343	569.16
773.526	538.45
773.708	565.07
773.891	579.4
774.073	585.55
774.256	477.01
774.438	534.35
774.621	614.22
774.803	565.07
774.985	493.39
775.168	606.03
775.35	538.45
775.532	583.5
775.715	565.07
775.897	481.1
776.079	554.83
776.261	554.83
776.444	497.49
776.626	493.39
776.808	567.12
776.99	483.15
777.173	505.68
777.355	524.11
777.537	517.97
777.719	548.68
777.901	538.45
778.083	464.72
778.265	442.19
778.447	526.16
778.629	421.71
778.811	413.52
778.993	493.39
779.175	399.18
779.357	542.54
779.539	390.99
779.721	390.99
779.903	444.24
780.085	401.23
780.267	452.43
780.449	423.76
780.631	423.76
780.812	431.95
780.994	450.38
781.176	452.43
781.358	360.27
781.54	407.38
781.721	390.99
781.903	350.03
782.085	366.42
782.267	395.09
782.448	452.43
782.63	374.61
782.812	401.23
782.993	390.99
783.175	411.47
783.357	292.69
783.538	399.18
783.72	347.98
783.901	300.88
784.083	403.28
784.264	407.38
784.446	399.18
784.627	290.64
784.809	268.11
784.99	364.37
785.172	425.81
785.353	352.08
785.535	345.94
785.716	300.88
785.897	313.17
786.079	448.33
786.26	345.94
786.441	337.74
786.623	317.26
786.804	294.74
786.985	350.03
787.167	370.51
787.348	266.07
787.529	292.69
787.71	386.9
787.891	309.07
788.073	278.35
788.254	239.44
788.435	364.37
788.616	272.21
788.797	309.07
788.978	319.31
789.159	280.4
789.34	319.31
789.522	278.35
789.703	300.88
789.884	255.83
790.065	337.74
790.246	294.74
790.427	243.54
790.607	231.25
790.788	292.69
790.969	227.15
791.15	280.4
791.331	221.01
791.512	210.77
791.693	221.01
791.874	278.35
792.054	276.31
792.235	335.7
792.416	167.76
792.597	221.01
792.778	204.63
792.958	284.5
793.139	161.62
793.32	300.88
793.5	153.43
793.681	276.31
793.862	194.39
794.042	180.05
794.223	218.96
794.404	198.48
794.584	229.2
794.765	194.39
794.945	194.39
795.126	182.1
795.306	192.34
795.487	218.96
795.667	130.9
795.848	194.39
796.028	210.77
796.209	221.01
796.389	196.43
796.57	202.58
796.75	137.04
796.93	196.43
797.111	155.47
797.291	153.43
797.471	268.11
797.652	178
797.832	171.86
798.012	237.39
798.192	186.19
798.373	151.38
798.553	155.47
798.733	190.29
798.913	216.91
799.093	204.63
799.274	268.11
799.454	200.53
799.634	280.4
799.814	223.06
799.994	175.95
800.174	198.48
800.354	118.61
800.534	218.96
800.714	153.43
800.894	87.89
801.074	145.24
801.254	186.19
801.434	147.28
801.614	165.71
801.794	149.33
801.974	702.28
802.154	126.8
802.334	317.26
802.514	108.37
802.693	112.47
802.873	188.24
803.053	161.62
803.233	94.04
803.413	163.67
803.592	223.06
803.772	194.39
803.952	188.24
804.131	202.58
804.311	186.19
804.491	120.66
804.67	96.08
804.85	130.9
805.03	132.95
805.209	171.86
805.389	141.14
805.568	153.43
805.748	157.52
805.928	106.32
806.107	89.94
806.287	106.32
806.466	118.61
806.646	182.1
806.825	153.43
807.004	100.18
807.184	188.24
807.363	89.94
807.543	91.99
807.722	161.62
807.901	151.38
808.081	143.19
808.26	161.62
808.439	63.32
808.619	178
808.798	132.95
808.977	81.75
809.156	65.36
809.336	137.04
809.515	106.32
809.694	63.32
809.873	108.37
810.052	128.85
810.231	128.85
810.411	165.71
810.59	169.81
810.769	128.85
810.948	169.81
811.127	137.04
811.306	157.52
811.485	132.95
811.664	114.52
811.843	137.04
812.022	63.32
812.201	106.32
812.38	141.14
812.559	53.08
812.737	118.61
812.916	116.56
813.095	46.93
813.274	161.62
813.453	98.13
813.632	210.77
813.811	141.14
813.989	139.09
814.168	79.7
814.347	96.08
814.526	51.03
814.704	106.32
814.883	153.43
815.062	87.89
815.24	108.37
815.419	67.41
815.598	106.32
815.776	34.64
815.955	57.17
816.133	24.4
816.312	63.32
816.49	38.74
816.669	26.45
816.847	180.05
817.026	110.42
817.204	106.32
817.383	124.76
817.561	36.69
817.74	106.32
817.918	108.37
818.097	104.28
818.275	22.36
818.453	102.23
818.632	104.28
818.81	65.36
818.988	55.12
819.167	65.36
819.345	130.9
819.523	-10.41
819.701	67.41
819.879	71.51
820.058	46.93
820.236	96.08
820.414	67.41
820.592	63.32
820.77	22.36
820.948	57.17
821.127	-0.17
821.305	145.24
821.483	63.32
821.661	87.89
821.839	145.24
822.017	26.45
822.195	55.12
822.373	102.23
822.551	16.21
822.729	91.99
822.907	128.85
823.085	51.03
823.262	73.56
823.44	91.99
823.618	32.6
823.796	38.74
823.974	87.89
824.152	-2.22
824.329	46.93
824.507	30.55
824.685	87.89
824.863	-8.36
825.04	46.93
825.218	91.99
825.396	32.6
825.574	1.88
825.751	120.66
825.929	106.32
826.107	16.21
826.284	122.71
826.462	167.76
826.639	137.04
826.817	79.7
826.994	57.17
827.172	10.07
827.349	182.1
827.527	51.03
827.704	63.32
827.882	51.03
828.059	57.17
828.237	34.64
828.414	24.4
828.591	-34.99
828.769	81.75
828.946	-4.27
829.124	57.17
829.301	24.4
829.478	40.79
829.655	73.56
829.833	67.41
830.01	-18.6
830.187	85.84
830.364	53.08
830.542	28.5
830.719	83.8
830.896	-10.41
831.073	75.6
831.25	30.55
831.427	10.07
831.604	55.12
831.782	20.31
831.959	122.71
832.136	42.84
832.313	46.93
832.49	63.32
832.667	48.98
832.844	87.89
833.021	59.22
833.198	10.07
833.374	40.79
833.551	63.32
833.728	-43.18
833.905	112.47
834.082	14.17
834.259	24.4
834.436	106.32
834.612	24.4
834.789	42.84
834.966	61.27
835.143	16.21
835.319	-43.18
835.496	71.51
835.673	89.94
835.85	98.13
836.026	59.22
836.203	69.46
836.38	-47.27
836.556	55.12
836.733	-8.36
836.909	71.51
837.086	24.4
837.262	-16.55
837.439	10.07
837.616	22.36
837.792	79.7
837.968	48.98
838.145	32.6
838.321	65.36
838.498	57.17
838.674	8.02
838.851	38.74
839.027	32.6
839.203	10.07
839.38	8.02
839.556	98.13
839.732	81.75
839.909	18.26
840.085	36.69
840.261	26.45
840.437	34.64
840.614	-51.37
840.79	108.37
840.966	14.17
841.142	48.98
841.318	18.26
841.494	46.93
841.671	63.32
841.847	63.32
842.023	-32.94
842.199	8.02
842.375	63.32
842.551	1.88
842.727	14.17
842.903	61.27
843.079	5.97
843.255	87.89
843.431	-2.22
843.607	16.21
843.783	-102.57
843.959	-0.17
844.134	-4.27
844.31	26.45
844.486	71.51
844.662	77.65
844.838	-80.04
845.013	-2.22
845.189	65.36
845.365	85.84
845.541	5.97
845.716	79.7
845.892	89.94
846.068	24.4
846.244	18.26
846.419	22.36
846.595	-47.27
846.77	-30.89
846.946	-22.7
847.122	10.07
847.297	8.02
847.473	116.56
847.648	-8.36
847.824	-14.51
847.999	51.03
848.175	46.93
848.35	63.32
848.526	26.45
848.701	57.17
848.876	38.74
849.052	8.02
849.227	-47.27
849.403	-2.22
849.578	-18.6
849.753	-2.22
849.929	12.12
850.104	-26.79
850.279	102.23
850.454	34.64
850.63	100.18
850.805	71.51
850.98	-39.08
851.155	8.02
851.33	69.46
851.505	-22.7
851.681	48.98
851.856	46.93
852.031	-26.79
852.206	-20.65
852.381	14.17
852.556	20.31
852.731	10.07
852.906	18.26
853.081	38.74
853.256	5.97
853.431	18.26
853.606	14.17
853.781	1.88
853.956	-32.94
854.131	24.4
854.305	-30.89
854.48	-10.41
854.655	-55.47
854.83	10.07
855.005	116.56
855.18	71.51
855.354	5.97
855.529	5.97
855.704	-20.65
855.879	81.75
856.053	85.84
856.228	14.17
856.403	-30.89
856.577	48.98
856.752	-32.94
856.926	116.56
857.101	57.17
857.276	1.88
857.45	44.88
857.625	34.64
857.799	-26.79
857.974	71.51
858.148	20.31
858.323	-6.31
858.497	38.74
858.672	55.12
858.846	-30.89
859.02	77.65
859.195	-43.18
859.369	46.93
859.543	-8.36
859.718	-2.22
859.892	14.17
860.066	30.55
860.241	-22.7
860.415	-2.22
860.589	-53.42
860.763	120.66
860.938	63.32
861.112	34.64
861.286	-10.41
861.46	-34.99
861.634	-6.31
861.808	61.27
861.982	-10.41
862.157	-32.94
862.331	71.51
862.505	-59.56
862.679	28.5
862.853	24.4
863.027	3.93
863.201	63.32
863.375	-24.75
863.549	73.56
863.722	-0.17
863.896	-43.18
864.07	22.36
864.244	-14.51
864.418	67.41
864.592	63.32
864.766	-49.32
864.939	-43.18
865.113	-30.89
865.287	53.08
865.461	-49.32
865.634	-10.41
865.808	22.36
865.982	-0.17
866.156	1.88
866.329	-8.36
866.503	59.22
866.676	-2.22
866.85	51.03
867.024	-39.08
867.197	65.36
867.371	96.08
867.544	26.45
867.718	96.08
867.891	-26.79
868.065	-10.41
868.238	-34.99
868.412	42.84
868.585	-24.75
868.759	-71.85
868.932	5.97
869.105	24.4
869.279	-32.94
869.452	18.26
869.625	-47.27
869.799	16.21
869.972	38.74
870.145	18.26
870.319	102.23
870.492	-43.18
870.665	-10.41
870.838	-39.08
871.011	-47.27
871.185	-49.32
871.358	-59.56
871.531	-12.46
871.704	-18.6
871.877	79.7
872.05	-16.55
872.223	14.17
872.396	40.79
872.569	-18.6
872.742	-2.22
872.915	-43.18
873.088	24.4
873.261	28.5
873.434	-16.55
873.607	38.74
873.78	63.32
873.953	-65.71
874.126	-30.89
874.299	24.4
874.471	34.64
874.644	-26.79
874.817	8.02
874.99	5.97
875.163	-22.7
875.335	24.4
875.508	-6.31
875.681	-0.17
875.853	-10.41
876.026	26.45
876.199	14.17
876.371	-59.56
876.544	-8.36
876.717	16.21
876.889	10.07
877.062	-16.55
877.234	-30.89
877.407	-67.75
877.579	-63.66
877.752	-20.65
877.924	-47.27
878.097	-43.18
878.269	5.97
878.442	-108.71
878.614	38.74
878.786	-14.51
878.959	1.88
879.131	5.97
879.303	-69.8
879.476	32.6
879.648	-43.18
879.82	20.31
879.993	-59.56
880.165	-24.75
880.337	-6.31
880.509	-4.27
880.681	-6.31
880.854	14.17
881.026	-37.03
881.198	51.03
881.37	-26.79
881.542	-18.6
881.714	26.45
881.886	-2.22
882.058	14.17
882.23	73.56
882.402	3.93
882.574	-18.6
882.746	42.84
882.918	20.31
883.09	-14.51
883.262	-22.7
883.434	-32.94
883.606	-32.94
883.778	16.21
883.95	57.17
884.122	40.79
884.293	-41.13
884.465	20.31
884.637	67.41
884.809	14.17
884.98	55.12
885.152	-16.55
885.324	-2.22
885.496	-2.22
885.667	-16.55
885.839	1.88
886.011	85.84
886.182	14.17
886.354	61.27
886.525	14.17
886.697	-8.36
886.869	-43.18
887.04	30.55
887.212	14.17
887.383	63.32
887.555	-12.46
887.726	79.7
887.897	-0.17
888.069	-16.55
888.24	71.51
888.412	28.5
888.583	-16.55
888.754	42.84
888.926	14.17
889.097	42.84
889.268	-43.18
889.44	3.93
889.611	-57.51
889.782	-51.37
889.953	8.02
890.125	24.4
890.296	-75.95
890.467	22.36
890.638	-0.17
890.809	-2.22
890.98	-57.51
891.151	8.02
891.323	73.56
891.494	-10.41
891.665	-32.94
891.836	-8.36
892.007	-26.79
892.178	-32.94
892.349	40.79
892.52	-39.08
892.691	-41.13
892.862	38.74
893.032	-32.94
893.203	14.17
893.374	-8.36
893.545	34.64
893.716	-26.79
893.887	-28.84
894.057	-55.47
894.228	10.07
894.399	-14.51
894.57	-30.89
894.74	-51.37
894.911	-18.6
895.082	-10.41
895.253	-28.84
895.423	-0.17
895.594	-20.65
895.764	26.45
895.935	-67.75
896.106	36.69
896.276	-10.41
896.447	-22.7
896.617	-6.31
896.788	-34.99
896.958	-34.99
897.129	22.36
897.299	57.17
897.47	-16.55
897.64	26.45
897.81	-75.95
897.981	-43.18
898.151	5.97
898.322	48.98
898.492	-57.51
898.662	1.88
898.832	1.88
899.003	-2.22
899.173	30.55
899.343	-59.56
899.513	22.36
