Data from USB4F104151__73__14-43-22-457.txt Node

Date: Thu Mar 13 14:43:22 EDT 2025
User: louis
Spectrometer: USB4F10415
Trigger mode: 4
Integration Time (sec): 2.000000E-2
Scans to average: 1
Electric dark correction enabled: true
Nonlinearity correction enabled: false
Boxcar width: 0
XAxis mode: Wavelengths
Number of Pixels in Spectrum: 3648
>>>>>Begin Spectral Data<<<<<
178.204	-174.42
178.424	-174.42
178.644	-174.42
178.864	-108.88
179.084	-158.03
179.304	5.8
179.524	13.99
179.744	-41.3
179.964	91.82
180.184	26.28
180.404	-29.01
180.624	-74.07
180.844	-31.06
181.064	30.38
181.283	18.09
181.503	-16.73
181.723	5.8
181.943	-10.58
182.163	13.99
182.383	9.9
182.602	-2.39
182.822	54.95
183.042	18.09
183.262	-35.16
183.482	5.8
183.701	-16.73
183.921	-26.96
184.141	5.8
184.361	77.48
184.58	22.19
184.8	-39.25
185.02	-55.64
185.239	34.47
185.459	24.23
185.679	32.43
185.898	-35.16
186.118	1.71
186.338	-84.31
186.557	67.24
186.777	30.38
186.997	-33.11
187.216	-72.02
187.436	91.82
187.655	7.85
187.875	-24.92
188.095	-22.87
188.314	-10.58
188.534	1.71
188.753	-10.58
188.973	22.19
189.192	57
189.412	61.1
189.631	-4.44
189.851	42.67
190.07	52.91
190.29	-51.54
190.509	-82.26
190.729	-108.88
190.948	-35.16
191.168	108.2
191.387	26.28
191.607	-67.92
191.826	79.53
192.045	-33.11
192.265	38.57
192.484	-76.12
192.704	13.99
192.923	-6.49
193.142	32.43
193.362	-26.96
193.581	30.38
193.8	-22.87
194.02	44.71
194.239	-18.77
194.458	36.52
194.678	1.71
194.897	-10.58
195.116	-20.82
195.335	1.71
195.555	-43.35
195.774	36.52
195.993	46.76
196.212	-8.53
196.432	-26.96
196.651	1.71
196.87	28.33
197.089	-6.49
197.308	16.04
197.528	18.09
197.747	-72.02
197.966	-45.4
198.185	59.05
198.404	-26.96
198.623	-0.34
198.842	-10.58
199.062	-2.39
199.281	59.05
199.5	-2.39
199.719	-39.25
199.938	-31.06
200.157	7.85
200.376	79.53
200.595	42.67
200.814	32.43
201.033	13.99
201.252	38.57
201.471	5.8
201.69	11.95
201.909	54.95
202.128	13.99
202.347	-67.92
202.566	16.04
202.785	-88.4
203.004	-24.92
203.223	75.43
203.442	22.19
203.661	-43.35
203.879	-63.83
204.098	38.57
204.317	-2.39
204.536	-16.73
204.755	-10.58
204.974	18.09
205.193	-43.35
205.411	145.06
205.63	-0.34
205.849	-12.63
206.068	-33.11
206.287	-61.78
206.505	-12.63
206.724	-55.64
206.943	13.99
207.162	75.43
207.381	38.57
207.599	16.04
207.818	52.91
208.037	-0.34
208.255	57
208.474	5.8
208.693	32.43
208.911	-82.26
209.13	-0.34
209.349	-55.64
209.567	20.14
209.786	13.99
210.005	-16.73
210.223	-10.58
210.442	3.75
210.661	42.67
210.879	-2.39
211.098	-14.68
211.316	93.87
211.535	83.63
211.753	-6.49
211.972	-59.73
212.191	28.33
212.409	-10.58
212.628	1.71
212.846	38.57
213.065	38.57
213.283	48.81
213.502	46.76
213.72	1.71
213.938	13.99
214.157	-2.39
214.375	42.67
214.594	-14.68
214.812	7.85
215.031	1.71
215.249	-0.34
215.467	16.04
215.686	9.9
215.904	38.57
216.122	-26.96
216.341	-6.49
216.559	-18.77
216.778	22.19
216.996	30.38
217.214	24.23
217.432	38.57
217.651	-20.82
217.869	1.71
218.087	-8.53
218.306	-18.77
218.524	26.28
218.742	-16.73
218.96	50.86
219.179	-80.21
219.397	-43.35
219.615	48.81
219.833	30.38
220.051	-29.01
220.27	-100.69
220.488	26.28
220.706	11.95
220.924	34.47
221.142	-41.3
221.36	-2.39
221.578	16.04
221.796	-6.49
222.015	50.86
222.233	11.95
222.451	50.86
222.669	-31.06
222.887	18.09
223.105	-31.06
223.323	-14.68
223.541	-61.78
223.759	71.34
223.977	-57.68
224.195	95.91
224.413	9.9
224.631	-2.39
224.849	59.05
225.067	-2.39
225.285	-33.11
225.503	30.38
225.721	-26.96
225.939	36.52
226.157	-14.68
226.375	46.76
226.592	-10.58
226.81	3.75
227.028	38.57
227.246	22.19
227.464	-67.92
227.682	71.34
227.9	-16.73
228.117	48.81
228.335	28.33
228.553	-47.44
228.771	-8.53
228.989	22.19
229.206	-35.16
229.424	-22.87
229.642	7.85
229.86	-8.53
230.077	46.76
230.295	26.28
230.513	-10.58
230.731	44.71
230.948	-39.25
231.166	130.73
231.384	-59.73
231.601	-26.96
231.819	7.85
232.037	-8.53
232.254	-6.49
232.472	71.34
232.689	13.99
232.907	11.95
233.125	24.23
233.342	3.75
233.56	-69.97
233.777	-24.92
233.995	16.04
234.213	-41.3
234.43	-63.83
234.648	-33.11
234.865	-33.11
235.083	46.76
235.3	42.67
235.518	7.85
235.735	73.39
235.953	22.19
236.17	-43.35
236.388	65.19
236.605	28.33
236.822	75.43
237.04	-12.63
237.257	36.52
237.475	20.14
237.692	-41.3
237.909	79.53
238.127	-129.36
238.344	-14.68
238.562	71.34
238.779	-8.53
238.996	-49.49
239.214	32.43
239.431	-14.68
239.648	-4.44
239.865	-39.25
240.083	-6.49
240.3	97.96
240.517	16.04
240.735	38.57
240.952	22.19
241.169	-6.49
241.386	-10.58
241.603	-14.68
241.821	32.43
242.038	-14.68
242.255	57
242.472	-49.49
242.689	38.57
242.907	22.19
243.124	63.15
243.341	-35.16
243.558	-24.92
243.775	5.8
243.992	-26.96
244.209	30.38
244.426	-10.58
244.643	106.15
244.86	38.57
245.078	46.76
245.295	-35.16
245.512	48.81
245.729	-80.21
245.946	1.71
246.163	13.99
246.38	-16.73
246.597	-35.16
246.814	54.95
247.031	32.43
247.248	5.8
247.464	16.04
247.681	22.19
247.898	-10.58
248.115	13.99
248.332	-39.25
248.549	83.63
248.766	3.75
248.983	100.01
249.2	-65.88
249.417	38.57
249.633	16.04
249.85	50.86
250.067	26.28
250.284	5.8
250.501	-10.58
250.717	44.71
250.934	-35.16
251.151	7.85
251.368	5.8
251.585	65.19
251.801	-8.53
252.018	-20.82
252.235	-2.39
252.451	-14.68
252.668	-74.07
252.885	63.15
253.102	-26.96
253.318	42.67
253.535	38.57
253.752	30.38
253.968	34.47
254.185	-22.87
254.401	1.71
254.618	-0.34
254.835	71.34
255.051	13.99
255.268	30.38
255.484	-43.35
255.701	-26.96
255.917	-41.3
256.134	-22.87
256.351	22.19
256.567	-59.73
256.784	30.38
257	-72.02
257.217	-47.44
257.433	40.62
257.65	73.39
257.866	9.9
258.082	-61.78
258.299	24.23
258.515	-6.49
258.732	-106.84
258.948	-14.68
259.165	16.04
259.381	-4.44
259.597	38.57
259.814	-8.53
260.03	-12.63
260.246	-18.77
260.463	-76.12
260.679	63.15
260.895	-29.01
261.112	-47.44
261.328	-41.3
261.544	-59.73
261.761	36.52
261.977	30.38
262.193	-18.77
262.409	-35.16
262.626	-12.63
262.842	-49.49
263.058	-41.3
263.274	-51.54
263.49	42.67
263.707	57
263.923	40.62
264.139	63.15
264.355	-4.44
264.571	22.19
264.787	28.33
265.004	1.71
265.22	-45.4
265.436	-18.77
265.652	-12.63
265.868	-10.58
266.084	-67.92
266.3	-26.96
266.516	-41.3
266.732	-39.25
266.948	-26.96
267.164	-24.92
267.38	16.04
267.596	38.57
267.812	22.19
268.028	7.85
268.244	-10.58
268.46	38.57
268.676	-14.68
268.892	-10.58
269.108	32.43
269.324	9.9
269.54	-16.73
269.756	22.19
269.972	-33.11
270.188	-35.16
270.403	-12.63
270.619	-20.82
270.835	42.67
271.051	1.71
271.267	-37.2
271.483	16.04
271.698	26.28
271.914	30.38
272.13	9.9
272.346	11.95
272.562	81.58
272.777	38.57
272.993	-35.16
273.209	11.95
273.425	46.76
273.64	-90.45
273.856	-10.58
274.072	11.95
274.287	-74.07
274.503	100.01
274.719	54.95
274.934	30.38
275.15	-94.55
275.366	-47.44
275.581	-4.44
275.797	13.99
276.012	-10.58
276.228	-10.58
276.444	-16.73
276.659	-29.01
276.875	-18.77
277.09	40.62
277.306	-0.34
277.521	-31.06
277.737	-18.77
277.952	-10.58
278.168	38.57
278.383	89.77
278.599	38.57
278.814	-18.77
279.03	-14.68
279.245	106.15
279.461	-6.49
279.676	5.8
279.892	-0.34
280.107	-65.88
280.322	3.75
280.538	75.43
280.753	71.34
280.969	24.23
281.184	-18.77
281.399	69.29
281.615	34.47
281.83	30.38
282.045	-39.25
282.26	28.33
282.476	-10.58
282.691	63.15
282.906	44.71
283.122	38.57
283.337	-26.96
283.552	-35.16
283.767	-37.2
283.983	57
284.198	-12.63
284.413	22.19
284.628	-51.54
284.843	-2.39
285.058	13.99
285.274	-67.92
285.489	-26.96
285.704	-16.73
285.919	9.9
286.134	-53.59
286.349	-51.54
286.564	13.99
286.779	79.53
286.995	48.81
287.21	-31.06
287.425	7.85
287.64	-2.39
287.855	16.04
288.07	-2.39
288.285	79.53
288.5	22.19
288.715	22.19
288.93	87.72
289.145	13.99
289.36	-35.16
289.575	-47.44
289.79	5.8
290.004	13.99
290.219	-24.92
290.434	13.99
290.649	-86.36
290.864	-26.96
291.079	20.14
291.294	79.53
291.509	-4.44
291.724	-121.17
291.938	-2.39
292.153	57
292.368	42.67
292.583	32.43
292.798	112.3
293.012	-2.39
293.227	-6.49
293.442	38.57
293.657	1.71
293.871	65.19
294.086	-84.31
294.301	77.48
294.516	57
294.73	-24.92
294.945	5.8
295.16	5.8
295.374	30.38
295.589	-8.53
295.804	28.33
296.018	-2.39
296.233	59.05
296.447	13.99
296.662	-37.2
296.877	89.77
297.091	3.75
297.306	73.39
297.52	20.14
297.735	-47.44
297.949	13.99
298.164	30.38
298.378	-22.87
298.593	-22.87
298.807	32.43
299.022	-18.77
299.236	-10.58
299.451	22.19
299.665	93.87
299.88	-24.92
300.094	9.9
300.309	-6.49
300.523	-59.73
300.737	-6.49
300.952	34.47
301.166	32.43
301.381	13.99
301.595	24.23
301.809	38.57
302.024	-0.34
302.238	-47.44
302.452	67.24
302.667	-59.73
302.881	20.14
303.095	-35.16
303.309	16.04
303.524	46.76
303.738	1.71
303.952	-39.25
304.166	-82.26
304.381	-35.16
304.595	71.34
304.809	16.04
305.023	-18.77
305.237	26.28
305.452	-33.11
305.666	-12.63
305.88	11.95
306.094	22.19
306.308	11.95
306.522	-4.44
306.736	-18.77
306.95	83.63
307.164	-26.96
307.379	-8.53
307.593	85.67
307.807	38.57
308.021	97.96
308.235	-18.77
308.449	-65.88
308.663	22.19
308.877	48.81
309.091	9.9
309.305	38.57
309.519	18.09
309.733	63.15
309.947	-35.16
310.161	40.62
310.374	32.43
310.588	89.77
310.802	-76.12
311.016	-65.88
311.23	7.85
311.444	-45.4
311.658	7.85
311.872	57
312.085	-24.92
312.299	30.38
312.513	-31.06
312.727	3.75
312.941	-0.34
313.154	13.99
313.368	32.43
313.582	26.28
313.796	97.96
314.009	44.71
314.223	-6.49
314.437	-31.06
314.651	3.75
314.864	22.19
315.078	9.9
315.292	-8.53
315.505	-39.25
315.719	65.19
315.933	40.62
316.146	-31.06
316.36	-55.64
316.573	9.9
316.787	42.67
317.001	46.76
317.214	-76.12
317.428	46.76
317.641	-39.25
317.855	-2.39
318.068	50.86
318.282	-2.39
318.495	-8.53
318.709	95.91
318.922	5.8
319.136	91.82
319.349	67.24
319.563	34.47
319.776	-14.68
319.99	-65.88
320.203	-20.82
320.417	-43.35
320.63	-31.06
320.843	18.09
321.057	-16.73
321.27	-12.63
321.483	5.8
321.697	40.62
321.91	-0.34
322.124	7.85
322.337	-8.53
322.55	-14.68
322.763	-41.3
322.977	13.99
323.19	-26.96
323.403	-6.49
323.617	63.15
323.83	57
324.043	-20.82
324.256	83.63
324.469	-8.53
324.683	-10.58
324.896	-6.49
325.109	-12.63
325.322	-26.96
325.535	20.14
325.748	-6.49
325.962	-37.2
326.175	7.85
326.388	-2.39
326.601	65.19
326.814	42.67
327.027	-29.01
327.24	73.39
327.453	-76.12
327.666	26.28
327.879	5.8
328.092	34.47
328.305	-43.35
328.518	-16.73
328.731	7.85
328.944	63.15
329.157	22.19
329.37	18.09
329.583	-0.34
329.796	87.72
330.009	-43.35
330.222	93.87
330.435	13.99
330.648	59.05
330.861	26.28
331.073	-49.49
331.286	59.05
331.499	48.81
331.712	-41.3
331.925	-26.96
332.138	-24.92
332.35	93.87
332.563	5.8
332.776	22.19
332.989	-18.77
333.202	-2.39
333.414	9.9
333.627	-0.34
333.84	71.34
334.053	24.23
334.265	-2.39
334.478	-49.49
334.691	-43.35
334.903	-6.49
335.116	-10.58
335.329	-35.16
335.541	110.25
335.754	48.81
335.966	-31.06
336.179	-35.16
336.392	-104.79
336.604	5.8
336.817	95.91
337.029	-22.87
337.242	18.09
337.454	-39.25
337.667	-12.63
337.88	24.23
338.092	1.71
338.305	48.81
338.517	-55.64
338.729	18.09
338.942	-14.68
339.154	-31.06
339.367	1.71
339.579	-31.06
339.792	-67.92
340.004	38.57
340.217	40.62
340.429	38.57
340.641	-2.39
340.854	-55.64
341.066	-41.3
341.278	46.76
341.491	71.34
341.703	-51.54
341.915	-26.96
342.128	38.57
342.34	1.71
342.552	9.9
342.764	-22.87
342.977	-10.58
343.189	-12.63
343.401	18.09
343.613	-2.39
343.826	73.39
344.038	-33.11
344.25	11.95
344.462	-14.68
344.674	54.95
344.886	-26.96
345.099	-12.63
345.311	5.8
345.523	22.19
345.735	-26.96
345.947	67.24
346.159	7.85
346.371	22.19
346.583	38.57
346.795	106.15
347.007	-10.58
347.219	52.91
347.431	-37.2
347.643	36.52
347.855	-74.07
348.067	16.04
348.279	-88.4
348.491	3.75
348.703	30.38
348.915	-43.35
349.127	-65.88
349.339	-10.58
349.551	-8.53
349.763	-31.06
349.975	13.99
350.187	26.28
350.399	-35.16
350.61	-2.39
350.822	7.85
351.034	26.28
351.246	-8.53
351.458	54.95
351.669	63.15
351.881	-10.58
352.093	26.28
352.305	32.43
352.517	22.19
352.728	89.77
352.94	-0.34
353.152	13.99
353.363	-41.3
353.575	-16.73
353.787	46.76
353.999	22.19
354.21	-6.49
354.422	-10.58
354.633	-59.73
354.845	63.15
355.057	-104.79
355.268	48.81
355.48	-0.34
355.692	-72.02
355.903	9.9
356.115	-74.07
356.326	-67.92
356.538	30.38
356.749	22.19
356.961	91.82
357.172	1.71
357.384	-129.36
357.595	46.76
357.807	-67.92
358.018	22.19
358.23	-2.39
358.441	9.9
358.653	89.77
358.864	-10.58
359.075	-49.49
359.287	9.9
359.498	-0.34
359.709	30.38
359.921	38.57
360.132	9.9
360.344	24.23
360.555	22.19
360.766	57
360.977	32.43
361.189	22.19
361.4	-16.73
361.611	48.81
361.823	89.77
362.034	97.96
362.245	85.67
362.456	54.95
362.667	13.99
362.879	1.71
363.09	-20.82
363.301	-10.58
363.512	30.38
363.723	-14.68
363.935	9.9
364.146	-24.92
364.357	-20.82
364.568	7.85
364.779	-41.3
364.99	63.15
365.201	-35.16
365.412	71.34
365.623	-10.58
365.834	-2.39
366.045	46.76
366.256	-16.73
366.467	40.62
366.678	7.85
366.889	-43.35
367.1	46.76
367.311	5.8
367.522	38.57
367.733	-18.77
367.944	-0.34
368.155	-33.11
368.366	26.28
368.577	3.75
368.788	81.58
368.999	-26.96
369.209	28.33
369.42	116.39
369.631	87.72
369.842	-18.77
370.053	36.52
370.264	18.09
370.474	-53.59
370.685	18.09
370.896	13.99
371.107	69.29
371.317	85.67
371.528	-20.82
371.739	65.19
371.95	-43.35
372.16	30.38
372.371	-0.34
372.582	22.19
372.792	40.62
373.003	46.76
373.214	-43.35
373.424	-16.73
373.635	-24.92
373.846	-24.92
374.056	118.44
374.267	22.19
374.477	18.09
374.688	-4.44
374.898	-35.16
375.109	40.62
375.319	30.38
375.53	16.04
375.74	24.23
375.951	-2.39
376.161	7.85
376.372	-26.96
376.582	83.63
376.793	95.91
377.003	-24.92
377.214	-6.49
377.424	-10.58
377.635	7.85
377.845	13.99
378.055	81.58
378.266	-10.58
378.476	13.99
378.686	-55.64
378.897	46.76
379.107	-65.88
379.317	-10.58
379.528	30.38
379.738	48.81
379.948	7.85
380.158	71.34
380.369	42.67
380.579	-37.2
380.789	-0.34
380.999	63.15
381.21	-53.59
381.42	63.15
381.63	-10.58
381.84	59.05
382.05	1.71
382.261	79.53
382.471	50.86
382.681	-6.49
382.891	24.23
383.101	50.86
383.311	-29.01
383.521	-43.35
383.731	63.15
383.941	-47.44
384.151	7.85
384.361	22.19
384.571	54.95
384.781	63.15
384.991	63.15
385.201	83.63
385.411	-18.77
385.621	61.1
385.831	83.63
386.041	-6.49
386.251	38.57
386.461	40.62
386.671	-26.96
386.881	-0.34
387.091	40.62
387.301	46.76
387.511	11.95
387.72	-2.39
387.93	69.29
388.14	5.8
388.35	16.04
388.56	54.95
388.769	38.57
388.979	-35.16
389.189	32.43
389.399	26.28
389.609	89.77
389.818	48.81
390.028	-18.77
390.238	5.8
390.447	38.57
390.657	71.34
390.867	-47.44
391.076	95.91
391.286	-22.87
391.496	22.19
391.705	54.95
391.915	36.52
392.125	5.8
392.334	-51.54
392.544	-31.06
392.753	13.99
392.963	-43.35
393.172	40.62
393.382	-26.96
393.591	18.09
393.801	65.19
394.01	28.33
394.22	32.43
394.429	28.33
394.639	-26.96
394.848	32.43
395.058	9.9
395.267	38.57
395.477	16.04
395.686	-8.53
395.895	63.15
396.105	106.15
396.314	91.82
396.524	32.43
396.733	-31.06
396.942	61.1
397.152	13.99
397.361	81.58
397.57	22.19
397.78	24.23
397.989	100.01
398.198	85.67
398.407	7.85
398.617	22.19
398.826	38.57
399.035	91.82
399.244	-6.49
399.453	-43.35
399.663	32.43
399.872	54.95
400.081	-22.87
400.29	30.38
400.499	-10.58
400.708	48.81
400.917	3.75
401.127	71.34
401.336	-22.87
401.545	79.53
401.754	16.04
401.963	54.95
402.172	22.19
402.381	-18.77
402.59	-43.35
402.799	-10.58
403.008	30.38
403.217	57
403.426	18.09
403.635	54.95
403.844	38.57
404.053	11.95
404.262	13.99
404.471	22.19
404.68	112.3
404.888	34.47
405.097	91.82
405.306	91.82
405.515	46.76
405.724	71.34
405.933	67.24
406.142	104.11
406.35	-26.96
406.559	48.81
406.768	65.19
406.977	104.11
407.185	95.91
407.394	24.23
407.603	77.48
407.812	114.34
408.02	153.26
408.229	128.68
408.438	91.82
408.646	97.96
408.855	26.28
409.064	71.34
409.272	67.24
409.481	169.64
409.69	83.63
409.898	75.43
410.107	120.49
410.315	104.11
410.524	95.91
410.733	149.16
410.941	71.34
411.15	157.35
411.358	138.92
411.567	163.5
411.775	71.34
411.984	95.91
412.192	171.69
412.401	151.21
412.609	216.74
412.818	265.89
413.026	229.03
413.234	222.89
413.443	183.98
413.651	143.02
413.86	218.79
414.068	259.75
414.276	302.76
414.485	222.89
414.693	300.71
414.901	308.9
415.11	269.99
415.318	304.81
415.526	278.18
415.734	358.05
415.943	222.89
416.151	431.78
416.359	310.95
416.567	456.36
416.776	421.54
416.984	339.62
417.192	466.6
417.4	335.53
417.608	442.02
417.817	337.57
418.025	493.22
418.233	415.4
418.441	429.73
418.649	472.74
418.857	505.51
419.065	599.71
419.273	427.68
419.481	499.36
419.689	546.47
419.897	599.71
420.105	575.14
420.313	521.89
420.521	769.69
420.729	689.82
420.937	665.25
421.145	681.63
421.353	800.41
421.561	868
421.769	784.03
421.977	784.03
422.185	841.37
422.393	906.91
422.601	974.49
422.809	947.87
423.017	915.1
423.224	1013.4
423.432	1080.99
423.64	1042.07
423.848	1224.34
424.056	1095.32
424.263	1302.17
424.471	1152.67
424.679	1263.26
424.887	1158.81
425.094	1474.2
425.302	1416.85
425.51	1396.37
425.718	1472.15
425.925	1539.73
426.133	1443.48
426.341	1652.37
426.548	1592.98
426.756	1629.84
426.964	1791.63
427.171	1832.59
427.379	1832.59
427.586	1857.17
427.794	1980.04
428.001	2037.39
428.209	2143.88
428.417	2193.03
428.624	2320.01
428.832	2264.71
429.039	2195.08
429.247	2246.28
429.454	2381.45
429.662	2627.2
429.869	2408.07
430.076	2670.21
430.284	2670.21
430.491	2737.79
430.699	2975.36
430.906	2885.25
431.114	3044.99
431.321	2954.88
431.528	3063.42
431.736	3192.44
431.943	3348.09
432.15	3276.41
432.358	3266.17
432.565	3438.2
432.772	3411.57
432.979	3554.93
433.187	3694.19
433.394	3733.11
433.601	3888.75
433.808	3921.52
434.016	3927.66
434.223	4142.7
434.43	4431.46
434.637	4212.33
434.844	4521.57
435.052	4652.64
435.259	4658.79
435.466	4734.56
435.673	4634.21
435.88	4836.96
436.087	5387.86
436.294	5160.54
436.501	4965.98
436.708	5041.76
436.915	5267.03
437.122	5582.42
437.329	5502.55
437.537	5744.21
437.743	5858.9
437.95	5695.06
438.157	6137.42
438.364	6276.68
438.571	6166.09
438.778	6430.28
438.985	6921.79
439.192	6547.01
439.399	6831.68
439.606	6909.51
439.813	7040.58
440.02	7349.82
440.227	7341.63
440.433	7165.5
440.64	7605.81
440.847	7370.3
441.054	7476.79
441.261	7939.63
441.467	7896.63
441.674	8193.58
441.881	8445.48
442.088	8435.24
442.294	8435.24
442.501	8709.67
442.708	8746.53
442.914	9106.98
443.121	9410.08
443.328	9127.46
443.534	9989.65
443.741	9567.77
443.948	9535
444.154	10327.57
444.361	10016.27
444.568	9979.41
444.774	10044.95
444.981	10001.94
445.187	10589.71
445.394	10794.5
445.6	10843.65
445.807	11748.86
446.013	11265.53
446.22	11738.62
446.426	11916.79
446.633	12152.31
446.839	12623.34
447.046	12027.38
447.252	12703.21
447.459	12703.21
447.665	12664.3
447.871	13348.32
448.078	13696.47
448.284	13268.45
448.491	13501.92
448.697	14198.23
448.903	14257.62
449.11	14290.38
449.316	14179.79
449.522	14390.74
449.728	14880.2
449.935	14886.34
450.141	15115.72
450.347	15074.76
450.553	14573
450.76	15003.08
450.966	15527.36
451.172	15183.3
451.378	15713.72
451.584	15457.73
451.791	15703.48
451.997	15381.95
452.203	15838.65
452.409	15814.07
452.615	15998.39
452.821	15187.39
453.027	15007.17
453.233	15898.04
453.44	15265.22
453.646	15547.84
453.852	15519.17
454.058	15633.85
454.264	15160.77
454.47	15717.82
454.676	15013.32
454.882	15709.63
455.088	14456.27
455.294	14718.41
455.5	14761.42
455.705	14884.3
455.911	14325.2
456.117	14122.45
456.323	14063.06
456.529	13114.85
456.735	13839.83
456.941	13219.3
457.147	13166.05
457.352	13063.65
457.558	12805.61
457.764	12594.67
457.97	12594.67
458.176	12217.84
458.381	12375.53
458.587	11693.56
458.793	11537.91
458.999	10929.67
459.204	11763.19
459.41	11187.71
459.616	10704.39
459.821	10540.55
460.027	10714.63
460.233	10632.71
460.438	10077.71
460.644	10010.13
460.85	9719.32
461.055	9438.75
461.261	9432.6
461.466	8734.25
461.672	8494.63
461.878	9090.59
462.083	8551.98
462.289	8298.03
462.494	8175.15
462.7	7802.42
462.905	7683.64
463.111	7925.3
463.316	7988.78
463.522	7777.84
463.727	7892.53
463.932	7906.87
464.138	7575.1
464.343	8109.61
464.549	7697.97
464.754	7906.87
464.959	7788.08
465.165	7601.72
465.37	7267.9
465.575	7142.97
465.781	7554.62
465.986	7358.01
466.191	7222.84
466.397	7175.74
466.602	6805.06
466.807	6878.79
467.012	7151.17
467.218	6921.79
467.423	6919.75
467.628	6903.36
467.833	6964.8
468.038	6911.55
468.244	6698.56
468.449	7075.39
468.654	6833.73
468.859	6788.68
469.064	6698.56
469.269	6436.42
469.474	6430.28
469.679	6735.43
469.885	6407.75
470.09	6528.58
470.295	6370.89
470.5	6233.68
470.705	6438.47
470.91	6149.71
471.115	6166.09
471.32	6403.66
471.525	6264.4
471.73	6127.18
471.935	6108.75
472.139	5942.86
472.344	5979.73
472.549	5854.8
472.754	5789.27
472.959	5758.55
473.164	5563.99
473.369	5559.89
473.574	5686.87
473.778	5625.43
473.983	5547.61
474.188	5533.27
474.393	5209.69
474.598	5410.39
474.802	5332.57
475.007	5246.55
475.212	5437.02
475.417	5039.71
475.621	5052
475.826	5138.01
476.031	4929.12
476.235	5144.16
476.44	4941.41
476.645	4828.77
476.849	4957.79
477.054	4724.32
477.259	4853.34
477.463	4724.32
477.668	4599.4
477.872	4695.65
478.077	4679.27
478.282	4527.72
478.486	4523.62
478.691	4404.84
478.895	4451.94
479.1	4558.44
479.304	4521.57
479.509	4308.58
479.713	4314.73
479.918	4415.08
480.122	4327.02
480.326	4247.15
480.531	4380.26
480.735	4337.26
480.94	4261.48
481.144	4347.5
481.348	4081.26
481.553	4128.36
481.757	4077.16
481.961	4097.64
482.166	4142.7
482.37	4064.88
482.574	3966.57
482.778	4019.82
482.983	4134.51
483.187	4073.07
483.391	4013.68
483.595	4140.65
483.8	4030.06
484.004	4148.84
484.208	4187.75
484.412	4105.84
484.616	4036.21
484.821	4073.07
485.025	3954.29
485.229	4238.95
485.433	4023.92
485.637	4134.51
485.841	4056.68
486.045	4230.76
486.249	3995.25
486.453	3997.29
486.657	3980.91
486.861	4177.51
487.065	4075.12
487.269	4093.55
487.473	3962.48
487.677	4249.19
487.881	4339.3
488.085	4050.54
488.289	4095.6
488.493	3970.67
488.697	4169.32
488.901	4331.11
489.105	4118.12
489.309	4109.93
489.512	4179.56
489.716	4208.23
489.92	4079.21
490.124	4193.9
490.328	4251.24
490.531	4134.51
490.735	4259.43
490.939	4136.56
491.143	4259.43
491.346	4245.1
491.55	4396.65
491.754	4300.39
491.958	4415.08
492.161	4277.87
492.365	4357.74
492.569	4236.91
492.772	4245.1
492.976	4449.89
493.18	4464.23
493.383	4423.27
493.587	4347.5
493.79	4552.29
493.994	4492.9
494.197	4597.35
494.401	4593.25
494.605	4578.92
494.808	4709.99
495.012	4650.6
495.215	4669.03
495.419	4701.79
495.622	4839.01
495.825	4740.71
496.029	4669.03
496.232	4789.86
496.436	4992.61
496.639	5158.49
496.843	4920.93
497.046	5060.19
497.249	5101.15
497.453	5035.61
497.656	5109.34
497.859	5097.05
498.063	5307.99
498.266	5510.74
498.469	5391.96
498.673	5297.75
498.876	5422.68
499.079	5432.92
499.282	5453.4
499.485	5910.1
499.689	5715.54
499.892	5496.41
500.095	5783.12
500.298	5973.58
500.501	5838.42
500.705	6155.85
500.908	6061.65
501.111	6073.93
501.314	6207.05
501.517	6323.79
501.72	6264.4
501.923	6315.59
502.126	6411.85
502.329	6757.96
502.532	6598.21
502.735	6590.02
502.938	6907.46
503.141	6807.11
503.344	6903.36
503.547	7009.86
503.75	7114.3
503.953	7095.87
504.156	7083.58
504.359	7257.66
504.562	7364.15
504.765	7575.1
504.968	7335.48
505.17	7597.62
505.373	7730.74
505.576	7579.19
505.779	7847.47
505.982	8056.37
506.185	8181.29
506.387	8134.19
506.59	8308.27
506.793	8259.12
506.996	8322.6
507.198	8431.15
507.401	8476.2
507.604	8592.94
507.807	8705.57
508.009	8597.03
508.212	8912.42
508.415	9113.12
508.617	8963.62
508.82	9131.55
509.022	9008.67
509.225	9494.04
509.428	9473.56
509.63	9502.23
509.833	9508.38
510.035	9739.8
510.238	9733.65
510.44	9858.58
510.643	10008.08
510.845	10083.86
511.048	10049.04
511.25	10278.41
511.453	10229.26
511.655	10511.88
511.858	10485.26
512.06	10567.18
512.262	10548.75
512.465	10753.54
512.667	11005.44
512.87	11064.83
513.072	11077.12
513.274	11398.65
513.477	11458.04
513.679	11445.76
513.881	11656.7
514.084	11476.48
514.286	11720.18
514.488	11976.18
514.69	12074.48
514.893	11970.04
515.095	12340.72
515.297	12285.42
515.499	12367.34
515.701	12539.37
515.904	12471.79
516.106	12865
516.308	12883.43
516.51	12840.42
516.712	12897.77
516.914	13104.61
517.116	13436.38
517.318	13524.44
517.52	13409.76
517.722	13440.48
517.925	13743.58
518.127	13794.78
518.329	14124.5
518.531	13954.52
518.733	14405.07
518.935	14126.55
519.136	14267.86
519.338	14450.13
519.54	14745.03
519.742	14671.31
519.944	14792.14
520.146	15250.88
520.348	15023.56
520.55	15228.35
520.752	15508.93
520.954	15564.22
521.155	15640
521.357	15578.56
521.559	15873.46
521.761	16016.82
521.963	15820.22
522.164	15928.76
522.366	16219.57
522.568	16045.49
522.77	16487.86
522.971	16653.74
523.173	16528.81
523.375	16635.31
523.576	16555.44
523.778	16770.47
523.98	16670.12
524.181	16899.5
524.383	17116.58
524.584	17413.54
524.786	17405.35
524.988	17061.29
525.189	17509.79
525.391	17616.29
525.592	17798.56
525.794	17773.98
525.995	17716.64
526.197	17882.52
526.398	17835.42
526.6	17599.9
526.801	17800.6
527.003	18220.44
527.204	18204.05
527.406	18132.37
527.607	18310.55
527.808	18265.49
528.01	17941.91
528.211	18460.05
528.412	18732.43
528.614	18681.23
528.815	18666.89
529.016	18757
529.218	18650.51
529.419	18617.74
529.62	18744.72
529.822	18853.26
530.023	18840.97
530.224	18830.73
530.425	19025.29
530.626	18824.59
530.828	18613.65
531.029	19109.26
531.23	19103.11
531.431	18871.69
531.632	19074.44
531.833	19170.69
532.035	19246.47
532.236	19146.12
532.437	19162.5
532.638	18867.59
532.839	19131.78
533.04	19342.72
533.241	18965.9
533.442	19402.11
533.643	19148.17
533.844	19111.3
534.045	19193.22
534.246	19135.88
534.447	19504.51
534.648	19215.75
534.849	19037.58
535.05	19178.89
535.251	19436.93
535.451	19010.95
535.652	19182.98
535.853	18941.32
536.054	19277.19
536.255	19332.48
536.456	19017.1
536.657	19637.63
536.857	19291.52
537.058	19193.22
537.259	19428.74
537.46	19142.02
537.66	19307.91
537.861	19371.4
538.062	19113.35
538.263	19215.75
538.463	19207.56
538.664	19156.36
538.865	19164.55
539.065	19469.7
539.266	19215.75
539.466	19512.7
539.667	19287.43
539.868	19510.66
540.068	19324.29
540.269	19318.15
540.469	19342.72
540.67	19504.51
540.87	19328.39
541.071	19289.48
541.271	19369.35
541.472	19350.92
541.672	19172.74
541.873	19232.13
542.073	19092.87
542.274	19422.59
542.474	19189.13
542.675	19211.65
542.875	19387.78
543.075	19305.86
543.276	19170.69
543.476	19451.27
543.676	19225.99
543.877	19219.85
544.077	19103.11
544.277	19309.96
544.478	19187.08
544.678	19246.47
544.878	19434.88
545.078	19178.89
545.279	19221.89
545.479	19035.53
545.679	18969.99
545.879	19221.89
546.079	19133.83
546.28	19078.54
546.48	19170.69
546.68	19135.88
546.88	19242.37
547.08	18908.55
547.28	18941.32
547.48	18843.02
547.68	19154.31
547.88	18963.85
548.081	19387.78
548.281	19045.77
548.481	19084.68
548.681	19096.97
548.881	19144.07
549.081	19123.59
549.28	18949.51
549.48	18886.03
549.68	19107.21
549.88	19545.47
550.08	18859.4
550.28	19232.13
550.48	19053.96
550.68	19049.86
550.88	18937.23
551.08	19013
551.279	19072.39
551.479	18527.63
551.679	19170.69
551.879	19203.46
552.079	19060.1
552.278	18716.05
552.478	18830.73
552.678	19219.85
552.878	18914.7
553.077	18855.31
553.277	18843.02
553.477	18912.65
553.676	18699.66
553.876	18974.09
554.076	18818.44
554.275	18818.44
554.475	18736.52
554.674	18967.95
554.874	19033.48
555.074	18666.89
555.273	18810.25
555.473	18898.31
555.672	18511.25
555.872	18777.48
556.071	18587.02
556.271	18625.93
556.47	18582.93
556.67	18537.87
556.869	18888.07
557.068	18498.96
557.268	18634.13
557.467	18797.96
557.667	18482.58
557.866	18734.48
558.065	18699.66
558.265	18249.11
558.464	18644.37
558.663	18736.52
558.863	18341.27
559.062	18562.45
559.261	18505.1
559.461	18439.57
559.66	18240.92
559.859	18267.54
560.058	18210.2
560.258	18087.32
560.457	18113.94
560.656	18322.84
560.855	17935.77
561.054	18333.07
561.253	18165.14
561.453	18320.79
561.652	18273.68
561.851	18185.62
562.05	18101.65
562.249	17919.39
562.448	18095.51
562.647	18150.81
562.846	17972.63
563.045	18120.09
563.244	17851.8
563.443	18064.79
563.642	17571.23
563.841	17683.87
564.04	17857.95
564.239	17767.84
564.438	17343.91
564.637	17726.88
564.836	17360.29
565.035	17509.79
565.234	17655.2
565.432	17503.65
565.631	17421.73
565.83	17497.5
566.029	17216.93
566.228	17337.76
566.427	17393.06
566.625	17251.75
566.824	17184.16
567.023	17495.46
567.222	17044.9
567.42	17167.78
567.619	17094.05
567.818	17067.43
568.016	17135.01
568.215	17026.47
568.414	16913.83
568.612	17040.81
568.811	17012.14
569.01	16899.5
569.208	16782.76
569.407	16991.66
569.605	16721.32
569.804	16885.16
570.002	16743.85
570.201	16678.32
570.4	16448.94
570.598	16702.89
570.797	16297.39
570.995	16692.65
571.193	16524.72
571.392	16618.93
571.59	16416.18
571.789	16487.86
571.987	16258.48
572.186	16145.84
572.384	16127.41
572.582	16244.15
572.781	16324.02
572.979	15695.29
573.177	16211.38
573.376	16025.01
573.574	16102.84
573.772	16276.91
573.971	16086.45
574.169	15601.08
574.367	15740.35
574.565	15852.98
574.763	15953.34
574.962	15838.65
575.16	15447.49
575.358	15633.85
575.556	15513.02
575.754	15580.6
575.952	15379.9
576.151	15709.63
576.349	15549.89
576.547	15488.45
576.745	15447.49
576.943	15494.59
577.141	15162.82
577.339	15496.64
577.537	15394.24
577.735	15138.24
577.933	15183.3
578.131	15091.14
578.329	15345.09
578.527	14927.3
578.725	15177.16
578.923	15195.59
579.121	15125.96
579.319	15121.86
579.516	15062.47
579.714	14831.05
579.912	14706.12
580.11	14843.34
580.308	14804.42
580.506	14579.15
580.704	14478.8
580.901	14706.12
581.099	14702.03
581.297	14642.64
581.495	14421.45
581.692	14601.68
581.89	14605.77
582.088	14566.86
582.285	14595.53
582.483	14460.37
582.681	14267.86
582.878	14196.18
583.076	14153.17
583.274	14364.11
583.471	13999.57
583.669	14089.68
583.866	14136.79
584.064	14104.02
584.262	13776.34
584.459	14050.77
584.657	13919.7
584.854	14153.17
585.052	13759.96
585.249	13680.09
585.447	13680.09
585.644	13571.55
585.841	13911.51
586.039	13800.92
586.236	13381.09
586.434	13669.85
586.631	13473.25
586.828	13565.4
587.026	13446.62
587.223	13491.68
587.42	13473.25
587.618	13207.01
587.815	13276.64
588.012	13120.99
588.21	13088.23
588.407	13161.95
588.604	13151.71
588.801	12971.49
588.999	13235.68
589.196	13051.36
589.393	13237.73
589.59	13022.69
589.787	12877.29
589.984	12778.98
590.182	12785.13
590.379	12858.85
590.576	12836.33
590.773	12629.48
590.97	12572.14
591.167	12776.94
591.364	12676.59
591.561	12703.21
591.758	12549.61
591.955	12635.63
592.152	12553.71
592.349	12467.69
592.546	12402.16
592.743	12318.19
592.94	12256.75
593.137	12322.29
593.334	12310
593.531	12125.68
593.727	12326.38
593.924	12318.19
594.121	12203.5
594.318	12269.04
594.515	11884.02
594.712	12244.46
594.908	11982.32
595.105	11873.78
595.302	12002.8
595.499	12027.38
595.696	12092.91
595.892	11744.76
596.089	11732.47
596.286	11691.51
596.482	11798.01
596.679	11646.46
596.876	11918.84
597.072	11757.05
597.269	11341.31
597.466	11554.3
597.662	11380.22
597.859	11552.25
598.055	11742.71
598.252	11353.6
598.448	11451.9
598.645	11261.44
598.841	11310.59
599.038	11304.45
599.234	11367.93
599.431	11238.91
599.627	11159.04
599.824	11107.84
600.02	11220.48
600.217	10933.76
600.413	11093.51
600.609	11011.59
600.806	10999.3
601.002	11148.8
601.198	11019.78
601.395	10972.68
601.591	10821.13
601.787	10759.69
601.984	10808.84
602.18	10892.8
602.376	10788.36
602.572	10886.66
602.769	10728.97
602.965	10419.72
603.161	10671.62
603.357	10483.21
603.553	10661.38
603.75	10593.8
603.946	10464.78
604.142	10540.55
604.338	10477.07
604.534	10292.75
604.73	10272.27
604.926	10200.59
605.122	10325.52
605.318	10090
605.514	10313.23
605.71	10108.43
605.906	10106.38
606.102	10139.15
606.298	10128.91
606.494	10221.07
606.69	10225.17
606.886	10143.25
607.082	10034.71
607.278	10219.02
607.474	9940.5
607.67	10184.21
607.866	9977.36
608.062	10155.54
608.257	9922.07
608.453	9897.49
608.649	9893.4
608.845	9960.98
609.041	9643.54
609.236	9856.53
609.432	9756.18
609.628	9791
609.824	9631.26
610.019	9639.45
610.215	9688.6
610.411	9698.84
610.606	9582.1
610.802	9633.3
610.998	9678.36
611.193	9616.92
611.389	9559.58
611.584	9532.95
611.78	9387.55
611.976	9561.62
612.171	9739.8
612.367	9416.22
612.562	9356.83
612.758	9403.93
612.953	9309.72
613.149	9571.86
613.344	9524.76
613.539	9426.46
613.735	9287.2
613.93	9377.31
614.126	8971.81
614.321	9479.71
614.517	9184.8
614.712	9410.08
614.907	9164.32
615.103	9274.91
615.298	9328.16
615.493	9149.98
615.688	9045.54
615.884	9059.87
616.079	8893.99
616.274	9346.59
616.47	9094.69
616.665	9039.39
616.86	8967.71
617.055	8867.36
617.25	9106.98
617.445	9145.89
617.641	8707.62
617.836	9020.96
618.031	8818.21
618.226	9025.06
618.421	9027.1
618.616	8953.38
618.811	8697.38
619.006	8695.33
619.201	8642.09
619.396	8646.18
619.591	8562.22
619.786	8859.17
619.981	8437.29
620.176	8717.86
620.371	8396.33
620.566	8535.59
620.761	8453.67
620.956	8494.63
621.151	8216.11
621.346	8451.63
621.541	8158.77
621.735	8216.11
621.93	8091.18
622.125	8095.28
622.32	8013.36
622.515	8093.23
622.709	8123.95
622.904	7968.31
623.099	8025.65
623.294	8046.13
623.488	7718.45
623.683	8060.46
623.878	7667.25
624.072	7722.55
624.267	7634.49
624.462	7751.22
624.656	7487.03
624.851	7476.79
625.046	7657.01
625.24	7489.08
625.435	7386.68
625.629	7587.38
625.824	7370.3
626.018	7482.94
626.213	7259.71
626.407	7272
626.602	7149.12
626.796	7214.65
626.991	7302.72
627.185	7038.53
627.38	7147.07
627.574	7181.89
627.768	7102.01
627.963	6823.49
628.157	6911.55
628.352	6944.32
628.546	6708.8
628.74	6891.07
628.935	6710.85
629.129	6792.77
629.323	6522.44
629.517	6661.7
629.712	6534.73
629.906	6733.38
630.1	6635.08
630.294	6532.68
630.489	6659.65
630.683	6352.46
630.877	6440.52
631.071	6313.55
631.265	6448.71
631.459	6391.37
631.653	6403.66
631.848	6311.5
632.042	6268.49
632.236	6127.18
632.43	6084.17
632.624	6080.08
632.818	6174.28
633.012	6106.7
633.206	6078.03
633.4	6053.45
633.594	5985.87
633.788	5998.16
633.982	6125.13
634.176	6067.79
634.369	5967.44
634.563	5781.07
634.757	5742.16
634.951	5815.89
635.145	5824.08
635.339	5674.58
635.533	5650
635.726	5676.63
635.92	5715.54
636.114	5449.3
636.308	5635.67
636.501	5412.44
636.695	5475.93
636.889	5469.78
637.083	5465.69
637.276	5414.49
637.47	5338.71
637.664	5445.21
637.857	5437.02
638.051	5338.71
638.244	5420.63
638.438	5439.06
638.632	5391.96
638.825	5224.03
639.019	5215.84
639.212	5234.27
639.406	5142.11
639.599	4951.65
639.793	5002.85
639.986	4802.15
640.18	4982.37
640.373	4970.08
640.567	4746.85
640.76	5072.48
640.954	4855.39
641.147	4890.21
641.34	4888.16
641.534	4841.06
641.727	4816.48
641.92	4959.84
642.114	4814.43
642.307	4734.56
642.5	4736.61
642.694	4427.37
642.887	4437.61
643.08	4707.94
643.273	4642.4
643.467	4595.3
643.66	4540.01
643.853	4488.81
644.046	4640.36
644.239	4525.67
644.432	4587.11
644.626	4281.96
644.819	4337.26
645.012	4288.11
645.205	4429.42
645.398	4494.95
645.591	4394.6
645.784	4347.5
645.977	4191.85
646.17	4208.23
646.363	4220.52
646.556	4126.32
646.749	4081.26
646.942	4179.56
647.135	4136.56
647.328	4138.6
647.521	4111.98
647.714	4169.32
647.907	3970.67
648.099	3954.29
648.292	4075.12
648.485	4079.21
648.678	3896.94
648.871	3958.38
649.064	3784.3
649.256	3870.32
649.449	4042.35
649.642	3896.94
649.835	3702.39
650.027	3782.26
650.22	3753.59
650.413	3812.98
650.605	3786.35
650.798	3665.52
650.991	3825.26
651.183	3702.39
651.376	3595.89
651.568	3671.67
651.761	3632.76
651.954	3743.35
652.146	3692.15
652.339	3638.9
652.531	3561.08
652.724	3591.8
652.916	3544.69
653.109	3405.43
653.301	3421.81
653.494	3563.12
653.686	3356.28
653.879	3579.51
654.071	3530.36
654.263	3401.33
654.456	3458.68
654.648	3544.69
654.84	3358.33
655.033	3376.76
655.225	3270.26
655.417	3208.83
655.61	3307.13
655.802	3333.75
655.994	3196.54
656.186	3278.46
656.379	3233.4
656.571	2930.3
656.763	3096.19
656.955	3131
657.148	3262.07
657.34	3176.06
657.532	3044.99
657.724	3010.17
657.916	3079.8
658.108	3184.25
658.3	3067.52
658.492	3006.08
658.684	2956.93
658.876	2973.31
659.068	2944.64
659.26	2952.83
659.452	2887.29
659.644	2844.29
659.836	2979.45
660.028	2907.77
660.22	2852.48
660.412	2774.66
660.604	2791.04
660.796	2760.32
660.988	2801.28
661.18	2829.95
661.372	2651.78
661.563	2750.08
661.755	2745.98
661.947	2649.73
662.139	2719.36
662.331	2680.45
662.522	2561.67
662.714	2649.73
662.906	2627.2
663.097	2619.01
663.289	2674.31
663.481	2610.82
663.673	2569.86
663.864	2533
664.056	2489.99
664.247	2512.52
664.439	2537.09
664.631	2487.94
664.822	2440.84
665.014	2592.39
665.205	2432.65
665.397	2545.28
665.588	2514.56
665.78	2430.6
665.971	2512.52
666.163	2483.84
666.354	2578.05
666.546	2389.64
666.737	2406.02
666.929	2446.98
667.12	2348.68
667.311	2281.1
667.503	2217.61
667.694	2246.28
667.885	2373.25
668.077	2324.1
668.268	2215.56
668.459	2238.09
668.651	2188.94
668.842	2252.42
669.033	2295.43
669.224	2186.89
669.416	2219.66
669.607	2104.97
669.798	2168.46
669.989	2311.82
670.18	2115.21
670.371	2188.94
670.563	2086.54
670.754	2231.94
670.945	2051.72
671.136	2055.82
671.327	1963.66
671.518	2150.03
671.709	2029.2
671.9	2143.88
672.091	2055.82
672.282	1840.78
672.473	2049.68
672.664	2037.39
672.855	2018.96
673.046	2102.92
673.237	2045.58
673.428	2086.54
673.619	2053.77
673.809	2023.05
674	1959.56
674.191	1965.71
674.382	1961.61
674.573	1963.66
674.764	1912.46
674.954	1932.94
675.145	1898.13
675.336	1926.8
675.527	1816.21
675.717	1881.74
675.908	1777.3
676.099	1728.14
676.289	1881.74
676.48	1760.91
676.671	1746.58
676.861	1889.93
677.052	1904.27
677.243	1851.02
677.433	1769.1
677.624	1783.44
677.814	1824.4
678.005	1889.93
678.195	1883.79
678.386	1744.53
678.576	1799.82
678.767	1711.76
678.957	1975.95
679.148	1652.37
679.338	1853.07
679.529	1818.25
679.719	1726.1
679.909	1701.52
680.1	1703.57
680.29	1695.38
680.481	1707.66
680.671	1687.18
680.861	1631.89
681.052	1773.2
681.242	1611.41
681.432	1676.95
681.622	1689.23
681.813	1599.12
682.003	1668.75
682.193	1666.71
682.383	1728.14
682.573	1509.01
682.764	1681.04
682.954	1611.41
683.144	1586.83
683.334	1697.42
683.524	1621.65
683.714	1633.94
683.904	1539.73
684.094	1666.71
684.284	1590.93
684.474	1554.07
684.664	1588.88
684.854	1627.79
685.044	1570.45
685.234	1676.95
685.424	1523.35
685.614	1533.59
685.804	1611.41
685.994	1578.64
686.184	1611.41
686.374	1500.82
686.564	1566.35
686.753	1451.67
686.943	1431.19
687.133	1414.81
687.323	1525.4
687.513	1537.68
687.702	1496.72
687.892	1353.37
688.082	1496.72
688.272	1459.86
688.461	1488.53
688.651	1533.59
688.841	1449.62
689.03	1488.53
689.22	1504.92
689.41	1486.48
689.599	1435.28
689.789	1353.37
689.979	1455.76
690.168	1398.42
690.358	1318.55
690.547	1351.32
690.737	1316.5
690.926	1554.07
691.116	1355.41
691.305	1384.09
691.495	1369.75
691.684	1361.56
691.874	1326.74
692.063	1384.09
692.252	1253.02
692.442	1382.04
692.631	1296.02
692.82	1224.34
693.01	1312.41
693.199	1210.01
693.388	1277.59
693.578	1293.97
693.767	1218.2
693.956	1267.35
694.146	1236.63
694.335	1312.41
694.524	1238.68
694.713	1267.35
694.902	1318.55
695.092	1275.54
695.281	1240.73
695.47	1259.16
695.659	1212.06
695.848	1187.48
696.037	1140.38
696.226	1250.97
696.415	1269.4
696.604	1271.45
696.793	1234.58
696.982	1242.78
697.171	1181.34
697.36	1148.57
697.549	1242.78
697.738	1210.01
697.927	1220.25
698.116	1130.14
698.305	1123.99
698.494	1119.9
698.683	1144.47
698.872	1189.53
699.061	1164.95
699.25	1066.65
699.438	1214.1
699.627	1105.56
699.816	1185.43
700.005	1087.13
700.193	1205.91
700.382	1244.82
700.571	1144.47
700.76	1105.56
700.948	1201.82
701.137	1134.23
701.326	1121.95
701.514	1119.9
701.703	1164.95
701.892	1187.48
702.08	1175.19
702.269	1054.36
702.457	1173.14
702.646	1095.32
702.834	1140.38
703.023	1146.52
703.212	1103.51
703.4	1040.03
703.589	990.88
703.777	1048.22
703.965	1138.33
704.154	1062.55
704.342	1095.32
704.531	1097.37
704.719	1046.17
704.907	1103.51
705.096	1119.9
705.284	1089.18
705.472	1037.98
705.661	1103.51
705.849	1058.46
706.037	1058.46
706.226	1089.18
706.414	1171.1
706.602	1072.79
706.79	997.02
706.979	1087.13
707.167	1136.28
707.355	1080.99
707.543	1101.47
707.731	1130.14
707.919	1109.66
708.107	1011.36
708.296	1021.6
708.484	960.16
708.672	1078.94
708.86	1083.03
709.048	1050.27
709.236	997.02
709.424	1132.19
709.612	1017.5
709.8	1048.22
709.988	1007.26
710.176	986.78
710.364	1107.61
710.551	1054.36
710.739	1103.51
710.927	1040.03
711.115	1042.07
711.303	1029.79
711.491	1050.27
711.679	1103.51
711.866	1033.88
712.054	1078.94
712.242	1113.75
712.43	1015.45
712.617	1021.6
712.805	1048.22
712.993	904.86
713.181	1064.6
713.368	992.92
713.556	1113.75
713.744	1013.4
713.931	1054.36
714.119	1109.66
714.306	1132.19
714.494	1048.22
714.682	1037.98
714.869	1021.6
715.057	1046.17
715.244	1009.31
715.432	1105.56
715.619	1078.94
715.807	1222.3
715.994	1029.79
716.182	1068.7
716.369	1095.32
716.556	1111.71
716.744	1042.07
716.931	1013.4
717.119	1078.94
717.306	1078.94
717.493	1101.47
717.681	1025.69
717.868	1048.22
718.055	1025.69
718.242	1060.51
718.43	1119.9
718.617	1078.94
718.804	1029.79
718.991	1089.18
719.179	1019.55
719.366	980.64
719.553	1037.98
719.74	1072.79
719.927	1003.16
720.114	1076.89
720.301	968.35
720.488	1138.33
720.676	990.88
720.863	1123.99
721.05	1035.93
721.237	1056.41
721.424	1029.79
721.611	1070.75
721.798	1031.83
721.985	1037.98
722.172	988.83
722.358	943.77
722.545	1021.6
722.732	1009.31
722.919	1121.95
723.106	1046.17
723.293	1060.51
723.48	1058.46
723.667	1056.41
723.853	1040.03
724.04	1074.84
724.227	980.64
724.414	1095.32
724.6	1023.64
724.787	999.07
724.974	1070.75
725.161	956.06
725.347	1029.79
725.534	982.68
725.72	997.02
725.907	1068.7
726.094	1013.4
726.28	951.96
726.467	941.72
726.653	988.83
726.84	1126.04
727.027	1113.75
727.213	1037.98
727.4	1017.5
727.586	960.16
727.773	1144.47
727.959	1093.27
728.145	1072.79
728.332	1031.83
728.518	988.83
728.705	1048.22
728.891	988.83
729.077	1103.51
729.264	972.44
729.45	1031.83
729.636	1070.75
729.823	1005.21
730.009	1050.27
730.195	947.87
730.382	931.48
730.568	947.87
730.754	1103.51
730.94	1080.99
731.126	1025.69
731.313	933.53
731.499	1021.6
731.685	1044.12
731.871	1019.55
732.057	1087.13
732.243	1050.27
732.429	1054.36
732.615	1080.99
732.801	1138.33
732.987	972.44
733.173	1064.6
733.359	1029.79
733.545	1058.46
733.731	1025.69
733.917	1050.27
734.103	1021.6
734.289	1023.64
734.475	1037.98
734.661	976.54
734.847	972.44
735.033	1048.22
735.219	1160.86
735.404	1031.83
735.59	935.58
735.776	999.07
735.962	999.07
736.148	966.3
736.333	1058.46
736.519	943.77
736.705	1029.79
736.89	947.87
737.076	931.48
737.262	947.87
737.447	1015.45
737.633	982.68
737.819	1058.46
738.004	982.68
738.19	1019.55
738.375	906.91
738.561	1048.22
738.747	896.67
738.932	951.96
739.118	982.68
739.303	931.48
739.489	982.68
739.674	898.72
739.859	984.73
740.045	976.54
740.23	988.83
740.416	947.87
740.601	900.76
740.786	1007.26
740.972	943.77
741.157	982.68
741.342	931.48
741.528	941.72
741.713	1037.98
741.898	923.29
742.084	870.05
742.269	919.2
742.454	988.83
742.639	939.68
742.824	833.18
743.01	847.52
743.195	841.37
743.38	890.53
743.565	861.85
743.75	865.95
743.935	954.01
744.12	939.68
744.305	808.61
744.49	872.09
744.675	898.72
744.86	874.14
745.045	894.62
745.23	802.46
745.415	900.76
745.6	884.38
745.785	779.93
745.97	966.3
746.155	800.41
746.34	878.24
746.525	818.85
746.71	759.46
746.895	792.22
747.079	876.19
747.264	808.61
747.449	890.53
747.634	763.55
747.819	845.47
748.003	718.5
748.188	775.84
748.373	822.94
748.557	820.89
748.742	784.03
748.927	743.07
749.111	788.13
749.296	743.07
749.481	843.42
749.665	784.03
749.85	784.03
750.034	728.74
750.219	698.02
750.404	663.2
750.588	685.73
750.773	808.61
750.957	806.56
751.141	702.11
751.326	720.54
751.51	698.02
751.695	749.22
751.879	624.29
752.064	689.82
752.248	728.74
752.432	698.02
752.617	648.86
752.801	722.59
752.985	648.86
753.17	638.62
753.354	736.93
753.538	691.87
753.722	571.04
753.907	546.47
754.091	626.34
754.275	720.54
754.459	562.85
754.643	685.73
754.828	644.77
755.012	620.19
755.196	614.05
755.38	603.81
755.564	612
755.748	636.58
755.932	624.29
756.116	648.86
756.3	579.23
756.484	583.33
756.668	603.81
756.852	534.18
757.036	517.79
757.22	585.38
757.404	550.56
757.588	480.93
757.772	609.95
757.956	530.08
758.14	558.75
758.323	564.9
758.507	507.55
758.691	472.74
758.875	612
759.059	587.43
759.242	564.9
759.426	497.32
759.61	538.27
759.794	470.69
759.977	534.18
760.161	587.43
760.345	528.03
760.528	487.08
760.712	519.84
760.895	456.36
761.079	399.01
761.263	456.36
761.446	480.93
761.63	442.02
761.813	554.66
761.997	497.32
762.18	538.27
762.364	562.85
762.547	390.82
762.731	478.88
762.914	571.04
763.098	476.84
763.281	562.85
763.464	513.7
763.648	472.74
763.831	413.35
764.015	497.32
764.198	530.08
764.381	480.93
764.564	411.3
764.748	460.45
764.931	454.31
765.114	423.59
765.297	468.64
765.481	489.12
765.664	356.01
765.847	409.25
766.03	497.32
766.213	435.88
766.397	489.12
766.58	460.45
766.763	485.03
766.946	386.72
767.129	392.87
767.312	419.49
767.495	413.35
767.678	390.82
767.861	407.2
768.044	415.4
768.227	427.68
768.41	456.36
768.593	456.36
768.776	405.16
768.959	444.07
769.142	468.64
769.324	431.78
769.507	390.82
769.69	390.82
769.873	360.1
770.056	433.83
770.239	394.92
770.421	464.55
770.604	362.15
770.787	362.15
770.97	468.64
771.152	315.05
771.335	439.97
771.518	458.4
771.7	456.36
771.883	431.78
772.066	349.86
772.248	366.25
772.431	415.4
772.613	450.21
772.796	386.72
772.978	407.2
773.161	403.11
773.343	284.33
773.526	442.02
773.708	390.82
773.891	308.9
774.073	317.09
774.256	366.25
774.438	382.63
774.621	313
774.803	390.82
774.985	300.71
775.168	394.92
775.35	294.57
775.532	276.13
775.715	370.34
775.897	351.91
776.079	286.37
776.261	349.86
776.444	374.44
776.626	341.67
776.808	284.33
776.99	247.46
777.173	376.48
777.355	390.82
777.537	341.67
777.719	329.38
777.901	292.52
778.083	294.57
778.265	251.56
778.447	374.44
778.629	292.52
778.811	218.79
778.993	278.18
779.175	353.96
779.357	339.62
779.539	288.42
779.721	329.38
779.903	259.75
780.085	288.42
780.267	226.98
780.449	206.5
780.631	259.75
780.812	251.56
780.994	294.57
781.176	278.18
781.358	259.75
781.54	259.75
781.721	333.48
781.903	286.37
782.085	247.46
782.267	329.38
782.448	243.37
782.63	200.36
782.812	284.33
782.993	237.22
783.175	237.22
783.357	214.7
783.538	247.46
783.72	169.64
783.901	233.13
784.083	212.65
784.264	229.03
784.446	157.35
784.627	179.88
784.809	220.84
784.99	210.6
785.172	304.81
785.353	259.75
785.535	157.35
785.716	237.22
785.897	186.02
786.079	177.83
786.26	157.35
786.441	239.27
786.623	120.49
786.804	226.98
786.985	169.64
787.167	186.02
787.348	151.21
787.529	173.74
787.71	276.13
787.891	192.17
788.073	161.45
788.254	122.54
788.435	206.5
788.616	218.79
788.797	132.78
788.978	106.15
789.159	167.59
789.34	235.18
789.522	235.18
789.703	87.72
789.884	210.6
790.065	247.46
790.246	192.17
790.427	169.64
790.607	188.07
790.788	147.11
790.969	143.02
791.15	214.7
791.331	177.83
791.512	114.34
791.693	122.54
791.874	130.73
792.054	210.6
792.235	220.84
792.416	161.45
792.597	173.74
792.778	202.41
792.958	147.11
793.139	102.06
793.32	136.87
793.5	132.78
793.681	196.26
793.862	198.31
794.042	155.3
794.223	145.06
794.404	128.68
794.584	75.43
794.765	192.17
794.945	149.16
795.126	140.97
795.306	161.45
795.487	161.45
795.667	122.54
795.848	93.87
796.028	120.49
796.209	120.49
796.389	163.5
796.57	126.63
796.75	97.96
796.93	130.73
797.111	38.57
797.291	79.53
797.471	136.87
797.652	138.92
797.832	163.5
798.012	153.26
798.192	128.68
798.373	89.77
798.553	71.34
798.733	63.15
798.913	97.96
799.093	120.49
799.274	145.06
799.454	71.34
799.634	169.64
799.814	63.15
799.994	104.11
800.174	124.58
800.354	63.15
800.534	50.86
800.714	132.78
800.894	32.43
801.074	104.11
801.254	46.76
801.434	87.72
801.614	52.91
801.794	136.87
801.974	698.02
802.154	97.96
802.334	120.49
802.514	57
802.693	67.24
802.873	97.96
803.053	77.48
803.233	77.48
803.413	61.1
803.592	71.34
803.772	114.34
803.952	42.67
804.131	26.28
804.311	128.68
804.491	95.91
804.67	104.11
804.85	106.15
805.03	65.19
805.209	73.39
805.389	61.1
805.568	114.34
805.748	106.15
805.928	63.15
806.107	97.96
806.287	40.62
806.466	67.24
806.646	87.72
806.825	97.96
807.004	120.49
807.184	128.68
807.363	63.15
807.543	110.25
807.722	75.43
807.901	46.76
808.081	16.04
808.26	-18.77
808.439	87.72
808.619	93.87
808.798	54.95
808.977	116.39
809.156	71.34
809.336	13.99
809.515	63.15
809.694	71.34
809.873	50.86
810.052	89.77
810.231	46.76
810.411	30.38
810.59	91.82
810.769	93.87
810.948	63.15
811.127	65.19
811.306	42.67
811.485	69.29
811.664	155.3
811.843	57
812.022	108.2
812.201	104.11
812.38	67.24
812.559	116.39
812.737	194.22
812.916	104.11
813.095	91.82
813.274	67.24
813.453	38.57
813.632	-12.63
813.811	97.96
813.989	63.15
814.168	112.3
814.347	87.72
814.526	50.86
814.704	73.39
814.883	114.34
815.062	18.09
815.24	54.95
815.419	-18.77
815.598	108.2
815.776	5.8
815.955	9.9
816.133	79.53
816.312	1.71
816.49	57
816.669	79.53
816.847	-22.87
817.026	83.63
817.204	42.67
817.383	97.96
817.561	73.39
817.74	38.57
817.918	9.9
818.097	46.76
818.275	59.05
818.453	46.76
818.632	91.82
818.81	13.99
818.988	-10.58
819.167	73.39
819.345	24.23
819.523	-57.68
819.701	34.47
819.879	26.28
820.058	-2.39
820.236	73.39
820.414	18.09
820.592	1.71
820.77	34.47
820.948	18.09
821.127	75.43
821.305	89.77
821.483	24.23
821.661	22.19
821.839	22.19
822.017	38.57
822.195	63.15
822.373	16.04
822.551	42.67
822.729	18.09
822.907	54.95
823.085	120.49
823.262	-26.96
823.44	40.62
823.618	38.57
823.796	7.85
823.974	9.9
824.152	13.99
824.329	24.23
824.507	73.39
824.685	5.8
824.863	22.19
825.04	13.99
825.218	1.71
825.396	130.73
825.574	-10.58
825.751	40.62
825.929	104.11
826.107	-10.58
826.284	65.19
826.462	40.62
826.639	36.52
826.817	18.09
826.994	38.57
827.172	9.9
827.349	59.05
827.527	116.39
827.704	-55.64
827.882	63.15
828.059	79.53
828.237	44.71
828.414	97.96
828.591	40.62
828.769	30.38
828.946	-41.3
829.124	136.87
829.301	5.8
829.478	59.05
829.655	9.9
829.833	-37.2
830.01	-18.77
830.187	26.28
830.364	22.19
830.542	7.85
830.719	-26.96
830.896	13.99
831.073	-12.63
831.25	57
831.427	114.34
831.604	32.43
831.782	26.28
831.959	63.15
832.136	30.38
832.313	63.15
832.49	24.23
832.667	57
832.844	30.38
833.021	-39.25
833.198	5.8
833.374	24.23
833.551	59.05
833.728	147.11
833.905	38.57
834.082	5.8
834.259	30.38
834.436	112.3
834.612	-24.92
834.789	77.48
834.966	9.9
835.143	18.09
835.319	63.15
835.496	-14.68
835.673	-18.77
835.85	22.19
836.026	30.38
836.203	-8.53
836.38	59.05
836.556	-2.39
836.733	-37.2
836.909	81.58
837.086	-31.06
837.262	22.19
837.439	-26.96
837.616	73.39
837.792	18.09
837.968	5.8
838.145	20.14
838.321	-24.92
838.498	-10.58
838.674	42.67
838.851	36.52
839.027	5.8
839.203	9.9
839.38	24.23
839.556	24.23
839.732	73.39
839.909	-72.02
840.085	-18.77
840.261	-55.64
840.437	54.95
840.614	11.95
840.79	-14.68
840.966	18.09
841.142	30.38
841.318	71.34
841.494	-8.53
841.671	67.24
841.847	9.9
842.023	-6.49
842.199	-8.53
842.375	54.95
842.551	-63.83
842.727	-4.44
842.903	83.63
843.079	30.38
843.255	112.3
843.431	-49.49
843.607	79.53
843.783	-24.92
843.959	22.19
844.134	-51.54
844.31	-20.82
844.486	42.67
844.662	-47.44
844.838	-2.39
845.013	-0.34
845.189	-18.77
845.365	18.09
845.541	-0.34
845.716	5.8
845.892	-26.96
846.068	7.85
846.244	16.04
846.419	-2.39
846.595	5.8
846.77	-24.92
846.946	-8.53
847.122	-16.73
847.297	20.14
847.473	30.38
847.648	-65.88
847.824	95.91
847.999	-2.39
848.175	-18.77
848.35	-35.16
848.526	-22.87
848.701	-76.12
848.876	36.52
849.052	22.19
849.227	-26.96
849.403	-8.53
849.578	16.04
849.753	13.99
849.929	-6.49
850.104	13.99
850.279	-57.68
850.454	-18.77
850.63	-43.35
850.805	-2.39
850.98	9.9
851.155	30.38
851.33	-8.53
851.505	-33.11
851.681	91.82
851.856	-88.4
852.031	16.04
852.206	9.9
852.381	5.8
852.556	7.85
852.731	71.34
852.906	5.8
853.081	-10.58
853.256	24.23
853.431	-2.39
853.606	-10.58
853.781	-8.53
853.956	-45.4
854.131	63.15
854.305	34.47
854.48	-39.25
854.655	30.38
854.83	-10.58
855.005	-49.49
855.18	-18.77
855.354	40.62
855.529	-10.58
855.704	-49.49
855.879	50.86
856.053	-90.45
856.228	-82.26
856.403	-4.44
856.577	-18.77
856.752	-2.39
856.926	24.23
857.101	9.9
857.276	24.23
857.45	42.67
857.625	16.04
857.799	-84.31
857.974	57
858.148	-65.88
858.323	-33.11
858.497	50.86
858.672	-26.96
858.846	-8.53
859.02	67.24
859.195	16.04
859.369	-31.06
859.543	-49.49
859.718	-16.73
859.892	32.43
860.066	42.67
860.241	-4.44
860.415	32.43
860.589	11.95
860.763	9.9
860.938	13.99
861.112	46.76
861.286	44.71
861.46	30.38
861.634	-67.92
861.808	50.86
861.982	-6.49
862.157	30.38
862.331	-88.4
862.505	-16.73
862.679	-20.82
862.853	-39.25
863.027	-59.73
863.201	126.63
863.375	65.19
863.549	-39.25
863.722	-12.63
863.896	38.57
864.07	-39.25
864.244	30.38
864.418	-8.53
864.592	22.19
864.766	-43.35
864.939	1.71
865.113	-123.22
865.287	30.38
865.461	-67.92
865.634	-31.06
865.808	-24.92
865.982	42.67
866.156	11.95
866.329	-57.68
866.503	30.38
866.676	13.99
866.85	18.09
867.024	-26.96
867.197	18.09
867.371	-10.58
867.544	87.72
867.718	-76.12
867.891	57
868.065	-8.53
868.238	-26.96
868.412	34.47
868.585	-74.07
868.759	34.47
868.932	-10.58
869.105	-10.58
869.279	-18.77
869.452	-26.96
869.625	22.19
869.799	-2.39
869.972	-84.31
870.145	-8.53
870.319	-6.49
870.492	61.1
870.665	20.14
870.838	-67.92
871.011	-35.16
871.185	-84.31
871.358	-12.63
871.531	-0.34
871.704	-16.73
871.877	-84.31
872.05	-84.31
872.223	22.19
872.396	-2.39
872.569	46.76
872.742	34.47
872.915	13.99
873.088	-47.44
873.261	-22.87
873.434	-10.58
873.607	-26.96
873.78	5.8
873.953	-80.21
874.126	-49.49
874.299	18.09
874.471	-16.73
874.644	-6.49
874.817	-20.82
874.99	16.04
875.163	-108.88
875.335	46.76
875.508	18.09
875.681	34.47
875.853	-67.92
876.026	13.99
876.199	-43.35
876.371	-4.44
876.544	30.38
876.717	-61.78
876.889	-31.06
877.062	9.9
877.234	-2.39
877.407	-65.88
877.579	-76.12
877.752	9.9
877.924	-14.68
878.097	40.62
878.269	-57.68
878.442	-10.58
878.614	-65.88
878.786	-51.54
878.959	38.57
879.131	-35.16
879.303	13.99
879.476	-59.73
879.648	-8.53
879.82	-8.53
879.993	22.19
880.165	83.63
880.337	-55.64
880.509	5.8
880.681	-35.16
880.854	-39.25
881.026	46.76
881.198	50.86
881.37	-0.34
881.542	9.9
881.714	-47.44
881.886	40.62
882.058	-80.21
882.23	-16.73
882.402	-100.69
882.574	-24.92
882.746	18.09
882.918	22.19
883.09	5.8
883.262	16.04
883.434	-2.39
883.606	-65.88
883.778	-16.73
883.95	13.99
884.122	-18.77
884.293	11.95
884.465	-8.53
884.637	16.04
884.809	-47.44
884.98	44.71
885.152	-6.49
885.324	18.09
885.496	-51.54
885.667	-8.53
885.839	34.47
886.011	54.95
886.182	-24.92
886.354	-59.73
886.525	-57.68
886.697	93.87
886.869	-55.64
887.04	-10.58
887.212	-16.73
887.383	-24.92
887.555	81.58
887.726	-51.54
887.897	-43.35
888.069	-43.35
888.24	-10.58
888.412	-47.44
888.583	-53.59
888.754	-26.96
888.926	-59.73
889.097	-67.92
889.268	-35.16
889.44	-55.64
889.611	-90.45
889.782	-14.68
889.953	1.71
890.125	-22.87
890.296	-125.27
890.467	-18.77
890.638	-10.58
890.809	46.76
890.98	-18.77
891.151	-14.68
891.323	13.99
891.494	73.39
891.665	-47.44
891.836	-0.34
892.007	-98.64
892.178	36.52
892.349	-41.3
892.52	-59.73
892.691	-55.64
892.862	-65.88
893.032	-59.73
893.203	-18.77
893.374	-18.77
893.545	32.43
893.716	-2.39
893.887	-0.34
894.057	7.85
894.228	-67.92
894.399	-74.07
894.57	-59.73
894.74	-51.54
894.911	20.14
895.082	-22.87
895.253	-84.31
895.423	-45.4
895.594	-24.92
895.764	-24.92
895.935	-26.96
896.106	-90.45
896.276	-24.92
896.447	-35.16
896.617	-8.53
896.788	-74.07
896.958	-59.73
897.129	-106.84
897.299	-43.35
897.47	-14.68
897.64	-18.77
897.81	50.86
897.981	-2.39
898.151	-51.54
898.322	-33.11
898.492	34.47
898.662	-16.73
898.832	22.19
899.003	-43.35
899.173	-80.21
899.343	-57.68
899.513	-104.79
