Data from USB4F104151__55__14-43-10-080.txt Node

Date: Thu Mar 13 14:43:10 EDT 2025
User: louis
Spectrometer: USB4F10415
Trigger mode: 4
Integration Time (sec): 2.000000E-2
Scans to average: 1
Electric dark correction enabled: true
Nonlinearity correction enabled: false
Boxcar width: 0
XAxis mode: Wavelengths
Number of Pixels in Spectrum: 3648
>>>>>Begin Spectral Data<<<<<
178.204	-113.49
178.424	-113.49
178.644	-113.49
178.864	-123.73
179.084	-90.96
179.304	-52.05
179.524	-70.48
179.744	-2.9
179.964	107.69
180.184	13.48
180.404	17.58
180.624	-43.86
180.844	-17.24
181.064	-27.48
181.283	-2.9
181.503	40.11
181.723	38.06
181.943	7.34
182.163	27.82
182.383	29.87
182.602	64.68
182.822	124.07
183.042	79.02
183.262	-9.05
183.482	15.53
183.701	64.68
183.921	68.78
184.141	5.29
184.361	70.83
184.58	72.87
184.8	31.91
185.02	31.91
185.239	144.55
185.459	42.15
185.679	103.59
185.898	36.01
186.118	54.44
186.338	46.25
186.557	62.63
186.777	29.87
186.997	25.77
187.216	31.91
187.436	54.44
187.655	46.25
187.875	105.64
188.095	72.87
188.314	132.26
188.534	97.45
188.753	132.26
188.973	83.11
189.192	50.35
189.412	33.96
189.631	89.26
189.851	87.21
190.07	113.83
190.29	-23.38
190.509	-2.9
190.729	54.44
190.948	52.39
191.168	185.51
191.387	136.36
191.607	-15.19
191.826	87.21
192.045	36.01
192.265	50.35
192.484	38.06
192.704	119.98
192.923	-2.9
193.142	181.42
193.362	97.45
193.581	64.68
193.8	19.63
194.02	54.44
194.239	50.35
194.458	7.34
194.678	29.87
194.897	31.91
195.116	13.48
195.335	15.53
195.555	68.78
195.774	103.59
195.993	87.21
196.212	40.11
196.432	46.25
196.651	99.5
196.87	25.77
197.089	119.98
197.308	31.91
197.528	50.35
197.747	68.78
197.966	52.39
198.185	29.87
198.404	13.48
198.623	68.78
198.842	13.48
199.062	124.07
199.281	79.02
199.5	58.54
199.719	54.44
199.938	31.91
200.157	89.26
200.376	56.49
200.595	91.31
200.814	52.39
201.033	9.39
201.252	66.73
201.471	60.59
201.69	9.39
201.909	83.11
202.128	81.07
202.347	154.79
202.566	5.29
202.785	-29.52
203.004	29.87
203.223	128.17
203.442	38.06
203.661	83.11
203.879	52.39
204.098	29.87
204.317	13.48
204.536	68.78
204.755	79.02
204.974	144.55
205.193	-9.05
205.411	160.94
205.63	9.39
205.849	81.07
206.068	72.87
206.287	-19.29
206.505	111.78
206.724	5.29
206.943	113.83
207.162	9.39
207.381	-9.05
207.599	85.16
207.818	31.91
208.037	33.96
208.255	7.34
208.474	48.3
208.693	38.06
208.911	9.39
209.13	132.26
209.349	38.06
209.567	64.68
209.786	54.44
210.005	-31.57
210.223	52.39
210.442	17.58
210.661	7.34
210.879	13.48
211.098	81.07
211.316	46.25
211.535	68.78
211.753	-2.9
211.972	60.59
212.191	87.21
212.409	119.98
212.628	66.73
212.846	74.92
213.065	9.39
213.283	105.64
213.502	-2.9
213.72	138.41
213.938	60.59
214.157	1.19
214.375	58.54
214.594	58.54
214.812	27.82
215.031	46.25
215.249	7.34
215.467	46.25
215.686	62.63
215.904	21.67
216.122	13.48
216.341	48.3
216.559	5.29
216.778	48.3
216.996	19.63
217.214	38.06
217.432	-4.95
217.651	40.11
217.869	7.34
218.087	7.34
218.306	119.98
218.524	42.15
218.742	-0.85
218.96	124.07
219.179	-27.48
219.397	36.01
219.615	132.26
219.833	85.16
220.051	81.07
220.27	76.97
220.488	103.59
220.706	72.87
220.924	72.87
221.142	23.72
221.36	124.07
221.578	50.35
221.796	17.58
222.015	136.36
222.233	50.35
222.451	54.44
222.669	40.11
222.887	17.58
223.105	72.87
223.323	29.87
223.541	-11.09
223.759	46.25
223.977	79.02
224.195	171.18
224.413	17.58
224.631	9.39
224.849	36.01
225.067	38.06
225.285	54.44
225.503	66.73
225.721	-43.86
225.939	38.06
226.157	85.16
226.375	124.07
226.592	50.35
226.81	105.64
227.028	68.78
227.246	201.9
227.464	-9.05
227.682	-11.09
227.9	29.87
228.117	-7
228.335	107.69
228.553	60.59
228.771	5.29
228.989	91.31
229.206	81.07
229.424	7.34
229.642	62.63
229.86	95.4
230.077	87.21
230.295	89.26
230.513	72.87
230.731	46.25
230.948	87.21
231.166	25.77
231.384	9.39
231.601	38.06
231.819	38.06
232.037	38.06
232.254	-0.85
232.472	68.78
232.689	70.83
232.907	79.02
233.125	23.72
233.342	25.77
233.56	29.87
233.777	48.3
233.995	54.44
234.213	72.87
234.43	62.63
234.648	46.25
234.865	58.54
235.083	87.21
235.3	93.35
235.518	70.83
235.735	79.02
235.953	7.34
236.17	17.58
236.388	105.64
236.605	33.96
236.822	40.11
237.04	54.44
237.257	79.02
237.475	58.54
237.692	54.44
237.909	25.77
238.127	-2.9
238.344	62.63
238.562	81.07
238.779	-15.19
238.996	-25.43
239.214	97.45
239.431	76.97
239.648	-21.33
239.865	107.69
240.083	109.74
240.3	79.02
240.517	42.15
240.735	72.87
240.952	42.15
241.169	33.96
241.386	62.63
241.603	33.96
241.821	40.11
242.038	169.13
242.255	48.3
242.472	-41.81
242.689	97.45
242.907	-35.67
243.124	87.21
243.341	46.25
243.558	17.58
243.775	21.67
243.992	46.25
244.209	-33.62
244.426	146.6
244.643	5.29
244.86	17.58
245.078	13.48
245.295	42.15
245.512	74.92
245.729	31.91
245.946	74.92
246.163	79.02
246.38	95.4
246.597	62.63
246.814	62.63
247.031	105.64
247.248	99.5
247.464	33.96
247.681	15.53
247.898	46.25
248.115	87.21
248.332	-52.05
248.549	36.01
248.766	124.07
248.983	83.11
249.2	48.3
249.417	46.25
249.633	33.96
249.85	150.7
250.067	103.59
250.284	40.11
250.501	70.83
250.717	64.68
250.934	-41.81
251.151	48.3
251.368	38.06
251.585	74.92
251.801	50.35
252.018	13.48
252.235	87.21
252.451	87.21
252.668	-39.76
252.885	38.06
253.102	148.65
253.318	-0.85
253.535	-15.19
253.752	-2.9
253.968	70.83
254.185	105.64
254.401	128.17
254.618	111.78
254.835	13.48
255.051	48.3
255.268	101.55
255.484	46.25
255.701	60.59
255.917	72.87
256.134	68.78
256.351	50.35
256.567	13.48
256.784	50.35
257	3.24
257.217	-9.05
257.433	66.73
257.65	50.35
257.866	140.46
258.082	54.44
258.299	66.73
258.515	97.45
258.732	40.11
258.948	58.54
259.165	76.97
259.381	99.5
259.597	56.49
259.814	21.67
260.03	66.73
260.246	1.19
260.463	119.98
260.679	58.54
260.895	40.11
261.112	56.49
261.328	33.96
261.544	46.25
261.761	128.17
261.977	42.15
262.193	-7
262.409	54.44
262.626	25.77
262.842	60.59
263.058	-21.33
263.274	89.26
263.49	9.39
263.707	103.59
263.923	-2.9
264.139	21.67
264.355	-35.67
264.571	79.02
264.787	70.83
265.004	81.07
265.22	23.72
265.436	52.39
265.652	11.43
265.868	21.67
266.084	42.15
266.3	48.3
266.516	-68.44
266.732	-33.62
266.948	40.11
267.164	-23.38
267.38	91.31
267.596	95.4
267.812	58.54
268.028	46.25
268.244	5.29
268.46	79.02
268.676	44.2
268.892	99.5
269.108	-0.85
269.324	9.39
269.54	23.72
269.756	62.63
269.972	-4.95
270.188	54.44
270.403	-7
270.619	103.59
270.835	64.68
271.051	31.91
271.267	-7
271.483	50.35
271.698	152.74
271.914	7.34
272.13	29.87
272.346	50.35
272.562	44.2
272.777	11.43
272.993	103.59
273.209	72.87
273.425	-23.38
273.64	56.49
273.856	29.87
274.072	42.15
274.287	5.29
274.503	99.5
274.719	54.44
274.934	62.63
275.15	-41.81
275.366	111.78
275.581	40.11
275.797	38.06
276.012	50.35
276.228	-11.09
276.444	58.54
276.659	46.25
276.875	119.98
277.09	72.87
277.306	-15.19
277.521	105.64
277.737	62.63
277.952	64.68
278.168	87.21
278.383	87.21
278.599	56.49
278.814	1.19
279.03	136.36
279.245	169.13
279.461	7.34
279.676	79.02
279.892	21.67
280.107	38.06
280.322	29.87
280.538	38.06
280.753	7.34
280.969	44.2
281.184	15.53
281.399	117.93
281.615	44.2
281.83	74.92
282.045	7.34
282.26	21.67
282.476	79.02
282.691	62.63
282.906	25.77
283.122	38.06
283.337	1.19
283.552	-31.57
283.767	79.02
283.983	50.35
284.198	33.96
284.413	-29.52
284.628	-35.67
284.843	79.02
285.058	119.98
285.274	115.88
285.489	36.01
285.704	87.21
285.919	62.63
286.134	64.68
286.349	46.25
286.564	5.29
286.779	62.63
286.995	38.06
287.21	5.29
287.425	21.67
287.64	66.73
287.855	103.59
288.07	46.25
288.285	87.21
288.5	81.07
288.715	74.92
288.93	5.29
289.145	5.29
289.36	87.21
289.575	97.45
289.79	58.54
290.004	62.63
290.219	95.4
290.434	66.73
290.649	7.34
290.864	27.82
291.079	-0.85
291.294	60.59
291.509	25.77
291.724	111.78
291.938	13.48
292.153	111.78
292.368	79.02
292.583	70.83
292.798	40.11
293.012	46.25
293.227	89.26
293.442	-19.29
293.657	17.58
293.871	136.36
294.086	38.06
294.301	156.84
294.516	68.78
294.73	21.67
294.945	3.24
295.16	58.54
295.374	70.83
295.589	72.87
295.804	-9.05
296.018	87.21
296.233	70.83
296.447	58.54
296.662	-25.43
296.877	46.25
297.091	68.78
297.306	46.25
297.52	21.67
297.735	107.69
297.949	72.87
298.164	70.83
298.378	44.2
298.593	31.91
298.807	54.44
299.022	72.87
299.236	62.63
299.451	87.21
299.665	38.06
299.88	79.02
300.094	93.35
300.309	46.25
300.523	44.2
300.737	-11.09
300.952	11.43
301.166	38.06
301.381	29.87
301.595	87.21
301.809	58.54
302.024	54.44
302.238	46.25
302.452	93.35
302.667	33.96
302.881	107.69
303.095	31.91
303.309	62.63
303.524	-33.62
303.738	9.39
303.952	36.01
304.166	42.15
304.381	1.19
304.595	93.35
304.809	72.87
305.023	-25.43
305.237	70.83
305.452	79.02
305.666	27.82
305.88	136.36
306.094	48.3
306.308	46.25
306.522	87.21
306.736	48.3
306.95	136.36
307.164	9.39
307.379	42.15
307.593	89.26
307.807	140.46
308.021	17.58
308.235	-52.05
308.449	-15.19
308.663	1.19
308.877	111.78
309.091	62.63
309.305	42.15
309.519	7.34
309.733	38.06
309.947	74.92
310.161	70.83
310.374	21.67
310.588	33.96
310.802	54.44
311.016	-11.09
311.23	56.49
311.444	21.67
311.658	99.5
311.872	146.6
312.085	7.34
312.299	50.35
312.513	87.21
312.727	29.87
312.941	9.39
313.154	58.54
313.368	83.11
313.582	-31.57
313.796	52.39
314.009	23.72
314.223	128.17
314.437	79.02
314.651	66.73
314.864	52.39
315.078	13.48
315.292	19.63
315.505	48.3
315.719	27.82
315.933	31.91
316.146	81.07
316.36	31.91
316.573	87.21
316.787	46.25
317.001	-35.67
317.214	95.4
317.428	50.35
317.641	-19.29
317.855	74.92
318.068	58.54
318.282	81.07
318.495	-2.9
318.709	117.93
318.922	54.44
319.136	146.6
319.349	107.69
319.563	50.35
319.776	36.01
319.99	31.91
320.203	87.21
320.417	56.49
320.63	62.63
320.843	91.31
321.057	27.82
321.27	64.68
321.483	40.11
321.697	128.17
321.91	5.29
322.124	81.07
322.337	60.59
322.55	31.91
322.763	3.24
322.977	79.02
323.19	48.3
323.403	83.11
323.617	25.77
323.83	101.55
324.043	7.34
324.256	38.06
324.469	21.67
324.683	146.6
324.896	91.31
325.109	74.92
325.322	46.25
325.535	13.48
325.748	111.78
325.962	46.25
326.175	70.83
326.388	68.78
326.601	79.02
326.814	64.68
327.027	62.63
327.24	119.98
327.453	17.58
327.666	95.4
327.879	64.68
328.092	95.4
328.305	5.29
328.518	42.15
328.731	46.25
328.944	-0.85
329.157	87.21
329.37	21.67
329.583	152.74
329.796	177.32
330.009	-9.05
330.222	38.06
330.435	62.63
330.648	48.3
330.861	42.15
331.073	46.25
331.286	89.26
331.499	95.4
331.712	99.5
331.925	103.59
332.138	42.15
332.35	31.91
332.563	21.67
332.776	117.93
332.989	99.5
333.202	111.78
333.414	42.15
333.627	126.12
333.84	91.31
334.053	9.39
334.265	44.2
334.478	60.59
334.691	105.64
334.903	54.44
335.116	13.48
335.329	29.87
335.541	95.4
335.754	64.68
335.966	62.63
336.179	29.87
336.392	83.11
336.604	40.11
336.817	62.63
337.029	113.83
337.242	64.68
337.454	132.26
337.667	79.02
337.88	23.72
338.092	50.35
338.305	101.55
338.517	46.25
338.729	124.07
338.942	81.07
339.154	95.4
339.367	29.87
339.579	38.06
339.792	76.97
340.004	40.11
340.217	56.49
340.429	13.48
340.641	-33.62
340.854	109.74
341.066	54.44
341.278	68.78
341.491	107.69
341.703	11.43
341.915	17.58
342.128	124.07
342.34	52.39
342.552	99.5
342.764	46.25
342.977	83.11
343.189	36.01
343.401	42.15
343.613	13.48
343.826	-29.52
344.038	83.11
344.25	36.01
344.462	31.91
344.674	81.07
344.886	72.87
345.099	95.4
345.311	15.53
345.523	44.2
345.735	31.91
345.947	54.44
346.159	-15.19
346.371	144.55
346.583	117.93
346.795	60.59
347.007	46.25
347.219	70.83
347.431	64.68
347.643	79.02
347.855	97.45
348.067	103.59
348.279	13.48
348.491	31.91
348.703	54.44
348.915	38.06
349.127	17.58
349.339	11.43
349.551	52.39
349.763	62.63
349.975	9.39
350.187	87.21
350.399	79.02
350.61	97.45
350.822	58.54
351.034	138.41
351.246	31.91
351.458	97.45
351.669	48.3
351.881	83.11
352.093	162.98
352.305	119.98
352.517	105.64
352.728	91.31
352.94	54.44
353.152	124.07
353.363	44.2
353.575	105.64
353.787	119.98
353.999	79.02
354.21	50.35
354.422	89.26
354.633	62.63
354.845	79.02
355.057	79.02
355.268	95.4
355.48	33.96
355.692	46.25
355.903	76.97
356.115	25.77
356.326	58.54
356.538	95.4
356.749	33.96
356.961	79.02
357.172	5.29
357.384	38.06
357.595	66.73
357.807	81.07
358.018	46.25
358.23	87.21
358.441	89.26
358.653	126.12
358.864	15.53
359.075	56.49
359.287	17.58
359.498	87.21
359.709	76.97
359.921	56.49
360.132	33.96
360.344	66.73
360.555	72.87
360.766	44.2
360.977	29.87
361.189	138.41
361.4	21.67
361.611	128.17
361.823	138.41
362.034	119.98
362.245	19.63
362.456	25.77
362.667	111.78
362.879	25.77
363.09	62.63
363.301	74.92
363.512	79.02
363.723	25.77
363.935	46.25
364.146	54.44
364.357	40.11
364.568	109.74
364.779	68.78
364.99	33.96
365.201	-2.9
365.412	87.21
365.623	-23.38
365.834	64.68
366.045	40.11
366.256	117.93
366.467	138.41
366.678	58.54
366.889	42.15
367.1	-31.57
367.311	83.11
367.522	48.3
367.733	97.45
367.944	66.73
368.155	87.21
368.366	95.4
368.577	66.73
368.788	162.98
368.999	31.91
369.209	83.11
369.42	107.69
369.631	152.74
369.842	5.29
370.053	-80.72
370.264	79.02
370.474	31.91
370.685	105.64
370.896	58.54
371.107	124.07
371.317	46.25
371.528	105.64
371.739	91.31
371.95	40.11
372.16	115.88
372.371	-23.38
372.582	70.83
372.792	91.31
373.003	101.55
373.214	54.44
373.424	165.03
373.635	62.63
373.846	103.59
374.056	70.83
374.267	162.98
374.477	42.15
374.688	46.25
374.898	70.83
375.109	76.97
375.319	111.78
375.53	111.78
375.74	85.16
375.951	46.25
376.161	46.25
376.372	111.78
376.582	52.39
376.793	89.26
377.003	-11.09
377.214	89.26
377.424	-33.62
377.635	7.34
377.845	19.63
378.055	79.02
378.266	31.91
378.476	115.88
378.686	33.96
378.897	60.59
379.107	79.02
379.317	109.74
379.528	15.53
379.738	58.54
379.948	70.83
380.158	15.53
380.369	52.39
380.579	1.19
380.789	13.48
380.999	171.18
381.21	113.83
381.42	107.69
381.63	72.87
381.84	79.02
382.05	93.35
382.261	58.54
382.471	58.54
382.681	54.44
382.891	138.41
383.101	68.78
383.311	74.92
383.521	64.68
383.731	87.21
383.941	122.02
384.151	185.51
384.361	50.35
384.571	42.15
384.781	38.06
384.991	171.18
385.201	136.36
385.411	70.83
385.621	44.2
385.831	19.63
386.041	64.68
386.251	58.54
386.461	128.17
386.671	83.11
386.881	48.3
387.091	19.63
387.301	52.39
387.511	9.39
387.72	111.78
387.93	74.92
388.14	101.55
388.35	81.07
388.56	103.59
388.769	85.16
388.979	70.83
389.189	23.72
389.399	62.63
389.609	9.39
389.818	79.02
390.028	76.97
390.238	154.79
390.447	68.78
390.657	87.21
390.867	72.87
391.076	103.59
391.286	58.54
391.496	91.31
391.705	81.07
391.915	162.98
392.125	103.59
392.334	66.73
392.544	185.51
392.753	136.36
392.963	40.11
393.172	144.55
393.382	103.59
393.591	136.36
393.801	25.77
394.01	160.94
394.22	132.26
394.429	146.6
394.639	160.94
394.848	87.21
395.058	93.35
395.267	142.5
395.477	79.02
395.686	111.78
395.895	148.65
396.105	89.26
396.314	138.41
396.524	70.83
396.733	85.16
396.942	111.78
397.152	99.5
397.361	70.83
397.57	117.93
397.78	115.88
397.989	87.21
398.198	193.7
398.407	136.36
398.617	97.45
398.826	119.98
399.035	62.63
399.244	189.61
399.453	97.45
399.663	111.78
399.872	160.94
400.081	38.06
400.29	165.03
400.499	3.24
400.708	148.65
400.917	107.69
401.127	79.02
401.336	58.54
401.545	212.14
401.754	60.59
401.963	201.9
402.172	132.26
402.381	17.58
402.59	99.5
402.799	76.97
403.008	99.5
403.217	122.02
403.426	111.78
403.635	83.11
403.844	165.03
404.053	99.5
404.262	156.84
404.471	169.13
404.68	169.13
404.888	146.6
405.097	128.17
405.306	234.66
405.515	201.9
405.724	226.47
405.933	169.13
406.142	218.28
406.35	173.22
406.559	269.48
406.768	179.37
406.977	253.09
407.185	302.25
407.394	191.66
407.603	144.55
407.812	218.28
408.02	249
408.229	269.48
408.438	308.39
408.646	236.71
408.855	210.09
409.064	341.16
409.272	292.01
409.481	281.77
409.69	212.14
409.898	275.62
410.107	261.29
410.315	332.97
410.524	375.97
410.733	332.97
410.941	316.58
411.15	384.16
411.358	390.31
411.567	375.97
411.775	384.16
411.984	400.55
412.192	365.73
412.401	410.79
412.609	441.51
412.818	531.62
413.026	464.04
413.234	541.86
413.443	488.61
413.651	541.86
413.86	558.24
414.068	613.54
414.276	554.15
414.485	525.47
414.693	568.48
414.901	681.12
415.11	734.37
415.318	613.54
415.526	705.7
415.734	779.42
415.943	750.75
416.151	875.68
416.359	758.94
416.567	758.94
416.776	824.48
416.984	912.54
417.192	957.6
417.4	890.01
417.608	910.49
417.817	949.4
418.025	1115.29
418.233	1131.67
418.441	1072.28
418.649	1143.96
418.857	1078.43
419.065	1268.89
419.273	1250.46
419.481	1279.13
419.689	1340.57
419.897	1447.06
420.105	1397.91
420.313	1440.92
420.521	1389.72
420.729	1549.46
420.937	1602.71
421.145	1614.99
421.353	1766.54
421.561	1756.3
421.769	1836.17
421.977	1875.09
422.185	1830.03
422.393	2036.88
422.601	2153.61
422.809	2196.62
423.017	2188.43
423.224	2241.67
423.432	2301.06
423.64	2307.21
423.848	2561.16
424.056	2491.52
424.263	2544.77
424.471	2643.07
424.679	2720.9
424.887	2874.49
425.094	2913.41
425.302	2905.21
425.51	3054.72
425.718	3265.66
425.925	3134.59
426.133	3292.28
426.341	3437.69
426.548	3544.18
426.756	3570.8
426.964	3622
427.171	3941.49
427.379	3961.97
427.586	3957.87
427.794	4195.43
428.001	4256.87
428.209	4385.9
428.417	4555.88
428.624	4742.24
428.832	4727.91
429.039	4746.34
429.247	4785.25
429.454	5243.99
429.662	5459.03
429.869	5088.35
430.076	5538.9
430.284	5342.3
430.491	5450.84
430.699	5917.78
430.906	5954.64
431.114	5913.68
431.321	6272.07
431.528	6440.01
431.736	6708.29
431.943	7052.35
432.15	6870.08
432.358	7038.02
432.565	7197.76
432.772	7246.91
432.979	7740.47
433.187	7875.63
433.394	7808.05
433.601	8320.04
433.808	8369.19
434.016	8191.02
434.223	8696.87
434.43	9286.68
434.637	9053.22
434.844	9466.91
435.052	9761.81
435.259	9681.94
435.466	9911.32
435.673	9632.79
435.88	10288.14
436.087	10779.65
436.294	11041.79
436.501	10548.23
436.708	10738.69
436.915	11121.66
437.122	11717.62
437.329	11426.81
437.537	11899.89
437.743	11959.28
437.95	12192.75
438.157	12682.22
438.364	13165.54
438.571	13087.71
438.778	13317.09
438.985	14357.46
439.192	14027.73
439.399	14365.65
439.606	14087.12
439.813	14736.33
440.02	15612.86
440.227	15397.82
440.433	15166.4
440.64	15803.32
440.847	15489.98
441.054	15805.37
441.261	16817.07
441.467	16874.41
441.674	16952.23
441.881	17912.73
442.088	17761.18
442.294	17376.16
442.501	17839
442.708	18447.25
442.914	19014.54
443.121	20149.11
443.328	19325.83
443.534	20700.01
443.741	19893.12
443.948	19725.18
444.154	21480.29
444.361	21119.85
444.568	21078.89
444.774	21300.07
444.981	21537.63
445.187	22258.52
445.394	23130.95
445.6	22575.95
445.807	25021.23
446.013	24040.25
446.22	24210.23
446.426	25539.36
446.633	25371.43
446.839	26247.96
447.046	25217.83
447.252	26880.78
447.459	26667.8
447.665	26794.77
447.871	27808.51
448.078	28818.16
448.284	27415.3
448.491	28470.01
448.697	29362.92
448.903	29879.01
449.11	30067.42
449.316	29528.81
449.522	30210.78
449.728	31249.1
449.935	31230.67
450.141	31142.61
450.347	31767.24
450.553	31019.73
450.76	31511.24
450.966	32522.94
451.172	32074.43
451.378	33020.59
451.584	32006.85
451.791	33270.45
451.997	32901.81
452.203	33389.23
452.409	33602.22
452.615	33178.29
452.821	32021.19
453.027	32090.82
453.233	33696.42
453.44	32002.75
453.646	32393.92
453.852	32953.01
454.058	33276.59
454.264	32381.63
454.47	33497.77
454.676	32262.85
454.882	33022.64
455.088	30395.1
455.294	30737.11
455.5	31361.74
455.705	31888.07
455.911	30528.22
456.117	30063.33
456.323	29606.63
456.529	28029.69
456.735	29182.7
456.941	28128
457.147	28158.72
457.352	27101.97
457.558	26438.42
457.764	26987.28
457.97	26481.43
458.176	26250.01
458.381	26049.31
458.587	24916.78
458.793	24711.99
458.999	23554.88
459.204	25303.85
459.41	24267.58
459.616	22942.54
459.821	22956.88
460.027	22770.51
460.233	22399.83
460.438	21160.81
460.644	21527.39
460.85	20425.59
461.055	20192.12
461.261	20173.69
461.466	18617.23
461.672	18076.57
461.878	19542.91
462.083	18207.64
462.289	17658.78
462.494	17460.13
462.7	17052.58
462.905	16561.07
463.111	17017.77
463.316	16847.79
463.522	16565.17
463.727	16667.56
463.932	16462.77
464.138	16382.9
464.343	16434.1
464.549	16077.75
464.754	16438.19
464.959	16352.18
465.165	16288.69
465.37	15473.6
465.575	15041.48
465.781	15809.47
465.986	15756.22
466.191	15348.67
466.397	15102.92
466.602	14351.31
466.807	15000.52
467.012	14734.28
467.218	14711.75
467.423	14445.52
467.628	14611.4
467.833	15064
468.038	14758.86
468.244	14275.54
468.449	14928.84
468.654	14257.11
468.859	14300.11
469.064	14150.61
469.269	13747.16
469.474	13659.1
469.679	14015.44
469.885	13548.51
470.09	13863.9
470.295	13634.52
470.5	13548.51
470.705	13218.78
470.91	13077.48
471.115	12796.9
471.32	13120.48
471.525	13140.96
471.73	13145.06
471.935	12588.01
472.139	12397.55
472.344	12686.31
472.549	12465.13
472.754	12293.1
472.959	12184.56
473.164	11795.45
473.369	11549.69
473.574	12114.93
473.778	11809.78
473.983	11858.93
474.188	11731.96
474.393	11006.98
474.598	11447.29
474.802	11367.42
475.007	10959.88
475.212	11332.61
475.417	10769.41
475.621	10826.76
475.826	10742.79
476.031	10474.51
476.235	10415.12
476.44	10544.14
476.645	10335.24
476.849	10417.16
477.054	10253.33
477.259	10146.83
477.463	10103.82
477.668	9720.85
477.872	9970.71
478.077	9575.45
478.282	9421.85
478.486	9384.99
478.691	9518.11
478.895	9395.23
479.1	9200.67
479.304	9303.07
479.509	9012.26
479.713	9167.9
479.918	8942.63
480.122	8922.15
480.326	8983.59
480.531	9069.6
480.735	8647.72
480.94	8485.93
481.144	8969.25
481.348	8614.95
481.553	8479.79
481.757	8537.13
481.961	8791.08
482.166	8721.45
482.37	8571.94
482.574	8479.79
482.778	8602.66
482.983	8926.24
483.187	8653.86
483.391	8463.4
483.595	8617
483.8	8379.43
484.004	8555.56
484.208	8602.66
484.412	8573.99
484.616	8653.86
484.821	8631.33
485.025	8410.15
485.229	8573.99
485.433	8520.74
485.637	8565.8
485.841	8469.55
486.045	8440.87
486.249	8528.94
486.453	8584.23
486.657	8576.04
486.861	8721.45
487.065	8594.47
487.269	8727.59
487.473	8434.73
487.677	8803.36
487.881	8676.39
488.085	8426.54
488.289	8526.89
488.493	8610.86
488.697	8510.5
488.901	8672.29
489.105	8619.05
489.309	8623.14
489.512	8578.09
489.716	8660.01
489.92	8703.01
490.124	8682.53
490.328	8971.3
490.531	8692.77
490.735	8840.23
490.939	8743.97
491.143	8774.69
491.346	8715.3
491.55	8983.59
491.754	8959.01
491.958	9034.78
492.161	8897.57
492.365	8893.47
492.569	9067.55
492.772	8893.47
492.976	9180.19
493.18	9026.59
493.383	9251.87
493.587	9266.21
493.79	9364.51
493.994	9303.07
494.197	9460.76
494.401	9192.48
494.605	9323.55
494.808	9622.55
495.012	9477.15
495.215	9632.79
495.419	9856.02
495.622	9802.77
495.825	9782.29
496.029	9876.5
496.232	10173.46
496.436	9970.71
496.639	10394.64
496.843	10220.56
497.046	10439.69
497.249	10693.64
497.453	10638.34
497.656	10664.97
497.859	10613.77
498.063	10748.93
498.266	11107.33
498.469	11160.58
498.673	11203.58
498.876	11234.3
499.079	11324.41
499.282	11351.04
499.485	11639.8
499.689	11652.09
499.892	12018.68
500.095	12030.96
500.298	12076.02
500.501	12045.3
500.705	12366.83
500.908	12579.82
501.111	12690.41
501.314	12819.43
501.517	12852.2
501.72	13073.38
501.923	12844.01
502.126	13323.23
502.329	13284.32
502.532	13720.54
502.735	13534.17
502.938	13695.96
503.141	14154.71
503.344	14123.99
503.547	14113.75
503.75	14431.18
503.953	14724.04
504.156	15078.34
504.359	14898.12
504.562	14990.28
504.765	15283.14
504.968	15449.02
505.17	15629.24
505.373	15678.4
505.576	15811.51
505.779	16151.48
505.982	16352.18
506.185	16763.82
506.387	16513.97
506.59	16659.37
506.793	17058.73
506.996	17191.84
507.198	17277.86
507.401	17167.27
507.604	17572.77
507.807	17957.78
508.009	17980.31
508.212	18252.69
508.415	18361.23
508.617	18410.39
508.82	18594.7
509.022	18539.41
509.225	18989.96
509.428	19118.98
509.63	19456.9
509.833	19430.27
510.035	19870.59
510.238	19673.98
510.44	20282.23
510.643	20380.53
510.845	20501.36
511.048	20501.36
511.25	20601.71
511.453	20882.28
511.655	22035.29
511.858	21511.01
512.06	21752.67
512.262	21951.32
512.465	21949.28
512.667	22086.49
512.87	22534.99
513.072	22338.39
513.274	22864.72
513.477	22762.32
513.679	23049.03
513.881	23548.74
514.084	23958.33
514.286	23911.23
514.488	24011.58
514.69	24892.21
514.893	24754.99
515.095	24814.38
515.297	24798
515.499	25254.7
515.701	25277.22
515.904	25688.87
516.106	25903.9
516.308	26145.56
516.51	26381.08
516.712	26301.21
516.914	26708.76
517.116	27327.24
517.318	27140.88
517.52	27407.11
517.722	27288.33
517.925	27837.19
518.127	27986.69
518.329	28250.88
518.531	28222.2
518.733	28605.17
518.935	29014.77
519.136	29227.76
519.338	29461.23
519.54	29221.61
519.742	30161.63
519.944	30274.27
520.146	30446.3
520.348	30644.95
520.55	30778.07
520.752	30716.63
520.954	31367.88
521.155	31216.33
521.357	31732.42
521.559	31945.41
521.761	32182.98
521.963	31957.7
522.164	32203.46
522.366	32752.31
522.568	32707.26
522.77	33010.35
522.971	33489.58
523.173	33391.28
523.375	33643.18
523.576	33583.79
523.778	33680.04
523.98	34380.45
524.181	34140.83
524.383	34173.6
524.584	34804.38
524.786	34863.77
524.988	34960.02
525.189	34738.84
525.391	35144.34
525.592	35641.99
525.794	35668.62
525.995	35424.91
526.197	35594.89
526.398	35912.33
526.6	36584.06
526.801	36178.56
527.003	36315.78
527.204	36278.91
527.406	36915.83
527.607	36870.78
527.808	37102.2
528.01	36151.94
528.211	36934.26
528.412	37315.19
528.614	37231.22
528.815	37642.86
529.016	37737.07
529.218	37431.92
529.419	37352.05
529.62	37536.37
529.822	37491.31
530.023	37534.32
530.224	37907.05
530.425	37810.79
530.626	37845.61
530.828	37470.83
531.029	38799.96
531.23	37782.12
531.431	37798.51
531.632	38302.31
531.833	38148.71
532.035	38376.03
532.236	38455.9
532.437	38654.56
532.638	38414.94
532.839	38435.42
533.04	38771.29
533.241	38449.76
533.442	38783.58
533.643	38597.21
533.844	38554.21
534.045	38840.92
534.246	38222.44
534.447	38781.53
534.648	38251.11
534.849	38799.96
535.05	38611.55
535.251	38619.74
535.451	38529.63
535.652	38695.52
535.853	38730.33
536.054	38738.52
536.255	38611.55
536.456	38279.78
536.657	38920.79
536.857	38748.76
537.058	38181.48
537.259	38675.04
537.46	38838.87
537.66	38568.54
537.861	38560.35
538.062	38756.96
538.263	38607.45
538.463	38337.12
538.664	38599.26
538.865	38574.69
539.065	38726.24
539.266	38275.68
539.466	38832.73
539.667	38414.94
539.868	39098.97
540.068	38556.25
540.269	38330.98
540.469	38982.23
540.67	38503.01
540.87	38535.77
541.071	38320.74
541.271	39027.29
541.472	38353.51
541.672	38601.31
541.873	38320.74
542.073	37964.39
542.274	38632.03
542.474	38302.31
542.675	38115.94
542.875	38523.49
543.075	38326.88
543.276	37988.97
543.476	38464.1
543.676	38146.66
543.877	38230.63
544.077	38476.38
544.277	38468.19
544.478	38113.89
544.678	38595.17
544.878	38169.19
545.078	38070.89
545.279	38455.9
545.479	38001.25
545.679	38208.1
545.879	38343.27
546.079	38103.65
546.28	38130.28
546.48	37638.76
546.68	38218.34
546.88	38154.85
547.08	38249.06
547.28	37868.14
547.48	37786.22
547.68	38388.32
547.88	37714.54
548.081	38247.01
548.281	38011.49
548.481	37890.66
548.681	38269.54
548.881	38425.18
549.081	38224.48
549.28	37886.57
549.48	38275.68
549.68	38070.89
549.88	38609.5
550.08	38187.62
550.28	38218.34
550.48	38062.69
550.68	38181.48
550.88	37794.41
551.08	37814.89
551.279	37986.92
551.479	37741.16
551.679	37960.3
551.879	37845.61
552.079	38038.12
552.278	37827.18
552.478	38007.4
552.678	38181.48
552.878	37868.14
553.077	37735.02
553.277	37151.35
553.477	38040.17
553.676	37730.92
553.876	37900.9
554.076	37859.94
554.275	37548.65
554.475	37261.94
554.674	37505.65
554.874	37290.61
555.074	37249.65
555.273	37427.82
555.473	37374.58
555.672	37143.16
555.872	37290.61
556.071	37268.08
556.271	37712.49
556.47	37085.81
556.67	36850.3
556.869	37216.88
557.068	37235.31
557.268	36715.13
557.467	37206.64
557.667	36590.2
557.866	37268.08
558.065	37098.1
558.265	36655.74
558.464	36371.07
558.663	37204.59
558.863	36477.57
559.062	37036.66
559.261	36342.4
559.461	36981.37
559.66	36354.69
559.859	36596.35
560.058	36274.82
560.258	36522.62
560.457	36119.17
560.656	36348.54
560.855	36313.73
561.054	36319.87
561.253	36055.68
561.453	36018.82
561.652	36170.37
561.851	36260.48
562.05	35930.76
562.249	35904.13
562.448	36027.01
562.647	35912.33
562.846	35547.79
563.045	35807.88
563.244	35742.35
563.443	35863.18
563.642	35492.49
563.841	35523.21
564.04	35228.31
564.239	35506.83
564.438	35072.66
564.637	35408.53
564.836	35779.21
565.035	34818.71
565.234	35101.33
565.432	34970.26
565.631	34861.72
565.83	35207.83
566.029	34906.77
566.228	34732.7
566.427	34884.25
566.625	34831
566.824	34435.74
567.023	34843.29
567.222	34366.11
567.42	34628.25
567.619	33893.03
567.818	34099.87
568.016	34017.96
568.215	34439.84
568.414	33983.14
568.612	34431.65
568.811	34116.26
569.01	34048.68
569.208	33813.16
569.407	33882.79
569.605	33436.33
569.804	33743.53
570.002	33055.41
570.201	33794.73
570.4	33440.43
570.598	33594.03
570.797	33276.59
570.995	33166
571.193	32682.68
571.392	33127.09
571.59	32783.03
571.789	32834.23
571.987	32600.76
572.186	32529.08
572.384	32385.72
572.582	32922.29
572.781	32744.12
572.979	32434.88
573.177	32611
573.376	32371.39
573.574	32025.28
573.772	32328.38
573.971	32031.43
574.169	31963.84
574.367	31918.79
574.565	31802.05
574.763	31656.65
574.962	31650.5
575.16	31429.32
575.358	31554.25
575.556	30984.91
575.754	31593.16
575.952	31224.53
576.151	31556.3
576.349	31075.02
576.547	30986.96
576.745	30843.6
576.943	31023.83
577.141	30790.36
577.339	30718.68
577.537	30612.18
577.735	30560.98
577.933	30524.12
578.131	30816.98
578.329	30796.5
578.527	30137.05
578.725	30403.29
578.923	30610.14
579.121	29995.74
579.319	29715.17
579.516	30069.47
579.714	30083.81
579.912	29702.89
580.11	29469.42
580.308	29559.53
580.506	29643.49
580.704	29068.02
580.901	29371.11
581.099	29676.26
581.297	29256.43
581.495	28984.05
581.692	29434.6
581.89	29084.4
582.088	29534.95
582.285	29018.86
582.483	28961.52
582.681	28793.59
582.878	28603.13
583.076	28377.85
583.274	28922.61
583.471	28498.68
583.669	28467.96
583.866	28025.6
584.064	28541.69
584.262	27937.54
584.459	28242.68
584.657	27949.82
584.854	28211.96
585.052	27835.14
585.249	28039.93
585.447	28193.53
585.644	27716.36
585.841	27775.75
586.039	28271.36
586.236	27400.97
586.434	27566.85
586.631	27075.34
586.828	27360.01
587.026	27351.82
587.223	27050.77
587.42	27007.76
587.618	27034.38
587.815	27056.91
588.012	26983.18
588.21	26858.26
588.407	26958.61
588.604	26649.36
588.801	26534.68
588.999	26557.21
589.196	26303.26
589.393	26555.16
589.59	26329.88
589.787	26288.92
589.984	26223.39
590.182	25768.74
590.379	26127.13
590.576	25688.87
590.773	26090.27
590.97	25744.16
591.167	25776.93
591.364	25234.22
591.561	25834.27
591.758	25140.01
591.955	25463.59
592.152	25965.34
592.349	25289.51
592.546	25416.49
592.743	25537.32
592.94	24970.03
593.137	25135.92
593.334	24959.79
593.531	24601.4
593.727	25086.76
593.924	24642.35
594.121	24681.27
594.318	24523.57
594.515	24386.36
594.712	24660.79
594.908	24195.9
595.105	24296.25
595.302	24132.41
595.499	24300.34
595.696	24267.58
595.892	23847.74
596.089	24294.2
596.286	24175.42
596.482	23991.1
596.679	23763.78
596.876	23862.08
597.072	23378.76
597.269	23690.05
597.466	23405.38
597.662	23386.95
597.859	23239.5
598.055	23479.11
598.252	23573.31
598.448	23038.8
598.645	22815.57
598.841	22590.29
599.038	22872.91
599.234	22913.87
599.431	22686.54
599.627	22846.29
599.824	22745.94
600.02	22725.46
600.217	22750.03
600.413	22518.61
600.609	22465.36
600.806	22403.92
601.002	22469.46
601.198	22379.35
601.395	22072.15
601.591	22002.52
601.787	21910.36
601.984	21877.6
602.18	21863.26
602.376	21893.98
602.572	21574.5
602.769	21592.93
602.965	21476.19
603.161	21439.33
603.357	21449.57
603.553	21375.84
603.75	21412.71
603.946	21306.21
604.142	21427.04
604.338	21099.37
604.534	21220.2
604.73	20978.54
604.926	20730.73
605.122	21035.88
605.318	20964.2
605.514	21076.84
605.71	20614
605.906	20509.55
606.102	20736.88
606.298	20462.45
606.494	20534.13
606.69	20681.58
606.886	20509.55
607.082	20460.4
607.278	20599.66
607.474	20073.34
607.67	20265.85
607.866	20181.88
608.062	20239.22
608.257	20085.62
608.453	20028.28
608.649	20028.28
608.845	19551.1
609.041	19948.41
609.236	20077.43
609.432	19948.41
609.628	19919.74
609.824	20104.06
610.019	19766.14
610.215	19512.19
610.411	19704.7
610.606	19469.19
610.802	19665.79
610.998	19532.67
611.193	19469.19
611.389	19379.07
611.584	19497.86
611.78	19194.76
611.976	19020.68
612.171	19389.31
612.367	19301.25
612.562	19184.52
612.758	19059.59
612.953	18791.31
613.149	19133.32
613.344	18961.29
613.539	19319.68
613.735	19190.66
613.93	19094.41
614.126	18766.73
614.321	19043.21
614.517	18879.37
614.712	19008.39
614.907	18652.05
615.103	18992.01
615.298	18766.73
615.493	18670.48
615.688	18635.66
615.884	18744.2
616.079	18414.48
616.274	18494.35
616.47	18379.67
616.665	18348.95
616.86	18281.36
617.055	18125.72
617.25	18004.89
617.445	18518.93
617.641	18299.8
617.836	18326.42
618.031	17949.59
618.226	18324.37
618.421	17736.6
618.616	18221.97
618.811	17734.56
619.006	17718.17
619.201	17415.07
619.396	17779.61
619.591	17324.96
619.786	17550.24
619.981	17300.39
620.176	17839
620.371	17292.19
620.566	17353.63
620.761	17120.17
620.956	17140.65
621.151	16956.33
621.346	16935.85
621.541	16405.42
621.735	17079.21
621.93	16526.25
622.125	16624.56
622.32	16339.89
622.515	16266.16
622.709	16128.95
622.904	16405.42
623.099	16098.23
623.294	16249.78
623.488	16180.15
623.683	16174
623.878	15958.97
624.072	15938.49
624.267	15684.54
624.462	15666.11
624.656	15367.1
624.851	15545.28
625.046	15401.92
625.24	15545.28
625.435	15231.94
625.629	15078.34
625.824	14941.13
626.018	14879.69
626.213	14562.25
626.407	14769.1
626.602	14767.05
626.796	14738.38
626.991	14615.5
627.185	14480.33
627.38	14416.85
627.574	14091.22
627.768	14267.34
627.963	14021.59
628.157	14037.97
628.352	14011.35
628.546	13849.56
628.74	14134.23
628.935	13595.61
629.129	13712.35
629.323	13661.15
629.517	13611.99
629.712	13439.97
629.906	13360.09
630.1	13204.45
630.294	13208.55
630.489	12987.36
630.683	13224.93
630.877	12917.73
631.071	12987.36
631.265	13011.94
631.459	12794.86
631.653	12831.72
631.848	12837.86
632.042	12753.9
632.236	12733.42
632.43	12585.96
632.624	12432.36
632.818	12264.43
633.012	12190.7
633.206	12334.06
633.4	12182.51
633.594	11990
633.788	12151.79
633.982	12284.91
634.176	12088.31
634.369	11858.93
634.563	11975.67
634.757	11842.55
634.951	11867.13
635.145	11875.32
635.339	11828.21
635.533	11736.06
635.726	11555.83
635.92	11555.83
636.114	11385.85
636.308	11310.08
636.501	11181.06
636.695	11363.33
636.889	11187.2
637.083	10990.59
637.276	10996.74
637.47	11000.83
637.664	10863.62
637.857	10853.38
638.051	10843.14
638.244	10830.85
638.438	10890.24
638.632	10619.91
638.825	10421.26
639.019	10687.5
639.212	10650.63
639.406	10523.66
639.599	10384.4
639.793	10507.27
639.986	10351.63
640.18	10294.29
640.373	10216.46
640.567	9991.19
640.76	10228.75
640.954	9921.56
641.147	9948.18
641.34	10048.53
641.534	9616.41
641.727	9919.51
641.92	9804.82
642.114	9704.47
642.307	9632.79
642.5	9671.7
642.694	9528.35
642.887	9372.7
643.08	9520.15
643.273	9587.74
643.467	9444.38
643.66	9239.58
643.853	9335.84
644.046	9210.91
644.239	9182.24
644.432	9098.27
644.626	8889.38
644.819	8950.82
645.012	9120.8
645.205	9071.65
645.398	8862.76
645.591	8870.95
645.784	8682.53
645.977	8643.62
646.17	8664.1
646.363	8690.73
646.556	8420.39
646.749	8739.88
646.942	8520.74
647.135	8512.55
647.328	8184.88
647.521	8557.61
647.714	8369.19
647.907	8301.61
648.099	8168.49
648.292	8379.43
648.485	8090.67
648.678	7943.22
648.871	7910.45
649.064	8008.75
649.256	7918.64
649.449	7869.49
649.642	7779.38
649.835	7662.65
650.027	7801.91
650.22	7582.77
650.413	7736.37
650.605	7656.5
650.798	7531.58
650.991	7523.38
651.183	7537.72
651.376	7599.16
651.568	7480.38
651.761	7355.45
651.954	7588.92
652.146	7369.79
652.339	7418.94
652.531	7294.01
652.724	7140.41
652.916	7050.3
653.109	7099.45
653.301	6952
653.494	7240.76
653.686	6935.62
653.879	7095.36
654.071	7001.15
654.263	7023.68
654.456	6964.29
654.648	6775.88
654.84	6921.28
655.033	6706.24
655.225	6722.63
655.417	6548.55
655.61	6804.55
655.802	6648.9
655.994	6562.89
656.186	6575.17
656.379	6493.26
656.571	6515.78
656.763	6427.72
656.955	6288.46
657.148	6456.39
657.34	6509.64
657.532	6397
657.724	6392.91
657.916	6157.39
658.108	6460.49
658.3	6214.73
658.492	6237.26
658.684	6022.22
658.876	6038.61
659.068	5954.64
659.26	6075.47
659.452	6108.24
659.644	6091.85
659.836	6022.22
660.028	5905.49
660.22	5878.86
660.412	5821.52
660.604	5911.63
660.796	5948.5
660.988	5813.33
661.18	5626.96
661.372	5674.07
661.563	5706.84
661.755	5510.23
661.947	5534.81
662.139	5557.33
662.331	5649.49
662.522	5358.68
662.714	5379.16
662.906	5348.44
663.097	5473.37
663.289	5428.31
663.481	5332.06
663.673	5428.31
663.864	5243.99
664.056	5166.17
664.247	5188.7
664.439	5094.49
664.631	5071.97
664.822	5061.73
665.014	5086.3
665.205	5117.02
665.397	5084.25
665.588	5125.21
665.78	5051.49
665.971	4951.14
666.163	4977.76
666.354	5002.33
666.546	4858.98
666.737	4924.51
666.929	5059.68
667.12	4830.3
667.311	4908.13
667.503	4684.9
667.694	4889.7
667.885	4863.07
668.077	4668.52
668.268	4820.07
668.459	4783.2
668.651	4586.6
668.842	4588.64
669.033	4619.36
669.224	4658.28
669.416	4449.38
669.607	4428.9
669.798	4623.46
669.989	4645.99
670.18	4519.01
670.371	4412.52
670.563	4383.85
670.754	4463.72
670.945	4314.22
671.136	4551.78
671.327	4404.33
671.518	4330.6
671.709	4377.7
671.9	4281.45
672.091	4363.37
672.282	4287.59
672.473	4256.87
672.664	4250.73
672.855	4183.15
673.046	4201.58
673.237	4240.49
673.428	4273.26
673.619	4009.07
673.809	4076.65
674	4043.88
674.191	4115.56
674.382	4011.12
674.573	4101.23
674.764	3996.78
674.954	3904.62
675.145	3916.91
675.336	4002.93
675.527	3890.29
675.717	3961.97
675.908	3865.71
676.099	4004.97
676.289	3847.28
676.48	3769.46
676.671	3855.47
676.861	3896.43
677.052	3859.57
677.243	3839.09
677.433	3830.9
677.624	3703.92
677.814	3802.22
678.005	3804.27
678.195	3810.42
678.386	3798.13
678.576	3589.24
678.767	3685.49
678.957	3564.66
679.148	3816.56
679.338	3691.63
679.529	3630.2
679.719	3605.62
679.909	3753.07
680.1	3789.94
680.29	3601.52
680.481	3458.17
680.671	3572.85
680.861	3503.22
681.052	3544.18
681.242	3501.17
681.432	3579
681.622	3363.96
681.813	3464.31
682.003	3497.08
682.193	3339.38
682.383	3538.04
682.573	3470.45
682.764	3392.63
682.954	3488.89
683.144	3372.15
683.334	3273.85
683.524	3325.05
683.714	3294.33
683.904	3302.52
684.094	3261.56
684.284	3314.81
684.474	3402.87
684.664	3296.38
684.854	3263.61
685.044	3183.74
685.234	3269.75
685.424	3243.13
685.614	3193.98
685.804	3175.55
685.994	3269.75
686.184	3191.93
686.374	3284.09
686.564	3191.93
686.753	3183.74
686.943	3150.97
687.133	3077.24
687.323	2995.32
687.513	3204.22
687.702	2983.04
687.892	3112.06
688.082	3073.15
688.272	3110.01
688.461	3011.71
688.651	3007.61
688.841	3030.14
689.03	3028.09
689.22	2937.98
689.41	2970.75
689.599	2880.64
689.789	2972.8
689.979	2995.32
690.168	2966.65
690.358	2839.68
690.547	2901.12
690.737	2849.92
690.926	2792.58
691.116	2800.77
691.305	2872.45
691.495	2790.53
691.684	2839.68
691.874	2907.26
692.063	2718.85
692.252	2782.34
692.442	2864.25
692.631	2798.72
692.82	2753.66
693.01	2647.17
693.199	2698.37
693.388	2737.28
693.578	2716.8
693.767	2684.03
693.956	2720.9
694.146	2638.98
694.335	2563.2
694.524	2569.35
694.713	2622.59
694.902	2667.65
695.092	2534.53
695.281	2651.27
695.47	2585.73
695.659	2526.34
695.848	2583.68
696.037	2540.68
696.226	2522.24
696.415	2442.37
696.604	2411.65
696.793	2532.48
696.982	2464.9
697.171	2526.34
697.36	2495.62
697.549	2522.24
697.738	2479.24
697.927	2450.57
698.116	2397.32
698.305	2329.74
698.494	2495.62
698.683	2430.09
698.872	2536.58
699.061	2528.39
699.25	2430.09
699.438	2368.65
699.627	2333.83
699.816	2436.23
700.005	2311.3
700.193	2456.71
700.382	2524.29
700.571	2374.79
700.76	2430.09
700.948	2454.66
701.137	2450.57
701.326	2432.13
701.514	2219.14
701.703	2442.37
701.892	2299.02
702.08	2364.55
702.269	2479.24
702.457	2290.82
702.646	2423.94
702.834	2309.26
703.023	2235.53
703.212	2342.02
703.4	2327.69
703.589	2299.02
703.777	2454.66
703.965	2323.59
704.154	2268.3
704.342	2301.06
704.531	2276.49
704.719	2354.31
704.907	2321.54
705.096	2202.76
705.284	2325.64
705.472	2382.98
705.661	2286.73
705.849	2329.74
706.037	2282.63
706.226	2356.36
706.414	2454.66
706.602	2333.83
706.79	2315.4
706.979	2196.62
707.167	2276.49
707.355	2290.82
707.543	2327.69
707.731	2315.4
707.919	2296.97
708.107	2284.68
708.296	2159.75
708.484	2294.92
708.672	2227.34
708.86	2276.49
709.048	2315.4
709.236	2241.67
709.424	2360.45
709.612	2225.29
709.8	2299.02
709.988	2176.14
710.176	2311.3
710.364	2331.78
710.551	2198.67
710.739	2145.42
710.927	2167.95
711.115	2176.14
711.303	2266.25
711.491	2176.14
711.679	2030.73
711.866	2208.9
712.054	2172.04
712.242	2239.62
712.43	2192.52
712.617	2325.64
712.805	2262.15
712.993	2213
713.181	2112.65
713.368	2274.44
713.556	2294.92
713.744	2155.66
713.931	2260.1
714.119	2176.14
714.306	2225.29
714.494	2233.48
714.682	2184.33
714.869	2301.06
715.057	2186.38
715.244	2094.22
715.432	2215.05
715.619	2133.13
715.807	2280.58
715.994	2110.6
716.182	2174.09
716.369	2260.1
716.556	2129.03
716.744	2102.41
716.931	2153.61
717.119	2284.68
717.306	2120.84
717.493	2233.48
717.681	2126.99
717.868	2167.95
718.055	2098.31
718.242	2124.94
718.43	2147.47
718.617	2188.43
718.804	2188.43
718.991	2225.29
719.179	2270.34
719.366	2239.62
719.553	2241.67
719.74	2000.01
719.927	2208.9
720.114	2219.14
720.301	2098.31
720.488	2063.5
720.676	2047.12
720.863	2196.62
721.05	2227.34
721.237	2094.22
721.424	2079.88
721.611	2151.56
721.798	2145.42
721.985	2153.61
722.172	2012.3
722.358	2129.03
722.545	2219.14
722.732	2169.99
722.919	2176.14
723.106	2079.88
723.293	2118.79
723.48	2192.52
723.667	2053.26
723.853	2024.59
724.04	2167.95
724.227	2120.84
724.414	2081.93
724.6	2147.47
724.787	2143.37
724.974	2159.75
725.161	2069.64
725.347	2028.68
725.534	2196.62
725.72	2192.52
725.907	2032.78
726.094	2079.88
726.28	2143.37
726.467	2233.48
726.653	1971.34
726.84	2176.14
727.027	2059.4
727.213	1985.68
727.4	2137.23
727.586	2086.03
727.773	2161.8
727.959	2053.26
728.145	2147.47
728.332	2182.28
728.518	2106.51
728.705	2137.23
728.891	2032.78
729.077	2137.23
729.264	2061.45
729.45	2106.51
729.636	2135.18
729.823	1983.63
730.009	1979.53
730.195	2086.03
730.382	2112.65
730.568	2038.92
730.754	2024.59
730.94	2049.16
731.126	2081.93
731.313	2217.1
731.499	2077.83
731.685	2315.4
731.871	2159.75
732.057	2114.7
732.243	2038.92
732.429	2045.07
732.615	2149.51
732.801	2086.03
732.987	2030.73
733.173	1979.53
733.359	2022.54
733.545	2088.07
733.731	2073.74
733.917	2040.97
734.103	2102.41
734.289	1995.92
734.475	2114.7
734.661	2065.55
734.847	2110.6
735.033	2000.01
735.219	2006.16
735.404	1942.67
735.59	1981.58
735.776	2088.07
735.962	1950.86
736.148	2008.2
736.333	2129.03
736.519	2065.55
736.705	1932.43
736.89	2006.16
737.076	1963.15
737.262	1977.48
737.447	1954.96
737.633	2057.36
737.819	1995.92
738.004	2022.54
738.19	2077.83
738.375	1957
738.561	2063.5
738.747	1954.96
738.932	1914
739.118	2077.83
739.303	1989.77
739.489	1963.15
739.674	1905.81
739.859	1905.81
740.045	1920.14
740.23	1973.39
740.416	1848.46
740.601	1922.19
740.786	1881.23
740.972	1891.47
741.157	1875.09
741.342	1873.04
741.528	1889.42
741.713	1875.09
741.898	1928.33
742.084	1905.81
742.269	1905.81
742.454	1893.52
742.639	1881.23
742.824	1817.74
743.01	1873.04
743.195	1873.04
743.38	1774.74
743.565	1873.04
743.75	1852.56
743.935	1842.32
744.12	1864.85
744.305	1752.21
744.49	1784.98
744.675	1750.16
744.86	1766.54
745.045	1717.39
745.23	1782.93
745.415	1690.77
745.6	1819.79
745.785	1686.67
745.97	1688.72
746.155	1727.63
746.34	1762.45
746.525	1789.07
746.71	1723.54
746.895	1713.3
747.079	1614.99
747.264	1701.01
747.449	1594.51
747.634	1741.97
747.819	1703.06
748.003	1637.52
748.188	1639.57
748.373	1647.76
748.557	1629.33
748.742	1637.52
748.927	1526.93
749.111	1559.7
749.296	1561.75
749.481	1653.91
749.665	1510.55
749.85	1668.24
750.034	1592.47
750.219	1551.51
750.404	1528.98
750.588	1547.41
750.773	1465.49
750.957	1526.93
751.141	1508.5
751.326	1496.21
751.51	1406.1
751.695	1494.16
751.879	1502.36
752.064	1447.06
752.248	1447.06
752.432	1516.69
752.617	1389.72
752.801	1404.05
752.985	1381.53
753.17	1361.05
753.354	1369.24
753.538	1381.53
753.722	1350.81
753.907	1356.95
754.091	1324.18
754.275	1275.03
754.459	1244.31
754.643	1350.81
754.828	1270.94
755.012	1293.46
755.196	1244.31
755.38	1279.13
755.564	1266.84
755.748	1219.74
755.932	1209.5
756.116	1211.54
756.3	1209.5
756.484	1238.17
756.668	1209.5
756.852	1227.93
757.036	1277.08
757.22	1277.08
757.404	1182.87
757.588	1236.12
757.772	1258.65
757.956	1229.98
758.14	1113.24
758.323	1088.67
758.507	1103
758.691	1127.58
758.875	1066.14
759.059	1199.26
759.242	1072.28
759.426	1146.01
759.61	1080.47
759.794	1070.23
759.977	1096.86
760.161	1184.92
760.345	1168.54
760.528	1168.54
760.712	1016.99
760.895	1064.09
761.079	1119.39
761.263	1055.9
761.446	1023.13
761.63	1105.05
761.813	1031.32
761.997	1000.6
762.18	959.64
762.364	1033.37
762.547	877.73
762.731	957.6
762.914	988.32
763.098	1033.37
763.281	943.26
763.464	1025.18
763.648	1039.51
763.831	990.36
764.015	955.55
764.198	885.92
764.381	935.07
764.564	945.31
764.748	951.45
764.931	1039.51
765.114	914.59
765.297	1019.04
765.481	971.93
765.664	1023.13
765.847	926.88
766.03	908.44
766.213	941.21
766.397	930.97
766.58	916.64
766.763	941.21
766.946	939.16
767.129	875.68
767.312	922.78
767.495	853.15
767.678	894.11
767.861	879.77
768.044	892.06
768.227	933.02
768.41	906.4
768.593	873.63
768.776	836.77
768.959	906.4
769.142	930.97
769.324	816.29
769.507	883.87
769.69	842.91
769.873	785.57
770.056	926.88
770.239	916.64
770.421	822.43
770.604	840.86
770.787	849.05
770.97	795.81
771.152	799.9
771.335	801.95
771.518	808.09
771.7	826.53
771.883	849.05
772.066	791.71
772.248	808.09
772.431	787.61
772.613	773.28
772.796	775.33
772.978	795.81
773.161	943.26
773.343	840.86
773.526	865.44
773.708	787.61
773.891	679.07
774.073	758.94
774.256	756.9
774.438	744.61
774.621	738.46
774.803	701.6
774.985	738.46
775.168	777.37
775.35	771.23
775.532	707.74
775.715	724.13
775.897	705.7
776.079	775.33
776.261	736.42
776.444	670.88
776.626	677.02
776.808	740.51
776.99	662.69
777.173	738.46
777.355	644.26
777.537	709.79
777.719	746.66
777.901	677.02
778.083	701.6
778.265	601.25
778.447	742.56
778.629	619.68
778.811	638.11
778.993	654.5
779.175	681.12
779.357	525.47
779.539	609.44
779.721	582.82
779.903	564.39
780.085	601.25
780.267	660.64
780.449	599.2
780.631	570.53
780.812	564.39
780.994	578.72
781.176	607.39
781.358	517.28
781.54	562.34
781.721	541.86
781.903	521.38
782.085	619.68
782.267	578.72
782.448	554.15
782.63	466.08
782.812	527.52
782.993	472.23
783.175	496.8
783.357	496.8
783.538	591.01
783.72	457.89
783.901	464.04
784.083	517.28
784.264	570.53
784.446	535.71
784.627	478.37
784.809	402.6
784.99	486.56
785.172	507.04
785.353	480.42
785.535	480.42
785.716	449.7
785.897	482.47
786.079	541.86
786.26	423.08
786.441	441.51
786.623	504.99
786.804	464.04
786.985	349.35
787.167	504.99
787.348	359.59
787.529	443.56
787.71	451.75
787.891	418.98
788.073	423.08
788.254	373.92
788.435	498.85
788.616	404.64
788.797	416.93
788.978	451.75
789.159	398.5
789.34	433.32
789.522	382.12
789.703	382.12
789.884	416.93
790.065	414.88
790.246	447.65
790.427	365.73
790.607	441.51
790.788	353.45
790.969	253.09
791.15	404.64
791.331	382.12
791.512	373.92
791.693	328.87
791.874	433.32
792.054	455.84
792.235	390.31
792.416	304.29
792.597	400.55
792.778	332.97
792.958	365.73
793.139	308.39
793.32	390.31
793.5	412.84
793.681	382.12
793.862	423.08
794.042	275.62
794.223	257.19
794.404	310.44
794.584	283.81
794.765	267.43
794.945	365.73
795.126	330.92
795.306	378.02
795.487	345.25
795.667	285.86
795.848	400.55
796.028	300.2
796.209	271.53
796.389	300.2
796.57	285.86
796.75	283.81
796.93	355.49
797.111	253.09
797.291	310.44
797.471	400.55
797.652	242.85
797.832	332.97
798.012	308.39
798.192	230.57
798.373	300.2
798.553	341.16
798.733	324.77
798.913	294.05
799.093	283.81
799.274	294.05
799.454	345.25
799.634	214.18
799.814	292.01
799.994	292.01
800.174	277.67
800.354	292.01
800.534	308.39
800.714	285.86
800.894	267.43
801.074	218.28
801.254	177.32
801.434	300.2
801.614	212.14
801.794	244.9
801.974	834.72
802.154	271.53
802.334	267.43
802.514	181.42
802.693	193.7
802.873	259.24
803.053	255.14
803.233	246.95
803.413	179.37
803.592	234.66
803.772	187.56
803.952	193.7
804.131	283.81
804.311	251.05
804.491	257.19
804.67	210.09
804.85	234.66
805.03	246.95
805.209	292.01
805.389	267.43
805.568	179.37
805.748	234.66
805.928	171.18
806.107	253.09
806.287	269.48
806.466	236.71
806.646	203.94
806.825	224.42
807.004	220.33
807.184	169.13
807.363	296.1
807.543	201.9
807.722	128.17
807.901	169.13
808.081	193.7
808.26	119.98
808.439	162.98
808.619	187.56
808.798	201.9
808.977	195.75
809.156	236.71
809.336	193.7
809.515	246.95
809.694	171.18
809.873	193.7
810.052	156.84
810.231	240.81
810.411	181.42
810.59	234.66
810.769	179.37
810.948	226.47
811.127	103.59
811.306	199.85
811.485	148.65
811.664	234.66
811.843	130.22
812.022	251.05
812.201	64.68
812.38	203.94
812.559	148.65
812.737	171.18
812.916	220.33
813.095	119.98
813.274	132.26
813.453	101.55
813.632	154.79
813.811	107.69
813.989	128.17
814.168	220.33
814.347	169.13
814.526	140.46
814.704	177.32
814.883	115.88
815.062	124.07
815.24	185.51
815.419	62.63
815.598	179.37
815.776	138.41
815.955	203.94
816.133	130.22
816.312	156.84
816.49	195.75
816.669	144.55
816.847	126.12
817.026	132.26
817.204	136.36
817.383	169.13
817.561	62.63
817.74	165.03
817.918	87.21
818.097	195.75
818.275	103.59
818.453	122.02
818.632	142.5
818.81	169.13
818.988	79.02
819.167	160.94
819.345	115.88
819.523	169.13
819.701	70.83
819.879	169.13
820.058	156.84
820.236	132.26
820.414	132.26
820.592	83.11
820.77	103.59
820.948	124.07
821.127	99.5
821.305	152.74
821.483	83.11
821.661	169.13
821.839	111.78
822.017	58.54
822.195	177.32
822.373	128.17
822.551	64.68
822.729	193.7
822.907	154.79
823.085	48.3
823.262	171.18
823.44	132.26
823.618	62.63
823.796	146.6
823.974	160.94
824.152	64.68
824.329	132.26
824.507	101.55
824.685	189.61
824.863	185.51
825.04	136.36
825.218	111.78
825.396	76.97
825.574	222.38
825.751	169.13
825.929	152.74
826.107	91.31
826.284	83.11
826.462	107.69
826.639	128.17
826.817	81.07
826.994	81.07
827.172	117.93
827.349	111.78
827.527	144.55
827.704	136.36
827.882	144.55
828.059	181.42
828.237	113.83
828.414	70.83
828.591	66.73
828.769	122.02
828.946	79.02
829.124	113.83
829.301	115.88
829.478	58.54
829.655	79.02
829.833	152.74
830.01	54.44
830.187	89.26
830.364	119.98
830.542	93.35
830.719	156.84
830.896	132.26
831.073	105.64
831.25	136.36
831.427	97.45
831.604	105.64
831.782	5.29
831.959	74.92
832.136	119.98
832.313	111.78
832.49	70.83
832.667	87.21
832.844	83.11
833.021	89.26
833.198	62.63
833.374	-17.24
833.551	64.68
833.728	99.5
833.905	160.94
834.082	15.53
834.259	38.06
834.436	152.74
834.612	29.87
834.789	103.59
834.966	144.55
835.143	42.15
835.319	72.87
835.496	142.5
835.673	128.17
835.85	99.5
836.026	95.4
836.203	101.55
836.38	56.49
836.556	119.98
836.733	95.4
836.909	195.75
837.086	66.73
837.262	52.39
837.439	105.64
837.616	38.06
837.792	46.25
837.968	103.59
838.145	81.07
838.321	56.49
838.498	138.41
838.674	124.07
838.851	81.07
839.027	1.19
839.203	72.87
839.38	113.83
839.556	33.96
839.732	17.58
839.909	79.02
840.085	187.56
840.261	64.68
840.437	101.55
840.614	70.83
840.79	152.74
840.966	40.11
841.142	38.06
841.318	105.64
841.494	46.25
841.671	113.83
841.847	72.87
842.023	54.44
842.199	89.26
842.375	107.69
842.551	17.58
842.727	111.78
842.903	144.55
843.079	44.2
843.255	97.45
843.431	136.36
843.607	138.41
843.783	23.72
843.959	5.29
844.134	-0.85
844.31	70.83
844.486	103.59
844.662	25.77
844.838	103.59
845.013	50.35
845.189	40.11
845.365	95.4
845.541	29.87
845.716	111.78
845.892	97.45
846.068	-19.29
846.244	79.02
846.419	29.87
846.595	-0.85
846.77	56.49
846.946	56.49
847.122	40.11
847.297	27.82
847.473	136.36
847.648	48.3
847.824	130.22
847.999	23.72
848.175	70.83
848.35	105.64
848.526	117.93
848.701	76.97
848.876	38.06
849.052	132.26
849.227	70.83
849.403	99.5
849.578	-11.09
849.753	62.63
849.929	1.19
850.104	56.49
850.279	70.83
850.454	44.2
850.63	81.07
850.805	50.35
850.98	13.48
851.155	38.06
851.33	87.21
851.505	91.31
851.681	97.45
851.856	48.3
852.031	44.2
852.206	103.59
852.381	25.77
852.556	54.44
852.731	54.44
852.906	58.54
853.081	87.21
853.256	117.93
853.431	111.78
853.606	36.01
853.781	70.83
853.956	29.87
854.131	119.98
854.305	38.06
854.48	66.73
854.655	42.15
854.83	5.29
855.005	9.39
855.18	87.21
855.354	-60.24
855.529	103.59
855.704	46.25
855.879	105.64
856.053	64.68
856.228	19.63
856.403	5.29
856.577	60.59
856.752	93.35
856.926	58.54
857.101	40.11
857.276	-9.05
857.45	5.29
857.625	93.35
857.799	9.39
857.974	17.58
858.148	31.91
858.323	23.72
858.497	97.45
858.672	33.96
858.846	48.3
859.02	7.34
859.195	21.67
859.369	74.92
859.543	46.25
859.718	29.87
859.892	79.02
860.066	122.02
860.241	79.02
860.415	72.87
860.589	97.45
860.763	-2.9
860.938	87.21
861.112	-19.29
861.286	81.07
861.46	17.58
861.634	81.07
861.808	136.36
861.982	46.25
862.157	40.11
862.331	70.83
862.505	36.01
862.679	56.49
862.853	40.11
863.027	36.01
863.201	128.17
863.375	38.06
863.549	105.64
863.722	111.78
863.896	87.21
864.07	97.45
864.244	-19.29
864.418	111.78
864.592	87.21
864.766	21.67
864.939	70.83
865.113	19.63
865.287	48.3
865.461	-0.85
865.634	74.92
865.808	52.39
865.982	107.69
866.156	62.63
866.329	29.87
866.503	48.3
866.676	136.36
866.85	23.72
867.024	60.59
867.197	107.69
867.371	97.45
867.544	1.19
867.718	-2.9
867.891	42.15
868.065	46.25
868.238	46.25
868.412	103.59
868.585	70.83
868.759	54.44
868.932	68.78
869.105	7.34
869.279	42.15
869.452	38.06
869.625	64.68
869.799	-11.09
869.972	13.48
870.145	81.07
870.319	101.55
870.492	50.35
870.665	62.63
870.838	29.87
871.011	-41.81
871.185	-64.34
871.358	-19.29
871.531	29.87
871.704	-11.09
871.877	-19.29
872.05	56.49
872.223	5.29
872.396	46.25
872.569	70.83
872.742	13.48
872.915	56.49
873.088	27.82
873.261	-37.72
873.434	-25.43
873.607	81.07
873.78	11.43
873.953	42.15
874.126	13.48
874.299	25.77
874.471	23.72
874.644	48.3
874.817	111.78
874.99	107.69
875.163	-7
875.335	76.97
875.508	50.35
875.681	97.45
875.853	54.44
876.026	46.25
876.199	50.35
876.371	-17.24
876.544	-11.09
876.717	38.06
876.889	103.59
877.062	40.11
877.234	-31.57
877.407	29.87
877.579	40.11
877.752	54.44
877.924	15.53
878.097	136.36
878.269	68.78
878.442	111.78
878.614	72.87
878.786	21.67
878.959	72.87
879.131	-11.09
879.303	-41.81
879.476	-19.29
879.648	13.48
879.82	-52.05
879.993	42.15
880.165	-25.43
880.337	38.06
880.509	54.44
880.681	-4.95
880.854	-31.57
881.026	38.06
881.198	81.07
881.37	46.25
881.542	38.06
881.714	62.63
881.886	-9.05
882.058	-19.29
882.23	38.06
882.402	21.67
882.574	29.87
882.746	62.63
882.918	66.73
883.09	62.63
883.262	17.58
883.434	29.87
883.606	-43.86
883.778	76.97
883.95	97.45
884.122	27.82
884.293	-43.86
884.465	27.82
884.637	21.67
884.809	5.29
884.98	23.72
885.152	-19.29
885.324	25.77
885.496	13.48
885.667	13.48
885.839	62.63
886.011	87.21
886.182	-9.05
886.354	148.65
886.525	15.53
886.697	-7
886.869	-31.57
887.04	122.02
887.212	66.73
887.383	29.87
887.555	29.87
887.726	21.67
887.897	40.11
888.069	38.06
888.24	46.25
888.412	5.29
888.583	-27.48
888.754	79.02
888.926	-47.96
889.097	-13.14
889.268	-33.62
889.44	62.63
889.611	-9.05
889.782	87.21
889.953	-47.96
890.125	87.21
890.296	17.58
890.467	13.48
890.638	7.34
890.809	-2.9
890.98	25.77
891.151	-25.43
891.323	76.97
891.494	50.35
891.665	19.63
891.836	25.77
892.007	27.82
892.178	1.19
892.349	31.91
892.52	13.48
892.691	21.67
892.862	29.87
893.032	29.87
893.203	29.87
893.374	17.58
893.545	-19.29
893.716	1.19
893.887	21.67
894.057	50.35
894.228	-23.38
894.399	13.48
894.57	29.87
894.74	85.16
894.911	111.78
895.082	97.45
895.253	7.34
895.423	42.15
895.594	21.67
895.764	-47.96
895.935	-84.82
896.106	54.44
896.276	62.63
896.447	7.34
896.617	48.3
896.788	-17.24
896.958	23.72
897.129	13.48
897.299	76.97
897.47	81.07
897.64	40.11
897.81	23.72
897.981	54.44
898.151	31.91
898.322	23.72
898.492	54.44
898.662	-0.85
898.832	31.91
899.003	83.11
899.173	60.59
899.343	17.58
899.513	72.87
