Data from USB4F104151__9__14-42-33-929.txt Node

Date: Thu Mar 13 14:42:33 EDT 2025
User: louis
Spectrometer: USB4F10415
Trigger mode: 4
Integration Time (sec): 2.000000E-2
Scans to average: 1
Electric dark correction enabled: true
Nonlinearity correction enabled: false
Boxcar width: 0
XAxis mode: Wavelengths
Number of Pixels in Spectrum: 3648
>>>>>Begin Spectral Data<<<<<
178.204	-112.13
178.424	-112.13
178.644	-112.13
178.864	-140.8
179.084	-67.07
179.304	-44.54
179.524	18.94
179.744	-34.3
179.964	0.51
180.184	18.94
180.404	-5.63
180.624	80.38
180.844	2.56
181.064	2.56
181.283	-87.55
181.503	-38.4
181.723	86.53
181.943	-1.54
182.163	49.66
182.383	-24.06
182.602	43.52
182.822	6.66
183.042	43.52
183.262	27.14
183.482	104.96
183.701	-7.68
183.921	27.14
184.141	-19.97
184.361	27.14
184.58	27.14
184.8	55.81
185.02	10.75
185.239	-22.02
185.459	4.61
185.679	59.9
185.898	10.75
186.118	47.62
186.338	-5.63
186.557	53.76
186.777	23.04
186.997	64
187.216	-28.16
187.436	80.38
187.655	10.75
187.875	78.33
188.095	59.9
188.314	59.9
188.534	45.57
188.753	121.34
188.973	66.05
189.192	-13.82
189.412	18.94
189.631	-17.92
189.851	27.14
190.07	33.28
190.29	43.52
190.509	43.52
190.729	27.14
190.948	-24.06
191.168	78.33
191.387	53.76
191.607	-11.78
191.826	27.14
192.045	64
192.265	-3.58
192.484	109.05
192.704	31.23
192.923	-38.4
193.142	84.48
193.362	51.71
193.581	88.57
193.8	55.81
194.02	84.48
194.239	39.42
194.458	51.71
194.678	29.18
194.897	-1.54
195.116	-9.73
195.335	18.94
195.555	35.33
195.774	-5.63
195.993	-22.02
196.212	39.42
196.432	10.75
196.651	0.51
196.87	-28.16
197.089	104.96
197.308	72.19
197.528	41.47
197.747	-65.02
197.966	47.62
198.185	125.44
198.404	-26.11
198.623	47.62
198.842	31.23
199.062	20.99
199.281	4.61
199.5	-77.31
199.719	35.33
199.938	59.9
200.157	61.95
200.376	74.24
200.595	-30.21
200.814	31.23
201.033	33.28
201.252	16.9
201.471	-42.5
201.69	10.75
201.909	-11.78
202.128	59.9
202.347	18.94
202.566	4.61
202.785	94.72
203.004	-1.54
203.223	43.52
203.442	-34.3
203.661	-17.92
203.879	4.61
204.098	27.14
204.317	37.38
204.536	-17.92
204.755	35.33
204.974	64
205.193	-58.88
205.411	107.01
205.63	12.8
205.849	72.19
206.068	31.23
206.287	-3.58
206.505	43.52
206.724	4.61
206.943	68.09
207.162	14.85
207.381	51.71
207.599	55.81
207.818	84.48
208.037	20.99
208.255	-7.68
208.474	-46.59
208.693	51.71
208.911	18.94
209.13	18.94
209.349	23.04
209.567	51.71
209.786	45.57
210.005	72.19
210.223	-11.78
210.442	-3.58
210.661	61.95
210.879	41.47
211.098	16.9
211.316	70.14
211.535	102.91
211.753	-11.78
211.972	6.66
212.191	76.29
212.409	64
212.628	59.9
212.846	-26.11
213.065	-3.58
213.283	92.67
213.502	-13.82
213.72	61.95
213.938	-34.3
214.157	59.9
214.375	-1.54
214.594	-30.21
214.812	33.28
215.031	37.38
215.249	-17.92
215.467	59.9
215.686	-13.82
215.904	25.09
216.122	20.99
216.341	80.38
216.559	4.61
216.778	31.23
216.996	4.61
217.214	35.33
217.432	-26.11
217.651	4.61
217.869	12.8
218.087	35.33
218.306	45.57
218.524	-38.4
218.742	14.85
218.96	66.05
219.179	10.75
219.397	2.56
219.615	14.85
219.833	35.33
220.051	49.66
220.27	16.9
220.488	-5.63
220.706	23.04
220.924	76.29
221.142	-32.26
221.36	2.56
221.578	12.8
221.796	-9.73
222.015	2.56
222.233	68.09
222.451	4.61
222.669	35.33
222.887	86.53
223.105	31.23
223.323	41.47
223.541	-42.5
223.759	37.38
223.977	-5.63
224.195	59.9
224.413	59.9
224.631	39.42
224.849	43.52
225.067	137.73
225.285	59.9
225.503	-52.74
225.721	-54.78
225.939	96.77
226.157	39.42
226.375	76.29
226.592	4.61
226.81	55.81
227.028	88.57
227.246	43.52
227.464	59.9
227.682	88.57
227.9	-3.58
228.117	92.67
228.335	-19.97
228.553	76.29
228.771	18.94
228.989	35.33
229.206	33.28
229.424	27.14
229.642	61.95
229.86	-1.54
230.077	-7.68
230.295	57.86
230.513	96.77
230.731	68.09
230.948	37.38
231.166	94.72
231.384	29.18
231.601	-11.78
231.819	35.33
232.037	6.66
232.254	53.76
232.472	47.62
232.689	51.71
232.907	27.14
233.125	47.62
233.342	27.14
233.56	-3.58
233.777	14.85
233.995	-1.54
234.213	76.29
234.43	43.52
234.648	41.47
234.865	29.18
235.083	35.33
235.3	57.86
235.518	76.29
235.735	78.33
235.953	61.95
236.17	10.75
236.388	20.99
236.605	-19.97
236.822	76.29
237.04	25.09
237.257	51.71
237.475	-11.78
237.692	47.62
237.909	-38.4
238.127	29.18
238.344	43.52
238.562	64
238.779	-5.63
238.996	51.71
239.214	76.29
239.431	-9.73
239.648	20.99
239.865	12.8
240.083	84.48
240.3	78.33
240.517	68.09
240.735	-9.73
240.952	20.99
241.169	-30.21
241.386	-7.68
241.603	49.66
241.821	-5.63
242.038	27.14
242.255	51.71
242.472	45.57
242.689	27.14
242.907	59.9
243.124	68.09
243.341	-9.73
243.558	-13.82
243.775	-5.63
243.992	10.75
244.209	10.75
244.426	31.23
244.643	76.29
244.86	68.09
245.078	20.99
245.295	-46.59
245.512	35.33
245.729	37.38
245.946	61.95
246.163	68.09
246.38	-17.92
246.597	-13.82
246.814	-19.97
247.031	16.9
247.248	-44.54
247.464	53.76
247.681	4.61
247.898	51.71
248.115	49.66
248.332	-38.4
248.549	10.75
248.766	66.05
248.983	43.52
249.2	78.33
249.417	76.29
249.633	-5.63
249.85	47.62
250.067	4.61
250.284	109.05
250.501	68.09
250.717	27.14
250.934	-44.54
251.151	10.75
251.368	-38.4
251.585	86.53
251.801	49.66
252.018	49.66
252.235	125.44
252.451	68.09
252.668	41.47
252.885	29.18
253.102	84.48
253.318	-50.69
253.535	51.71
253.752	-1.54
253.968	-11.78
254.185	2.56
254.401	113.15
254.618	-7.68
254.835	-9.73
255.051	47.62
255.268	-22.02
255.484	61.95
255.701	31.23
255.917	125.44
256.134	27.14
256.351	29.18
256.567	-52.74
256.784	10.75
257	2.56
257.217	-46.59
257.433	49.66
257.65	47.62
257.866	35.33
258.082	-32.26
258.299	61.95
258.515	35.33
258.732	-19.97
258.948	10.75
259.165	27.14
259.381	43.52
259.597	78.33
259.814	64
260.03	74.24
260.246	82.43
260.463	29.18
260.679	80.38
260.895	49.66
261.112	10.75
261.328	4.61
261.544	4.61
261.761	109.05
261.977	-3.58
262.193	-17.92
262.409	-28.16
262.626	43.52
262.842	78.33
263.058	-11.78
263.274	68.09
263.49	-62.98
263.707	121.34
263.923	-22.02
264.139	4.61
264.355	39.42
264.571	88.57
264.787	-9.73
265.004	64
265.22	6.66
265.436	2.56
265.652	-62.98
265.868	-30.21
266.084	-46.59
266.3	51.71
266.516	-7.68
266.732	-24.06
266.948	43.52
267.164	10.75
267.38	37.38
267.596	23.04
267.812	111.1
268.028	47.62
268.244	23.04
268.46	-9.73
268.676	59.9
268.892	53.76
269.108	-13.82
269.324	76.29
269.54	-5.63
269.756	43.52
269.972	-30.21
270.188	51.71
270.403	4.61
270.619	49.66
270.835	55.81
271.051	88.57
271.267	-32.26
271.483	78.33
271.698	61.95
271.914	20.99
272.13	-11.78
272.346	47.62
272.562	49.66
272.777	74.24
272.993	18.94
273.209	-17.92
273.425	72.19
273.64	18.94
273.856	2.56
274.072	68.09
274.287	10.75
274.503	53.76
274.719	31.23
274.934	31.23
275.15	-3.58
275.366	68.09
275.581	-5.63
275.797	109.05
276.012	2.56
276.228	-22.02
276.444	109.05
276.659	102.91
276.875	-44.54
277.09	43.52
277.306	-11.78
277.521	-30.21
277.737	16.9
277.952	6.66
278.168	74.24
278.383	20.99
278.599	61.95
278.814	-5.63
279.03	-15.87
279.245	59.9
279.461	27.14
279.676	-3.58
279.892	-54.78
280.107	-46.59
280.322	-46.59
280.538	55.81
280.753	68.09
280.969	88.57
281.184	59.9
281.399	100.86
281.615	-15.87
281.83	59.9
282.045	37.38
282.26	23.04
282.476	31.23
282.691	4.61
282.906	78.33
283.122	-13.82
283.337	-7.68
283.552	-36.35
283.767	0.51
283.983	16.9
284.198	20.99
284.413	2.56
284.628	-13.82
284.843	43.52
285.058	104.96
285.274	66.05
285.489	-22.02
285.704	70.14
285.919	57.86
286.134	68.09
286.349	43.52
286.564	35.33
286.779	59.9
286.995	37.38
287.21	-22.02
287.425	53.76
287.64	-48.64
287.855	68.09
288.07	-34.3
288.285	61.95
288.5	35.33
288.715	125.44
288.93	100.86
289.145	18.94
289.36	72.19
289.575	-9.73
289.79	2.56
290.004	-62.98
290.219	84.48
290.434	-38.4
290.649	27.14
290.864	35.33
291.079	-1.54
291.294	18.94
291.509	119.29
291.724	2.56
291.938	25.09
292.153	51.71
292.368	31.23
292.583	51.71
292.798	43.52
293.012	-32.26
293.227	8.7
293.442	8.7
293.657	51.71
293.871	86.53
294.086	88.57
294.301	88.57
294.516	0.51
294.73	-24.06
294.945	-52.74
295.16	8.7
295.374	92.67
295.589	109.05
295.804	-26.11
296.018	-1.54
296.233	88.57
296.447	59.9
296.662	-42.5
296.877	59.9
297.091	45.57
297.306	68.09
297.52	-7.68
297.735	29.18
297.949	23.04
298.164	84.48
298.378	-19.97
298.593	-19.97
298.807	20.99
299.022	74.24
299.236	47.62
299.451	68.09
299.665	-44.54
299.88	76.29
300.094	6.66
300.309	-9.73
300.523	61.95
300.737	-54.78
300.952	72.19
301.166	43.52
301.381	-24.06
301.595	35.33
301.809	14.85
302.024	53.76
302.238	37.38
302.452	35.33
302.667	-3.58
302.881	135.68
303.095	43.52
303.309	82.43
303.524	4.61
303.738	55.81
303.952	0.51
304.166	125.44
304.381	-28.16
304.595	96.77
304.809	0.51
305.023	29.18
305.237	29.18
305.452	-22.02
305.666	-22.02
305.88	74.24
306.094	45.57
306.308	27.14
306.522	100.86
306.736	43.52
306.95	76.29
307.164	-71.17
307.379	59.9
307.593	100.86
307.807	82.43
308.021	61.95
308.235	10.75
308.449	2.56
308.663	-19.97
308.877	158.21
309.091	61.95
309.305	55.81
309.519	4.61
309.733	45.57
309.947	4.61
310.161	2.56
310.374	-17.92
310.588	68.09
310.802	27.14
311.016	29.18
311.23	20.99
311.444	86.53
311.658	45.57
311.872	86.53
312.085	96.77
312.299	35.33
312.513	78.33
312.727	-46.59
312.941	12.8
313.154	37.38
313.368	-5.63
313.582	35.33
313.796	-1.54
314.009	2.56
314.223	27.14
314.437	4.61
314.651	92.67
314.864	-13.82
315.078	14.85
315.292	-5.63
315.505	64
315.719	43.52
315.933	-22.02
316.146	-9.73
316.36	-101.89
316.573	68.09
316.787	10.75
317.001	29.18
317.214	4.61
317.428	68.09
317.641	-34.3
317.855	27.14
318.068	35.33
318.282	109.05
318.495	84.48
318.709	51.71
318.922	35.33
319.136	86.53
319.349	53.76
319.563	70.14
319.776	80.38
319.99	20.99
320.203	100.86
320.417	66.05
320.63	78.33
320.843	61.95
321.057	68.09
321.27	-13.82
321.483	10.75
321.697	86.53
321.91	35.33
322.124	53.76
322.337	20.99
322.55	72.19
322.763	8.7
322.977	72.19
323.19	18.94
323.403	-5.63
323.617	-11.78
323.83	59.9
324.043	43.52
324.256	51.71
324.469	31.23
324.683	90.62
324.896	51.71
325.109	0.51
325.322	76.29
325.535	141.82
325.748	70.14
325.962	-13.82
326.175	66.05
326.388	20.99
326.601	-30.21
326.814	-5.63
327.027	20.99
327.24	129.53
327.453	-22.02
327.666	-13.82
327.879	4.61
328.092	51.71
328.305	2.56
328.518	-3.58
328.731	43.52
328.944	109.05
329.157	68.09
329.37	51.71
329.583	82.43
329.796	109.05
330.009	14.85
330.222	47.62
330.435	31.23
330.648	39.42
330.861	20.99
331.073	70.14
331.286	33.28
331.499	6.66
331.712	25.09
331.925	-28.16
332.138	33.28
332.35	68.09
332.563	35.33
332.776	121.34
332.989	-85.5
333.202	-1.54
333.414	27.14
333.627	37.38
333.84	31.23
334.053	78.33
334.265	51.71
334.478	59.9
334.691	-13.82
334.903	37.38
335.116	-1.54
335.329	18.94
335.541	45.57
335.754	61.95
335.966	121.34
336.179	39.42
336.392	59.9
336.604	160.25
336.817	51.71
337.029	20.99
337.242	39.42
337.454	6.66
337.667	18.94
337.88	-13.82
338.092	27.14
338.305	84.48
338.517	43.52
338.729	41.47
338.942	61.95
339.154	76.29
339.367	53.76
339.579	39.42
339.792	-67.07
340.004	78.33
340.217	139.77
340.429	0.51
340.641	31.23
340.854	23.04
341.066	-1.54
341.278	35.33
341.491	70.14
341.703	25.09
341.915	-30.21
342.128	102.91
342.34	-22.02
342.552	-13.82
342.764	18.94
342.977	31.23
343.189	33.28
343.401	64
343.613	68.09
343.826	6.66
344.038	-34.3
344.25	47.62
344.462	-9.73
344.674	-3.58
344.886	47.62
345.099	27.14
345.311	8.7
345.523	-5.63
345.735	-30.21
345.947	-54.78
346.159	-34.3
346.371	-30.21
346.583	-22.02
346.795	94.72
347.007	27.14
347.219	49.66
347.431	57.86
347.643	-22.02
347.855	-44.54
348.067	117.25
348.279	-58.88
348.491	27.14
348.703	80.38
348.915	20.99
349.127	47.62
349.339	66.05
349.551	59.9
349.763	68.09
349.975	18.94
350.187	27.14
350.399	84.48
350.61	47.62
350.822	35.33
351.034	59.9
351.246	-26.11
351.458	115.2
351.669	68.09
351.881	59.9
352.093	61.95
352.305	68.09
352.517	64
352.728	70.14
352.94	-13.82
353.152	84.48
353.363	-50.69
353.575	45.57
353.787	113.15
353.999	57.86
354.21	78.33
354.422	45.57
354.633	29.18
354.845	51.71
355.057	76.29
355.268	14.85
355.48	78.33
355.692	-22.02
355.903	-54.78
356.115	117.25
356.326	2.56
356.538	111.1
356.749	33.28
356.961	88.57
357.172	92.67
357.384	59.9
357.595	123.39
357.807	41.47
358.018	-44.54
358.23	61.95
358.441	-1.54
358.653	78.33
358.864	39.42
359.075	76.29
359.287	39.42
359.498	119.29
359.709	117.25
359.921	76.29
360.132	-15.87
360.344	25.09
360.555	64
360.766	80.38
360.977	18.94
361.189	61.95
361.4	31.23
361.611	18.94
361.823	109.05
362.034	51.71
362.245	-52.74
362.456	-32.26
362.667	18.94
362.879	-30.21
363.09	51.71
363.301	2.56
363.512	-24.06
363.723	68.09
363.935	45.57
364.146	0.51
364.357	47.62
364.568	43.52
364.779	18.94
364.99	6.66
365.201	-9.73
365.412	37.38
365.623	-22.02
365.834	96.77
366.045	20.99
366.256	10.75
366.467	27.14
366.678	59.9
366.889	70.14
367.1	64
367.311	31.23
367.522	20.99
367.733	109.05
367.944	18.94
368.155	8.7
368.366	29.18
368.577	64
368.788	96.77
368.999	43.52
369.209	27.14
369.42	0.51
369.631	74.24
369.842	-5.63
370.053	20.99
370.264	39.42
370.474	14.85
370.685	45.57
370.896	-11.78
371.107	76.29
371.317	29.18
371.528	-36.35
371.739	117.25
371.95	37.38
372.16	-3.58
372.371	-9.73
372.582	53.76
372.792	92.67
373.003	4.61
373.214	2.56
373.424	64
373.635	100.86
373.846	6.66
374.056	14.85
374.267	-46.59
374.477	31.23
374.688	20.99
374.898	-22.02
375.109	31.23
375.319	-9.73
375.53	111.1
375.74	84.48
375.951	20.99
376.161	61.95
376.372	88.57
376.582	33.28
376.793	57.86
377.003	53.76
377.214	53.76
377.424	53.76
377.635	43.52
377.845	2.56
378.055	94.72
378.266	-22.02
378.476	27.14
378.686	35.33
378.897	121.34
379.107	45.57
379.317	86.53
379.528	10.75
379.738	102.91
379.948	-30.21
380.158	76.29
380.369	100.86
380.579	43.52
380.789	80.38
380.999	76.29
381.21	84.48
381.42	35.33
381.63	43.52
381.84	37.38
382.05	-22.02
382.261	84.48
382.471	-13.82
382.681	113.15
382.891	84.48
383.101	166.4
383.311	16.9
383.521	68.09
383.731	78.33
383.941	-9.73
384.151	86.53
384.361	70.14
384.571	20.99
384.781	37.38
384.991	104.96
385.201	51.71
385.411	-13.82
385.621	100.86
385.831	76.29
386.041	23.04
386.251	61.95
386.461	113.15
386.671	64
386.881	35.33
387.091	37.38
387.301	27.14
387.511	20.99
387.72	55.81
387.93	-13.82
388.14	47.62
388.35	37.38
388.56	23.04
388.769	27.14
388.979	70.14
389.189	59.9
389.399	0.51
389.609	141.82
389.818	39.42
390.028	-3.58
390.238	45.57
390.447	76.29
390.657	84.48
390.867	76.29
391.076	82.43
391.286	92.67
391.496	12.8
391.705	25.09
391.915	20.99
392.125	86.53
392.334	20.99
392.544	92.67
392.753	27.14
392.963	23.04
393.172	20.99
393.382	16.9
393.591	100.86
393.801	92.67
394.01	166.4
394.22	115.2
394.429	37.38
394.639	53.76
394.848	-30.21
395.058	2.56
395.267	37.38
395.477	96.77
395.686	80.38
395.895	125.44
396.105	96.77
396.314	18.94
396.524	55.81
396.733	-13.82
396.942	92.67
397.152	186.88
397.361	59.9
397.57	61.95
397.78	61.95
397.989	78.33
398.198	100.86
398.407	57.86
398.617	59.9
398.826	102.91
399.035	92.67
399.244	119.29
399.453	37.38
399.663	78.33
399.872	80.38
400.081	55.81
400.29	109.05
400.499	51.71
400.708	18.94
400.917	86.53
401.127	86.53
401.336	61.95
401.545	64
401.754	176.64
401.963	152.06
402.172	78.33
402.381	94.72
402.59	86.53
402.799	86.53
403.008	102.91
403.217	76.29
403.426	29.18
403.635	14.85
403.844	100.86
404.053	47.62
404.262	102.91
404.471	203.26
404.68	125.44
404.888	-5.63
405.097	39.42
405.306	129.53
405.515	141.82
405.724	37.38
405.933	43.52
406.142	109.05
406.35	72.19
406.559	174.59
406.768	80.38
406.977	94.72
407.185	92.67
407.394	190.97
407.603	76.29
407.812	170.49
408.02	186.88
408.229	125.44
408.438	133.63
408.646	125.44
408.855	152.06
409.064	78.33
409.272	168.45
409.481	174.59
409.69	193.02
409.898	197.12
410.107	184.83
410.315	127.49
410.524	250.36
410.733	195.07
410.941	250.36
411.15	236.03
411.358	291.32
411.567	201.21
411.775	231.93
411.984	254.46
412.192	190.97
412.401	240.12
412.609	266.75
412.818	281.08
413.026	309.76
413.234	313.85
413.443	309.76
413.651	317.95
413.86	305.66
414.068	332.28
414.276	471.54
414.485	348.67
414.693	449.02
414.901	428.54
415.11	383.48
415.318	430.59
415.526	520.7
415.734	453.11
415.943	420.35
416.151	467.45
416.359	463.35
416.567	580.09
416.776	541.18
416.984	571.9
417.192	600.57
417.4	530.94
417.608	563.7
417.817	604.66
418.025	631.29
418.233	778.74
418.441	633.33
418.649	723.44
418.857	758.26
419.065	856.56
419.273	774.64
419.481	801.27
419.689	856.56
419.897	829.94
420.105	870.9
420.313	944.63
420.521	973.3
420.729	1030.64
420.937	989.68
421.145	1022.45
421.353	1126.89
421.561	1085.94
421.769	1214.96
421.977	1225.2
422.185	1157.61
422.393	1292.78
422.601	1386.99
422.809	1376.75
423.017	1364.46
423.224	1460.71
423.432	1485.29
423.64	1520.1
423.848	1647.08
424.056	1526.25
424.263	1636.84
424.471	1653.22
424.679	1624.55
424.887	1675.75
425.094	1821.16
425.302	1896.93
425.51	1946.08
425.718	1962.47
425.925	1980.9
426.133	2142.69
426.341	2253.28
426.548	2265.57
426.756	2320.86
426.964	2288.09
427.171	2337.24
427.379	2611.67
427.586	2501.08
427.794	2621.91
428.001	2730.45
428.209	2820.56
428.417	2841.04
428.624	2867.67
428.832	3121.62
429.039	2976.21
429.247	3045.84
429.454	3404.24
429.662	3529.16
429.869	3328.46
430.076	3467.72
430.284	3379.66
430.491	3430.86
430.699	3781.06
430.906	3701.19
431.114	3721.67
431.321	3992
431.528	3942.85
431.736	4315.58
431.943	4438.46
432.15	4327.87
432.358	4364.73
432.565	4549.05
432.772	4407.74
432.979	4835.77
433.187	4925.88
433.394	4911.54
433.601	5284.27
433.808	5220.78
434.016	5286.32
434.223	5593.51
434.43	5605.8
434.637	5755.3
434.844	6117.79
435.052	6320.54
435.259	6105.51
435.466	6244.77
435.673	6064.55
435.88	6560.16
436.087	6709.66
436.294	6762.9
436.501	6637.98
436.708	6777.24
436.915	6908.31
437.122	7469.45
437.329	7285.14
437.537	7612.81
437.743	7596.43
437.95	7641.48
438.157	8055.17
438.364	8384.9
438.571	8323.46
438.778	8184.2
438.985	9296.24
439.192	8851.83
439.399	9070.97
439.606	8784.25
439.813	9386.35
440.02	9826.67
440.227	9705.84
440.433	9546.09
440.64	9875.82
440.847	10053.99
441.054	10277.22
441.261	10750.3
441.467	10482.02
441.674	10901.85
441.881	11331.92
442.088	11268.44
442.294	11133.27
442.501	11465.04
442.708	11602.25
442.914	11856.2
443.121	12495.17
443.328	12202.31
443.534	13058.36
443.741	12706.11
443.948	12654.91
444.154	13781.29
444.361	13359.41
444.568	13416.76
444.774	13404.47
444.981	13467.95
445.187	13875.5
445.394	14625.06
445.6	14625.06
445.807	15718.67
446.013	15108.38
446.22	15614.23
446.426	16093.45
446.633	16351.49
446.839	16806.14
447.046	16132.36
447.252	16994.56
447.459	16926.97
447.665	16673.03
447.871	17633.52
448.078	18596.07
448.284	17428.73
448.491	18104.56
448.697	18450.66
448.903	19015.9
449.11	19122.4
449.316	19079.39
449.522	19224.79
449.728	19773.65
449.935	19798.23
450.141	19699.92
450.347	20256.97
450.553	19615.96
450.76	20115.66
450.966	20680.9
451.172	20396.23
451.378	20877.51
451.584	20435.14
451.791	20779.2
451.997	20955.33
452.203	21485.75
452.409	21514.42
452.615	21192.89
452.821	20465.86
453.027	20551.88
453.233	21473.46
453.44	20310.22
453.646	20783.3
453.852	20797.63
454.058	21369.02
454.264	20555.97
454.47	20918.46
454.676	20480.2
454.882	21119.17
455.088	19284.19
455.294	19810.51
455.5	19855.57
455.705	20058.32
455.911	19130.59
456.117	18716.9
456.323	18516.2
456.529	17756.4
456.735	18565.35
456.941	18028.78
457.147	17664.24
457.352	17565.94
457.558	16840.96
457.764	17178.87
457.97	16761.09
458.176	16544
458.381	16431.37
458.587	15706.38
458.793	15864.08
458.999	14979.36
459.204	15968.52
459.41	15497.49
459.616	14663.97
459.821	14588.19
460.027	14436.64
460.233	14194.98
460.438	13310.26
460.644	13533.49
460.85	13023.55
461.055	12826.94
461.261	12861.76
461.466	11831.63
461.672	11520.34
461.878	12253.51
462.083	11549.01
462.289	11323.73
462.494	11270.48
462.7	10406.24
462.905	10514.78
463.111	10723.68
463.316	10881.37
463.522	10582.37
463.727	10574.17
463.932	10512.74
464.138	10412.39
464.343	10416.48
464.549	10062.18
464.754	10430.82
464.959	10244.45
465.165	10187.11
465.37	9875.82
465.575	9451.89
465.781	10217.83
465.986	10053.99
466.191	9722.22
466.397	9738.6
466.602	8905.08
466.807	9367.92
467.012	9486.7
467.218	9367.92
467.423	9116.02
467.628	9267.57
467.833	9666.92
468.038	9437.55
468.244	8917.37
468.449	9533.81
468.654	9191.8
468.859	9222.52
469.064	8870.26
469.269	8606.08
469.474	8735.1
469.679	8794.49
469.885	8546.69
470.09	8790.39
470.295	8663.42
470.5	8384.9
470.705	8753.53
470.91	8358.27
471.115	8364.42
471.32	8481.15
471.525	8538.49
471.73	8259.97
471.935	8274.31
472.139	7731.59
472.344	7928.2
472.549	7885.19
472.754	8024.45
472.959	7547.28
473.164	7491.98
473.369	7287.18
473.574	7758.22
473.778	7573.9
473.983	7610.76
474.188	7403.92
474.393	7172.5
474.598	7160.21
474.802	7221.65
475.007	6990.23
475.212	7121.3
475.417	6723.99
475.621	6801.82
475.826	6988.18
476.031	6736.28
476.235	6631.83
476.44	6654.36
476.645	6621.59
476.849	6525.34
477.054	6599.07
477.259	6521.24
477.463	6539.68
477.668	6416.8
477.872	6502.81
478.077	6252.96
478.282	5927.33
478.486	5982.63
478.691	6015.4
478.895	6001.06
479.1	5935.53
479.304	6132.13
479.509	5857.7
479.713	5927.33
479.918	5720.49
480.122	5677.48
480.326	5759.4
480.531	5720.49
480.735	5681.58
480.94	5720.49
481.144	5722.54
481.348	5697.96
481.553	5505.45
481.757	5552.56
481.961	5607.85
482.166	5630.38
482.37	5620.14
482.574	5302.7
482.778	5487.02
482.983	5634.47
483.187	5525.93
483.391	5646.76
483.595	5401.01
483.8	5452.2
484.004	5540.27
484.208	5607.85
484.412	5673.39
484.616	5542.32
484.821	5515.69
485.025	5517.74
485.229	5585.32
485.433	5517.74
485.637	5456.3
485.841	5566.89
486.045	5523.88
486.249	5507.5
486.453	5605.8
486.657	5491.12
486.861	5519.79
487.065	5427.63
487.269	5499.31
487.473	5460.4
487.677	5638.57
487.881	5691.82
488.085	5388.72
488.289	5570.99
488.493	5480.88
488.697	5583.27
488.901	5624.23
489.105	5601.71
489.309	5669.29
489.512	5613.99
489.716	5714.34
489.92	5654.95
490.124	5573.03
490.328	5700.01
490.531	5552.56
490.735	5804.46
490.939	5581.23
491.143	5657
491.346	5724.58
491.55	5755.3
491.754	5724.58
491.958	5786.02
492.161	5818.79
492.365	5947.81
492.569	5945.77
492.772	5786.02
492.976	5900.71
493.18	5837.22
493.383	6099.36
493.587	5964.2
493.79	5978.53
493.994	5867.94
494.197	5884.33
494.401	6166.95
494.605	6082.98
494.808	6255.01
495.012	6228.38
495.215	6314.4
495.419	6351.26
495.622	6343.07
495.825	6271.39
496.029	6287.78
496.232	6584.73
496.436	6560.16
496.639	6810.01
496.843	6605.21
497.046	6795.67
497.249	6793.62
497.453	6840.73
497.656	6924.69
497.859	7002.52
498.063	7096.72
498.266	7367.06
498.469	7305.62
498.673	7238.03
498.876	7338.38
499.079	7319.95
499.282	7571.85
499.485	7721.35
499.689	7477.65
499.892	7707.02
500.095	7770.51
500.298	8159.62
500.501	7967.11
500.705	8257.92
500.908	8081.8
501.111	8255.87
501.314	8483.2
501.517	8497.53
501.72	8747.39
501.923	8591.74
502.126	8991.09
502.329	8905.08
502.532	8917.37
502.735	9146.74
502.938	9066.87
503.141	9326.96
503.344	9331.06
503.547	9460.08
503.75	9417.07
503.953	9783.66
504.156	9900.39
504.359	9873.77
504.562	9920.87
504.765	10121.57
504.968	10236.26
505.17	10350.95
505.373	10383.71
505.576	10731.87
505.779	10719.58
505.982	10864.99
506.185	10951
506.387	11055.45
506.59	11256.15
506.793	11366.74
506.996	11151.7
507.198	11524.43
507.401	11614.54
507.604	11954.51
507.807	11974.99
508.009	11880.78
508.212	12130.63
508.415	12491.07
508.617	12128.58
508.82	12497.22
509.022	12599.62
509.225	12783.93
509.428	12972.35
509.63	13084.98
509.833	13087.03
510.035	13691.18
510.238	13439.28
510.44	13570.35
510.643	13660.46
510.845	13633.84
511.048	13959.47
511.25	14186.79
511.453	14250.28
511.655	14706.98
511.858	14663.97
512.06	14588.19
512.262	15063.32
512.465	14936.35
512.667	15130.91
512.87	15243.54
513.072	15214.87
513.274	15601.94
513.477	15479.06
513.679	15806.73
513.881	15962.38
514.084	16175.37
514.286	16150.79
514.488	16296.2
514.69	16949.5
514.893	16855.29
515.095	17105.15
515.297	17172.73
515.499	17264.89
515.701	17443.06
515.904	17647.86
516.106	17578.23
516.308	18047.21
516.51	18272.49
516.712	18153.71
516.914	18555.11
517.116	18792.67
517.318	18995.42
517.52	18956.51
517.722	18981.09
517.925	19271.9
518.127	19761.36
518.329	19704.02
518.531	19654.87
518.733	19970.26
518.935	20213.96
519.136	20158.67
519.338	20254.92
519.54	20443.34
519.742	21010.62
519.944	20900.03
520.146	21280.96
520.348	21629.11
520.55	21721.27
520.752	21547.19
520.954	22118.57
521.155	21872.82
521.357	22423.72
521.559	22347.95
521.761	22814.88
521.963	22585.51
522.164	23093.41
522.366	23300.25
522.568	23120.03
522.77	23474.33
522.971	23644.31
523.173	23584.92
523.375	23914.64
523.576	23883.92
523.778	24111.25
523.98	24359.05
524.181	24973.44
524.383	24354.96
524.584	24832.13
524.786	24975.49
524.988	24871.04
525.189	25151.62
525.391	25174.14
525.592	25462.91
525.794	25297.02
525.995	25430.14
526.197	25745.53
526.398	25696.38
526.6	26255.47
526.801	26140.79
527.003	26146.93
527.204	26032.24
527.406	26234.99
527.607	26579.05
527.808	26523.76
528.01	26288.24
528.211	26646.63
528.412	27107.43
528.614	26742.89
528.815	26673.26
529.016	27555.93
529.218	26742.89
529.419	27267.17
529.62	27330.65
529.822	27203.68
530.023	27295.84
530.224	27484.25
530.425	27177.06
530.626	27330.65
530.828	27218.02
531.029	27912.28
531.23	27500.64
531.431	27412.57
531.632	27625.56
531.833	27904.09
532.035	27908.18
532.236	27822.17
532.437	27877.46
532.638	27758.68
532.839	27959.38
533.04	27783.26
533.241	27650.14
533.442	27949.14
533.643	28051.54
533.844	27986
534.045	27904.09
534.246	27961.43
534.447	28076.12
534.648	27977.81
534.849	28155.99
535.05	28018.77
535.251	28248.14
535.451	27809.88
535.652	28129.36
535.853	28287.06
536.054	28295.25
536.255	28411.98
536.456	28149.84
536.657	28420.17
536.857	28366.93
537.058	27918.42
537.259	28411.98
537.46	28262.48
537.66	28547.15
537.861	28434.51
538.062	28313.68
538.263	28192.85
538.463	28409.93
538.664	28254.29
538.865	28160.08
539.065	28295.25
539.266	28344.4
539.466	28573.77
539.667	28123.22
539.868	28661.83
540.068	27994.2
540.269	28174.42
540.469	28389.45
540.67	28282.96
540.87	27928.66
541.071	28198.99
541.271	28246.1
541.472	28645.45
541.672	28338.26
541.873	28246.1
542.073	28192.85
542.274	28237.91
542.474	28422.22
542.675	27580.51
542.875	28450.89
543.075	28434.51
543.276	27643.99
543.476	28293.2
543.676	27779.16
543.877	28291.15
544.077	28364.88
544.277	28153.94
544.478	27865.17
544.678	28336.21
544.878	28276.82
545.078	28069.97
545.279	27926.61
545.479	28029.01
545.679	28061.78
545.879	28221.52
546.079	28254.29
546.28	28145.75
546.48	27826.26
546.68	27973.72
546.88	27998.29
547.08	27949.14
547.28	27840.6
547.48	27904.09
547.68	27822.17
547.88	27586.65
548.081	28336.21
548.281	28328.02
548.481	27762.78
548.681	27902.04
548.881	28098.64
549.081	27891.8
549.28	28278.86
549.48	28299.34
549.68	27689.05
549.88	28158.03
550.08	27932.76
550.28	27660.38
550.48	27807.83
550.68	27758.68
550.88	27990.1
551.08	27746.39
551.279	28074.07
551.479	27738.2
551.679	27930.71
551.879	28074.07
552.079	28166.23
552.278	27834.46
552.478	27680.86
552.678	27822.17
552.878	28180.56
553.077	27883.61
553.277	27617.37
553.477	27934.81
553.676	27465.82
553.876	27807.83
554.076	27658.33
554.275	27766.87
554.475	27586.65
554.674	27598.94
554.874	27885.65
555.074	27619.42
555.273	27635.8
555.473	27836.5
555.672	27402.33
555.872	27674.71
556.071	27349.09
556.271	27668.57
556.47	27643.99
556.67	27385.95
556.869	27097.19
557.068	27545.69
557.268	27385.95
557.467	27510.88
557.667	27175.01
557.866	27400.29
558.065	27220.06
558.265	27000.93
558.464	26896.49
558.663	27394.14
558.863	26888.29
559.062	27234.4
559.261	26933.35
559.461	27293.79
559.66	26718.31
559.859	26927.21
560.058	26470.51
560.258	26990.69
560.457	26577
560.656	27035.75
560.855	26538.09
561.054	26976.36
561.253	26284.14
561.453	26587.24
561.652	26384.49
561.851	26708.07
562.05	26300.53
562.249	26507.37
562.448	26724.46
562.647	26394.73
562.846	26351.73
563.045	26382.45
563.244	25923.7
563.443	26153.07
563.642	25692.28
563.841	26036.34
564.04	25782.39
564.239	25942.13
564.438	25718.9
564.637	25772.15
564.836	25612.41
565.035	25284.73
565.234	25688.18
565.432	25657.46
565.631	25438.33
565.83	25229.44
566.029	25411.71
566.228	25206.91
566.427	25221.25
566.625	25456.76
566.824	25096.32
567.023	25356.41
567.222	24715.4
567.42	24993.92
567.619	24893.57
567.818	24817.8
568.016	24813.7
568.215	24924.29
568.414	24604.81
568.612	24692.87
568.811	24434.83
569.01	24678.54
569.208	24021.14
569.407	24488.07
569.605	24006.8
569.804	24496.27
570.002	24012.95
570.201	24135.82
570.4	24019.09
570.598	23808.15
570.797	23869.59
570.995	24180.88
571.193	23339.16
571.392	23861.4
571.59	23351.45
571.789	23546.01
571.987	23359.64
572.186	23531.67
572.384	23142.56
572.582	23556.25
572.781	23443.61
572.979	22808.74
573.177	23089.31
573.376	23279.77
573.574	22974.63
573.772	23046.3
573.971	23023.78
574.169	22812.84
574.367	22614.18
574.565	22657.19
574.763	22692.01
574.962	22644.9
575.16	22339.76
575.358	22589.61
575.556	22016.18
575.754	22335.66
575.952	21962.93
576.151	22440.11
576.349	21958.83
576.547	22130.86
576.745	21991.6
576.943	21928.11
577.141	22032.56
577.339	21870.77
577.537	21688.5
577.735	21786.8
577.933	21676.21
578.131	21758.13
578.329	21625.01
578.527	21481.66
578.725	21328.06
578.923	21668.02
579.121	21113.02
579.319	21065.92
579.516	21291.2
579.714	21117.12
579.912	21450.94
580.11	21041.34
580.308	21244.09
580.506	20893.89
580.704	20789.44
580.901	20793.54
581.099	21002.43
581.297	20515.01
581.495	20650.18
581.692	20865.22
581.89	20537.54
582.088	20578.5
582.285	20310.22
582.483	20379.85
582.681	20277.45
582.878	20519.11
583.076	20076.75
583.274	20357.32
583.471	20041.93
583.669	20111.57
583.866	19892.43
584.064	20015.31
584.262	19697.88
584.459	19869.9
584.657	19564.76
584.854	19800.27
585.052	19312.86
585.249	19767.51
585.447	19466.45
585.644	19441.88
585.841	19540.18
586.039	19362.01
586.236	19245.27
586.434	19284.19
586.631	18888.93
586.828	19114.2
587.026	19097.82
587.223	18962.65
587.42	18659.56
587.618	18778.34
587.815	18798.82
588.012	18686.18
588.21	18729.19
588.407	18811.1
588.604	18720.99
588.801	18295.02
588.999	18430.18
589.196	18409.7
589.393	18444.52
589.59	18518.25
589.787	18364.65
589.984	18170.09
590.182	17953.01
590.379	18344.17
590.576	17948.91
590.773	18188.52
590.97	18100.46
591.167	18221.29
591.364	17817.84
591.561	17901.81
591.758	17869.04
591.955	17672.43
592.152	17830.13
592.349	17703.15
592.546	17641.71
592.743	17228.03
592.94	17193.21
593.137	17299.7
593.334	17443.06
593.531	17256.7
593.727	17326.33
593.924	17500.4
594.121	16912.64
594.318	17107.19
594.515	17037.56
594.712	17150.2
594.908	17088.76
595.105	17025.28
595.302	16912.64
595.499	16857.34
595.696	16740.61
595.892	16584.96
596.089	16675.07
596.286	16683.27
596.482	16826.62
596.679	16916.73
596.876	16683.27
597.072	16408.84
597.269	16247.05
597.466	16056.59
597.662	16343.3
597.859	16359.69
598.055	16058.63
598.252	16324.87
598.448	15886.61
598.645	15989
598.841	16136.46
599.038	15798.54
599.234	16095.5
599.431	15708.43
599.627	15862.03
599.824	15776.02
600.02	15730.96
600.217	15814.93
600.413	15509.78
600.609	15530.26
600.806	15677.71
601.002	15593.75
601.198	15356.18
601.395	15405.33
601.591	15102.23
601.787	15268.12
601.984	15255.83
602.18	15255.83
602.376	15206.68
602.572	14879
602.769	14948.64
602.965	14840.09
603.161	15206.68
603.357	14954.78
603.553	14678.3
603.75	14780.7
603.946	14913.82
604.142	14749.98
604.338	14532.9
604.534	14819.61
604.73	14504.23
604.926	14428.45
605.122	14616.86
605.318	14328.1
605.514	14469.41
605.71	14541.09
605.906	14317.86
606.102	14158.12
606.298	14244.13
606.494	14022.95
606.69	14025
606.886	14307.62
607.082	14094.63
607.278	14151.98
607.474	13953.32
607.67	13877.55
607.866	13822.25
608.062	14061.87
608.257	13830.44
608.453	13820.21
608.649	13832.49
608.845	13762.86
609.041	13760.81
609.236	13769.01
609.432	13732.14
609.628	13682.99
609.824	13578.54
610.019	13609.26
610.215	13771.05
610.411	13480.24
610.606	13306.16
610.802	13467.95
610.998	13611.31
611.193	13367.6
611.389	13314.36
611.584	13359.41
611.78	13257.01
611.976	13179.19
612.171	13220.15
612.367	13257.01
612.562	13158.71
612.758	13017.4
612.953	12792.12
613.149	13361.46
613.344	12910.91
613.539	13302.07
613.735	12939.58
613.93	12921.15
614.126	12728.64
614.321	12919.1
614.517	12966.2
614.712	12794.17
614.907	12824.89
615.103	12968.25
615.298	12710.21
615.493	12925.24
615.688	12652.86
615.884	12992.83
616.079	12613.95
616.274	12622.14
616.47	12486.98
616.665	12411.2
616.86	12478.79
617.055	12292.42
617.25	12302.66
617.445	12396.87
617.641	12247.37
617.836	12616
618.031	12380.48
618.226	12417.35
618.421	12063.05
618.616	12323.14
618.811	11960.65
619.006	12132.68
619.201	12061
619.396	12122.44
619.591	11749.71
619.786	11977.03
619.981	11712.85
620.176	11800.91
620.371	11585.87
620.566	11762
620.761	11637.07
620.956	11860.3
621.151	11540.82
621.346	11485.52
621.541	11448.66
621.735	11673.93
621.93	11477.33
622.125	11233.62
622.32	11166.04
622.515	11288.92
622.709	11100.5
622.904	10983.77
623.099	10918.23
623.294	10776.92
623.488	10797.4
623.683	10961.24
623.878	10619.23
624.072	10721.63
624.267	10836.31
624.462	10668.38
624.656	10627.42
624.851	10783.07
625.046	10490.21
625.24	10475.87
625.435	10318.18
625.629	10137.96
625.824	10180.96
626.018	10373.47
626.213	10013.03
626.407	10146.15
626.602	9927.02
626.796	10119.53
626.991	10154.34
627.185	9943.4
627.38	9808.23
627.574	9775.47
627.768	9605.49
627.963	9605.49
628.157	9384.3
628.352	9765.23
628.546	9484.66
628.74	9681.26
628.935	9308.53
629.129	9415.02
629.323	9140.6
629.517	9267.57
629.712	9054.58
629.906	9337.2
630.1	9052.53
630.294	9111.92
630.489	9011.57
630.683	9138.55
630.877	9097.59
631.071	8876.41
631.265	8980.85
631.459	8702.33
631.653	8731
631.848	8821.11
632.042	8690.04
632.236	8538.49
632.43	8493.44
632.624	8571.26
632.818	8384.9
633.012	8472.96
633.206	8427.9
633.4	8366.46
633.594	8255.87
633.788	8081.8
633.982	8331.65
634.176	8370.56
634.369	7864.71
634.563	8284.55
634.757	7819.66
634.951	8147.33
635.145	7983.49
635.339	8001.93
635.533	7883.14
635.726	7666.06
635.92	7862.66
636.114	7737.74
636.308	7743.88
636.501	7612.81
636.695	7444.88
636.889	7543.18
637.083	7432.59
637.276	7270.8
637.47	7399.82
637.664	7541.13
637.857	7391.63
638.051	7422.35
638.244	7278.99
638.438	7133.59
638.632	7270.8
638.825	7260.56
639.019	7166.35
639.212	7055.76
639.406	7043.48
639.599	6982.04
639.793	6984.09
639.986	6908.31
640.18	7051.67
640.373	6861.21
640.567	6982.04
640.76	7012.76
640.954	6762.9
641.147	6635.93
641.34	6746.52
641.534	6508.96
641.727	6721.95
641.92	6695.32
642.114	6443.42
642.307	6455.71
642.5	6633.88
642.694	6214.05
642.887	6359.45
643.08	6406.56
643.273	6465.95
643.467	6351.26
643.66	6236.58
643.853	6281.63
644.046	6080.93
644.239	6154.66
644.432	6080.93
644.626	6001.06
644.819	6009.25
645.012	6060.45
645.205	6039.97
645.398	6138.27
645.591	5781.93
645.784	5876.13
645.977	5740.97
646.17	5835.17
646.363	5859.75
646.556	5605.8
646.749	5749.16
646.942	5704.1
647.135	5581.23
647.328	5667.24
647.521	5478.83
647.714	5458.35
647.907	5523.88
648.099	5544.36
648.292	5515.69
648.485	5413.29
648.678	5503.4
648.871	5478.83
649.064	5392.81
649.256	5347.76
649.449	5296.56
649.642	5327.28
649.835	5298.61
650.027	5179.82
650.22	5183.92
650.413	5036.47
650.605	5050.8
650.798	4944.31
650.991	5204.4
651.183	5147.06
651.376	4950.45
651.568	4975.03
651.761	4985.27
651.954	4917.68
652.146	4839.86
652.339	4872.63
652.531	4895.16
652.724	4876.73
652.916	4805.05
653.109	4706.74
653.301	4688.31
653.494	4862.39
653.686	4590.01
653.879	4653.5
654.071	4739.51
654.263	4590.01
654.456	4626.87
654.648	4516.28
654.84	4651.45
655.033	4516.28
655.225	4442.56
655.417	4471.23
655.61	4471.23
655.802	4526.52
655.994	4422.08
656.186	4458.94
656.379	4370.88
656.571	4516.28
656.763	4221.38
656.955	4387.26
657.148	4336.06
657.34	4178.37
657.532	4231.62
657.724	4215.23
657.916	4204.99
658.108	4090.31
658.3	4166.08
658.492	4086.21
658.684	4008.39
658.876	4065.73
659.068	4055.49
659.26	3875.27
659.452	3967.43
659.644	3877.32
659.836	3920.32
660.028	3887.56
660.22	3942.85
660.412	3957.19
660.604	3766.73
660.796	3836.36
660.988	3834.31
661.18	3971.52
661.372	3826.12
661.563	3721.67
661.755	3606.98
661.947	3748.29
662.139	3611.08
662.331	3717.58
662.522	3674.57
662.714	3545.55
662.906	3600.84
663.097	3486.15
663.289	3666.38
663.481	3615.18
663.673	3475.91
663.864	3576.27
664.056	3590.6
664.247	3494.35
664.439	3559.88
664.631	3545.55
664.822	3371.47
665.014	3281.36
665.205	3371.47
665.397	3307.98
665.588	3336.65
665.78	3287.5
665.971	3320.27
666.163	3336.65
666.354	3307.98
666.546	3156.43
666.737	3340.75
666.929	3166.67
667.12	3131.86
667.311	3117.52
667.503	3076.56
667.694	3213.77
667.885	3068.37
668.077	3117.52
668.268	3045.84
668.459	3187.15
668.651	3019.22
668.842	3148.24
669.033	3133.9
669.224	3068.37
669.416	3209.68
669.607	3051.99
669.798	3099.09
669.989	2990.55
670.18	3068.37
670.371	3035.6
670.563	2910.68
670.754	3076.56
670.945	2955.73
671.136	3015.12
671.327	2851.28
671.518	2976.21
671.709	2902.48
671.9	2918.87
672.091	2879.96
672.282	2853.33
672.473	2863.57
672.664	2953.68
672.855	2763.22
673.046	2836.95
673.237	2888.15
673.428	2773.46
673.619	2761.17
673.809	2820.56
674	2757.08
674.191	2779.61
674.382	2873.81
674.573	2714.07
674.764	2767.32
674.954	2849.24
675.145	2671.06
675.336	2695.64
675.527	2628.06
675.717	2644.44
675.908	2648.54
676.099	2771.41
676.289	2742.74
676.48	2583
676.671	2761.17
676.861	2722.26
677.052	2634.2
677.243	2603.48
677.433	2650.58
677.624	2666.97
677.814	2492.89
678.005	2763.22
678.195	2699.73
678.386	2562.52
678.576	2558.42
678.767	2578.9
678.957	2492.89
679.148	2763.22
679.338	2693.59
679.529	2542.04
679.719	2470.36
679.909	2531.8
680.1	2513.37
680.29	2623.96
680.481	2644.44
680.671	2542.04
680.861	2587.1
681.052	2589.14
681.242	2566.62
681.432	2519.51
681.622	2507.23
681.813	2431.45
682.003	2443.74
682.193	2525.66
682.383	2525.66
682.573	2376.16
682.764	2693.59
682.954	2572.76
683.144	2501.08
683.334	2626.01
683.524	2591.19
683.714	2525.66
683.904	2494.94
684.094	2417.12
684.284	2527.71
684.474	2519.51
684.664	2458.07
684.854	2556.38
685.044	2376.16
685.234	2476.51
685.424	2376.16
685.614	2468.31
685.804	2433.5
685.994	2521.56
686.184	2386.4
686.374	2447.83
686.564	2429.4
686.753	2347.48
686.943	2269.66
687.133	2378.2
687.323	2355.68
687.513	2298.33
687.702	2304.48
687.892	2265.57
688.082	2322.91
688.272	2267.61
688.461	2298.33
688.651	2304.48
688.841	2279.9
689.03	2312.67
689.22	2249.18
689.41	2214.37
689.599	2271.71
689.789	2300.38
689.979	2222.56
690.168	2316.76
690.358	2228.7
690.547	2189.79
690.737	2202.08
690.926	2181.6
691.116	2181.6
691.305	2263.52
691.495	2159.07
691.684	2066.91
691.874	2142.69
692.063	2177.5
692.252	2048.48
692.442	2167.26
692.631	2011.62
692.82	2052.58
693.01	2114.02
693.199	1962.47
693.388	1997.28
693.578	2073.06
693.767	2081.25
693.956	2060.77
694.146	2003.43
694.335	2005.47
694.524	1976.8
694.713	2077.15
694.902	2054.62
695.092	2011.62
695.281	1968.61
695.47	1984.99
695.659	2021.86
695.848	2058.72
696.037	2034.14
696.226	1989.09
696.415	1997.28
696.604	2044.38
696.793	1978.85
696.982	2052.58
697.171	1960.42
697.36	2025.95
697.549	2011.62
697.738	1925.6
697.927	2068.96
698.116	2005.47
698.305	2042.34
698.494	1972.71
698.683	1896.93
698.872	1894.88
699.061	1960.42
699.25	1903.07
699.438	1841.64
699.627	2011.62
699.816	2048.48
700.005	1896.93
700.193	1882.6
700.382	1972.71
700.571	2030.05
700.76	1894.88
700.948	1956.32
701.137	1921.51
701.326	1888.74
701.514	1853.92
701.703	1927.65
701.892	1890.79
702.08	1972.71
702.269	1905.12
702.457	1966.56
702.646	1931.75
702.834	1993.19
703.023	2021.86
703.212	1913.31
703.4	1976.8
703.589	1868.26
703.777	1931.75
703.965	1864.16
704.154	1946.08
704.342	1872.36
704.531	1919.46
704.719	2066.91
704.907	1966.56
705.096	1825.25
705.284	1911.27
705.472	1878.5
705.661	1907.17
705.849	1903.07
706.037	1890.79
706.226	1939.94
706.414	1833.44
706.602	1935.84
706.79	1892.84
706.979	1925.6
707.167	1944.03
707.355	1935.84
707.543	1919.46
707.731	1935.84
707.919	1882.6
708.107	1851.88
708.296	1909.22
708.484	1880.55
708.672	1968.61
708.86	1950.18
709.048	1937.89
709.236	1853.92
709.424	1954.27
709.612	1878.5
709.8	1901.03
709.988	1956.32
710.176	1976.8
710.364	1870.31
710.551	1890.79
710.739	1864.16
710.927	1798.63
711.115	2013.67
711.303	2042.34
711.491	1866.21
711.679	1946.08
711.866	2019.81
712.054	1933.79
712.242	1976.8
712.43	1993.19
712.617	1898.98
712.805	1927.65
712.993	2011.62
713.181	1903.07
713.368	1948.13
713.556	2025.95
713.744	1886.69
713.931	1898.98
714.119	1929.7
714.306	1886.69
714.494	1903.07
714.682	1933.79
714.869	1839.59
715.057	1946.08
715.244	1833.44
715.432	2042.34
715.619	1894.88
715.807	1939.94
715.994	1948.13
716.182	1913.31
716.369	1980.9
716.556	2007.52
716.744	1901.03
716.931	1888.74
717.119	1991.14
717.306	1835.49
717.493	1919.46
717.681	1987.04
717.868	1984.99
718.055	1968.61
718.242	1964.51
718.43	1952.23
718.617	1976.8
718.804	1896.93
718.991	1898.98
719.179	2017.76
719.366	1847.78
719.553	1999.33
719.74	1997.28
719.927	1845.73
720.114	2009.57
720.301	1993.19
720.488	1872.36
720.676	1933.79
720.863	1903.07
721.05	1952.23
721.237	1999.33
721.424	1927.65
721.611	1991.14
721.798	1950.18
721.985	1970.66
722.172	1870.31
722.358	1927.65
722.545	2001.38
722.732	1929.7
722.919	1982.95
723.106	2001.38
723.293	1984.99
723.48	1995.23
723.667	1935.84
723.853	1888.74
724.04	1952.23
724.227	1954.27
724.414	1937.89
724.6	1911.27
724.787	1978.85
724.974	1968.61
725.161	1821.16
725.347	1862.12
725.534	1944.03
725.72	1991.14
725.907	1925.6
726.094	1980.9
726.28	1962.47
726.467	1976.8
726.653	1950.18
726.84	1954.27
727.027	2025.95
727.213	1944.03
727.4	1956.32
727.586	1952.23
727.773	1984.99
727.959	1860.07
728.145	2017.76
728.332	2093.54
728.518	1956.32
728.705	1853.92
728.891	1984.99
729.077	1966.56
729.264	1901.03
729.45	1870.31
729.636	1876.45
729.823	1905.12
730.009	1989.09
730.195	1853.92
730.382	1944.03
730.568	1939.94
730.754	1984.99
730.94	2017.76
731.126	1911.27
731.313	2042.34
731.499	1993.19
731.685	1878.5
731.871	1997.28
732.057	2013.67
732.243	1894.88
732.429	1905.12
732.615	1987.04
732.801	2001.38
732.987	1858.02
733.173	1849.83
733.359	1952.23
733.545	1964.51
733.731	1886.69
733.917	1980.9
734.103	2019.81
734.289	1886.69
734.475	1984.99
734.661	2001.38
734.847	1929.7
735.033	1886.69
735.219	1915.36
735.404	1913.31
735.59	1896.93
735.776	1919.46
735.962	1880.55
736.148	2101.73
736.333	2001.38
736.519	1935.84
736.705	1821.16
736.89	1825.25
737.076	1888.74
737.262	1847.78
737.447	1831.4
737.633	1866.21
737.819	1800.68
738.004	1948.13
738.19	1903.07
738.375	1759.72
738.561	1886.69
738.747	1911.27
738.932	1919.46
739.118	2015.71
739.303	1880.55
739.489	1927.65
739.674	1753.57
739.859	1763.81
740.045	1874.4
740.23	1890.79
740.416	1821.16
740.601	1796.58
740.786	1776.1
740.972	1790.44
741.157	1751.53
741.342	1776.1
741.528	1714.66
741.713	1747.43
741.898	1720.81
742.084	1839.59
742.269	1767.91
742.454	1712.61
742.639	1745.38
742.824	1772
743.01	1696.23
743.195	1817.06
743.38	1757.67
743.565	1683.94
743.75	1817.06
743.935	1708.52
744.12	1722.85
744.305	1685.99
744.49	1716.71
744.675	1685.99
744.86	1698.28
745.045	1630.7
745.23	1642.98
745.415	1559.02
745.6	1722.85
745.785	1653.22
745.97	1642.98
746.155	1747.43
746.34	1616.36
746.525	1653.22
746.71	1606.12
746.895	1501.67
747.079	1567.21
747.264	1518.06
747.449	1503.72
747.634	1593.83
747.819	1509.86
748.003	1481.19
748.188	1542.63
748.373	1460.71
748.557	1468.91
748.742	1610.22
748.927	1460.71
749.111	1436.14
749.296	1536.49
749.481	1473
749.665	1470.95
749.85	1446.38
750.034	1452.52
750.219	1419.75
750.404	1413.61
750.588	1391.08
750.773	1321.45
750.957	1384.94
751.141	1452.52
751.326	1409.51
751.51	1358.32
751.695	1321.45
751.879	1362.41
752.064	1354.22
752.248	1352.17
752.432	1378.79
752.617	1298.92
752.801	1348.08
752.985	1288.68
753.17	1384.94
753.354	1307.12
753.538	1331.69
753.722	1280.49
753.907	1231.34
754.091	1231.34
754.275	1200.62
754.459	1204.72
754.643	1237.49
754.828	1217.01
755.012	1243.63
755.196	1161.71
755.38	1161.71
755.564	1262.06
755.748	1270.25
755.932	1200.62
756.116	1083.89
756.3	1077.74
756.484	1196.53
756.668	1178.09
756.852	1102.32
757.036	1069.55
757.22	1077.74
757.404	1110.51
757.588	1083.89
757.772	1090.03
757.956	1114.61
758.14	1149.42
758.323	997.87
758.507	1120.75
758.691	1044.98
758.875	1116.65
759.059	1106.42
759.242	1018.35
759.426	1063.41
759.61	1130.99
759.794	1063.41
759.977	1055.22
760.161	1026.54
760.345	1004.02
760.528	993.78
760.712	1004.02
760.895	975.35
761.079	1024.5
761.263	977.39
761.446	872.95
761.63	946.67
761.813	948.72
761.997	922.1
762.18	997.87
762.364	985.58
762.547	920.05
762.731	903.67
762.914	961.01
763.098	881.14
763.281	881.14
763.464	870.9
763.648	915.95
763.831	860.66
764.015	846.32
764.198	903.67
764.381	848.37
764.564	881.14
764.748	821.75
764.931	893.43
765.114	852.47
765.297	907.76
765.481	874.99
765.664	899.57
765.847	829.94
766.03	977.39
766.213	811.51
766.397	881.14
766.58	750.07
766.763	797.17
766.946	823.8
767.129	795.12
767.312	848.37
767.495	813.56
767.678	805.36
767.861	829.94
768.044	850.42
768.227	698.87
768.41	825.84
768.593	856.56
768.776	711.16
768.959	821.75
769.142	823.8
769.324	727.54
769.507	770.55
769.69	793.08
769.873	760.31
770.056	866.8
770.239	797.17
770.421	813.56
770.604	881.14
770.787	758.26
770.97	723.44
771.152	711.16
771.335	772.6
771.518	733.68
771.7	805.36
771.883	782.84
772.066	659.96
772.248	700.92
772.431	776.69
772.613	743.92
772.796	750.07
772.978	659.96
773.161	809.46
773.343	645.62
773.526	659.96
773.708	670.2
773.891	698.87
774.073	707.06
774.256	629.24
774.438	768.5
774.621	696.82
774.803	764.4
774.985	641.53
775.168	721.4
775.35	598.52
775.532	616.95
775.715	659.96
775.897	690.68
776.079	604.66
776.261	635.38
776.444	567.8
776.626	643.57
776.808	569.85
776.99	625.14
777.173	569.85
777.355	557.56
777.537	625.14
777.719	590.33
777.901	625.14
778.083	551.42
778.265	608.76
778.447	559.61
778.629	612.85
778.811	545.27
778.993	530.94
779.175	578.04
779.357	522.74
779.539	485.88
779.721	516.6
779.903	543.22
780.085	524.79
780.267	543.22
780.449	545.27
780.631	592.37
780.812	504.31
780.994	567.8
781.176	494.07
781.358	535.03
781.54	463.35
781.721	485.88
781.903	496.12
782.085	422.39
782.267	461.3
782.448	494.07
782.63	406.01
782.812	436.73
782.993	502.26
783.175	461.3
783.357	420.35
783.538	438.78
783.72	414.2
783.901	416.25
784.083	436.73
784.264	455.16
784.446	403.96
784.627	416.25
784.809	412.15
784.99	436.73
785.172	477.69
785.353	338.43
785.535	387.58
785.716	414.2
785.897	338.43
786.079	387.58
786.26	461.3
786.441	455.16
786.623	338.43
786.804	367.1
786.985	391.67
787.167	412.15
787.348	422.39
787.529	414.2
787.71	313.85
787.891	340.47
788.073	446.97
788.254	340.47
788.435	391.67
788.616	420.35
788.797	309.76
788.978	434.68
789.159	395.77
789.34	408.06
789.522	363
789.703	379.39
789.884	289.28
790.065	350.71
790.246	346.62
790.427	334.33
790.607	350.71
790.788	328.19
790.969	332.28
791.15	352.76
791.331	313.85
791.512	283.13
791.693	272.89
791.874	264.7
792.054	379.39
792.235	358.91
792.416	287.23
792.597	279.04
792.778	322.04
792.958	320
793.139	330.23
793.32	297.47
793.5	303.61
793.681	354.81
793.862	313.85
794.042	332.28
794.223	264.7
794.404	190.97
794.584	227.84
794.765	356.86
794.945	328.19
795.126	354.81
795.306	297.47
795.487	293.37
795.667	209.4
795.848	342.52
796.028	252.41
796.209	264.7
796.389	287.23
796.57	193.02
796.75	190.97
796.93	256.51
797.111	293.37
797.291	227.84
797.471	252.41
797.652	258.56
797.832	272.89
798.012	272.89
798.192	289.28
798.373	211.45
798.553	195.07
798.733	254.46
798.913	233.98
799.093	246.27
799.274	293.37
799.454	250.36
799.634	281.08
799.814	274.94
799.994	240.12
800.174	289.28
800.354	223.74
800.534	119.29
800.714	250.36
800.894	248.32
801.074	166.4
801.254	199.16
801.434	233.98
801.614	150.01
801.794	141.82
801.974	782.84
802.154	209.4
802.334	231.93
802.514	143.87
802.693	240.12
802.873	193.02
803.053	236.03
803.233	231.93
803.413	182.78
803.592	272.89
803.772	225.79
803.952	174.59
804.131	176.64
804.311	236.03
804.491	190.97
804.67	131.58
804.85	201.21
805.03	174.59
805.209	250.36
805.389	162.3
805.568	102.91
805.748	180.73
805.928	193.02
806.107	223.74
806.287	147.97
806.466	176.64
806.646	129.53
806.825	150.01
807.004	117.25
807.184	207.36
807.363	139.77
807.543	266.75
807.722	76.29
807.901	96.77
808.081	168.45
808.26	53.76
808.439	119.29
808.619	160.25
808.798	195.07
808.977	152.06
809.156	174.59
809.336	174.59
809.515	145.92
809.694	109.05
809.873	184.83
810.052	180.73
810.231	207.36
810.411	201.21
810.59	178.69
810.769	84.48
810.948	164.35
811.127	168.45
811.306	121.34
811.485	125.44
811.664	166.4
811.843	111.1
812.022	186.88
812.201	201.21
812.38	147.97
812.559	143.87
812.737	236.03
812.916	123.39
813.095	174.59
813.274	96.77
813.453	125.44
813.632	90.62
813.811	172.54
813.989	109.05
814.168	154.11
814.347	104.96
814.526	135.68
814.704	127.49
814.883	145.92
815.062	143.87
815.24	193.02
815.419	121.34
815.598	238.08
815.776	68.09
815.955	158.21
816.133	143.87
816.312	117.25
816.49	121.34
816.669	80.38
816.847	76.29
817.026	150.01
817.204	141.82
817.383	104.96
817.561	113.15
817.74	141.82
817.918	61.95
818.097	27.14
818.275	129.53
818.453	174.59
818.632	143.87
818.81	121.34
818.988	33.28
819.167	125.44
819.345	150.01
819.523	76.29
819.701	70.14
819.879	125.44
820.058	78.33
820.236	133.63
820.414	35.33
820.592	33.28
820.77	111.1
820.948	100.86
821.127	92.67
821.305	53.76
821.483	80.38
821.661	51.71
821.839	96.77
822.017	100.86
822.195	94.72
822.373	119.29
822.551	84.48
822.729	125.44
822.907	61.95
823.085	84.48
823.262	100.86
823.44	152.06
823.618	88.57
823.796	147.97
823.974	61.95
824.152	64
824.329	94.72
824.507	150.01
824.685	127.49
824.863	96.77
825.04	78.33
825.218	92.67
825.396	160.25
825.574	76.29
825.751	-19.97
825.929	162.3
826.107	70.14
826.284	117.25
826.462	125.44
826.639	35.33
826.817	100.86
826.994	37.38
827.172	90.62
827.349	88.57
827.527	92.67
827.704	84.48
827.882	70.14
828.059	47.62
828.237	53.76
828.414	133.63
828.591	41.47
828.769	145.92
828.946	-5.63
829.124	86.53
829.301	117.25
829.478	55.81
829.655	92.67
829.833	109.05
830.01	115.2
830.187	125.44
830.364	61.95
830.542	92.67
830.719	150.01
830.896	31.23
831.073	92.67
831.25	78.33
831.427	35.33
831.604	92.67
831.782	160.25
831.959	94.72
832.136	64
832.313	72.19
832.49	51.71
832.667	76.29
832.844	31.23
833.021	74.24
833.198	133.63
833.374	59.9
833.551	94.72
833.728	117.25
833.905	88.57
834.082	131.58
834.259	133.63
834.436	45.57
834.612	57.86
834.789	51.71
834.966	29.18
835.143	137.73
835.319	14.85
835.496	80.38
835.673	33.28
835.85	160.25
836.026	70.14
836.203	70.14
836.38	86.53
836.556	35.33
836.733	-34.3
836.909	139.77
837.086	14.85
837.262	41.47
837.439	84.48
837.616	68.09
837.792	72.19
837.968	86.53
838.145	35.33
838.321	72.19
838.498	47.62
838.674	51.71
838.851	35.33
839.027	35.33
839.203	47.62
839.38	88.57
839.556	78.33
839.732	18.94
839.909	55.81
840.085	119.29
840.261	-30.21
840.437	72.19
840.614	72.19
840.79	113.15
840.966	109.05
841.142	96.77
841.318	27.14
841.494	-1.54
841.671	107.01
841.847	-24.06
842.023	59.9
842.199	92.67
842.375	72.19
842.551	27.14
842.727	-38.4
842.903	51.71
843.079	-36.35
843.255	80.38
843.431	86.53
843.607	119.29
843.783	-24.06
843.959	39.42
844.134	45.57
844.31	2.56
844.486	53.76
844.662	68.09
844.838	66.05
845.013	66.05
845.189	131.58
845.365	35.33
845.541	4.61
845.716	57.86
845.892	102.91
846.068	10.75
846.244	4.61
846.419	96.77
846.595	35.33
846.77	53.76
846.946	31.23
847.122	80.38
847.297	10.75
847.473	61.95
847.648	18.94
847.824	68.09
847.999	35.33
848.175	84.48
848.35	94.72
848.526	115.2
848.701	45.57
848.876	53.76
849.052	27.14
849.227	100.86
849.403	12.8
849.578	102.91
849.753	70.14
849.929	53.76
850.104	-28.16
850.279	96.77
850.454	78.33
850.63	55.81
850.805	55.81
850.98	49.66
851.155	10.75
851.33	100.86
851.505	37.38
851.681	137.73
851.856	49.66
852.031	37.38
852.206	10.75
852.381	61.95
852.556	23.04
852.731	-5.63
852.906	47.62
853.081	39.42
853.256	64
853.431	68.09
853.606	27.14
853.781	31.23
853.956	39.42
854.131	43.52
854.305	23.04
854.48	35.33
854.655	-62.98
854.83	119.29
855.005	-15.87
855.18	-5.63
855.354	20.99
855.529	35.33
855.704	-3.58
855.879	80.38
856.053	-30.21
856.228	18.94
856.403	14.85
856.577	-50.69
856.752	-46.59
856.926	72.19
857.101	31.23
857.276	-5.63
857.45	31.23
857.625	35.33
857.799	-34.3
857.974	84.48
858.148	4.61
858.323	-17.92
858.497	-3.58
858.672	-19.97
858.846	12.8
859.02	-9.73
859.195	-34.3
859.369	68.09
859.543	-54.78
859.718	68.09
859.892	27.14
860.066	10.75
860.241	-42.5
860.415	8.7
860.589	-11.78
860.763	2.56
860.938	18.94
861.112	68.09
861.286	23.04
861.46	-11.78
861.634	55.81
861.808	59.9
861.982	35.33
862.157	92.67
862.331	10.75
862.505	43.52
862.679	-22.02
862.853	-5.63
863.027	27.14
863.201	-13.82
863.375	20.99
863.549	84.48
863.722	10.75
863.896	0.51
864.07	23.04
864.244	29.18
864.418	10.75
864.592	29.18
864.766	29.18
864.939	-22.02
865.113	51.71
865.287	84.48
865.461	92.67
865.634	10.75
865.808	4.61
865.982	51.71
866.156	-46.59
866.329	-22.02
866.503	-71.17
866.676	92.67
866.85	4.61
867.024	31.23
867.197	-9.73
867.371	82.43
867.544	2.56
867.718	76.29
867.891	18.94
868.065	-11.78
868.238	-7.68
868.412	31.23
868.585	12.8
868.759	-9.73
868.932	16.9
869.105	61.95
869.279	23.04
869.452	-19.97
869.625	51.71
869.799	33.28
869.972	-32.26
870.145	14.85
870.319	20.99
870.492	-3.58
870.665	-54.78
870.838	23.04
871.011	-9.73
871.185	35.33
871.358	-46.59
871.531	96.77
871.704	-17.92
871.877	37.38
872.05	49.66
872.223	72.19
872.396	-46.59
872.569	27.14
872.742	-17.92
872.915	8.7
873.088	2.56
873.261	0.51
873.434	16.9
873.607	29.18
873.78	-17.92
873.953	20.99
874.126	43.52
874.299	-5.63
874.471	-5.63
874.644	53.76
874.817	-22.02
874.99	84.48
875.163	51.71
875.335	-28.16
875.508	20.99
875.681	70.14
875.853	18.94
876.026	51.71
876.199	-13.82
876.371	-13.82
876.544	27.14
876.717	-46.59
876.889	31.23
877.062	109.05
877.234	27.14
877.407	-58.88
877.579	10.75
877.752	-11.78
877.924	-26.11
878.097	33.28
878.269	18.94
878.442	10.75
878.614	100.86
878.786	59.9
878.959	43.52
879.131	10.75
879.303	10.75
879.476	29.18
879.648	-30.21
879.82	16.9
879.993	-42.5
880.165	20.99
880.337	-32.26
880.509	68.09
880.681	51.71
880.854	2.56
881.026	-30.21
881.198	135.68
881.37	76.29
881.542	20.99
881.714	6.66
881.886	-19.97
882.058	-30.21
882.23	10.75
882.402	64
882.574	51.71
882.746	2.56
882.918	102.91
883.09	-17.92
883.262	49.66
883.434	43.52
883.606	-52.74
883.778	55.81
883.95	-5.63
884.122	6.66
884.293	43.52
884.465	59.9
884.637	10.75
884.809	10.75
884.98	43.52
885.152	47.62
885.324	35.33
885.496	-19.97
885.667	74.24
885.839	-9.73
886.011	-30.21
886.182	-30.21
886.354	27.14
886.525	-17.92
886.697	127.49
886.869	-5.63
887.04	-22.02
887.212	49.66
887.383	37.38
887.555	-5.63
887.726	-101.89
887.897	4.61
888.069	-17.92
888.24	-30.21
888.412	43.52
888.583	43.52
888.754	-19.97
888.926	-13.82
889.097	-26.11
889.268	-22.02
889.44	12.8
889.611	27.14
889.782	-13.82
889.953	-22.02
890.125	33.28
890.296	23.04
890.467	-71.17
890.638	2.56
890.809	-56.83
890.98	-77.31
891.151	68.09
891.323	-69.12
891.494	-1.54
891.665	-3.58
891.836	29.18
892.007	-1.54
892.178	10.75
892.349	-5.63
892.52	-120.32
892.691	47.62
892.862	-5.63
893.032	0.51
893.203	-7.68
893.374	10.75
893.545	27.14
893.716	-11.78
893.887	18.94
894.057	-44.54
894.228	4.61
894.399	-52.74
894.57	10.75
894.74	-3.58
894.911	61.95
895.082	2.56
895.253	51.71
895.423	-5.63
895.594	-5.63
895.764	-1.54
895.935	25.09
896.106	18.94
896.276	4.61
896.447	14.85
896.617	-17.92
896.788	14.85
896.958	-44.54
897.129	-5.63
897.299	-24.06
897.47	72.19
897.64	18.94
897.81	27.14
897.981	27.14
898.151	-42.5
898.322	12.8
898.492	4.61
898.662	6.66
898.832	-9.73
899.003	39.42
899.173	18.94
899.343	39.42
899.513	-91.65
