Data from USB4F104151__15__14-42-38-208.txt Node

Date: Thu Mar 13 14:42:38 EDT 2025
User: louis
Spectrometer: USB4F10415
Trigger mode: 4
Integration Time (sec): 2.000000E-2
Scans to average: 1
Electric dark correction enabled: true
Nonlinearity correction enabled: false
Boxcar width: 0
XAxis mode: Wavelengths
Number of Pixels in Spectrum: 3648
>>>>>Begin Spectral Data<<<<<
178.204	-169.3
178.424	-169.3
178.644	-169.3
178.864	-62.8
179.084	-105.81
179.304	-1.37
179.524	-42.32
179.744	10.92
179.964	60.07
180.184	-42.32
180.404	-71
180.624	90.79
180.844	-17.75
181.064	35.5
181.283	-34.13
181.503	-44.37
181.723	55.98
181.943	-93.52
182.163	0.68
182.383	45.74
182.602	72.36
182.822	80.55
183.042	154.28
183.262	43.69
183.482	41.64
183.701	41.64
183.921	6.83
184.141	-27.99
184.361	62.12
184.58	-1.37
184.8	70.31
185.02	-13.65
185.239	0.68
185.459	80.55
185.679	-17.75
185.898	66.22
186.118	19.11
186.338	2.73
186.557	39.59
186.777	-68.95
186.997	35.5
187.216	25.26
187.436	101.03
187.655	19.11
187.875	4.78
188.095	47.79
188.314	-9.56
188.534	53.93
188.753	31.4
188.973	82.6
189.192	49.83
189.412	125.61
189.631	55.98
189.851	70.31
190.07	96.94
190.29	43.69
190.509	15.02
190.729	72.36
190.948	82.6
191.168	129.7
191.387	55.98
191.607	-38.23
191.826	21.16
192.045	-11.61
192.265	15.02
192.484	-38.23
192.704	68.27
192.923	23.21
193.142	82.6
193.362	10.92
193.581	17.07
193.8	6.83
194.02	76.46
194.239	-34.13
194.458	43.69
194.678	29.35
194.897	29.35
195.116	-30.04
195.335	45.74
195.555	78.51
195.774	47.79
195.993	70.31
196.212	0.68
196.432	-15.7
196.651	25.26
196.87	62.12
197.089	88.75
197.308	80.55
197.528	10.92
197.747	23.21
197.966	76.46
198.185	82.6
198.404	47.79
198.623	101.03
198.842	49.83
199.062	51.88
199.281	68.27
199.5	51.88
199.719	49.83
199.938	31.4
200.157	125.61
200.376	12.97
200.595	51.88
200.814	-7.51
201.033	-13.65
201.252	43.69
201.471	-48.47
201.69	123.56
201.909	80.55
202.128	41.64
202.347	21.16
202.566	31.4
202.785	-50.52
203.004	-17.75
203.223	64.17
203.442	96.94
203.661	-25.94
203.879	10.92
204.098	60.07
204.317	-46.42
204.536	47.79
204.755	17.07
204.974	51.88
205.193	41.64
205.411	88.75
205.63	72.36
205.849	72.36
206.068	96.94
206.287	55.98
206.505	86.7
206.724	53.93
206.943	55.98
207.162	58.03
207.381	-7.51
207.599	51.88
207.818	-1.37
208.037	35.5
208.255	-17.75
208.474	-30.04
208.693	47.79
208.911	70.31
209.13	105.13
209.349	105.13
209.567	66.22
209.786	101.03
210.005	68.27
210.223	64.17
210.442	-9.56
210.661	64.17
210.879	49.83
211.098	45.74
211.316	64.17
211.535	74.41
211.753	82.6
211.972	15.02
212.191	43.69
212.409	41.64
212.628	88.75
212.846	-13.65
213.065	39.59
213.283	88.75
213.502	47.79
213.72	72.36
213.938	31.4
214.157	6.83
214.375	47.79
214.594	6.83
214.812	92.84
215.031	-42.32
215.249	74.41
215.467	39.59
215.686	64.17
215.904	37.55
216.122	25.26
216.341	123.56
216.559	-34.13
216.778	101.03
216.996	27.31
217.214	-7.51
217.432	-25.94
217.651	55.98
217.869	17.07
218.087	-1.37
218.306	66.22
218.524	72.36
218.742	39.59
218.96	76.46
219.179	-23.89
219.397	39.59
219.615	109.22
219.833	80.55
220.051	43.69
220.27	39.59
220.488	64.17
220.706	-5.46
220.924	-21.85
221.142	15.02
221.36	-5.46
221.578	47.79
221.796	76.46
222.015	6.83
222.233	-11.61
222.451	123.56
222.669	-9.56
222.887	98.99
223.105	19.11
223.323	17.07
223.541	55.98
223.759	82.6
223.977	-38.23
224.195	96.94
224.413	39.59
224.631	17.07
224.849	-7.51
225.067	62.12
225.285	-27.99
225.503	80.55
225.721	6.83
225.939	51.88
226.157	101.03
226.375	66.22
226.592	55.98
226.81	-9.56
227.028	45.74
227.246	64.17
227.464	10.92
227.682	90.79
227.9	33.45
228.117	51.88
228.335	-32.08
228.553	76.46
228.771	51.88
228.989	82.6
229.206	68.27
229.424	76.46
229.642	-58.71
229.86	-17.75
230.077	23.21
230.295	64.17
230.513	90.79
230.731	76.46
230.948	64.17
231.166	-15.7
231.384	49.83
231.601	-40.28
231.819	31.4
232.037	21.16
232.254	23.21
232.472	6.83
232.689	4.78
232.907	23.21
233.125	47.79
233.342	35.5
233.56	-40.28
233.777	76.46
233.995	70.31
234.213	74.41
234.43	31.4
234.648	10.92
234.865	8.87
235.083	74.41
235.3	60.07
235.518	58.03
235.735	31.4
235.953	70.31
236.17	23.21
236.388	15.02
236.605	72.36
236.822	64.17
237.04	-50.52
237.257	58.03
237.475	-7.51
237.692	-42.32
237.909	39.59
238.127	41.64
238.344	-5.46
238.562	55.98
238.779	27.31
238.996	-1.37
239.214	55.98
239.431	109.22
239.648	-32.08
239.865	90.79
240.083	55.98
240.3	72.36
240.517	43.69
240.735	-21.85
240.952	47.79
241.169	47.79
241.386	41.64
241.603	90.79
241.821	60.07
242.038	113.32
242.255	129.7
242.472	0.68
242.689	60.07
242.907	113.32
243.124	47.79
243.341	53.93
243.558	15.02
243.775	-7.51
243.992	39.59
244.209	25.26
244.426	90.79
244.643	33.45
244.86	43.69
245.078	90.79
245.295	60.07
245.512	6.83
245.729	-7.51
245.946	23.21
246.163	17.07
246.38	64.17
246.597	35.5
246.814	101.03
247.031	55.98
247.248	80.55
247.464	55.98
247.681	113.32
247.898	62.12
248.115	96.94
248.332	-30.04
248.549	64.17
248.766	80.55
248.983	80.55
249.2	-5.46
249.417	27.31
249.633	35.5
249.85	25.26
250.067	-15.7
250.284	113.32
250.501	21.16
250.717	131.75
250.934	10.92
251.151	-11.61
251.368	-93.52
251.585	82.6
251.801	88.75
252.018	31.4
252.235	35.5
252.451	39.59
252.668	105.13
252.885	88.75
253.102	72.36
253.318	39.59
253.535	31.4
253.752	-50.52
253.968	19.11
254.185	2.73
254.401	31.4
254.618	49.83
254.835	49.83
255.051	101.03
255.268	49.83
255.484	68.27
255.701	49.83
255.917	88.75
256.134	-46.42
256.351	68.27
256.567	15.02
256.784	23.21
257	-42.32
257.217	2.73
257.433	31.4
257.65	33.45
257.866	15.02
258.082	23.21
258.299	68.27
258.515	41.64
258.732	17.07
258.948	-5.46
259.165	23.21
259.381	43.69
259.597	-5.46
259.814	33.45
260.03	-9.56
260.246	49.83
260.463	135.85
260.679	60.07
260.895	39.59
261.112	15.02
261.328	12.97
261.544	105.13
261.761	101.03
261.977	27.31
262.193	8.87
262.409	33.45
262.626	68.27
262.842	58.03
263.058	-13.65
263.274	-1.37
263.49	88.75
263.707	66.22
263.923	35.5
264.139	-17.75
264.355	-1.37
264.571	121.51
264.787	58.03
265.004	39.59
265.22	39.59
265.436	27.31
265.652	98.99
265.868	47.79
266.084	-17.75
266.3	39.59
266.516	8.87
266.732	10.92
266.948	6.83
267.164	88.75
267.38	47.79
267.596	2.73
267.812	55.98
268.028	117.42
268.244	90.79
268.46	101.03
268.676	15.02
268.892	49.83
269.108	80.55
269.324	19.11
269.54	-9.56
269.756	39.59
269.972	4.78
270.188	60.07
270.403	-13.65
270.619	-5.46
270.835	19.11
271.051	64.17
271.267	19.11
271.483	47.79
271.698	62.12
271.914	88.75
272.13	15.02
272.346	2.73
272.562	41.64
272.777	51.88
272.993	33.45
273.209	111.27
273.425	43.69
273.64	4.78
273.856	72.36
274.072	-1.37
274.287	80.55
274.503	25.26
274.719	64.17
274.934	15.02
275.15	-27.99
275.366	25.26
275.581	-1.37
275.797	-7.51
276.012	6.83
276.228	39.59
276.444	35.5
276.659	55.98
276.875	4.78
277.09	55.98
277.306	129.7
277.521	55.98
277.737	-50.52
277.952	27.31
278.168	37.55
278.383	98.99
278.599	12.97
278.814	72.36
279.03	-62.8
279.245	55.98
279.461	-9.56
279.676	101.03
279.892	15.02
280.107	43.69
280.322	64.17
280.538	47.79
280.753	25.26
280.969	-5.46
281.184	-1.37
281.399	15.02
281.615	55.98
281.83	47.79
282.045	-50.52
282.26	80.55
282.476	49.83
282.691	23.21
282.906	70.31
283.122	17.07
283.337	55.98
283.552	92.84
283.767	4.78
283.983	96.94
284.198	-40.28
284.413	39.59
284.628	23.21
284.843	8.87
285.058	21.16
285.274	23.21
285.489	0.68
285.704	-5.46
285.919	23.21
286.134	43.69
286.349	47.79
286.564	-1.37
286.779	98.99
286.995	-1.37
287.21	6.83
287.425	-40.28
287.64	74.41
287.855	47.79
288.07	-15.7
288.285	19.11
288.5	74.41
288.715	39.59
288.93	72.36
289.145	23.21
289.36	39.59
289.575	72.36
289.79	82.6
290.004	51.88
290.219	-7.51
290.434	101.03
290.649	-1.37
290.864	58.03
291.079	55.98
291.294	47.79
291.509	-17.75
291.724	-9.56
291.938	-46.42
292.153	98.99
292.368	35.5
292.583	-7.51
292.798	49.83
293.012	49.83
293.227	47.79
293.442	21.16
293.657	49.83
293.871	88.75
294.086	31.4
294.301	107.18
294.516	78.51
294.73	12.97
294.945	-58.71
295.16	0.68
295.374	90.79
295.589	6.83
295.804	47.79
296.018	-34.13
296.233	39.59
296.447	21.16
296.662	6.83
296.877	98.99
297.091	113.32
297.306	-30.04
297.52	-21.85
297.735	127.66
297.949	60.07
298.164	39.59
298.378	58.03
298.593	41.64
298.807	31.4
299.022	96.94
299.236	49.83
299.451	27.31
299.665	39.59
299.88	64.17
300.094	39.59
300.309	70.31
300.523	51.88
300.737	47.79
300.952	64.17
301.166	49.83
301.381	55.98
301.595	31.4
301.809	17.07
302.024	94.89
302.238	-56.66
302.452	115.37
302.667	-56.66
302.881	80.55
303.095	96.94
303.309	-7.51
303.524	68.27
303.738	92.84
303.952	25.26
304.166	88.75
304.381	58.03
304.595	105.13
304.809	27.31
305.023	80.55
305.237	23.21
305.452	31.4
305.666	-42.32
305.88	60.07
306.094	129.7
306.308	88.75
306.522	55.98
306.736	133.8
306.95	101.03
307.164	101.03
307.379	25.26
307.593	80.55
307.807	76.46
308.021	33.45
308.235	25.26
308.449	-7.51
308.663	84.65
308.877	158.38
309.091	101.03
309.305	35.5
309.519	2.73
309.733	31.4
309.947	17.07
310.161	0.68
310.374	78.51
310.588	164.52
310.802	6.83
311.016	-9.56
311.23	76.46
311.444	19.11
311.658	47.79
311.872	144.04
312.085	33.45
312.299	23.21
312.513	115.37
312.727	41.64
312.941	31.4
313.154	137.9
313.368	31.4
313.582	90.79
313.796	25.26
314.009	-1.37
314.223	101.03
314.437	68.27
314.651	51.88
314.864	23.21
315.078	35.5
315.292	6.83
315.505	41.64
315.719	6.83
315.933	72.36
316.146	58.03
316.36	19.11
316.573	113.32
316.787	47.79
317.001	37.55
317.214	31.4
317.428	115.37
317.641	53.93
317.855	19.11
318.068	43.69
318.282	12.97
318.495	12.97
318.709	64.17
318.922	31.4
319.136	76.46
319.349	39.59
319.563	35.5
319.776	117.42
319.99	-32.08
320.203	129.7
320.417	19.11
320.63	117.42
320.843	51.88
321.057	17.07
321.27	10.92
321.483	-34.13
321.697	68.27
321.91	60.07
322.124	25.26
322.337	31.4
322.55	58.03
322.763	58.03
322.977	47.79
323.19	101.03
323.403	103.08
323.617	80.55
323.83	127.66
324.043	66.22
324.256	58.03
324.469	23.21
324.683	152.23
324.896	51.88
325.109	60.07
325.322	23.21
325.535	33.45
325.748	90.79
325.962	51.88
326.175	23.21
326.388	43.69
326.601	19.11
326.814	15.02
327.027	19.11
327.24	137.9
327.453	31.4
327.666	96.94
327.879	72.36
328.092	113.32
328.305	17.07
328.518	23.21
328.731	43.69
328.944	64.17
329.157	6.83
329.37	-62.8
329.583	12.97
329.796	64.17
330.009	72.36
330.222	25.26
330.435	51.88
330.648	47.79
330.861	64.17
331.073	31.4
331.286	49.83
331.499	80.55
331.712	0.68
331.925	74.41
332.138	66.22
332.35	58.03
332.563	23.21
332.776	-1.37
332.989	107.18
333.202	82.6
333.414	121.51
333.627	58.03
333.84	43.69
334.053	105.13
334.265	35.5
334.478	-23.89
334.691	96.94
334.903	23.21
335.116	-50.52
335.329	39.59
335.541	39.59
335.754	107.18
335.966	2.73
336.179	31.4
336.392	41.64
336.604	33.45
336.817	137.9
337.029	58.03
337.242	6.83
337.454	62.12
337.667	-17.75
337.88	72.36
338.092	39.59
338.305	43.69
338.517	58.03
338.729	60.07
338.942	80.55
339.154	-13.65
339.367	37.55
339.579	80.55
339.792	88.75
340.004	113.32
340.217	37.55
340.429	88.75
340.641	12.97
340.854	19.11
341.066	-42.32
341.278	76.46
341.491	-58.71
341.703	35.5
341.915	19.11
342.128	96.94
342.34	64.17
342.552	12.97
342.764	37.55
342.977	35.5
343.189	82.6
343.401	98.99
343.613	23.21
343.826	-48.47
344.038	45.74
344.25	82.6
344.462	-13.65
344.674	96.94
344.886	55.98
345.099	92.84
345.311	129.7
345.523	58.03
345.735	-23.89
345.947	23.21
346.159	39.59
346.371	39.59
346.583	39.59
346.795	90.79
347.007	60.07
347.219	92.84
347.431	19.11
347.643	146.09
347.855	0.68
348.067	94.89
348.279	17.07
348.491	76.46
348.703	-1.37
348.915	82.6
349.127	8.87
349.339	-1.37
349.551	72.36
349.763	15.02
349.975	72.36
350.187	92.84
350.399	94.89
350.61	72.36
350.822	23.21
351.034	72.36
351.246	55.98
351.458	45.74
351.669	55.98
351.881	76.46
352.093	60.07
352.305	90.79
352.517	80.55
352.728	146.09
352.94	55.98
353.152	58.03
353.363	6.83
353.575	35.5
353.787	68.27
353.999	98.99
354.21	94.89
354.422	27.31
354.633	6.83
354.845	84.65
355.057	6.83
355.268	101.03
355.48	113.32
355.692	-1.37
355.903	-19.8
356.115	-42.32
356.326	6.83
356.538	33.45
356.749	15.02
356.961	121.51
357.172	131.75
357.384	109.22
357.595	178.86
357.807	109.22
358.018	127.66
358.23	123.56
358.441	129.7
358.653	105.13
358.864	66.22
359.075	15.02
359.287	43.69
359.498	6.83
359.709	39.59
359.921	60.07
360.132	55.98
360.344	129.7
360.555	19.11
360.766	55.98
360.977	47.79
361.189	60.07
361.4	10.92
361.611	78.51
361.823	29.35
362.034	88.75
362.245	80.55
362.456	-17.75
362.667	39.59
362.879	-5.46
363.09	-54.61
363.301	47.79
363.512	64.17
363.723	45.74
363.935	6.83
364.146	96.94
364.357	-1.37
364.568	72.36
364.779	33.45
364.99	117.42
365.201	49.83
365.412	113.32
365.623	45.74
365.834	6.83
366.045	86.7
366.256	76.46
366.467	-32.08
366.678	23.21
366.889	64.17
367.1	-1.37
367.311	27.31
367.522	-21.85
367.733	51.88
367.944	31.4
368.155	92.84
368.366	92.84
368.577	86.7
368.788	84.65
368.999	31.4
369.209	31.4
369.42	125.61
369.631	121.51
369.842	113.32
370.053	64.17
370.264	60.07
370.474	15.02
370.685	47.79
370.896	80.55
371.107	88.75
371.317	105.13
371.528	47.79
371.739	74.41
371.95	15.02
372.16	113.32
372.371	35.5
372.582	55.98
372.792	-15.7
373.003	76.46
373.214	41.64
373.424	199.34
373.635	8.87
373.846	60.07
374.056	8.87
374.267	74.41
374.477	74.41
374.688	47.79
374.898	33.45
375.109	-13.65
375.319	51.88
375.53	101.03
375.74	-1.37
375.951	96.94
376.161	90.79
376.372	47.79
376.582	64.17
376.793	66.22
377.003	58.03
377.214	-13.65
377.424	72.36
377.635	27.31
377.845	-30.04
378.055	117.42
378.266	15.02
378.476	-7.51
378.686	113.32
378.897	146.09
379.107	43.69
379.317	64.17
379.528	-62.8
379.738	76.46
379.948	43.69
380.158	96.94
380.369	66.22
380.579	105.13
380.789	49.83
380.999	94.89
381.21	72.36
381.42	109.22
381.63	45.74
381.84	-17.75
382.05	33.45
382.261	156.33
382.471	88.75
382.681	80.55
382.891	41.64
383.101	31.4
383.311	107.18
383.521	58.03
383.731	90.79
383.941	119.46
384.151	41.64
384.361	96.94
384.571	43.69
384.781	133.8
384.991	94.89
385.201	129.7
385.411	27.31
385.621	66.22
385.831	64.17
386.041	90.79
386.251	101.03
386.461	37.55
386.671	31.4
386.881	119.46
387.091	66.22
387.301	141.99
387.511	68.27
387.72	31.4
387.93	51.88
388.14	96.94
388.35	164.52
388.56	55.98
388.769	113.32
388.979	88.75
389.189	107.18
389.399	74.41
389.609	90.79
389.818	66.22
390.028	41.64
390.238	47.79
390.447	72.36
390.657	76.46
390.867	64.17
391.076	31.4
391.286	137.9
391.496	15.02
391.705	133.8
391.915	80.55
392.125	107.18
392.334	43.69
392.544	49.83
392.753	64.17
392.963	53.93
393.172	72.36
393.382	21.16
393.591	115.37
393.801	88.75
394.01	115.37
394.22	90.79
394.429	72.36
394.639	105.13
394.848	88.75
395.058	17.07
395.267	33.45
395.477	121.51
395.686	64.17
395.895	105.13
396.105	121.51
396.314	129.7
396.524	33.45
396.733	10.92
396.942	113.32
397.152	31.4
397.361	113.32
397.57	6.83
397.78	49.83
397.989	101.03
398.198	64.17
398.407	55.98
398.617	121.51
398.826	101.03
399.035	109.22
399.244	133.8
399.453	96.94
399.663	64.17
399.872	146.09
400.081	111.27
400.29	223.91
400.499	88.75
400.708	139.94
400.917	43.69
401.127	127.66
401.336	101.03
401.545	279.21
401.754	146.09
401.963	150.18
402.172	78.51
402.381	88.75
402.59	137.9
402.799	117.42
403.008	96.94
403.217	80.55
403.426	154.28
403.635	10.92
403.844	148.14
404.053	131.75
404.262	123.56
404.471	131.75
404.68	187.05
404.888	207.53
405.097	123.56
405.306	127.66
405.515	193.19
405.724	105.13
405.933	162.47
406.142	129.7
406.35	66.22
406.559	121.51
406.768	160.42
406.977	225.96
407.185	119.46
407.394	172.71
407.603	76.46
407.812	228.01
408.02	141.99
408.229	150.18
408.438	156.33
408.646	260.77
408.855	236.2
409.064	174.76
409.272	228.01
409.481	178.86
409.69	228.01
409.898	223.91
410.107	250.53
410.315	344.74
410.524	203.43
410.733	320.17
410.941	240.3
411.15	301.73
411.358	234.15
411.567	309.93
411.775	295.59
411.984	348.84
412.192	309.93
412.401	297.64
412.609	430.76
412.818	377.51
413.026	498.34
413.234	385.7
413.443	395.94
413.651	441
413.86	504.48
414.068	506.53
414.276	461.48
414.485	422.56
414.693	537.25
414.901	551.59
415.11	510.63
415.318	539.3
415.526	604.83
415.734	641.7
415.943	635.55
416.151	633.5
416.359	617.12
416.567	670.37
416.776	658.08
416.984	772.77
417.192	748.19
417.4	719.52
417.608	850.59
417.817	752.29
418.025	860.83
418.233	916.12
418.441	871.07
418.649	932.51
418.857	961.18
419.065	1055.39
419.273	965.28
419.481	1141.4
419.689	1120.92
419.897	1172.12
420.105	1137.31
420.313	1243.8
420.521	1309.33
420.729	1211.03
420.937	1303.19
421.145	1352.34
421.353	1475.22
421.561	1499.8
421.769	1555.09
421.977	1587.86
422.185	1610.39
422.393	1604.24
422.601	1673.87
422.809	1825.42
423.017	1880.72
423.224	1915.53
423.432	1989.26
423.64	1974.92
423.848	2122.38
424.056	2015.88
424.263	2343.56
424.471	2235.02
424.679	2366.09
424.887	2382.47
425.094	2310.79
425.302	2515.59
425.51	2425.48
425.718	2595.46
425.925	2597.51
426.133	2853.5
426.341	3062.4
426.548	3166.84
426.756	3166.84
426.964	3195.51
427.171	3236.47
427.379	3236.47
427.586	3404.41
427.794	3457.65
428.001	3660.4
428.209	3908.21
428.417	3682.93
428.624	4104.81
428.832	4047.47
429.039	4037.23
429.247	3844.72
429.454	4442.73
429.662	4668
429.869	4313.7
430.076	4655.72
430.284	4655.72
430.491	4823.65
430.699	5085.79
430.906	5014.11
431.114	5163.61
431.321	5157.47
431.528	5315.16
431.736	5593.69
431.943	5808.72
432.15	5915.22
432.358	5945.94
432.565	5984.85
432.772	6296.14
432.979	6421.06
433.187	6666.82
433.394	6513.22
433.601	6978.11
433.808	7141.95
434.016	7086.65
434.223	7313.98
434.43	7725.62
434.637	7723.57
434.844	8231.47
435.052	8108.59
435.259	8188.46
435.466	8313.39
435.673	8223.28
435.88	8682.02
436.087	9132.58
436.294	9050.66
436.501	8815.14
436.708	9060.9
436.915	9552.41
437.122	9755.16
437.329	9787.93
437.537	10111.5
437.743	10486.28
437.95	10166.8
438.157	10854.92
438.364	11051.52
438.571	11198.98
438.778	11248.13
438.985	12282.35
439.192	11649.53
439.399	12050.93
439.606	11770.36
439.813	12591.59
440.02	13167.07
440.227	12941.8
440.433	12739.05
440.64	13230.56
440.847	13384.16
441.054	13603.29
441.261	14594.51
441.467	14260.69
441.674	14674.38
441.881	15264.19
442.088	15102.4
442.294	14957
442.501	15579.58
442.708	15641.02
442.914	16247.22
443.121	16970.15
443.328	16441.78
443.534	17627.55
443.741	17303.97
443.948	16914.86
444.154	18155.93
444.361	17969.56
444.568	18475.41
444.774	18192.79
444.981	18516.37
445.187	19091.85
445.394	19792.25
445.6	19585.41
445.807	21494.11
446.013	20498.8
446.22	20910.44
446.426	21909.85
446.633	21856.61
446.839	22946.12
447.046	21711.2
447.252	23030.09
447.459	23087.43
447.665	23009.61
447.871	24191.29
448.078	24930.61
448.284	23804.22
448.491	24557.88
448.697	25483.56
448.903	26188.06
449.11	26399
449.316	25604.39
449.522	26138.91
449.728	27025.68
449.935	27494.66
450.141	27455.75
450.347	27756.8
450.553	26818.83
450.76	27302.15
450.966	28309.75
451.172	27752.71
451.378	28541.18
451.584	28006.66
451.791	28692.72
451.997	28586.23
452.203	29323.5
452.409	29122.8
452.615	29284.59
452.821	28219.64
453.027	27785.47
453.233	29270.25
453.44	28406.01
453.646	29020.4
453.852	28371.19
454.058	28932.34
454.264	28197.12
454.47	28719.35
454.676	28109.05
454.882	28711.16
455.088	26556.69
455.294	27244.81
455.5	27441.42
455.705	27867.39
455.911	26339.61
456.117	26003.74
456.323	25743.65
456.529	24494.39
456.735	25547.04
456.941	25082.16
457.147	24574.26
457.352	23880
457.558	23705.92
457.764	23972.16
457.97	23349.57
458.176	22630.74
458.381	22696.27
458.587	21393.76
458.793	21449.06
458.999	20633.97
459.204	22022.49
459.41	21176.68
459.616	20015.48
459.821	20216.18
460.027	20001.15
460.233	19661.18
460.438	18622.86
460.644	18936.2
460.85	18246.04
461.055	17600.93
461.261	17766.81
461.466	16351.67
461.672	15796.67
461.878	17000.87
462.083	15827.39
462.289	15671.74
462.494	15438.27
462.7	14594.51
462.905	14412.24
463.111	14952.9
463.316	14811.59
463.522	14623.18
463.727	14686.67
463.932	14926.28
464.138	14653.9
464.343	14678.47
464.549	14240.21
464.754	14653.9
464.959	14498.25
465.165	14326.22
465.37	13937.11
465.575	13539.8
465.781	14105.04
465.986	14103
466.191	13631.96
466.397	13558.24
466.602	12575.21
466.807	13400.54
467.012	13267.42
467.218	13195.75
467.423	13011.43
467.628	12980.71
467.833	13564.38
468.038	13197.79
468.244	12640.75
468.449	13203.94
468.654	12947.94
468.859	12915.17
469.064	12777.96
469.269	12212.72
469.474	12341.74
469.679	12542.44
469.885	12046.83
470.09	12388.85
470.295	12268.02
470.5	11899.38
470.705	11913.72
470.91	11942.39
471.115	11696.63
471.32	12057.07
471.525	11614.71
471.73	11479.55
471.935	11577.85
472.139	11196.93
472.344	11266.56
472.549	11059.71
472.754	11012.61
472.959	10826.25
473.164	10641.93
473.369	10596.87
473.574	10789.38
473.778	10705.42
473.983	10736.13
474.188	10811.91
474.393	10103.31
474.598	9970.19
474.802	10007.06
475.007	9771.54
475.212	10035.73
475.417	9875.99
475.621	9671.19
475.826	9773.59
476.031	9652.76
476.235	9417.24
476.44	9419.29
476.645	9251.36
476.849	9382.43
477.054	9185.82
477.259	8976.93
477.463	9103.9
477.668	8698.41
477.872	9083.42
478.077	8544.81
478.282	8538.66
478.486	8561.19
478.691	8593.96
478.895	8493.61
479.1	8313.39
479.304	8444.46
479.509	8008.24
479.713	8419.88
479.918	8284.72
480.122	8170.03
480.326	8186.41
480.531	8096.3
480.735	7905.84
480.94	8108.59
481.144	8348.2
481.348	7850.55
481.553	8053.3
481.757	7805.49
481.961	7885.36
482.166	8112.69
482.37	7928.37
482.574	7694.9
482.778	8077.87
482.983	8084.02
483.187	7918.13
483.391	7846.45
483.595	7803.44
483.8	7854.64
484.004	7961.14
484.208	7725.62
484.412	7825.97
484.616	7928.37
484.821	7979.57
485.025	7778.87
485.229	7918.13
485.433	7866.93
485.637	8012.34
485.841	7819.83
486.045	7846.45
486.249	7918.13
486.453	7948.85
486.657	7887.41
486.861	7985.71
487.065	7709.24
487.269	7725.62
487.473	7813.68
487.677	7998
487.881	8043.06
488.085	7776.82
488.289	8034.86
488.493	7791.16
488.697	8096.3
488.901	7959.09
489.105	8057.39
489.309	8149.55
489.512	7879.22
489.716	7914.03
489.92	8127.02
490.124	8231.47
490.328	8342.06
490.531	8141.36
490.735	8219.18
490.939	8348.2
491.143	8120.88
491.346	8303.15
491.55	8415.79
491.754	8288.81
491.958	8548.9
492.161	8311.34
492.365	8567.34
492.569	8469.03
492.772	8413.74
492.976	8479.27
493.18	8395.31
493.383	8870.44
493.587	8888.87
493.79	8845.86
493.994	8583.72
494.197	8733.22
494.401	8872.48
494.605	9040.42
494.808	9142.82
495.012	9198.11
495.215	9216.54
495.419	9398.81
495.622	9384.48
495.825	9603.61
496.029	9484.83
496.232	9628.18
496.436	9521.69
496.639	9919
496.843	10091.02
497.046	10002.96
497.249	9935.38
497.453	10435.08
497.656	10344.97
497.859	10322.45
498.063	10467.85
498.266	10795.53
498.469	10615.3
498.673	10816.01
498.876	11086.34
499.079	11164.16
499.282	11180.54
499.485	11581.95
499.689	11805.17
499.892	11688.44
500.095	11581.95
500.298	12009.97
500.501	11833.85
500.705	12272.11
500.908	12413.42
501.111	12558.83
501.314	12567.02
501.517	12712.42
501.72	13042.15
501.923	13005.28
502.126	13302.24
502.329	13482.46
502.532	13482.46
502.735	13832.66
502.938	13965.78
503.141	14152.15
503.344	14113.24
503.547	14393.81
503.75	14434.77
503.953	14670.28
504.156	14787.02
504.359	15012.29
504.562	15114.69
504.765	15577.53
504.968	15516.09
505.17	15845.82
505.373	15798.71
505.576	16114.1
505.779	16150.96
505.982	16472.5
506.185	16589.23
506.387	16824.75
506.59	16818.6
506.793	17250.72
506.996	17514.91
507.198	17746.33
507.401	17932.7
507.604	17867.16
507.807	18493.84
508.009	18688.4
508.212	18420.11
508.415	18876.81
508.617	19321.22
508.82	19282.31
509.022	19192.2
509.225	19777.92
509.428	19816.83
509.63	19829.12
509.833	20136.31
510.035	20515.19
510.238	20674.93
510.44	20980.07
510.643	21209.45
510.845	21539.17
511.048	21490.02
511.25	21901.66
511.453	21877.08
511.655	22454.61
511.858	22716.75
512.06	22821.2
512.262	23069
512.465	22819.15
512.667	23595.33
512.87	23583.04
513.072	23753.02
513.274	23961.92
513.477	24232.25
513.679	24645.94
513.881	24779.06
514.084	25041.2
514.286	24940.85
514.488	25354.54
514.69	26040.61
514.893	25973.02
515.095	26439.96
515.297	26667.28
515.499	26892.56
515.701	26949.9
515.904	27621.64
516.106	27588.87
516.308	27832.58
516.51	28291.32
516.712	28152.06
516.914	28633.33
517.116	28842.23
517.318	29114.61
517.52	29212.91
517.722	29620.45
517.925	29722.85
518.127	30023.9
518.329	30232.8
518.531	30011.62
518.733	30781.65
518.935	31365.32
519.136	31293.65
519.338	31701.19
519.54	31738.05
519.742	32032.96
519.944	32231.61
520.146	33185.97
520.348	33196.21
520.55	33421.48
520.752	33171.63
520.954	33765.54
521.155	33564.84
521.357	33908.9
521.559	34437.28
521.761	34678.94
521.963	34678.94
522.164	34920.6
522.366	35430.54
522.568	35238.03
522.77	35561.61
522.971	35817.61
523.173	35741.83
523.375	36374.66
523.576	36204.67
523.778	36354.18
523.98	37025.91
524.181	37116.02
524.383	36825.21
524.584	37408.88
524.786	37775.47
524.988	37226.61
525.189	37890.15
525.391	38400.1
525.592	38631.52
525.794	38815.83
525.995	38660.19
526.197	38613.09
526.398	38776.92
526.6	39170.13
526.801	39549.01
527.003	39250
527.204	39350.35
527.406	39718.99
527.607	39850.06
527.808	39696.46
528.01	39376.98
528.211	39946.31
528.412	40638.53
528.614	40513.6
528.815	40644.67
529.016	40935.48
529.218	40276.04
529.419	40697.92
529.62	40683.58
529.822	40874.04
530.023	41003.07
530.224	40851.52
530.425	40896.57
530.626	40575.04
530.828	40462.4
531.029	41791.53
531.23	41259.06
531.431	41304.12
531.632	41218.1
531.833	41613.36
532.035	41189.43
532.236	41715.76
532.437	41918.51
532.638	41601.07
532.839	41908.27
533.04	41908.27
533.241	41627.7
533.442	42008.62
533.643	41906.22
533.844	41562.16
534.045	41615.41
534.246	41547.82
534.447	42078.25
534.648	41721.9
534.849	41861.16
535.05	41601.07
535.251	41713.71
535.451	41799.72
535.652	41914.41
535.853	41852.97
536.054	41691.18
536.255	42250.28
536.456	41750.57
536.657	42459.17
536.857	41916.46
537.058	41660.46
537.259	42262.57
537.46	41582.64
537.66	42174.5
537.861	42068.01
538.062	42004.52
538.263	41711.66
538.463	42160.17
538.664	42022.95
538.865	42250.28
539.065	42321.96
539.266	41713.71
539.466	42352.68
539.667	41424.95
539.868	42469.41
540.068	42068.01
540.269	41840.68
540.469	42207.27
540.67	41697.33
540.87	42305.57
541.071	42002.47
541.271	42063.91
541.472	41592.88
541.672	41482.29
541.873	41977.9
542.073	41437.23
542.274	41953.32
542.474	41726
542.675	41609.26
542.875	42405.92
543.075	41738.29
543.276	41173.05
543.476	42160.17
543.676	41558.06
543.877	41988.14
544.077	41965.61
544.277	41717.81
544.478	41650.22
544.678	41836.59
544.878	41832.49
545.078	42006.57
545.279	41420.85
545.479	41535.54
545.679	41947.18
545.879	42000.43
546.079	41717.81
546.28	41562.16
546.48	41320.5
546.68	41488.43
546.88	41480.24
547.08	41558.06
547.28	41672.75
547.48	41367.6
547.68	41582.64
547.88	41508.91
548.081	41699.37
548.281	41330.74
548.481	41769.01
548.681	41691.18
548.881	41748.53
549.081	41582.64
549.28	41426.99
549.48	41871.4
549.68	41412.66
549.88	42051.62
550.08	41406.51
550.28	41592.88
550.48	41365.56
550.68	41973.8
550.88	40915
551.08	41275.44
551.279	41580.59
551.479	41365.56
551.679	41578.54
551.879	41547.82
552.079	41904.17
552.278	41048.12
552.478	41271.35
552.678	41254.97
552.878	41746.48
553.077	41426.99
553.277	41035.83
553.477	41928.75
553.676	41214.01
553.876	41269.3
554.076	40955.96
554.275	41201.72
554.475	40618.05
554.674	41300.02
554.874	41254.97
555.074	40906.81
555.273	41023.54
555.473	41146.42
555.672	40790.08
555.872	40886.33
556.071	40902.71
556.271	40675.39
556.47	40939.58
556.67	40308.8
556.869	40861.76
557.068	40798.27
557.268	40497.22
557.467	40695.87
557.667	40884.28
557.866	40745.02
558.065	40378.43
558.265	40038.47
558.464	39942.22
558.663	40480.83
558.863	39891.02
559.062	40757.31
559.261	39876.68
559.461	40591.42
559.66	40017.99
559.859	40157.25
560.058	39641.17
560.258	40273.99
560.457	39952.46
560.656	40161.35
560.855	39974.98
561.054	40132.68
561.253	39762
561.453	39825.48
561.652	39708.75
561.851	40013.9
562.05	39329.87
562.249	39258.2
562.448	39821.39
562.647	39364.69
562.846	39802.96
563.045	39424.08
563.244	39280.72
563.443	39743.56
563.642	39086.17
563.841	39469.14
564.04	38850.65
564.239	39475.28
564.438	38932.57
564.637	39176.28
564.836	39258.2
565.035	38883.42
565.234	38799.45
565.432	38754.4
565.631	38731.87
565.83	38864.99
566.029	38391.9
566.228	38223.97
566.427	38590.56
566.625	38576.22
566.824	37970.02
567.023	38457.44
567.222	37695.6
567.42	38346.85
567.619	38180.96
567.818	37896.3
568.016	38109.29
568.215	38174.82
568.414	37853.29
568.612	38078.57
568.811	37507.18
569.01	37462.13
569.208	37406.83
569.407	37775.47
569.605	37357.68
569.804	37689.45
570.002	37281.91
570.201	37283.95
570.4	36827.26
570.598	36849.78
570.797	36622.46
570.995	37154.93
571.193	36749.43
571.392	37152.88
571.59	36745.34
571.789	36364.42
571.987	36825.21
572.186	36509.82
572.384	36255.87
572.582	36778.11
572.781	36528.25
572.979	35958.92
573.177	35999.88
573.376	36595.84
573.574	35967.11
573.772	36247.68
573.971	35424.4
574.169	35494.03
574.367	35578
574.565	35313.81
574.763	35147.92
574.962	35123.35
575.16	34816.15
575.358	35135.63
575.556	34904.21
575.754	35319.95
575.952	34689.18
576.151	35139.73
576.349	34744.47
576.547	34574.49
576.745	34551.96
576.943	34777.24
577.141	34373.79
577.339	34574.49
577.537	34418.85
577.735	34498.72
577.933	34080.93
578.131	34136.23
578.329	33956
578.527	33640.62
578.725	33779.88
578.923	33978.53
579.121	33757.35
579.319	33816.74
579.516	33484.97
579.714	33534.12
579.912	33347.76
580.11	33188.02
580.308	33077.43
580.506	32954.55
580.704	32526.52
580.901	33138.87
581.099	33142.96
581.297	32805.05
581.495	32764.09
581.692	32676.02
581.89	32266.43
582.088	32737.46
582.285	32350.4
582.483	32350.4
582.681	32336.06
582.878	32352.44
583.076	31985.86
583.274	32147.65
583.471	31639.75
583.669	32024.77
583.866	31422.67
584.064	31578.31
584.262	31295.69
584.459	31725.77
584.657	31303.88
584.854	31445.19
585.052	31291.6
585.249	31428.81
585.447	31172.81
585.644	30499.03
585.841	30681.3
586.039	31064.27
586.236	30177.5
586.434	30666.97
586.631	30503.13
586.828	30814.42
587.026	30294.24
587.223	30410.97
587.42	30302.43
587.618	30154.97
587.815	29655.27
588.012	29923.55
588.21	29878.5
588.407	30107.87
588.604	29817.06
588.801	29313.26
588.999	29751.52
589.196	29393.13
589.393	29348.07
589.59	29454.57
589.787	29288.68
589.984	29040.88
590.182	28750.07
590.379	29399.27
590.576	28838.13
590.773	28627.19
590.97	28649.72
591.167	28754.16
591.364	28264.7
591.561	28619
591.758	28053.76
591.955	28225.79
592.152	28352.76
592.349	28215.55
592.546	27828.48
592.743	28356.86
592.94	27853.06
593.137	27658.5
593.334	28039.42
593.531	27650.31
593.727	27955.46
593.924	27683.08
594.121	27103.5
594.318	27371.78
594.515	27261.19
594.712	27486.47
594.908	27244.81
595.105	27226.38
595.302	26910.99
595.499	27005.2
595.696	26806.55
595.892	26822.93
596.089	26843.41
596.286	26683.67
596.482	26896.66
596.679	26327.32
596.876	26515.73
597.072	26300.7
597.269	26425.62
597.466	26269.98
597.662	26079.52
597.859	26077.47
598.055	25848.1
598.252	25803.04
598.448	26071.32
598.645	25790.75
598.841	25616.68
599.038	25411.88
599.234	25608.48
599.431	25493.8
599.627	25307.43
599.824	25174.31
600.02	25008.43
600.217	25231.66
600.413	25116.97
600.609	25213.23
600.806	24985.9
601.002	24752.43
601.198	24748.34
601.395	24514.87
601.591	24451.38
601.787	24529.2
601.984	24570.16
602.18	24801.58
602.376	24191.29
602.572	24248.63
602.769	24074.56
602.965	23871.81
603.161	24105.27
603.357	23947.58
603.553	23710.02
603.75	23738.69
603.946	23490.88
604.142	23548.23
604.338	23214.41
604.534	23611.71
604.73	22858.06
604.926	23408.97
605.122	23337.29
605.318	22999.37
605.514	23107.91
605.71	23343.43
605.906	22907.21
606.102	22849.87
606.298	23036.24
606.494	22802.77
606.69	22993.23
606.886	22759.76
607.082	22366.55
607.278	22610.26
607.474	22346.07
607.67	22569.3
607.866	22266.2
608.062	22268.25
608.257	22212.95
608.453	22198.62
608.649	22204.76
608.845	22337.88
609.041	21963.1
609.236	22020.44
609.432	22051.16
609.628	21995.87
609.824	21905.76
610.019	21881.18
610.215	21707.1
610.411	21840.22
610.606	21709.15
610.802	21647.71
610.998	21252.45
611.193	21784.93
611.389	21473.63
611.584	21449.06
611.78	21528.93
611.976	21281.13
612.171	21340.52
612.367	21342.56
612.562	21074.28
612.758	21148.01
612.953	20859.24
613.149	21006.7
613.344	20873.58
613.539	21150.06
613.735	20732.27
613.93	20709.74
614.126	20588.91
614.321	20937.07
614.517	20842.86
614.712	20633.97
614.907	20556.15
615.103	20822.38
615.298	20269.43
615.493	20892.01
615.688	20455.79
615.884	20633.97
616.079	20445.55
616.274	20334.96
616.47	20380.02
616.665	20478.32
616.86	20277.62
617.055	20097.4
617.25	19999.1
617.445	19958.14
617.641	19825.02
617.836	20046.2
618.031	19636.61
618.226	20033.91
618.421	19722.62
618.616	19792.25
618.811	19675.52
619.006	19761.53
619.201	19505.54
619.396	19597.7
619.591	18874.76
619.786	19198.34
619.981	19003.78
620.176	19046.79
620.371	18968.97
620.566	18839.95
620.761	18842
620.956	18876.81
621.151	18420.11
621.346	18647.44
621.541	18233.75
621.735	18577.81
621.93	18100.63
622.125	18125.21
622.32	17979.8
622.515	18100.63
622.709	18053.53
622.904	18061.72
623.099	17635.74
623.294	17836.44
623.488	17496.48
623.683	17576.35
623.878	17334.69
624.072	17260.96
624.267	17351.07
624.462	16849.32
624.656	16966.06
624.851	16912.81
625.046	16812.46
625.24	16736.68
625.435	16779.69
625.629	16638.38
625.824	16480.69
626.018	16413.1
626.213	16140.72
626.407	16241.07
626.602	16019.89
626.796	16062.9
626.991	16243.12
627.185	15931.83
627.38	15767.99
627.574	15702.46
627.768	15305.15
627.963	15141.32
628.157	15225.28
628.352	15407.55
628.546	15319.49
628.74	15268.29
628.935	15079.88
629.129	15126.98
629.323	14809.54
629.517	14737.87
629.712	14641.61
629.906	14623.18
630.1	14649.8
630.294	14578.12
630.489	14541.26
630.683	14619.08
630.877	14453.2
631.071	14315.98
631.265	14432.72
631.459	14008.79
631.653	14025.17
631.848	14107.09
632.042	13767.13
632.236	13806.04
632.43	13545.95
632.624	13801.94
632.818	13599.2
633.012	13441.5
633.206	13631.96
633.4	13668.83
633.594	13027.81
633.788	13359.58
633.982	13115.87
634.176	13189.6
634.369	13052.39
634.563	12835.3
634.757	12775.91
634.951	12943.85
635.145	12892.65
635.339	12698.09
635.533	12343.79
635.726	12564.97
635.92	12425.71
636.114	12468.72
636.308	12249.58
636.501	12491.24
636.695	12304.88
636.889	12337.65
637.083	12171.76
637.276	12036.59
637.47	11969.01
637.664	11903.48
637.857	11993.59
638.051	11799.03
638.244	11844.09
638.438	11774.45
638.632	11682.3
638.825	11561.47
639.019	11479.55
639.212	11371.01
639.406	11248.13
639.599	11262.46
639.793	11336.19
639.986	11278.85
640.18	11313.66
640.373	11147.78
640.567	10865.16
640.76	10985.99
640.954	10963.46
641.147	10887.68
641.34	10545.67
641.534	10754.57
641.727	10729.99
641.92	10629.64
642.114	10430.99
642.307	10500.62
642.5	10566.15
642.694	10189.33
642.887	10097.17
643.08	10336.78
643.273	10275.34
643.467	9998.87
643.66	10082.83
643.853	9964.05
644.046	9968.15
644.239	10029.59
644.432	9783.83
644.626	9591.32
644.819	9810.45
645.012	9689.62
645.205	9798.17
645.398	9693.72
645.591	9572.89
645.784	9550.36
645.977	9122.34
646.17	9378.33
646.363	9101.86
646.556	9200.16
646.749	9159.2
646.942	9224.73
647.135	9132.58
647.328	9019.94
647.521	8946.21
647.714	8905.25
647.907	8907.3
648.099	8708.65
648.292	8954.4
648.485	8714.79
648.678	8575.53
648.871	8579.62
649.064	8641.06
649.256	8434.22
649.449	8469.03
649.642	8448.55
649.835	8325.68
650.027	8190.51
650.22	8198.7
650.413	8184.37
650.605	8323.63
650.798	8174.13
650.991	7909.94
651.183	8200.75
651.376	7877.17
651.568	7911.99
651.761	7891.51
651.954	7821.88
652.146	7909.94
652.339	7840.31
652.531	7635.51
652.724	7670.33
652.916	7465.53
653.109	7561.78
653.301	7500.34
653.494	7524.92
653.686	7494.2
653.879	7416.38
654.071	7420.47
654.263	7322.17
654.456	7252.54
654.648	7297.6
654.84	7012.93
655.033	7256.64
655.225	7072.32
655.417	7144
655.61	7168.57
655.802	7158.33
655.994	7004.74
656.186	6965.82
656.379	6799.94
656.571	6703.68
656.763	6761.03
656.955	6715.97
657.148	6625.86
657.34	6507.08
657.532	6591.05
657.724	6531.65
657.916	6480.46
658.108	6611.53
658.3	6330.95
658.492	6558.28
658.684	6298.19
658.876	6453.83
659.068	6343.24
659.26	6292.04
659.452	6365.77
659.644	6263.37
659.836	6347.34
660.028	6052.43
660.22	6208.08
660.412	5939.79
660.604	6081.1
660.796	5945.94
660.988	5896.78
661.18	5767.76
661.372	5849.68
661.563	5855.83
661.755	5685.84
661.947	5739.09
662.139	5683.8
662.331	5628.5
662.522	5538.39
662.714	5605.97
662.906	5511.77
663.097	5622.36
663.289	5419.61
663.481	5479
663.673	5425.75
663.864	5378.65
664.056	5339.74
664.247	5319.26
664.439	5309.02
664.631	5292.63
664.822	5300.83
665.014	5292.63
665.205	5177.95
665.397	5139.04
665.588	5010.01
665.78	5085.79
665.971	5055.07
666.163	5018.21
666.354	5048.93
666.546	4973.15
666.737	4981.34
666.929	4858.46
667.12	4872.8
667.311	5003.87
667.503	4842.08
667.694	4821.6
667.885	4776.55
668.077	4561.51
668.268	4696.67
668.459	4686.44
668.651	4631.14
668.842	4639.33
669.033	4561.51
669.224	4645.48
669.416	4577.89
669.607	4555.37
669.798	4495.97
669.989	4569.7
670.18	4354.66
670.371	4330.09
670.563	4457.06
670.754	4465.25
670.945	4291.18
671.136	4258.41
671.327	4334.18
671.518	4285.03
671.709	4266.6
671.9	4299.37
672.091	4213.35
672.282	4158.06
672.473	4110.96
672.664	4254.31
672.855	4170.35
673.046	4088.43
673.237	4100.72
673.428	4117.1
673.619	4094.57
673.809	4145.77
674	4082.28
674.191	4147.82
674.382	4012.65
674.573	3983.98
674.764	3902.06
674.954	3932.78
675.145	3809.9
675.336	3897.97
675.527	3758.71
675.717	3949.17
675.908	3834.48
676.099	3832.43
676.289	3762.8
676.48	3889.78
676.671	3768.95
676.861	3670.64
677.052	3885.68
677.243	3613.3
677.433	3697.27
677.624	3684.98
677.814	3652.21
678.005	3609.2
678.195	3676.79
678.386	3646.07
678.576	3613.3
678.767	3488.37
678.957	3525.24
679.148	3650.16
679.338	3689.07
679.529	3615.35
679.719	3615.35
679.909	3607.16
680.1	3594.87
680.29	3596.92
680.481	3553.91
680.671	3619.44
680.861	3529.33
681.052	3496.57
681.242	3455.61
681.432	3666.55
681.622	3443.32
681.813	3340.92
682.003	3455.61
682.193	3451.51
682.383	3379.83
682.573	3351.16
682.764	3474.04
682.954	3424.89
683.144	3431.03
683.334	3332.73
683.524	3457.65
683.714	3371.64
683.904	3279.48
684.094	3291.77
684.284	3277.43
684.474	3394.17
684.664	3275.38
684.854	3267.19
685.044	3410.55
685.234	3347.06
685.424	3336.82
685.614	3246.71
685.804	3177.08
685.994	3302.01
686.184	3299.96
686.374	3326.58
686.564	3142.27
686.753	3246.71
686.943	3089.02
687.133	3238.52
687.323	3148.41
687.513	3181.18
687.702	3203.71
687.892	3160.7
688.082	3158.65
688.272	3158.65
688.461	3158.65
688.651	3154.55
688.841	3041.92
689.03	3168.89
689.22	3201.66
689.41	3082.88
689.599	3134.07
689.789	3193.47
689.979	2964.09
690.168	3136.12
690.358	2988.67
690.547	2888.32
690.737	3091.07
690.926	3023.48
691.116	3050.11
691.305	3009.15
691.495	2927.23
691.684	2882.17
691.874	3089.02
692.063	3035.77
692.252	3041.92
692.442	3031.68
692.631	2900.61
692.82	2941.57
693.01	2800.26
693.199	3127.93
693.388	2992.76
693.578	2955.9
693.767	2947.71
693.956	2890.37
694.146	2790.02
694.335	2810.5
694.524	2890.37
694.713	2914.94
694.902	2949.76
695.092	2810.5
695.281	2886.27
695.47	2847.36
695.659	2679.43
695.848	2556.55
696.037	2761.34
696.226	2962.05
696.415	2775.68
696.604	2740.86
696.793	2828.93
696.982	2777.73
697.171	2796.16
697.36	2656.9
697.549	2792.06
697.738	2665.09
697.927	2560.64
698.116	2775.68
698.305	2632.32
698.494	2704
698.683	2712.19
698.872	2808.45
699.061	2742.91
699.25	2728.58
699.438	2775.68
699.627	2654.85
699.816	2552.45
700.005	2558.6
700.193	2681.47
700.382	2697.86
700.571	2644.61
700.76	2620.03
700.948	2507.4
701.137	2677.38
701.326	2579.08
701.514	2642.56
701.703	2564.74
701.892	2435.72
702.08	2624.13
702.269	2613.89
702.457	2626.18
702.646	2597.51
702.834	2505.35
703.023	2570.88
703.212	2499.2
703.4	2568.84
703.589	2513.54
703.777	2595.46
703.965	2484.87
704.154	2517.64
704.342	2554.5
704.531	2546.31
704.719	2394.76
704.907	2593.41
705.096	2493.06
705.284	2472.58
705.472	2398.85
705.661	2382.47
705.849	2439.81
706.037	2413.19
706.226	2349.7
706.414	2357.89
706.602	2265.74
706.79	2243.21
706.979	2337.41
707.167	2456.2
707.355	2425.48
707.543	2364.04
707.731	2357.89
707.919	2423.43
708.107	2292.36
708.296	2351.75
708.484	2251.4
708.672	2394.76
708.86	2314.89
709.048	2413.19
709.236	2384.52
709.424	2343.56
709.612	2361.99
709.8	2368.13
709.988	2294.41
710.176	2290.31
710.364	2218.63
710.551	2261.64
710.739	2177.67
710.927	2290.31
711.115	2167.43
711.303	2290.31
711.491	2220.68
711.679	2189.96
711.866	2187.91
712.054	2267.78
712.242	2202.25
712.43	2185.87
712.617	2251.4
712.805	2187.91
712.993	2202.25
713.181	2118.28
713.368	2218.63
713.556	2165.39
713.744	2136.71
713.931	2232.97
714.119	2122.38
714.306	2214.54
714.494	2253.45
714.682	2149
714.869	2114.19
715.057	2038.41
715.244	2054.8
715.432	2189.96
715.619	2153.1
715.807	2136.71
715.994	2077.32
716.182	2056.84
716.369	1948.3
716.556	2120.33
716.744	2048.65
716.931	2097.8
717.119	2161.29
717.306	2048.65
717.493	2095.75
717.681	2187.91
717.868	2138.76
718.055	2128.52
718.242	2036.36
718.43	1946.25
718.617	1960.59
718.804	1940.11
718.991	2054.8
719.179	2015.88
719.366	2042.51
719.553	1942.16
719.74	1915.53
719.927	2079.37
720.114	2003.6
720.301	1976.97
720.488	1936.01
720.676	1976.97
720.863	1905.29
721.05	1862.29
721.237	2071.18
721.424	1987.21
721.611	1952.4
721.798	1915.53
721.985	1936.01
722.172	1870.48
722.358	1899.15
722.545	1909.39
722.732	1897.1
722.919	1968.78
723.106	1882.77
723.293	1856.14
723.48	1974.92
723.667	1718.93
723.853	1907.34
724.04	1852.05
724.227	1923.73
724.414	1899.15
724.6	1837.71
724.787	1870.48
724.974	1882.77
725.161	1813.13
725.347	1819.28
725.534	1831.57
725.72	1839.76
725.907	1868.43
726.094	1876.62
726.28	1833.61
726.467	1727.12
726.653	1796.75
726.84	1790.61
727.027	1903.25
727.213	1829.52
727.4	1929.87
727.586	1778.32
727.773	1755.79
727.959	1710.74
728.145	1671.83
728.332	1751.7
728.518	1749.65
728.705	1796.75
728.891	1809.04
729.077	1796.75
729.264	1745.55
729.45	1735.31
729.636	1718.93
729.823	1776.27
730.009	1712.78
730.195	1804.94
730.382	1659.54
730.568	1682.06
730.754	1647.25
730.94	1774.22
731.126	1741.46
731.313	1706.64
731.499	1600.15
731.685	1743.5
731.871	1630.87
732.057	1657.49
732.243	1714.83
732.429	1673.87
732.615	1729.17
732.801	1628.82
732.987	1620.63
733.173	1594
733.359	1720.98
733.545	1604.24
733.731	1518.23
733.917	1729.17
734.103	1639.06
734.289	1604.24
734.475	1628.82
734.661	1741.46
734.847	1667.73
735.033	1680.02
735.219	1565.33
735.404	1696.4
735.59	1575.57
735.776	1616.53
735.962	1675.92
736.148	1587.86
736.333	1546.9
736.519	1598.1
736.705	1473.17
736.89	1510.04
737.076	1544.85
737.262	1530.52
737.447	1581.71
737.633	1542.8
737.819	1524.37
738.004	1516.18
738.19	1540.76
738.375	1567.38
738.561	1641.11
738.747	1424.02
738.932	1442.45
739.118	1620.63
739.303	1456.79
739.489	1512.08
739.674	1460.88
739.859	1464.98
740.045	1426.07
740.23	1528.47
740.416	1514.13
740.601	1538.71
740.786	1528.47
740.972	1342.1
741.157	1378.97
741.342	1342.1
741.528	1366.68
741.713	1426.07
741.898	1424.02
742.084	1407.64
742.269	1452.69
742.454	1499.8
742.639	1368.73
742.824	1401.49
743.01	1491.6
743.195	1491.6
743.38	1399.45
743.565	1358.49
743.75	1383.06
743.935	1329.81
744.12	1383.06
744.305	1335.96
744.49	1284.76
744.675	1370.77
744.86	1346.2
745.045	1313.43
745.23	1211.03
745.415	1295
745.6	1270.42
745.785	1243.8
745.97	1254.04
746.155	1260.18
746.34	1274.52
746.525	1178.26
746.71	1264.28
746.895	1204.89
747.079	1272.47
747.264	1251.99
747.449	1247.9
747.634	1211.03
747.819	1180.31
748.003	1251.99
748.188	1245.85
748.373	1178.26
748.557	1184.41
748.742	1186.46
748.927	1106.59
749.111	1202.84
749.296	1127.07
749.481	1151.64
749.665	1165.98
749.85	1057.43
750.034	1161.88
750.219	1122.97
750.404	1043.1
750.588	1049.24
750.773	1079.96
750.957	1053.34
751.141	1073.82
751.326	1073.82
751.51	1030.81
751.695	1043.1
751.879	1077.91
752.064	1114.78
752.248	973.47
752.432	1047.19
752.617	1073.82
752.801	1057.43
752.985	957.08
753.17	991.9
753.354	1010.33
753.538	1014.43
753.722	899.74
753.907	985.76
754.091	916.12
754.275	920.22
754.459	957.08
754.643	1002.14
754.828	965.28
755.012	965.28
755.196	948.89
755.38	998.04
755.564	905.88
755.748	926.36
755.932	940.7
756.116	907.93
756.3	871.07
756.484	916.12
756.668	877.21
756.852	848.54
757.036	797.34
757.22	860.83
757.404	918.17
757.588	852.64
757.772	895.64
757.956	903.84
758.14	830.11
758.323	768.67
758.507	838.3
758.691	854.69
758.875	819.87
759.059	899.74
759.242	809.63
759.426	778.91
759.61	809.63
759.794	770.72
759.977	744.1
760.161	866.97
760.345	815.77
760.528	834.21
760.712	871.07
760.895	809.63
761.079	766.62
761.263	770.72
761.446	766.62
761.63	793.25
761.813	639.65
761.997	813.73
762.18	754.34
762.364	744.1
762.547	731.81
762.731	801.44
762.914	703.14
763.098	778.91
763.281	627.36
763.464	754.34
763.648	686.75
763.831	656.03
764.015	723.62
764.198	787.1
764.381	735.9
764.564	686.75
764.748	686.75
764.931	760.48
765.114	692.9
765.297	729.76
765.481	674.46
765.664	580.26
765.847	621.22
766.03	715.42
766.213	629.41
766.397	623.27
766.58	535.2
766.763	662.18
766.946	649.89
767.129	539.3
767.312	551.59
767.495	678.56
767.678	590.5
767.861	572.07
768.044	613.03
768.227	592.55
768.41	686.75
768.593	645.79
768.776	664.22
768.959	596.64
769.142	719.52
769.324	572.07
769.507	594.59
769.69	588.45
769.873	541.35
770.056	694.94
770.239	699.04
770.421	670.37
770.604	606.88
770.787	551.59
770.97	553.63
771.152	582.31
771.335	590.5
771.518	590.5
771.7	649.89
771.883	559.78
772.066	590.5
772.248	582.31
772.431	613.03
772.613	613.03
772.796	565.92
772.978	684.7
773.161	613.03
773.343	572.07
773.526	572.07
773.708	539.3
773.891	441
774.073	541.35
774.256	451.24
774.438	541.35
774.621	563.87
774.803	559.78
774.985	481.96
775.168	506.53
775.35	547.49
775.532	606.88
775.715	441
775.897	467.62
776.079	453.28
776.261	477.86
776.444	584.35
776.626	561.83
776.808	531.11
776.99	424.61
777.173	465.57
777.355	500.39
777.537	481.96
777.719	551.59
777.901	514.72
778.083	486.05
778.265	514.72
778.447	418.47
778.629	465.57
778.811	522.91
778.993	484
779.175	600.74
779.357	418.47
779.539	455.33
779.721	387.75
779.903	459.43
780.085	375.46
780.267	445.09
780.449	445.09
780.631	506.53
780.812	514.72
780.994	402.08
781.176	481.96
781.358	373.41
781.54	391.84
781.721	389.8
781.903	527.01
782.085	518.82
782.267	377.51
782.448	344.74
782.63	387.75
782.812	420.52
782.993	408.23
783.175	361.13
783.357	373.41
783.538	412.32
783.72	320.17
783.901	410.28
784.083	381.6
784.264	381.6
784.446	363.17
784.627	318.12
784.809	379.56
784.99	352.93
785.172	330.41
785.353	391.84
785.535	424.61
785.716	377.51
785.897	287.4
786.079	367.27
786.26	340.65
786.441	402.08
786.623	391.84
786.804	268.97
786.985	371.37
787.167	397.99
787.348	285.35
787.529	338.6
787.71	395.94
787.891	344.74
788.073	305.83
788.254	352.93
788.435	289.45
788.616	260.77
788.797	219.82
788.978	297.64
789.159	285.35
789.34	299.69
789.522	311.97
789.703	330.41
789.884	305.83
790.065	326.31
790.246	318.12
790.427	264.87
790.607	350.89
790.788	334.5
790.969	232.1
791.15	254.63
791.331	277.16
791.512	285.35
791.693	174.76
791.874	195.24
792.054	359.08
792.235	273.06
792.416	213.67
792.597	228.01
792.778	266.92
792.958	213.67
793.139	182.95
793.32	293.54
793.5	262.82
793.681	268.97
793.862	211.62
794.042	207.53
794.223	215.72
794.404	305.83
794.584	162.47
794.765	279.21
794.945	244.39
795.126	271.01
795.306	252.58
795.487	285.35
795.667	219.82
795.848	236.2
796.028	164.52
796.209	285.35
796.389	219.82
796.57	133.8
796.75	213.67
796.93	187.05
797.111	187.05
797.291	178.86
797.471	223.91
797.652	207.53
797.832	203.43
798.012	236.2
798.192	230.06
798.373	189.1
798.553	189.1
798.733	113.32
798.913	232.1
799.093	154.28
799.274	178.86
799.454	228.01
799.634	260.77
799.814	197.29
799.994	215.72
800.174	162.47
800.354	121.51
800.534	211.62
800.714	256.68
800.894	148.14
801.074	127.66
801.254	146.09
801.434	252.58
801.614	98.99
801.794	162.47
801.974	694.94
802.154	211.62
802.334	271.01
802.514	191.14
802.693	88.75
802.873	127.66
803.053	256.68
803.233	189.1
803.413	199.34
803.592	162.47
803.772	195.24
803.952	129.7
804.131	107.18
804.311	201.38
804.491	156.33
804.67	119.46
804.85	125.61
805.03	146.09
805.209	121.51
805.389	207.53
805.568	133.8
805.748	197.29
805.928	150.18
806.107	121.51
806.287	213.67
806.466	191.14
806.646	182.95
806.825	221.86
807.004	109.22
807.184	115.37
807.363	174.76
807.543	117.42
807.722	113.32
807.901	240.3
808.081	146.09
808.26	115.37
808.439	131.75
808.619	154.28
808.798	137.9
808.977	98.99
809.156	172.71
809.336	197.29
809.515	148.14
809.694	141.99
809.873	80.55
810.052	170.66
810.231	187.05
810.411	156.33
810.59	162.47
810.769	125.61
810.948	141.99
811.127	109.22
811.306	182.95
811.485	-15.7
811.664	225.96
811.843	156.33
812.022	148.14
812.201	156.33
812.38	107.18
812.559	125.61
812.737	96.94
812.916	74.41
813.095	115.37
813.274	98.99
813.453	156.33
813.632	109.22
813.811	129.7
813.989	51.88
814.168	115.37
814.347	68.27
814.526	150.18
814.704	107.18
814.883	223.91
815.062	74.41
815.24	172.71
815.419	141.99
815.598	123.56
815.776	123.56
815.955	113.32
816.133	96.94
816.312	80.55
816.49	96.94
816.669	123.56
816.847	144.04
817.026	121.51
817.204	137.9
817.383	107.18
817.561	80.55
817.74	137.9
817.918	141.99
818.097	80.55
818.275	96.94
818.453	76.46
818.632	133.8
818.81	80.55
818.988	96.94
819.167	72.36
819.345	109.22
819.523	39.59
819.701	55.98
819.879	90.79
820.058	113.32
820.236	90.79
820.414	35.5
820.592	55.98
820.77	141.99
820.948	76.46
821.127	19.11
821.305	162.47
821.483	105.13
821.661	141.99
821.839	154.28
822.017	84.65
822.195	88.75
822.373	117.42
822.551	107.18
822.729	51.88
822.907	66.22
823.085	117.42
823.262	96.94
823.44	109.22
823.618	41.64
823.796	98.99
823.974	6.83
824.152	113.32
824.329	139.94
824.507	121.51
824.685	141.99
824.863	162.47
825.04	94.89
825.218	68.27
825.396	70.31
825.574	123.56
825.751	146.09
825.929	98.99
826.107	17.07
826.284	107.18
826.462	90.79
826.639	-5.46
826.817	101.03
826.994	96.94
827.172	78.51
827.349	170.66
827.527	115.37
827.704	80.55
827.882	82.6
828.059	15.02
828.237	43.69
828.414	168.62
828.591	107.18
828.769	88.75
828.946	37.55
829.124	88.75
829.301	109.22
829.478	74.41
829.655	64.17
829.833	80.55
830.01	35.5
830.187	27.31
830.364	72.36
830.542	35.5
830.719	88.75
830.896	33.45
831.073	33.45
831.25	123.56
831.427	82.6
831.604	96.94
831.782	45.74
831.959	72.36
832.136	82.6
832.313	135.85
832.49	47.79
832.667	111.27
832.844	15.02
833.021	58.03
833.198	127.66
833.374	-1.37
833.551	123.56
833.728	47.79
833.905	64.17
834.082	33.45
834.259	31.4
834.436	15.02
834.612	47.79
834.789	135.85
834.966	55.98
835.143	39.59
835.319	33.45
835.496	76.46
835.673	64.17
835.85	29.35
836.026	10.92
836.203	105.13
836.38	47.79
836.556	41.64
836.733	80.55
836.909	105.13
837.086	31.4
837.262	88.75
837.439	39.59
837.616	82.6
837.792	33.45
837.968	45.74
838.145	35.5
838.321	90.79
838.498	43.69
838.674	74.41
838.851	64.17
839.027	68.27
839.203	-1.37
839.38	39.59
839.556	72.36
839.732	62.12
839.909	45.74
840.085	55.98
840.261	41.64
840.437	39.59
840.614	-15.7
840.79	51.88
840.966	72.36
841.142	88.75
841.318	55.98
841.494	58.03
841.671	6.83
841.847	98.99
842.023	-30.04
842.199	-9.56
842.375	80.55
842.551	-66.9
842.727	-40.28
842.903	68.27
843.079	8.87
843.255	31.4
843.431	15.02
843.607	96.94
843.783	4.78
843.959	82.6
844.134	-13.65
844.31	74.41
844.486	15.02
844.662	4.78
844.838	115.37
845.013	80.55
845.189	70.31
845.365	15.02
845.541	-7.51
845.716	29.35
845.892	35.5
846.068	-11.61
846.244	72.36
846.419	33.45
846.595	2.73
846.77	0.68
846.946	74.41
847.122	25.26
847.297	72.36
847.473	64.17
847.648	103.08
847.824	41.64
847.999	15.02
848.175	84.65
848.35	-5.46
848.526	117.42
848.701	72.36
848.876	17.07
849.052	55.98
849.227	47.79
849.403	-66.9
849.578	55.98
849.753	51.88
849.929	17.07
850.104	45.74
850.279	109.22
850.454	27.31
850.63	23.21
850.805	76.46
850.98	8.87
851.155	2.73
851.33	72.36
851.505	39.59
851.681	84.65
851.856	80.55
852.031	82.6
852.206	4.78
852.381	17.07
852.556	55.98
852.731	72.36
852.906	45.74
853.081	86.7
853.256	133.8
853.431	64.17
853.606	25.26
853.781	33.45
853.956	-1.37
854.131	105.13
854.305	-23.89
854.48	60.07
854.655	-1.37
854.83	111.27
855.005	58.03
855.18	6.83
855.354	15.02
855.529	39.59
855.704	-9.56
855.879	39.59
856.053	-21.85
856.228	45.74
856.403	-1.37
856.577	19.11
856.752	10.92
856.926	8.87
857.101	68.27
857.276	58.03
857.45	15.02
857.625	23.21
857.799	-13.65
857.974	10.92
858.148	-42.32
858.323	90.79
858.497	47.79
858.672	41.64
858.846	8.87
859.02	131.75
859.195	58.03
859.369	-5.46
859.543	6.83
859.718	23.21
859.892	-34.13
860.066	23.21
860.241	-21.85
860.415	-13.65
860.589	35.5
860.763	35.5
860.938	-34.13
861.112	76.46
861.286	15.02
861.46	55.98
861.634	60.07
861.808	25.26
861.982	-38.23
862.157	8.87
862.331	-17.75
862.505	76.46
862.679	37.55
862.853	41.64
863.027	-25.94
863.201	113.32
863.375	39.59
863.549	96.94
863.722	-48.47
863.896	80.55
864.07	19.11
864.244	-5.46
864.418	47.79
864.592	39.59
864.766	23.21
864.939	23.21
865.113	23.21
865.287	78.51
865.461	31.4
865.634	55.98
865.808	6.83
865.982	6.83
866.156	6.83
866.329	8.87
866.503	-9.56
866.676	72.36
866.85	0.68
867.024	-9.56
867.197	25.26
867.371	47.79
867.544	74.41
867.718	15.02
867.891	0.68
868.065	31.4
868.238	-11.61
868.412	49.83
868.585	31.4
868.759	-17.75
868.932	6.83
869.105	0.68
869.279	66.22
869.452	-9.56
869.625	70.31
869.799	33.45
869.972	-25.94
870.145	41.64
870.319	-1.37
870.492	31.4
870.665	-32.08
870.838	47.79
871.011	-7.51
871.185	12.97
871.358	8.87
871.531	64.17
871.704	-1.37
871.877	45.74
872.05	-1.37
872.223	-21.85
872.396	53.93
872.569	31.4
872.742	43.69
872.915	35.5
873.088	-9.56
873.261	-13.65
873.434	47.79
873.607	23.21
873.78	25.26
873.953	-7.51
874.126	47.79
874.299	33.45
874.471	-5.46
874.644	78.51
874.817	-42.32
874.99	72.36
875.163	-40.28
875.335	15.02
875.508	19.11
875.681	60.07
875.853	-17.75
876.026	84.65
876.199	64.17
876.371	31.4
876.544	68.27
876.717	105.13
876.889	49.83
877.062	-1.37
877.234	-42.32
877.407	-64.85
877.579	53.93
877.752	55.98
877.924	80.55
878.097	64.17
878.269	51.88
878.442	47.79
878.614	58.03
878.786	6.83
878.959	-30.04
879.131	33.45
879.303	-42.32
879.476	-13.65
879.648	58.03
879.82	23.21
879.993	0.68
880.165	-1.37
880.337	27.31
880.509	31.4
880.681	-44.37
880.854	49.83
881.026	68.27
881.198	66.22
881.37	72.36
881.542	-9.56
881.714	47.79
881.886	90.79
882.058	74.41
882.23	-27.99
882.402	-15.7
882.574	55.98
882.746	-34.13
882.918	2.73
883.09	-1.37
883.262	33.45
883.434	62.12
883.606	31.4
883.778	-23.89
883.95	82.6
884.122	58.03
884.293	15.02
884.465	6.83
884.637	-17.75
884.809	66.22
884.98	64.17
885.152	-34.13
885.324	74.41
885.496	-54.61
885.667	-9.56
885.839	76.46
886.011	47.79
886.182	-34.13
886.354	39.59
886.525	-5.46
886.697	72.36
886.869	-34.13
887.04	43.69
887.212	74.41
887.383	72.36
887.555	23.21
887.726	-21.85
887.897	-1.37
888.069	0.68
888.24	55.98
888.412	27.31
888.583	-66.9
888.754	-19.8
888.926	-32.08
889.097	-19.8
889.268	-23.89
889.44	4.78
889.611	-42.32
889.782	49.83
889.953	8.87
890.125	49.83
890.296	25.26
890.467	35.5
890.638	15.02
890.809	62.12
890.98	-32.08
891.151	123.56
891.323	-15.7
891.494	-7.51
891.665	19.11
891.836	15.02
892.007	0.68
892.178	23.21
892.349	-3.41
892.52	-32.08
892.691	-19.8
892.862	-17.75
893.032	15.02
893.203	41.64
893.374	23.21
893.545	0.68
893.716	-40.28
893.887	72.36
894.057	-15.7
894.228	-7.51
894.399	35.5
894.57	21.16
894.74	2.73
894.911	-54.61
895.082	-13.65
895.253	23.21
895.423	-23.89
895.594	68.27
895.764	-19.8
895.935	15.02
896.106	-17.75
896.276	8.87
896.447	-17.75
896.617	-83.28
896.788	23.21
896.958	-25.94
897.129	64.17
897.299	-17.75
897.47	78.51
897.64	-3.41
897.81	-38.23
897.981	-13.65
898.151	2.73
898.322	-50.52
898.492	15.02
898.662	-23.89
898.832	25.26
899.003	49.83
899.173	12.97
899.343	-83.28
899.513	2.73
