Data from USB4F104151__175__14-45-01-296.txt Node

Date: Thu Mar 13 14:45:01 EDT 2025
User: louis
Spectrometer: USB4F10415
Trigger mode: 4
Integration Time (sec): 2.000000E-2
Scans to average: 1
Electric dark correction enabled: true
Nonlinearity correction enabled: false
Boxcar width: 0
XAxis mode: Wavelengths
Number of Pixels in Spectrum: 3648
>>>>>Begin Spectral Data<<<<<
178.204	-127.32
178.424	-127.32
178.644	-127.32
178.864	-82.26
179.084	-108.88
179.304	-57.68
179.524	24.23
179.744	-74.07
179.964	67.24
180.184	36.52
180.404	24.23
180.624	48.81
180.844	5.8
181.064	-6.49
181.283	-8.53
181.503	-59.73
181.723	-0.34
181.943	-51.54
182.163	-35.16
182.383	-39.25
182.602	-2.39
182.822	26.28
183.042	93.87
183.262	-47.44
183.482	32.43
183.701	-14.68
183.921	67.24
184.141	5.8
184.361	85.67
184.58	18.09
184.8	54.95
185.02	34.47
185.239	67.24
185.459	40.62
185.679	-2.39
185.898	-41.3
186.118	-18.77
186.338	13.99
186.557	67.24
186.777	42.67
186.997	22.19
187.216	16.04
187.436	63.15
187.655	9.9
187.875	32.43
188.095	81.58
188.314	28.33
188.534	40.62
188.753	13.99
188.973	67.24
189.192	-14.68
189.412	87.72
189.631	34.47
189.851	13.99
190.07	97.96
190.29	1.71
190.509	-74.07
190.729	59.05
190.948	-39.25
191.168	177.83
191.387	30.38
191.607	71.34
191.826	38.57
192.045	75.43
192.265	42.67
192.484	9.9
192.704	9.9
192.923	-74.07
193.142	118.44
193.362	89.77
193.581	46.76
193.8	-6.49
194.02	44.71
194.239	73.39
194.458	48.81
194.678	-45.4
194.897	-14.68
195.116	32.43
195.335	52.91
195.555	85.67
195.774	-14.68
195.993	-0.34
196.212	38.57
196.432	-8.53
196.651	-14.68
196.87	-16.73
197.089	71.34
197.308	-35.16
197.528	5.8
197.747	-76.12
197.966	18.09
198.185	153.26
198.404	42.67
198.623	50.86
198.842	1.71
199.062	-16.73
199.281	32.43
199.5	-43.35
199.719	7.85
199.938	30.38
200.157	30.38
200.376	5.8
200.595	71.34
200.814	69.29
201.033	59.05
201.252	30.38
201.471	-35.16
201.69	18.09
201.909	54.95
202.128	20.14
202.347	50.86
202.566	75.43
202.785	18.09
203.004	-12.63
203.223	128.68
203.442	40.62
203.661	-26.96
203.879	22.19
204.098	-49.49
204.317	26.28
204.536	20.14
204.755	-2.39
204.974	-14.68
205.193	-35.16
205.411	42.67
205.63	5.8
205.849	30.38
206.068	100.01
206.287	75.43
206.505	24.23
206.724	7.85
206.943	-16.73
207.162	13.99
207.381	67.24
207.599	-47.44
207.818	32.43
208.037	3.75
208.255	-24.92
208.474	1.71
208.693	26.28
208.911	38.57
209.13	48.81
209.349	-22.87
209.567	9.9
209.786	32.43
210.005	54.95
210.223	-63.83
210.442	3.75
210.661	-51.54
210.879	75.43
211.098	79.53
211.316	44.71
211.535	71.34
211.753	5.8
211.972	30.38
212.191	81.58
212.409	-57.68
212.628	104.11
212.846	20.14
213.065	59.05
213.283	-59.73
213.502	32.43
213.72	83.63
213.938	3.75
214.157	3.75
214.375	32.43
214.594	-14.68
214.812	79.53
215.031	48.81
215.249	48.81
215.467	1.71
215.686	7.85
215.904	30.38
216.122	18.09
216.341	46.76
216.559	-47.44
216.778	26.28
216.996	22.19
217.214	-4.44
217.432	-18.77
217.651	7.85
217.869	5.8
218.087	-18.77
218.306	63.15
218.524	24.23
218.742	46.76
218.96	-8.53
219.179	11.95
219.397	-14.68
219.615	120.49
219.833	7.85
220.051	-35.16
220.27	30.38
220.488	44.71
220.706	30.38
220.924	3.75
221.142	9.9
221.36	38.57
221.578	63.15
221.796	59.05
222.015	-10.58
222.233	-4.44
222.451	54.95
222.669	-6.49
222.887	16.04
223.105	22.19
223.323	5.8
223.541	18.09
223.759	89.77
223.977	65.19
224.195	54.95
224.413	65.19
224.631	71.34
224.849	-18.77
225.067	106.15
225.285	-39.25
225.503	-10.58
225.721	-59.73
225.939	65.19
226.157	-29.01
226.375	91.82
226.592	3.75
226.81	-18.77
227.028	52.91
227.246	136.87
227.464	9.9
227.682	83.63
227.9	87.72
228.117	40.62
228.335	-6.49
228.553	46.76
228.771	61.1
228.989	77.48
229.206	30.38
229.424	-26.96
229.642	22.19
229.86	22.19
230.077	26.28
230.295	-26.96
230.513	-2.39
230.731	16.04
230.948	30.38
231.166	32.43
231.384	-16.73
231.601	13.99
231.819	124.58
232.037	59.05
232.254	-47.44
232.472	-39.25
232.689	-8.53
232.907	9.9
233.125	-24.92
233.342	59.05
233.56	42.67
233.777	-14.68
233.995	-10.58
234.213	73.39
234.43	18.09
234.648	57
234.865	18.09
235.083	-8.53
235.3	26.28
235.518	57
235.735	11.95
235.953	79.53
236.17	-41.3
236.388	67.24
236.605	1.71
236.822	65.19
237.04	67.24
237.257	95.91
237.475	34.47
237.692	-14.68
237.909	22.19
238.127	-6.49
238.344	-22.87
238.562	46.76
238.779	-18.77
238.996	-49.49
239.214	30.38
239.431	5.8
239.648	22.19
239.865	42.67
240.083	11.95
240.3	-35.16
240.517	-49.49
240.735	50.86
240.952	24.23
241.169	87.72
241.386	16.04
241.603	48.81
241.821	-16.73
242.038	54.95
242.255	81.58
242.472	-35.16
242.689	-0.34
242.907	87.72
243.124	75.43
243.341	-0.34
243.558	24.23
243.775	22.19
243.992	-0.34
244.209	104.11
244.426	50.86
244.643	57
244.86	7.85
245.078	-59.73
245.295	46.76
245.512	-0.34
245.729	-8.53
245.946	32.43
246.163	-0.34
246.38	75.43
246.597	71.34
246.814	54.95
247.031	63.15
247.248	38.57
247.464	-0.34
247.681	3.75
247.898	-63.83
248.115	75.43
248.332	-16.73
248.549	40.62
248.766	65.19
248.983	54.95
249.2	9.9
249.417	1.71
249.633	97.96
249.85	59.05
250.067	-8.53
250.284	57
250.501	1.71
250.717	30.38
250.934	-31.06
251.151	-33.11
251.368	63.15
251.585	-22.87
251.801	-8.53
252.018	-10.58
252.235	52.91
252.451	38.57
252.668	104.11
252.885	-43.35
253.102	59.05
253.318	42.67
253.535	50.86
253.752	-18.77
253.968	-16.73
254.185	-69.97
254.401	-35.16
254.618	95.91
254.835	-43.35
255.051	34.47
255.268	73.39
255.484	-10.58
255.701	18.09
255.917	40.62
256.134	-10.58
256.351	-59.73
256.567	52.91
256.784	13.99
257	54.95
257.217	73.39
257.433	73.39
257.65	-33.11
257.866	59.05
258.082	-22.87
258.299	-31.06
258.515	24.23
258.732	38.57
258.948	-24.92
259.165	73.39
259.381	16.04
259.597	79.53
259.814	-26.96
260.03	-0.34
260.246	22.19
260.463	79.53
260.679	71.34
260.895	48.81
261.112	30.38
261.328	-0.34
261.544	40.62
261.761	63.15
261.977	-14.68
262.193	7.85
262.409	18.09
262.626	-35.16
262.842	-12.63
263.058	-31.06
263.274	71.34
263.49	73.39
263.707	46.76
263.923	30.38
264.139	34.47
264.355	34.47
264.571	54.95
264.787	-35.16
265.004	75.43
265.22	-20.82
265.436	-16.73
265.652	-16.73
265.868	18.09
266.084	26.28
266.3	5.8
266.516	28.33
266.732	-24.92
266.948	42.67
267.164	18.09
267.38	30.38
267.596	79.53
267.812	13.99
268.028	87.72
268.244	42.67
268.46	36.52
268.676	34.47
268.892	95.91
269.108	83.63
269.324	5.8
269.54	69.29
269.756	79.53
269.972	5.8
270.188	-18.77
270.403	-39.25
270.619	-2.39
270.835	16.04
271.051	54.95
271.267	40.62
271.483	-14.68
271.698	59.05
271.914	-10.58
272.13	46.76
272.346	36.52
272.562	-41.3
272.777	112.3
272.993	16.04
273.209	9.9
273.425	95.91
273.64	-0.34
273.856	69.29
274.072	-4.44
274.287	83.63
274.503	-45.4
274.719	13.99
274.934	-10.58
275.15	-41.3
275.366	-43.35
275.581	34.47
275.797	-33.11
276.012	71.34
276.228	22.19
276.444	38.57
276.659	73.39
276.875	-104.79
277.09	42.67
277.306	114.34
277.521	-31.06
277.737	87.72
277.952	106.15
278.168	7.85
278.383	122.54
278.599	44.71
278.814	57
279.03	26.28
279.245	3.75
279.461	87.72
279.676	75.43
279.892	-39.25
280.107	-51.54
280.322	-24.92
280.538	-10.58
280.753	-18.77
280.969	-2.39
281.184	61.1
281.399	-22.87
281.615	54.95
281.83	-10.58
282.045	16.04
282.26	-2.39
282.476	26.28
282.691	18.09
282.906	30.38
283.122	40.62
283.337	30.38
283.552	18.09
283.767	-49.49
283.983	-6.49
284.198	22.19
284.413	13.99
284.628	-12.63
284.843	77.48
285.058	54.95
285.274	40.62
285.489	-22.87
285.704	40.62
285.919	-31.06
286.134	104.11
286.349	-51.54
286.564	28.33
286.779	-2.39
286.995	54.95
287.21	30.38
287.425	13.99
287.64	22.19
287.855	7.85
288.07	38.57
288.285	71.34
288.5	38.57
288.715	-0.34
288.93	13.99
289.145	46.76
289.36	9.9
289.575	-2.39
289.79	36.52
290.004	-61.78
290.219	28.33
290.434	63.15
290.649	24.23
290.864	5.8
291.079	-0.34
291.294	108.2
291.509	63.15
291.724	1.71
291.938	28.33
292.153	-10.58
292.368	-8.53
292.583	95.91
292.798	38.57
293.012	32.43
293.227	-2.39
293.442	-0.34
293.657	34.47
293.871	75.43
294.086	18.09
294.301	75.43
294.516	28.33
294.73	46.76
294.945	5.8
295.16	-4.44
295.374	30.38
295.589	-18.77
295.804	30.38
296.018	28.33
296.233	-35.16
296.447	-6.49
296.662	5.8
296.877	13.99
297.091	-2.39
297.306	40.62
297.52	16.04
297.735	-6.49
297.949	22.19
298.164	38.57
298.378	-4.44
298.593	-20.82
298.807	1.71
299.022	59.05
299.236	63.15
299.451	-10.58
299.665	-49.49
299.88	100.01
300.094	38.57
300.309	30.38
300.523	65.19
300.737	-10.58
300.952	46.76
301.166	67.24
301.381	5.8
301.595	40.62
301.809	44.71
302.024	48.81
302.238	18.09
302.452	73.39
302.667	7.85
302.881	79.53
303.095	-8.53
303.309	-2.39
303.524	16.04
303.738	5.8
303.952	40.62
304.166	13.99
304.381	-26.96
304.595	138.92
304.809	-26.96
305.023	87.72
305.237	-24.92
305.452	-10.58
305.666	151.21
305.88	57
306.094	87.72
306.308	22.19
306.522	34.47
306.736	71.34
306.95	40.62
307.164	149.16
307.379	-18.77
307.593	83.63
307.807	16.04
308.021	36.52
308.235	-8.53
308.449	-35.16
308.663	-18.77
308.877	48.81
309.091	7.85
309.305	54.95
309.519	-18.77
309.733	54.95
309.947	-35.16
310.161	85.67
310.374	67.24
310.588	13.99
310.802	-35.16
311.016	3.75
311.23	-43.35
311.444	5.8
311.658	32.43
311.872	54.95
312.085	18.09
312.299	73.39
312.513	13.99
312.727	-10.58
312.941	81.58
313.154	48.81
313.368	-51.54
313.582	38.57
313.796	36.52
314.009	9.9
314.223	32.43
314.437	7.85
314.651	40.62
314.864	18.09
315.078	18.09
315.292	-4.44
315.505	44.71
315.719	75.43
315.933	-4.44
316.146	-18.77
316.36	-26.96
316.573	120.49
316.787	46.76
317.001	22.19
317.214	40.62
317.428	65.19
317.641	-55.64
317.855	-41.3
318.068	73.39
318.282	-41.3
318.495	40.62
318.709	40.62
318.922	18.09
319.136	73.39
319.349	32.43
319.563	9.9
319.776	42.67
319.99	-10.58
320.203	40.62
320.417	46.76
320.63	-2.39
320.843	36.52
321.057	36.52
321.27	11.95
321.483	57
321.697	95.91
321.91	-8.53
322.124	63.15
322.337	79.53
322.55	-51.54
322.763	-24.92
322.977	48.81
323.19	-18.77
323.403	77.48
323.617	71.34
323.83	77.48
324.043	46.76
324.256	3.75
324.469	34.47
324.683	54.95
324.896	-33.11
325.109	50.86
325.322	-47.44
325.535	54.95
325.748	40.62
325.962	-8.53
326.175	24.23
326.388	85.67
326.601	30.38
326.814	-0.34
327.027	1.71
327.24	42.67
327.453	30.38
327.666	79.53
327.879	-35.16
328.092	-18.77
328.305	81.58
328.518	57
328.731	87.72
328.944	-35.16
329.157	-8.53
329.37	73.39
329.583	42.67
329.796	73.39
330.009	-49.49
330.222	13.99
330.435	38.57
330.648	7.85
330.861	-33.11
331.073	38.57
331.286	54.95
331.499	-35.16
331.712	42.67
331.925	87.72
332.138	38.57
332.35	40.62
332.563	-20.82
332.776	75.43
332.989	16.04
333.202	46.76
333.414	26.28
333.627	104.11
333.84	-59.73
334.053	-26.96
334.265	75.43
334.478	38.57
334.691	155.3
334.903	44.71
335.116	9.9
335.329	5.8
335.541	91.82
335.754	67.24
335.966	-2.39
336.179	67.24
336.392	63.15
336.604	7.85
336.817	30.38
337.029	46.76
337.242	46.76
337.454	54.95
337.667	20.14
337.88	57
338.092	-45.4
338.305	63.15
338.517	40.62
338.729	-0.34
338.942	-26.96
339.154	-18.77
339.367	1.71
339.579	5.8
339.792	-31.06
340.004	128.68
340.217	-0.34
340.429	46.76
340.641	67.24
340.854	50.86
341.066	-8.53
341.278	116.39
341.491	71.34
341.703	63.15
341.915	3.75
342.128	30.38
342.34	30.38
342.552	18.09
342.764	38.57
342.977	1.71
343.189	46.76
343.401	13.99
343.613	1.71
343.826	34.47
344.038	5.8
344.25	-0.34
344.462	57
344.674	-92.5
344.886	-35.16
345.099	13.99
345.311	42.67
345.523	65.19
345.735	-39.25
345.947	79.53
346.159	65.19
346.371	26.28
346.583	46.76
346.795	65.19
347.007	1.71
347.219	-45.4
347.431	-4.44
347.643	48.81
347.855	42.67
348.067	-2.39
348.279	26.28
348.491	-4.44
348.703	120.49
348.915	3.75
349.127	-78.16
349.339	93.87
349.551	30.38
349.763	30.38
349.975	59.05
350.187	13.99
350.399	40.62
350.61	3.75
350.822	20.14
351.034	57
351.246	16.04
351.458	11.95
351.669	5.8
351.881	50.86
352.093	63.15
352.305	13.99
352.517	38.57
352.728	71.34
352.94	-20.82
353.152	38.57
353.363	-10.58
353.575	30.38
353.787	97.96
353.999	22.19
354.21	24.23
354.422	32.43
354.633	38.57
354.845	52.91
355.057	63.15
355.268	48.81
355.48	11.95
355.692	-18.77
355.903	40.62
356.115	61.1
356.326	-26.96
356.538	-6.49
356.749	71.34
356.961	16.04
357.172	38.57
357.384	13.99
357.595	91.82
357.807	-6.49
358.018	100.01
358.23	54.95
358.441	48.81
358.653	38.57
358.864	59.05
359.075	48.81
359.287	-4.44
359.498	95.91
359.709	83.63
359.921	57
360.132	38.57
360.344	79.53
360.555	-41.3
360.766	18.09
360.977	-4.44
361.189	91.82
361.4	-4.44
361.611	97.96
361.823	40.62
362.034	-76.12
362.245	-53.59
362.456	-24.92
362.667	36.52
362.879	130.73
363.09	-20.82
363.301	42.67
363.512	30.38
363.723	5.8
363.935	77.48
364.146	40.62
364.357	-16.73
364.568	20.14
364.779	22.19
364.99	40.62
365.201	7.85
365.412	112.3
365.623	-67.92
365.834	36.52
366.045	-0.34
366.256	54.95
366.467	34.47
366.678	32.43
366.889	11.95
367.1	9.9
367.311	73.39
367.522	-41.3
367.733	30.38
367.944	65.19
368.155	22.19
368.366	32.43
368.577	50.86
368.788	67.24
368.999	5.8
369.209	-29.01
369.42	149.16
369.631	57
369.842	89.77
370.053	-2.39
370.264	116.39
370.474	73.39
370.685	-14.68
370.896	36.52
371.107	46.76
371.317	132.78
371.528	16.04
371.739	-49.49
371.95	22.19
372.16	26.28
372.371	5.8
372.582	-10.58
372.792	13.99
373.003	52.91
373.214	46.76
373.424	100.01
373.635	-2.39
373.846	95.91
374.056	79.53
374.267	61.1
374.477	-26.96
374.688	75.43
374.898	32.43
375.109	128.68
375.319	104.11
375.53	57
375.74	40.62
375.951	38.57
376.161	-6.49
376.372	18.09
376.582	-10.58
376.793	32.43
377.003	32.43
377.214	50.86
377.424	-6.49
377.635	20.14
377.845	46.76
378.055	95.91
378.266	1.71
378.476	65.19
378.686	83.63
378.897	57
379.107	40.62
379.317	97.96
379.528	30.38
379.738	-0.34
379.948	-10.58
380.158	36.52
380.369	22.19
380.579	71.34
380.789	63.15
380.999	71.34
381.21	5.8
381.42	145.06
381.63	3.75
381.84	122.54
382.05	-6.49
382.261	75.43
382.471	114.34
382.681	20.14
382.891	130.73
383.101	1.71
383.311	-35.16
383.521	-6.49
383.731	79.53
383.941	-6.49
384.151	52.91
384.361	65.19
384.571	-4.44
384.781	57
384.991	40.62
385.201	95.91
385.411	79.53
385.621	34.47
385.831	1.71
386.041	13.99
386.251	48.81
386.461	75.43
386.671	-10.58
386.881	-29.01
387.091	71.34
387.301	57
387.511	30.38
387.72	30.38
387.93	61.1
388.14	24.23
388.35	54.95
388.56	65.19
388.769	65.19
388.979	13.99
389.189	-6.49
389.399	65.19
389.609	67.24
389.818	69.29
390.028	73.39
390.238	71.34
390.447	30.38
390.657	26.28
390.867	30.38
391.076	22.19
391.286	57
391.496	1.71
391.705	87.72
391.915	46.76
392.125	57
392.334	-10.58
392.544	95.91
392.753	71.34
392.963	-6.49
393.172	112.3
393.382	-26.96
393.591	50.86
393.801	20.14
394.01	157.35
394.22	79.53
394.429	100.01
394.639	59.05
394.848	-35.16
395.058	81.58
395.267	22.19
395.477	57
395.686	95.91
395.895	114.34
396.105	67.24
396.314	87.72
396.524	89.77
396.733	-8.53
396.942	73.39
397.152	40.62
397.361	112.3
397.57	128.68
397.78	38.57
397.989	67.24
398.198	110.25
398.407	22.19
398.617	116.39
398.826	81.58
399.035	11.95
399.244	34.47
399.453	22.19
399.663	100.01
399.872	57
400.081	59.05
400.29	122.54
400.499	34.47
400.708	16.04
400.917	106.15
401.127	120.49
401.336	54.95
401.545	155.3
401.754	87.72
401.963	136.87
402.172	-0.34
402.381	-16.73
402.59	57
402.799	95.91
403.008	97.96
403.217	63.15
403.426	132.78
403.635	71.34
403.844	120.49
404.053	59.05
404.262	69.29
404.471	220.84
404.68	136.87
404.888	63.15
405.097	59.05
405.306	104.11
405.515	112.3
405.724	122.54
405.933	128.68
406.142	40.62
406.35	128.68
406.559	108.2
406.768	138.92
406.977	161.45
407.185	95.91
407.394	212.65
407.603	-0.34
407.812	159.4
408.02	212.65
408.229	134.82
408.438	132.78
408.646	67.24
408.855	179.88
409.064	177.83
409.272	153.26
409.481	226.98
409.69	153.26
409.898	177.83
410.107	186.02
410.315	210.6
410.524	212.65
410.733	204.46
410.941	186.02
411.15	267.94
411.358	202.41
411.567	263.85
411.775	243.37
411.984	269.99
412.192	226.98
412.401	302.76
412.609	294.57
412.818	321.19
413.026	282.28
413.234	235.18
413.443	315.05
413.651	327.33
413.86	425.64
414.068	423.59
414.276	396.96
414.485	296.61
414.693	362.15
414.901	425.64
415.11	489.12
415.318	515.75
415.526	394.92
415.734	515.75
415.943	497.32
416.151	609.95
416.359	454.31
416.567	591.52
416.776	620.19
416.984	624.29
417.192	661.15
417.4	614.05
417.608	695.97
417.817	622.24
418.025	724.64
418.233	759.46
418.441	698.02
418.649	763.55
418.857	808.61
419.065	857.76
419.273	751.26
419.481	841.37
419.689	978.59
419.897	898.72
420.105	960.16
420.313	1029.79
420.521	1085.08
420.729	976.54
420.937	1054.36
421.145	1095.32
421.353	1078.94
421.561	1261.21
421.769	1212.06
421.977	1396.37
422.185	1291.93
422.393	1400.47
422.601	1429.14
422.809	1515.16
423.017	1472.15
423.224	1531.54
423.432	1570.45
423.64	1564.31
423.848	1752.72
424.056	1615.51
424.263	1742.48
424.471	1722
424.679	1902.22
424.887	2021
425.094	2004.62
425.302	1994.38
425.51	2029.2
425.718	2145.93
425.925	2160.27
426.133	2344.58
426.341	2424.45
426.548	2453.13
426.756	2494.08
426.964	2496.13
427.171	2580.1
427.379	2727.55
427.586	2883.2
427.794	2889.34
428.001	2979.45
428.209	3122.81
428.417	3102.33
428.624	3276.41
428.832	3120.76
429.039	3110.52
429.247	3249.79
429.454	3534.45
429.662	3907.18
429.869	3524.21
430.076	3905.14
430.284	3729.01
430.491	3917.42
430.699	4097.64
430.906	4243.05
431.114	4179.56
431.321	4169.32
431.528	4513.38
431.736	4652.64
431.943	5011.04
432.15	4763.23
432.358	4699.75
432.565	5101.15
432.772	4994.65
432.979	5203.55
433.187	5226.07
433.394	5402.2
433.601	5602.9
433.808	5838.42
434.016	5654.1
434.223	6028.88
434.43	6231.63
434.637	6114.89
434.844	6667.84
435.052	6612.55
435.259	6690.37
435.466	6735.43
435.673	6583.88
435.88	7140.93
436.087	7437.88
436.294	7497.27
436.501	7290.43
436.708	7374.39
436.915	7790.13
437.122	8099.38
437.329	8060.46
437.537	8224.3
437.743	8328.75
437.95	8271.4
438.157	8683.05
438.364	9111.07
438.571	8982.05
438.778	8992.29
438.985	9969.17
439.192	9524.76
439.399	9827.86
439.606	9475.61
439.813	10225.17
440.02	10495.5
440.227	10505.74
440.433	10409.48
440.64	10812.93
440.847	10649.1
441.054	10888.71
441.261	11693.56
441.467	11548.15
441.674	11662.84
441.881	12092.91
442.088	12146.16
442.294	11910.64
442.501	12322.29
442.708	12774.89
442.914	13164
443.121	13544.92
443.328	13188.58
443.534	14226.9
443.741	13923.8
443.948	13667.8
444.154	14454.22
444.361	14271.95
444.568	14609.87
444.774	14472.65
444.981	14861.77
445.187	15105.48
445.394	15539.65
445.6	15605.18
445.807	16956.84
446.013	16410.03
446.22	16438.7
446.426	17348
446.633	17700.25
446.839	18128.28
447.046	17386.91
447.252	18054.55
447.459	18167.19
447.665	18271.64
447.871	19072.39
448.078	20020.6
448.284	18969.99
448.491	19469.7
448.697	20268.41
448.903	20626.8
449.11	20591.98
449.316	20153.72
449.522	20927.85
449.728	21562.72
449.935	21280.1
450.141	21525.86
450.347	21861.73
450.553	21114.22
450.76	21628.26
450.966	22525.27
451.172	22009.18
451.378	22560.08
451.584	21947.74
451.791	22736.21
451.997	22502.74
452.203	22955.34
452.409	23086.41
452.615	22984.01
452.821	22082.91
453.027	21751.13
453.233	22791.5
453.44	22070.62
453.646	22379.86
453.852	22906.19
454.058	22596.95
454.264	21902.68
454.47	22674.77
454.676	22123.87
454.882	23037.26
455.088	20907.37
455.294	21349.73
455.5	21732.7
455.705	22000.99
455.911	20966.76
456.117	20612.46
456.323	20528.5
456.529	19617.15
456.735	20143.48
456.941	19574.14
457.147	19228.04
457.352	18564.5
457.558	18544.02
457.764	18482.58
457.97	18251.16
458.176	17733.02
458.381	18115.99
458.587	16965.03
458.793	16997.8
458.999	15949.24
459.204	17167.78
459.41	16641.45
459.616	15734.2
459.821	15988.15
460.027	15635.9
460.233	15467.97
460.438	14740.94
460.644	14765.51
460.85	14192.08
461.055	14075.35
461.261	13876.69
461.466	12903.91
461.672	12342.77
461.878	13446.62
462.083	12629.48
462.289	12301.81
462.494	12011
462.7	11658.74
462.905	11349.5
463.111	11517.43
463.316	11523.58
463.522	11496.96
463.727	11458.04
463.932	11480.57
464.138	11187.71
464.343	11419.13
464.549	11097.6
464.754	11466.24
464.959	11195.9
465.165	10898.95
465.37	10638.86
465.575	10323.47
465.781	10896.9
465.986	10995.2
466.191	10589.71
466.397	10378.76
466.602	9805.33
466.807	10264.08
467.012	10280.46
467.218	9995.79
467.423	9913.88
467.628	10065.43
467.833	10380.81
468.038	10114.58
468.244	9688.6
468.449	10262.03
468.654	9758.23
468.859	9836.05
469.064	9707.03
469.269	9381.4
469.474	9586.2
469.679	9786.9
469.885	9279.01
470.09	9475.61
470.295	9426.46
470.5	9422.36
470.705	9307.68
470.91	9033.25
471.115	8867.36
471.32	9078.3
471.525	9205.28
471.73	8906.27
471.935	8689.19
472.139	8406.57
472.344	8511.02
472.549	8521.26
472.754	8373.8
472.959	8214.06
473.164	8039.98
473.369	8009.26
473.574	8209.97
473.778	8115.76
473.983	8248.88
474.188	8248.88
474.393	7812.66
474.598	7917.11
474.802	7736.88
475.007	7755.32
475.212	7677.49
475.417	7337.53
475.621	7310.91
475.826	7372.35
476.031	7312.96
476.235	7042.62
476.44	7431.74
476.645	7136.83
476.849	7108.16
477.054	6970.94
477.259	6776.39
477.463	6956.61
477.668	6704.71
477.872	6864.45
478.077	6831.68
478.282	6594.12
478.486	6725.19
478.691	6686.28
478.895	6534.73
479.1	6413.9
479.304	6415.94
479.509	6327.88
479.713	6389.32
479.918	6182.48
480.122	6225.48
480.326	6094.41
480.531	6264.4
480.735	6002.26
480.94	6043.21
481.144	6264.4
481.348	5838.42
481.553	6172.24
481.757	5797.46
481.961	6028.88
482.166	6121.04
482.37	5967.44
482.574	5840.47
482.778	5811.79
482.983	6147.66
483.187	5994.06
483.391	6080.08
483.595	5754.45
483.8	5940.82
484.004	5670.48
484.208	5992.02
484.412	5889.62
484.616	5879.38
484.821	5893.71
485.025	5756.5
485.229	5912.14
485.433	5817.94
485.637	5936.72
485.841	5961.3
486.045	5836.37
486.249	5766.74
486.453	5783.12
486.657	6004.3
486.861	5807.7
487.065	5832.27
487.269	5797.46
487.473	5760.59
487.677	5817.94
487.881	6149.71
488.085	6067.79
488.289	6002.26
488.493	5879.38
488.697	6133.33
488.901	5936.72
489.105	5916.24
489.309	6020.69
489.512	5901.9
489.716	5903.95
489.92	5928.53
490.124	6030.93
490.328	6233.68
490.531	6004.3
490.735	6059.6
490.939	6106.7
491.143	5987.92
491.346	6073.93
491.55	6153.8
491.754	6061.65
491.958	6190.67
492.161	6032.97
492.365	6266.44
492.569	6202.96
492.772	6280.78
492.976	6424.14
493.18	6243.92
493.383	6389.32
493.587	6354.51
493.79	6444.62
493.994	6456.9
494.197	6305.35
494.401	6600.26
494.605	6528.58
494.808	6692.42
495.012	6596.17
495.215	6745.67
495.419	6805.06
495.622	6620.74
495.825	6927.94
496.029	6856.26
496.232	7036.48
496.436	6929.98
496.639	7140.93
496.843	7282.24
497.046	7255.61
497.249	7304.76
497.453	7386.68
497.656	7497.27
497.859	7376.44
498.063	7587.38
498.266	7601.72
498.469	7636.53
498.673	7560.76
498.876	7788.08
499.079	7970.35
499.282	7933.49
499.485	8132.14
499.689	8046.13
499.892	8140.33
500.095	8082.99
500.298	8295.98
500.501	8459.82
500.705	8678.95
500.908	8734.25
501.111	8799.78
501.314	8773.16
501.517	8910.37
501.72	9195.04
501.923	8963.62
502.126	9166.37
502.329	9258.53
502.532	9453.08
502.735	9514.52
502.938	9655.83
503.141	9674.26
503.344	9889.3
503.547	9950.74
503.75	9938.45
503.953	10059.28
504.156	10204.69
504.359	10462.73
504.562	10440.2
504.765	10690.06
504.968	10589.71
505.17	10778.12
505.373	10864.13
505.576	11159.04
505.779	11015.68
505.982	11163.14
506.185	11435.52
506.387	11576.83
506.59	11499
506.793	11947.51
506.996	11707.9
507.198	12217.84
507.401	12148.21
507.604	12072.43
507.807	12289.52
508.009	12457.45
508.212	12547.56
508.415	12733.93
508.617	12793.32
508.82	13071.84
509.022	12983.78
509.225	13510.11
509.428	13346.27
509.63	13475.29
509.833	13643.23
510.035	13927.89
510.238	13866.46
510.44	14106.07
510.643	14005.72
510.845	14300.62
511.048	14339.54
511.25	14640.59
511.453	14996.93
511.655	15082.95
511.858	14884.3
512.06	15220.16
512.262	15502.78
512.465	15314.37
512.667	15564.22
512.87	15744.44
513.072	15769.02
513.274	16160.18
513.477	16340.4
513.679	16592.3
513.881	16686.51
514.084	16754.09
514.286	16713.13
514.488	16840.11
514.69	17450.4
514.893	17440.16
515.095	17315.23
515.297	17837.47
515.499	17520.03
515.701	18029.98
515.904	18226.58
516.106	18439.57
516.308	18406.8
516.51	18959.75
516.712	18728.33
516.914	18998.66
517.116	19086.73
517.318	19066.25
517.52	19471.75
517.722	19443.07
517.925	19719.55
518.127	20182.39
518.329	20202.87
518.531	19922.3
518.733	20434.29
518.935	20366.71
519.136	20655.47
519.338	20964.71
519.54	20880.75
519.742	21122.41
519.944	21333.35
520.146	21435.75
520.348	21874.01
520.55	21808.48
520.752	21914.97
520.954	22547.79
521.155	22299.99
521.357	22469.97
521.559	22498.64
521.761	22926.67
521.963	23012.68
522.164	22965.58
522.366	23188.81
522.568	23532.87
522.77	23270.73
522.971	23995.71
523.173	24057.15
523.375	24237.37
523.576	23911.74
523.778	24104.25
523.98	24597.81
524.181	24329.53
524.383	24710.45
524.584	25210.15
524.786	24892.72
524.988	24792.37
525.189	25498.92
525.391	25230.63
525.592	25509.16
525.794	25566.5
525.995	25609.51
526.197	25713.95
526.398	26012.96
526.6	25894.18
526.801	26283.29
527.003	26246.43
527.204	26406.17
527.406	26680.6
527.607	26191.13
527.808	26590.48
528.01	26318.11
528.211	26613.01
528.412	27221.26
528.614	26950.93
528.815	27063.57
529.016	27335.95
529.218	26897.68
529.419	27188.49
529.62	27106.57
529.822	27153.68
530.023	27378.95
530.224	27526.41
530.425	27501.83
530.626	27391.24
530.828	26993.93
531.029	27815.17
531.23	27374.86
531.431	27690.24
531.632	27790.59
531.833	27720.96
532.035	27872.51
532.236	27727.11
532.437	28294.39
532.638	27591.94
532.839	27929.86
533.04	27878.66
533.241	27729.16
533.442	27884.8
533.643	28081.41
533.844	28079.36
534.045	28095.74
534.246	27622.66
534.447	28189.95
534.648	27786.5
534.849	28267.77
535.05	27979.01
535.251	27788.55
535.451	28136.7
535.652	28210.43
535.853	28138.75
536.054	28034.3
536.255	28329.21
536.456	28093.69
536.657	28546.3
536.857	27952.38
537.058	27997.44
537.259	28163.32
537.46	28310.78
537.66	28364.03
537.861	27944.19
538.062	28138.75
538.263	28028.16
538.463	28120.32
538.664	28333.31
538.865	28101.89
539.065	28302.59
539.266	27804.93
539.466	28179.71
539.667	27755.78
539.868	28380.41
540.068	27909.38
540.269	27927.81
540.469	28351.74
540.67	28110.08
540.87	28165.37
541.071	27882.75
541.271	28306.68
541.472	28120.32
541.672	27759.88
541.873	27892.99
542.073	27766.02
542.274	28218.62
542.474	28159.23
542.675	27507.97
542.875	28151.04
543.075	28218.62
543.276	27493.64
543.476	28148.99
543.676	27821.31
543.877	27958.53
544.077	28056.83
544.277	27776.26
544.478	27876.61
544.678	27890.95
544.878	28130.56
545.078	27942.14
545.279	27927.81
545.479	27899.14
545.679	27835.65
545.879	27837.7
546.079	27796.74
546.28	28028.16
546.48	27432.2
546.68	27835.65
546.88	27647.24
547.08	27682.05
547.28	27714.82
547.48	27403.53
547.68	27766.02
547.88	27514.12
548.081	28144.89
548.281	27485.45
548.481	27651.33
548.681	27696.39
548.881	27475.21
549.081	27778.31
549.28	27802.88
549.48	27704.58
549.68	27749.64
549.88	27929.86
550.08	27727.11
550.28	27673.86
550.48	27514.12
550.68	27550.98
550.88	27692.29
551.08	27530.5
551.279	27612.42
551.479	27149.58
551.679	27501.83
551.879	27702.53
552.079	27749.64
552.278	27522.31
552.478	27704.58
552.678	27522.31
552.878	27856.13
553.077	27477.26
553.277	27483.4
553.477	27612.42
553.676	27405.58
553.876	26998.03
554.076	27413.77
554.275	27493.64
554.475	27096.33
554.674	27530.5
554.874	27178.25
555.074	26944.78
555.273	26989.84
555.473	27520.26
555.672	27096.33
555.872	27323.66
556.071	27217.16
556.271	26991.89
556.47	27084.05
556.67	26823.95
556.869	26883.34
557.068	27266.31
557.268	26950.93
557.467	27106.57
557.667	27061.52
557.866	27008.27
558.065	26844.43
558.265	26572.05
558.464	26602.77
558.663	26918.16
558.863	26475.8
559.062	26821.91
559.261	26295.58
559.461	26764.56
559.66	26314.01
559.859	26359.06
560.058	26451.22
560.258	26567.96
560.457	26248.47
560.656	26416.41
560.855	26260.76
561.054	26178.84
561.253	26244.38
561.453	26115.36
561.652	26223.9
561.851	26334.49
562.05	26400.02
562.249	26084.64
562.448	25791.78
562.647	26240.28
562.846	25812.26
563.045	25982.24
563.244	25636.13
563.443	26166.56
563.642	25509.16
563.841	25683.23
564.04	25640.23
564.239	26148.12
564.438	25126.19
564.637	25449.77
564.836	25619.75
565.035	25210.15
565.234	25224.49
565.432	25134.38
565.631	25042.22
565.83	25179.43
566.029	25161
566.228	25244.97
566.427	24958.25
566.625	25027.88
566.824	24563
567.023	25058.6
567.222	24511.8
567.42	25115.95
567.619	24800.56
567.818	24583.48
568.016	24304.95
568.215	24567.09
568.414	24483.13
568.612	24599.86
568.811	24409.4
569.01	24440.12
569.208	23872.83
569.407	24255.8
569.605	23905.6
569.804	24104.25
570.002	23784.77
570.201	24182.07
570.4	23835.97
570.598	23717.18
570.797	23799.1
570.995	23692.61
571.193	23471.43
571.392	23790.91
571.59	23504.2
571.789	23375.17
571.987	23485.76
572.186	23575.87
572.384	23184.71
572.582	23596.35
572.781	23588.16
572.979	22748.5
573.177	23207.24
573.376	23113.03
573.574	22959.44
573.772	22883.66
573.971	22680.91
574.169	22828.37
574.367	22705.49
574.565	22760.78
574.763	22674.77
574.962	22533.46
575.16	22193.5
575.358	22484.31
575.556	22472.02
575.754	22609.23
575.952	22181.21
576.151	22236.5
576.349	22064.47
576.547	21861.73
576.745	22123.87
576.943	22117.72
577.141	21941.6
577.339	22062.43
577.537	21677.41
577.735	21898.59
577.933	21914.97
578.131	22021.47
578.329	21632.35
578.527	21511.52
578.725	21484.9
578.923	21394.79
579.121	21288.29
579.319	21376.36
579.516	21648.74
579.714	21374.31
579.912	21001.58
580.11	21015.91
580.308	21316.97
580.506	21185.9
580.704	20788.59
580.901	20864.36
581.099	21206.38
581.297	20551.03
581.495	20934
581.692	21001.58
581.89	20804.97
582.088	21007.72
582.285	20264.31
582.483	20743.53
582.681	20675.95
582.878	20411.76
583.076	20141.43
583.274	20667.76
583.471	20190.58
583.669	20307.32
583.866	19877.24
584.064	20227.45
584.262	19879.29
584.459	20194.68
584.657	19762.56
584.854	20129.14
585.052	19592.58
585.249	19684.73
585.447	19684.73
585.644	19817.85
585.841	19555.71
586.039	19737.98
586.236	19662.21
586.434	19488.13
586.631	19322.24
586.828	19393.92
587.026	19219.85
587.223	19281.28
587.42	19344.77
587.618	19346.82
587.815	18972.04
588.012	18802.06
588.21	18998.66
588.407	19021.19
588.604	18517.39
588.801	18761.1
588.999	18584.98
589.196	18673.04
589.393	18544.02
589.59	18607.5
589.787	18384.27
589.984	18333.07
590.182	18154.9
590.379	18541.97
590.576	18134.42
590.773	18056.6
590.97	18159
591.167	18355.6
591.364	18007.45
591.561	18056.6
591.758	17995.16
591.955	17919.39
592.152	18062.74
592.349	17780.12
592.546	17862.04
592.743	17833.37
592.94	17683.87
593.137	17513.89
593.334	17714.59
593.531	17403.3
593.727	17391.01
593.924	17356.19
594.121	17458.59
594.318	17730.97
594.515	17241.51
594.712	17323.43
594.908	17380.77
595.105	17251.75
595.302	16954.79
595.499	16954.79
595.696	16942.5
595.892	16735.66
596.089	16852.39
596.286	16793
596.482	16405.94
596.679	16846.25
596.876	16926.12
597.072	16731.56
597.269	16754.09
597.466	16479.66
597.662	16557.49
597.859	16516.53
598.055	16321.97
598.252	16424.37
598.448	16391.6
598.645	16149.94
598.841	15848.89
599.038	16154.04
599.234	16072.12
599.431	16111.03
599.627	15818.17
599.824	15748.54
600.02	15990.2
600.217	16010.68
600.413	15773.11
600.609	15787.45
600.806	15496.64
601.002	15769.02
601.198	15623.61
601.395	15664.57
601.591	15572.41
601.787	15357.38
601.984	15326.66
602.18	15617.47
602.376	15300.03
602.572	15218.11
602.769	15474.11
602.965	15078.85
603.161	15005.13
603.357	15017.41
603.553	15070.66
603.75	14726.6
603.946	15160.77
604.142	15046.09
604.338	14898.63
604.534	14972.36
604.73	14863.82
604.926	14829
605.122	14818.76
605.318	14949.83
605.514	14675.4
605.71	14552.52
605.906	14534.09
606.102	14710.22
606.298	14423.5
606.494	14333.39
606.69	14458.32
606.886	14357.97
607.082	14337.49
607.278	14253.52
607.474	14130.64
607.67	14253.52
607.866	13993.43
608.062	14384.59
608.257	13981.14
608.453	14319.06
608.649	14136.79
608.845	13915.61
609.041	14071.25
609.236	14018
609.432	13968.85
609.628	13911.51
609.824	13897.17
610.019	13802.97
610.215	13645.27
610.411	13858.26
610.606	13612.51
610.802	13659.61
610.998	13796.82
611.193	13622.75
611.389	13387.23
611.584	13538.78
611.78	13471.2
611.976	13774.3
612.171	13553.12
612.367	13346.27
612.562	13602.27
612.758	13082.08
612.953	13166.05
613.149	13327.84
613.344	13186.53
613.539	13467.1
613.735	13284.83
613.93	13327.84
614.126	13313.5
614.321	13620.7
614.517	13403.61
614.712	13182.43
614.907	13170.15
615.103	13424.09
615.298	13225.44
615.493	13215.2
615.688	12987.88
615.884	13207.01
616.079	12776.94
616.274	12793.32
616.47	12918.25
616.665	12965.35
616.86	12998.12
617.055	12811.75
617.25	12889.57
617.445	12885.48
617.641	12727.78
617.836	12563.95
618.031	12490.22
618.226	12959.2
618.421	12391.92
618.616	12678.63
618.811	12332.53
619.006	12502.51
619.201	12219.89
619.396	12473.84
619.591	12047.86
619.786	12479.98
619.981	12068.34
620.176	12219.89
620.371	12146.16
620.566	12111.35
620.761	11967.99
620.956	11994.61
621.151	11795.96
621.346	11927.03
621.541	11695.61
621.735	12199.41
621.93	11720.18
622.125	11802.1
622.32	11494.91
622.515	11449.85
622.709	11474.43
622.904	11462.14
623.099	11263.49
623.294	11326.97
623.488	11124.22
623.683	11345.41
623.878	11001.35
624.072	11056.64
624.267	11101.7
624.462	10982.92
624.656	10884.61
624.851	10794.5
625.046	10761.73
625.24	10702.34
625.435	10876.42
625.629	10765.83
625.824	10565.13
626.018	10655.24
626.213	10286.61
626.407	10458.64
626.602	10278.41
626.796	10370.57
626.991	10245.65
627.185	10182.16
627.38	10081.81
627.574	10055.19
627.768	10167.82
627.963	9627.16
628.157	9815.57
628.352	9860.63
628.546	9747.99
628.74	9801.24
628.935	9633.3
629.129	9805.33
629.323	9610.78
629.517	9670.17
629.712	9483.8
629.906	9319.96
630.1	9332.25
630.294	9289.24
630.489	9225.76
630.683	9313.82
630.877	9240.09
631.071	9168.41
631.265	9035.3
631.459	8984.1
631.653	9033.25
631.848	8875.56
632.042	9109.02
632.236	8799.78
632.43	8779.3
632.624	8834.6
632.818	8855.08
633.012	8748.58
633.206	8666.66
633.4	8707.62
633.594	8521.26
633.788	8625.7
633.982	8449.58
634.176	8461.87
634.369	8381.99
634.563	8341.04
634.757	8310.32
634.951	8199.73
635.145	8175.15
635.339	7976.5
635.533	8199.73
635.726	8275.5
635.92	8144.43
636.114	8023.6
636.308	8009.26
636.501	7929.39
636.695	7896.63
636.889	8027.7
637.083	7968.31
637.276	7867.95
637.47	7732.79
637.664	7609.91
637.857	7513.66
638.051	7620.15
638.244	7521.85
638.438	7595.57
638.632	7534.14
638.825	7413.31
639.019	7396.92
639.212	7202.36
639.406	7136.83
639.599	7190.08
639.793	7394.87
639.986	7114.3
640.18	7228.99
640.373	7220.8
640.567	6999.62
640.76	7255.61
640.954	6891.07
641.147	6886.98
641.34	6782.53
641.534	6966.85
641.727	6944.32
641.92	6817.35
642.114	6841.92
642.307	6841.92
642.5	6739.52
642.694	6520.39
642.887	6536.77
643.08	6727.24
643.273	6506.06
643.467	6643.27
643.66	6524.49
643.853	6463.05
644.046	6370.89
644.239	6571.59
644.432	6334.03
644.626	6303.31
644.819	6321.74
645.012	6321.74
645.205	6374.99
645.398	6358.6
645.591	6032.97
645.784	6260.3
645.977	6086.22
646.17	6129.23
646.363	6004.3
646.556	5871.19
646.749	6131.28
646.942	5828.18
647.135	6026.83
647.328	5899.86
647.521	5912.14
647.714	5789.27
647.907	5944.91
648.099	5764.69
648.292	5813.84
648.485	5764.69
648.678	5645.91
648.871	5621.33
649.064	5492.31
649.256	5600.85
649.449	5539.41
649.642	5490.26
649.835	5586.52
650.027	5365.34
650.22	5371.48
650.413	5469.78
650.605	5477.98
650.798	5297.75
650.991	5264.99
651.183	5455.45
651.376	5326.43
651.568	5224.03
651.761	5232.22
651.954	5185.12
652.146	5037.66
652.339	5170.78
652.531	5156.44
652.724	5142.11
652.916	4996.7
653.109	5070.43
653.301	5035.61
653.494	5088.86
653.686	5041.76
653.879	4925.02
654.071	5013.09
654.263	4892.26
654.456	4961.89
654.648	4925.02
654.84	4685.41
655.033	4705.89
655.225	4730.47
655.417	4716.13
655.61	4628.07
655.802	4572.77
655.994	4634.21
656.186	4671.08
656.379	4656.74
656.571	4621.92
656.763	4609.64
656.955	4593.25
657.148	4382.31
657.34	4509.29
657.532	4527.72
657.724	4576.87
657.916	4535.91
658.108	4353.64
658.3	4347.5
658.492	4505.19
658.684	4277.87
658.876	4333.16
659.068	4175.47
659.26	4138.6
659.452	4306.54
659.644	4265.58
659.836	4191.85
660.028	4228.71
660.22	4028.01
660.412	4224.62
660.604	4175.47
660.796	4120.17
660.988	4191.85
661.18	4003.44
661.372	4093.55
661.563	3962.48
661.755	4030.06
661.947	4081.26
662.139	3855.98
662.331	3888.75
662.522	3903.09
662.714	3825.26
662.906	3837.55
663.097	3917.42
663.289	3886.7
663.481	3745.39
663.673	3733.11
663.864	3761.78
664.056	3745.39
664.247	3751.54
664.439	3790.45
664.631	3765.87
664.822	3767.92
665.014	3710.58
665.205	3620.47
665.397	3692.15
665.588	3661.43
665.78	3501.69
665.971	3632.76
666.163	3507.83
666.354	3552.88
666.546	3389.05
666.737	3552.88
666.929	3548.79
667.12	3561.08
667.311	3585.65
667.503	3495.54
667.694	3612.28
667.885	3421.81
668.077	3384.95
668.268	3378.81
668.459	3411.57
668.651	3430.01
668.842	3497.59
669.033	3387
669.224	3231.35
669.416	3378.81
669.607	3399.29
669.798	3364.47
669.989	3153.53
670.18	3180.15
670.371	3262.07
670.563	3178.11
670.754	3282.55
670.945	3268.22
671.136	3233.4
671.327	3112.57
671.518	3190.39
671.709	3233.4
671.9	3178.11
672.091	3208.83
672.282	3090.04
672.473	3114.62
672.664	3184.25
672.855	3034.75
673.046	3249.79
673.237	3071.61
673.428	3178.11
673.619	3085.95
673.809	3022.46
674	3049.08
674.191	2963.07
674.382	2868.86
674.573	3118.72
674.764	2956.93
674.954	3088
675.145	3065.47
675.336	2950.78
675.527	3159.67
675.717	2973.31
675.908	2920.06
676.099	2989.69
676.289	2981.5
676.48	2926.21
676.671	2885.25
676.861	2848.38
677.052	2940.54
677.243	2946.69
677.433	2915.97
677.624	2938.49
677.814	2840.19
678.005	2940.54
678.195	2801.28
678.386	2883.2
678.576	2963.07
678.767	2944.64
678.957	2807.42
679.148	2961.02
679.338	2889.34
679.529	2893.44
679.719	2848.38
679.909	2799.23
680.1	2858.62
680.29	2895.49
680.481	2735.74
680.671	2807.42
680.861	2786.94
681.052	2821.76
681.242	2815.62
681.432	2950.78
681.622	2772.61
681.813	2666.11
682.003	2852.48
682.193	2619.01
682.383	2621.06
682.573	2737.79
682.764	2715.27
682.954	2719.36
683.144	2709.12
683.334	2594.44
683.524	2739.84
683.714	2655.87
683.904	2678.4
684.094	2635.39
684.284	2729.6
684.474	2877.05
684.664	2614.91
684.854	2627.2
685.044	2721.41
685.234	2735.74
685.424	2645.63
685.614	2684.55
685.804	2662.02
685.994	2805.38
686.184	2637.44
686.374	2756.22
686.564	2483.84
686.753	2678.4
686.943	2446.98
687.133	2541.19
687.323	2528.9
687.513	2571.91
687.702	2426.5
687.892	2504.32
688.082	2514.56
688.272	2471.56
688.461	2416.26
688.651	2522.76
688.841	2430.6
689.03	2451.08
689.22	2346.63
689.41	2391.69
689.599	2389.64
689.789	2401.93
689.979	2369.16
690.168	2430.6
690.358	2399.88
690.547	2440.84
690.737	2332.3
690.926	2340.49
691.116	2291.34
691.305	2489.99
691.495	2320.01
691.684	2336.39
691.874	2322.06
692.063	2389.64
692.252	2326.15
692.442	2449.03
692.631	2236.04
692.82	2168.46
693.01	2219.66
693.199	2238.09
693.388	2233.99
693.578	2127.5
693.767	2250.38
693.956	2156.17
694.146	2180.75
694.335	2068.11
694.524	2225.8
694.713	2078.35
694.902	2092.68
695.092	2107.02
695.281	2127.5
695.47	2088.59
695.659	2143.88
695.848	2049.68
696.037	2061.96
696.226	2111.11
696.415	2104.97
696.604	2047.63
696.793	1973.9
696.982	2104.97
697.171	2127.5
697.36	2086.54
697.549	2057.87
697.738	1988.24
697.927	2023.05
698.116	1978
698.305	2004.62
698.494	1982.09
698.683	1932.94
698.872	2059.92
699.061	2047.63
699.25	2055.82
699.438	2078.35
699.627	2012.81
699.816	2055.82
700.005	2084.49
700.193	1941.13
700.382	2016.91
700.571	1873.55
700.76	1988.24
700.948	1965.71
701.137	1922.7
701.326	1959.56
701.514	1973.9
701.703	1957.52
701.892	1930.89
702.08	1967.76
702.269	1994.38
702.457	1881.74
702.646	1900.17
702.834	1934.99
703.023	2033.29
703.212	1951.37
703.4	1840.78
703.589	1906.32
703.777	1891.98
703.965	1980.04
704.154	1836.69
704.342	1978
704.531	1971.85
704.719	1865.36
704.907	2006.67
705.096	1914.51
705.284	1924.75
705.472	1848.97
705.661	1947.28
705.849	1922.7
706.037	2033.29
706.226	1943.18
706.414	1990.28
706.602	1855.12
706.79	1867.41
706.979	1906.32
707.167	1894.03
707.355	1996.43
707.543	1914.51
707.731	1914.51
707.919	1932.94
708.107	1988.24
708.296	2008.72
708.484	1869.45
708.672	1828.49
708.86	1775.25
709.048	1932.94
709.236	1930.89
709.424	1902.22
709.612	1984.14
709.8	2029.2
709.988	1816.21
710.176	1965.71
710.364	1949.32
710.551	1992.33
710.739	1928.85
710.927	1906.32
711.115	1914.51
711.303	1934.99
711.491	1969.8
711.679	1980.04
711.866	1918.61
712.054	2023.05
712.242	1943.18
712.43	2004.62
712.617	1973.9
712.805	1949.32
712.993	2002.57
713.181	1838.73
713.368	1922.7
713.556	1973.9
713.744	1908.37
713.931	1922.7
714.119	1996.43
714.306	2023.05
714.494	1873.55
714.682	1980.04
714.869	1859.21
715.057	1963.66
715.244	1832.59
715.432	2078.35
715.619	1885.84
715.807	1902.22
715.994	1902.22
716.182	1957.52
716.369	2033.29
716.556	1996.43
716.744	1922.7
716.931	2010.76
717.119	1969.8
717.306	1883.79
717.493	1961.61
717.681	1853.07
717.868	1914.51
718.055	1961.61
718.242	1949.32
718.43	1920.65
718.617	2074.25
718.804	1984.14
718.991	1894.03
719.179	1990.28
719.366	2076.3
719.553	2045.58
719.74	1963.66
719.927	2041.48
720.114	1916.56
720.301	1963.66
720.488	1889.93
720.676	1967.76
720.863	1967.76
721.05	2102.92
721.237	2041.48
721.424	1941.13
721.611	1932.94
721.798	1939.09
721.985	2012.81
722.172	1930.89
722.358	1937.04
722.545	2076.3
722.732	1914.51
722.919	1959.56
723.106	2078.35
723.293	1963.66
723.48	2029.2
723.667	1867.41
723.853	2031.24
724.04	2029.2
724.227	2035.34
724.414	2004.62
724.6	2070.16
724.787	2055.82
724.974	2055.82
725.161	1998.48
725.347	1973.9
725.534	2025.1
725.72	2145.93
725.907	2025.1
726.094	1975.95
726.28	2066.06
726.467	1996.43
726.653	2004.62
726.84	1996.43
727.027	2162.31
727.213	2104.97
727.4	1969.8
727.586	2152.07
727.773	2010.76
727.959	1961.61
728.145	2113.16
728.332	2066.06
728.518	2057.87
728.705	2129.55
728.891	2039.44
729.077	2094.73
729.264	2055.82
729.45	2094.73
729.636	2131.59
729.823	2158.22
730.009	2061.96
730.195	2127.5
730.382	2039.44
730.568	2102.92
730.754	2016.91
730.94	2104.97
731.126	2201.23
731.313	2111.11
731.499	2082.44
731.685	2096.78
731.871	2041.48
732.057	2158.22
732.243	2193.03
732.429	2064.01
732.615	1998.48
732.801	2104.97
732.987	2127.5
733.173	2078.35
733.359	2064.01
733.545	2053.77
733.731	2154.12
733.917	2098.83
734.103	2027.15
734.289	2172.55
734.475	2047.63
734.661	2201.23
734.847	2156.17
735.033	2160.27
735.219	2238.09
735.404	2115.21
735.59	2170.51
735.776	2201.23
735.962	2045.58
736.148	2203.27
736.333	2143.88
736.519	2088.59
736.705	2129.55
736.89	2082.44
737.076	2055.82
737.262	1947.28
737.447	2119.31
737.633	2086.54
737.819	2096.78
738.004	2143.88
738.19	2082.44
738.375	2139.79
738.561	2223.75
738.747	2053.77
738.932	1955.47
739.118	2039.44
739.303	2111.11
739.489	2086.54
739.674	2078.35
739.859	1930.89
740.045	2131.59
740.23	2139.79
740.416	1971.85
740.601	1988.24
740.786	1957.52
740.972	2104.97
741.157	1912.46
741.342	2059.92
741.528	2029.2
741.713	2012.81
741.898	2029.2
742.084	1998.48
742.269	1990.28
742.454	2012.81
742.639	1955.47
742.824	1914.51
743.01	1838.73
743.195	2014.86
743.38	1943.18
743.565	1963.66
743.75	1869.45
743.935	1930.89
744.12	1986.19
744.305	1922.7
744.49	1922.7
744.675	1967.76
744.86	1840.78
745.045	1832.59
745.23	1908.37
745.415	1824.4
745.6	1988.24
745.785	1719.95
745.97	1932.94
746.155	1865.36
746.34	1801.87
746.525	1726.1
746.71	1889.93
746.895	1777.3
747.079	1754.77
747.264	1791.63
747.449	1832.59
747.634	1785.49
747.819	1853.07
748.003	1730.19
748.188	1777.3
748.373	1777.3
748.557	1730.19
748.742	1758.86
748.927	1689.23
749.111	1808.02
749.296	1760.91
749.481	1662.61
749.665	1613.46
749.85	1631.89
750.034	1629.84
750.219	1629.84
750.404	1625.75
750.588	1597.07
750.773	1547.92
750.957	1586.83
751.141	1578.64
751.326	1541.78
751.51	1474.2
751.695	1556.11
751.879	1523.35
752.064	1582.74
752.248	1509.01
752.432	1609.36
752.617	1443.48
752.801	1556.11
752.985	1472.15
753.17	1556.11
753.354	1504.92
753.538	1408.66
753.722	1466
753.907	1463.96
754.091	1431.19
754.275	1480.34
754.459	1441.43
754.643	1476.24
754.828	1394.33
755.012	1447.57
755.196	1275.54
755.38	1334.93
755.564	1349.27
755.748	1330.84
755.932	1343.13
756.116	1324.69
756.3	1232.54
756.484	1287.83
756.668	1304.21
756.852	1242.78
757.036	1279.64
757.22	1308.31
757.404	1199.77
757.588	1224.34
757.772	1183.38
757.956	1293.97
758.14	1205.91
758.323	1154.71
758.507	1197.72
758.691	1076.89
758.875	1220.25
759.059	1199.77
759.242	1093.27
759.426	1259.16
759.61	1154.71
759.794	1080.99
759.977	1167
760.161	1271.45
760.345	1177.24
760.528	1218.2
760.712	1011.36
760.895	1253.02
761.079	1121.95
761.263	1095.32
761.446	1144.47
761.63	1103.51
761.813	1107.61
761.997	1021.6
762.18	1089.18
762.364	1107.61
762.547	1033.88
762.731	1023.64
762.914	1050.27
763.098	999.07
763.281	1068.7
763.464	1025.69
763.648	1017.5
763.831	1046.17
764.015	1021.6
764.198	1029.79
764.381	939.68
764.564	978.59
764.748	1046.17
764.931	1111.71
765.114	1072.79
765.297	1009.31
765.481	1040.03
765.664	1013.4
765.847	833.18
766.03	939.68
766.213	911
766.397	947.87
766.58	880.29
766.763	1074.84
766.946	923.29
767.129	956.06
767.312	931.48
767.495	911
767.678	892.57
767.861	939.68
768.044	857.76
768.227	962.2
768.41	939.68
768.593	874.14
768.776	984.73
768.959	933.53
769.142	847.52
769.324	857.76
769.507	949.92
769.69	861.85
769.873	892.57
770.056	894.62
770.239	812.7
770.421	927.39
770.604	847.52
770.787	915.1
770.97	960.16
771.152	802.46
771.335	917.15
771.518	841.37
771.7	943.77
771.883	872.09
772.066	743.07
772.248	882.33
772.431	861.85
772.613	798.37
772.796	771.74
772.978	855.71
773.161	722.59
773.343	761.5
773.526	816.8
773.708	710.3
773.891	755.36
774.073	824.99
774.256	751.26
774.438	892.57
774.621	681.63
774.803	804.51
774.985	779.93
775.168	804.51
775.35	745.12
775.532	827.04
775.715	767.65
775.897	784.03
776.079	679.58
776.261	734.88
776.444	722.59
776.626	786.08
776.808	609.95
776.99	706.21
777.173	698.02
777.355	714.4
777.537	628.39
777.719	683.68
777.901	730.78
778.083	628.39
778.265	573.09
778.447	648.86
778.629	587.43
778.811	616.1
778.993	614.05
779.175	644.77
779.357	562.85
779.539	636.58
779.721	657.06
779.903	657.06
780.085	671.39
780.267	612
780.449	605.86
780.631	595.62
780.812	636.58
780.994	624.29
781.176	566.95
781.358	503.46
781.54	673.44
781.721	620.19
781.903	624.29
782.085	550.56
782.267	493.22
782.448	485.03
782.63	519.84
782.812	489.12
782.993	509.6
783.175	521.89
783.357	564.9
783.538	544.42
783.72	489.12
783.901	515.75
784.083	452.26
784.264	509.6
784.446	392.87
784.627	480.93
784.809	577.19
784.99	444.07
785.172	489.12
785.353	454.31
785.535	499.36
785.716	366.25
785.897	444.07
786.079	407.2
786.26	366.25
786.441	423.59
786.623	456.36
786.804	442.02
786.985	431.78
787.167	413.35
787.348	384.68
787.529	472.74
787.71	458.4
787.891	413.35
788.073	362.15
788.254	374.44
788.435	362.15
788.616	439.97
788.797	376.48
788.978	325.29
789.159	358.05
789.34	360.1
789.522	319.14
789.703	353.96
789.884	380.58
790.065	401.06
790.246	429.73
790.427	364.2
790.607	460.45
790.788	409.25
790.969	415.4
791.15	345.77
791.331	384.68
791.512	302.76
791.693	304.81
791.874	374.44
792.054	368.29
792.235	325.29
792.416	319.14
792.597	368.29
792.778	263.85
792.958	290.47
793.139	284.33
793.32	226.98
793.5	325.29
793.681	302.76
793.862	313
794.042	317.09
794.223	292.52
794.404	245.41
794.584	239.27
794.765	310.95
794.945	351.91
795.126	333.48
795.306	269.99
795.487	358.05
795.667	235.18
795.848	345.77
796.028	278.18
796.209	267.94
796.389	374.44
796.57	300.71
796.75	269.99
796.93	226.98
797.111	233.13
797.291	290.47
797.471	251.56
797.652	218.79
797.832	255.65
798.012	345.77
798.192	296.61
798.373	218.79
798.553	251.56
798.733	206.5
798.913	231.08
799.093	226.98
799.274	231.08
799.454	315.05
799.634	226.98
799.814	280.23
799.994	259.75
800.174	368.29
800.354	210.6
800.534	218.79
800.714	237.22
800.894	237.22
801.074	171.69
801.254	259.75
801.434	210.6
801.614	196.26
801.794	186.02
801.974	900.76
802.154	198.31
802.334	190.12
802.514	259.75
802.693	206.5
802.873	140.97
803.053	204.46
803.233	235.18
803.413	200.36
803.592	186.02
803.772	269.99
803.952	169.64
804.131	155.3
804.311	147.11
804.491	179.88
804.67	165.54
804.85	243.37
805.03	253.61
805.209	212.65
805.389	245.41
805.568	276.13
805.748	239.27
805.928	167.59
806.107	224.94
806.287	171.69
806.466	257.7
806.646	210.6
806.825	136.87
807.004	210.6
807.184	210.6
807.363	284.33
807.543	177.83
807.722	155.3
807.901	237.22
808.081	204.46
808.26	159.4
808.439	188.07
808.619	104.11
808.798	149.16
808.977	255.65
809.156	186.02
809.336	220.84
809.515	214.7
809.694	130.73
809.873	173.74
810.052	179.88
810.231	186.02
810.411	206.5
810.59	269.99
810.769	179.88
810.948	229.03
811.127	198.31
811.306	169.64
811.485	104.11
811.664	163.5
811.843	202.41
812.022	75.43
812.201	220.84
812.38	122.54
812.559	145.06
812.737	188.07
812.916	147.11
813.095	194.22
813.274	155.3
813.453	100.01
813.632	161.45
813.811	190.12
813.989	173.74
814.168	106.15
814.347	79.53
814.526	153.26
814.704	226.98
814.883	114.34
815.062	83.63
815.24	181.93
815.419	32.43
815.598	140.97
815.776	118.44
815.955	132.78
816.133	136.87
816.312	210.6
816.49	79.53
816.669	79.53
816.847	140.97
817.026	79.53
817.204	140.97
817.383	89.77
817.561	153.26
817.74	120.49
817.918	102.06
818.097	190.12
818.275	91.82
818.453	73.39
818.632	165.54
818.81	48.81
818.988	138.92
819.167	46.76
819.345	145.06
819.523	91.82
819.701	198.31
819.879	153.26
820.058	100.01
820.236	196.26
820.414	48.81
820.592	120.49
820.77	112.3
820.948	153.26
821.127	100.01
821.305	100.01
821.483	38.57
821.661	231.08
821.839	136.87
822.017	34.47
822.195	89.77
822.373	126.63
822.551	153.26
822.729	147.11
822.907	140.97
823.085	149.16
823.262	89.77
823.44	171.69
823.618	65.19
823.796	147.11
823.974	169.64
824.152	130.73
824.329	81.58
824.507	79.53
824.685	65.19
824.863	132.78
825.04	67.24
825.218	149.16
825.396	124.58
825.574	136.87
825.751	46.76
825.929	87.72
826.107	42.67
826.284	122.54
826.462	54.95
826.639	67.24
826.817	155.3
826.994	155.3
827.172	93.87
827.349	89.77
827.527	89.77
827.704	63.15
827.882	83.63
828.059	112.3
828.237	79.53
828.414	59.05
828.591	63.15
828.769	112.3
828.946	106.15
829.124	112.3
829.301	83.63
829.478	163.5
829.655	140.97
829.833	104.11
830.01	79.53
830.187	130.73
830.364	71.34
830.542	77.48
830.719	149.16
830.896	40.62
831.073	34.47
831.25	104.11
831.427	114.34
831.604	114.34
831.782	38.57
831.959	40.62
832.136	-20.82
832.313	97.96
832.49	97.96
832.667	81.58
832.844	145.06
833.021	122.54
833.198	-6.49
833.374	-39.25
833.551	63.15
833.728	202.41
833.905	7.85
834.082	34.47
834.259	89.77
834.436	177.83
834.612	3.75
834.789	59.05
834.966	26.28
835.143	38.57
835.319	-45.4
835.496	108.2
835.673	102.06
835.85	46.76
836.026	122.54
836.203	69.29
836.38	57
836.556	-35.16
836.733	34.47
836.909	81.58
837.086	-45.4
837.262	24.23
837.439	81.58
837.616	26.28
837.792	-24.92
837.968	79.53
838.145	18.09
838.321	30.38
838.498	50.86
838.674	7.85
838.851	3.75
839.027	32.43
839.203	-55.64
839.38	87.72
839.556	97.96
839.732	138.92
839.909	138.92
840.085	67.24
840.261	67.24
840.437	89.77
840.614	30.38
840.79	22.19
840.966	26.28
841.142	77.48
841.318	71.34
841.494	71.34
841.671	57
841.847	22.19
842.023	-18.77
842.199	83.63
842.375	65.19
842.551	7.85
842.727	20.14
842.903	40.62
843.079	38.57
843.255	163.5
843.431	5.8
843.607	79.53
843.783	-10.58
843.959	79.53
844.134	18.09
844.31	83.63
844.486	13.99
844.662	83.63
844.838	83.63
845.013	104.11
845.189	77.48
845.365	122.54
845.541	106.15
845.716	87.72
845.892	22.19
846.068	5.8
846.244	91.82
846.419	3.75
846.595	7.85
846.77	7.85
846.946	57
847.122	13.99
847.297	87.72
847.473	83.63
847.648	7.85
847.824	71.34
847.999	-0.34
848.175	32.43
848.35	93.87
848.526	81.58
848.701	16.04
848.876	38.57
849.052	95.91
849.227	46.76
849.403	-35.16
849.578	95.91
849.753	24.23
849.929	95.91
850.104	28.33
850.279	81.58
850.454	1.71
850.63	93.87
850.805	79.53
850.98	16.04
851.155	34.47
851.33	-0.34
851.505	9.9
851.681	102.06
851.856	52.91
852.031	22.19
852.206	50.86
852.381	-10.58
852.556	26.28
852.731	50.86
852.906	59.05
853.081	22.19
853.256	-2.39
853.431	112.3
853.606	46.76
853.781	-10.58
853.956	63.15
854.131	22.19
854.305	63.15
854.48	-8.53
854.655	57
854.83	13.99
855.005	30.38
855.18	59.05
855.354	18.09
855.529	30.38
855.704	-10.58
855.879	57
856.053	32.43
856.228	46.76
856.403	-20.82
856.577	5.8
856.752	-63.83
856.926	-16.73
857.101	-45.4
857.276	48.81
857.45	42.67
857.625	112.3
857.799	48.81
857.974	7.85
858.148	57
858.323	61.1
858.497	-10.58
858.672	-2.39
858.846	-18.77
859.02	-53.59
859.195	7.85
859.369	7.85
859.543	-0.34
859.718	71.34
859.892	-31.06
860.066	20.14
860.241	-51.54
860.415	-59.73
860.589	20.14
860.763	34.47
860.938	-51.54
861.112	57
861.286	-4.44
861.46	-8.53
861.634	30.38
861.808	20.14
861.982	-31.06
862.157	48.81
862.331	-31.06
862.505	30.38
862.679	22.19
862.853	75.43
863.027	18.09
863.201	26.28
863.375	112.3
863.549	18.09
863.722	95.91
863.896	57
864.07	-4.44
864.244	59.05
864.418	81.58
864.592	34.47
864.766	-20.82
864.939	38.57
865.113	13.99
865.287	128.68
865.461	24.23
865.634	30.38
865.808	-57.68
865.982	32.43
866.156	30.38
866.329	-4.44
866.503	20.14
866.676	-10.58
866.85	5.8
867.024	11.95
867.197	9.9
867.371	73.39
867.544	46.76
867.718	63.15
867.891	-2.39
868.065	18.09
868.238	-6.49
868.412	65.19
868.585	7.85
868.759	-57.68
868.932	9.9
869.105	54.95
869.279	-41.3
869.452	-41.3
869.625	1.71
869.799	1.71
869.972	7.85
870.145	24.23
870.319	13.99
870.492	-18.77
870.665	-10.58
870.838	5.8
871.011	-72.02
871.185	16.04
871.358	57
871.531	48.81
871.704	-2.39
871.877	79.53
872.05	26.28
872.223	44.71
872.396	-59.73
872.569	-2.39
872.742	7.85
872.915	71.34
873.088	-35.16
873.261	-35.16
873.434	20.14
873.607	1.71
873.78	50.86
873.953	-26.96
874.126	-55.64
874.299	50.86
874.471	26.28
874.644	9.9
874.817	-2.39
874.99	11.95
875.163	-18.77
875.335	24.23
875.508	-10.58
875.681	-2.39
875.853	26.28
876.026	40.62
876.199	30.38
876.371	104.11
876.544	26.28
876.717	18.09
876.889	-63.83
877.062	22.19
877.234	1.71
877.407	16.04
877.579	100.01
877.752	54.95
877.924	42.67
878.097	-29.01
878.269	-0.34
878.442	71.34
878.614	42.67
878.786	-14.68
878.959	28.33
879.131	79.53
879.303	-10.58
879.476	-24.92
879.648	26.28
879.82	63.15
879.993	-29.01
880.165	79.53
880.337	22.19
880.509	28.33
880.681	-2.39
880.854	22.19
881.026	71.34
881.198	40.62
881.37	48.81
881.542	-6.49
881.714	-90.45
881.886	9.9
882.058	24.23
882.23	-29.01
882.402	-43.35
882.574	5.8
882.746	40.62
882.918	-2.39
883.09	-18.77
883.262	50.86
883.434	40.62
883.606	-35.16
883.778	-29.01
883.95	-2.39
884.122	-26.96
884.293	7.85
884.465	-10.58
884.637	24.23
884.809	-8.53
884.98	67.24
885.152	-8.53
885.324	-22.87
885.496	-26.96
885.667	26.28
885.839	-14.68
886.011	67.24
886.182	-10.58
886.354	57
886.525	61.1
886.697	34.47
886.869	-4.44
887.04	30.38
887.212	24.23
887.383	22.19
887.555	-110.93
887.726	-51.54
887.897	-31.06
888.069	-14.68
888.24	32.43
888.412	-0.34
888.583	24.23
888.754	-6.49
888.926	-45.4
889.097	-37.2
889.268	-41.3
889.44	22.19
889.611	-63.83
889.782	-26.96
889.953	-0.34
890.125	87.72
890.296	-35.16
890.467	5.8
890.638	-53.59
890.809	-29.01
890.98	-74.07
891.151	65.19
891.323	102.06
891.494	32.43
891.665	-31.06
891.836	-14.68
892.007	-20.82
892.178	16.04
892.349	13.99
892.52	-41.3
892.691	9.9
892.862	-10.58
893.032	-88.4
893.203	63.15
893.374	-12.63
893.545	-33.11
893.716	-10.58
893.887	-16.73
894.057	9.9
894.228	-88.4
894.399	36.52
894.57	-24.92
894.74	-33.11
894.911	5.8
895.082	-2.39
895.253	-2.39
895.423	3.75
895.594	1.71
895.764	3.75
895.935	-4.44
896.106	20.14
896.276	-45.4
896.447	65.19
896.617	32.43
896.788	30.38
896.958	-8.53
897.129	38.57
897.299	38.57
897.47	36.52
897.64	-35.16
897.81	54.95
897.981	104.11
898.151	-18.77
898.322	83.63
898.492	-14.68
898.662	5.8
898.832	-10.58
899.003	16.04
899.173	-22.87
899.343	-49.49
899.513	57
