Data from USB4F104151__261__14-46-02-080.txt Node

Date: Thu Mar 13 14:46:02 EDT 2025
User: louis
Spectrometer: USB4F10415
Trigger mode: 4
Integration Time (sec): 2.000000E-2
Scans to average: 1
Electric dark correction enabled: true
Nonlinearity correction enabled: false
Boxcar width: 0
XAxis mode: Wavelengths
Number of Pixels in Spectrum: 3648
>>>>>Begin Spectral Data<<<<<
178.204	-151.04
178.424	-151.04
178.644	-151.04
178.864	-85.5
179.084	-210.43
179.304	-32.26
179.524	-5.63
179.744	53.76
179.964	18.94
180.184	45.57
180.404	31.23
180.624	-5.63
180.844	6.66
181.064	-22.02
181.283	-22.02
181.503	-26.11
181.723	-42.5
181.943	-5.63
182.163	61.95
182.383	43.52
182.602	43.52
182.822	84.48
183.042	12.8
183.262	31.23
183.482	-58.88
183.701	10.75
183.921	88.57
184.141	-38.4
184.361	64
184.58	59.9
184.8	14.85
185.02	-13.82
185.239	115.2
185.459	-15.87
185.679	41.47
185.898	76.29
186.118	43.52
186.338	-13.82
186.557	-9.73
186.777	-50.69
186.997	53.76
187.216	59.9
187.436	100.86
187.655	43.52
187.875	39.42
188.095	-30.21
188.314	68.09
188.534	94.72
188.753	70.14
188.973	53.76
189.192	135.68
189.412	43.52
189.631	37.38
189.851	31.23
190.07	64
190.29	53.76
190.509	43.52
190.729	6.66
190.948	2.56
191.168	141.82
191.387	27.14
191.607	31.23
191.826	35.33
192.045	-1.54
192.265	43.52
192.484	-11.78
192.704	68.09
192.923	55.81
193.142	113.15
193.362	53.76
193.581	18.94
193.8	84.48
194.02	43.52
194.239	-65.02
194.458	25.09
194.678	-28.16
194.897	29.18
195.116	-44.54
195.335	31.23
195.555	68.09
195.774	27.14
195.993	45.57
196.212	-28.16
196.432	-13.82
196.651	6.66
196.87	12.8
197.089	82.43
197.308	-22.02
197.528	-40.45
197.747	-1.54
197.966	47.62
198.185	51.71
198.404	4.61
198.623	35.33
198.842	66.05
199.062	4.61
199.281	78.33
199.5	-5.63
199.719	45.57
199.938	49.66
200.157	115.2
200.376	104.96
200.595	59.9
200.814	-38.4
201.033	-19.97
201.252	29.18
201.471	47.62
201.69	135.68
201.909	80.38
202.128	90.62
202.347	20.99
202.566	-22.02
202.785	18.94
203.004	39.42
203.223	76.29
203.442	31.23
203.661	70.14
203.879	43.52
204.098	76.29
204.317	86.53
204.536	84.48
204.755	55.81
204.974	39.42
205.193	100.86
205.411	59.9
205.63	113.15
205.849	-19.97
206.068	10.75
206.287	64
206.505	64
206.724	20.99
206.943	39.42
207.162	18.94
207.381	35.33
207.599	25.09
207.818	100.86
208.037	35.33
208.255	-50.69
208.474	6.66
208.693	133.63
208.911	-17.92
209.13	18.94
209.349	35.33
209.567	86.53
209.786	35.33
210.005	33.28
210.223	23.04
210.442	10.75
210.661	68.09
210.879	29.18
211.098	33.28
211.316	-5.63
211.535	6.66
211.753	49.66
211.972	35.33
212.191	-34.3
212.409	35.33
212.628	31.23
212.846	51.71
213.065	31.23
213.283	45.57
213.502	-19.97
213.72	-13.82
213.938	68.09
214.157	2.56
214.375	-38.4
214.594	68.09
214.812	61.95
215.031	14.85
215.249	4.61
215.467	55.81
215.686	29.18
215.904	16.9
216.122	2.56
216.341	-13.82
216.559	31.23
216.778	53.76
216.996	55.81
217.214	51.71
217.432	45.57
217.651	31.23
217.869	29.18
218.087	-9.73
218.306	16.9
218.524	86.53
218.742	4.61
218.96	72.19
219.179	18.94
219.397	68.09
219.615	64
219.833	51.71
220.051	-5.63
220.27	86.53
220.488	53.76
220.706	-19.97
220.924	37.38
221.142	29.18
221.36	10.75
221.578	45.57
221.796	49.66
222.015	-1.54
222.233	-13.82
222.451	111.1
222.669	-54.78
222.887	129.53
223.105	-28.16
223.323	51.71
223.541	-36.35
223.759	84.48
223.977	27.14
224.195	39.42
224.413	35.33
224.631	86.53
224.849	-3.58
225.067	37.38
225.285	35.33
225.503	39.42
225.721	-30.21
225.939	78.33
226.157	68.09
226.375	109.05
226.592	-54.78
226.81	-52.74
227.028	-15.87
227.246	86.53
227.464	20.99
227.682	72.19
227.9	-9.73
228.117	43.52
228.335	41.47
228.553	49.66
228.771	88.57
228.989	43.52
229.206	18.94
229.424	45.57
229.642	-1.54
229.86	37.38
230.077	35.33
230.295	14.85
230.513	-5.63
230.731	27.14
230.948	31.23
231.166	-13.82
231.384	55.81
231.601	20.99
231.819	35.33
232.037	47.62
232.254	-26.11
232.472	59.9
232.689	14.85
232.907	88.57
233.125	27.14
233.342	39.42
233.56	27.14
233.777	-22.02
233.995	31.23
234.213	-5.63
234.43	2.56
234.648	-38.4
234.865	74.24
235.083	37.38
235.3	-13.82
235.518	29.18
235.735	86.53
235.953	27.14
236.17	18.94
236.388	53.76
236.605	-22.02
236.822	29.18
237.04	35.33
237.257	64
237.475	10.75
237.692	74.24
237.909	70.14
238.127	35.33
238.344	64
238.562	51.71
238.779	-7.68
238.996	59.9
239.214	27.14
239.431	84.48
239.648	6.66
239.865	2.56
240.083	0.51
240.3	43.52
240.517	27.14
240.735	-13.82
240.952	68.09
241.169	-19.97
241.386	-17.92
241.603	23.04
241.821	-85.5
242.038	82.43
242.255	74.24
242.472	20.99
242.689	10.75
242.907	37.38
243.124	-5.63
243.341	8.7
243.558	51.71
243.775	-22.02
243.992	-26.11
244.209	109.05
244.426	100.86
244.643	147.97
244.86	2.56
245.078	55.81
245.295	27.14
245.512	84.48
245.729	31.23
245.946	18.94
246.163	27.14
246.38	27.14
246.597	80.38
246.814	59.9
247.031	37.38
247.248	-22.02
247.464	53.76
247.681	37.38
247.898	14.85
248.115	84.48
248.332	10.75
248.549	84.48
248.766	68.09
248.983	2.56
249.2	23.04
249.417	43.52
249.633	12.8
249.85	51.71
250.067	14.85
250.284	4.61
250.501	57.86
250.717	47.62
250.934	39.42
251.151	-17.92
251.368	29.18
251.585	72.19
251.801	47.62
252.018	14.85
252.235	37.38
252.451	57.86
252.668	14.85
252.885	37.38
253.102	59.9
253.318	35.33
253.535	-9.73
253.752	-69.12
253.968	59.9
254.185	88.57
254.401	31.23
254.618	45.57
254.835	-11.78
255.051	61.95
255.268	41.47
255.484	16.9
255.701	-79.36
255.917	35.33
256.134	10.75
256.351	27.14
256.567	59.9
256.784	109.05
257	23.04
257.217	68.09
257.433	2.56
257.65	35.33
257.866	64
258.082	-13.82
258.299	20.99
258.515	33.28
258.732	20.99
258.948	35.33
259.165	78.33
259.381	10.75
259.597	107.01
259.814	14.85
260.03	10.75
260.246	27.14
260.463	12.8
260.679	125.44
260.895	-13.82
261.112	53.76
261.328	20.99
261.544	43.52
261.761	86.53
261.977	4.61
262.193	-19.97
262.409	94.72
262.626	47.62
262.842	35.33
263.058	43.52
263.274	76.29
263.49	84.48
263.707	59.9
263.923	37.38
264.139	-5.63
264.355	55.81
264.571	72.19
264.787	43.52
265.004	107.01
265.22	109.05
265.436	-22.02
265.652	-11.78
265.868	37.38
266.084	-5.63
266.3	84.48
266.516	14.85
266.732	76.29
266.948	18.94
267.164	27.14
267.38	14.85
267.596	78.33
267.812	131.58
268.028	18.94
268.244	10.75
268.46	92.67
268.676	12.8
268.892	31.23
269.108	43.52
269.324	6.66
269.54	35.33
269.756	14.85
269.972	-22.02
270.188	12.8
270.403	35.33
270.619	109.05
270.835	43.52
271.051	61.95
271.267	-9.73
271.483	76.29
271.698	53.76
271.914	6.66
272.13	-71.17
272.346	41.47
272.562	-28.16
272.777	68.09
272.993	20.99
273.209	-15.87
273.425	10.75
273.64	-13.82
273.856	33.28
274.072	-34.3
274.287	61.95
274.503	78.33
274.719	51.71
274.934	55.81
275.15	-26.11
275.366	18.94
275.581	33.28
275.797	80.38
276.012	20.99
276.228	51.71
276.444	-22.02
276.659	135.68
276.875	2.56
277.09	59.9
277.306	18.94
277.521	68.09
277.737	96.77
277.952	92.67
278.168	57.86
278.383	27.14
278.599	64
278.814	45.57
279.03	39.42
279.245	53.76
279.461	53.76
279.676	102.91
279.892	-30.21
280.107	29.18
280.322	20.99
280.538	43.52
280.753	51.71
280.969	37.38
281.184	10.75
281.399	43.52
281.615	53.76
281.83	-5.63
282.045	35.33
282.26	98.81
282.476	53.76
282.691	80.38
282.906	-3.58
283.122	-5.63
283.337	31.23
283.552	35.33
283.767	61.95
283.983	45.57
284.198	84.48
284.413	64
284.628	14.85
284.843	43.52
285.058	55.81
285.274	31.23
285.489	-26.11
285.704	39.42
285.919	10.75
286.134	45.57
286.349	43.52
286.564	86.53
286.779	47.62
286.995	6.66
287.21	-3.58
287.425	43.52
287.64	31.23
287.855	113.15
288.07	12.8
288.285	27.14
288.5	43.52
288.715	76.29
288.93	-24.06
289.145	43.52
289.36	47.62
289.575	37.38
289.79	45.57
290.004	37.38
290.219	117.25
290.434	-19.97
290.649	-7.68
290.864	35.33
291.079	20.99
291.294	61.95
291.509	-11.78
291.724	88.57
291.938	12.8
292.153	29.18
292.368	70.14
292.583	64
292.798	117.25
293.012	90.62
293.227	2.56
293.442	57.86
293.657	141.82
293.871	6.66
294.086	88.57
294.301	88.57
294.516	12.8
294.73	49.66
294.945	-40.45
295.16	35.33
295.374	-13.82
295.589	-13.82
295.804	10.75
296.018	29.18
296.233	88.57
296.447	59.9
296.662	43.52
296.877	51.71
297.091	8.7
297.306	-5.63
297.52	37.38
297.735	39.42
297.949	43.52
298.164	6.66
298.378	-22.02
298.593	31.23
298.807	66.05
299.022	121.34
299.236	84.48
299.451	10.75
299.665	20.99
299.88	102.91
300.094	45.57
300.309	51.71
300.523	45.57
300.737	47.62
300.952	-36.35
301.166	64
301.381	20.99
301.595	55.81
301.809	86.53
302.024	35.33
302.238	45.57
302.452	41.47
302.667	88.57
302.881	27.14
303.095	51.71
303.309	18.94
303.524	-13.82
303.738	59.9
303.952	6.66
304.166	84.48
304.381	53.76
304.595	61.95
304.809	53.76
305.023	45.57
305.237	20.99
305.452	14.85
305.666	100.86
305.88	59.9
306.094	117.25
306.308	59.9
306.522	41.47
306.736	-1.54
306.95	84.48
307.164	27.14
307.379	59.9
307.593	111.1
307.807	14.85
308.021	86.53
308.235	80.38
308.449	-13.82
308.663	107.01
308.877	31.23
309.091	-54.78
309.305	88.57
309.519	23.04
309.733	76.29
309.947	6.66
310.161	131.58
310.374	152.06
310.588	51.71
310.802	47.62
311.016	2.56
311.23	-5.63
311.444	43.52
311.658	55.81
311.872	39.42
312.085	57.86
312.299	76.29
312.513	92.67
312.727	127.49
312.941	-83.45
313.154	94.72
313.368	72.19
313.582	68.09
313.796	-19.97
314.009	41.47
314.223	72.19
314.437	31.23
314.651	131.58
314.864	47.62
315.078	18.94
315.292	31.23
315.505	47.62
315.719	82.43
315.933	115.2
316.146	72.19
316.36	16.9
316.573	94.72
316.787	35.33
317.001	88.57
317.214	41.47
317.428	0.51
317.641	27.14
317.855	59.9
318.068	53.76
318.282	-5.63
318.495	84.48
318.709	23.04
318.922	31.23
319.136	121.34
319.349	100.86
319.563	86.53
319.776	-3.58
319.99	27.14
320.203	35.33
320.417	31.23
320.63	29.18
320.843	96.77
321.057	55.81
321.27	109.05
321.483	27.14
321.697	76.29
321.91	-3.58
322.124	72.19
322.337	-17.92
322.55	23.04
322.763	-30.21
322.977	76.29
323.19	39.42
323.403	76.29
323.617	121.34
323.83	147.97
324.043	76.29
324.256	131.58
324.469	2.56
324.683	117.25
324.896	10.75
325.109	55.81
325.322	-3.58
325.535	27.14
325.748	70.14
325.962	8.7
326.175	31.23
326.388	100.86
326.601	6.66
326.814	45.57
327.027	14.85
327.24	143.87
327.453	-46.59
327.666	-5.63
327.879	10.75
328.092	-1.54
328.305	27.14
328.518	35.33
328.731	43.52
328.944	18.94
329.157	12.8
329.37	88.57
329.583	27.14
329.796	35.33
330.009	45.57
330.222	-34.3
330.435	82.43
330.648	18.94
330.861	39.42
331.073	86.53
331.286	76.29
331.499	100.86
331.712	72.19
331.925	-9.73
332.138	53.76
332.35	10.75
332.563	-9.73
332.776	41.47
332.989	2.56
333.202	55.81
333.414	74.24
333.627	-11.78
333.84	20.99
334.053	-26.11
334.265	51.71
334.478	84.48
334.691	20.99
334.903	10.75
335.116	29.18
335.329	4.61
335.541	2.56
335.754	78.33
335.966	51.71
336.179	39.42
336.392	-26.11
336.604	43.52
336.817	119.29
337.029	78.33
337.242	31.23
337.454	90.62
337.667	86.53
337.88	100.86
338.092	27.14
338.305	33.28
338.517	20.99
338.729	86.53
338.942	84.48
339.154	70.14
339.367	0.51
339.579	84.48
339.792	18.94
340.004	-5.63
340.217	84.48
340.429	12.8
340.641	-5.63
340.854	-22.02
341.066	0.51
341.278	27.14
341.491	53.76
341.703	27.14
341.915	-26.11
342.128	150.01
342.34	16.9
342.552	14.85
342.764	2.56
342.977	109.05
343.189	35.33
343.401	59.9
343.613	12.8
343.826	37.38
344.038	141.82
344.25	129.53
344.462	53.76
344.674	-5.63
344.886	100.86
345.099	84.48
345.311	-24.06
345.523	43.52
345.735	-28.16
345.947	125.44
346.159	72.19
346.371	100.86
346.583	55.81
346.795	18.94
347.007	92.67
347.219	76.29
347.431	-7.68
347.643	59.9
347.855	55.81
348.067	64
348.279	10.75
348.491	61.95
348.703	-7.68
348.915	39.42
349.127	51.71
349.339	27.14
349.551	61.95
349.763	135.68
349.975	55.81
350.187	102.91
350.399	8.7
350.61	47.62
350.822	47.62
351.034	68.09
351.246	-28.16
351.458	6.66
351.669	102.91
351.881	96.77
352.093	76.29
352.305	59.9
352.517	68.09
352.728	125.44
352.94	84.48
353.152	137.73
353.363	2.56
353.575	10.75
353.787	68.09
353.999	92.67
354.21	88.57
354.422	29.18
354.633	-5.63
354.845	59.9
355.057	59.9
355.268	84.48
355.48	61.95
355.692	18.94
355.903	64
356.115	27.14
356.326	10.75
356.538	135.68
356.749	92.67
356.961	37.38
357.172	12.8
357.384	-1.54
357.595	150.01
357.807	102.91
358.018	80.38
358.23	100.86
358.441	119.29
358.653	59.9
358.864	-13.82
359.075	47.62
359.287	41.47
359.498	92.67
359.709	111.1
359.921	37.38
360.132	18.94
360.344	70.14
360.555	113.15
360.766	53.76
360.977	64
361.189	45.57
361.4	51.71
361.611	109.05
361.823	41.47
362.034	35.33
362.245	43.52
362.456	49.66
362.667	113.15
362.879	59.9
363.09	68.09
363.301	45.57
363.512	-1.54
363.723	6.66
363.935	25.09
364.146	72.19
364.357	66.05
364.568	27.14
364.779	29.18
364.99	162.3
365.201	-19.97
365.412	137.73
365.623	59.9
365.834	-5.63
366.045	37.38
366.256	115.2
366.467	-9.73
366.678	84.48
366.889	37.38
367.1	10.75
367.311	35.33
367.522	37.38
367.733	104.96
367.944	47.62
368.155	12.8
368.366	59.9
368.577	119.29
368.788	14.85
368.999	-71.17
369.209	-46.59
369.42	119.29
369.631	111.1
369.842	64
370.053	35.33
370.264	35.33
370.474	96.77
370.685	31.23
370.896	35.33
371.107	-22.02
371.317	61.95
371.528	129.53
371.739	102.91
371.95	68.09
372.16	27.14
372.371	76.29
372.582	20.99
372.792	53.76
373.003	45.57
373.214	39.42
373.424	12.8
373.635	18.94
373.846	25.09
374.056	82.43
374.267	37.38
374.477	-54.78
374.688	68.09
374.898	37.38
375.109	76.29
375.319	68.09
375.53	119.29
375.74	29.18
375.951	39.42
376.161	51.71
376.372	-26.11
376.582	35.33
376.793	86.53
377.003	18.94
377.214	-1.54
377.424	47.62
377.635	59.9
377.845	20.99
378.055	68.09
378.266	45.57
378.476	12.8
378.686	135.68
378.897	23.04
379.107	2.56
379.317	68.09
379.528	49.66
379.738	98.81
379.948	12.8
380.158	43.52
380.369	76.29
380.579	39.42
380.789	76.29
380.999	92.67
381.21	43.52
381.42	141.82
381.63	0.51
381.84	59.9
382.05	-5.63
382.261	113.15
382.471	61.95
382.681	76.29
382.891	117.25
383.101	76.29
383.311	39.42
383.521	18.94
383.731	82.43
383.941	80.38
384.151	12.8
384.361	14.85
384.571	29.18
384.781	51.71
384.991	121.34
385.201	156.16
385.411	78.33
385.621	72.19
385.831	139.77
386.041	51.71
386.251	104.96
386.461	94.72
386.671	8.7
386.881	55.81
387.091	18.94
387.301	109.05
387.511	51.71
387.72	104.96
387.93	76.29
388.14	6.66
388.35	72.19
388.56	104.96
388.769	-5.63
388.979	117.25
389.189	27.14
389.399	123.39
389.609	51.71
389.818	115.2
390.028	84.48
390.238	37.38
390.447	23.04
390.657	20.99
390.867	84.48
391.076	90.62
391.286	111.1
391.496	109.05
391.705	12.8
391.915	121.34
392.125	29.18
392.334	55.81
392.544	127.49
392.753	78.33
392.963	16.9
393.172	104.96
393.382	84.48
393.591	107.01
393.801	18.94
394.01	94.72
394.22	96.77
394.429	162.3
394.639	45.57
394.848	76.29
395.058	61.95
395.267	117.25
395.477	68.09
395.686	92.67
395.895	100.86
396.105	174.59
396.314	100.86
396.524	-5.63
396.733	156.16
396.942	160.25
397.152	131.58
397.361	92.67
397.57	121.34
397.78	166.4
397.989	129.53
398.198	119.29
398.407	92.67
398.617	61.95
398.826	104.96
399.035	117.25
399.244	129.53
399.453	102.91
399.663	135.68
399.872	64
400.081	92.67
400.29	158.21
400.499	102.91
400.708	125.44
400.917	102.91
401.127	76.29
401.336	102.91
401.545	72.19
401.754	131.58
401.963	111.1
402.172	94.72
402.381	86.53
402.59	143.87
402.799	117.25
403.008	190.97
403.217	143.87
403.426	109.05
403.635	209.4
403.844	166.4
404.053	158.21
404.262	137.73
404.471	162.3
404.68	168.45
404.888	182.78
405.097	168.45
405.306	137.73
405.515	143.87
405.724	154.11
405.933	154.11
406.142	113.15
406.35	186.88
406.559	219.64
406.768	250.36
406.977	248.32
407.185	174.59
407.394	203.26
407.603	207.36
407.812	207.36
408.02	281.08
408.229	297.47
408.438	281.08
408.646	258.56
408.855	258.56
409.064	256.51
409.272	264.7
409.481	285.18
409.69	250.36
409.898	350.71
410.107	371.19
410.315	375.29
410.524	270.84
410.733	342.52
410.941	367.1
411.15	365.05
411.358	397.82
411.567	395.77
411.775	455.16
411.984	455.16
412.192	350.71
412.401	514.55
412.609	446.97
412.818	461.3
413.026	485.88
413.234	578.04
413.443	522.74
413.651	537.08
413.86	575.99
414.068	625.14
414.276	639.48
414.485	614.9
414.693	715.25
414.901	670.2
415.11	692.73
415.318	653.81
415.526	797.17
415.734	807.41
415.943	741.88
416.151	750.07
416.359	840.18
416.567	819.7
416.776	870.9
416.984	932.34
417.192	922.1
417.4	963.06
417.608	993.78
417.817	975.35
418.025	1079.79
418.233	1061.36
418.441	1063.41
418.649	1087.98
418.857	1219.05
419.065	1356.27
419.273	1186.29
419.481	1292.78
419.689	1446.38
419.897	1415.66
420.105	1434.09
420.313	1460.71
420.521	1591.78
420.729	1647.08
420.937	1608.17
421.145	1743.33
421.353	1894.88
421.561	1831.4
421.769	1948.13
421.977	2025.95
422.185	1925.6
422.393	2128.35
422.601	2222.56
422.809	2197.98
423.017	2298.33
423.224	2337.24
423.432	2451.93
423.64	2363.87
423.848	2798.04
424.056	2585.05
424.263	2742.74
424.471	2980.31
424.679	2882
424.887	2968.02
425.094	3123.66
425.302	3107.28
425.51	3328.46
425.718	3355.08
425.925	3369.42
426.133	3594.7
426.341	3811.78
426.548	3740.1
426.756	3873.22
426.964	3908.04
427.171	4090.31
427.379	4188.61
427.586	4336.06
427.794	4430.27
428.001	4635.07
428.209	4772.28
428.417	4921.78
428.624	5102
428.832	5077.43
429.039	5181.87
429.247	5163.44
429.454	5519.79
429.662	5933.48
429.869	5564.84
430.076	6117.79
430.284	6009.25
430.491	6246.82
430.699	6386.08
430.906	6558.11
431.114	6517.15
431.321	6826.39
431.528	6853.02
431.736	7203.22
431.943	7532.94
432.15	7346.58
432.358	7557.52
432.565	7770.51
432.772	7868.81
432.979	8280.45
433.187	8472.96
433.394	8366.46
433.601	9030.01
433.808	9195.89
434.016	8960.38
434.223	9376.11
434.43	9830.76
434.637	9752.94
434.844	10334.56
435.052	10715.48
435.259	10432.86
435.466	10725.72
435.673	10176.87
435.88	11176.28
436.087	11809.1
436.294	11684.17
436.501	11383.12
436.708	11635.02
436.915	12042.57
437.122	12542.27
437.329	12429.63
437.537	13048.12
437.743	13132.09
437.95	13054.26
438.157	14068.01
438.364	14092.58
438.571	14262.57
438.778	14348.58
438.985	15587.6
439.192	15218.97
439.399	15601.94
439.606	15126.81
439.813	16128.27
440.02	17033.47
440.227	16746.75
440.433	16265.48
440.64	17041.66
440.847	16740.61
441.054	17654
441.261	18460.9
441.467	18444.52
441.674	18407.66
441.881	19333.34
442.088	19396.82
442.294	19173.6
442.501	19626.2
442.708	19859.66
442.914	20674.76
443.121	21930.16
443.328	21256.38
443.534	22696.1
443.741	21764.28
443.948	21616.82
444.154	23095.46
444.361	23163.04
444.568	23419.03
444.774	23691.41
444.981	23847.06
445.187	24256.65
445.394	25219.2
445.6	25038.98
445.807	27394.14
446.013	26263.66
446.22	27013.22
446.426	28133.46
446.633	28287.06
446.839	29331.52
447.046	28045.4
447.252	29749.31
447.459	29526.08
447.665	29204.55
447.871	30756.91
448.078	32145.43
448.284	30588.97
448.491	31475.74
448.697	32364.56
448.903	33480.71
449.11	33378.31
449.316	32997.38
449.522	33478.66
449.728	34463.73
449.935	34635.76
450.141	34910.19
450.347	35500
450.553	34349.04
450.76	34834.41
450.966	36470.74
451.172	35811.29
451.378	36902.86
451.584	36192.22
451.791	36986.83
451.997	36741.07
452.203	37509.06
452.409	37496.77
452.615	37451.72
452.821	35940.32
453.027	35786.72
453.233	37853.12
453.44	35991.51
453.646	36698.06
453.852	36757.46
454.058	37269.45
454.264	36165.59
454.47	37140.43
454.676	35819.49
454.882	37312.45
455.088	34467.83
455.294	35071.98
455.5	35504.1
455.705	35588.06
455.911	34580.46
456.117	33701.89
456.323	33503.23
456.529	31889.43
456.735	33304.58
456.941	32266.26
457.147	31807.51
457.352	30818.35
457.558	30728.24
457.764	30332.98
457.97	30175.28
458.176	29599.8
458.381	29333.57
458.587	28090.45
458.793	28057.68
458.999	26959.97
459.204	28366.93
459.41	27820.12
459.616	26116.21
459.821	25892.98
460.027	26138.74
460.233	25421.95
460.438	24438.92
460.644	24782.98
460.85	23533.72
461.055	23185.57
461.261	23052.45
461.466	21330.11
461.672	20648.13
461.878	22087.85
462.083	20646.08
462.289	20347.08
462.494	20480.2
462.7	19167.45
462.905	18694.37
463.111	19595.48
463.316	19712.21
463.522	18985.18
463.727	19204.31
463.932	19054.81
464.138	18997.47
464.343	19116.25
464.549	18540.77
464.754	18983.13
464.959	19065.05
465.165	18710.75
465.37	17998.06
465.575	17543.41
465.781	18499.81
465.986	18344.17
466.191	17649.91
466.397	17400.05
466.602	16341.25
466.807	17303.8
467.012	17096.96
467.218	17320.18
467.423	16918.78
467.628	17037.56
467.833	17576.18
468.038	16920.83
468.244	16744.7
468.449	17414.39
468.654	16779.52
468.859	16490.76
469.064	16595.2
469.269	16015.63
469.474	15986.96
469.679	16357.64
469.885	15864.08
470.09	16079.11
470.295	16005.39
470.5	15585.55
470.705	15483.16
470.91	15530.26
471.115	15044.89
471.32	15376.66
471.525	15407.38
471.73	15044.89
471.935	14864.67
472.139	14539.04
472.344	14741.79
472.549	14276.9
472.754	14655.78
472.959	14229.8
473.164	13711.66
473.369	13789.49
473.574	14027.05
473.778	14055.72
473.983	13836.59
474.188	13750.57
474.393	13150.52
474.598	13185.33
474.802	13064.5
475.007	13175.09
475.212	13504.82
475.417	12628.29
475.621	12667.2
475.826	12650.81
476.031	12462.4
476.235	12030.28
476.44	12446.02
476.645	12147.01
476.849	12398.91
477.054	11723.09
477.259	11702.61
477.463	11784.52
477.668	11604.3
477.872	11663.69
478.077	11430.23
478.282	11034.97
478.486	11166.04
478.691	11020.63
478.895	11012.44
479.1	11082.07
479.304	11022.68
479.509	10754.4
479.713	10547.55
479.918	10658.14
480.122	10326.37
480.326	10602.85
480.531	10713.44
480.735	10512.74
480.94	10598.75
481.144	10824.03
481.348	10260.84
481.553	10459.49
481.757	10269.03
481.961	10400.1
482.166	10377.57
482.37	10420.58
482.574	10381.67
482.778	10166.63
482.983	10381.67
483.187	10154.34
483.391	10305.89
483.595	10346.85
483.8	10193.25
484.004	10113.38
484.208	10307.94
484.412	10195.3
484.616	10252.64
484.821	10154.34
485.025	10269.03
485.229	10330.47
485.433	10097
485.637	10258.79
485.841	10385.76
486.045	10103.14
486.249	10174.82
486.453	10226.02
486.657	10189.16
486.861	10185.06
487.065	9949.54
487.269	10291.55
487.473	9881.96
487.677	10262.88
487.881	10309.99
488.085	10262.88
488.289	10144.1
488.493	10279.27
488.697	10350.95
488.901	10365.28
489.105	10406.24
489.309	10668.38
489.512	10406.24
489.716	10520.93
489.92	10498.4
490.124	10387.81
490.328	10662.24
490.531	10598.75
490.735	10557.79
490.939	10758.49
491.143	10807.64
491.346	10758.49
491.55	10785.12
491.754	10783.07
491.958	11039.06
492.161	10899.8
492.365	11090.26
492.569	10885.47
492.772	10959.19
492.976	11170.13
493.18	11241.81
493.383	11270.48
493.587	11438.42
493.79	11370.83
493.994	11372.88
494.197	11694.41
494.401	11866.44
494.605	11608.4
494.808	11960.65
495.012	11934.03
495.215	11809.1
495.419	12020.04
495.622	11983.18
495.825	12306.76
496.029	12261.7
496.232	12683.58
496.436	12413.25
496.639	12740.93
496.843	12853.56
497.046	13060.41
497.249	13068.6
497.453	13158.71
497.656	13349.17
497.859	13429.04
498.063	13566.26
498.266	13625.65
498.469	13855.02
498.673	14190.89
498.876	14199.08
499.079	14563.62
499.282	14438.69
499.485	15005.98
499.689	14965.02
499.892	14958.88
500.095	15046.94
500.298	15569.17
500.501	15431.96
500.705	15976.72
500.908	15882.51
501.111	16333.06
501.314	16431.37
501.517	16423.17
501.72	16746.75
501.923	16685.31
502.126	16912.64
502.329	17541.36
502.532	17522.93
502.735	17649.91
502.938	18057.45
503.141	18088.17
503.344	18290.92
503.547	18571.49
503.75	18786.53
503.953	19101.92
504.156	19095.77
504.359	19192.03
504.562	19558.61
504.765	20359.37
504.968	20439.24
505.17	20111.57
505.373	20601.03
505.576	20850.88
505.779	21244.09
505.982	21321.91
506.185	22007.98
506.387	21948.59
506.59	21932.21
506.793	22692.01
506.996	22624.42
507.198	23416.99
507.401	22919.33
507.604	23279.77
507.807	24088.72
508.009	24205.45
508.212	24154.26
508.415	24643.72
508.617	25098.37
508.82	24922.24
509.022	25227.39
509.225	25770.1
509.428	25995.38
509.63	26515.56
509.833	26351.73
510.035	26976.36
510.238	26966.12
510.44	27431.01
510.643	27580.51
510.845	27940.95
511.048	27699.29
511.25	28428.37
511.453	28618.83
511.655	29612.09
511.858	29298.75
512.06	29530.17
512.262	29782.07
512.465	30154.8
512.667	30736.43
512.87	30922.79
513.072	30804.01
513.274	31629.34
513.477	31770.65
513.679	32043.03
513.881	32356.37
514.084	33138.69
514.286	32933.9
514.488	33462.27
514.69	34195.45
514.893	34338.8
515.095	34611.18
515.297	34748.4
515.499	34680.81
515.701	35301.35
515.904	35491.81
516.106	35762.14
516.308	36536.27
516.51	36968.4
516.712	36906.96
516.914	37201.86
517.116	37914.56
517.318	38156.22
517.52	38621.11
517.722	38608.82
517.925	39206.83
518.127	39618.47
518.329	40042.4
518.531	39565.22
518.733	40335.26
518.935	41101.2
519.136	41181.07
519.338	41256.84
519.54	41566.09
519.742	42162.04
519.944	42170.24
520.146	43040.62
520.348	43255.66
520.55	43472.74
520.752	43638.63
520.954	44328.8
521.155	44121.95
521.357	44978
521.559	45092.69
521.761	45807.43
521.963	45545.29
522.164	45686.6
522.366	46460.73
522.568	46038.85
522.77	46559.03
522.971	47337.26
523.173	47148.85
523.375	47236.91
523.576	47693.61
523.778	47709.99
523.98	48037.67
524.181	48191.26
524.383	48537.37
524.584	48955.16
524.786	49235.73
524.988	48873.24
525.189	49927.94
525.391	50073.35
525.592	50134.79
525.794	50298.62
525.995	50132.74
526.197	50394.88
526.398	51035.89
526.6	51281.65
526.801	51066.61
527.003	51543.79
527.204	51850.98
527.406	52098.79
527.607	51726.06
527.808	52346.59
528.01	51328.75
528.211	51947.24
528.412	53208.79
528.614	52788.95
528.815	52977.37
529.016	53018.33
529.218	52770.52
529.419	53229.27
529.62	52950.74
529.822	52911.83
530.023	53386.96
530.224	53534.42
530.425	53395.15
530.626	53198.55
530.828	53216.98
531.029	54038.22
531.23	53591.76
531.431	53683.92
531.632	53874.38
531.833	54367.94
532.035	54109.89
532.236	54091.46
532.437	54834.88
532.638	54140.61
532.839	54228.68
533.04	54286.02
533.241	53958.34
533.442	54871.74
533.643	54232.77
533.844	54412.99
534.045	54875.83
534.246	53845.71
534.447	54959.8
534.648	54589.12
534.849	54916.79
535.05	54316.74
535.251	54509.25
535.451	54435.52
535.652	54779.58
535.853	54689.47
536.054	55213.75
536.255	54798.01
536.456	54206.15
536.657	55353.01
536.857	54591.17
537.058	54648.51
537.259	54548.16
537.46	55244.47
537.66	55064.25
537.861	55170.74
538.062	54474.43
538.263	55086.78
538.463	54529.73
538.664	54650.56
538.865	54613.69
539.065	55193.27
539.266	54298.31
539.466	55226.04
539.667	54236.87
539.868	55580.34
540.068	54714.05
540.269	54744.76
540.469	54675.13
540.67	54570.69
540.87	54705.85
541.071	54656.7
541.271	54697.66
541.472	54746.81
541.672	54955.71
541.873	54384.32
542.073	54263.49
542.274	54838.97
542.474	54326.98
542.675	54402.75
542.875	54802.11
543.075	54884.03
543.276	54187.72
543.476	55152.31
543.676	54542.02
543.877	55017.14
544.077	54619.84
544.277	54419.14
544.478	54689.47
544.678	54763.2
544.878	54791.87
545.078	54482.62
545.279	54615.74
545.479	54312.64
545.679	54539.97
545.879	54441.67
546.079	54488.77
546.28	54189.77
546.48	54181.57
546.68	54271.68
546.88	54316.74
547.08	54562.5
547.28	54326.98
547.48	54079.17
547.68	54462.14
547.88	54130.37
548.081	54501.06
548.281	54861.5
548.481	54277.83
548.681	54310.6
548.881	54390.47
549.081	54210.24
549.28	53771.98
549.48	54812.35
549.68	53999.3
549.88	54728.38
550.08	53886.67
550.28	54611.65
550.48	54032.07
550.68	54316.74
550.88	54238.92
551.08	54087.37
551.279	54499.01
551.479	53436.11
551.679	54603.45
551.879	53935.82
552.079	54343.36
552.278	54292.16
552.478	53776.08
552.678	54343.36
552.878	54568.64
553.077	53974.73
553.277	53853.9
553.477	54148.81
553.676	53716.68
553.876	54025.93
554.076	53700.3
554.275	53397.2
554.475	53206.74
554.674	54038.22
554.874	53532.37
555.074	53935.82
555.273	53706.44
555.473	54036.17
555.672	53346
555.872	53397.2
556.071	53720.78
556.271	53780.17
556.47	53716.68
556.67	53245.65
556.869	53413.58
557.068	53403.35
557.268	53362.39
557.467	53366.48
557.667	53003.99
557.866	53458.64
558.065	53100.25
558.265	52803.29
558.464	52754.14
558.663	53606.09
558.863	52739.8
559.062	53008.09
559.261	52952.79
559.461	53143.25
559.66	52262.63
559.859	52752.09
560.058	52475.62
560.258	52629.21
560.457	52172.52
560.656	52829.91
560.855	52563.68
561.054	52670.17
561.253	51758.83
561.453	52330.21
561.652	52428.51
561.851	52571.87
562.05	51971.81
562.249	51906.28
562.448	52338.4
562.647	52121.32
562.846	52305.63
563.045	52307.68
563.244	51713.77
563.443	51992.29
563.642	50978.55
563.841	51605.23
564.04	51222.26
564.239	52088.55
564.438	51496.69
564.637	51515.12
564.836	51484.4
565.035	50982.65
565.234	51314.42
565.432	50990.84
565.631	50759.42
565.83	51123.96
566.029	50724.6
566.228	50687.74
566.427	50622.2
566.625	50310.91
566.824	49780.49
567.023	50947.83
567.222	49717
567.42	50405.12
567.619	50149.12
567.818	50171.65
568.016	50272
568.215	50380.54
568.414	50020.1
568.612	50290.43
568.811	49790.73
569.01	49489.68
569.208	49282.83
569.407	50024.2
569.605	49102.61
569.804	49858.31
570.002	48758.55
570.201	49379.09
570.4	48791.32
570.598	48592.67
570.797	48357.15
570.995	48774.94
571.193	48668.44
571.392	48918.29
571.59	48371.49
571.789	48365.34
571.987	48221.98
572.186	48600.86
572.384	47804.2
572.582	48158.5
572.781	48541.47
572.979	47423.28
573.177	47830.82
573.376	47986.47
573.574	47279.92
573.772	47675.18
573.971	47126.32
574.169	47226.67
574.367	46716.73
574.565	46894.9
574.763	46948.15
574.962	46819.13
575.16	46225.21
575.358	46894.9
575.556	46092.1
575.754	46565.18
575.952	46284.61
576.151	46438.2
576.349	45952.83
576.547	46010.18
576.745	45877.06
576.943	45879.11
577.141	45565.77
577.339	45907.78
577.537	45291.34
577.735	45670.22
577.933	44896.08
578.131	45610.82
578.329	45129.55
578.527	44947.28
578.725	44410.71
578.923	44767.06
579.121	44449.63
579.319	44654.42
579.516	44971.86
579.714	44635.99
579.912	44064.61
580.11	43906.91
580.308	44253.02
580.506	43538.28
580.704	43372.39
580.901	43865.95
581.099	44037.98
581.297	43349.87
581.495	42995.57
581.692	43210.6
581.89	43114.35
582.088	43444.07
582.285	43245.42
582.483	43196.27
582.681	42893.17
582.878	42774.39
583.076	42418.04
583.274	42626.93
583.471	42450.81
583.669	42440.57
583.866	41983.87
584.064	42129.28
584.262	41955.2
584.459	41803.65
584.657	41652.1
584.854	42127.23
585.052	40867.73
585.249	41176.97
585.447	41625.48
585.644	40886.16
585.841	40968.08
586.039	41525.13
586.236	40693.65
586.434	40959.89
586.631	40669.08
586.828	41023.37
587.026	40630.16
587.223	40267.67
587.42	40230.81
587.618	40079.26
587.815	39962.53
588.012	39716.77
588.21	39700.39
588.407	40103.84
588.604	39505.83
588.801	39409.57
588.999	39145.39
589.196	39196.59
589.393	38932.4
589.59	38743.98
589.787	39075.76
589.984	38725.55
590.182	38551.48
590.379	39034.8
590.576	38494.13
590.773	38487.99
590.97	37658.56
591.167	38135.74
591.364	38019
591.561	38156.22
591.758	37361.61
591.955	37701.57
592.152	38012.86
592.349	37154.76
592.546	37959.61
592.743	37631.94
592.94	37306.31
593.137	37283.78
593.334	37078.99
593.531	36677.58
593.727	37052.36
593.924	36798.41
594.121	36126.68
594.318	36589.52
594.515	36143.06
594.712	36607.95
594.908	35921.88
595.105	36134.87
595.302	35727.33
595.499	35950.56
595.696	35760.09
595.892	35512.29
596.089	35590.11
596.286	35710.94
596.482	35299.3
596.679	35284.97
596.876	35397.6
597.072	35133.42
597.269	35100.65
597.466	34674.67
597.662	34945
597.859	35039.21
598.055	34852.84
598.252	34437.11
598.448	34410.48
598.645	34117.62
598.841	33742.85
599.038	33941.5
599.234	34179.06
599.431	34021.37
599.627	33591.3
599.824	33935.35
600.02	33521.66
600.217	33552.38
600.413	33390.59
600.609	33161.22
600.806	32933.9
601.002	33349.64
601.198	33009.67
601.395	32911.37
601.591	32948.23
601.787	32935.95
601.984	32641.04
602.18	32593.93
602.376	32376.85
602.572	31971.35
602.769	32180.24
602.965	31954.97
603.161	31813.66
603.357	31803.42
603.553	31655.96
603.75	32014.36
603.946	31432.74
604.142	31561.76
604.338	31371.3
604.534	31506.46
604.73	31025.19
604.926	31154.21
605.122	31344.67
605.318	30838.83
605.514	30720.04
605.71	30609.45
605.906	30881.83
606.102	30126.13
606.298	30337.07
606.494	30724.14
606.69	30634.03
606.886	30318.64
607.082	29968.44
607.278	30072.89
607.474	29671.48
607.67	30033.97
607.866	29417.54
608.062	30052.41
608.257	29724.73
608.453	29833.27
608.649	29784.12
608.845	29591.61
609.041	29284.42
609.236	29542.46
609.432	29444.16
609.628	29247.55
609.824	29040.71
610.019	28917.83
610.215	29020.23
610.411	29337.66
610.606	29022.28
610.802	28827.72
610.998	28749.9
611.193	28758.09
611.389	28721.23
611.584	28620.88
611.78	28407.89
611.976	28332.11
612.171	28721.23
612.367	28262.48
612.562	28106.84
612.758	27938.9
612.953	27893.85
613.149	28274.77
613.344	27879.51
613.539	28379.21
613.735	27959.38
613.93	27912.28
614.126	27533.4
614.321	27682.91
614.517	27658.33
614.712	27488.35
614.907	27637.85
615.103	27480.16
615.298	27412.57
615.493	27883.61
615.688	27091.04
615.884	27687
616.079	27115.62
616.274	27392.09
616.47	27224.16
616.665	27093.09
616.86	26904.68
617.055	26906.73
617.25	26888.29
617.445	27107.43
617.641	26421.36
617.836	26415.21
618.031	26423.4
618.226	26234.99
618.421	26335.34
618.616	26349.68
618.811	25792.63
619.006	26325.1
619.201	25718.9
619.396	25698.42
619.591	25391.23
619.786	25780.34
619.981	25397.37
620.176	25632.89
620.371	25049.22
620.566	25256.06
620.761	25028.74
620.956	24950.92
621.151	24809.61
621.346	24885.38
621.541	24461.45
621.735	24709.25
621.93	24307.85
622.125	24307.85
622.32	23586.97
622.515	24285.33
622.709	23916.69
622.904	23746.71
623.099	23443.61
623.294	23660.69
623.488	22952.1
623.683	23398.55
623.878	23019.68
624.072	23105.7
624.267	23079.07
624.462	22788.26
624.656	22425.77
624.851	22646.95
625.046	22393
625.24	22286.51
625.435	22163.63
625.629	22245.55
625.824	22055.09
626.018	21792.95
626.213	21483.7
626.407	21471.42
626.602	21467.32
626.796	21358.78
626.991	21301.43
627.185	21182.65
627.38	21336.25
627.574	21211.32
627.768	20596.93
627.963	20824.26
628.157	20553.93
628.352	20328.65
628.546	20080.85
628.74	20543.69
628.935	19974.35
629.129	20238.54
629.323	19857.62
629.517	19968.21
629.712	19538.13
629.906	19482.84
630.1	19429.59
630.294	19589.33
630.489	19343.58
630.683	19142.88
630.877	19112.16
631.071	18847.97
631.265	18964.7
631.459	19011.81
631.653	18649.32
631.848	18555.11
632.042	18440.42
632.236	18290.92
632.43	17875.18
632.624	18239.72
632.818	18116.84
633.012	17907.95
633.206	17602.8
633.4	17764.59
633.594	17787.12
633.788	17529.08
633.982	17574.13
634.176	17516.79
634.369	17348.86
634.563	17254.65
634.757	16988.41
634.951	17291.51
635.145	16939.26
635.339	16988.41
635.533	16828.67
635.726	16918.78
635.92	16496.9
636.114	16750.85
636.308	16337.16
636.501	16406.79
636.695	16154.89
636.889	16161.03
637.083	16046.35
637.276	16017.68
637.47	16046.35
637.664	15923.47
637.857	15896.85
638.051	15907.09
638.244	15722.77
638.438	15350.04
638.632	15534.35
638.825	15274.26
639.019	15233.3
639.212	15040.79
639.406	15231.26
639.599	15216.92
639.793	15001.88
639.986	14844.19
640.18	14922.01
640.373	14872.86
640.567	14534.95
640.76	14532.9
640.954	14334.25
641.147	14338.34
641.34	14115.11
641.534	14397.73
641.727	14059.82
641.92	14059.82
642.114	14182.7
642.307	13957.42
642.5	13680.94
642.694	13586.74
642.887	13547.83
643.08	13465.91
643.273	13588.78
643.467	13267.25
643.66	13078.84
643.853	13261.11
644.046	13103.42
644.239	13056.31
644.432	13023.55
644.626	12824.89
644.819	12671.29
645.012	12835.13
645.205	12521.79
645.398	12796.22
645.591	12458.31
645.784	12685.63
645.977	12273.99
646.17	12562.75
646.363	12194.12
646.556	12042.57
646.749	12288.32
646.942	12247.37
647.135	11925.83
647.328	11878.73
647.521	11893.07
647.714	11585.87
647.907	11628.88
648.099	11612.49
648.292	11573.58
648.485	11549.01
648.678	11774.28
648.871	11194.71
649.064	11069.78
649.256	11260.24
649.449	10983.77
649.642	11063.64
649.835	10846.55
650.027	10901.85
650.22	10627.42
650.413	10811.74
650.605	10713.44
650.798	10762.59
650.991	10551.65
651.183	10795.36
651.376	10479.97
651.568	10680.67
651.761	10271.08
651.954	10658.14
652.146	10445.15
652.339	10258.79
652.531	10023.27
652.724	10152.29
652.916	10123.62
653.109	9988.46
653.301	9838.95
653.494	10107.24
653.686	9603.44
653.879	10109.29
654.071	9789.8
654.263	9685.36
654.456	9767.27
654.648	9697.64
654.84	9589.1
655.033	9372.02
655.225	9369.97
655.417	9038.2
655.61	9365.87
655.802	9087.35
655.994	9185.65
656.186	9296.24
656.379	9138.55
656.571	9087.35
656.763	8733.05
656.955	8800.63
657.148	8778.11
657.34	8661.37
657.532	8747.39
657.724	8536.45
657.916	8591.74
658.108	8694.14
658.3	8673.66
658.492	8505.73
658.684	8249.73
658.876	8133
659.068	8323.46
659.26	8257.92
659.452	8194.43
659.644	8237.44
659.836	8030.6
660.028	7983.49
660.22	8057.22
660.412	8087.94
660.604	7899.53
660.796	7698.83
660.988	7940.49
661.18	7647.63
661.372	7809.42
661.563	7537.04
661.755	7625.1
661.947	7528.85
662.139	7403.92
662.331	7285.14
662.522	7367.06
662.714	7401.87
662.906	7322
663.097	7276.94
663.289	7278.99
663.481	7143.83
663.673	7197.07
663.864	6799.77
664.056	7084.44
664.247	6971.8
664.439	6924.69
664.631	6846.87
664.822	6861.21
665.014	6828.44
665.205	6644.12
665.397	6812.06
665.588	6730.14
665.78	6615.45
665.971	6533.53
666.163	6476.19
666.354	6517.15
666.546	6400.41
666.737	6404.51
666.929	6386.08
667.12	6384.03
667.311	6214.05
667.503	6236.58
667.694	6082.98
667.885	6193.57
668.077	6207.91
668.268	6103.46
668.459	6070.69
668.651	5876.13
668.842	5986.72
669.033	6064.55
669.224	5972.39
669.416	5855.65
669.607	5833.13
669.798	5769.64
669.989	5761.45
670.18	5747.11
670.371	5829.03
670.563	5552.56
670.754	5689.77
670.945	5470.64
671.136	5661.1
671.327	5575.08
671.518	5464.49
671.709	5482.92
671.9	5534.12
672.091	5536.17
672.282	5286.32
672.473	5435.82
672.664	5310.89
672.855	5364.14
673.046	5265.84
673.237	5493.16
673.428	5188.02
673.619	5142.96
673.809	5228.98
674	5200.3
674.191	5175.73
674.382	5165.49
674.573	5198.26
674.764	5071.28
674.954	5108.15
675.145	4876.73
675.336	4876.73
675.527	4901.3
675.717	4989.36
675.908	4780.47
676.099	4954.55
676.289	4972.98
676.48	4835.77
676.671	4942.26
676.861	4852.15
677.052	4938.16
677.243	4645.31
677.433	4714.94
677.624	4827.57
677.814	4590.01
678.005	4925.88
678.195	4721.08
678.386	4563.39
678.576	4719.03
678.767	4708.79
678.957	4639.16
679.148	4794.81
679.338	4786.61
679.529	4592.06
679.719	4477.37
679.909	4567.48
680.1	4491.71
680.29	4581.82
680.481	4553.15
680.671	4651.45
680.861	4624.83
681.052	4561.34
681.242	4409.79
681.432	4575.67
681.622	4393.4
681.813	4415.93
682.003	4426.17
682.193	4477.37
682.383	4485.56
682.573	4504
682.764	4387.26
682.954	4442.56
683.144	4469.18
683.334	4336.06
683.524	4262.33
683.714	4428.22
683.904	4280.77
684.094	4448.7
684.284	4321.73
684.474	4321.73
684.664	4272.57
684.854	4241.86
685.044	4311.49
685.234	4157.89
685.424	4262.33
685.614	4252.1
685.804	4245.95
685.994	4227.52
686.184	4313.53
686.374	4299.2
686.564	4164.03
686.753	4184.51
686.943	4092.35
687.133	4180.42
687.323	4237.76
687.513	4262.33
687.702	4178.37
687.892	4108.74
688.082	4172.22
688.272	4049.35
688.461	4157.89
688.651	4116.93
688.841	4012.48
689.03	4028.87
689.22	4114.88
689.41	4057.54
689.599	3951.04
689.789	4090.31
689.979	3969.48
690.168	3967.43
690.358	3963.33
690.547	4110.79
690.737	3967.43
690.926	3957.19
691.116	3836.36
691.305	4098.5
691.495	3854.79
691.684	3885.51
691.874	3844.55
692.063	3905.99
692.252	3932.61
692.442	3885.51
692.631	3867.08
692.82	3860.93
693.01	3807.69
693.199	3912.13
693.388	3830.21
693.578	3774.92
693.767	4016.58
693.956	3701.19
694.146	3770.82
694.335	3582.41
694.524	3690.95
694.713	3862.98
694.902	3697.1
695.092	3824.07
695.281	3848.65
695.47	3709.38
695.659	3783.11
695.848	3688.9
696.037	3656.14
696.226	3781.06
696.415	3688.9
696.604	3709.38
696.793	3678.66
696.982	3715.53
697.171	3664.33
697.36	3631.56
697.549	3566.03
697.738	3635.66
697.927	3504.59
698.116	3658.18
698.305	3430.86
698.494	3588.55
698.683	3543.5
698.872	3584.46
699.061	3588.55
699.25	3574.22
699.438	3412.43
699.627	3443.15
699.816	3467.72
700.005	3463.63
700.193	3480.01
700.382	3549.64
700.571	3439.05
700.76	3471.82
700.948	3492.3
701.137	3568.07
701.326	3471.82
701.514	3361.23
701.703	3363.28
701.892	3338.7
702.08	3363.28
702.269	3418.57
702.457	3295.69
702.646	3281.36
702.834	3318.22
703.023	3205.58
703.212	3271.12
703.4	3303.89
703.589	3183.06
703.777	3320.27
703.965	3267.02
704.154	3332.56
704.342	3215.82
704.531	3256.78
704.719	3185.1
704.907	3324.37
705.096	3131.86
705.284	3123.66
705.472	3205.58
705.661	3166.67
705.849	3197.39
706.037	3271.12
706.226	3017.17
706.414	3221.97
706.602	3123.66
706.79	3076.56
706.979	3041.75
707.167	3078.61
707.355	2994.64
707.543	3070.42
707.731	2994.64
707.919	3115.47
708.107	3060.18
708.296	3025.36
708.484	2970.07
708.672	3045.84
708.86	2935.25
709.048	2931.16
709.236	2984.4
709.424	2918.87
709.612	3021.27
709.8	2836.95
709.988	3037.65
710.176	3000.79
710.364	2943.44
710.551	2902.48
710.739	2900.44
710.927	2800.09
711.115	2871.76
711.303	2959.83
711.491	2927.06
711.679	2841.04
711.866	3013.07
712.054	2699.73
712.242	2740.69
712.43	2847.19
712.617	2787.8
712.805	2834.9
712.993	2777.56
713.181	2746.84
713.368	2712.02
713.556	2822.61
713.744	2687.45
713.931	2693.59
714.119	2714.07
714.306	2701.78
714.494	2683.35
714.682	2640.34
714.869	2650.58
715.057	2591.19
715.244	2619.86
715.432	2539.99
715.619	2556.38
715.807	2558.42
715.994	2570.71
716.182	2550.23
716.369	2664.92
716.556	2503.13
716.744	2492.89
716.931	2517.47
717.119	2413.02
717.306	2550.23
717.493	2413.02
717.681	2437.59
717.868	2462.17
718.055	2453.98
718.242	2566.62
718.43	2472.41
718.617	2472.41
718.804	2396.64
718.991	2331.1
719.179	2361.82
719.366	2472.41
719.553	2415.07
719.74	2402.78
719.927	2462.17
720.114	2347.48
720.301	2460.12
720.488	2363.87
720.676	2275.81
720.863	2247.13
721.05	2337.24
721.237	2331.1
721.424	2437.59
721.611	2273.76
721.798	2200.03
721.985	2187.74
722.172	2224.61
722.358	2247.13
722.545	2286.05
722.732	2290.14
722.919	2257.37
723.106	2226.65
723.293	2134.5
723.48	2208.22
723.667	2288.09
723.853	2197.98
724.04	2208.22
724.227	2222.56
724.414	2191.84
724.6	2140.64
724.787	2159.07
724.974	2206.17
725.161	2150.88
725.347	2034.14
725.534	2060.77
725.72	2124.26
725.907	2124.26
726.094	2111.97
726.28	2075.1
726.467	2001.38
726.653	1987.04
726.84	2105.82
727.027	2046.43
727.213	1941.99
727.4	1962.47
727.586	2038.24
727.773	2132.45
727.959	2005.47
728.145	2001.38
728.332	1935.84
728.518	2009.57
728.705	1915.36
728.891	1896.93
729.077	2030.05
729.264	1929.7
729.45	1862.12
729.636	1989.09
729.823	1792.48
730.009	1976.8
730.195	1923.55
730.382	1950.18
730.568	1798.63
730.754	1929.7
730.94	1919.46
731.126	1743.33
731.313	1874.4
731.499	1763.81
731.685	1815.01
731.871	1845.73
732.057	1878.5
732.243	1800.68
732.429	1923.55
732.615	1939.94
732.801	1870.31
732.987	1763.81
733.173	1788.39
733.359	1718.76
733.545	1804.77
733.731	1675.75
733.917	1790.44
734.103	1819.11
734.289	1798.63
734.475	1661.41
734.661	1864.16
734.847	1837.54
735.033	1724.9
735.219	1722.85
735.404	1702.37
735.59	1714.66
735.776	1585.64
735.962	1747.43
736.148	1792.48
736.333	1778.15
736.519	1673.7
736.705	1673.7
736.89	1599.98
737.076	1571.3
737.262	1706.47
737.447	1571.3
737.633	1597.93
737.819	1624.55
738.004	1685.99
738.19	1520.1
738.375	1608.17
738.561	1653.22
738.747	1634.79
738.932	1612.26
739.118	1577.45
739.303	1563.11
739.489	1642.98
739.674	1530.34
739.859	1552.87
740.045	1538.54
740.23	1669.61
740.416	1470.95
740.601	1526.25
740.786	1427.95
740.972	1505.77
741.157	1464.81
741.342	1448.43
741.528	1485.29
741.713	1563.11
741.898	1436.14
742.084	1516.01
742.269	1468.91
742.454	1473
742.639	1442.28
742.824	1292.78
743.01	1411.56
743.195	1554.92
743.38	1483.24
743.565	1518.06
743.75	1432.04
743.935	1378.79
744.12	1403.37
744.305	1307.12
744.49	1286.64
744.675	1268.2
744.86	1321.45
745.045	1374.7
745.23	1331.69
745.415	1358.32
745.6	1421.8
745.785	1372.65
745.97	1343.98
746.155	1321.45
746.34	1288.68
746.525	1288.68
746.71	1288.68
746.895	1368.56
747.079	1223.15
747.264	1339.88
747.449	1288.68
747.634	1284.59
747.819	1229.29
748.003	1161.71
748.188	1116.65
748.373	1239.53
748.557	1108.46
748.742	1120.75
748.927	1165.81
749.111	1198.57
749.296	1245.68
749.481	1184.24
749.665	1139.18
749.85	1155.57
750.034	1184.24
750.219	1186.29
750.404	1174
750.588	1143.28
750.773	1044.98
750.957	1194.48
751.141	1157.61
751.326	1110.51
751.51	997.87
751.695	1112.56
751.879	1049.07
752.064	1071.6
752.248	1018.35
752.432	991.73
752.617	1079.79
752.801	1042.93
752.985	1057.26
753.17	985.58
753.354	1042.93
753.538	1044.98
753.722	1042.93
753.907	1036.78
754.091	963.06
754.275	887.28
754.459	985.58
754.643	913.91
754.828	991.73
755.012	971.25
755.196	899.57
755.38	946.67
755.564	881.14
755.748	858.61
755.932	997.87
756.116	907.76
756.3	918
756.484	975.35
756.668	862.71
756.852	895.47
757.036	907.76
757.22	809.46
757.404	915.95
757.588	862.71
757.772	870.9
757.956	936.43
758.14	983.54
758.323	903.67
758.507	844.28
758.691	829.94
758.875	799.22
759.059	903.67
759.242	825.84
759.426	862.71
759.61	829.94
759.794	834.04
759.977	760.31
760.161	850.42
760.345	952.82
760.528	838.13
760.712	788.98
760.895	856.56
761.079	725.49
761.263	723.44
761.446	713.21
761.63	782.84
761.813	784.88
761.997	766.45
762.18	754.16
762.364	696.82
762.547	707.06
762.731	791.03
762.914	641.53
763.098	750.07
763.281	731.64
763.464	756.21
763.648	666.1
763.831	692.73
764.015	702.97
764.198	809.46
764.381	694.77
764.564	563.7
764.748	674.29
764.931	676.34
765.114	657.91
765.297	776.69
765.481	678.39
765.664	694.77
765.847	698.87
766.03	721.4
766.213	670.2
766.397	657.91
766.58	616.95
766.763	758.26
766.946	698.87
767.129	629.24
767.312	586.23
767.495	662.01
767.678	641.53
767.861	709.11
768.044	627.19
768.227	733.68
768.41	612.85
768.593	748.02
768.776	649.72
768.959	627.19
769.142	653.81
769.324	608.76
769.507	651.77
769.69	633.33
769.873	571.9
770.056	686.58
770.239	608.76
770.421	711.16
770.604	594.42
770.787	608.76
770.97	520.7
771.152	633.33
771.335	592.37
771.518	676.34
771.7	653.81
771.883	659.96
772.066	545.27
772.248	528.89
772.431	586.23
772.613	659.96
772.796	535.03
772.978	555.51
773.161	600.57
773.343	571.9
773.526	627.19
773.708	522.74
773.891	473.59
774.073	406.01
774.256	561.66
774.438	659.96
774.621	569.85
774.803	567.8
774.985	530.94
775.168	543.22
775.35	520.7
775.532	600.57
775.715	477.69
775.897	559.61
776.079	440.83
776.261	616.95
776.444	532.98
776.626	563.7
776.808	555.51
776.99	545.27
777.173	520.7
777.355	528.89
777.537	463.35
777.719	471.54
777.901	520.7
778.083	449.02
778.265	487.93
778.447	430.59
778.629	428.54
778.811	455.16
778.993	383.48
779.175	481.78
779.357	412.15
779.539	487.93
779.721	430.59
779.903	461.3
780.085	475.64
780.267	571.9
780.449	389.63
780.631	467.45
780.812	446.97
780.994	469.5
781.176	338.43
781.358	451.07
781.54	467.45
781.721	475.64
781.903	436.73
782.085	434.68
782.267	414.2
782.448	428.54
782.63	379.39
782.812	455.16
782.993	467.45
783.175	395.77
783.357	465.4
783.538	373.24
783.72	389.63
783.901	363
784.083	428.54
784.264	356.86
784.446	338.43
784.627	272.89
784.809	385.53
784.99	365.05
785.172	313.85
785.353	395.77
785.535	379.39
785.716	330.23
785.897	346.62
786.079	387.58
786.26	389.63
786.441	297.47
786.623	258.56
786.804	342.52
786.985	295.42
787.167	305.66
787.348	272.89
787.529	365.05
787.71	375.29
787.891	340.47
788.073	313.85
788.254	301.56
788.435	397.82
788.616	311.8
788.797	330.23
788.978	274.94
789.159	330.23
789.34	248.32
789.522	281.08
789.703	248.32
789.884	297.47
790.065	285.18
790.246	350.71
790.427	240.12
790.607	281.08
790.788	272.89
790.969	340.47
791.15	340.47
791.331	317.95
791.512	256.51
791.693	279.04
791.874	272.89
792.054	272.89
792.235	334.33
792.416	244.22
792.597	307.71
792.778	229.88
792.958	248.32
793.139	242.17
793.32	272.89
793.5	244.22
793.681	242.17
793.862	283.13
794.042	266.75
794.223	160.25
794.404	281.08
794.584	264.7
794.765	299.52
794.945	223.74
795.126	264.7
795.306	229.88
795.487	297.47
795.667	266.75
795.848	150.01
796.028	186.88
796.209	254.46
796.389	276.99
796.57	223.74
796.75	104.96
796.93	178.69
797.111	219.64
797.291	276.99
797.471	184.83
797.652	209.4
797.832	240.12
798.012	242.17
798.192	221.69
798.373	205.31
798.553	207.36
798.733	231.93
798.913	162.3
799.093	215.55
799.274	160.25
799.454	229.88
799.634	266.75
799.814	203.26
799.994	240.12
800.174	213.5
800.354	186.88
800.534	160.25
800.714	199.16
800.894	201.21
801.074	152.06
801.254	145.92
801.434	184.83
801.614	190.97
801.794	285.18
801.974	649.72
802.154	158.21
802.334	168.45
802.514	201.21
802.693	199.16
802.873	178.69
803.053	272.89
803.233	119.29
803.413	166.4
803.592	154.11
803.772	158.21
803.952	111.1
804.131	119.29
804.311	158.21
804.491	240.12
804.67	123.39
804.85	166.4
805.03	168.45
805.209	240.12
805.389	195.07
805.568	158.21
805.748	84.48
805.928	244.22
806.107	182.78
806.287	94.72
806.466	154.11
806.646	182.78
806.825	131.58
807.004	150.01
807.184	158.21
807.363	231.93
807.543	141.82
807.722	150.01
807.901	162.3
808.081	141.82
808.26	158.21
808.439	174.59
808.619	150.01
808.798	39.42
808.977	166.4
809.156	94.72
809.336	96.77
809.515	193.02
809.694	96.77
809.873	141.82
810.052	147.97
810.231	193.02
810.411	64
810.59	233.98
810.769	59.9
810.948	195.07
811.127	88.57
811.306	113.15
811.485	201.21
811.664	168.45
811.843	137.73
812.022	119.29
812.201	104.96
812.38	176.64
812.559	109.05
812.737	121.34
812.916	64
813.095	96.77
813.274	125.44
813.453	109.05
813.632	64
813.811	190.97
813.989	78.33
814.168	113.15
814.347	49.66
814.526	115.2
814.704	31.23
814.883	158.21
815.062	109.05
815.24	145.92
815.419	117.25
815.598	39.42
815.776	51.71
815.955	182.78
816.133	150.01
816.312	201.21
816.49	158.21
816.669	162.3
816.847	100.86
817.026	76.29
817.204	61.95
817.383	100.86
817.561	117.25
817.74	129.53
817.918	100.86
818.097	127.49
818.275	131.58
818.453	119.29
818.632	80.38
818.81	23.04
818.988	57.86
819.167	70.14
819.345	141.82
819.523	119.29
819.701	145.92
819.879	68.09
820.058	76.29
820.236	59.9
820.414	137.73
820.592	109.05
820.77	119.29
820.948	176.64
821.127	-3.58
821.305	96.77
821.483	33.28
821.661	84.48
821.839	51.71
822.017	59.9
822.195	84.48
822.373	88.57
822.551	104.96
822.729	78.33
822.907	-5.63
823.085	82.43
823.262	125.44
823.44	-5.63
823.618	68.09
823.796	64
823.974	70.14
824.152	18.94
824.329	119.29
824.507	47.62
824.685	37.38
824.863	68.09
825.04	137.73
825.218	152.06
825.396	104.96
825.574	82.43
825.751	53.76
825.929	100.86
826.107	109.05
826.284	76.29
826.462	92.67
826.639	43.52
826.817	43.52
826.994	100.86
827.172	39.42
827.349	113.15
827.527	141.82
827.704	59.9
827.882	53.76
828.059	51.71
828.237	33.28
828.414	78.33
828.591	61.95
828.769	92.67
828.946	25.09
829.124	102.91
829.301	76.29
829.478	57.86
829.655	64
829.833	139.77
830.01	47.62
830.187	59.9
830.364	117.25
830.542	53.76
830.719	35.33
830.896	59.9
831.073	61.95
831.25	45.57
831.427	74.24
831.604	47.62
831.782	59.9
831.959	25.09
832.136	82.43
832.313	59.9
832.49	86.53
832.667	80.38
832.844	84.48
833.021	100.86
833.198	100.86
833.374	121.34
833.551	39.42
833.728	51.71
833.905	203.26
834.082	18.94
834.259	55.81
834.436	84.48
834.612	25.09
834.789	43.52
834.966	41.47
835.143	113.15
835.319	25.09
835.496	27.14
835.673	51.71
835.85	33.28
836.026	84.48
836.203	133.63
836.38	39.42
836.556	59.9
836.733	84.48
836.909	70.14
837.086	68.09
837.262	14.85
837.439	39.42
837.616	55.81
837.792	18.94
837.968	123.39
838.145	18.94
838.321	37.38
838.498	68.09
838.674	104.96
838.851	51.71
839.027	61.95
839.203	70.14
839.38	37.38
839.556	29.18
839.732	88.57
839.909	0.51
840.085	100.86
840.261	72.19
840.437	76.29
840.614	-28.16
840.79	64
840.966	27.14
841.142	51.71
841.318	41.47
841.494	72.19
841.671	53.76
841.847	31.23
842.023	41.47
842.199	27.14
842.375	43.52
842.551	80.38
842.727	-22.02
842.903	31.23
843.079	20.99
843.255	10.75
843.431	51.71
843.607	84.48
843.783	-56.83
843.959	10.75
844.134	4.61
844.31	127.49
844.486	41.47
844.662	84.48
844.838	72.19
845.013	64
845.189	23.04
845.365	100.86
845.541	37.38
845.716	49.66
845.892	35.33
846.068	100.86
846.244	10.75
846.419	102.91
846.595	-67.07
846.77	61.95
846.946	84.48
847.122	37.38
847.297	-9.73
847.473	154.11
847.648	-13.82
847.824	-30.21
847.999	-71.17
848.175	107.01
848.35	29.18
848.526	35.33
848.701	84.48
848.876	100.86
849.052	27.14
849.227	20.99
849.403	-11.78
849.578	10.75
849.753	70.14
849.929	96.77
850.104	-1.54
850.279	27.14
850.454	39.42
850.63	72.19
850.805	64
850.98	49.66
851.155	37.38
851.33	23.04
851.505	-5.63
851.681	68.09
851.856	20.99
852.031	57.86
852.206	-7.68
852.381	12.8
852.556	59.9
852.731	39.42
852.906	18.94
853.081	-3.58
853.256	10.75
853.431	45.57
853.606	10.75
853.781	20.99
853.956	-77.31
854.131	-26.11
854.305	35.33
854.48	61.95
854.655	45.57
854.83	-13.82
855.005	-58.88
855.18	64
855.354	109.05
855.529	10.75
855.704	-11.78
855.879	27.14
856.053	-19.97
856.228	39.42
856.403	18.94
856.577	88.57
856.752	-36.35
856.926	33.28
857.101	-50.69
857.276	-44.54
857.45	-3.58
857.625	59.9
857.799	-44.54
857.974	-38.4
858.148	-58.88
858.323	49.66
858.497	12.8
858.672	-58.88
858.846	41.47
859.02	18.94
859.195	-1.54
859.369	12.8
859.543	29.18
859.718	8.7
859.892	59.9
860.066	27.14
860.241	61.95
860.415	-71.17
860.589	20.99
860.763	18.94
860.938	-36.35
861.112	37.38
861.286	35.33
861.46	61.95
861.634	2.56
861.808	12.8
861.982	18.94
862.157	29.18
862.331	2.56
862.505	-7.68
862.679	10.75
862.853	-42.5
863.027	-19.97
863.201	98.81
863.375	-108.03
863.549	0.51
863.722	25.09
863.896	94.72
864.07	27.14
864.244	-15.87
864.418	35.33
864.592	35.33
864.766	72.19
864.939	12.8
865.113	2.56
865.287	51.71
865.461	23.04
865.634	27.14
865.808	35.33
865.982	12.8
866.156	37.38
866.329	31.23
866.503	10.75
866.676	6.66
866.85	35.33
867.024	-3.58
867.197	70.14
867.371	45.57
867.544	-3.58
867.718	96.77
867.891	10.75
868.065	-44.54
868.238	23.04
868.412	92.67
868.585	20.99
868.759	-5.63
868.932	72.19
869.105	10.75
869.279	64
869.452	-22.02
869.625	-1.54
869.799	-19.97
869.972	-3.58
870.145	-42.5
870.319	-13.82
870.492	-9.73
870.665	92.67
870.838	61.95
871.011	-30.21
871.185	-26.11
871.358	-19.97
871.531	2.56
871.704	-22.02
871.877	37.38
872.05	6.66
872.223	45.57
872.396	-26.11
872.569	-5.63
872.742	-44.54
872.915	55.81
873.088	33.28
873.261	10.75
873.434	2.56
873.607	-58.88
873.78	59.9
873.953	16.9
874.126	20.99
874.299	-40.45
874.471	-22.02
874.644	-34.3
874.817	59.9
874.99	131.58
875.163	68.09
875.335	8.7
875.508	31.23
875.681	2.56
875.853	-42.5
876.026	18.94
876.199	10.75
876.371	49.66
876.544	-24.06
876.717	51.71
876.889	-3.58
877.062	20.99
877.234	14.85
877.407	6.66
877.579	4.61
877.752	2.56
877.924	61.95
878.097	27.14
878.269	33.28
878.442	2.56
878.614	59.9
878.786	33.28
878.959	23.04
879.131	35.33
879.303	-19.97
879.476	-36.35
879.648	6.66
879.82	29.18
879.993	4.61
880.165	-19.97
880.337	-17.92
880.509	51.71
880.681	-69.12
880.854	-83.45
881.026	43.52
881.198	8.7
881.37	-46.59
881.542	64
881.714	27.14
881.886	76.29
882.058	25.09
882.23	-13.82
882.402	-9.73
882.574	6.66
882.746	49.66
882.918	100.86
883.09	-17.92
883.262	12.8
883.434	-5.63
883.606	-34.3
883.778	-46.59
883.95	115.2
884.122	-15.87
884.293	10.75
884.465	-44.54
884.637	39.42
884.809	51.71
884.98	-38.4
885.152	-5.63
885.324	80.38
885.496	59.9
885.667	-32.26
885.839	-7.68
886.011	41.47
886.182	-38.4
886.354	-19.97
886.525	47.62
886.697	-3.58
886.869	-62.98
887.04	55.81
887.212	14.85
887.383	76.29
887.555	-46.59
887.726	51.71
887.897	-58.88
888.069	18.94
888.24	10.75
888.412	64
888.583	18.94
888.754	-17.92
888.926	-44.54
889.097	-30.21
889.268	-83.45
889.44	-11.78
889.611	-3.58
889.782	-28.16
889.953	-46.59
890.125	119.29
890.296	4.61
890.467	6.66
890.638	2.56
890.809	47.62
890.98	4.61
891.151	31.23
891.323	43.52
891.494	27.14
891.665	4.61
891.836	4.61
892.007	18.94
892.178	90.62
892.349	2.56
892.52	6.66
892.691	109.05
892.862	-1.54
893.032	-42.5
893.203	2.56
893.374	31.23
893.545	76.29
893.716	-52.74
893.887	47.62
894.057	2.56
894.228	88.57
894.399	-5.63
894.57	29.18
894.74	-1.54
894.911	86.53
895.082	-1.54
895.253	27.14
895.423	-3.58
895.594	14.85
895.764	-13.82
895.935	2.56
896.106	-36.35
896.276	-56.83
896.447	20.99
896.617	31.23
896.788	-75.26
896.958	12.8
897.129	-83.45
897.299	-5.63
897.47	-13.82
897.64	10.75
897.81	-28.16
897.981	10.75
898.151	-38.4
898.322	43.52
898.492	12.8
898.662	-17.92
898.832	16.9
899.003	-5.63
899.173	61.95
899.343	25.09
899.513	-15.87
