Data from USB4F104151__291__14-46-28-573.txt Node

Date: Thu Mar 13 14:46:28 EDT 2025
User: louis
Spectrometer: USB4F10415
Trigger mode: 4
Integration Time (sec): 2.000000E-2
Scans to average: 1
Electric dark correction enabled: true
Nonlinearity correction enabled: false
Boxcar width: 0
XAxis mode: Wavelengths
Number of Pixels in Spectrum: 3648
>>>>>Begin Spectral Data<<<<<
178.204	-129.36
178.424	-129.36
178.644	-129.36
178.864	-67.92
179.084	-155.99
179.304	-33.11
179.524	-29.01
179.744	-33.11
179.964	32.43
180.184	5.8
180.404	-16.73
180.624	30.38
180.844	65.19
181.064	-26.96
181.283	30.38
181.503	-26.96
181.723	1.71
181.943	-22.87
182.163	87.72
182.383	11.95
182.602	30.38
182.822	-20.82
183.042	54.95
183.262	-41.3
183.482	-59.73
183.701	36.52
183.921	-29.01
184.141	28.33
184.361	-84.31
184.58	50.86
184.8	-4.44
185.02	-72.02
185.239	44.71
185.459	22.19
185.679	42.67
185.898	57
186.118	59.05
186.338	79.53
186.557	22.19
186.777	-10.58
186.997	-20.82
187.216	18.09
187.436	128.68
187.655	22.19
187.875	120.49
188.095	7.85
188.314	95.91
188.534	67.24
188.753	46.76
188.973	38.57
189.192	114.34
189.412	-51.54
189.631	63.15
189.851	95.91
190.07	18.09
190.29	-18.77
190.509	26.28
190.729	-67.92
190.948	34.47
191.168	57
191.387	77.48
191.607	34.47
191.826	-2.39
192.045	22.19
192.265	59.05
192.484	24.23
192.704	-0.34
192.923	-20.82
193.142	71.34
193.362	-51.54
193.581	48.81
193.8	89.77
194.02	5.8
194.239	87.72
194.458	57
194.678	18.09
194.897	63.15
195.116	5.8
195.335	30.38
195.555	13.99
195.774	-51.54
195.993	26.28
196.212	26.28
196.432	5.8
196.651	18.09
196.87	-53.59
197.089	26.28
197.308	-35.16
197.528	-16.73
197.747	34.47
197.966	54.95
198.185	5.8
198.404	65.19
198.623	34.47
198.842	97.96
199.062	30.38
199.281	7.85
199.5	24.23
199.719	48.81
199.938	22.19
200.157	59.05
200.376	26.28
200.595	42.67
200.814	-35.16
201.033	22.19
201.252	63.15
201.471	22.19
201.69	-0.34
201.909	50.86
202.128	61.1
202.347	36.52
202.566	-10.58
202.785	-12.63
203.004	-35.16
203.223	120.49
203.442	-39.25
203.661	-12.63
203.879	16.04
204.098	26.28
204.317	-24.92
204.536	79.53
204.755	-31.06
204.974	46.76
205.193	-2.39
205.411	34.47
205.63	63.15
205.849	108.2
206.068	-26.96
206.287	-2.39
206.505	134.82
206.724	-24.92
206.943	-18.77
207.162	5.8
207.381	26.28
207.599	24.23
207.818	32.43
208.037	30.38
208.255	-20.82
208.474	-10.58
208.693	-10.58
208.911	79.53
209.13	65.19
209.349	-8.53
209.567	-18.77
209.786	71.34
210.005	46.76
210.223	13.99
210.442	-33.11
210.661	7.85
210.879	13.99
211.098	54.95
211.316	57
211.535	48.81
211.753	-10.58
211.972	71.34
212.191	-10.58
212.409	-2.39
212.628	22.19
212.846	9.9
213.065	71.34
213.283	26.28
213.502	-49.49
213.72	24.23
213.938	13.99
214.157	46.76
214.375	13.99
214.594	9.9
214.812	63.15
215.031	59.05
215.249	65.19
215.467	75.43
215.686	32.43
215.904	42.67
216.122	50.86
216.341	-16.73
216.559	65.19
216.778	32.43
216.996	26.28
217.214	7.85
217.432	-45.4
217.651	-18.77
217.869	13.99
218.087	-43.35
218.306	24.23
218.524	20.14
218.742	-35.16
218.96	30.38
219.179	-14.68
219.397	46.76
219.615	83.63
219.833	32.43
220.051	-16.73
220.27	89.77
220.488	38.57
220.706	24.23
220.924	-51.54
221.142	-16.73
221.36	32.43
221.578	40.62
221.796	16.04
222.015	22.19
222.233	97.96
222.451	87.72
222.669	16.04
222.887	22.19
223.105	54.95
223.323	30.38
223.541	57
223.759	-18.77
223.977	16.04
224.195	57
224.413	38.57
224.631	30.38
224.849	71.34
225.067	46.76
225.285	73.39
225.503	59.05
225.721	-22.87
225.939	5.8
226.157	9.9
226.375	89.77
226.592	24.23
226.81	79.53
227.028	-55.64
227.246	71.34
227.464	34.47
227.682	54.95
227.9	24.23
228.117	34.47
228.335	1.71
228.553	13.99
228.771	97.96
228.989	24.23
229.206	40.62
229.424	-47.44
229.642	5.8
229.86	1.71
230.077	126.63
230.295	-29.01
230.513	69.29
230.731	42.67
230.948	87.72
231.166	46.76
231.384	-6.49
231.601	-4.44
231.819	34.47
232.037	9.9
232.254	-65.88
232.472	28.33
232.689	32.43
232.907	-10.58
233.125	79.53
233.342	50.86
233.56	-2.39
233.777	73.39
233.995	-43.35
234.213	38.57
234.43	22.19
234.648	40.62
234.865	22.19
235.083	71.34
235.3	59.05
235.518	89.77
235.735	89.77
235.953	100.01
236.17	-10.58
236.388	44.71
236.605	95.91
236.822	81.58
237.04	32.43
237.257	11.95
237.475	16.04
237.692	-31.06
237.909	-2.39
238.127	34.47
238.344	-63.83
238.562	48.81
238.779	-61.78
238.996	54.95
239.214	22.19
239.431	30.38
239.648	5.8
239.865	22.19
240.083	30.38
240.3	34.47
240.517	-8.53
240.735	-0.34
240.952	42.67
241.169	87.72
241.386	-2.39
241.603	38.57
241.821	46.76
242.038	50.86
242.255	-6.49
242.472	-0.34
242.689	120.49
242.907	-31.06
243.124	-12.63
243.341	48.81
243.558	34.47
243.775	30.38
243.992	5.8
244.209	-41.3
244.426	75.43
244.643	91.82
244.86	-67.92
245.078	-22.87
245.295	-10.58
245.512	106.15
245.729	18.09
245.946	-18.77
246.163	-2.39
246.38	24.23
246.597	48.81
246.814	54.95
247.031	-51.54
247.248	-0.34
247.464	16.04
247.681	7.85
247.898	42.67
248.115	63.15
248.332	-49.49
248.549	114.34
248.766	46.76
248.983	54.95
249.2	-18.77
249.417	46.76
249.633	40.62
249.85	9.9
250.067	-2.39
250.284	-10.58
250.501	42.67
250.717	5.8
250.934	32.43
251.151	73.39
251.368	50.86
251.585	63.15
251.801	-2.39
252.018	38.57
252.235	22.19
252.451	40.62
252.668	-22.87
252.885	24.23
253.102	57
253.318	-76.12
253.535	130.73
253.752	46.76
253.968	-16.73
254.185	22.19
254.401	65.19
254.618	24.23
254.835	77.48
255.051	54.95
255.268	59.05
255.484	5.8
255.701	61.1
255.917	30.38
256.134	-0.34
256.351	22.19
256.567	-14.68
256.784	67.24
257	-22.87
257.217	18.09
257.433	67.24
257.65	54.95
257.866	13.99
258.082	-67.92
258.299	-18.77
258.515	85.67
258.732	32.43
258.948	-74.07
259.165	5.8
259.381	48.81
259.597	5.8
259.814	59.05
260.03	-18.77
260.246	-33.11
260.463	-0.34
260.679	34.47
260.895	30.38
261.112	71.34
261.328	48.81
261.544	-63.83
261.761	110.25
261.977	-12.63
262.193	-35.16
262.409	138.92
262.626	50.86
262.842	9.9
263.058	34.47
263.274	5.8
263.49	-35.16
263.707	11.95
263.923	-20.82
264.139	-84.31
264.355	9.9
264.571	46.76
264.787	26.28
265.004	42.67
265.22	-41.3
265.436	5.8
265.652	-10.58
265.868	-14.68
266.084	-14.68
266.3	13.99
266.516	-74.07
266.732	38.57
266.948	18.09
267.164	-24.92
267.38	46.76
267.596	54.95
267.812	30.38
268.028	50.86
268.244	-29.01
268.46	-10.58
268.676	-10.58
268.892	32.43
269.108	50.86
269.324	73.39
269.54	-2.39
269.756	50.86
269.972	-22.87
270.188	46.76
270.403	-35.16
270.619	-10.58
270.835	7.85
271.051	13.99
271.267	-4.44
271.483	26.28
271.698	38.57
271.914	30.38
272.13	100.01
272.346	-6.49
272.562	5.8
272.777	52.91
272.993	48.81
273.209	22.19
273.425	46.76
273.64	-35.16
273.856	40.62
274.072	-0.34
274.287	-29.01
274.503	63.15
274.719	57
274.934	-20.82
275.15	3.75
275.366	67.24
275.581	42.67
275.797	34.47
276.012	95.91
276.228	5.8
276.444	7.85
276.659	11.95
276.875	-49.49
277.09	50.86
277.306	-0.34
277.521	26.28
277.737	-16.73
277.952	16.04
278.168	71.34
278.383	40.62
278.599	38.57
278.814	83.63
279.03	-26.96
279.245	59.05
279.461	50.86
279.676	13.99
279.892	-4.44
280.107	16.04
280.322	-0.34
280.538	46.76
280.753	75.43
280.969	83.63
281.184	-0.34
281.399	77.48
281.615	18.09
281.83	65.19
282.045	3.75
282.26	40.62
282.476	-10.58
282.691	34.47
282.906	48.81
283.122	24.23
283.337	-10.58
283.552	124.58
283.767	11.95
283.983	30.38
284.198	5.8
284.413	128.68
284.628	5.8
284.843	46.76
285.058	-29.01
285.274	-10.58
285.489	-49.49
285.704	116.39
285.919	-2.39
286.134	22.19
286.349	-35.16
286.564	61.1
286.779	50.86
286.995	71.34
287.21	-26.96
287.425	93.87
287.64	-14.68
287.855	28.33
288.07	26.28
288.285	40.62
288.5	38.57
288.715	81.58
288.93	34.47
289.145	11.95
289.36	40.62
289.575	-26.96
289.79	50.86
290.004	-18.77
290.219	112.3
290.434	-0.34
290.649	-22.87
290.864	69.29
291.079	59.05
291.294	22.19
291.509	65.19
291.724	59.05
291.938	9.9
292.153	71.34
292.368	7.85
292.583	46.76
292.798	46.76
293.012	65.19
293.227	20.14
293.442	42.67
293.657	81.58
293.871	38.57
294.086	30.38
294.301	-10.58
294.516	57
294.73	-45.4
294.945	42.67
295.16	7.85
295.374	40.62
295.589	85.67
295.804	50.86
296.018	-0.34
296.233	30.38
296.447	75.43
296.662	-6.49
296.877	-8.53
297.091	-67.92
297.306	30.38
297.52	-6.49
297.735	38.57
297.949	13.99
298.164	28.33
298.378	38.57
298.593	-43.35
298.807	-33.11
299.022	124.58
299.236	5.8
299.451	63.15
299.665	9.9
299.88	46.76
300.094	22.19
300.309	-35.16
300.523	65.19
300.737	-0.34
300.952	59.05
301.166	63.15
301.381	32.43
301.595	-74.07
301.809	-26.96
302.024	30.38
302.238	42.67
302.452	91.82
302.667	-6.49
302.881	38.57
303.095	97.96
303.309	16.04
303.524	5.8
303.738	1.71
303.952	5.8
304.166	57
304.381	-4.44
304.595	48.81
304.809	-39.25
305.023	-4.44
305.237	-24.92
305.452	16.04
305.666	38.57
305.88	38.57
306.094	67.24
306.308	42.67
306.522	36.52
306.736	73.39
306.95	26.28
307.164	-49.49
307.379	-47.44
307.593	16.04
307.807	54.95
308.021	13.99
308.235	71.34
308.449	-35.16
308.663	-20.82
308.877	102.06
309.091	42.67
309.305	93.87
309.519	-10.58
309.733	-18.77
309.947	-4.44
310.161	18.09
310.374	46.76
310.588	65.19
310.802	-14.68
311.016	40.62
311.23	9.9
311.444	18.09
311.658	54.95
311.872	36.52
312.085	3.75
312.299	59.05
312.513	46.76
312.727	22.19
312.941	-43.35
313.154	24.23
313.368	13.99
313.582	-0.34
313.796	46.76
314.009	46.76
314.223	52.91
314.437	5.8
314.651	22.19
314.864	-35.16
315.078	-0.34
315.292	-29.01
315.505	34.47
315.719	65.19
315.933	61.1
316.146	9.9
316.36	-39.25
316.573	5.8
316.787	93.87
317.001	-24.92
317.214	-14.68
317.428	48.81
317.641	-59.73
317.855	69.29
318.068	28.33
318.282	95.91
318.495	42.67
318.709	22.19
318.922	-33.11
319.136	112.3
319.349	75.43
319.563	42.67
319.776	22.19
319.99	-10.58
320.203	67.24
320.417	73.39
320.63	16.04
320.843	30.38
321.057	-22.87
321.27	-16.73
321.483	30.38
321.697	71.34
321.91	-18.77
322.124	54.95
322.337	91.82
322.55	-14.68
322.763	24.23
322.977	89.77
323.19	-18.77
323.403	83.63
323.617	59.05
323.83	18.09
324.043	46.76
324.256	38.57
324.469	-33.11
324.683	5.8
324.896	46.76
325.109	-39.25
325.322	9.9
325.535	89.77
325.748	30.38
325.962	32.43
326.175	-4.44
326.388	1.71
326.601	52.91
326.814	91.82
327.027	26.28
327.24	81.58
327.453	-51.54
327.666	-16.73
327.879	59.05
328.092	132.78
328.305	-2.39
328.518	30.38
328.731	28.33
328.944	65.19
329.157	24.23
329.37	26.28
329.583	9.9
329.796	44.71
330.009	22.19
330.222	120.49
330.435	63.15
330.648	71.34
330.861	63.15
331.073	57
331.286	73.39
331.499	-10.58
331.712	-84.31
331.925	-6.49
332.138	1.71
332.35	122.54
332.563	1.71
332.776	63.15
332.989	-59.73
333.202	7.85
333.414	38.57
333.627	-67.92
333.84	-6.49
334.053	22.19
334.265	95.91
334.478	5.8
334.691	16.04
334.903	32.43
335.116	1.71
335.329	-12.63
335.541	65.19
335.754	30.38
335.966	26.28
336.179	50.86
336.392	79.53
336.604	7.85
336.817	5.8
337.029	-16.73
337.242	-2.39
337.454	-57.68
337.667	22.19
337.88	73.39
338.092	59.05
338.305	22.19
338.517	46.76
338.729	30.38
338.942	50.86
339.154	79.53
339.367	48.81
339.579	89.77
339.792	16.04
340.004	-8.53
340.217	46.76
340.429	42.67
340.641	-2.39
340.854	26.28
341.066	48.81
341.278	63.15
341.491	32.43
341.703	59.05
341.915	28.33
342.128	16.04
342.34	34.47
342.552	-2.39
342.764	-43.35
342.977	20.14
343.189	59.05
343.401	42.67
343.613	3.75
343.826	36.52
344.038	44.71
344.25	38.57
344.462	30.38
344.674	85.67
344.886	-14.68
345.099	7.85
345.311	16.04
345.523	1.71
345.735	16.04
345.947	42.67
346.159	38.57
346.371	54.95
346.583	54.95
346.795	118.44
347.007	-31.06
347.219	79.53
347.431	34.47
347.643	108.2
347.855	-29.01
348.067	116.39
348.279	22.19
348.491	-16.73
348.703	38.57
348.915	57
349.127	26.28
349.339	71.34
349.551	-80.21
349.763	40.62
349.975	46.76
350.187	18.09
350.399	48.81
350.61	63.15
350.822	24.23
351.034	24.23
351.246	81.58
351.458	48.81
351.669	42.67
351.881	-49.49
352.093	24.23
352.305	22.19
352.517	71.34
352.728	13.99
352.94	-31.06
353.152	46.76
353.363	54.95
353.575	11.95
353.787	-2.39
353.999	57
354.21	118.44
354.422	-8.53
354.633	22.19
354.845	16.04
355.057	-59.73
355.268	40.62
355.48	38.57
355.692	24.23
355.903	38.57
356.115	46.76
356.326	13.99
356.538	83.63
356.749	85.67
356.961	7.85
357.172	13.99
357.384	34.47
357.595	130.73
357.807	48.81
358.018	11.95
358.23	63.15
358.441	-16.73
358.653	22.19
358.864	57
359.075	-43.35
359.287	7.85
359.498	79.53
359.709	42.67
359.921	18.09
360.132	100.01
360.344	50.86
360.555	28.33
360.766	85.67
360.977	11.95
361.189	40.62
361.4	65.19
361.611	54.95
361.823	63.15
362.034	5.8
362.245	-82.26
362.456	61.1
362.667	1.71
362.879	-10.58
363.09	11.95
363.301	30.38
363.512	46.76
363.723	-51.54
363.935	13.99
364.146	22.19
364.357	-35.16
364.568	63.15
364.779	-76.12
364.99	81.58
365.201	-82.26
365.412	67.24
365.623	24.23
365.834	-2.39
366.045	-67.92
366.256	18.09
366.467	-0.34
366.678	-16.73
366.889	67.24
367.1	24.23
367.311	16.04
367.522	-6.49
367.733	-45.4
367.944	46.76
368.155	-10.58
368.366	79.53
368.577	50.86
368.788	-18.77
368.999	-22.87
369.209	-57.68
369.42	118.44
369.631	69.29
369.842	30.38
370.053	30.38
370.264	57
370.474	26.28
370.685	112.3
370.896	5.8
371.107	40.62
371.317	52.91
371.528	-22.87
371.739	54.95
371.95	57
372.16	73.39
372.371	11.95
372.582	16.04
372.792	48.81
373.003	-33.11
373.214	67.24
373.424	75.43
373.635	-14.68
373.846	79.53
374.056	-80.21
374.267	38.57
374.477	-43.35
374.688	81.58
374.898	48.81
375.109	18.09
375.319	-18.77
375.53	65.19
375.74	-18.77
375.951	-8.53
376.161	65.19
376.372	140.97
376.582	81.58
376.793	-10.58
377.003	50.86
377.214	-33.11
377.424	22.19
377.635	26.28
377.845	-41.3
378.055	87.72
378.266	36.52
378.476	38.57
378.686	63.15
378.897	54.95
379.107	95.91
379.317	52.91
379.528	-8.53
379.738	57
379.948	40.62
380.158	38.57
380.369	-10.58
380.579	46.76
380.789	75.43
380.999	42.67
381.21	22.19
381.42	118.44
381.63	42.67
381.84	22.19
382.05	42.67
382.261	22.19
382.471	48.81
382.681	5.8
382.891	16.04
383.101	7.85
383.311	-6.49
383.521	26.28
383.731	42.67
383.941	30.38
384.151	34.47
384.361	44.71
384.571	108.2
384.781	81.58
384.991	116.39
385.201	48.81
385.411	32.43
385.621	30.38
385.831	7.85
386.041	65.19
386.251	7.85
386.461	79.53
386.671	32.43
386.881	38.57
387.091	30.38
387.301	40.62
387.511	40.62
387.72	13.99
387.93	65.19
388.14	-45.4
388.35	-6.49
388.56	91.82
388.769	73.39
388.979	11.95
389.189	22.19
389.399	50.86
389.609	9.9
389.818	42.67
390.028	20.14
390.238	89.77
390.447	71.34
390.657	34.47
390.867	-18.77
391.076	-29.01
391.286	79.53
391.496	28.33
391.705	13.99
391.915	16.04
392.125	57
392.334	24.23
392.544	36.52
392.753	87.72
392.963	11.95
393.172	32.43
393.382	7.85
393.591	40.62
393.801	63.15
394.01	48.81
394.22	81.58
394.429	54.95
394.639	34.47
394.848	52.91
395.058	93.87
395.267	87.72
395.477	97.96
395.686	-0.34
395.895	48.81
396.105	130.73
396.314	79.53
396.524	36.52
396.733	-41.3
396.942	104.11
397.152	-6.49
397.361	104.11
397.57	38.57
397.78	22.19
397.989	59.05
398.198	143.02
398.407	24.23
398.617	97.96
398.826	153.26
399.035	34.47
399.244	46.76
399.453	1.71
399.663	122.54
399.872	1.71
400.081	46.76
400.29	114.34
400.499	24.23
400.708	108.2
400.917	13.99
401.127	73.39
401.336	9.9
401.545	161.45
401.754	81.58
401.963	87.72
402.172	48.81
402.381	65.19
402.59	65.19
402.799	112.3
403.008	81.58
403.217	52.91
403.426	-14.68
403.635	63.15
403.844	42.67
404.053	112.3
404.262	116.39
404.471	50.86
404.68	110.25
404.888	67.24
405.097	9.9
405.306	87.72
405.515	79.53
405.724	79.53
405.933	71.34
406.142	140.97
406.35	87.72
406.559	59.05
406.768	77.48
406.977	181.93
407.185	95.91
407.394	124.58
407.603	77.48
407.812	183.98
408.02	71.34
408.229	73.39
408.438	85.67
408.646	120.49
408.855	128.68
409.064	120.49
409.272	169.64
409.481	159.4
409.69	122.54
409.898	130.73
410.107	222.89
410.315	186.02
410.524	120.49
410.733	245.41
410.941	212.65
411.15	122.54
411.358	179.88
411.567	153.26
411.775	276.13
411.984	149.16
412.192	97.96
412.401	302.76
412.609	235.18
412.818	300.71
413.026	190.12
413.234	243.37
413.443	296.61
413.651	257.7
413.86	319.14
414.068	325.29
414.276	407.2
414.485	374.44
414.693	267.94
414.901	331.43
415.11	421.54
415.318	325.29
415.526	431.78
415.734	419.49
415.943	409.25
416.151	364.2
416.359	403.11
416.567	390.82
416.776	493.22
416.984	452.26
417.192	546.47
417.4	421.54
417.608	480.93
417.817	482.98
418.025	513.7
418.233	607.91
418.441	597.67
418.649	591.52
418.857	566.95
419.065	612
419.273	595.62
419.481	636.58
419.689	677.54
419.897	736.93
420.105	736.93
420.313	759.46
420.521	759.46
420.729	779.93
420.937	857.76
421.145	849.57
421.353	933.53
421.561	964.25
421.769	970.4
421.977	964.25
422.185	1023.64
422.393	1068.7
422.601	1066.65
422.809	1066.65
423.017	1187.48
423.224	1121.95
423.432	1320.6
423.64	1199.77
423.848	1394.33
424.056	1265.3
424.263	1449.62
424.471	1390.23
424.679	1496.72
424.887	1580.69
425.094	1488.53
425.302	1506.96
425.51	1541.78
425.718	1662.61
425.925	1816.21
426.133	1758.86
426.341	1822.35
426.548	1916.56
426.756	1924.75
426.964	1994.38
427.171	2053.77
427.379	2078.35
427.586	2102.92
427.794	2258.57
428.001	2373.25
428.209	2391.69
428.417	2399.88
428.624	2586.24
428.832	2524.8
429.039	2483.84
429.247	2446.98
429.454	2688.64
429.662	2918.01
429.869	2702.98
430.076	2965.12
430.284	2879.1
430.491	2885.25
430.699	3157.63
430.906	3163.77
431.114	3118.72
431.321	3366.52
431.528	3397.24
431.736	3511.93
431.943	3765.87
432.15	3597.94
432.358	3831.41
432.565	3913.33
432.772	3915.37
432.979	4120.17
433.187	4044.4
433.394	4079.21
433.601	4453.99
433.808	4421.22
434.016	4406.89
434.223	4695.65
434.43	4839.01
434.637	4652.64
434.844	5154.4
435.052	5213.79
435.259	5072.48
435.466	5264.99
435.673	5277.27
435.88	5363.29
436.087	5819.99
436.294	5650
436.501	5690.96
436.708	5668.44
436.915	5895.76
437.122	6153.8
437.329	6133.33
437.537	6248.01
437.743	6487.62
437.95	6504.01
438.157	6706.76
438.364	6880.83
438.571	6831.68
438.778	6886.98
438.985	7525.94
439.192	7403.07
439.399	7552.57
439.606	7468.6
439.813	7732.79
440.02	8416.81
440.227	8048.18
440.433	8166.96
440.64	8336.94
440.847	8390.19
441.054	8666.66
441.261	9156.13
441.467	8953.38
441.674	9117.22
441.881	9270.81
442.088	9317.92
442.294	9426.46
442.501	9645.59
442.708	9608.73
442.914	10108.43
443.121	10675.72
443.328	10249.74
443.534	11005.44
443.741	10698.25
443.948	10317.33
444.154	11369.98
444.361	11197.95
444.568	11228.67
444.774	11122.18
444.981	11335.17
445.187	11714.04
445.394	12105.2
445.6	11728.38
445.807	13295.07
446.013	12719.59
446.22	12912.1
446.426	13178.34
446.633	13452.77
446.839	14171.6
447.046	13417.95
447.252	14065.11
447.459	14276.05
447.665	14124.5
447.871	14988.74
448.078	15310.27
448.284	14810.57
448.491	15023.56
448.697	15693.24
448.903	15922.62
449.11	15893.94
449.316	15605.18
449.522	16164.28
449.728	16346.55
449.935	16588.21
450.141	16590.25
450.347	16764.33
450.553	16176.56
450.76	16661.93
450.966	17159.59
451.172	16950.7
451.378	17345.95
451.584	16979.37
451.791	17696.16
451.997	17466.78
452.203	17857.95
452.409	18011.54
452.615	17950.1
452.821	17063.33
453.027	16840.11
453.233	17849.75
453.44	17116.58
453.646	17253.8
453.852	17534.37
454.058	17739.16
454.264	17098.15
454.47	17356.19
454.676	17223.08
454.882	17845.66
455.088	16143.8
455.294	16545.2
455.5	16700.84
455.705	16989.61
455.911	16246.19
456.117	15885.75
456.323	16000.44
456.529	14841.29
456.735	15533.5
456.941	15048.13
457.147	14826.95
457.352	14540.24
457.558	14325.2
457.764	14353.87
457.97	13870.55
458.176	13899.22
458.381	13886.93
458.587	13207.01
458.793	13123.04
458.999	12574.19
459.204	13336.03
459.41	12973.54
459.616	12076.53
459.821	12129.78
460.027	11924.98
460.233	11992.56
460.438	11417.08
460.644	11548.15
460.85	10825.22
461.055	10698.25
461.261	10489.35
461.466	9823.76
461.672	9819.67
461.878	10237.45
462.083	9594.39
462.289	9506.33
462.494	9354.78
462.7	8986.15
462.905	8877.6
463.111	9119.26
463.316	9201.18
463.522	8877.6
463.727	8984.1
463.932	8953.38
464.138	8820.26
464.343	8973.86
464.549	8420.91
464.754	8898.08
464.959	8650.28
465.165	8594.98
465.37	8484.39
465.575	8216.11
465.781	8560.17
465.986	8425
466.191	8132.14
466.397	8042.03
466.602	7634.49
466.807	7956.02
467.012	7747.12
467.218	7767.6
467.423	7777.84
467.628	7642.68
467.833	8189.49
468.038	7853.62
468.244	7605.81
468.449	7755.32
468.654	7517.75
468.859	7609.91
469.064	7620.15
469.269	7145.02
469.474	7386.68
469.679	7386.68
469.885	7165.5
470.09	7269.95
470.295	7362.11
470.5	7206.46
470.705	7194.17
470.91	7040.58
471.115	6895.17
471.32	7077.44
471.525	7005.76
471.73	6911.55
471.935	6985.28
472.139	6760
472.344	6717
472.549	6651.46
472.754	6604.36
472.959	6512.2
473.164	6385.23
473.369	6264.4
473.574	6495.82
473.778	6370.89
473.983	6256.2
474.188	6434.38
474.393	5912.14
474.598	6192.72
474.802	5987.92
475.007	6014.54
475.212	6106.7
475.417	5754.45
475.621	5707.35
475.826	5756.5
476.031	5717.59
476.235	5580.37
476.44	5717.59
476.645	5482.07
476.849	5432.92
477.054	5490.26
477.259	5437.02
477.463	5537.37
477.668	5189.21
477.872	5422.68
478.077	5174.88
478.282	5142.11
478.486	5160.54
478.691	4996.7
478.895	4986.46
479.1	5125.72
479.304	5166.68
479.509	4945.5
479.713	4982.37
479.918	4939.36
480.122	4810.34
480.326	4875.87
480.531	4826.72
480.735	4910.69
480.94	4814.43
481.144	4857.44
481.348	4783.71
481.553	4765.28
481.757	4587.11
481.961	4859.49
482.166	4789.86
482.37	4779.62
482.574	4601.44
482.778	4718.18
482.983	4642.4
483.187	4724.32
483.391	4724.32
483.595	4666.98
483.8	4601.44
484.004	4570.72
484.208	4503.14
484.412	4576.87
484.616	4748.9
484.821	4718.18
485.025	4355.69
485.229	4750.95
485.433	4666.98
485.637	4642.4
485.841	4540.01
486.045	4744.8
486.249	4535.91
486.453	4587.11
486.657	4593.25
486.861	4509.29
487.065	4630.12
487.269	4775.52
487.473	4712.03
487.677	4822.63
487.881	4685.41
488.085	4593.25
488.289	4685.41
488.493	4709.99
488.697	4648.55
488.901	4666.98
489.105	4679.27
489.309	4705.89
489.512	4644.45
489.716	4736.61
489.92	4761.19
490.124	4707.94
490.328	4988.51
490.531	4740.71
490.735	4664.93
490.939	4857.44
491.143	4830.82
491.346	4763.23
491.55	4800.1
491.754	4798.05
491.958	4894.3
492.161	4775.52
492.365	4863.58
492.569	4939.36
492.772	4894.3
492.976	4990.56
493.18	4951.65
493.383	5072.48
493.587	4929.12
493.79	5199.45
493.994	5086.81
494.197	5031.52
494.401	5150.3
494.605	5189.21
494.808	5252.7
495.012	5285.47
495.215	5340.76
495.419	5375.58
495.622	5267.03
495.825	5404.25
496.029	5373.53
496.232	5584.47
496.436	5510.74
496.639	5695.06
496.843	5617.24
497.046	5750.35
497.249	5752.4
497.453	5813.84
497.656	5776.98
497.859	5942.86
498.063	5897.81
498.266	6080.08
498.469	6075.98
498.673	6043.21
498.876	6110.8
499.079	6272.59
499.282	6248.01
499.485	6534.73
499.689	6444.62
499.892	6651.46
500.095	6415.94
500.298	6673.99
500.501	6602.31
500.705	6641.22
500.908	6932.03
501.111	6821.44
501.314	6968.9
501.517	7147.07
501.72	7190.08
501.923	7226.94
502.126	7296.57
502.329	7401.02
502.532	7566.9
502.735	7673.4
502.938	7720.5
503.141	7669.3
503.344	7779.89
503.547	8025.65
503.75	8123.95
503.953	8134.19
504.156	8117.81
504.359	8238.64
504.562	8248.88
504.765	8597.03
504.968	8502.82
505.17	8746.53
505.373	8664.61
505.576	8762.92
505.779	8881.7
505.982	8996.39
506.185	9254.43
506.387	9068.06
506.59	9184.8
506.793	9561.62
506.996	9401.88
507.198	9750.04
507.401	9635.35
507.604	9844.24
507.807	9991.7
508.009	10106.38
508.212	10272.27
508.415	10354.19
508.617	10237.45
508.82	10438.16
509.022	10518.03
509.225	10769.93
509.428	10632.71
509.63	10935.81
509.833	10868.23
510.035	11132.42
510.238	11302.4
510.44	11537.91
510.643	11509.24
510.845	11601.4
511.048	11378.17
511.25	11884.02
511.453	11785.72
511.655	12221.94
511.858	12213.74
512.06	12221.94
512.262	12584.43
512.465	12146.16
512.667	12819.94
512.87	12871.14
513.072	12695.02
513.274	13219.3
513.477	13342.18
513.679	13256.16
513.881	13473.25
514.084	13858.26
514.286	13415.9
514.488	13784.54
514.69	14081.49
514.893	14235.09
515.095	14360.02
515.297	14540.24
515.499	14435.79
515.701	14452.17
515.904	14876.1
516.106	15152.58
516.308	15222.21
516.51	15345.09
516.712	15388.1
516.914	15474.11
517.116	15558.08
517.318	15859.13
517.52	15891.9
517.722	16053.69
517.925	16027.06
518.127	16723.37
518.329	16743.85
518.531	16631.21
518.733	16827.82
518.935	16874.92
519.136	16905.64
519.338	17505.7
519.54	17749.4
519.742	17560.99
519.944	17630.62
520.146	18029.98
520.348	18081.17
520.55	18257.3
520.752	18402.71
520.954	18556.3
521.155	18587.02
521.357	19002.76
521.559	19086.73
521.761	19381.63
521.963	19244.42
522.164	19285.38
522.366	19527.04
522.568	19926.39
522.77	19709.31
522.971	19764.61
523.173	19774.84
523.375	20145.53
523.576	20104.57
523.778	20323.7
523.98	20544.88
524.181	20632.94
524.383	20432.24
524.584	20872.56
524.786	21218.66
524.988	21005.67
525.189	21452.13
525.391	21579.11
525.592	21652.83
525.794	21677.41
525.995	21738.85
526.197	22127.96
526.398	21722.46
526.6	22091.1
526.801	22283.61
527.003	22224.22
527.204	22336.85
527.406	22594.9
527.607	22244.7
527.808	22807.89
528.01	22437.2
528.211	22617.43
528.412	23141.71
528.614	22762.83
528.815	23129.42
529.016	23493.96
529.218	23072.07
529.419	23174.47
529.62	23373.13
529.822	23387.46
530.023	23338.31
530.224	23250.25
530.425	23264.58
530.626	23344.45
530.828	23199.05
531.029	23878.97
531.23	23485.76
531.431	23399.75
531.632	23428.42
531.833	23889.21
532.035	23686.47
532.236	23868.73
532.437	23852.35
532.638	23868.73
532.839	23799.1
533.04	24223.03
533.241	23934.27
533.442	24530.23
533.643	24057.15
533.844	23921.98
534.045	24126.78
534.246	23612.74
534.447	24167.74
534.648	23784.77
534.849	24094.01
535.05	24132.92
535.251	23846.21
535.451	24110.39
535.652	24175.93
535.853	24425.78
536.054	24200.51
536.255	24112.44
536.456	24202.55
536.657	24501.56
536.857	24180.03
537.058	24231.22
537.259	24433.97
537.46	24122.68
537.66	24237.37
537.861	24118.59
538.062	24280.38
538.263	24153.4
538.463	24188.22
538.664	24120.63
538.865	24274.23
539.065	24450.36
539.266	24268.09
539.466	24382.77
539.667	24177.98
539.868	24474.93
540.068	24108.35
540.269	24644.91
540.469	24382.77
540.67	24081.72
540.87	24245.56
541.071	24126.78
541.271	24233.27
541.472	24442.17
541.672	24073.53
541.873	24048.96
542.073	23903.55
542.274	24251.7
542.474	24147.26
542.675	24282.42
542.875	24429.88
543.075	24161.59
543.276	23868.73
543.476	24397.11
543.676	24024.38
543.877	24274.23
544.077	24188.22
544.277	23979.32
544.478	23883.07
544.678	24077.63
544.878	24110.39
545.078	24048.96
545.279	23885.12
545.479	24153.4
545.679	24382.77
545.879	24026.43
546.079	24202.55
546.28	24376.63
546.48	23964.99
546.68	24241.46
546.88	23835.97
547.08	23737.66
547.28	24110.39
547.48	23745.86
547.68	23975.23
547.88	24212.79
548.081	24159.55
548.281	23995.71
548.481	23780.67
548.681	24202.55
548.881	24304.95
549.081	24094.01
549.28	24184.12
549.48	24124.73
549.68	23868.73
549.88	24034.62
550.08	23842.11
550.28	24038.72
550.48	24114.49
550.68	24018.24
550.88	23752
551.08	23885.12
551.279	24098.11
551.479	23807.3
551.679	23801.15
551.879	23741.76
552.079	24165.69
552.278	23915.84
552.478	23797.06
552.678	24098.11
552.878	24245.56
553.077	23856.45
553.277	23733.57
553.477	24075.58
553.676	23934.27
553.876	23659.84
554.076	24180.03
554.275	23952.7
554.475	23407.94
554.674	23833.92
554.874	23903.55
555.074	23645.51
555.273	23762.24
555.473	23833.92
555.672	23672.13
555.872	23692.61
556.071	23729.47
556.271	23915.84
556.47	23459.14
556.67	23561.54
556.869	23473.48
557.068	23637.31
557.268	23407.94
557.467	23627.07
557.667	23274.82
557.866	23526.72
558.065	23313.73
558.265	23082.31
558.464	23067.98
558.663	23291.21
558.863	22961.48
559.062	23231.82
559.261	22955.34
559.461	23057.74
559.66	22764.88
559.859	22633.81
560.058	22713.68
560.258	22961.48
560.457	22857.04
560.656	22803.79
560.855	22963.53
561.054	22871.37
561.253	22736.21
561.453	23098.7
561.652	22758.74
561.851	22787.41
562.05	22508.88
562.249	22779.22
562.448	22697.3
562.647	22697.3
562.846	22553.94
563.045	22320.47
563.244	22013.27
563.443	22781.26
563.642	22117.72
563.841	22173.02
564.04	22009.18
564.239	22302.04
564.438	21884.25
564.637	22017.37
564.836	21986.65
565.035	21833.05
565.234	22035.8
565.432	21898.59
565.631	21945.69
565.83	21712.22
566.029	21634.4
566.228	21658.98
566.427	21407.08
566.625	21304.68
566.824	21368.16
567.023	21820.77
567.222	21079.4
567.42	21212.52
567.619	21157.22
567.818	21175.66
568.016	21370.21
568.215	21065.07
568.414	21323.11
568.612	20979.05
568.811	21042.54
569.01	20993.39
569.208	20694.38
569.407	21122.41
569.605	20499.83
569.804	20837.74
570.002	20579.7
570.201	20583.79
570.4	20166.01
570.598	20616.56
570.797	20252.02
570.995	20215.16
571.193	20088.18
571.392	20297.08
571.59	19998.07
571.789	20206.97
571.987	19940.73
572.186	20053.37
572.384	19856.76
572.582	19821.95
572.781	19778.94
572.979	19549.57
573.177	19561.86
573.376	19715.45
573.574	19617.15
573.772	19629.44
573.971	19322.24
574.169	19441.03
574.367	19135.88
574.565	19537.28
574.763	19211.65
574.962	19053.96
575.16	19019.14
575.358	18967.95
575.556	18914.7
575.754	19150.21
575.952	18707.85
576.151	18974.09
576.349	18445.71
576.547	18742.67
576.745	18871.69
576.943	18660.75
577.141	18384.27
577.339	18531.73
577.537	18159
577.735	18382.23
577.933	18208.15
578.131	18331.03
578.329	18355.6
578.527	18126.23
578.725	18105.75
578.923	18085.27
579.121	18150.81
579.319	18046.36
579.516	17892.76
579.714	17857.95
579.912	17808.79
580.11	17788.32
580.308	17544.61
580.506	17898.91
580.704	17225.12
580.901	17604
581.099	17577.37
581.297	17409.44
581.495	17206.69
581.692	17589.66
581.89	17427.87
582.088	17323.43
582.285	17515.94
582.483	17356.19
582.681	17354.15
582.878	16825.77
583.076	16838.06
583.274	17143.21
583.471	17094.05
583.669	17012.14
583.866	16688.56
584.064	16995.75
584.262	16823.72
584.459	16790.95
584.657	16547.25
584.854	16602.54
585.052	16485.81
585.249	16584.11
585.447	16348.59
585.644	16422.32
585.841	16385.46
586.039	16704.94
586.236	16328.11
586.434	16135.6
586.631	16008.63
586.828	16233.91
587.026	16104.88
587.223	16061.88
587.42	16195
587.618	16059.83
587.815	15838.65
588.012	15902.14
588.21	15840.7
588.407	15668.67
588.604	15701.44
588.801	15545.79
588.999	15672.76
589.196	15525.31
589.393	15572.41
589.59	15336.9
589.787	15506.88
589.984	15295.94
590.182	14982.6
590.379	15263.17
590.576	14933.45
590.773	15345.09
590.97	15271.36
591.167	15328.7
591.364	15224.26
591.561	15078.85
591.758	14726.6
591.955	14898.63
592.152	14863.82
592.349	14661.07
592.546	14890.44
592.743	14853.58
592.94	14507.47
593.137	14595.53
593.334	14538.19
593.531	14546.38
593.727	14603.72
593.924	14505.42
594.121	14439.89
594.318	14493.13
594.515	14181.84
594.712	14353.87
594.908	14306.77
595.105	14243.28
595.302	14069.2
595.499	14411.21
595.696	14040.53
595.892	13837.78
596.089	13975
596.286	13956.57
596.482	14144.98
596.679	13682.14
596.876	13891.03
597.072	13753.82
597.269	13944.28
597.466	13567.45
597.662	13647.32
597.859	13641.18
598.055	13714.91
598.252	13596.12
598.448	13579.74
598.645	13391.33
598.841	13260.26
599.038	13411.81
599.234	13383.13
599.431	13399.52
599.627	13301.22
599.824	13088.23
600.02	13049.32
600.217	13280.74
600.413	13039.08
600.609	12959.2
600.806	13108.71
601.002	13114.85
601.198	12826.09
601.395	12627.43
601.591	12817.9
601.787	12877.29
601.984	12690.92
602.18	12744.17
602.376	12588.52
602.572	12744.17
602.769	12735.98
602.965	12529.13
603.161	12639.72
603.357	12482.03
603.553	12408.3
603.75	12535.28
603.946	12434.92
604.142	12322.29
604.338	12342.77
604.534	12230.13
604.73	12170.74
604.926	11978.23
605.122	12162.55
605.318	12056.05
605.514	11736.57
605.71	11994.61
605.906	11988.47
606.102	12097.01
606.298	12107.25
606.494	11904.5
606.69	11970.04
606.886	11853.3
607.082	11711.99
607.278	11718.14
607.474	11609.59
607.67	11804.15
607.866	11384.32
608.062	11767.29
608.257	11509.24
608.453	11736.57
608.649	11675.13
608.845	11269.63
609.041	11367.93
609.236	11431.42
609.432	11277.82
609.628	11511.29
609.824	11298.3
610.019	11374.08
610.215	11470.33
610.411	11372.03
610.606	11240.96
610.802	11220.48
610.998	11120.13
611.193	11152.9
611.389	11169.28
611.584	11017.73
611.78	11019.78
611.976	11234.82
612.171	10982.92
612.367	11238.91
612.562	10886.66
612.758	10679.82
612.953	10798.6
613.149	10911.24
613.344	10876.42
613.539	11034.11
613.735	10843.65
613.93	10798.6
614.126	10921.48
614.321	10950.15
614.517	10776.07
614.712	10741.25
614.907	10827.27
615.103	10708.49
615.298	10747.4
615.493	10708.49
615.688	10657.29
615.884	10790.41
616.079	10534.41
616.274	10685.96
616.47	10438.16
616.665	10520.07
616.86	10397.2
617.055	10370.57
617.25	10343.95
617.445	10477.07
617.641	10294.8
617.836	10599.94
618.031	9993.75
618.226	10415.63
618.421	10069.52
618.616	10511.88
618.811	10251.79
619.006	10122.77
619.201	9895.44
619.396	10163.73
619.591	9899.54
619.786	10165.78
619.981	9786.9
620.176	9891.35
620.371	9881.11
620.566	9737.75
620.761	9635.35
620.956	9707.03
621.151	9676.31
621.346	9612.82
621.541	9489.95
621.735	9676.31
621.93	9352.73
622.125	9264.67
622.32	9258.53
622.515	9231.9
622.709	9346.59
622.904	9281.05
623.099	9246.24
623.294	9092.64
623.488	9098.78
623.683	9049.63
623.878	8939.04
624.072	9117.22
624.267	8934.95
624.462	8803.88
624.656	8736.29
624.851	8844.84
625.046	8674.85
625.24	8717.86
625.435	8488.49
625.629	8642.09
625.824	8443.43
626.018	8429.1
626.213	8316.46
626.407	8603.18
626.602	8181.29
626.796	8310.32
626.991	8295.98
627.185	8001.07
627.38	8085.04
627.574	8173.1
627.768	7884.34
627.963	7837.24
628.157	7966.26
628.352	7956.02
628.546	7855.67
628.74	7958.07
628.935	7956.02
629.129	7689.78
629.323	7775.8
629.517	7419.45
629.712	7683.64
629.906	7626.29
630.1	7411.26
630.294	7603.77
630.489	7390.78
630.683	7460.41
630.877	7306.81
631.071	7521.85
631.265	7423.55
631.459	7147.07
631.653	7188.03
631.848	7079.49
632.042	7239.23
632.236	7214.65
632.43	7016
632.624	7083.58
632.818	7216.7
633.012	6995.52
633.206	6717
633.4	7013.95
633.594	6846.02
633.788	7032.38
633.982	6762.05
634.176	6864.45
634.369	6700.61
634.563	6669.89
634.757	6583.88
634.951	6694.47
635.145	6411.85
635.339	6583.88
635.533	6477.38
635.726	6526.54
635.92	6280.78
636.114	6522.44
636.308	6370.89
636.501	6358.6
636.695	6393.42
636.889	6159.95
637.083	6256.2
637.276	6084.17
637.47	6051.41
637.664	6102.61
637.857	6157.9
638.051	6133.33
638.244	6102.61
638.438	6166.09
638.632	6186.57
638.825	5942.86
639.019	5957.2
639.212	5840.47
639.406	5813.84
639.599	5731.92
639.793	5848.66
639.986	5883.47
640.18	5736.02
640.373	5672.53
640.567	5633.62
640.76	5627.48
640.954	5600.85
641.147	5627.48
641.34	5416.54
641.534	5645.91
641.727	5477.98
641.92	5543.51
642.114	5531.22
642.307	5412.44
642.5	5402.2
642.694	5181.02
642.887	5146.2
643.08	5084.77
643.273	5207.64
643.467	5172.83
643.66	5068.38
643.853	4990.56
644.046	5076.57
644.239	5062.24
644.432	4970.08
644.626	4875.87
644.819	5006.94
645.012	4947.55
645.205	4904.54
645.398	5017.18
645.591	4767.33
645.784	4949.6
645.977	4540.01
646.17	4914.78
646.363	4839.01
646.556	4709.99
646.749	4609.64
646.942	4822.63
647.135	4611.68
647.328	4738.66
647.521	4658.79
647.714	4634.21
647.907	4521.57
648.099	4544.1
648.292	4570.72
648.485	4480.61
648.678	4585.06
648.871	4415.08
649.064	4384.36
649.256	4474.47
649.449	4273.77
649.642	4406.89
649.835	4308.58
650.027	4214.38
650.22	4200.04
650.413	4109.93
650.605	4300.39
650.798	4191.85
650.991	4148.84
651.183	4152.94
651.376	4251.24
651.568	4005.49
651.761	4130.41
651.954	4023.92
652.146	4144.75
652.339	4019.82
652.531	4017.77
652.724	3868.27
652.916	3929.71
653.109	3948.14
653.301	3882.61
653.494	4021.87
653.686	3763.83
653.879	3790.45
654.071	3839.6
654.263	3774.07
654.456	3774.07
654.648	3837.55
654.84	3712.63
655.033	3833.46
655.225	3757.68
655.417	3597.94
655.61	3761.78
655.802	3645.04
655.994	3628.66
656.186	3548.79
656.379	3614.32
656.571	3546.74
656.763	3522.16
656.955	3446.39
657.148	3481.21
657.34	3561.08
657.532	3493.49
657.724	3475.06
657.916	3425.91
658.108	3421.81
658.3	3413.62
658.492	3563.12
658.684	3274.36
658.876	3335.8
659.068	3391.09
659.26	3286.65
659.452	3389.05
659.644	3282.55
659.836	3253.88
660.028	3376.76
660.22	3192.44
660.412	3249.79
660.604	3249.79
660.796	3219.07
660.988	3122.81
661.18	3137.15
661.372	3155.58
661.563	3137.15
661.755	3108.48
661.947	2981.5
662.139	3030.65
662.331	3100.28
662.522	3063.42
662.714	2967.17
662.906	2948.73
663.097	2965.12
663.289	3008.12
663.481	2913.92
663.673	2954.88
663.864	2975.36
664.056	2883.2
664.247	2901.63
664.439	2768.51
664.631	2770.56
664.822	2856.58
665.014	2870.91
665.205	2807.42
665.397	2756.22
665.588	2877.05
665.78	2752.13
665.971	2774.66
666.163	2809.47
666.354	2852.48
666.546	2743.94
666.737	2565.76
666.929	2709.12
667.12	2678.4
667.311	2684.55
667.503	2627.2
667.694	2596.48
667.885	2610.82
668.077	2600.58
668.268	2580.1
668.459	2557.57
668.651	2483.84
668.842	2586.24
669.033	2479.75
669.224	2598.53
669.416	2629.25
669.607	2512.52
669.798	2432.65
669.989	2520.71
670.18	2545.28
670.371	2518.66
670.563	2537.09
670.754	2463.37
670.945	2446.98
671.136	2434.69
671.327	2522.76
671.518	2541.19
671.709	2520.71
671.9	2377.35
672.091	2494.08
672.282	2397.83
672.473	2489.99
672.664	2352.77
672.855	2358.92
673.046	2344.58
673.237	2266.76
673.428	2352.77
673.619	2330.25
673.809	2291.34
674	2317.96
674.191	2336.39
674.382	2277
674.573	2262.66
674.764	2250.38
674.954	2377.35
675.145	2299.53
675.336	2205.32
675.527	2184.84
675.717	2268.81
675.908	2244.23
676.099	2223.75
676.289	2107.02
676.48	2078.35
676.671	2340.49
676.861	2274.95
677.052	2170.51
677.243	2147.98
677.433	2152.07
677.624	2270.86
677.814	2152.07
678.005	2107.02
678.195	2182.79
678.386	2252.42
678.576	2096.78
678.767	2193.03
678.957	1930.89
679.148	2160.27
679.338	2119.31
679.529	2090.63
679.719	2152.07
679.909	2201.23
680.1	2242.18
680.29	2107.02
680.481	2135.69
680.671	2162.31
680.861	2145.93
681.052	2160.27
681.242	2006.67
681.432	2201.23
681.622	2076.3
681.813	2004.62
682.003	2096.78
682.193	1947.28
682.383	2045.58
682.573	2066.06
682.764	2135.69
682.954	2102.92
683.144	2012.81
683.334	2102.92
683.524	2053.77
683.714	2080.39
683.904	2088.59
684.094	2133.64
684.284	1965.71
684.474	1947.28
684.664	1996.43
684.854	2055.82
685.044	2076.3
685.234	1877.65
685.424	1996.43
685.614	1912.46
685.804	2121.35
685.994	1859.21
686.184	1906.32
686.374	1988.24
686.564	2027.15
686.753	1947.28
686.943	1941.13
687.133	1916.56
687.323	1848.97
687.513	1971.85
687.702	1908.37
687.892	1939.09
688.082	1934.99
688.272	1996.43
688.461	1883.79
688.651	1990.28
688.841	1883.79
689.03	1963.66
689.22	2049.68
689.41	1865.36
689.599	1877.65
689.789	1744.53
689.979	1881.74
690.168	1871.5
690.358	1832.59
690.547	1824.4
690.737	1769.1
690.926	1783.44
691.116	1836.69
691.305	1828.49
691.495	1859.21
691.684	1775.25
691.874	1844.88
692.063	1746.58
692.252	1844.88
692.442	1791.63
692.631	1791.63
692.82	1726.1
693.01	1728.14
693.199	1758.86
693.388	1717.9
693.578	1738.38
693.767	1730.19
693.956	1662.61
694.146	1654.42
694.335	1607.31
694.524	1646.23
694.713	1668.75
694.902	1697.42
695.092	1746.58
695.281	1744.53
695.47	1740.43
695.659	1642.13
695.848	1715.86
696.037	1638.03
696.226	1726.1
696.415	1695.38
696.604	1683.09
696.793	1713.81
696.982	1701.52
697.171	1695.38
697.36	1656.47
697.549	1635.99
697.738	1599.12
697.927	1588.88
698.116	1654.42
698.305	1672.85
698.494	1584.79
698.683	1652.37
698.872	1668.75
699.061	1603.22
699.25	1633.94
699.438	1660.56
699.627	1615.51
699.816	1750.67
700.005	1590.93
700.193	1539.73
700.382	1646.23
700.571	1726.1
700.76	1664.66
700.948	1752.72
701.137	1846.93
701.326	1631.89
701.514	1607.31
701.703	1668.75
701.892	1672.85
702.08	1715.86
702.269	1615.51
702.457	1566.35
702.646	1713.81
702.834	1611.41
703.023	1642.13
703.212	1693.33
703.4	1685.14
703.589	1619.6
703.777	1650.32
703.965	1660.56
704.154	1646.23
704.342	1635.99
704.531	1607.31
704.719	1629.84
704.907	1619.6
705.096	1693.33
705.284	1635.99
705.472	1556.11
705.661	1617.55
705.849	1621.65
706.037	1664.66
706.226	1605.27
706.414	1640.08
706.602	1670.8
706.79	1660.56
706.979	1638.03
707.167	1658.51
707.355	1650.32
707.543	1611.41
707.731	1699.47
707.919	1750.67
708.107	1588.88
708.296	1722
708.484	1685.14
708.672	1603.22
708.86	1681.04
709.048	1695.38
709.236	1547.92
709.424	1586.83
709.612	1644.18
709.8	1623.7
709.988	1668.75
710.176	1615.51
710.364	1758.86
710.551	1635.99
710.739	1611.41
710.927	1711.76
711.115	1678.99
711.303	1617.55
711.491	1621.65
711.679	1717.9
711.866	1664.66
712.054	1681.04
712.242	1644.18
712.43	1595.03
712.617	1681.04
712.805	1738.38
712.993	1638.03
713.181	1590.93
713.368	1791.63
713.556	1664.66
713.744	1685.14
713.931	1689.23
714.119	1769.1
714.306	1717.9
714.494	1638.03
714.682	1672.85
714.869	1685.14
715.057	1783.44
715.244	1582.74
715.432	1642.13
715.619	1627.79
715.807	1674.9
715.994	1687.18
716.182	1660.56
716.369	1676.95
716.556	1730.19
716.744	1648.27
716.931	1619.6
717.119	1769.1
717.306	1719.95
717.493	1611.41
717.681	1738.38
717.868	1695.38
718.055	1705.62
718.242	1676.95
718.43	1635.99
718.617	1846.93
718.804	1541.78
718.991	1754.77
719.179	1687.18
719.366	1701.52
719.553	1793.68
719.74	1668.75
719.927	1703.57
720.114	1695.38
720.301	1797.78
720.488	1584.79
720.676	1586.83
720.863	1719.95
721.05	1726.1
721.237	1803.92
721.424	1681.04
721.611	1687.18
721.798	1707.66
721.985	1717.9
722.172	1619.6
722.358	1750.67
722.545	1656.47
722.732	1652.37
722.919	1648.27
723.106	1726.1
723.293	1572.5
723.48	1705.62
723.667	1627.79
723.853	1734.29
724.04	1644.18
724.227	1662.61
724.414	1635.99
724.6	1603.22
724.787	1619.6
724.974	1740.43
725.161	1689.23
725.347	1607.31
725.534	1693.33
725.72	1683.09
725.907	1642.13
726.094	1687.18
726.28	1615.51
726.467	1656.47
726.653	1697.42
726.84	1646.23
727.027	1767.06
727.213	1719.95
727.4	1683.09
727.586	1750.67
727.773	1662.61
727.959	1701.52
728.145	1603.22
728.332	1652.37
728.518	1621.65
728.705	1654.42
728.891	1687.18
729.077	1547.92
729.264	1539.73
729.45	1750.67
729.636	1701.52
729.823	1621.65
730.009	1662.61
730.195	1699.47
730.382	1693.33
730.568	1707.66
730.754	1545.88
730.94	1627.79
731.126	1656.47
731.313	1629.84
731.499	1529.49
731.685	1635.99
731.871	1701.52
732.057	1613.46
732.243	1738.38
732.429	1795.73
732.615	1668.75
732.801	1701.52
732.987	1586.83
733.173	1595.03
733.359	1676.95
733.545	1586.83
733.731	1660.56
733.917	1762.96
734.103	1615.51
734.289	1588.88
734.475	1623.7
734.661	1545.88
734.847	1605.27
735.033	1644.18
735.219	1672.85
735.404	1668.75
735.59	1644.18
735.776	1590.93
735.962	1607.31
736.148	1595.03
736.333	1611.41
736.519	1609.36
736.705	1574.55
736.89	1640.08
737.076	1554.07
737.262	1545.88
737.447	1533.59
737.633	1539.73
737.819	1592.98
738.004	1607.31
738.19	1509.01
738.375	1549.97
738.561	1521.3
738.747	1554.07
738.932	1629.84
739.118	1539.73
739.303	1535.64
739.489	1638.03
739.674	1533.59
739.859	1459.86
740.045	1531.54
740.23	1490.58
740.416	1480.34
740.601	1635.99
740.786	1515.16
740.972	1463.96
741.157	1476.24
741.342	1408.66
741.528	1588.88
741.713	1539.73
741.898	1595.03
742.084	1459.86
742.269	1441.43
742.454	1494.68
742.639	1488.53
742.824	1529.49
743.01	1500.82
743.195	1564.31
743.38	1468.05
743.565	1455.76
743.75	1435.28
743.935	1423
744.12	1529.49
744.305	1398.42
744.49	1300.12
744.675	1398.42
744.86	1386.13
745.045	1414.81
745.23	1373.85
745.415	1410.71
745.6	1435.28
745.785	1316.5
745.97	1355.41
746.155	1316.5
746.34	1402.52
746.525	1279.64
746.71	1386.13
746.895	1332.89
747.079	1332.89
747.264	1371.8
747.449	1328.79
747.634	1279.64
747.819	1236.63
748.003	1189.53
748.188	1343.13
748.373	1320.6
748.557	1365.65
748.742	1300.12
748.927	1257.11
749.111	1285.78
749.296	1304.21
749.481	1177.24
749.665	1238.68
749.85	1234.58
750.034	1169.05
750.219	1214.1
750.404	1216.15
750.588	1201.82
750.773	1173.14
750.957	1144.47
751.141	1234.58
751.326	1109.66
751.51	1078.94
751.695	1177.24
751.879	1158.81
752.064	1222.3
752.248	1080.99
752.432	1087.13
752.617	1015.45
752.801	1048.22
752.985	1115.8
753.17	1140.38
753.354	1023.64
753.538	1054.36
753.722	1091.23
753.907	1033.88
754.091	1058.46
754.275	990.88
754.459	1013.4
754.643	964.25
754.828	976.54
755.012	992.92
755.196	964.25
755.38	968.35
755.564	954.01
755.748	949.92
755.932	960.16
756.116	923.29
756.3	984.73
756.484	980.64
756.668	1029.79
756.852	925.34
757.036	917.15
757.22	976.54
757.404	913.05
757.588	947.87
757.772	935.58
757.956	900.76
758.14	1007.26
758.323	915.1
758.507	886.43
758.691	833.18
758.875	911
759.059	831.13
759.242	915.1
759.426	941.72
759.61	874.14
759.794	931.48
759.977	831.13
760.161	892.57
760.345	892.57
760.528	745.12
760.712	837.28
760.895	816.8
761.079	884.38
761.263	736.93
761.446	804.51
761.63	734.88
761.813	900.76
761.997	829.09
762.18	794.27
762.364	808.61
762.547	788.13
762.731	784.03
762.914	800.41
763.098	706.21
763.281	775.84
763.464	714.4
763.648	702.11
763.831	702.11
764.015	712.35
764.198	747.17
764.381	759.46
764.564	757.41
764.748	751.26
764.931	798.37
765.114	777.89
765.297	747.17
765.481	659.1
765.664	792.22
765.847	718.5
766.03	695.97
766.213	738.98
766.397	730.78
766.58	698.02
766.763	698.02
766.946	745.12
767.129	710.3
767.312	712.35
767.495	638.62
767.678	659.1
767.861	628.39
768.044	669.34
768.227	657.06
768.41	661.15
768.593	644.77
768.776	648.86
768.959	681.63
769.142	693.92
769.324	632.48
769.507	859.81
769.69	687.78
769.873	607.91
770.056	714.4
770.239	581.28
770.421	700.06
770.604	685.73
770.787	646.82
770.97	622.24
771.152	630.43
771.335	587.43
771.518	587.43
771.7	714.4
771.883	612
772.066	587.43
772.248	607.91
772.431	597.67
772.613	581.28
772.796	579.23
772.978	700.06
773.161	620.19
773.343	552.61
773.526	612
773.708	614.05
773.891	546.47
774.073	589.47
774.256	491.17
774.438	648.86
774.621	538.27
774.803	648.86
774.985	499.36
775.168	616.1
775.35	472.74
775.532	581.28
775.715	599.71
775.897	542.37
776.079	491.17
776.261	515.75
776.444	497.32
776.626	550.56
776.808	517.79
776.99	499.36
777.173	497.32
777.355	509.6
777.537	462.5
777.719	485.03
777.901	458.4
778.083	466.6
778.265	505.51
778.447	425.64
778.629	407.2
778.811	401.06
778.993	489.12
779.175	595.62
779.357	394.92
779.539	423.59
779.721	491.17
779.903	429.73
780.085	343.72
780.267	407.2
780.449	427.68
780.631	466.6
780.812	454.31
780.994	442.02
781.176	378.53
781.358	442.02
781.54	360.1
781.721	437.92
781.903	417.44
782.085	431.78
782.267	439.97
782.448	403.11
782.63	435.88
782.812	456.36
782.993	366.25
783.175	431.78
783.357	358.05
783.538	458.4
783.72	335.53
783.901	390.82
784.083	368.29
784.264	413.35
784.446	300.71
784.627	382.63
784.809	378.53
784.99	331.43
785.172	337.57
785.353	333.48
785.535	325.29
785.716	337.57
785.897	298.66
786.079	366.25
786.26	284.33
786.441	386.72
786.623	298.66
786.804	360.1
786.985	276.13
787.167	235.18
787.348	360.1
787.529	333.48
787.71	302.76
787.891	349.86
788.073	304.81
788.254	235.18
788.435	399.01
788.616	249.51
788.797	274.09
788.978	345.77
789.159	280.23
789.34	306.85
789.522	341.67
789.703	294.57
789.884	278.18
790.065	302.76
790.246	349.86
790.427	288.42
790.607	263.85
790.788	329.38
790.969	192.17
791.15	263.85
791.331	267.94
791.512	218.79
791.693	177.83
791.874	237.22
792.054	300.71
792.235	276.13
792.416	120.49
792.597	265.89
792.778	304.81
792.958	292.52
793.139	214.7
793.32	302.76
793.5	231.08
793.681	235.18
793.862	231.08
794.042	229.03
794.223	210.6
794.404	202.41
794.584	198.31
794.765	255.65
794.945	177.83
795.126	190.12
795.306	231.08
795.487	216.74
795.667	292.52
795.848	226.98
796.028	294.57
796.209	259.75
796.389	229.03
796.57	163.5
796.75	194.22
796.93	194.22
797.111	233.13
797.291	177.83
797.471	235.18
797.652	222.89
797.832	179.88
798.012	210.6
798.192	143.02
798.373	218.79
798.553	110.25
798.733	147.11
798.913	218.79
799.093	194.22
799.274	257.7
799.454	253.61
799.634	251.56
799.814	237.22
799.994	206.5
800.174	165.54
800.354	155.3
800.534	120.49
800.714	194.22
800.894	102.06
801.074	136.87
801.254	161.45
801.434	140.97
801.614	157.35
801.794	179.88
801.974	722.59
802.154	194.22
802.334	177.83
802.514	112.3
802.693	186.02
802.873	243.37
803.053	257.7
803.233	169.64
803.413	112.3
803.592	161.45
803.772	190.12
803.952	157.35
804.131	104.11
804.311	124.58
804.491	212.65
804.67	108.2
804.85	153.26
805.03	155.3
805.209	212.65
805.389	110.25
805.568	226.98
805.748	200.36
805.928	138.92
806.107	143.02
806.287	226.98
806.466	122.54
806.646	108.2
806.825	59.05
807.004	128.68
807.184	120.49
807.363	118.44
807.543	140.97
807.722	140.97
807.901	198.31
808.081	116.39
808.26	75.43
808.439	112.3
808.619	128.68
808.798	73.39
808.977	186.02
809.156	155.3
809.336	157.35
809.515	161.45
809.694	71.34
809.873	138.92
810.052	95.91
810.231	206.5
810.411	77.48
810.59	202.41
810.769	122.54
810.948	169.64
811.127	87.72
811.306	128.68
811.485	104.11
811.664	177.83
811.843	104.11
812.022	122.54
812.201	151.21
812.38	124.58
812.559	13.99
812.737	136.87
812.916	120.49
813.095	83.63
813.274	126.63
813.453	71.34
813.632	83.63
813.811	81.58
813.989	59.05
814.168	106.15
814.347	83.63
814.526	50.86
814.704	134.82
814.883	149.16
815.062	42.67
815.24	136.87
815.419	112.3
815.598	163.5
815.776	63.15
815.955	163.5
816.133	124.58
816.312	97.96
816.49	71.34
816.669	67.24
816.847	102.06
817.026	116.39
817.204	67.24
817.383	48.81
817.561	59.05
817.74	145.06
817.918	85.67
818.097	161.45
818.275	61.1
818.453	130.73
818.632	186.02
818.81	26.28
818.988	104.11
819.167	46.76
819.345	104.11
819.523	71.34
819.701	196.26
819.879	54.95
820.058	63.15
820.236	147.11
820.414	118.44
820.592	48.81
820.77	120.49
820.948	114.34
821.127	59.05
821.305	112.3
821.483	114.34
821.661	136.87
821.839	79.53
822.017	159.4
822.195	79.53
822.373	30.38
822.551	54.95
822.729	73.39
822.907	24.23
823.085	83.63
823.262	46.76
823.44	128.68
823.618	-10.58
823.796	46.76
823.974	57
824.152	120.49
824.329	54.95
824.507	32.43
824.685	108.2
824.863	79.53
825.04	40.62
825.218	112.3
825.396	57
825.574	22.19
825.751	34.47
825.929	79.53
826.107	54.95
826.284	54.95
826.462	63.15
826.639	26.28
826.817	1.71
826.994	63.15
827.172	106.15
827.349	95.91
827.527	104.11
827.704	87.72
827.882	104.11
828.059	54.95
828.237	65.19
828.414	71.34
828.591	18.09
828.769	81.58
828.946	54.95
829.124	22.19
829.301	71.34
829.478	120.49
829.655	67.24
829.833	77.48
830.01	-49.49
830.187	81.58
830.364	32.43
830.542	65.19
830.719	79.53
830.896	73.39
831.073	46.76
831.25	32.43
831.427	26.28
831.604	50.86
831.782	-0.34
831.959	18.09
832.136	28.33
832.313	110.25
832.49	54.95
832.667	83.63
832.844	87.72
833.021	140.97
833.198	93.87
833.374	22.19
833.551	97.96
833.728	40.62
833.905	104.11
834.082	81.58
834.259	-18.77
834.436	79.53
834.612	104.11
834.789	97.96
834.966	-6.49
835.143	26.28
835.319	30.38
835.496	54.95
835.673	120.49
835.85	81.58
836.026	65.19
836.203	57
836.38	22.19
836.556	69.29
836.733	100.01
836.909	112.3
837.086	22.19
837.262	112.3
837.439	34.47
837.616	38.57
837.792	52.91
837.968	71.34
838.145	22.19
838.321	-12.63
838.498	42.67
838.674	5.8
838.851	81.58
839.027	63.15
839.203	18.09
839.38	36.52
839.556	34.47
839.732	24.23
839.909	13.99
840.085	54.95
840.261	48.81
840.437	63.15
840.614	32.43
840.79	83.63
840.966	38.57
841.142	42.67
841.318	63.15
841.494	44.71
841.671	30.38
841.847	79.53
842.023	95.91
842.199	91.82
842.375	42.67
842.551	24.23
842.727	-8.53
842.903	65.19
843.079	67.24
843.255	46.76
843.431	54.95
843.607	22.19
843.783	-72.02
843.959	79.53
844.134	22.19
844.31	63.15
844.486	13.99
844.662	46.76
844.838	-0.34
845.013	120.49
845.189	30.38
845.365	50.86
845.541	-33.11
845.716	54.95
845.892	38.57
846.068	77.48
846.244	-14.68
846.419	106.15
846.595	-76.12
846.77	-6.49
846.946	13.99
847.122	3.75
847.297	54.95
847.473	95.91
847.648	-45.4
847.824	89.77
847.999	38.57
848.175	52.91
848.35	61.1
848.526	36.52
848.701	75.43
848.876	26.28
849.052	24.23
849.227	-0.34
849.403	18.09
849.578	30.38
849.753	-18.77
849.929	38.57
850.104	1.71
850.279	5.8
850.454	79.53
850.63	34.47
850.805	87.72
850.98	54.95
851.155	128.68
851.33	52.91
851.505	30.38
851.681	71.34
851.856	9.9
852.031	-16.73
852.206	79.53
852.381	-29.01
852.556	48.81
852.731	97.96
852.906	50.86
853.081	87.72
853.256	24.23
853.431	81.58
853.606	-55.64
853.781	57
853.956	5.8
854.131	79.53
854.305	7.85
854.48	104.11
854.655	-43.35
854.83	5.8
855.005	79.53
855.18	65.19
855.354	46.76
855.529	63.15
855.704	-6.49
855.879	-2.39
856.053	32.43
856.228	42.67
856.403	16.04
856.577	-18.77
856.752	22.19
856.926	83.63
857.101	57
857.276	13.99
857.45	42.67
857.625	30.38
857.799	-57.68
857.974	34.47
858.148	34.47
858.323	79.53
858.497	22.19
858.672	13.99
858.846	46.76
859.02	73.39
859.195	-16.73
859.369	16.04
859.543	-20.82
859.718	38.57
859.892	22.19
860.066	13.99
860.241	-29.01
860.415	-26.96
860.589	81.58
860.763	18.09
860.938	-10.58
861.112	7.85
861.286	1.71
861.46	75.43
861.634	71.34
861.808	5.8
861.982	-65.88
862.157	13.99
862.331	40.62
862.505	-39.25
862.679	34.47
862.853	-31.06
863.027	-18.77
863.201	46.76
863.375	9.9
863.549	5.8
863.722	26.28
863.896	81.58
864.07	1.71
864.244	-49.49
864.418	42.67
864.592	5.8
864.766	9.9
864.939	-0.34
865.113	-22.87
865.287	22.19
865.461	-29.01
865.634	38.57
865.808	-31.06
865.982	5.8
866.156	-8.53
866.329	59.05
866.503	59.05
866.676	79.53
866.85	-0.34
867.024	32.43
867.197	75.43
867.371	54.95
867.544	7.85
867.718	-43.35
867.891	36.52
868.065	-33.11
868.238	18.09
868.412	65.19
868.585	-8.53
868.759	-33.11
868.932	1.71
869.105	24.23
869.279	-2.39
869.452	-16.73
869.625	18.09
869.799	11.95
869.972	-14.68
870.145	-10.58
870.319	-41.3
870.492	26.28
870.665	16.04
870.838	-8.53
871.011	-2.39
871.185	13.99
871.358	-51.54
871.531	97.96
871.704	-47.44
871.877	-10.58
872.05	-16.73
872.223	-26.96
872.396	-41.3
872.569	83.63
872.742	22.19
872.915	42.67
873.088	-31.06
873.261	26.28
873.434	26.28
873.607	18.09
873.78	30.38
873.953	-2.39
874.126	-12.63
874.299	16.04
874.471	-18.77
874.644	-4.44
874.817	3.75
874.99	40.62
875.163	-31.06
875.335	-16.73
875.508	34.47
875.681	18.09
875.853	-49.49
876.026	-2.39
876.199	22.19
876.371	-43.35
876.544	-14.68
876.717	-2.39
876.889	9.9
877.062	30.38
877.234	-51.54
877.407	38.57
877.579	71.34
877.752	-6.49
877.924	65.19
878.097	1.71
878.269	42.67
878.442	-35.16
878.614	73.39
878.786	48.81
878.959	32.43
879.131	46.76
879.303	16.04
879.476	-24.92
879.648	87.72
879.82	50.86
879.993	-4.44
880.165	-59.73
880.337	52.91
880.509	13.99
880.681	-6.49
880.854	52.91
881.026	22.19
881.198	114.34
881.37	-12.63
881.542	28.33
881.714	54.95
881.886	46.76
882.058	30.38
882.23	-26.96
882.402	-4.44
882.574	26.28
882.746	-24.92
882.918	30.38
883.09	46.76
883.262	18.09
883.434	11.95
883.606	-63.83
883.778	34.47
883.95	73.39
884.122	30.38
884.293	71.34
884.465	-55.64
884.637	9.9
884.809	26.28
884.98	54.95
885.152	-16.73
885.324	1.71
885.496	-6.49
885.667	-35.16
885.839	-55.64
886.011	16.04
886.182	-2.39
886.354	75.43
886.525	-49.49
886.697	3.75
886.869	-67.92
887.04	16.04
887.212	24.23
887.383	73.39
887.555	-59.73
887.726	18.09
887.897	24.23
888.069	11.95
888.24	-8.53
888.412	16.04
888.583	-100.69
888.754	30.38
888.926	-18.77
889.097	26.28
889.268	-10.58
889.44	11.95
889.611	-47.44
889.782	-16.73
889.953	7.85
890.125	5.8
890.296	-88.4
890.467	-14.68
890.638	44.71
890.809	30.38
890.98	-33.11
891.151	-18.77
891.323	11.95
891.494	16.04
891.665	-2.39
891.836	-26.96
892.007	32.43
892.178	22.19
892.349	54.95
892.52	-16.73
892.691	16.04
892.862	22.19
893.032	1.71
893.203	-10.58
893.374	-29.01
893.545	-33.11
893.716	57
893.887	-10.58
894.057	-43.35
894.228	48.81
894.399	-18.77
894.57	38.57
894.74	-2.39
894.911	38.57
895.082	-0.34
895.253	16.04
895.423	-67.92
895.594	-35.16
895.764	36.52
895.935	-65.88
896.106	57
896.276	-22.87
896.447	-41.3
896.617	54.95
896.788	7.85
896.958	-0.34
897.129	-16.73
897.299	5.8
897.47	28.33
897.64	-20.82
897.81	-20.82
897.981	32.43
898.151	-39.25
898.322	30.38
898.492	18.09
898.662	42.67
898.832	42.67
899.003	-26.96
899.173	89.77
899.343	38.57
899.513	-8.53
