Data from USB4F104151__216__14-45-29-547.txt Node

Date: Thu Mar 13 14:45:29 EDT 2025
User: louis
Spectrometer: USB4F10415
Trigger mode: 4
Integration Time (sec): 2.000000E-2
Scans to average: 1
Electric dark correction enabled: true
Nonlinearity correction enabled: false
Boxcar width: 0
XAxis mode: Wavelengths
Number of Pixels in Spectrum: 3648
>>>>>Begin Spectral Data<<<<<
178.204	-134.48
178.424	-134.48
178.644	-134.48
178.864	-68.95
179.084	-138.58
179.304	0.68
179.524	70.31
179.744	-19.8
179.964	-3.41
180.184	-27.99
180.404	21.16
180.624	-36.18
180.844	17.07
181.064	-11.61
181.283	-19.8
181.503	17.07
181.723	-7.51
181.943	2.73
182.163	80.55
182.383	27.31
182.602	60.07
182.822	86.7
183.042	25.26
183.262	-56.66
183.482	-19.8
183.701	33.45
183.921	33.45
184.141	17.07
184.361	29.35
184.58	70.31
184.8	58.03
185.02	51.88
185.239	45.74
185.459	-3.41
185.679	53.93
185.898	-17.75
186.118	47.79
186.338	41.64
186.557	39.59
186.777	39.59
186.997	33.45
187.216	37.55
187.436	103.08
187.655	-9.56
187.875	78.51
188.095	-15.7
188.314	12.97
188.534	82.6
188.753	39.59
188.973	94.89
189.192	113.32
189.412	29.35
189.631	15.02
189.851	-11.61
190.07	80.55
190.29	8.87
190.509	72.36
190.729	-46.42
190.948	66.22
191.168	166.57
191.387	74.41
191.607	78.51
191.826	70.31
192.045	80.55
192.265	-17.75
192.484	-25.94
192.704	76.46
192.923	72.36
193.142	94.89
193.362	10.92
193.581	103.08
193.8	12.97
194.02	39.59
194.239	4.78
194.458	-3.41
194.678	45.74
194.897	12.97
195.116	45.74
195.335	8.87
195.555	47.79
195.774	29.35
195.993	37.55
196.212	-27.99
196.432	41.64
196.651	-25.94
196.87	4.78
197.089	45.74
197.308	82.6
197.528	144.04
197.747	-36.18
197.966	53.93
198.185	64.17
198.404	12.97
198.623	58.03
198.842	47.79
199.062	70.31
199.281	45.74
199.5	74.41
199.719	47.79
199.938	64.17
200.157	39.59
200.376	-42.32
200.595	64.17
200.814	53.93
201.033	45.74
201.252	-19.8
201.471	90.79
201.69	29.35
201.909	53.93
202.128	41.64
202.347	35.5
202.566	-5.46
202.785	17.07
203.004	53.93
203.223	139.94
203.442	53.93
203.661	-27.99
203.879	31.4
204.098	107.18
204.317	-15.7
204.536	37.55
204.755	45.74
204.974	-25.94
205.193	-25.94
205.411	133.8
205.63	41.64
205.849	80.55
206.068	82.6
206.287	55.98
206.505	17.07
206.724	6.83
206.943	31.4
207.162	-5.46
207.381	-19.8
207.599	-15.7
207.818	29.35
208.037	-25.94
208.255	47.79
208.474	72.36
208.693	23.21
208.911	31.4
209.13	35.5
209.349	62.12
209.567	53.93
209.786	66.22
210.005	0.68
210.223	33.45
210.442	-60.76
210.661	53.93
210.879	64.17
211.098	-1.37
211.316	45.74
211.535	62.12
211.753	-17.75
211.972	37.55
212.191	62.12
212.409	60.07
212.628	39.59
212.846	-27.99
213.065	72.36
213.283	94.89
213.502	53.93
213.72	-1.37
213.938	72.36
214.157	49.83
214.375	21.16
214.594	45.74
214.812	2.73
215.031	72.36
215.249	-3.41
215.467	-17.75
215.686	45.74
215.904	119.46
216.122	-42.32
216.341	74.41
216.559	78.51
216.778	41.64
216.996	41.64
217.214	17.07
217.432	-40.28
217.651	4.78
217.869	-38.23
218.087	-1.37
218.306	4.78
218.524	101.03
218.742	45.74
218.96	98.99
219.179	31.4
219.397	94.89
219.615	86.7
219.833	49.83
220.051	-3.41
220.27	78.51
220.488	2.73
220.706	-36.18
220.924	80.55
221.142	51.88
221.36	88.75
221.578	4.78
221.796	4.78
222.015	55.98
222.233	-7.51
222.451	133.8
222.669	98.99
222.887	37.55
223.105	25.26
223.323	33.45
223.541	-34.13
223.759	119.46
223.977	53.93
224.195	76.46
224.413	45.74
224.631	-52.56
224.849	23.21
225.067	115.37
225.285	-7.51
225.503	53.93
225.721	-44.37
225.939	17.07
226.157	62.12
226.375	78.51
226.592	51.88
226.81	-15.7
227.028	98.99
227.246	88.75
227.464	17.07
227.682	45.74
227.9	31.4
228.117	72.36
228.335	55.98
228.553	152.23
228.771	23.21
228.989	127.66
229.206	29.35
229.424	49.83
229.642	21.16
229.86	27.31
230.077	103.08
230.295	45.74
230.513	107.18
230.731	88.75
230.948	90.79
231.166	96.94
231.384	-15.7
231.601	-5.46
231.819	88.75
232.037	23.21
232.254	21.16
232.472	-11.61
232.689	33.45
232.907	103.08
233.125	78.51
233.342	23.21
233.56	-3.41
233.777	53.93
233.995	39.59
234.213	82.6
234.43	0.68
234.648	37.55
234.865	17.07
235.083	80.55
235.3	109.22
235.518	107.18
235.735	66.22
235.953	86.7
236.17	105.13
236.388	4.78
236.605	-23.89
236.822	119.46
237.04	101.03
237.257	66.22
237.475	70.31
237.692	62.12
237.909	31.4
238.127	33.45
238.344	98.99
238.562	98.99
238.779	29.35
238.996	23.21
239.214	31.4
239.431	96.94
239.648	2.73
239.865	10.92
240.083	62.12
240.3	-19.8
240.517	78.51
240.735	35.5
240.952	90.79
241.169	64.17
241.386	-25.94
241.603	58.03
241.821	72.36
242.038	113.32
242.255	37.55
242.472	-54.61
242.689	70.31
242.907	84.65
243.124	66.22
243.341	88.75
243.558	12.97
243.775	123.56
243.992	17.07
244.209	45.74
244.426	19.11
244.643	53.93
244.86	21.16
245.078	17.07
245.295	84.65
245.512	41.64
245.729	53.93
245.946	47.79
246.163	49.83
246.38	25.26
246.597	-3.41
246.814	21.16
247.031	37.55
247.248	21.16
247.464	45.74
247.681	41.64
247.898	37.55
248.115	10.92
248.332	6.83
248.549	37.55
248.766	80.55
248.983	74.41
249.2	80.55
249.417	15.02
249.633	109.22
249.85	21.16
250.067	15.02
250.284	4.78
250.501	31.4
250.717	74.41
250.934	-3.41
251.151	62.12
251.368	45.74
251.585	-23.89
251.801	-5.46
252.018	39.59
252.235	82.6
252.451	-36.18
252.668	-7.51
252.885	35.5
253.102	21.16
253.318	58.03
253.535	45.74
253.752	-97.62
253.968	31.4
254.185	4.78
254.401	70.31
254.618	17.07
254.835	62.12
255.051	98.99
255.268	88.75
255.484	53.93
255.701	25.26
255.917	45.74
256.134	4.78
256.351	70.31
256.567	-17.75
256.784	4.78
257	12.97
257.217	103.08
257.433	37.55
257.65	45.74
257.866	23.21
258.082	25.26
258.299	17.07
258.515	29.35
258.732	66.22
258.948	12.97
259.165	37.55
259.381	-9.56
259.597	62.12
259.814	-1.37
260.03	119.46
260.246	21.16
260.463	12.97
260.679	62.12
260.895	-21.85
261.112	39.59
261.328	62.12
261.544	43.69
261.761	74.41
261.977	53.93
262.193	17.07
262.409	41.64
262.626	33.45
262.842	53.93
263.058	29.35
263.274	45.74
263.49	45.74
263.707	107.18
263.923	53.93
264.139	12.97
264.355	80.55
264.571	39.59
264.787	64.17
265.004	-36.18
265.22	103.08
265.436	35.5
265.652	-15.7
265.868	17.07
266.084	47.79
266.3	39.59
266.516	70.31
266.732	64.17
266.948	60.07
267.164	66.22
267.38	55.98
267.596	64.17
267.812	70.31
268.028	49.83
268.244	19.11
268.46	4.78
268.676	37.55
268.892	-3.41
269.108	21.16
269.324	47.79
269.54	-3.41
269.756	96.94
269.972	-17.75
270.188	58.03
270.403	31.4
270.619	-48.47
270.835	117.42
271.051	131.75
271.267	47.79
271.483	-27.99
271.698	53.93
271.914	94.89
272.13	70.31
272.346	21.16
272.562	60.07
272.777	33.45
272.993	119.46
273.209	21.16
273.425	35.5
273.64	4.78
273.856	53.93
274.072	27.31
274.287	58.03
274.503	15.02
274.719	58.03
274.934	-11.61
275.15	-58.71
275.366	12.97
275.581	96.94
275.797	53.93
276.012	8.87
276.228	49.83
276.444	-19.8
276.659	33.45
276.875	19.11
277.09	37.55
277.306	4.78
277.521	8.87
277.737	45.74
277.952	-9.56
278.168	-27.99
278.383	-23.89
278.599	86.7
278.814	45.74
279.03	45.74
279.245	144.04
279.461	37.55
279.676	72.36
279.892	29.35
280.107	45.74
280.322	-25.94
280.538	12.97
280.753	94.89
280.969	80.55
281.184	154.28
281.399	23.21
281.615	70.31
281.83	21.16
282.045	-66.9
282.26	-3.41
282.476	51.88
282.691	74.41
282.906	35.5
283.122	78.51
283.337	21.16
283.552	117.42
283.767	21.16
283.983	64.17
284.198	72.36
284.413	64.17
284.628	-19.8
284.843	80.55
285.058	35.5
285.274	103.08
285.489	70.31
285.704	70.31
285.919	21.16
286.134	43.69
286.349	-19.8
286.564	25.26
286.779	51.88
286.995	37.55
287.21	49.83
287.425	94.89
287.64	62.12
287.855	-15.7
288.07	8.87
288.285	41.64
288.5	49.83
288.715	94.89
288.93	17.07
289.145	86.7
289.36	-68.95
289.575	-73.04
289.79	53.93
290.004	-13.65
290.219	90.79
290.434	0.68
290.649	12.97
290.864	0.68
291.079	66.22
291.294	78.51
291.509	12.97
291.724	37.55
291.938	23.21
292.153	88.75
292.368	41.64
292.583	41.64
292.798	2.73
293.012	98.99
293.227	78.51
293.442	49.83
293.657	58.03
293.871	98.99
294.086	25.26
294.301	45.74
294.516	19.11
294.73	37.55
294.945	-3.41
295.16	45.74
295.374	66.22
295.589	53.93
295.804	-15.7
296.018	25.26
296.233	37.55
296.447	-17.75
296.662	-19.8
296.877	80.55
297.091	111.27
297.306	-42.32
297.52	51.88
297.735	29.35
297.949	-19.8
298.164	35.5
298.378	17.07
298.593	8.87
298.807	21.16
299.022	86.7
299.236	58.03
299.451	35.5
299.665	-3.41
299.88	66.22
300.094	74.41
300.309	23.21
300.523	35.5
300.737	51.88
300.952	8.87
301.166	43.69
301.381	4.78
301.595	53.93
301.809	78.51
302.024	8.87
302.238	17.07
302.452	94.89
302.667	12.97
302.881	55.98
303.095	4.78
303.309	103.08
303.524	4.78
303.738	60.07
303.952	53.93
304.166	70.31
304.381	-64.85
304.595	98.99
304.809	-1.37
305.023	15.02
305.237	-3.41
305.452	51.88
305.666	15.02
305.88	70.31
306.094	82.6
306.308	78.51
306.522	53.93
306.736	78.51
306.95	31.4
307.164	17.07
307.379	94.89
307.593	152.23
307.807	53.93
308.021	35.5
308.235	49.83
308.449	-13.65
308.663	6.83
308.877	53.93
309.091	21.16
309.305	41.64
309.519	-64.85
309.733	111.27
309.947	-34.13
310.161	123.56
310.374	86.7
310.588	53.93
310.802	-15.7
311.016	-3.41
311.23	103.08
311.444	-32.08
311.658	105.13
311.872	111.27
312.085	131.75
312.299	45.74
312.513	58.03
312.727	103.08
312.941	29.35
313.154	29.35
313.368	156.33
313.582	33.45
313.796	53.93
314.009	41.64
314.223	25.26
314.437	111.27
314.651	45.74
314.864	4.78
315.078	72.36
315.292	49.83
315.505	12.97
315.719	94.89
315.933	92.84
316.146	47.79
316.36	64.17
316.573	86.7
316.787	62.12
317.001	58.03
317.214	-38.23
317.428	66.22
317.641	-7.51
317.855	19.11
318.068	2.73
318.282	6.83
318.495	88.75
318.709	27.31
318.922	51.88
319.136	76.46
319.349	39.59
319.563	4.78
319.776	80.55
319.99	45.74
320.203	25.26
320.417	-1.37
320.63	78.51
320.843	152.23
321.057	-7.51
321.27	17.07
321.483	47.79
321.697	96.94
321.91	-42.32
322.124	96.94
322.337	80.55
322.55	-11.61
322.763	111.27
322.977	86.7
323.19	43.69
323.403	90.79
323.617	27.31
323.83	47.79
324.043	-36.18
324.256	29.35
324.469	8.87
324.683	23.21
324.896	-27.99
325.109	-3.41
325.322	29.35
325.535	-7.51
325.748	86.7
325.962	45.74
326.175	-27.99
326.388	51.88
326.601	94.89
326.814	19.11
327.027	98.99
327.24	121.51
327.453	-56.66
327.666	78.51
327.879	47.79
328.092	90.79
328.305	-85.33
328.518	84.65
328.731	-9.56
328.944	6.83
329.157	62.12
329.37	70.31
329.583	92.84
329.796	-17.75
330.009	78.51
330.222	64.17
330.435	84.65
330.648	-1.37
330.861	60.07
331.073	41.64
331.286	78.51
331.499	12.97
331.712	41.64
331.925	74.41
332.138	-9.56
332.35	86.7
332.563	4.78
332.776	119.46
332.989	-40.28
333.202	70.31
333.414	0.68
333.627	94.89
333.84	70.31
334.053	78.51
334.265	90.79
334.478	29.35
334.691	86.7
334.903	-17.75
335.116	21.16
335.329	39.59
335.541	82.6
335.754	98.99
335.966	53.93
336.179	29.35
336.392	101.03
336.604	29.35
336.817	-23.89
337.029	86.7
337.242	51.88
337.454	76.46
337.667	82.6
337.88	39.59
338.092	2.73
338.305	45.74
338.517	162.47
338.729	84.65
338.942	139.94
339.154	55.98
339.367	33.45
339.579	58.03
339.792	123.56
340.004	107.18
340.217	17.07
340.429	53.93
340.641	39.59
340.854	33.45
341.066	55.98
341.278	78.51
341.491	39.59
341.703	55.98
341.915	66.22
342.128	82.6
342.34	-7.51
342.552	15.02
342.764	43.69
342.977	39.59
343.189	64.17
343.401	64.17
343.613	6.83
343.826	45.74
344.038	45.74
344.25	68.27
344.462	33.45
344.674	70.31
344.886	55.98
345.099	70.31
345.311	49.83
345.523	64.17
345.735	-3.41
345.947	29.35
346.159	49.83
346.371	31.4
346.583	53.93
346.795	117.42
347.007	10.92
347.219	29.35
347.431	-19.8
347.643	72.36
347.855	15.02
348.067	45.74
348.279	-3.41
348.491	94.89
348.703	94.89
348.915	115.37
349.127	25.26
349.339	-27.99
349.551	55.98
349.763	62.12
349.975	101.03
350.187	70.31
350.399	43.69
350.61	62.12
350.822	-17.75
351.034	-5.46
351.246	-11.61
351.458	72.36
351.669	135.85
351.881	64.17
352.093	66.22
352.305	23.21
352.517	74.41
352.728	12.97
352.94	-3.41
353.152	80.55
353.363	41.64
353.575	98.99
353.787	58.03
353.999	121.51
354.21	101.03
354.422	-36.18
354.633	-9.56
354.845	39.59
355.057	103.08
355.268	23.21
355.48	115.37
355.692	-25.94
355.903	37.55
356.115	62.12
356.326	-17.75
356.538	129.7
356.749	70.31
356.961	156.33
357.172	62.12
357.384	105.13
357.595	131.75
357.807	168.62
358.018	82.6
358.23	29.35
358.441	60.07
358.653	119.46
358.864	51.88
359.075	78.51
359.287	39.59
359.498	94.89
359.709	133.8
359.921	80.55
360.132	-11.61
360.344	39.59
360.555	-3.41
360.766	86.7
360.977	123.56
361.189	72.36
361.4	25.26
361.611	64.17
361.823	78.51
362.034	80.55
362.245	12.97
362.456	21.16
362.667	72.36
362.879	49.83
363.09	66.22
363.301	94.89
363.512	103.08
363.723	21.16
363.935	0.68
364.146	64.17
364.357	-21.85
364.568	78.51
364.779	8.87
364.99	78.51
365.201	8.87
365.412	78.51
365.623	49.83
365.834	-9.56
366.045	33.45
366.256	72.36
366.467	119.46
366.678	37.55
366.889	23.21
367.1	70.31
367.311	86.7
367.522	94.89
367.733	39.59
367.944	37.55
368.155	70.31
368.366	127.66
368.577	141.99
368.788	41.64
368.999	33.45
369.209	62.12
369.42	113.32
369.631	29.35
369.842	45.74
370.053	39.59
370.264	168.62
370.474	-3.41
370.685	17.07
370.896	39.59
371.107	74.41
371.317	131.75
371.528	21.16
371.739	80.55
371.95	115.37
372.16	-3.41
372.371	78.51
372.582	90.79
372.792	152.23
373.003	23.21
373.214	62.12
373.424	0.68
373.635	29.35
373.846	62.12
374.056	15.02
374.267	88.75
374.477	123.56
374.688	0.68
374.898	39.59
375.109	17.07
375.319	21.16
375.53	49.83
375.74	66.22
375.951	62.12
376.161	49.83
376.372	129.7
376.582	66.22
376.793	39.59
377.003	33.45
377.214	41.64
377.424	62.12
377.635	94.89
377.845	-1.37
378.055	88.75
378.266	39.59
378.476	74.41
378.686	70.31
378.897	41.64
379.107	119.46
379.317	68.27
379.528	-25.94
379.738	117.42
379.948	43.69
380.158	45.74
380.369	-15.7
380.579	123.56
380.789	33.45
380.999	119.46
381.21	123.56
381.42	137.9
381.63	15.02
381.84	53.93
382.05	39.59
382.261	105.13
382.471	8.87
382.681	58.03
382.891	129.7
383.101	62.12
383.311	33.45
383.521	6.83
383.731	53.93
383.941	123.56
384.151	105.13
384.361	-9.56
384.571	86.7
384.781	144.04
384.991	88.75
385.201	94.89
385.411	62.12
385.621	53.93
385.831	64.17
386.041	123.56
386.251	55.98
386.461	98.99
386.671	17.07
386.881	29.35
387.091	107.18
387.301	51.88
387.511	111.27
387.72	31.4
387.93	37.55
388.14	43.69
388.35	37.55
388.56	154.28
388.769	21.16
388.979	21.16
389.189	-11.61
389.399	96.94
389.609	45.74
389.818	146.09
390.028	49.83
390.238	45.74
390.447	-46.42
390.657	49.83
390.867	0.68
391.076	4.78
391.286	35.5
391.496	119.46
391.705	72.36
391.915	29.35
392.125	12.97
392.334	33.45
392.544	45.74
392.753	53.93
392.963	88.75
393.172	119.46
393.382	111.27
393.591	58.03
393.801	103.08
394.01	23.21
394.22	78.51
394.429	111.27
394.639	129.7
394.848	86.7
395.058	82.6
395.267	86.7
395.477	131.75
395.686	162.47
395.895	127.66
396.105	103.08
396.314	117.42
396.524	53.93
396.733	156.33
396.942	121.51
397.152	119.46
397.361	127.66
397.57	125.61
397.78	137.9
397.989	158.38
398.198	160.42
398.407	49.83
398.617	53.93
398.826	127.66
399.035	111.27
399.244	125.61
399.453	98.99
399.663	37.55
399.872	160.42
400.081	88.75
400.29	98.99
400.499	111.27
400.708	141.99
400.917	53.93
401.127	111.27
401.336	17.07
401.545	129.7
401.754	70.31
401.963	78.51
402.172	82.6
402.381	66.22
402.59	137.9
402.799	127.66
403.008	187.05
403.217	49.83
403.426	133.8
403.635	146.09
403.844	113.32
404.053	90.79
404.262	82.6
404.471	185
404.68	152.23
404.888	156.33
405.097	168.62
405.306	144.04
405.515	90.79
405.724	121.51
405.933	152.23
406.142	152.23
406.35	162.47
406.559	228.01
406.768	230.06
406.977	244.39
407.185	246.44
407.394	178.86
407.603	144.04
407.812	238.25
408.02	262.82
408.229	144.04
408.438	223.91
408.646	135.85
408.855	187.05
409.064	225.96
409.272	166.57
409.481	182.95
409.69	215.72
409.898	240.29
410.107	291.49
410.315	248.49
410.524	285.35
410.733	291.49
410.941	326.31
411.15	307.88
411.358	332.45
411.567	373.41
411.775	334.5
411.984	344.74
412.192	383.65
412.401	406.18
412.609	389.8
412.818	461.48
413.026	436.9
413.234	416.42
413.443	484
413.651	414.37
413.86	459.43
414.068	479.91
414.276	570.02
414.485	537.25
414.693	574.11
414.901	645.79
415.11	680.61
415.318	600.74
415.526	660.13
415.734	645.79
415.943	639.65
416.151	696.99
416.359	705.18
416.567	696.99
416.776	774.81
416.984	846.49
417.192	807.58
417.4	768.67
417.608	860.83
417.817	875.17
418.025	938.65
418.233	1045.15
418.441	940.7
418.649	860.83
418.857	1012.38
419.065	991.9
419.273	1096.35
419.481	1155.74
419.689	1202.84
419.897	1282.71
420.105	1340.05
420.313	1303.19
420.521	1421.97
420.729	1497.75
420.937	1432.21
421.145	1512.08
421.353	1528.47
421.561	1641.11
421.769	1661.59
421.977	1735.31
422.185	1659.54
422.393	1852.05
422.601	1913.49
422.809	1989.26
423.017	1989.26
423.224	2077.32
423.432	2097.8
423.64	2118.28
423.848	2339.46
424.056	2177.67
424.263	2495.11
424.471	2323.08
424.679	2480.77
424.887	2611.84
425.094	2624.13
425.302	2667.14
425.51	2790.02
425.718	2765.44
425.925	2822.78
426.133	3019.39
426.341	3060.35
426.548	3224.19
426.756	3283.58
426.964	3234.43
427.171	3367.54
427.379	3568.24
427.586	3654.26
427.794	3863.15
428.001	3867.25
428.209	4129.39
428.417	4035.18
428.624	4381.29
428.832	4448.87
429.039	4274.79
429.247	4301.42
429.454	4754.02
429.662	5018.21
429.869	4723.3
430.076	5114.46
430.284	4784.74
430.491	5120.6
430.699	5378.65
430.906	5421.66
431.114	5382.74
431.321	5628.5
431.528	5689.94
431.736	6126.16
431.943	6390.35
432.15	6312.52
432.358	6189.64
432.565	6609.48
432.772	6660.68
432.979	6797.89
433.187	6881.86
433.394	7008.83
433.601	7569.98
433.808	7529.02
434.016	7533.11
434.223	7850.55
434.43	8329.77
434.637	8098.35
434.844	8632.87
435.052	8843.81
435.259	8583.72
435.466	8903.2
435.673	8876.58
435.88	9290.27
436.087	9802.26
436.294	9855.51
436.501	9658.9
436.708	9749.01
436.915	10166.8
437.122	10609.16
437.329	10617.35
437.537	10672.65
437.743	10926.6
437.95	10844.68
438.157	11373.05
438.364	11899.38
438.571	11893.24
438.778	12069.36
438.985	12919.27
439.192	12524.01
439.399	12708.33
439.606	12679.66
439.813	13476.32
440.02	13992.41
440.227	13619.67
440.433	13720.03
440.64	14137.81
440.847	14465.49
441.054	14526.92
441.261	15251.91
441.467	15143.36
441.674	15434.18
441.881	16120.24
442.088	15792.57
442.294	16077.24
442.501	16316.85
442.708	16519.6
442.914	17297.83
443.121	17840.54
443.328	17312.16
443.534	18577.81
443.741	18223.51
443.948	17856.92
444.154	19171.72
444.361	19227.01
444.568	19196.29
444.774	19239.3
444.981	19591.55
445.187	19806.59
445.394	20703.6
445.6	20539.76
445.807	22434.13
446.013	21492.07
446.22	21832.03
446.426	22610.26
446.633	22913.36
446.839	23454.02
447.046	22735.18
447.252	24000.83
447.459	23867.71
447.665	23976.25
447.871	24922.41
448.078	26204.44
448.284	24656.18
448.491	25471.27
448.697	26638.61
448.903	26751.25
449.11	27080.97
449.316	26532.12
449.522	27115.79
449.728	28051.71
449.935	28055.81
450.141	27932.93
450.347	28760.31
450.553	27635.97
450.76	28379.39
450.966	29245.68
451.172	28885.23
451.378	29808.87
451.584	29217
451.791	29911.27
451.997	29982.95
452.203	30177.5
452.409	30247.13
452.615	30132.45
452.821	28854.51
453.027	28313.85
453.233	30048.48
453.44	28881.14
453.646	29251.82
453.852	29532.39
454.058	29880.55
454.264	29266.16
454.47	29905.12
454.676	29112.56
454.882	29956.32
455.088	27558.15
455.294	28141.82
455.5	28524.79
455.705	28152.06
455.911	27515.14
456.117	26927.38
456.323	26822.93
456.529	25194.79
456.735	26241.31
456.941	25727.27
457.147	25352.49
457.352	24781.1
457.558	24207.67
457.764	24426.81
457.97	23791.94
458.176	23310.66
458.381	23421.25
458.587	22225.24
458.793	22292.82
458.999	21240.17
459.204	22755.66
459.41	22159.7
459.616	20550
459.821	20523.38
460.027	20490.61
460.233	20232.57
460.438	19259.78
460.644	19411.33
460.85	18651.53
461.055	18223.51
461.261	18344.34
461.466	16587.18
461.672	16253.36
461.878	17322.4
462.083	16425.39
462.289	15874.49
462.494	15770.04
462.7	15307.2
462.905	14825.93
463.111	15172.04
463.316	15219.14
463.522	15026.63
463.727	14860.74
463.932	15036.87
464.138	14807.5
464.343	14713.29
464.549	14508.49
464.754	14805.45
464.959	14971.33
465.165	14422.48
465.37	13851.1
465.575	13857.24
465.781	14283.22
465.986	14414.29
466.191	13562.33
466.397	13359.58
466.602	12880.36
466.807	13265.38
467.012	13300.19
467.218	13302.24
467.423	13062.63
467.628	13259.23
467.833	13775.32
468.038	13273.57
468.244	13107.68
468.449	13392.35
468.654	12823.01
468.859	12607.98
469.064	12556.78
469.269	12081.65
469.474	12571.11
469.679	12722.66
469.885	12186.1
470.09	12317.17
470.295	12409.33
470.5	12020.21
470.705	12245.49
470.91	11936.24
471.115	11688.44
471.32	11989.49
471.525	11833.85
471.73	11512.31
471.935	11606.52
472.139	11047.43
472.344	11284.99
472.549	11194.88
472.754	11088.39
472.959	11115.01
473.164	10607.11
473.369	10654.22
473.574	10787.33
473.778	10768.9
473.983	10693.13
474.188	10500.62
474.393	10232.33
474.598	10281.49
474.802	10105.36
475.007	9933.33
475.212	10064.4
475.417	9591.32
475.621	9861.65
475.826	9706.01
476.031	9419.29
476.235	9259.55
476.44	9550.36
476.645	9417.24
476.849	9464.35
477.054	9118.24
477.259	9212.45
477.463	8952.35
477.668	8829.48
477.872	8974.88
478.077	8987.17
478.282	8532.52
478.486	8501.8
478.691	8462.89
478.895	8491.56
479.1	8229.42
479.304	8520.23
479.509	8073.78
479.713	8335.92
479.918	8073.78
480.122	8081.97
480.326	8069.68
480.531	8098.35
480.735	8036.91
480.94	7791.16
481.144	8350.25
481.348	7995.95
481.553	7942.71
481.757	7803.44
481.961	7971.38
482.166	7791.16
482.37	7944.75
482.574	7797.3
482.778	7821.88
482.983	8024.62
483.187	7668.28
483.391	7805.49
483.595	7621.17
483.8	7660.09
484.004	7729.72
484.208	7713.33
484.412	7959.09
484.616	7901.75
484.821	7711.28
485.025	7860.79
485.229	7895.6
485.433	7701.05
485.637	7850.55
485.841	7676.47
486.045	7688.76
486.249	7815.73
486.453	7637.56
486.657	7641.65
486.861	7690.81
487.065	7602.74
487.269	7787.06
487.473	7395.9
487.677	7719.48
487.881	7901.75
488.085	7688.76
488.289	8000.05
488.493	7625.27
488.697	7893.55
488.901	7739.96
489.105	7668.28
489.309	7905.84
489.512	7737.91
489.716	7766.58
489.92	7754.29
490.124	7856.69
490.328	7930.42
490.531	7584.31
490.735	7811.64
490.939	8012.34
491.143	7873.07
491.346	7799.35
491.55	8163.89
491.754	8055.34
491.958	8000.05
492.161	8122.93
492.365	7977.52
492.569	8065.58
492.772	8026.67
492.976	8098.35
493.18	8129.07
493.383	8403.5
493.587	8337.96
493.79	8462.89
493.994	8297
494.197	8479.27
494.401	8428.07
494.605	8522.28
494.808	8606.25
495.012	8663.59
495.215	8747.56
495.419	8839.72
495.622	8649.25
495.825	8892.96
496.029	9007.65
496.232	9097.76
496.436	9036.32
496.639	9151.01
496.843	9392.67
497.046	9507.35
497.249	9411.1
497.453	9409.05
497.656	9589.27
497.859	9665.05
498.063	9722.39
498.266	9957.91
498.469	9910.8
498.673	9777.69
498.876	10129.94
499.079	10357.26
499.282	10082.83
499.485	10588.68
499.689	10498.57
499.892	10463.75
500.095	10695.18
500.298	11033.09
500.501	10732.04
500.705	11227.65
500.908	11366.91
501.111	11514.36
501.314	11524.6
501.517	11450.88
501.72	11805.17
501.923	11735.54
502.126	12075.51
502.329	12071.41
502.532	12302.83
502.735	12286.45
502.938	12513.77
503.141	12454.38
503.344	13056.48
503.547	12863.97
503.75	13162.98
503.953	13126.11
504.156	13529.56
504.359	13279.71
504.562	13709.79
504.765	13834.71
504.968	13912.53
505.17	14070.23
505.373	14250.45
505.576	14526.92
505.779	14621.13
505.982	14836.17
506.185	14805.45
506.387	14942.66
506.59	15159.75
506.793	15323.58
506.996	15337.92
507.198	15735.23
507.401	15552.96
507.604	15907.26
507.807	16241.07
508.009	16329.14
508.212	16417.2
508.415	16667.05
508.617	16863.66
508.82	17062.31
509.022	16630.19
509.225	17263.01
509.428	17353.12
509.63	17432.99
509.833	17576.35
510.035	17713.56
510.238	17822.11
510.44	18074.01
510.643	18487.7
510.845	18524.56
511.048	18563.47
511.25	19011.98
511.453	18815.37
511.655	19747.2
511.858	19362.18
512.06	19380.61
512.262	19888.51
512.465	19802.49
512.667	20013.43
512.87	20134.26
513.072	20312.44
513.274	20773.23
513.477	20922.73
513.679	21281.13
513.881	21496.16
514.084	21455.2
514.286	21578.08
514.488	21500.26
514.69	22227.29
514.893	22335.83
515.095	22303.06
515.297	22837.58
515.499	22737.23
515.701	22976.84
515.904	23132.49
516.106	23394.63
516.308	23384.39
516.51	24060.22
516.712	23859.52
516.914	24021.31
517.116	24676.66
517.318	24428.85
517.52	24643.89
517.722	24824.11
517.925	25094.44
518.127	25534.76
518.329	25434.41
518.531	25370.92
518.733	26028.32
518.935	26308.89
519.136	26315.03
519.338	26759.44
519.54	26568.98
519.742	26822.93
519.944	27068.69
520.146	27453.7
520.348	27564.29
520.55	27840.77
520.752	27865.35
520.954	28451.06
521.155	28276.99
521.357	28383.48
521.559	28934.39
521.761	29018.35
521.963	28895.47
522.164	29311.21
522.366	29444.33
522.568	29901.03
522.77	29911.27
522.971	30302.43
523.173	30099.68
523.375	30632.15
523.576	30597.34
523.778	30380.25
523.98	31166.67
524.181	30914.77
524.383	30965.97
524.584	31588.55
524.786	31494.35
524.988	31334.6
525.189	31842.5
525.391	31979.71
525.592	32084.16
525.794	32491.71
525.995	32393.4
526.197	32432.32
526.398	32344.25
526.6	32831.67
526.801	33181.87
527.003	33130.67
527.204	33007.79
527.406	33208.5
527.607	33317.04
527.808	33519.79
528.01	33085.62
528.211	33532.07
528.412	33982.63
528.614	33824.93
528.815	33632.43
529.016	34238.62
529.218	33923.24
529.419	33908.9
529.62	34177.19
529.822	33743.02
530.023	34175.14
530.224	34009.25
530.425	34248.86
530.626	33984.68
530.828	34037.92
531.029	35006.61
531.23	34416.8
531.431	34408.61
531.632	34316.45
531.833	34648.22
532.035	34603.16
532.236	34535.58
532.437	34740.38
532.638	34080.93
532.839	35041.43
533.04	35217.55
533.241	34506.91
533.442	35440.78
533.643	34994.32
533.844	34908.31
534.045	35090.58
534.246	34711.7
534.447	35453.07
534.648	34695.32
534.849	35063.96
535.05	34721.94
535.251	35162.26
535.451	34795.67
535.652	35055.76
535.853	35158.16
536.054	35252.37
536.255	34951.32
536.456	34742.42
536.657	35135.63
536.857	34703.51
537.058	34785.43
537.259	35178.64
537.46	35152.02
537.66	34764.95
537.861	35133.59
538.062	34992.28
538.263	35061.91
538.463	35160.21
538.664	34865.3
538.865	34947.22
539.065	35328.14
539.266	34750.62
539.466	35205.27
539.667	34656.41
539.868	35375.25
540.068	34662.55
540.269	34871.45
540.469	35059.86
540.67	34746.52
540.87	34943.13
541.071	34850.97
541.271	34865.3
541.472	34750.62
541.672	34998.42
541.873	34889.88
542.073	34279.58
542.274	35221.65
542.474	34920.6
542.675	34470.04
542.875	35246.22
543.075	34726.04
543.276	34316.45
543.476	34881.69
543.676	34330.78
543.877	34623.64
544.077	34642.07
544.277	34771.1
544.478	34889.88
544.678	35213.46
544.878	34484.38
545.078	34914.45
545.279	34689.18
545.479	34787.48
545.679	34566.3
545.879	34748.57
546.079	34904.21
546.28	34916.5
546.48	34377.89
546.68	34683.03
546.88	34822.3
547.08	34427.04
547.28	34322.59
547.48	34064.55
547.68	34642.07
547.88	34365.6
548.081	34568.35
548.281	34633.88
548.481	34566.3
548.681	35031.19
548.881	34496.67
549.081	34599.07
549.28	34646.17
549.48	34685.08
549.68	34334.88
549.88	34828.44
550.08	34293.92
550.28	34717.85
550.48	34130.08
550.68	34674.84
550.88	34295.97
551.08	34699.42
551.279	34519.2
551.479	33829.03
551.679	34470.04
551.879	33999.01
552.079	34726.04
552.278	34031.78
552.478	34449.56
552.678	34054.31
552.878	34701.47
553.077	34252.96
553.277	33984.68
553.477	34709.66
553.676	34105.51
553.876	34048.16
554.076	34046.12
554.275	34295.97
554.475	33939.62
554.674	34015.4
554.874	33556.65
555.074	33913
555.273	34064.55
555.473	34125.99
555.672	33534.12
555.872	33886.37
556.071	33820.84
556.271	33743.02
556.47	33513.64
556.67	33360.05
556.869	33777.83
557.068	33890.47
557.268	33792.17
557.467	33652.91
557.667	33640.62
557.866	33548.46
558.065	33677.48
558.265	33321.13
558.464	33390.77
558.663	33454.25
558.863	32866.49
559.062	33462.44
559.261	33065.14
559.461	33370.29
559.66	33208.5
559.859	33327.28
560.058	32907.44
560.258	33126.58
560.457	32698.55
560.656	32962.74
560.855	32655.54
561.054	32968.88
561.253	32665.78
561.453	32784.57
561.652	32878.77
561.851	32755.89
562.05	32768.18
562.249	32547
562.448	32778.42
562.647	32915.64
562.846	32751.8
563.045	32188.61
563.244	32229.57
563.443	32458.94
563.642	31856.84
563.841	32368.83
564.04	31623.37
564.239	32221.38
564.438	31951.04
564.637	32059.59
564.836	32092.35
565.035	31645.9
565.234	31838.4
565.432	31783.11
565.631	31486.15
565.83	31518.92
566.029	31275.21
566.228	31297.74
566.427	31432.91
566.625	31215.82
566.824	30810.32
567.023	31281.36
567.222	31070.42
567.42	31033.55
567.619	30886.1
567.818	30941.39
568.016	30931.15
568.215	31049.94
568.414	30847.19
568.612	30888.15
568.811	30875.86
569.01	30824.66
569.208	30478.55
569.407	30634.2
569.605	30294.24
569.804	30480.6
570.002	30122.21
570.201	30716.12
570.4	30255.32
570.598	29925.6
570.797	29948.13
570.995	30103.78
571.193	29628.65
571.392	29923.55
571.59	29681.89
571.789	29823.2
571.987	29473
572.186	29358.31
572.384	29516.01
572.582	29354.22
572.781	29366.51
572.979	29110.51
573.177	29053.17
573.376	29239.53
573.574	28780.79
573.772	28948.72
573.971	29055.22
574.169	28897.52
574.367	28596.47
574.565	29223.15
574.763	28659.96
574.962	28688.63
575.16	28223.74
575.358	28242.17
575.556	28066.05
575.754	28418.3
575.952	28141.82
576.151	28389.63
576.349	27992.32
576.547	27672.84
576.745	28002.56
576.943	28037.37
577.141	27717.89
577.339	27828.48
577.537	27752.71
577.735	27412.74
577.933	27429.13
578.131	27500.81
578.329	27101.45
578.527	27210
578.725	27509
578.923	27146.51
579.121	27119.88
579.319	26730.77
579.516	27064.59
579.714	27212.04
579.912	26820.88
580.11	26851.6
580.308	26751.25
580.506	26411.29
580.704	26317.08
580.901	26611.99
581.099	26872.08
581.297	26401.05
581.495	26145.05
581.692	26812.69
581.89	25997.6
582.088	26335.51
582.285	26171.68
582.483	26423.58
582.681	26169.63
582.878	26026.27
583.076	25760.03
583.274	25755.94
583.471	25483.56
583.669	25911.58
583.866	25342.25
584.064	25573.67
584.262	25360.68
584.459	25669.92
584.657	25618.72
584.854	25307.43
585.052	25051.44
585.249	25178.41
585.447	24946.99
585.644	24918.32
585.841	25159.98
586.039	25293.1
586.236	24285.5
586.434	24637.75
586.631	24494.39
586.828	24578.36
587.026	24711.47
587.223	24473.91
587.42	24453.43
587.618	24514.87
587.815	23914.81
588.012	24056.12
588.21	23595.33
588.407	24066.36
588.604	24260.92
588.801	23986.49
588.999	23712.06
589.196	23824.7
589.393	23841.09
589.59	23716.16
589.787	23648.58
589.984	23460.16
590.182	23339.33
590.379	23411.01
590.576	23069
590.773	23152.97
590.97	23023.95
591.167	23277.9
591.364	23114.06
591.561	23077.19
591.758	22671.7
591.955	22939.98
592.152	23034.19
592.349	22427.99
592.546	22501.72
592.743	22647.12
592.94	22192.47
593.137	22755.66
593.334	22597.97
593.531	22186.33
593.727	22045.02
593.924	22561.11
594.121	22319.45
594.318	22382.93
594.515	21885.28
594.712	22055.26
594.908	21954.91
595.105	22143.32
595.302	22090.07
595.499	21815.65
595.696	21551.46
595.892	21297.51
596.089	21352.8
596.286	21645.66
596.482	21643.62
596.679	21518.69
596.876	21389.67
597.072	21102.95
597.269	21260.65
597.466	20935.02
597.662	20953.45
597.859	20873.58
598.055	21045.61
598.252	20762.99
598.448	20961.64
598.645	20521.33
598.841	20537.71
599.038	20527.47
599.234	20431.22
599.431	20355.44
599.627	20382.07
599.824	20283.77
600.02	20570.48
600.217	20418.93
600.413	19935.61
600.609	19857.79
600.806	19730.81
601.002	20046.2
601.198	20023.67
601.395	19808.64
601.591	19634.56
601.787	19816.83
601.984	19716.48
602.18	19794.3
602.376	19497.35
602.572	19478.91
602.769	19356.04
602.965	19024.26
603.161	19405.19
603.357	19450.24
603.553	19351.94
603.75	19001.74
603.946	19052.94
604.142	19124.61
604.338	18743.69
604.534	18784.65
604.73	18735.5
604.926	18690.45
605.122	18784.65
605.318	18741.64
605.514	18573.71
605.71	18592.14
605.906	18575.76
606.102	18416.02
606.298	18629.01
606.494	18590.09
606.69	18370.96
606.886	18547.09
607.082	18074.01
607.278	18459.02
607.474	18071.96
607.67	18266.52
607.866	17899.93
608.062	18074.01
608.257	17947.03
608.453	18078.1
608.649	17961.37
608.845	17777.05
609.041	17854.87
609.236	17562.01
609.432	17725.85
609.628	17813.91
609.824	17789.34
610.019	17473.95
610.215	17447.33
610.411	17691.04
610.606	17529.25
610.802	17297.83
610.998	17459.62
611.193	17398.18
611.389	17101.22
611.584	17314.21
611.78	17283.49
611.976	17293.73
612.171	17453.47
612.367	17121.7
612.562	16888.23
612.758	17007.02
612.953	16959.91
613.149	17070.5
613.344	16964.01
613.539	17365.41
613.735	16986.54
613.93	16916.9
614.126	17033.64
614.321	17011.11
614.517	16892.33
614.712	16548.27
614.907	16521.65
615.103	16925.1
615.298	16724.4
615.493	16966.06
615.688	16421.3
615.884	16769.45
616.079	16312.75
616.274	16816.55
616.47	16425.39
616.665	16624.04
616.86	16421.3
617.055	16286.13
617.25	16130.48
617.445	16396.72
617.641	16089.53
617.836	16415.15
618.031	16159.16
618.226	16167.35
618.421	15882.68
618.616	16224.69
618.811	15849.91
619.006	15964.6
619.201	15784.38
619.396	15858.1
619.591	15571.39
619.786	15671.74
619.981	15448.51
620.176	15624.64
620.371	15327.68
620.566	15438.27
620.761	15405.5
620.956	15520.19
621.151	15063.49
621.346	15503.81
621.541	15002.05
621.735	15040.97
621.93	14694.86
622.125	14819.78
622.32	14670.28
622.515	14655.95
622.709	14643.66
622.904	14549.45
623.099	14330.32
623.294	14399.95
623.488	14354.9
623.683	14201.3
623.878	14453.2
624.072	14371.28
624.267	14019.03
624.462	13916.63
624.656	13900.25
624.851	13865.43
625.046	13801.94
625.24	13773.27
625.435	13642.2
625.629	13636.06
625.824	13529.56
626.018	13472.22
626.213	13177.31
626.407	13439.45
626.602	12964.32
626.796	13130.21
626.991	13179.36
627.185	12898.79
627.38	12945.89
627.574	12859.88
627.768	12794.34
627.963	12669.42
628.157	12368.37
628.352	12818.92
628.546	12341.74
628.74	12501.48
628.935	12317.17
629.129	12435.95
629.323	12220.91
629.517	12198.38
629.712	12071.41
629.906	11940.34
630.1	12007.92
630.294	11799.03
630.489	11801.08
630.683	11901.43
630.877	11602.43
631.071	11549.18
631.265	11661.82
631.459	11371.01
631.653	11239.94
631.848	11364.86
632.042	11373.05
632.236	11393.53
632.43	11215.36
632.624	11213.31
632.818	10949.12
633.012	10961.41
633.206	11000.32
633.4	10922.5
633.594	10924.55
633.788	10899.97
633.982	10744.33
634.176	10875.4
634.369	10703.37
634.563	10666.5
634.757	10738.18
634.951	10584.59
635.145	10512.91
635.339	10457.61
635.533	10213.9
635.726	10437.13
635.92	10228.24
636.114	10326.54
636.308	9976.34
636.501	10080.78
636.695	10091.02
636.889	9906.71
637.083	9847.32
637.276	9847.32
637.47	9835.03
637.664	9619.99
637.857	9769.49
638.051	9660.95
638.244	9556.5
638.438	9476.63
638.632	9400.86
638.825	9372.19
639.019	9296.41
639.212	9359.9
639.406	9400.86
639.599	9191.97
639.793	9318.94
639.986	9122.34
640.18	9128.48
640.373	9155.1
640.567	8983.07
640.76	8995.36
640.954	8792.61
641.147	8905.25
641.34	8802.85
641.534	8811.04
641.727	8712.74
641.92	8772.13
642.114	8571.43
642.307	8598.06
642.5	8565.29
642.694	8524.33
642.887	8417.83
643.08	8628.77
643.273	8403.5
643.467	8454.7
643.66	8114.73
643.853	8127.02
644.046	8149.55
644.239	8079.92
644.432	8165.93
644.626	7967.28
644.819	7926.32
645.012	8055.34
645.205	8180.27
645.398	7946.8
645.591	7764.53
645.784	7823.92
645.977	7805.49
646.17	7737.91
646.363	7717.43
646.556	7574.07
646.749	7508.54
646.942	7641.65
647.135	7475.77
647.328	7559.74
647.521	7453.24
647.714	7326.27
647.907	7303.74
648.099	7418.43
648.292	7389.75
648.485	7445.05
648.678	7062.08
648.871	7213.63
649.064	7162.43
649.256	7053.89
649.449	7123.52
649.642	6902.34
649.835	6855.23
650.027	7012.93
650.22	6785.6
650.413	7014.98
650.605	6902.34
650.798	6943.3
650.991	6775.36
651.183	6681.16
651.376	6650.44
651.568	6677.06
651.761	6615.62
651.954	6660.68
652.146	6449.74
652.339	6693.44
652.531	6482.5
652.724	6306.38
652.916	6308.43
653.109	6369.87
653.301	6318.67
653.494	6478.41
653.686	6238.8
653.879	6292.04
654.071	6238.8
654.263	6224.46
654.456	6238.8
654.648	6130.25
654.84	6079.05
655.033	6115.92
655.225	6058.57
655.417	5978.7
655.61	6021.71
655.802	6038.09
655.994	5853.78
656.186	5970.51
656.379	5919.31
656.571	5728.85
656.763	5755.47
656.955	5900.88
657.148	5802.58
657.34	5730.9
657.532	5519.96
657.724	5689.94
657.916	5481.05
658.108	5571.16
658.3	5706.32
658.492	5608.02
658.684	5522.01
658.876	5382.74
659.068	5321.31
659.26	5206.62
659.452	5274.2
659.644	5352.02
659.836	5296.73
660.028	5349.98
660.22	5139.04
660.412	5397.08
660.604	5077.6
660.796	5309.02
660.988	5016.16
661.18	5042.78
661.372	5050.97
661.563	5128.8
661.755	4985.44
661.947	4977.25
662.139	5065.31
662.331	4899.42
662.522	4930.14
662.714	4905.57
662.906	4930.14
663.097	4803.17
663.289	4803.17
663.481	4772.45
663.673	4813.41
663.864	4735.59
664.056	4659.81
664.247	4846.18
664.439	4688.48
664.631	4788.83
664.822	4637.28
665.014	4686.44
665.205	4543.08
665.397	4407.91
665.588	4512.36
665.78	4272.75
665.971	4340.33
666.163	4432.49
666.354	4356.71
666.546	4481.64
666.737	4387.43
666.929	4307.56
667.12	4364.9
667.311	4383.34
667.503	4442.73
667.694	4235.88
667.885	4246.12
668.077	4315.75
668.268	4272.75
668.459	4299.37
668.651	4127.34
668.842	4108.91
669.033	4336.23
669.224	4127.34
669.416	4160.11
669.607	3988.08
669.798	4108.91
669.989	4166.25
670.18	4123.24
670.371	4076.14
670.563	3838.58
670.754	3934.83
670.945	3885.68
671.136	3967.6
671.327	3930.73
671.518	3822.19
671.709	3977.84
671.9	3990.13
672.091	3824.24
672.282	3863.15
672.473	3678.83
672.664	3805.81
672.855	3990.13
673.046	3895.92
673.237	3928.69
673.428	3727.99
673.619	3725.94
673.809	3756.66
674	3621.49
674.191	3693.17
674.382	3660.4
674.573	3736.18
674.764	3736.18
674.954	3687.03
675.145	3662.45
675.336	3551.86
675.527	3660.4
675.717	3586.68
675.908	3551.86
676.099	3592.82
676.289	3488.37
676.48	3611.25
676.671	3564.15
676.861	3543.67
677.052	3549.81
677.243	3510.9
677.433	3494.52
677.624	3523.19
677.814	3484.28
678.005	3455.61
678.195	3465.85
678.386	3357.3
678.576	3392.12
678.767	3254.9
678.957	3365.5
679.148	3396.21
679.338	3371.64
679.529	3308.15
679.719	3334.78
679.909	3381.88
680.1	3256.95
680.29	3349.11
680.481	3228.28
680.671	3351.16
680.861	3234.43
681.052	3283.58
681.242	3242.62
681.432	3297.91
681.622	3158.65
681.813	3299.96
682.003	3279.48
682.193	3191.42
682.383	3191.42
682.573	3234.43
682.764	3267.19
682.954	3172.99
683.144	3250.81
683.334	3101.31
683.524	3265.14
683.714	3213.95
683.904	3103.36
684.094	3105.4
684.284	3189.37
684.474	3086.97
684.664	3005.05
684.854	3107.45
685.044	3111.55
685.234	3064.44
685.424	3048.06
685.614	3007.1
685.804	3201.66
685.994	3039.87
686.184	2925.18
686.374	2925.18
686.564	3021.44
686.753	2886.27
686.943	2871.93
687.133	2843.26
687.323	2912.89
687.513	2937.47
687.702	2921.09
687.892	2822.78
688.082	2916.99
688.272	2814.59
688.461	2880.13
688.651	2912.89
688.841	2744.96
689.03	2820.74
689.22	2714.24
689.41	2794.11
689.599	2775.68
689.789	2753.15
689.979	2671.23
690.168	2650.75
690.358	2712.19
690.547	2658.95
690.737	2636.42
690.926	2630.27
691.116	2620.03
691.305	2726.53
691.495	2667.14
691.684	2513.54
691.874	2771.58
692.063	2572.93
692.252	2521.73
692.442	2712.19
692.631	2499.2
692.82	2470.53
693.01	2546.31
693.199	2478.72
693.388	2452.1
693.578	2519.68
693.767	2413.19
693.956	2400.9
694.146	2470.53
694.335	2560.64
694.524	2359.94
694.713	2364.04
694.902	2497.16
695.092	2488.96
695.281	2462.34
695.47	2368.13
695.659	2470.53
695.848	2411.14
696.037	2374.28
696.226	2331.27
696.415	2347.65
696.604	2495.11
696.793	2306.7
696.982	2278.02
697.171	2292.36
697.36	2310.79
697.549	2314.89
697.738	2357.89
697.927	2310.79
698.116	2247.3
698.305	2171.53
698.494	2177.67
698.683	2208.39
698.872	2220.68
699.061	2306.7
699.25	2390.66
699.438	2237.06
699.627	2265.74
699.816	2267.78
700.005	2136.71
700.193	2210.44
700.382	2292.36
700.571	2087.56
700.76	2220.68
700.948	2318.98
701.137	2257.54
701.326	2185.87
701.514	2181.77
701.703	2093.71
701.892	2200.2
702.08	2316.94
702.269	2259.59
702.457	2196.11
702.646	2187.91
702.834	2128.52
703.023	2101.9
703.212	2126.47
703.4	2169.48
703.589	2030.22
703.777	2110.09
703.965	2038.41
704.154	2204.3
704.342	2112.14
704.531	2089.61
704.719	2142.86
704.907	2239.11
705.096	2118.28
705.284	2101.9
705.472	2097.8
705.661	2108.04
705.849	2151.05
706.037	2237.06
706.226	2153.1
706.414	2019.98
706.602	2130.57
706.79	2118.28
706.979	2062.99
707.167	2122.38
707.355	2081.42
707.543	2167.43
707.731	2114.19
707.919	2077.32
708.107	1970.83
708.296	2103.95
708.484	2036.36
708.672	2132.62
708.86	2110.09
709.048	2062.99
709.236	2077.32
709.424	2179.72
709.612	2071.18
709.8	2105.99
709.988	2042.51
710.176	2007.69
710.364	2003.6
710.551	1976.97
710.739	2212.49
710.927	2062.99
711.115	2118.28
711.303	2056.84
711.491	1974.92
711.679	1952.4
711.866	1962.64
712.054	2052.75
712.242	2044.56
712.43	1956.49
712.617	2001.55
712.805	2126.47
712.993	2134.67
713.181	2060.94
713.368	2001.55
713.556	1991.31
713.744	1923.73
713.931	2054.8
714.119	2036.36
714.306	2062.99
714.494	2093.71
714.682	1987.21
714.869	1985.16
715.057	1950.35
715.244	2032.27
715.432	2013.84
715.619	2081.42
715.807	2083.47
715.994	2069.13
716.182	2120.33
716.369	1946.25
716.556	2134.67
716.744	1993.36
716.931	2009.74
717.119	2040.46
717.306	2105.99
717.493	2022.03
717.681	2044.56
717.868	1991.31
718.055	1958.54
718.242	2146.95
718.43	2073.23
718.617	1987.21
718.804	2103.95
718.991	2032.27
719.179	2087.56
719.366	2042.51
719.553	2126.47
719.74	2062.99
719.927	2105.99
720.114	2050.7
720.301	2114.19
720.488	2017.93
720.676	2007.69
720.863	2044.56
721.05	2067.08
721.237	1999.5
721.424	2103.95
721.611	2052.75
721.798	1901.2
721.985	1972.88
722.172	2022.03
722.358	1956.49
722.545	2044.56
722.732	1979.02
722.919	2069.13
723.106	2069.13
723.293	2040.46
723.48	1993.36
723.667	2062.99
723.853	2054.8
724.04	2083.47
724.227	2036.36
724.414	2069.13
724.6	1942.16
724.787	2069.13
724.974	2015.88
725.161	2077.32
725.347	1962.64
725.534	2091.66
725.72	2134.67
725.907	1970.83
726.094	1950.35
726.28	1942.16
726.467	2058.89
726.653	1925.77
726.84	2042.51
727.027	2069.13
727.213	2044.56
727.4	2052.75
727.586	2085.51
727.773	2062.99
727.959	2044.56
728.145	1995.4
728.332	1931.92
728.518	1946.25
728.705	1950.35
728.891	2052.75
729.077	2060.94
729.264	1989.26
729.45	1962.64
729.636	2044.56
729.823	2065.04
730.009	1933.97
730.195	2044.56
730.382	2015.88
730.568	2005.64
730.754	1993.36
730.94	2044.56
731.126	2005.64
731.313	2038.41
731.499	1974.92
731.685	2024.08
731.871	1954.44
732.057	2019.98
732.243	1979.02
732.429	1970.83
732.615	2081.42
732.801	1993.36
732.987	1997.45
733.173	2042.51
733.359	2146.95
733.545	2009.74
733.731	1946.25
733.917	2015.88
734.103	2019.98
734.289	1991.31
734.475	1995.4
734.661	2065.04
734.847	1907.34
735.033	2005.64
735.219	1966.73
735.404	2015.88
735.59	1981.07
735.776	1923.73
735.962	1950.35
736.148	2077.32
736.333	2060.94
736.519	1976.97
736.705	1931.92
736.89	1942.16
737.076	2069.13
737.262	2024.08
737.447	1983.12
737.633	1950.35
737.819	1964.68
738.004	1995.4
738.19	1919.63
738.375	1882.77
738.561	2101.9
738.747	1997.45
738.932	1913.49
739.118	2024.08
739.303	1901.2
739.489	1890.96
739.674	1946.25
739.859	1954.44
740.045	1993.36
740.23	1979.02
740.416	1884.81
740.601	1831.57
740.786	1788.56
740.972	1911.44
741.157	1880.72
741.342	1817.23
741.528	1878.67
741.713	1835.66
741.898	1839.76
742.084	1757.84
742.269	1786.51
742.454	1798.8
742.639	1897.1
742.824	1872.53
743.01	1839.76
743.195	1860.24
743.38	1815.18
743.565	1852.05
743.75	1823.37
743.935	1798.8
744.12	1737.36
744.305	1823.37
744.49	1768.08
744.675	1637.01
744.86	1684.11
745.045	1749.65
745.23	1825.42
745.415	1806.99
745.6	1737.36
745.785	1741.46
745.97	1720.98
746.155	1620.63
746.34	1655.44
746.525	1788.56
746.71	1741.46
746.895	1643.15
747.079	1688.21
747.264	1688.21
747.449	1680.02
747.634	1661.59
747.819	1622.67
748.003	1618.58
748.188	1540.76
748.373	1614.48
748.557	1684.11
748.742	1561.23
748.927	1567.38
749.111	1587.86
749.296	1479.32
749.481	1471.12
749.665	1530.52
749.85	1557.14
750.034	1516.18
750.219	1546.9
750.404	1528.47
750.588	1520.28
750.773	1503.89
750.957	1348.25
751.141	1503.89
751.326	1538.71
751.51	1399.45
751.695	1372.82
751.879	1405.59
752.064	1546.9
752.248	1405.59
752.432	1460.88
752.617	1452.69
752.801	1397.4
752.985	1315.48
753.17	1356.44
753.354	1331.86
753.538	1485.46
753.722	1383.06
753.907	1432.21
754.091	1350.29
754.275	1307.29
754.459	1381.01
754.643	1266.33
754.828	1319.57
755.012	1356.44
755.196	1204.89
755.38	1284.76
755.564	1251.99
755.748	1262.23
755.932	1292.95
756.116	1260.18
756.3	1282.71
756.484	1178.26
756.668	1200.79
756.852	1200.79
757.036	1170.07
757.22	1196.7
757.404	1184.41
757.588	1204.89
757.772	1110.68
757.956	1229.46
758.14	1192.6
758.323	1163.93
758.507	1090.2
758.691	1135.26
758.875	1102.49
759.059	1186.46
759.242	1061.53
759.426	1127.07
759.61	1200.79
759.794	1036.95
759.977	1100.44
760.161	1159.83
760.345	1184.41
760.528	1110.68
760.712	1061.53
760.895	1084.06
761.079	971.42
761.263	959.13
761.446	1022.62
761.63	1036.95
761.813	1036.95
761.997	1030.81
762.18	938.65
762.364	981.66
762.547	955.04
762.731	965.28
762.914	1086.11
763.098	950.94
763.281	981.66
763.464	963.23
763.648	948.89
763.831	998.04
764.015	920.22
764.198	938.65
764.381	1061.53
764.564	955.04
764.748	903.84
764.931	1016.48
765.114	955.04
765.297	950.94
765.481	944.8
765.664	922.27
765.847	893.6
766.03	914.08
766.213	924.32
766.397	883.36
766.58	979.61
766.763	965.28
766.946	840.35
767.129	914.08
767.312	883.36
767.495	973.47
767.678	877.21
767.861	889.5
768.044	936.6
768.227	901.79
768.41	905.88
768.593	875.17
768.776	877.21
768.959	883.36
769.142	850.59
769.324	807.58
769.507	854.69
769.69	909.98
769.873	828.06
770.056	864.93
770.239	815.77
770.421	848.54
770.604	785.05
770.787	905.88
770.97	791.2
771.152	809.63
771.335	844.45
771.518	815.77
771.7	823.97
771.883	842.4
772.066	873.12
772.248	768.67
772.431	815.77
772.613	817.82
772.796	838.3
772.978	783.01
773.161	832.16
773.343	727.71
773.526	733.86
773.708	776.86
773.891	740
774.073	725.66
774.256	742.05
774.438	760.48
774.621	709.28
774.803	658.08
774.985	731.81
775.168	717.47
775.35	672.42
775.532	666.27
775.715	725.66
775.897	672.42
776.079	676.51
776.261	684.7
776.444	627.36
776.626	750.24
776.808	672.42
776.99	670.37
777.173	658.08
777.355	684.7
777.537	637.6
777.719	606.88
777.901	563.87
778.083	649.89
778.265	701.09
778.447	656.03
778.629	520.87
778.811	610.98
778.993	594.59
779.175	596.64
779.357	627.36
779.539	565.92
779.721	531.11
779.903	604.83
780.085	584.35
780.267	619.17
780.449	574.11
780.631	574.11
780.812	627.36
780.994	561.83
781.176	600.74
781.358	535.2
781.54	539.3
781.721	570.02
781.903	537.25
782.085	488.1
782.267	553.63
782.448	520.87
782.63	565.92
782.812	520.87
782.993	539.3
783.175	461.48
783.357	471.72
783.538	559.78
783.72	455.33
783.901	531.11
784.083	531.11
784.264	512.67
784.446	414.37
784.627	457.38
784.809	520.87
784.99	506.53
785.172	506.53
785.353	516.77
785.535	492.2
785.716	467.62
785.897	430.76
786.079	416.42
786.26	457.38
786.441	463.52
786.623	422.56
786.804	414.37
786.985	516.77
787.167	397.99
787.348	328.36
787.529	430.76
787.71	477.86
787.891	443.04
788.073	397.99
788.254	316.07
788.435	375.46
788.616	395.94
788.797	416.42
788.978	418.47
789.159	357.03
789.34	375.46
789.522	352.93
789.703	334.5
789.884	352.93
790.065	375.46
790.246	453.28
790.427	348.84
790.607	445.09
790.788	336.55
790.969	291.49
791.15	354.98
791.331	332.45
791.512	348.84
791.693	342.69
791.874	342.69
792.054	397.99
792.235	357.03
792.416	277.16
792.597	369.32
792.778	459.43
792.958	385.7
793.139	348.84
793.32	336.55
793.5	342.69
793.681	365.22
793.862	385.7
794.042	320.17
794.223	260.77
794.404	340.65
794.584	332.45
794.765	266.92
794.945	275.11
795.126	299.69
795.306	381.6
795.487	244.39
795.667	295.59
795.848	242.34
796.028	324.26
796.209	285.35
796.389	271.01
796.57	297.64
796.75	234.15
796.93	244.39
797.111	221.86
797.291	338.6
797.471	252.58
797.652	217.77
797.832	311.97
798.012	303.78
798.192	195.24
798.373	271.01
798.553	309.93
798.733	258.73
798.913	242.34
799.093	217.77
799.274	268.97
799.454	250.53
799.634	238.25
799.814	262.82
799.994	287.4
800.174	287.4
800.354	254.63
800.534	176.81
800.714	246.44
800.894	211.62
801.074	228.01
801.254	238.25
801.434	299.69
801.614	277.16
801.794	246.44
801.974	897.69
802.154	244.39
802.334	234.15
802.514	187.05
802.693	260.77
802.873	189.1
803.053	225.96
803.233	219.82
803.413	328.36
803.592	164.52
803.772	193.19
803.952	238.25
804.131	172.71
804.311	189.1
804.491	244.39
804.67	185
804.85	137.9
805.03	187.05
805.209	221.86
805.389	141.99
805.568	164.52
805.748	176.81
805.928	211.62
806.107	164.52
806.287	225.96
806.466	209.58
806.646	109.22
806.825	162.47
807.004	203.43
807.184	146.09
807.363	266.92
807.543	209.58
807.722	211.62
807.901	164.52
808.081	234.15
808.26	80.55
808.439	221.86
808.619	185
808.798	187.05
808.977	193.19
809.156	232.1
809.336	180.9
809.515	348.84
809.694	201.38
809.873	139.94
810.052	191.14
810.231	258.73
810.411	119.46
810.59	168.62
810.769	178.86
810.948	176.81
811.127	168.62
811.306	135.85
811.485	98.99
811.664	217.77
811.843	201.38
812.022	146.09
812.201	137.9
812.38	176.81
812.559	172.71
812.737	168.62
812.916	88.75
813.095	185
813.274	185
813.453	187.05
813.632	170.66
813.811	176.81
813.989	148.14
814.168	221.86
814.347	156.33
814.526	150.18
814.704	178.86
814.883	176.81
815.062	98.99
815.24	113.32
815.419	88.75
815.598	170.66
815.776	117.42
815.955	170.66
816.133	111.27
816.312	125.61
816.49	152.23
816.669	189.1
816.847	187.05
817.026	137.9
817.204	90.79
817.383	154.28
817.561	113.32
817.74	178.86
817.918	225.96
818.097	86.7
818.275	76.46
818.453	193.19
818.632	127.66
818.81	144.04
818.988	90.79
819.167	135.85
819.345	172.71
819.523	82.6
819.701	164.52
819.879	146.09
820.058	174.76
820.236	62.12
820.414	98.99
820.592	45.74
820.77	78.51
820.948	72.36
821.127	117.42
821.305	109.22
821.483	92.84
821.661	207.53
821.839	197.29
822.017	45.74
822.195	121.51
822.373	154.28
822.551	148.14
822.729	119.46
822.907	53.93
823.085	144.04
823.262	129.7
823.44	55.98
823.618	217.77
823.796	115.37
823.974	115.37
824.152	111.27
824.329	105.13
824.507	115.37
824.685	66.22
824.863	162.47
825.04	66.22
825.218	176.81
825.396	78.51
825.574	119.46
825.751	96.94
825.929	144.04
826.107	84.65
826.284	154.28
826.462	45.74
826.639	176.81
826.817	55.98
826.994	137.9
827.172	80.55
827.349	189.1
827.527	47.79
827.704	47.79
827.882	70.31
828.059	94.89
828.237	119.46
828.414	70.31
828.591	107.18
828.769	94.89
828.946	37.55
829.124	131.75
829.301	78.51
829.478	88.75
829.655	94.89
829.833	80.55
830.01	109.22
830.187	156.33
830.364	39.59
830.542	25.26
830.719	41.64
830.896	45.74
831.073	62.12
831.25	62.12
831.427	172.71
831.604	123.56
831.782	88.75
831.959	113.32
832.136	64.17
832.313	119.46
832.49	137.9
832.667	41.64
832.844	19.11
833.021	150.18
833.198	80.55
833.374	98.99
833.551	103.08
833.728	137.9
833.905	37.55
834.082	53.93
834.259	92.84
834.436	117.42
834.612	15.02
834.789	86.7
834.966	47.79
835.143	82.6
835.319	90.79
835.496	107.18
835.673	148.14
835.85	111.27
836.026	78.51
836.203	103.08
836.38	21.16
836.556	62.12
836.733	64.17
836.909	105.13
837.086	33.45
837.262	12.97
837.439	70.31
837.616	62.12
837.792	66.22
837.968	127.66
838.145	21.16
838.321	49.83
838.498	119.46
838.674	152.23
838.851	90.79
839.027	111.27
839.203	82.6
839.38	88.75
839.556	39.59
839.732	131.75
839.909	0.68
840.085	103.08
840.261	53.93
840.437	66.22
840.614	45.74
840.79	111.27
840.966	51.88
841.142	64.17
841.318	86.7
841.494	92.84
841.671	127.66
841.847	31.4
842.023	2.73
842.199	78.51
842.375	86.7
842.551	37.55
842.727	72.36
842.903	78.51
843.079	25.26
843.255	111.27
843.431	21.16
843.607	94.89
843.783	21.16
843.959	53.93
844.134	35.5
844.31	66.22
844.486	-3.41
844.662	86.7
844.838	70.31
845.013	135.85
845.189	86.7
845.365	62.12
845.541	150.18
845.716	74.41
845.892	96.94
846.068	-38.23
846.244	0.68
846.419	49.83
846.595	62.12
846.77	55.98
846.946	51.88
847.122	39.59
847.297	41.64
847.473	90.79
847.648	-66.9
847.824	90.79
847.999	78.51
848.175	-11.61
848.35	2.73
848.526	31.4
848.701	29.35
848.876	64.17
849.052	115.37
849.227	64.17
849.403	96.94
849.578	80.55
849.753	31.4
849.929	66.22
850.104	47.79
850.279	72.36
850.454	-1.37
850.63	78.51
850.805	62.12
850.98	21.16
851.155	133.8
851.33	94.89
851.505	21.16
851.681	111.27
851.856	17.07
852.031	39.59
852.206	-11.61
852.381	74.41
852.556	-19.8
852.731	58.03
852.906	107.18
853.081	53.93
853.256	78.51
853.431	-5.46
853.606	21.16
853.781	98.99
853.956	-19.8
854.131	111.27
854.305	-71
854.48	86.7
854.655	-25.94
854.83	55.98
855.005	43.69
855.18	103.08
855.354	0.68
855.529	158.38
855.704	25.26
855.879	21.16
856.053	45.74
856.228	78.51
856.403	-1.37
856.577	90.79
856.752	-50.52
856.926	25.26
857.101	8.87
857.276	-27.99
857.45	8.87
857.625	131.75
857.799	-1.37
857.974	47.79
858.148	15.02
858.323	109.22
858.497	-19.8
858.672	62.12
858.846	10.92
859.02	80.55
859.195	21.16
859.369	4.78
859.543	86.7
859.718	-3.41
859.892	68.27
860.066	53.93
860.241	21.16
860.415	21.16
860.589	-23.89
860.763	8.87
860.938	-48.47
861.112	103.08
861.286	0.68
861.46	29.35
861.634	31.4
861.808	-3.41
861.982	39.59
862.157	37.55
862.331	-19.8
862.505	78.51
862.679	8.87
862.853	70.31
863.027	82.6
863.201	72.36
863.375	70.31
863.549	0.68
863.722	-11.61
863.896	53.93
864.07	88.75
864.244	84.65
864.418	-25.94
864.592	23.21
864.766	-15.7
864.939	58.03
865.113	4.78
865.287	51.88
865.461	43.69
865.634	62.12
865.808	-23.89
865.982	53.93
866.156	49.83
866.329	21.16
866.503	2.73
866.676	62.12
866.85	74.41
867.024	17.07
867.197	45.74
867.371	23.21
867.544	78.51
867.718	33.45
867.891	-19.8
868.065	-3.41
868.238	12.97
868.412	58.03
868.585	-34.13
868.759	78.51
868.932	39.59
869.105	31.4
869.279	78.51
869.452	74.41
869.625	-50.52
869.799	15.02
869.972	4.78
870.145	80.55
870.319	-3.41
870.492	23.21
870.665	39.59
870.838	41.64
871.011	-81.24
871.185	-9.56
871.358	-15.7
871.531	68.27
871.704	-1.37
871.877	53.93
872.05	21.16
872.223	-11.61
872.396	64.17
872.569	70.31
872.742	-40.28
872.915	-11.61
873.088	76.46
873.261	64.17
873.434	29.35
873.607	45.74
873.78	70.31
873.953	105.13
874.126	8.87
874.299	39.59
874.471	58.03
874.644	60.07
874.817	78.51
874.99	137.9
875.163	41.64
875.335	19.11
875.508	12.97
875.681	-3.41
875.853	6.83
876.026	19.11
876.199	70.31
876.371	49.83
876.544	80.55
876.717	-36.18
876.889	31.4
877.062	45.74
877.234	33.45
877.407	37.55
877.579	41.64
877.752	55.98
877.924	55.98
878.097	10.92
878.269	21.16
878.442	53.93
878.614	45.74
878.786	33.45
878.959	58.03
879.131	21.16
879.303	-52.56
879.476	45.74
879.648	-3.41
879.82	-7.51
879.993	-5.46
880.165	25.26
880.337	33.45
880.509	103.08
880.681	-13.65
880.854	6.83
881.026	55.98
881.198	111.27
881.37	-7.51
881.542	23.21
881.714	-13.65
881.886	23.21
882.058	53.93
882.23	4.78
882.402	-11.61
882.574	70.31
882.746	58.03
882.918	0.68
883.09	45.74
883.262	12.97
883.434	21.16
883.606	0.68
883.778	-3.41
883.95	62.12
884.122	-17.75
884.293	4.78
884.465	45.74
884.637	-36.18
884.809	29.35
884.98	43.69
885.152	37.55
885.324	64.17
885.496	19.11
885.667	-7.51
885.839	15.02
886.011	4.78
886.182	21.16
886.354	6.83
886.525	35.5
886.697	58.03
886.869	-11.61
887.04	-21.85
887.212	68.27
887.383	103.08
887.555	43.69
887.726	21.16
887.897	-1.37
888.069	45.74
888.24	53.93
888.412	0.68
888.583	10.92
888.754	15.02
888.926	-27.99
889.097	37.55
889.268	-23.89
889.44	6.83
889.611	-34.13
889.782	12.97
889.953	-50.52
890.125	25.26
890.296	15.02
890.467	12.97
890.638	-3.41
890.809	70.31
890.98	-3.41
891.151	64.17
891.323	70.31
891.494	98.99
891.665	31.4
891.836	-58.71
892.007	8.87
892.178	98.99
892.349	37.55
892.52	12.97
892.691	-3.41
892.862	39.59
893.032	-9.56
893.203	45.74
893.374	-44.37
893.545	12.97
893.716	-42.32
893.887	76.46
894.057	37.55
894.228	-38.23
894.399	33.45
894.57	72.36
894.74	15.02
894.911	-11.61
895.082	37.55
895.253	12.97
895.423	6.83
895.594	21.16
895.764	-15.7
895.935	-36.18
896.106	31.4
896.276	15.02
896.447	135.85
896.617	-42.32
896.788	39.59
896.958	31.4
897.129	6.83
897.299	15.02
897.47	31.4
897.64	66.22
897.81	-27.99
897.981	12.97
898.151	-3.41
898.322	12.97
898.492	31.4
898.662	27.31
898.832	-1.37
899.003	-50.52
899.173	70.31
899.343	-30.04
899.513	-13.65
