Data from USB4F104151__289__14-46-26-834.txt Node

Date: Thu Mar 13 14:46:26 EDT 2025
User: louis
Spectrometer: USB4F10415
Trigger mode: 4
Integration Time (sec): 2.000000E-2
Scans to average: 1
Electric dark correction enabled: true
Nonlinearity correction enabled: false
Boxcar width: 0
XAxis mode: Wavelengths
Number of Pixels in Spectrum: 3648
>>>>>Begin Spectral Data<<<<<
178.204	-116.9
178.424	-116.9
178.644	-116.9
178.864	-100.52
179.084	-137.38
179.304	-26.79
179.524	-18.6
179.744	-30.89
179.964	-2.22
180.184	14.17
180.404	8.02
180.624	89.94
180.844	24.4
181.064	20.31
181.283	-57.51
181.503	5.97
181.723	-26.79
181.943	-45.23
182.163	38.74
182.383	-28.84
182.602	22.36
182.822	-4.27
183.042	38.74
183.262	14.17
183.482	63.32
183.701	-26.79
183.921	-47.27
184.141	-32.94
184.361	-49.32
184.58	12.12
184.8	16.21
185.02	-2.22
185.239	106.32
185.459	24.4
185.679	55.12
185.898	12.12
186.118	139.09
186.338	-100.52
186.557	69.46
186.777	46.93
186.997	5.97
187.216	69.46
187.436	91.99
187.655	-22.7
187.875	16.21
188.095	67.41
188.314	30.55
188.534	75.6
188.753	18.26
188.973	71.51
189.192	34.64
189.412	42.84
189.631	-2.22
189.851	1.88
190.07	26.45
190.29	10.07
190.509	5.97
190.729	-12.46
190.948	42.84
191.168	192.34
191.387	120.66
191.607	28.5
191.826	46.93
192.045	-32.94
192.265	1.88
192.484	14.17
192.704	-2.22
192.923	-57.51
193.142	96.08
193.362	75.6
193.581	42.84
193.8	87.89
194.02	-2.22
194.239	-59.56
194.458	10.07
194.678	79.7
194.897	-10.41
195.116	59.22
195.335	-4.27
195.555	-6.31
195.774	-34.99
195.993	71.51
196.212	77.65
196.432	65.36
196.651	38.74
196.87	26.45
197.089	98.13
197.308	30.55
197.528	38.74
197.747	32.6
197.966	-2.22
198.185	-14.51
198.404	48.98
198.623	-2.22
198.842	34.64
199.062	5.97
199.281	-18.6
199.5	30.55
199.719	46.93
199.938	16.21
200.157	34.64
200.376	53.08
200.595	65.36
200.814	69.46
201.033	30.55
201.252	40.79
201.471	-18.6
201.69	100.18
201.909	57.17
202.128	22.36
202.347	22.36
202.566	48.98
202.785	-43.18
203.004	1.88
203.223	120.66
203.442	3.93
203.661	-37.03
203.879	16.21
204.098	32.6
204.317	22.36
204.536	65.36
204.755	57.17
204.974	10.07
205.193	46.93
205.411	55.12
205.63	81.75
205.849	30.55
206.068	30.55
206.287	24.4
206.505	85.84
206.724	59.22
206.943	-18.6
207.162	1.88
207.381	38.74
207.599	30.55
207.818	-26.79
208.037	57.17
208.255	-0.17
208.474	5.97
208.693	38.74
208.911	22.36
209.13	26.45
209.349	30.55
209.567	38.74
209.786	67.41
210.005	-0.17
210.223	57.17
210.442	-26.79
210.661	-2.22
210.879	8.02
211.098	89.94
211.316	98.13
211.535	14.17
211.753	51.03
211.972	-4.27
212.191	-0.17
212.409	-10.41
212.628	55.12
212.846	3.93
213.065	48.98
213.283	118.61
213.502	34.64
213.72	8.02
213.938	77.65
214.157	-39.08
214.375	14.17
214.594	18.26
214.812	63.32
215.031	14.17
215.249	75.6
215.467	77.65
215.686	28.5
215.904	73.56
216.122	3.93
216.341	10.07
216.559	63.32
216.778	104.28
216.996	-10.41
217.214	40.79
217.432	34.64
217.651	-77.99
217.869	22.36
218.087	10.07
218.306	55.12
218.524	98.13
218.742	38.74
218.96	71.51
219.179	-18.6
219.397	-8.36
219.615	-34.99
219.833	32.6
220.051	16.21
220.27	112.47
220.488	18.26
220.706	87.89
220.924	-30.89
221.142	10.07
221.36	-30.89
221.578	63.32
221.796	16.21
222.015	51.03
222.233	-26.79
222.451	67.41
222.669	5.97
222.887	71.51
223.105	34.64
223.323	30.55
223.541	34.64
223.759	18.26
223.977	79.7
224.195	104.28
224.413	26.45
224.631	40.79
224.849	79.7
225.067	46.93
225.285	69.46
225.503	55.12
225.721	51.03
225.939	14.17
226.157	20.31
226.375	139.09
226.592	-32.94
226.81	87.89
227.028	106.32
227.246	46.93
227.464	28.5
227.682	87.89
227.9	24.4
228.117	-2.22
228.335	-55.47
228.553	-47.27
228.771	-6.31
228.989	75.6
229.206	98.13
229.424	71.51
229.642	-8.36
229.86	34.64
230.077	-28.84
230.295	-43.18
230.513	81.75
230.731	81.75
230.948	-20.65
231.166	71.51
231.384	5.97
231.601	67.41
231.819	65.36
232.037	46.93
232.254	59.22
232.472	104.28
232.689	73.56
232.907	30.55
233.125	36.69
233.342	-22.7
233.56	-16.55
233.777	73.56
233.995	22.36
234.213	89.94
234.43	44.88
234.648	24.4
234.865	46.93
235.083	22.36
235.3	-32.94
235.518	16.21
235.735	-18.6
235.953	98.13
236.17	-0.17
236.388	5.97
236.605	63.32
236.822	46.93
237.04	63.32
237.257	-51.37
237.475	32.6
237.692	67.41
237.909	-12.46
238.127	-24.75
238.344	14.17
238.562	63.32
238.779	-73.9
238.996	-18.6
239.214	71.51
239.431	48.98
239.648	-34.99
239.865	8.02
240.083	10.07
240.3	-16.55
240.517	18.26
240.735	32.6
240.952	94.04
241.169	42.84
241.386	104.28
241.603	85.84
241.821	26.45
242.038	22.36
242.255	40.79
242.472	46.93
242.689	83.8
242.907	46.93
243.124	44.88
243.341	-51.37
243.558	5.97
243.775	-37.03
243.992	-24.75
244.209	63.32
244.426	104.28
244.643	79.7
244.86	-14.51
245.078	-10.41
245.295	-4.27
245.512	55.12
245.729	-34.99
245.946	71.51
246.163	-12.46
246.38	8.02
246.597	16.21
246.814	81.75
247.031	40.79
247.248	16.21
247.464	-8.36
247.681	75.6
247.898	40.79
248.115	5.97
248.332	-32.94
248.549	100.18
248.766	98.13
248.983	69.46
249.2	3.93
249.417	38.74
249.633	-16.55
249.85	67.41
250.067	38.74
250.284	-24.75
250.501	-24.75
250.717	79.7
250.934	-4.27
251.151	65.36
251.368	-24.75
251.585	28.5
251.801	10.07
252.018	1.88
252.235	1.88
252.451	14.17
252.668	-12.46
252.885	155.47
253.102	22.36
253.318	-24.75
253.535	-20.65
253.752	-82.09
253.968	75.6
254.185	10.07
254.401	55.12
254.618	-10.41
254.835	-63.66
255.051	73.56
255.268	-10.41
255.484	100.18
255.701	-6.31
255.917	38.74
256.134	-6.31
256.351	18.26
256.567	67.41
256.784	-2.22
257	-18.6
257.217	38.74
257.433	55.12
257.65	79.7
257.866	1.88
258.082	30.55
258.299	-18.6
258.515	53.08
258.732	-10.41
258.948	18.26
259.165	42.84
259.381	-18.6
259.597	59.22
259.814	36.69
260.03	26.45
260.246	81.75
260.463	51.03
260.679	81.75
260.895	20.31
261.112	75.6
261.328	48.98
261.544	-32.94
261.761	143.19
261.977	38.74
262.193	-63.66
262.409	75.6
262.626	-32.94
262.842	48.98
263.058	-49.32
263.274	14.17
263.49	42.84
263.707	-8.36
263.923	40.79
264.139	-10.41
264.355	22.36
264.571	96.08
264.787	26.45
265.004	16.21
265.22	16.21
265.436	-32.94
265.652	38.74
265.868	57.17
266.084	-26.79
266.3	75.6
266.516	26.45
266.732	81.75
266.948	1.88
267.164	-20.65
267.38	16.21
267.596	-18.6
267.812	67.41
268.028	32.6
268.244	51.03
268.46	55.12
268.676	24.4
268.892	30.55
269.108	22.36
269.324	10.07
269.54	38.74
269.756	28.5
269.972	-24.75
270.188	63.32
270.403	-39.08
270.619	65.36
270.835	46.93
271.051	22.36
271.267	16.21
271.483	53.08
271.698	32.6
271.914	42.84
272.13	-8.36
272.346	-2.22
272.562	63.32
272.777	46.93
272.993	-32.94
273.209	18.26
273.425	14.17
273.64	14.17
273.856	-10.41
274.072	38.74
274.287	32.6
274.503	38.74
274.719	3.93
274.934	106.32
275.15	10.07
275.366	34.64
275.581	48.98
275.797	71.51
276.012	38.74
276.228	16.21
276.444	16.21
276.659	30.55
276.875	-0.17
277.09	-16.55
277.306	89.94
277.521	14.17
277.737	-47.27
277.952	100.18
278.168	57.17
278.383	16.21
278.599	-22.7
278.814	46.93
279.03	8.02
279.245	139.09
279.461	-0.17
279.676	87.89
279.892	-18.6
280.107	-34.99
280.322	18.26
280.538	55.12
280.753	14.17
280.969	46.93
281.184	51.03
281.399	65.36
281.615	24.4
281.83	153.43
282.045	-24.75
282.26	-4.27
282.476	38.74
282.691	-10.41
282.906	104.28
283.122	46.93
283.337	22.36
283.552	59.22
283.767	-6.31
283.983	-14.51
284.198	46.93
284.413	55.12
284.628	-47.27
284.843	34.64
285.058	102.23
285.274	-73.9
285.489	-41.13
285.704	71.51
285.919	-20.65
286.134	38.74
286.349	48.98
286.564	34.64
286.779	67.41
286.995	-18.6
287.21	-16.55
287.425	100.18
287.64	20.31
287.855	-10.41
288.07	-16.55
288.285	5.97
288.5	96.08
288.715	5.97
288.93	89.94
289.145	22.36
289.36	46.93
289.575	34.64
289.79	69.46
290.004	71.51
290.219	48.98
290.434	-51.37
290.649	22.36
290.864	16.21
291.079	-43.18
291.294	96.08
291.509	48.98
291.724	-32.94
291.938	-49.32
292.153	40.79
292.368	-0.17
292.583	-16.55
292.798	59.22
293.012	14.17
293.227	-22.7
293.442	91.99
293.657	3.93
293.871	22.36
294.086	-51.37
294.301	102.23
294.516	46.93
294.73	40.79
294.945	-2.22
295.16	5.97
295.374	10.07
295.589	73.56
295.804	-39.08
296.018	79.7
296.233	46.93
296.447	-28.84
296.662	46.93
296.877	1.88
297.091	-45.23
297.306	-39.08
297.52	69.46
297.735	106.32
297.949	-10.41
298.164	30.55
298.378	32.6
298.593	53.08
298.807	-10.41
299.022	65.36
299.236	16.21
299.451	38.74
299.665	10.07
299.88	48.98
300.094	40.79
300.309	63.32
300.523	22.36
300.737	81.75
300.952	-8.36
301.166	-20.65
301.381	-55.47
301.595	24.4
301.809	67.41
302.024	87.89
302.238	28.5
302.452	71.51
302.667	87.89
302.881	30.55
303.095	61.27
303.309	18.26
303.524	22.36
303.738	-18.6
303.952	-0.17
304.166	96.08
304.381	-43.18
304.595	32.6
304.809	42.84
305.023	16.21
305.237	38.74
305.452	-2.22
305.666	122.71
305.88	46.93
306.094	26.45
306.308	48.98
306.522	104.28
306.736	83.8
306.95	75.6
307.164	-26.79
307.379	32.6
307.593	87.89
307.807	1.88
308.021	46.93
308.235	32.6
308.449	28.5
308.663	-8.36
308.877	57.17
309.091	32.6
309.305	104.28
309.519	-20.65
309.733	22.36
309.947	-2.22
310.161	104.28
310.374	32.6
310.588	32.6
310.802	18.26
311.016	65.36
311.23	34.64
311.444	46.93
311.658	40.79
311.872	85.84
312.085	81.75
312.299	34.64
312.513	71.51
312.727	38.74
312.941	8.02
313.154	30.55
313.368	48.98
313.582	28.5
313.796	63.32
314.009	14.17
314.223	55.12
314.437	-18.6
314.651	16.21
314.864	10.07
315.078	-34.99
315.292	32.6
315.505	8.02
315.719	38.74
315.933	55.12
316.146	-0.17
316.36	-6.31
316.573	5.97
316.787	38.74
317.001	67.41
317.214	-10.41
317.428	40.79
317.641	89.94
317.855	71.51
318.068	-18.6
318.282	65.36
318.495	32.6
318.709	73.56
318.922	14.17
319.136	141.14
319.349	30.55
319.563	16.21
319.776	1.88
319.99	46.93
320.203	-10.41
320.417	91.99
320.63	57.17
320.843	61.27
321.057	91.99
321.27	55.12
321.483	10.07
321.697	30.55
321.91	46.93
322.124	48.98
322.337	106.32
322.55	24.4
322.763	48.98
322.977	22.36
323.19	57.17
323.403	32.6
323.617	55.12
323.83	40.79
324.043	-20.65
324.256	75.6
324.469	-0.17
324.683	32.6
324.896	-10.41
325.109	5.97
325.322	46.93
325.535	135
325.748	116.56
325.962	32.6
326.175	5.97
326.388	91.99
326.601	71.51
326.814	8.02
327.027	53.08
327.24	-24.75
327.453	-116.9
327.666	32.6
327.879	65.36
328.092	-26.79
328.305	30.55
328.518	8.02
328.731	22.36
328.944	46.93
329.157	53.08
329.37	59.22
329.583	24.4
329.796	96.08
330.009	-51.37
330.222	55.12
330.435	1.88
330.648	-51.37
330.861	-8.36
331.073	-43.18
331.286	-16.55
331.499	-49.32
331.712	-55.47
331.925	75.6
332.138	-16.55
332.35	14.17
332.563	14.17
332.776	48.98
332.989	10.07
333.202	5.97
333.414	48.98
333.627	-10.41
333.84	36.69
334.053	69.46
334.265	26.45
334.478	100.18
334.691	-26.79
334.903	46.93
335.116	-2.22
335.329	38.74
335.541	55.12
335.754	63.32
335.966	-0.17
336.179	16.21
336.392	-18.6
336.604	-12.46
336.817	24.4
337.029	22.36
337.242	22.36
337.454	91.99
337.667	83.8
337.88	5.97
338.092	100.18
338.305	22.36
338.517	102.23
338.729	102.23
338.942	26.45
339.154	51.03
339.367	26.45
339.579	132.95
339.792	28.5
340.004	38.74
340.217	-6.31
340.429	46.93
340.641	16.21
340.854	-16.55
341.066	-10.41
341.278	98.13
341.491	38.74
341.703	116.56
341.915	24.4
342.128	55.12
342.34	67.41
342.552	5.97
342.764	-80.04
342.977	28.5
343.189	30.55
343.401	18.26
343.613	63.32
343.826	71.51
344.038	-55.47
344.25	73.56
344.462	-10.41
344.674	8.02
344.886	12.12
345.099	65.36
345.311	1.88
345.523	46.93
345.735	5.97
345.947	28.5
346.159	34.64
346.371	3.93
346.583	22.36
346.795	65.36
347.007	20.31
347.219	30.55
347.431	112.47
347.643	114.52
347.855	-41.13
348.067	120.66
348.279	28.5
348.491	-10.41
348.703	73.56
348.915	22.36
349.127	16.21
349.339	32.6
349.551	10.07
349.763	14.17
349.975	-67.75
350.187	-10.41
350.399	69.46
350.61	38.74
350.822	-16.55
351.034	96.08
351.246	-41.13
351.458	-53.42
351.669	-0.17
351.881	16.21
352.093	112.47
352.305	51.03
352.517	63.32
352.728	102.23
352.94	46.93
353.152	14.17
353.363	42.84
353.575	96.08
353.787	14.17
353.999	155.47
354.21	71.51
354.422	24.4
354.633	73.56
354.845	40.79
355.057	32.6
355.268	91.99
355.48	40.79
355.692	48.98
355.903	55.12
356.115	48.98
356.326	26.45
356.538	40.79
356.749	-43.18
356.961	89.94
357.172	-26.79
357.384	36.69
357.595	124.76
357.807	24.4
358.018	55.12
358.23	26.45
358.441	14.17
358.653	98.13
358.864	16.21
359.075	104.28
359.287	55.12
359.498	81.75
359.709	8.02
359.921	-2.22
360.132	22.36
360.344	55.12
360.555	46.93
360.766	-26.79
360.977	51.03
361.189	42.84
361.4	1.88
361.611	65.36
361.823	75.6
362.034	-2.22
362.245	-14.51
362.456	46.93
362.667	73.56
362.879	18.26
363.09	63.32
363.301	161.62
363.512	-12.46
363.723	-59.56
363.935	59.22
364.146	63.32
364.357	12.12
364.568	79.7
364.779	48.98
364.99	63.32
365.201	14.17
365.412	34.64
365.623	22.36
365.834	83.8
366.045	96.08
366.256	57.17
366.467	-8.36
366.678	-82.09
366.889	34.64
367.1	55.12
367.311	55.12
367.522	14.17
367.733	16.21
367.944	67.41
368.155	51.03
368.366	48.98
368.577	89.94
368.788	106.32
368.999	32.6
369.209	79.7
369.42	79.7
369.631	100.18
369.842	26.45
370.053	1.88
370.264	14.17
370.474	28.5
370.685	-10.41
370.896	75.6
371.107	32.6
371.317	87.89
371.528	79.7
371.739	104.28
371.95	-14.51
372.16	81.75
372.371	-20.65
372.582	-34.99
372.792	30.55
373.003	-30.89
373.214	42.84
373.424	38.74
373.635	22.36
373.846	26.45
374.056	57.17
374.267	51.03
374.477	63.32
374.688	59.22
374.898	65.36
375.109	5.97
375.319	110.42
375.53	106.32
375.74	22.36
375.951	22.36
376.161	67.41
376.372	130.9
376.582	81.75
376.793	18.26
377.003	38.74
377.214	-2.22
377.424	34.64
377.635	1.88
377.845	22.36
378.055	110.42
378.266	65.36
378.476	18.26
378.686	38.74
378.897	57.17
379.107	14.17
379.317	51.03
379.528	59.22
379.738	51.03
379.948	-34.99
380.158	77.65
380.369	46.93
380.579	18.26
380.789	10.07
380.999	32.6
381.21	71.51
381.42	161.62
381.63	51.03
381.84	38.74
382.05	51.03
382.261	51.03
382.471	8.02
382.681	87.89
382.891	22.36
383.101	26.45
383.311	59.22
383.521	102.23
383.731	34.64
383.941	42.84
384.151	55.12
384.361	-30.89
384.571	-2.22
384.781	48.98
384.991	67.41
385.201	139.09
385.411	69.46
385.621	42.84
385.831	63.32
386.041	32.6
386.251	22.36
386.461	79.7
386.671	3.93
386.881	104.28
387.091	-32.94
387.301	63.32
387.511	104.28
387.72	104.28
387.93	-10.41
388.14	-65.71
388.35	-4.27
388.56	81.75
388.769	14.17
388.979	145.24
389.189	32.6
389.399	46.93
389.609	28.5
389.818	63.32
390.028	79.7
390.238	26.45
390.447	30.55
390.657	96.08
390.867	32.6
391.076	51.03
391.286	30.55
391.496	48.98
391.705	57.17
391.915	147.28
392.125	-2.22
392.334	5.97
392.544	75.6
392.753	112.47
392.963	24.4
393.172	91.99
393.382	30.55
393.591	98.13
393.801	98.13
394.01	79.7
394.22	91.99
394.429	73.56
394.639	3.93
394.848	87.89
395.058	51.03
395.267	81.75
395.477	65.36
395.686	108.37
395.895	116.56
396.105	212.82
396.314	71.51
396.524	79.7
396.733	73.56
396.942	48.98
397.152	63.32
397.361	169.81
397.57	132.95
397.78	65.36
397.989	81.75
398.198	108.37
398.407	81.75
398.617	14.17
398.826	132.95
399.035	22.36
399.244	106.32
399.453	135
399.663	126.8
399.872	46.93
400.081	14.17
400.29	147.28
400.499	83.8
400.708	79.7
400.917	67.41
401.127	55.12
401.336	14.17
401.545	110.42
401.754	42.84
401.963	71.51
402.172	75.6
402.381	32.6
402.59	112.47
402.799	57.17
403.008	87.89
403.217	30.55
403.426	96.08
403.635	79.7
403.844	114.52
404.053	87.89
404.262	130.9
404.471	186.19
404.68	110.42
404.888	104.28
405.097	59.22
405.306	130.9
405.515	10.07
405.724	141.14
405.933	141.14
406.142	104.28
406.35	143.19
406.559	145.24
406.768	202.58
406.977	202.58
407.185	165.71
407.394	163.67
407.603	145.24
407.812	112.47
408.02	175.95
408.229	139.09
408.438	155.47
408.646	153.43
408.855	135
409.064	98.13
409.272	153.43
409.481	163.67
409.69	196.43
409.898	204.63
410.107	210.77
410.315	208.72
410.524	229.2
410.733	309.07
410.941	237.39
411.15	218.96
411.358	300.88
411.567	317.26
411.775	276.31
411.984	309.07
412.192	268.11
412.401	352.08
412.609	327.5
412.818	272.21
413.026	280.4
413.234	343.89
413.443	350.03
413.651	288.59
413.86	313.17
414.068	474.96
414.276	448.33
414.485	436.05
414.693	436.05
414.901	452.43
415.11	515.92
415.318	472.91
415.526	501.58
415.734	450.38
415.943	575.31
416.151	610.12
416.359	548.68
416.567	530.25
416.776	513.87
416.984	638.8
417.192	644.94
417.4	653.13
417.608	626.51
417.817	653.13
418.025	685.9
418.233	681.8
418.441	747.34
418.649	816.97
418.857	902.98
419.065	923.46
419.273	907.08
419.481	900.94
419.689	907.08
419.897	1003.33
420.105	1070.92
420.313	984.9
420.521	1105.73
420.729	1060.68
420.937	1034.05
421.145	1212.23
421.353	1179.46
421.561	1251.14
421.769	1349.44
421.977	1369.92
422.185	1455.94
422.393	1365.82
422.601	1412.93
422.809	1531.71
423.017	1490.75
423.224	1496.89
423.432	1630.01
423.64	1607.48
423.848	1857.34
424.056	1648.44
424.263	1918.78
424.471	1789.75
424.679	1951.54
424.887	1972.02
425.094	1957.69
425.302	2152.24
425.51	2144.05
425.718	2320.18
425.925	2127.67
426.133	2236.21
426.341	2471.73
426.548	2496.3
426.756	2563.89
426.964	2627.37
427.171	2660.14
427.379	2770.73
427.586	2856.75
427.794	2742.06
428.001	3200.8
428.209	3239.72
428.417	3221.28
428.624	3383.07
428.832	3284.77
429.039	3473.18
429.247	3299.11
429.454	3641.12
429.662	3813.15
429.869	3639.07
430.076	3839.77
430.284	3749.66
430.491	3872.54
430.699	4120.34
430.906	4228.88
431.114	4224.79
431.321	4333.33
431.528	4554.51
431.736	4742.92
431.943	4896.52
432.15	4720.4
432.358	4820.75
432.565	5256.97
432.772	5003.02
432.979	5119.75
433.187	5472
433.394	5490.43
433.601	5797.63
433.808	5877.5
434.016	5742.33
434.223	6059.77
434.43	6432.5
434.637	6426.36
434.844	6655.73
435.052	6850.28
435.259	6686.45
435.466	6862.57
435.673	6807.28
435.88	7091.95
436.087	7597.79
436.294	7474.92
436.501	7202.54
436.708	7429.86
436.915	7898.84
437.122	8077.02
437.329	8062.68
437.537	8345.3
437.743	8427.22
437.95	8410.84
438.157	8824.53
438.364	9101
438.571	9053.9
438.778	9205.45
438.985	10032.83
439.192	9608.9
439.399	9993.92
439.606	9703.11
439.813	10378.93
440.02	10892.98
440.227	10792.62
440.433	10647.22
440.64	10942.13
440.847	10897.07
441.054	11091.63
441.261	12105.37
441.467	11736.74
441.674	12023.45
441.881	12297.88
442.088	12021.41
442.294	12197.53
442.501	12676.76
442.708	12951.18
442.914	13141.64
443.121	13971.07
443.328	13489.8
443.534	14468.73
443.741	13751.94
443.948	13790.85
444.154	14763.64
444.361	14962.29
444.568	14782.07
444.774	14763.64
444.981	14904.95
445.187	15367.79
445.394	15908.45
445.6	15935.07
445.807	17495.63
446.013	16451.16
446.22	16860.76
446.426	17546.83
446.633	17825.35
446.839	18511.42
447.046	17387.08
447.252	18554.43
447.459	18406.97
447.665	18443.84
447.871	19441.2
448.078	19928.61
448.284	19025.46
448.491	19852.84
448.697	20778.52
448.903	20651.55
449.11	21169.68
449.316	20610.59
449.522	21147.15
449.728	21296.66
449.935	21413.39
450.141	21669.39
450.347	22285.83
450.553	21310.99
450.76	21843.46
450.966	22640.12
451.172	22390.27
451.378	23006.71
451.584	22457.85
451.791	22810.11
451.997	22978.04
452.203	23346.67
452.409	23647.72
452.615	23340.53
452.821	22304.26
453.027	21939.72
453.233	23471.6
453.44	22210.05
453.646	22535.68
453.852	22816.25
454.058	23119.35
454.264	22771.19
454.47	23252.47
454.676	22121.99
454.882	23242.23
455.088	21433.87
455.294	21341.71
455.5	21997.06
455.705	22095.36
455.911	21208.59
456.117	20616.73
456.323	20598.3
456.529	19605.03
456.735	20483.61
456.941	19824.17
457.147	19568.17
457.352	18992.69
457.558	18904.63
457.764	19066.42
457.97	18505.27
458.176	18243.13
458.381	18064.96
458.587	17245.77
458.793	17251.92
458.999	16580.18
459.204	17626.7
459.41	17192.53
459.616	15951.46
459.821	16035.42
460.027	15871.59
460.233	15509.1
460.438	14900.85
460.644	14884.47
460.85	14349.95
461.055	14165.63
461.261	14014.08
461.466	12961.42
461.672	12613.27
461.878	13524.61
462.083	12809.87
462.289	12314.27
462.494	12301.98
462.7	11712.16
462.905	11507.37
463.111	11730.59
463.316	11796.13
463.522	11601.57
463.727	11404.97
463.932	11533.99
464.138	11390.63
464.343	11634.34
464.549	11271.85
464.754	11468.45
464.959	11490.98
465.165	11177.64
465.37	10847.92
465.575	10659.51
465.781	11073.2
465.986	11065
466.191	10618.55
466.397	10647.22
466.602	9795.26
466.807	10436.28
467.012	10428.09
467.218	9967.29
467.423	10229.43
467.628	10200.76
467.833	10794.67
468.038	10337.98
468.244	9807.55
468.449	10391.22
468.654	10196.67
468.859	9889.47
469.064	9961.15
469.269	9418.44
469.474	9565.89
469.679	9727.68
469.885	9391.81
470.09	9610.95
470.295	9680.58
470.5	9373.38
470.705	9379.53
470.91	9410.25
471.115	9129.67
471.32	9305.8
471.525	9090.76
471.73	9045.71
471.935	9092.81
472.139	8683.22
472.344	8781.52
472.549	8574.67
472.754	8605.39
472.959	8402.65
473.164	8079.07
473.369	8244.95
473.574	8480.47
473.778	8509.14
473.983	8173.27
474.188	8201.94
474.393	7821.02
474.598	7825.12
474.802	7872.22
475.007	7749.34
475.212	7806.69
475.417	7583.46
475.621	7636.7
475.826	7636.7
476.031	7532.26
476.235	7153.38
476.44	7331.56
476.645	7012.07
476.849	7075.56
477.054	7206.63
477.259	7010.03
477.463	7161.58
477.668	6772.46
477.872	7034.6
478.077	6854.38
478.282	6715.12
478.486	6579.95
478.691	6772.46
478.895	6719.21
479.1	6506.23
479.304	6510.32
479.509	6291.19
479.713	6397.68
479.918	6182.65
480.122	6184.69
480.326	6297.33
480.531	6268.66
480.735	6258.42
480.94	6252.28
481.144	6379.25
481.348	6219.51
481.553	6254.33
481.757	5953.27
481.961	6145.78
482.166	6047.48
482.37	5916.41
482.574	6006.52
482.778	6055.67
482.983	6104.82
483.187	5809.92
483.391	6092.54
483.595	6186.74
483.8	5814.01
484.004	5975.8
484.208	6086.39
484.412	5969.66
484.616	6248.18
484.821	6229.75
485.025	5943.03
485.229	5996.28
485.433	6174.46
485.637	6076.15
485.841	5893.88
486.045	6006.52
486.249	6061.82
486.453	6045.43
486.657	6059.77
486.861	6065.91
487.065	5986.04
487.269	5983.99
487.473	6031.1
487.677	6018.81
487.881	6113.02
488.085	5977.85
488.289	6088.44
488.493	6008.57
488.697	6063.86
488.901	6059.77
489.105	6067.96
489.309	6039.29
489.512	6162.17
489.716	6266.61
489.92	6184.69
490.124	6043.39
490.328	6432.5
490.531	6082.3
490.735	6092.54
490.939	6176.5
491.143	6272.76
491.346	6321.91
491.55	6452.98
491.754	6301.43
491.958	6334.2
492.161	6328.05
492.365	6256.37
492.569	6305.53
492.772	6416.12
492.976	6559.47
493.18	6461.17
493.383	6616.82
493.587	6582
493.79	6749.93
493.994	6622.96
494.197	6612.72
494.401	6846.19
494.605	6596.34
494.808	6768.37
495.012	6840.04
495.215	6926.06
495.419	6993.64
495.622	6811.37
495.825	7192.3
496.029	6979.31
496.232	7251.69
496.436	7153.38
496.639	7231.21
496.843	7356.13
497.046	7266.02
497.249	7446.24
497.453	7479.01
497.656	7487.2
497.859	7624.42
498.063	7581.41
498.266	7894.75
498.469	7790.3
498.673	7898.84
498.876	8027.87
499.079	8214.23
499.282	8142.55
499.485	8222.42
499.689	8378.07
499.892	8591.06
500.095	8554.19
500.298	8656.59
500.501	8470.23
500.705	8957.64
500.908	8890.06
501.111	9217.74
501.314	8914.64
501.517	9275.08
501.72	9473.73
501.923	9268.94
502.126	9559.75
502.329	9635.52
502.532	9649.86
502.735	9735.87
502.938	9971.39
503.141	9883.33
503.344	10180.28
503.547	10196.67
503.75	10303.16
503.953	10600.12
504.156	10600.12
504.359	10667.7
504.562	10632.88
504.765	10860.21
504.968	11134.64
505.17	11103.92
505.373	11019.95
505.576	11493.03
505.779	11447.97
505.982	11665.06
506.185	11595.43
506.387	12009.12
506.59	11876
506.793	12027.55
506.996	12183.2
507.198	12396.18
507.401	12402.33
507.604	12355.22
507.807	12940.94
508.009	12791.44
508.212	12967.57
508.415	13094.54
508.617	13440.65
508.82	13424.26
509.022	13362.83
509.225	13713.03
509.428	13698.69
509.63	13538.95
509.833	14040.7
510.035	14245.5
510.238	14206.59
510.44	14632.57
510.643	14718.58
510.845	14966.38
511.048	14624.37
511.25	14919.28
511.453	15023.73
511.655	15838.82
511.858	15390.31
512.06	15580.78
512.262	15898.21
512.465	15840.87
512.667	16072.29
512.87	16338.52
513.072	16334.43
513.274	16940.63
513.477	16637.53
513.679	17051.22
513.881	17280.59
514.084	17335.88
514.286	17389.13
514.488	17421.9
514.69	18003.52
514.893	17888.84
515.095	18126.4
515.297	18474.56
515.499	18380.35
515.701	18617.91
515.904	18939.44
516.106	18921.01
516.308	19332.65
516.51	19211.82
516.712	19625.51
516.914	19750.44
517.116	20031.01
517.318	20090.4
517.52	20377.12
517.722	20565.53
517.925	20446.75
518.127	21040.66
518.329	21259.79
518.531	20837.91
518.733	21331.47
518.935	21435.92
519.136	21753.35
519.338	21986.82
519.54	22025.73
519.742	22271.49
519.944	22414.85
520.146	22947.32
520.348	22863.35
520.55	23000.57
520.752	23096.82
520.954	23256.56
521.155	23272.95
521.357	23680.49
521.559	23856.62
521.761	24409.57
521.963	24051.17
522.164	24534.49
522.366	24884.7
522.568	24839.64
522.77	25013.72
522.971	25339.35
523.173	25064.92
523.375	25411.03
523.576	25630.16
523.778	25550.29
523.98	25955.79
524.181	26019.27
524.383	26277.32
524.584	26437.06
524.786	26469.83
524.988	26598.85
525.189	26951.1
525.391	27053.5
525.592	27203
525.794	27057.59
525.995	27078.07
526.197	27157.94
526.398	27456.95
526.6	27811.24
526.801	27704.75
527.003	27798.96
527.204	27895.21
527.406	28349.86
527.607	28272.04
527.808	28745.12
528.01	28048.81
528.211	28286.37
528.412	28937.63
528.614	28784.03
528.815	28802.46
529.016	29142.42
529.218	29099.42
529.419	29089.18
529.62	29244.82
529.822	28951.96
530.023	29218.2
530.224	29480.34
530.425	29427.09
530.626	29410.71
530.828	29203.86
531.029	29775.25
531.23	28890.52
531.431	29466
531.632	29832.59
531.833	29728.14
532.035	29889.93
532.236	29726.1
532.437	30111.11
532.638	30000.52
532.839	30162.31
533.04	29795.73
533.241	29689.23
533.442	30256.52
533.643	30199.18
533.844	30055.82
534.045	30385.54
534.246	30051.72
534.447	30233.99
534.648	29943.18
534.849	30064.01
535.05	29803.92
535.251	30039.43
535.451	30070.15
535.652	30332.29
535.853	29967.76
536.054	30279.05
536.255	29996.43
536.456	30025.1
536.657	30465.41
536.857	30129.55
537.058	29746.58
537.259	30416.26
537.46	29900.17
537.66	30041.48
537.861	30164.36
538.062	30082.44
538.263	30231.94
538.463	30076.3
538.664	30010.76
538.865	30418.31
539.065	30397.83
539.266	30283.14
539.466	30563.71
539.667	29900.17
539.868	30281.1
540.068	30164.36
540.269	30526.85
540.469	30455.17
540.67	30377.35
540.87	30412.17
541.071	30195.08
541.271	30029.2
541.472	30236.04
541.672	30229.9
541.873	29689.23
542.073	29625.75
542.274	30305.67
542.474	30307.72
542.675	29666.7
542.875	30293.38
543.075	29885.84
543.276	29740.43
543.476	30360.97
543.676	29992.33
543.877	30367.11
544.077	30121.35
544.277	30188.94
544.478	30156.17
544.678	30135.69
544.878	29805.97
545.078	30115.21
545.279	29734.29
545.479	30264.71
545.679	30035.34
545.879	30082.44
546.079	30272.9
546.28	30147.98
546.48	29818.25
546.68	30152.07
546.88	29879.69
547.08	30053.77
547.28	29896.08
547.48	29564.31
547.68	29947.28
547.88	29633.94
548.081	30244.23
548.281	29783.44
548.481	30006.67
548.681	30131.59
548.881	29980.04
549.081	30061.96
549.28	29693.33
549.48	30160.27
549.68	29830.54
549.88	29842.83
550.08	29834.64
550.28	30051.72
550.48	29715.86
550.68	29973.9
550.88	29707.66
551.08	30096.78
551.279	29945.23
551.479	29496.72
551.679	30055.82
551.879	29504.92
552.079	29945.23
552.278	29521.3
552.478	29799.82
552.678	29740.43
552.878	29621.65
553.077	29730.19
553.277	29291.93
553.477	30102.92
553.676	29552.02
553.876	29709.71
554.076	29506.96
554.275	30045.58
554.475	29083.03
554.674	29773.2
554.874	29455.76
555.074	29269.4
555.273	29836.69
555.473	29564.31
555.672	29185.43
555.872	29308.31
556.071	29605.27
556.271	29242.78
556.47	29195.67
556.67	29058.46
556.869	29314.45
557.068	29171.1
557.268	29197.72
557.467	29203.86
557.667	28911
557.866	29511.06
558.065	29185.43
558.265	28814.75
558.464	28861.85
558.663	28824.99
558.863	28753.31
559.062	29123.99
559.261	28409.25
559.461	29042.07
559.66	28356
559.859	28728.73
560.058	28372.39
560.258	28693.92
560.457	28554.66
560.656	28519.84
560.855	28247.46
561.054	28491.17
561.253	28392.87
561.453	28634.53
561.652	28284.33
561.851	28345.76
562.05	28044.71
562.249	27934.12
562.448	28235.17
562.647	28134.82
562.846	27970.99
563.045	27721.13
563.244	27577.78
563.443	27983.27
563.642	27444.66
563.841	27846.06
564.04	27526.58
564.239	27964.84
564.438	27227.57
564.637	27575.73
564.836	27573.68
565.035	26809.79
565.234	27033.02
565.432	27235.77
565.631	27084.22
565.83	27291.06
566.029	26678.72
566.228	26895.8
566.427	26746.3
566.625	26852.8
566.824	26674.62
567.023	26887.61
567.222	26379.71
567.42	26598.85
567.619	26471.87
567.818	26580.42
568.016	26123.72
568.215	26584.51
568.414	26330.56
568.612	26693.05
568.811	26420.67
569.01	26258.88
569.208	25908.68
569.407	26056.14
569.605	25595.34
569.804	26303.94
570.002	25302.48
570.201	25769.42
570.4	25527.76
570.598	25570.77
570.797	25441.75
570.995	25171.41
571.193	24907.23
571.392	25343.44
571.59	25083.35
571.789	25009.62
571.987	24907.23
572.186	25026.01
572.384	24622.56
572.582	24712.67
572.781	24966.62
572.979	24284.64
573.177	24774.11
573.376	24694.24
573.574	24348.13
573.772	24534.49
573.971	24247.78
574.169	24178.15
574.367	23926.25
574.565	24077.8
574.763	24081.89
574.962	24116.71
575.16	23580.14
575.358	23604.72
575.556	23440.88
575.754	23879.14
575.952	23447.02
576.151	23602.67
576.349	23698.92
576.547	23258.61
576.745	23502.32
576.943	23410.16
577.141	23381.49
577.339	23371.25
577.537	22744.57
577.735	22879.74
577.933	22887.93
578.131	22994.42
578.329	22939.13
578.527	22787.58
578.725	22582.78
578.923	22719.99
579.121	22818.3
579.319	22398.46
579.516	22451.71
579.714	22566.4
579.912	22375.94
580.11	22373.89
580.308	22109.7
580.506	22191.62
580.704	21728.78
580.901	22099.46
581.099	22212.1
581.297	21962.25
581.495	21921.29
581.692	22070.79
581.89	21386.77
582.088	21847.56
582.285	21323.28
582.483	21894.66
582.681	21331.47
582.878	21573.13
583.076	21378.58
583.274	21622.28
583.471	21147.15
583.669	21294.61
583.866	21052.95
584.064	21214.74
584.262	20897.3
584.459	21100.05
584.657	20835.86
584.854	21104.15
585.052	20538.91
585.249	20885.01
585.447	20755.99
585.644	20448.8
585.841	20389.41
586.039	20696.6
586.236	20649.5
586.434	20256.29
586.631	20301.34
586.828	20282.91
587.026	20258.34
587.223	20096.55
587.42	20012.58
587.618	19932.71
587.815	19871.27
588.012	19793.45
588.21	19834.41
588.407	19850.79
588.604	19783.21
588.801	19414.57
588.999	19807.78
589.196	19586.6
589.393	19545.64
589.59	19320.37
589.787	19277.36
589.984	19433
590.182	19031.6
590.379	19260.98
590.576	18996.79
590.773	19162.67
590.97	18796.09
591.167	19031.6
591.364	18636.34
591.561	18800.18
591.758	18755.13
591.955	18738.74
592.152	18640.44
592.349	18507.32
592.546	18835
592.743	18708.02
592.94	18261.57
593.137	18583.1
593.334	18552.38
593.531	18114.11
593.727	18306.62
593.924	18280
594.121	18009.67
594.318	18363.97
594.515	17874.5
594.712	18122.3
594.908	18032.19
595.105	17806.92
595.302	17641.03
595.499	17948.23
595.696	17796.68
595.892	17618.5
596.089	17743.43
596.286	17299.02
596.482	17626.7
596.679	17604.17
596.876	17542.73
597.072	17231.44
597.269	17450.57
597.466	17167.95
597.662	17213.01
597.859	17262.16
598.055	17319.5
598.252	17049.17
598.448	17147.47
598.645	17200.72
598.841	16987.73
599.038	16721.49
599.234	16655.96
599.431	16498.27
599.627	16547.42
599.824	16635.48
600.02	16504.41
600.217	16778.84
600.413	16635.48
600.609	16592.47
600.806	16320.09
601.002	16348.76
601.198	16223.84
601.395	16293.47
601.591	16094.82
601.787	16178.78
601.984	15967.84
602.18	16086.62
602.376	16217.69
602.572	15877.73
602.769	15959.65
602.965	15607.4
603.161	15677.03
603.357	15703.65
603.553	15636.07
603.75	15838.82
603.946	15421.03
604.142	15703.65
604.338	15279.72
604.534	15709.8
604.73	15439.47
604.926	15300.2
605.122	15371.88
605.318	15279.72
605.514	15013.49
605.71	15103.6
605.906	15279.72
606.102	15255.15
606.298	15091.31
606.494	15042.16
606.69	14999.15
606.886	15156.85
607.082	14681.72
607.278	14825.08
607.474	14433.91
607.67	15001.2
607.866	14550.65
608.062	14761.59
608.257	14796.4
608.453	14669.43
608.649	14579.32
608.845	14364.28
609.041	14421.63
609.236	14464.63
609.432	14386.81
609.628	14388.86
609.824	14397.05
610.019	14149.25
610.215	14243.45
610.411	14235.26
610.606	14182.01
610.802	14300.8
610.998	14147.2
611.193	14222.97
611.389	14046.85
611.584	14081.66
611.78	14136.96
611.976	14098.05
612.171	14087.81
612.367	13950.59
612.562	13768.32
612.758	13774.47
612.953	13745.8
613.149	14177.92
613.344	13508.23
613.539	13893.25
613.735	13753.99
613.93	13792.9
614.126	13524.61
614.321	14001.79
614.517	13805.19
614.712	13522.57
614.907	13549.19
615.103	13702.79
615.298	13295.24
615.493	13534.85
615.688	13164.17
615.884	13428.36
616.079	13440.65
616.274	13522.57
616.47	13391.5
616.665	13454.98
616.86	13184.65
617.055	13102.73
617.25	13194.89
617.445	13352.59
617.641	13110.93
617.836	13317.77
618.031	12990.1
618.226	12979.86
618.421	12906.13
618.616	12983.95
618.811	12768.91
619.006	13065.87
619.201	12811.92
619.396	12842.64
619.591	12609.17
619.786	12713.62
619.981	12492.44
620.176	12682.9
620.371	12392.09
620.566	12562.07
620.761	12275.35
620.956	12517.01
621.151	12275.35
621.346	12568.21
621.541	12033.69
621.735	12123.8
621.93	11746.98
622.125	12091.04
622.32	11894.43
622.515	11943.58
622.709	11757.22
622.904	11808.42
623.099	11654.82
623.294	11740.83
623.488	11474.6
623.683	11568.8
623.878	11327.14
624.072	11669.16
624.267	11331.24
624.462	11267.75
624.656	11230.89
624.851	11355.82
625.046	11118.25
625.24	10747.57
625.435	10876.59
625.629	11073.2
625.824	11118.25
626.018	10880.69
626.213	10649.27
626.407	10671.79
626.602	10356.41
626.796	10528.44
626.991	10436.28
627.185	10501.81
627.38	10448.57
627.574	10362.55
627.768	10321.59
627.963	10286.78
628.157	10270.39
628.352	10049.21
628.546	9926.33
628.74	9955.01
628.935	9756.35
629.129	9916.09
629.323	9746.11
629.517	9975.49
629.712	9664.19
629.906	9842.37
630.1	9598.66
630.294	9537.22
630.489	9664.19
630.683	9473.73
630.877	9420.49
631.071	9385.67
631.265	9268.94
631.459	9262.79
631.653	9512.64
631.848	9184.97
632.042	9318.09
632.236	9238.22
632.43	9133.77
632.624	9021.13
632.818	8953.55
633.012	8830.67
633.206	8879.82
633.4	8867.53
633.594	8736.46
633.788	8595.15
633.982	8920.78
634.176	8582.87
634.369	8419.03
634.563	8511.19
634.757	8619.73
634.951	8617.68
635.145	8423.12
635.339	8255.19
635.533	8333.01
635.726	8253.14
635.92	7927.52
636.114	8138.46
636.308	8099.55
636.501	8443.6
636.695	8197.85
636.889	7847.65
637.083	7935.71
637.276	8079.07
637.47	7810.78
637.664	7970.52
637.857	7782.11
638.051	7747.3
638.244	7644.9
638.438	7698.14
638.632	7726.82
638.825	7618.27
639.019	7567.07
639.212	7380.71
639.406	7444.2
639.599	7444.2
639.793	7538.4
639.986	7335.65
640.18	7366.37
640.373	7411.43
640.567	7284.45
640.76	7206.63
640.954	7120.62
641.147	7093.99
641.34	7063.27
641.534	6921.96
641.727	6954.73
641.92	7104.23
642.114	7093.99
642.307	6983.4
642.5	6997.74
642.694	6805.23
642.887	6711.02
643.08	6921.96
643.273	6620.91
643.467	6833.9
643.66	6721.26
643.853	6420.21
644.046	6428.4
644.239	6534.9
644.432	6416.12
644.626	6473.46
644.819	6133.5
645.012	6334.2
645.205	6422.26
645.398	6409.97
645.591	6280.95
645.784	6389.49
645.977	6358.77
646.17	6041.34
646.363	6153.98
646.556	6024.95
646.749	5887.74
646.942	6156.02
647.135	6129.4
647.328	6000.38
647.521	5914.36
647.714	5871.36
647.907	5881.6
648.099	5869.31
648.292	5818.11
648.485	5695.23
648.678	5699.33
648.871	5695.23
649.064	5510.91
649.256	5676.8
649.449	5578.5
649.642	5496.58
649.835	5428.99
650.027	5699.33
650.22	5537.54
650.413	5453.57
650.605	5371.65
650.798	5502.72
650.991	5367.56
651.183	5422.85
651.376	5322.5
651.568	5250.82
651.761	5302.02
651.954	5281.54
652.146	5265.16
652.339	5140.23
652.531	5148.42
652.724	5078.79
652.916	5023.5
653.109	5152.52
653.301	5035.78
653.494	5056.26
653.686	4966.15
653.879	4896.52
654.071	4917
654.263	4880.14
654.456	4802.32
654.648	5003.02
654.84	4822.8
655.033	4728.59
655.225	4871.95
655.417	4785.93
655.61	4699.92
655.802	4718.35
655.994	4802.32
656.186	4615.95
656.379	4749.07
656.571	4710.16
656.763	4499.22
656.955	4421.39
657.148	4527.89
657.34	4445.97
657.532	4501.26
657.724	4505.36
657.916	4497.17
658.108	4417.3
658.3	4407.06
658.492	4265.75
658.684	4286.23
658.876	4325.14
659.068	4359.95
659.26	4290.32
659.452	4421.39
659.644	4380.43
659.836	4167.45
660.028	4200.21
660.22	4026.14
660.412	4177.69
660.604	4126.49
660.796	4232.98
660.988	4198.17
661.18	4286.23
661.372	3927.83
661.563	4009.75
661.755	4073.24
661.947	4120.34
662.139	3841.82
662.331	3917.59
662.522	3964.7
662.714	4026.14
662.906	3948.31
663.097	3747.61
663.289	3790.62
663.481	3774.24
663.673	3823.39
663.864	3708.7
664.056	3757.85
664.247	3825.43
664.439	3671.84
664.631	3792.67
664.822	3680.03
665.014	3686.17
665.205	3626.78
665.397	3573.53
665.588	3714.84
665.78	3557.15
665.971	3571.49
666.163	3628.83
666.354	3548.96
666.546	3577.63
666.737	3585.82
666.929	3614.49
667.12	3536.67
667.311	3495.71
667.503	3503.9
667.694	3409.7
667.885	3489.57
668.077	3501.86
668.268	3508
668.459	3303.2
668.651	3454.75
668.842	3331.87
669.033	3176.23
669.224	3391.27
669.416	3464.99
669.607	3305.25
669.798	3342.11
669.989	3323.68
670.18	3327.78
670.371	3159.85
670.563	3209
670.754	3114.79
670.945	3129.13
671.136	3133.22
671.327	3086.12
671.518	3219.24
671.709	3159.85
671.9	3235.62
672.091	3186.47
672.282	3153.7
672.473	3129.13
672.664	3090.21
672.855	3047.21
673.046	3039.01
673.237	3082.02
673.428	3264.29
673.619	3039.01
673.809	3057.45
674	3032.87
674.191	3061.54
674.382	3010.34
674.573	3008.3
674.764	3028.78
674.954	3067.69
675.145	2946.86
675.336	2858.79
675.527	2926.38
675.717	2950.95
675.908	2889.51
676.099	2973.48
676.289	2893.61
676.48	2938.66
676.671	2883.37
676.861	3094.31
677.052	2936.62
677.243	2768.68
677.433	2930.47
677.624	2819.88
677.814	2873.13
678.005	2899.75
678.195	2811.69
678.386	2848.55
678.576	2930.47
678.767	2873.13
678.957	2795.31
679.148	2793.26
679.338	2955.05
679.529	2809.64
679.719	2881.32
679.909	2807.59
680.1	2799.4
680.29	2832.17
680.481	2717.48
680.671	2791.21
680.861	2858.79
681.052	2850.6
681.242	2783.02
681.432	2719.53
681.622	2826.03
681.813	2717.48
682.003	2676.52
682.193	2699.05
682.383	2760.49
682.573	2664.24
682.764	2670.38
682.954	2713.39
683.144	2768.68
683.334	2662.19
683.524	2697
683.714	2713.39
683.904	2604.85
684.094	2694.96
684.284	2723.63
684.474	2621.23
684.664	2643.76
684.854	2584.37
685.044	2670.38
685.234	2684.72
685.424	2678.57
685.614	2594.61
685.804	2600.75
685.994	2697
686.184	2578.22
686.374	2434.86
686.564	2619.18
686.753	2516.78
686.943	2594.61
687.133	2537.26
687.323	2441.01
687.513	2500.4
687.702	2615.09
687.892	2561.84
688.082	2459.44
688.272	2514.73
688.461	2424.62
688.651	2500.4
688.841	2512.69
689.03	2465.58
689.22	2400.05
689.41	2365.23
689.599	2365.23
689.789	2352.95
689.979	2432.82
690.168	2357.04
690.358	2342.71
690.547	2395.95
690.737	2363.19
690.926	2447.15
691.116	2254.64
691.305	2420.53
691.495	2373.43
691.684	2400.05
691.874	2406.19
692.063	2326.32
692.252	2277.17
692.442	2303.79
692.631	2336.56
692.82	2295.6
693.01	2144.05
693.199	2230.07
693.388	2207.54
693.578	2160.44
693.767	2201.4
693.956	2193.2
694.146	2113.33
694.335	2160.44
694.524	2258.74
694.713	2225.97
694.902	2168.63
695.092	2254.64
695.281	2135.86
695.47	2168.63
695.659	2103.09
695.848	2207.54
696.037	2187.06
696.226	2049.85
696.415	2240.31
696.604	2127.67
696.793	2090.81
696.982	2002.74
697.171	2111.29
697.36	2072.37
697.549	2156.34
697.738	2008.89
697.927	2094.9
698.116	2072.37
698.305	2045.75
698.494	2193.2
698.683	2144.05
698.872	2178.87
699.061	2000.69
699.25	2027.32
699.438	2156.34
699.627	1988.41
699.816	2168.63
700.005	2115.38
700.193	2135.86
700.382	2096.95
700.571	2137.91
700.76	2066.23
700.948	2176.82
701.137	2029.37
701.326	2070.33
701.514	2045.75
701.703	2045.75
701.892	1998.65
702.08	2178.87
702.269	2012.98
702.457	2191.16
702.646	2064.18
702.834	1965.88
703.023	2053.94
703.212	2004.79
703.4	2129.72
703.589	1972.02
703.777	2103.09
703.965	2039.61
704.154	2045.75
704.342	2045.75
704.531	2119.48
704.719	2180.92
704.907	1986.36
705.096	2082.61
705.284	2152.24
705.472	2008.89
705.661	2088.76
705.849	2029.37
706.037	2058.04
706.226	2178.87
706.414	2105.14
706.602	2021.17
706.79	2197.3
706.979	2070.33
707.167	2074.42
707.355	2055.99
707.543	2127.67
707.731	2058.04
707.919	2025.27
708.107	2082.61
708.296	2096.95
708.484	2031.41
708.672	2137.91
708.86	1965.88
709.048	2037.56
709.236	2170.68
709.424	2111.29
709.612	2131.76
709.8	2000.69
709.988	2182.96
710.176	2064.18
710.364	2152.24
710.551	2037.56
710.739	2078.52
710.927	2053.94
711.115	2101.05
711.303	2164.53
711.491	2086.71
711.679	2068.28
711.866	2072.37
712.054	2010.93
712.242	2068.28
712.43	2053.94
712.617	2080.57
712.805	2131.76
712.993	2084.66
713.181	2099
713.368	2041.65
713.556	2066.23
713.744	1945.4
713.931	2103.09
714.119	2068.28
714.306	2039.61
714.494	2049.85
714.682	2033.46
714.869	2064.18
715.057	2025.27
715.244	2088.76
715.432	2103.09
715.619	2166.58
715.807	1998.65
715.994	2105.14
716.182	2152.24
716.369	2080.57
716.556	2103.09
716.744	2074.42
716.931	2088.76
717.119	2094.9
717.306	2154.29
717.493	2064.18
717.681	2037.56
717.868	2217.78
718.055	1978.17
718.242	2139.96
718.43	2086.71
718.617	2117.43
718.804	2078.52
718.991	2041.65
719.179	2074.42
719.366	2088.76
719.553	2043.7
719.74	2096.95
719.927	2105.14
720.114	2070.33
720.301	2006.84
720.488	2115.38
720.676	2088.76
720.863	2123.57
721.05	2131.76
721.237	2099
721.424	2146.1
721.611	2010.93
721.798	2082.61
721.985	2049.85
722.172	2045.75
722.358	2037.56
722.545	2135.86
722.732	1926.97
722.919	2176.82
723.106	2062.13
723.293	2137.91
723.48	2111.29
723.667	2043.7
723.853	1931.06
724.04	2152.24
724.227	1996.6
724.414	2021.17
724.6	1986.36
724.787	2076.47
724.974	2094.9
725.161	2099
725.347	2086.71
725.534	2084.66
725.72	2082.61
725.907	2086.71
726.094	2053.94
726.28	2189.11
726.467	2068.28
726.653	1943.35
726.84	2074.42
727.027	2168.63
727.213	2023.22
727.4	2103.09
727.586	2109.24
727.773	2191.16
727.959	2137.91
728.145	2078.52
728.332	2035.51
728.518	2123.57
728.705	2053.94
728.891	2074.42
729.077	2205.49
729.264	2090.81
729.45	2049.85
729.636	2119.48
729.823	2062.13
730.009	2029.37
730.195	2053.94
730.382	2094.9
730.568	2117.43
730.754	2037.56
730.94	2078.52
731.126	2090.81
731.313	2072.37
731.499	2029.37
731.685	2094.9
731.871	1980.22
732.057	2162.48
732.243	2062.13
732.429	2137.91
732.615	2058.04
732.801	2062.13
732.987	1992.5
733.173	2166.58
733.359	1957.69
733.545	2072.37
733.731	2103.09
733.917	2107.19
734.103	2129.72
734.289	2094.9
734.475	1965.88
734.661	2055.99
734.847	1961.78
735.033	2035.51
735.219	2053.94
735.404	1972.02
735.59	2012.98
735.776	2033.46
735.962	1965.88
736.148	2101.05
736.333	2002.74
736.519	2023.22
736.705	2078.52
736.89	2025.27
737.076	1967.93
737.262	1892.15
737.447	1834.81
737.633	1859.38
737.819	2021.17
738.004	1947.45
738.19	1869.62
738.375	1988.41
738.561	2004.79
738.747	1914.68
738.932	1926.97
739.118	2053.94
739.303	1984.31
739.489	1918.78
739.674	1906.49
739.859	1783.61
740.045	1972.02
740.23	1922.87
740.416	1943.35
740.601	2031.41
740.786	1996.6
740.972	1726.27
741.157	1922.87
741.342	1834.81
741.528	1865.53
741.713	1873.72
741.898	1967.93
742.084	1824.57
742.269	1883.96
742.454	1783.61
742.639	1873.72
742.824	1890.1
743.01	1861.43
743.195	1840.95
743.38	1828.67
743.565	1824.57
743.75	1830.71
743.935	1832.76
744.12	1795.9
744.305	1775.42
744.49	1742.65
744.675	1787.71
744.86	1759.03
745.045	1808.19
745.23	1763.13
745.415	1795.9
745.6	1777.47
745.785	1711.93
745.97	1793.85
746.155	1697.6
746.34	1720.12
746.525	1728.31
746.71	1826.62
746.895	1709.88
747.079	1734.46
747.264	1613.63
747.449	1617.72
747.634	1677.12
747.819	1804.09
748.003	1572.67
748.188	1472.32
748.373	1724.22
748.557	1632.06
748.742	1584.96
748.927	1664.83
749.111	1570.62
749.296	1537.85
749.481	1544
749.665	1525.57
749.85	1589.05
750.034	1621.82
750.219	1521.47
750.404	1466.17
750.588	1423.17
750.773	1462.08
750.957	1490.75
751.141	1431.36
751.326	1466.17
751.51	1376.06
751.695	1361.73
751.879	1365.82
752.064	1529.66
752.248	1380.16
752.432	1460.03
752.617	1324.87
752.801	1406.78
752.985	1410.88
753.17	1394.5
753.354	1382.21
753.538	1365.82
753.722	1367.87
753.907	1210.18
754.091	1240.9
754.275	1382.21
754.459	1320.77
754.643	1283.91
754.828	1312.58
755.012	1333.06
755.196	1154.88
755.38	1253.19
755.564	1206.08
755.748	1318.72
755.932	1144.64
756.116	1185.6
756.3	1210.18
756.484	1193.8
756.668	1253.19
756.852	1105.73
757.036	1230.66
757.22	1218.37
757.404	1124.16
757.588	1120.07
757.772	1156.93
757.956	1048.39
758.14	1230.66
758.323	1029.96
758.507	1107.78
758.691	1109.83
758.875	1122.12
759.059	1171.27
759.242	1040.2
759.426	1089.35
759.61	1091.4
759.794	1034.05
759.977	1066.82
760.161	1122.12
760.345	1085.25
760.528	1032.01
760.712	1034.05
760.895	991.05
761.079	1013.57
761.263	1029.96
761.446	1007.43
761.63	986.95
761.813	993.09
761.997	952.13
762.18	956.23
762.364	984.9
762.547	925.51
762.731	935.75
762.914	937.8
763.098	1029.96
763.281	960.33
763.464	956.23
763.648	941.89
763.831	907.08
764.015	880.46
764.198	925.51
764.381	984.9
764.564	905.03
764.748	769.87
764.931	870.22
765.114	847.69
765.297	976.71
765.481	821.06
765.664	816.97
765.847	945.99
766.03	849.74
766.213	976.71
766.397	886.6
766.58	853.83
766.763	890.7
766.946	890.7
767.129	960.33
767.312	851.78
767.495	882.5
767.678	792.39
767.861	825.16
768.044	845.64
768.227	804.68
768.41	857.93
768.593	792.39
768.776	882.5
768.959	837.45
769.142	825.16
769.324	778.06
769.507	761.67
769.69	868.17
769.873	798.54
770.056	862.02
770.239	782.15
770.421	890.7
770.604	808.78
770.787	743.24
770.97	825.16
771.152	759.63
771.335	737.1
771.518	755.53
771.7	702.28
771.883	835.4
772.066	761.67
772.248	751.43
772.431	735.05
772.613	694.09
772.796	708.43
772.978	816.97
773.161	827.21
773.343	728.91
773.526	726.86
773.708	702.28
773.891	653.13
774.073	683.85
774.256	677.71
774.438	722.76
774.621	698.19
774.803	747.34
774.985	663.37
775.168	685.9
775.35	661.32
775.532	579.4
775.715	649.04
775.897	685.9
776.079	710.47
776.261	763.72
776.444	694.09
776.626	646.99
776.808	642.89
776.99	663.37
777.173	614.22
777.355	669.52
777.537	659.28
777.719	610.12
777.901	575.31
778.083	581.45
778.265	571.21
778.447	700.23
778.629	579.4
778.811	603.98
778.993	575.31
779.175	624.46
779.357	597.84
779.539	603.98
779.721	536.4
779.903	556.88
780.085	595.79
780.267	554.83
780.449	542.54
780.631	583.5
780.812	587.6
780.994	657.23
781.176	499.53
781.358	544.59
781.54	546.64
781.721	534.35
781.903	522.06
782.085	515.92
782.267	491.34
782.448	520.01
782.63	522.06
782.812	493.39
782.993	489.29
783.175	497.49
783.357	466.77
783.538	472.91
783.72	444.24
783.901	538.45
784.083	503.63
784.264	450.38
784.446	438.09
784.627	499.53
784.809	431.95
784.99	434
785.172	423.76
785.353	442.19
785.535	434
785.716	415.57
785.897	399.18
786.079	434
786.26	423.76
786.441	466.77
786.623	335.7
786.804	382.8
786.985	440.14
787.167	360.27
787.348	395.09
787.529	319.31
787.71	409.42
787.891	440.14
788.073	423.76
788.254	382.8
788.435	372.56
788.616	442.19
788.797	333.65
788.978	354.13
789.159	341.84
789.34	458.57
789.522	411.47
789.703	345.94
789.884	341.84
790.065	339.79
790.246	325.46
790.427	350.03
790.607	343.89
790.788	341.84
790.969	366.42
791.15	393.04
791.331	335.7
791.512	302.93
791.693	300.88
791.874	300.88
792.054	372.56
792.235	393.04
792.416	239.44
792.597	329.55
792.778	315.22
792.958	329.55
793.139	270.16
793.32	325.46
793.5	259.92
793.681	329.55
793.862	292.69
794.042	210.77
794.223	270.16
794.404	311.12
794.584	243.54
794.765	307.02
794.945	292.69
795.126	245.59
795.306	259.92
795.487	298.83
795.667	292.69
795.848	345.94
796.028	284.5
796.209	237.39
796.389	278.35
796.57	259.92
796.75	200.53
796.93	270.16
797.111	235.35
797.291	276.31
797.471	212.82
797.652	237.39
797.832	169.81
798.012	255.83
798.192	221.01
798.373	333.65
798.553	288.59
798.733	286.54
798.913	278.35
799.093	202.58
799.274	210.77
799.454	243.54
799.634	311.12
799.814	243.54
799.994	202.58
800.174	229.2
800.354	206.67
800.534	218.96
800.714	212.82
800.894	180.05
801.074	214.87
801.254	264.02
801.434	227.15
801.614	239.44
801.794	169.81
801.974	868.17
802.154	214.87
802.334	243.54
802.514	212.82
802.693	108.37
802.873	188.24
803.053	180.05
803.233	202.58
803.413	227.15
803.592	161.62
803.772	161.62
803.952	218.96
804.131	114.52
804.311	216.91
804.491	245.59
804.67	186.19
804.85	204.63
805.03	223.06
805.209	327.5
805.389	171.86
805.568	206.67
805.748	112.47
805.928	259.92
806.107	223.06
806.287	221.01
806.466	249.68
806.646	218.96
806.825	104.28
807.004	171.86
807.184	186.19
807.363	218.96
807.543	251.73
807.722	178
807.901	239.44
808.081	190.29
808.26	239.44
808.439	212.82
808.619	145.24
808.798	163.67
808.977	42.84
809.156	192.34
809.336	251.73
809.515	225.11
809.694	182.1
809.873	141.14
810.052	182.1
810.231	286.54
810.411	227.15
810.59	157.52
810.769	149.33
810.948	202.58
811.127	120.66
811.306	196.43
811.485	122.71
811.664	227.15
811.843	206.67
812.022	122.71
812.201	186.19
812.38	114.52
812.559	65.36
812.737	229.2
812.916	59.22
813.095	153.43
813.274	122.71
813.453	137.04
813.632	124.76
813.811	153.43
813.989	149.33
814.168	112.47
814.347	104.28
814.526	79.7
814.704	233.3
814.883	235.35
815.062	182.1
815.24	116.56
815.419	120.66
815.598	210.77
815.776	96.08
815.955	141.14
816.133	65.36
816.312	130.9
816.49	143.19
816.669	225.11
816.847	81.75
817.026	40.79
817.204	151.38
817.383	126.8
817.561	81.75
817.74	137.04
817.918	63.32
818.097	137.04
818.275	104.28
818.453	196.43
818.632	135
818.81	104.28
818.988	120.66
819.167	104.28
819.345	165.71
819.523	98.13
819.701	128.85
819.879	155.47
820.058	89.94
820.236	112.47
820.414	67.41
820.592	73.56
820.77	87.89
820.948	34.64
821.127	128.85
821.305	65.36
821.483	81.75
821.661	135
821.839	139.09
822.017	5.97
822.195	132.95
822.373	83.8
822.551	139.09
822.729	163.67
822.907	65.36
823.085	161.62
823.262	65.36
823.44	98.13
823.618	118.61
823.796	89.94
823.974	63.32
824.152	81.75
824.329	155.47
824.507	38.74
824.685	100.18
824.863	116.56
825.04	32.6
825.218	81.75
825.396	71.51
825.574	71.51
825.751	79.7
825.929	104.28
826.107	96.08
826.284	57.17
826.462	26.45
826.639	155.47
826.817	89.94
826.994	22.36
827.172	98.13
827.349	149.33
827.527	75.6
827.704	171.86
827.882	137.04
828.059	57.17
828.237	159.57
828.414	118.61
828.591	12.12
828.769	116.56
828.946	98.13
829.124	169.81
829.301	55.12
829.478	26.45
829.655	155.47
829.833	87.89
830.01	18.26
830.187	114.52
830.364	126.8
830.542	87.89
830.719	87.89
830.896	108.37
831.073	36.69
831.25	108.37
831.427	114.52
831.604	153.43
831.782	85.84
831.959	34.64
832.136	38.74
832.313	55.12
832.49	67.41
832.667	69.46
832.844	63.32
833.021	106.32
833.198	16.21
833.374	87.89
833.551	46.93
833.728	59.22
833.905	171.86
834.082	40.79
834.259	91.99
834.436	100.18
834.612	5.97
834.789	51.03
834.966	63.32
835.143	42.84
835.319	-2.22
835.496	46.93
835.673	8.02
835.85	112.47
836.026	75.6
836.203	81.75
836.38	102.23
836.556	135
836.733	32.6
836.909	153.43
837.086	22.36
837.262	67.41
837.439	-32.94
837.616	69.46
837.792	104.28
837.968	79.7
838.145	18.26
838.321	83.8
838.498	106.32
838.674	22.36
838.851	14.17
839.027	22.36
839.203	63.32
839.38	57.17
839.556	85.84
839.732	38.74
839.909	46.93
840.085	161.62
840.261	-16.55
840.437	63.32
840.614	30.55
840.79	-2.22
840.966	77.65
841.142	14.17
841.318	24.4
841.494	120.66
841.671	65.36
841.847	14.17
842.023	87.89
842.199	89.94
842.375	46.93
842.551	-18.6
842.727	79.7
842.903	225.11
843.079	1.88
843.255	22.36
843.431	116.56
843.607	87.89
843.783	-34.99
843.959	14.17
844.134	65.36
844.31	59.22
844.486	42.84
844.662	-34.99
844.838	10.07
845.013	89.94
845.189	10.07
845.365	132.95
845.541	65.36
845.716	55.12
845.892	63.32
846.068	89.94
846.244	16.21
846.419	38.74
846.595	83.8
846.77	79.7
846.946	46.93
847.122	26.45
847.297	-51.37
847.473	77.65
847.648	57.17
847.824	57.17
847.999	34.64
848.175	44.88
848.35	67.41
848.526	110.42
848.701	83.8
848.876	30.55
849.052	104.28
849.227	16.21
849.403	40.79
849.578	46.93
849.753	61.27
849.929	30.55
850.104	40.79
850.279	10.07
850.454	32.6
850.63	81.75
850.805	14.17
850.98	59.22
851.155	42.84
851.33	46.93
851.505	-26.79
851.681	67.41
851.856	-26.79
852.031	128.85
852.206	79.7
852.381	57.17
852.556	-45.23
852.731	106.32
852.906	67.41
853.081	79.7
853.256	51.03
853.431	14.17
853.606	10.07
853.781	28.5
853.956	-8.36
854.131	12.12
854.305	42.84
854.48	-8.36
854.655	-24.75
854.83	-26.79
855.005	-2.22
855.18	46.93
855.354	-34.99
855.529	10.07
855.704	1.88
855.879	-14.51
856.053	112.47
856.228	38.74
856.403	-18.6
856.577	55.12
856.752	-22.7
856.926	-30.89
857.101	61.27
857.276	44.88
857.45	28.5
857.625	48.98
857.799	44.88
857.974	87.89
858.148	18.26
858.323	61.27
858.497	63.32
858.672	-18.6
858.846	8.02
859.02	71.51
859.195	-63.66
859.369	71.51
859.543	22.36
859.718	32.6
859.892	46.93
860.066	55.12
860.241	34.64
860.415	34.64
860.589	61.27
860.763	38.74
860.938	22.36
861.112	5.97
861.286	-47.27
861.46	79.7
861.634	-18.6
861.808	-24.75
861.982	16.21
862.157	22.36
862.331	24.4
862.505	5.97
862.679	63.32
862.853	-6.31
863.027	65.36
863.201	38.74
863.375	-41.13
863.549	32.6
863.722	44.88
863.896	10.07
864.07	-16.55
864.244	-22.7
864.418	-49.32
864.592	14.17
864.766	20.31
864.939	-16.55
865.113	-16.55
865.287	30.55
865.461	-6.31
865.634	-26.79
865.808	-14.51
865.982	57.17
866.156	-18.6
866.329	-16.55
866.503	67.41
866.676	110.42
866.85	-14.51
867.024	73.56
867.197	42.84
867.371	-4.27
867.544	38.74
867.718	-14.51
867.891	32.6
868.065	40.79
868.238	-14.51
868.412	34.64
868.585	-0.17
868.759	22.36
868.932	61.27
869.105	28.5
869.279	-22.7
869.452	46.93
869.625	12.12
869.799	-47.27
869.972	1.88
870.145	55.12
870.319	18.26
870.492	57.17
870.665	-2.22
870.838	-2.22
871.011	-10.41
871.185	-10.41
871.358	-43.18
871.531	22.36
871.704	63.32
871.877	16.21
872.05	55.12
872.223	8.02
872.396	-6.31
872.569	40.79
872.742	-10.41
872.915	5.97
873.088	-2.22
873.261	-59.56
873.434	46.93
873.607	-49.32
873.78	51.03
873.953	46.93
874.126	5.97
874.299	-10.41
874.471	34.64
874.644	55.12
874.817	79.7
874.99	67.41
875.163	8.02
875.335	32.6
875.508	67.41
875.681	18.26
875.853	81.75
876.026	-41.13
876.199	18.26
876.371	91.99
876.544	-10.41
876.717	32.6
876.889	5.97
877.062	30.55
877.234	67.41
877.407	-26.79
877.579	-47.27
877.752	16.21
877.924	87.89
878.097	5.97
878.269	48.98
878.442	14.17
878.614	30.55
878.786	30.55
878.959	8.02
879.131	10.07
879.303	18.26
879.476	5.97
879.648	34.64
879.82	38.74
879.993	-26.79
880.165	28.5
880.337	-18.6
880.509	71.51
880.681	-34.99
880.854	-8.36
881.026	-20.65
881.198	44.88
881.37	22.36
881.542	10.07
881.714	46.93
881.886	14.17
882.058	5.97
882.23	-24.75
882.402	16.21
882.574	22.36
882.746	5.97
882.918	65.36
883.09	-34.99
883.262	-10.41
883.434	32.6
883.606	36.69
883.778	18.26
883.95	69.46
884.122	22.36
884.293	28.5
884.465	-67.75
884.637	30.55
884.809	-8.36
884.98	57.17
885.152	67.41
885.324	-26.79
885.496	120.66
885.667	16.21
885.839	3.93
886.011	48.98
886.182	135
886.354	22.36
886.525	10.07
886.697	24.4
886.869	-51.37
887.04	30.55
887.212	46.93
887.383	16.21
887.555	-10.41
887.726	-26.79
887.897	-18.6
888.069	-18.6
888.24	14.17
888.412	-20.65
888.583	-0.17
888.754	-2.22
888.926	18.26
889.097	-0.17
889.268	14.17
889.44	18.26
889.611	-71.85
889.782	-22.7
889.953	79.7
890.125	81.75
890.296	-73.9
890.467	16.21
890.638	83.8
890.809	-32.94
890.98	-84.14
891.151	-67.75
891.323	71.51
891.494	-14.51
891.665	24.4
891.836	-26.79
892.007	24.4
892.178	18.26
892.349	5.97
892.52	32.6
892.691	55.12
892.862	-112.81
893.032	22.36
893.203	46.93
893.374	18.26
893.545	36.69
893.716	-37.03
893.887	1.88
894.057	-26.79
894.228	-2.22
894.399	-37.03
894.57	-6.31
894.74	34.64
894.911	36.69
895.082	-18.6
895.253	51.03
895.423	-26.79
895.594	-6.31
895.764	38.74
895.935	-6.31
896.106	16.21
896.276	24.4
896.447	46.93
896.617	-20.65
896.788	3.93
896.958	-32.94
897.129	46.93
897.299	1.88
897.47	-26.79
897.64	120.66
897.81	-10.41
897.981	40.79
898.151	34.64
898.322	-0.17
898.492	30.55
898.662	14.17
898.832	-26.79
899.003	-18.6
899.173	20.31
899.343	-2.22
899.513	-22.7
