Data from USB4F104151__161__14-44-45-677.txt Node

Date: Thu Mar 13 14:44:45 EDT 2025
User: louis
Spectrometer: USB4F10415
Trigger mode: 4
Integration Time (sec): 2.000000E-2
Scans to average: 1
Electric dark correction enabled: true
Nonlinearity correction enabled: false
Boxcar width: 0
XAxis mode: Wavelengths
Number of Pixels in Spectrum: 3648
>>>>>Begin Spectral Data<<<<<
178.204	-83.11
178.424	-83.11
178.644	-83.11
178.864	-124.07
179.084	-52.39
179.304	-1.19
179.524	41.81
179.744	13.14
179.964	47.96
180.184	0.85
180.404	29.52
180.624	11.09
180.844	-60.59
181.064	-46.25
181.283	41.81
181.503	-33.96
181.723	-44.2
181.943	-11.43
182.163	82.77
182.383	82.77
182.602	31.57
182.822	62.29
183.042	-9.39
183.262	-13.48
183.482	25.43
183.701	21.33
183.921	-19.63
184.141	-33.96
184.361	103.25
184.58	62.29
184.8	-52.39
185.02	-42.15
185.239	115.54
185.459	41.81
185.679	111.44
185.898	9.05
186.118	54.1
186.338	15.19
186.557	47.96
186.777	105.3
186.997	-33.96
187.216	19.29
187.436	82.77
187.655	47.96
187.875	27.48
188.095	-25.77
188.314	99.16
188.534	99.16
188.753	-62.63
188.973	31.57
189.192	13.14
189.412	39.76
189.631	78.68
189.851	64.34
190.07	105.3
190.29	-3.24
190.509	15.19
190.729	62.29
190.948	7
191.168	148.31
191.387	86.87
191.607	86.87
191.826	103.25
192.045	33.62
192.265	37.72
192.484	37.72
192.704	41.81
192.923	-3.24
193.142	78.68
193.362	58.2
193.581	70.48
193.8	31.57
194.02	64.34
194.239	47.96
194.458	43.86
194.678	-27.82
194.897	31.57
195.116	-7.34
195.335	113.49
195.555	62.29
195.774	64.34
195.993	-17.58
196.212	35.67
196.432	56.15
196.651	-11.43
196.87	23.38
197.089	11.09
197.308	66.39
197.528	39.76
197.747	-52.39
197.966	-11.43
198.185	95.06
198.404	15.19
198.623	66.39
198.842	109.4
199.062	80.72
199.281	54.1
199.5	-11.43
199.719	-19.63
199.938	45.91
200.157	-11.43
200.376	47.96
200.595	50
200.814	35.67
201.033	39.76
201.252	37.72
201.471	4.95
201.69	64.34
201.909	50
202.128	-42.15
202.347	15.19
202.566	70.48
202.785	29.52
203.004	27.48
203.223	54.1
203.442	60.24
203.661	105.3
203.879	-9.39
204.098	103.25
204.317	-1.19
204.536	0.85
204.755	105.3
204.974	39.76
205.193	45.91
205.411	88.92
205.63	64.34
205.849	78.68
206.068	66.39
206.287	17.24
206.505	29.52
206.724	33.62
206.943	23.38
207.162	-19.63
207.381	37.72
207.599	0.85
207.818	37.72
208.037	2.9
208.255	7
208.474	58.2
208.693	86.87
208.911	-19.63
209.13	45.91
209.349	72.53
209.567	21.33
209.786	103.25
210.005	127.83
210.223	21.33
210.442	54.1
210.661	31.57
210.879	78.68
211.098	93.01
211.316	21.33
211.535	21.33
211.753	37.72
211.972	56.15
212.191	-11.43
212.409	50
212.628	70.48
212.846	-29.87
213.065	82.77
213.283	64.34
213.502	39.76
213.72	4.95
213.938	-11.43
214.157	54.1
214.375	56.15
214.594	21.33
214.812	103.25
215.031	41.81
215.249	70.48
215.467	0.85
215.686	105.3
215.904	70.48
216.122	52.05
216.341	50
216.559	99.16
216.778	95.06
216.996	41.81
217.214	-13.48
217.432	25.43
217.651	21.33
217.869	-19.63
218.087	33.62
218.306	54.1
218.524	90.96
218.742	50
218.96	45.91
219.179	21.33
219.397	78.68
219.615	23.38
219.833	13.14
220.051	-7.34
220.27	54.1
220.488	15.19
220.706	4.95
220.924	39.76
221.142	-25.77
221.36	15.19
221.578	43.86
221.796	127.83
222.015	4.95
222.233	-1.19
222.451	31.57
222.669	29.52
222.887	58.2
223.105	-54.44
223.323	45.91
223.541	15.19
223.759	70.48
223.977	-7.34
224.195	-11.43
224.413	29.52
224.631	64.34
224.849	56.15
225.067	95.06
225.285	29.52
225.503	29.52
225.721	-56.49
225.939	37.72
226.157	-9.39
226.375	119.64
226.592	-15.53
226.81	123.73
227.028	17.24
227.246	95.06
227.464	15.19
227.682	29.52
227.9	58.2
228.117	21.33
228.335	-44.2
228.553	29.52
228.771	95.06
228.989	76.63
229.206	21.33
229.424	-19.63
229.642	78.68
229.86	62.29
230.077	2.9
230.295	47.96
230.513	62.29
230.731	62.29
230.948	62.29
231.166	50
231.384	4.95
231.601	47.96
231.819	119.64
232.037	41.81
232.254	-101.55
232.472	2.9
232.689	13.14
232.907	45.91
233.125	-11.43
233.342	4.95
233.56	78.68
233.777	-25.77
233.995	21.33
234.213	29.52
234.43	50
234.648	41.81
234.865	50
235.083	39.76
235.3	37.72
235.518	127.83
235.735	62.29
235.953	56.15
236.17	4.95
236.388	-7.34
236.605	86.87
236.822	-3.24
237.04	72.53
237.257	47.96
237.475	-17.58
237.692	2.9
237.909	4.95
238.127	7
238.344	82.77
238.562	11.09
238.779	21.33
238.996	4.95
239.214	45.91
239.431	-19.63
239.648	60.24
239.865	0.85
240.083	-11.43
240.3	-15.53
240.517	23.38
240.735	72.53
240.952	111.44
241.169	103.25
241.386	-3.24
241.603	-70.83
241.821	-9.39
242.038	80.72
242.255	62.29
242.472	45.91
242.689	-42.15
242.907	125.78
243.124	54.1
243.341	-11.43
243.558	21.33
243.775	21.33
243.992	7
244.209	52.05
244.426	86.87
244.643	33.62
244.86	41.81
245.078	62.29
245.295	4.95
245.512	70.48
245.729	58.2
245.946	-11.43
246.163	7
246.38	-1.19
246.597	33.62
246.814	93.01
247.031	4.95
247.248	66.39
247.464	-27.82
247.681	37.72
247.898	64.34
248.115	45.91
248.332	-19.63
248.549	80.72
248.766	21.33
248.983	54.1
249.2	88.92
249.417	78.68
249.633	50
249.85	62.29
250.067	-3.24
250.284	-25.77
250.501	66.39
250.717	117.59
250.934	15.19
251.151	52.05
251.368	-44.2
251.585	4.95
251.801	86.87
252.018	52.05
252.235	72.53
252.451	37.72
252.668	50
252.885	107.35
253.102	62.29
253.318	111.44
253.535	-46.25
253.752	-9.39
253.968	7
254.185	47.96
254.401	103.25
254.618	33.62
254.835	103.25
255.051	86.87
255.268	-1.19
255.484	29.52
255.701	29.52
255.917	23.38
256.134	95.06
256.351	56.15
256.567	29.52
256.784	13.14
257	-58.54
257.217	35.67
257.433	64.34
257.65	88.92
257.866	72.53
258.082	13.14
258.299	62.29
258.515	97.11
258.732	52.05
258.948	103.25
259.165	54.1
259.381	45.91
259.597	39.76
259.814	86.87
260.03	23.38
260.246	47.96
260.463	-7.34
260.679	54.1
260.895	84.82
261.112	52.05
261.328	54.1
261.544	-25.77
261.761	107.35
261.977	13.14
262.193	11.09
262.409	31.57
262.626	9.05
262.842	72.53
263.058	56.15
263.274	41.81
263.49	64.34
263.707	105.3
263.923	111.44
264.139	50
264.355	58.2
264.571	86.87
264.787	-11.43
265.004	95.06
265.22	9.05
265.436	45.91
265.652	58.2
265.868	88.92
266.084	78.68
266.3	101.2
266.516	-15.53
266.732	82.77
266.948	41.81
267.164	144.21
267.38	-1.19
267.596	37.72
267.812	58.2
268.028	13.14
268.244	-7.34
268.46	93.01
268.676	97.11
268.892	56.15
269.108	21.33
269.324	31.57
269.54	39.76
269.756	56.15
269.972	-27.82
270.188	0.85
270.403	31.57
270.619	-1.19
270.835	-5.29
271.051	47.96
271.267	29.52
271.483	-64.68
271.698	54.1
271.914	82.77
272.13	66.39
272.346	54.1
272.562	-25.77
272.777	29.52
272.993	50
273.209	74.58
273.425	-3.24
273.64	23.38
273.856	2.9
274.072	45.91
274.287	-40.11
274.503	54.1
274.719	-64.68
274.934	78.68
275.15	-19.63
275.366	56.15
275.581	-17.58
275.797	62.29
276.012	-11.43
276.228	9.05
276.444	0.85
276.659	80.72
276.875	23.38
277.09	41.81
277.306	33.62
277.521	109.4
277.737	60.24
277.952	21.33
278.168	29.52
278.383	37.72
278.599	78.68
278.814	93.01
279.03	-3.24
279.245	95.06
279.461	31.57
279.676	80.72
279.892	70.48
280.107	72.53
280.322	25.43
280.538	129.88
280.753	33.62
280.969	58.2
281.184	95.06
281.399	127.83
281.615	-1.19
281.83	-19.63
282.045	25.43
282.26	15.19
282.476	82.77
282.691	47.96
282.906	52.05
283.122	37.72
283.337	-11.43
283.552	93.01
283.767	90.96
283.983	13.14
284.198	60.24
284.413	7
284.628	-40.11
284.843	50
285.058	33.62
285.274	-33.96
285.489	50
285.704	50
285.919	41.81
286.134	66.39
286.349	9.05
286.564	62.29
286.779	82.77
286.995	82.77
287.21	39.76
287.425	9.05
287.64	-29.87
287.855	39.76
288.07	-27.82
288.285	78.68
288.5	66.39
288.715	113.49
288.93	37.72
289.145	21.33
289.36	111.44
289.575	-9.39
289.79	47.96
290.004	70.48
290.219	72.53
290.434	56.15
290.649	-17.58
290.864	78.68
291.079	-27.82
291.294	47.96
291.509	58.2
291.724	15.19
291.938	31.57
292.153	-3.24
292.368	-7.34
292.583	4.95
292.798	21.33
293.012	29.52
293.227	90.96
293.442	54.1
293.657	0.85
293.871	70.48
294.086	13.14
294.301	170.83
294.516	86.87
294.73	78.68
294.945	-31.91
295.16	103.25
295.374	37.72
295.589	74.58
295.804	0.85
296.018	21.33
296.233	97.11
296.447	111.44
296.662	-1.19
296.877	13.14
297.091	58.2
297.306	41.81
297.52	9.05
297.735	64.34
297.949	80.72
298.164	62.29
298.378	13.14
298.593	11.09
298.807	-11.43
299.022	33.62
299.236	95.06
299.451	66.39
299.665	39.76
299.88	-3.24
300.094	31.57
300.309	-40.11
300.523	45.91
300.737	62.29
300.952	-11.43
301.166	33.62
301.381	-33.96
301.595	86.87
301.809	50
302.024	76.63
302.238	-15.53
302.452	21.33
302.667	29.52
302.881	56.15
303.095	113.49
303.309	90.96
303.524	-3.24
303.738	4.95
303.952	7
304.166	66.39
304.381	7
304.595	13.14
304.809	37.72
305.023	62.29
305.237	25.43
305.452	62.29
305.666	52.05
305.88	70.48
306.094	45.91
306.308	50
306.522	70.48
306.736	72.53
306.95	62.29
307.164	99.16
307.379	41.81
307.593	60.24
307.807	-27.82
308.021	37.72
308.235	62.29
308.449	29.52
308.663	107.35
308.877	90.96
309.091	21.33
309.305	-44.2
309.519	-36.01
309.733	50
309.947	2.9
310.161	13.14
310.374	7
310.588	39.76
310.802	25.43
311.016	37.72
311.23	11.09
311.444	-64.68
311.658	29.52
311.872	95.06
312.085	43.86
312.299	105.3
312.513	113.49
312.727	64.34
312.941	31.57
313.154	45.91
313.368	35.67
313.582	13.14
313.796	15.19
314.009	45.91
314.223	7
314.437	-38.06
314.651	33.62
314.864	54.1
315.078	7
315.292	70.48
315.505	-3.24
315.719	66.39
315.933	45.91
316.146	23.38
316.36	29.52
316.573	78.68
316.787	74.58
317.001	54.1
317.214	-50.35
317.428	54.1
317.641	9.05
317.855	58.2
318.068	78.68
318.282	-19.63
318.495	107.35
318.709	72.53
318.922	84.82
319.136	54.1
319.349	115.54
319.563	74.58
319.776	25.43
319.99	-17.58
320.203	45.91
320.417	39.76
320.63	86.87
320.843	62.29
321.057	45.91
321.27	50
321.483	54.1
321.697	45.91
321.91	47.96
322.124	64.34
322.337	29.52
322.55	21.33
322.763	23.38
322.977	47.96
323.19	17.24
323.403	66.39
323.617	13.14
323.83	66.39
324.043	72.53
324.256	39.76
324.469	-23.72
324.683	13.14
324.896	9.05
325.109	88.92
325.322	-17.58
325.535	146.26
325.748	95.06
325.962	72.53
326.175	58.2
326.388	74.58
326.601	47.96
326.814	4.95
327.027	39.76
327.24	58.2
327.453	70.48
327.666	35.67
327.879	35.67
328.092	103.25
328.305	80.72
328.518	21.33
328.731	-7.34
328.944	-1.19
329.157	23.38
329.37	-36.01
329.583	97.11
329.796	45.91
330.009	-1.19
330.222	66.39
330.435	103.25
330.648	29.52
330.861	9.05
331.073	29.52
331.286	78.68
331.499	58.2
331.712	56.15
331.925	7
332.138	95.06
332.35	64.34
332.563	25.43
332.776	68.44
332.989	21.33
333.202	66.39
333.414	78.68
333.627	21.33
333.84	29.52
334.053	107.35
334.265	64.34
334.478	45.91
334.691	56.15
334.903	47.96
335.116	-27.82
335.329	-9.39
335.541	41.81
335.754	111.44
335.966	13.14
336.179	62.29
336.392	136.02
336.604	111.44
336.817	97.11
337.029	66.39
337.242	64.34
337.454	113.49
337.667	0.85
337.88	105.3
338.092	62.29
338.305	4.95
338.517	84.82
338.729	103.25
338.942	111.44
339.154	-1.19
339.367	-79.02
339.579	168.79
339.792	15.19
340.004	140.12
340.217	47.96
340.429	41.81
340.641	13.14
340.854	58.2
341.066	7
341.278	107.35
341.491	119.64
341.703	0.85
341.915	-36.01
342.128	33.62
342.34	95.06
342.552	66.39
342.764	21.33
342.977	29.52
343.189	111.44
343.401	0.85
343.613	-3.24
343.826	47.96
344.038	25.43
344.25	43.86
344.462	-31.91
344.674	58.2
344.886	37.72
345.099	33.62
345.311	97.11
345.523	15.19
345.735	-33.96
345.947	33.62
346.159	-1.19
346.371	72.53
346.583	78.68
346.795	121.68
347.007	76.63
347.219	25.43
347.431	78.68
347.643	127.83
347.855	4.95
348.067	47.96
348.279	-25.77
348.491	47.96
348.703	15.19
348.915	62.29
349.127	95.06
349.339	56.15
349.551	4.95
349.763	72.53
349.975	68.44
350.187	50
350.399	56.15
350.61	54.1
350.822	-11.43
351.034	29.52
351.246	2.9
351.458	31.57
351.669	154.45
351.881	62.29
352.093	41.81
352.305	56.15
352.517	39.76
352.728	64.34
352.94	19.29
353.152	58.2
353.363	-13.48
353.575	43.86
353.787	39.76
353.999	33.62
354.21	-23.72
354.422	7
354.633	-29.87
354.845	54.1
355.057	-3.24
355.268	29.52
355.48	66.39
355.692	35.67
355.903	-1.19
356.115	17.24
356.326	45.91
356.538	90.96
356.749	31.57
356.961	72.53
357.172	58.2
357.384	58.2
357.595	95.06
357.807	58.2
358.018	39.76
358.23	58.2
358.441	50
358.653	52.05
358.864	86.87
359.075	-3.24
359.287	27.48
359.498	70.48
359.709	97.11
359.921	58.2
360.132	80.72
360.344	4.95
360.555	84.82
360.766	7
360.977	54.1
361.189	82.77
361.4	33.62
361.611	33.62
361.823	164.69
362.034	21.33
362.245	-3.24
362.456	21.33
362.667	90.96
362.879	7
363.09	95.06
363.301	78.68
363.512	2.9
363.723	-3.24
363.935	-3.24
364.146	78.68
364.357	31.57
364.568	93.01
364.779	86.87
364.99	144.21
365.201	11.09
365.412	54.1
365.623	45.91
365.834	68.44
366.045	-9.39
366.256	88.92
366.467	105.3
366.678	62.29
366.889	56.15
367.1	103.25
367.311	37.72
367.522	-17.58
367.733	15.19
367.944	39.76
368.155	64.34
368.366	4.95
368.577	109.4
368.788	103.25
368.999	-1.19
369.209	84.82
369.42	72.53
369.631	146.26
369.842	13.14
370.053	29.52
370.264	17.24
370.474	37.72
370.685	74.58
370.896	13.14
371.107	136.02
371.317	47.96
371.528	13.14
371.739	62.29
371.95	11.09
372.16	37.72
372.371	4.95
372.582	144.21
372.792	113.49
373.003	0.85
373.214	99.16
373.424	-56.49
373.635	88.92
373.846	109.4
374.056	17.24
374.267	4.95
374.477	29.52
374.688	45.91
374.898	41.81
375.109	86.87
375.319	37.72
375.53	107.35
375.74	99.16
375.951	86.87
376.161	45.91
376.372	66.39
376.582	-19.63
376.793	2.9
377.003	4.95
377.214	72.53
377.424	29.52
377.635	164.69
377.845	43.86
378.055	78.68
378.266	-25.77
378.476	-9.39
378.686	56.15
378.897	33.62
379.107	13.14
379.317	41.81
379.528	78.68
379.738	7
379.948	90.96
380.158	7
380.369	37.72
380.579	103.25
380.789	70.48
380.999	76.63
381.21	54.1
381.42	95.06
381.63	4.95
381.84	45.91
382.05	21.33
382.261	97.11
382.471	37.72
382.681	-1.19
382.891	76.63
383.101	70.48
383.311	23.38
383.521	-21.67
383.731	62.29
383.941	37.72
384.151	52.05
384.361	70.48
384.571	107.35
384.781	39.76
384.991	95.06
385.201	152.4
385.411	52.05
385.621	72.53
385.831	45.91
386.041	45.91
386.251	62.29
386.461	41.81
386.671	0.85
386.881	103.25
387.091	37.72
387.301	111.44
387.511	62.29
387.72	103.25
387.93	62.29
388.14	-9.39
388.35	4.95
388.56	78.68
388.769	119.64
388.979	107.35
389.189	29.52
389.399	25.43
389.609	25.43
389.818	86.87
390.028	88.92
390.238	50
390.447	33.62
390.657	29.52
390.867	74.58
391.076	70.48
391.286	50
391.496	43.86
391.705	31.57
391.915	29.52
392.125	88.92
392.334	131.92
392.544	123.73
392.753	86.87
392.963	64.34
393.172	80.72
393.382	25.43
393.591	78.68
393.801	4.95
394.01	136.02
394.22	168.79
394.429	9.05
394.639	80.72
394.848	72.53
395.058	115.54
395.267	70.48
395.477	-42.15
395.686	136.02
395.895	148.31
396.105	170.83
396.314	70.48
396.524	144.21
396.733	29.52
396.942	131.92
397.152	129.88
397.361	109.4
397.57	62.29
397.78	43.86
397.989	88.92
398.198	113.49
398.407	76.63
398.617	111.44
398.826	41.81
399.035	25.43
399.244	70.48
399.453	86.87
399.663	90.96
399.872	121.68
400.081	62.29
400.29	64.34
400.499	50
400.708	174.93
400.917	131.92
401.127	131.92
401.336	72.53
401.545	142.16
401.754	95.06
401.963	111.44
402.172	127.83
402.381	39.76
402.59	17.24
402.799	119.64
403.008	195.41
403.217	107.35
403.426	164.69
403.635	37.72
403.844	121.68
404.053	101.2
404.262	119.64
404.471	123.73
404.68	211.79
404.888	136.02
405.097	183.12
405.306	136.02
405.515	160.59
405.724	111.44
405.933	170.83
406.142	193.36
406.35	99.16
406.559	152.4
406.768	144.21
406.977	201.55
407.185	146.26
407.394	179.03
407.603	131.92
407.812	176.98
408.02	152.4
408.229	185.17
408.438	185.17
408.646	148.31
408.855	193.36
409.064	244.56
409.272	226.13
409.481	254.8
409.69	170.83
409.898	224.08
410.107	197.46
410.315	312.14
410.524	205.65
410.733	271.19
410.941	242.51
411.15	301.9
411.358	297.81
411.567	308.05
411.775	387.92
411.984	299.86
412.192	398.16
412.401	408.4
412.609	381.78
412.818	447.31
413.026	392.02
413.234	355.15
413.443	459.6
413.651	432.97
413.86	406.35
414.068	545.61
414.276	551.76
414.485	504.65
414.693	553.8
414.901	588.62
415.11	623.44
415.318	619.34
415.526	633.68
415.734	668.49
415.943	668.49
416.151	643.92
416.359	686.92
416.567	637.77
416.776	758.6
416.984	904.01
417.192	840.52
417.4	750.41
417.608	815.94
417.817	820.04
418.025	834.38
418.233	975.69
418.441	944.97
418.649	1012.55
418.857	1026.89
419.065	1053.51
419.273	1004.36
419.481	1086.28
419.689	1225.54
419.897	1319.75
420.105	1303.36
420.313	1272.64
420.521	1350.46
420.729	1405.76
420.937	1327.94
421.145	1440.58
421.353	1590.08
421.561	1622.84
421.769	1585.98
421.977	1719.1
422.185	1694.52
422.393	1741.63
422.601	1901.37
422.809	1837.88
423.017	1919.8
423.224	1901.37
423.432	2063.16
423.64	2085.69
423.848	2280.24
424.056	2241.33
424.263	2290.48
424.471	2151.22
424.679	2401.07
424.887	2442.03
425.094	2544.43
425.302	2554.67
425.51	2659.12
425.718	2728.75
425.925	2718.51
426.133	2790.19
426.341	3011.37
426.548	3099.43
426.756	3119.91
426.964	3224.36
427.171	3380
427.379	3480.35
427.586	3543.84
427.794	3623.71
428.001	3775.26
428.209	3965.72
428.417	4043.54
428.624	4240.15
428.832	4094.74
429.039	4084.5
429.247	4238.1
429.454	4510.48
429.662	4897.55
429.869	4494.1
430.076	4889.35
430.284	4711.18
430.491	4930.31
430.699	5280.52
430.906	5214.98
431.114	5282.56
431.321	5454.59
431.528	5569.28
431.736	5866.24
431.943	6159.1
432.15	6030.07
432.358	6251.25
432.565	6486.77
432.772	6386.42
432.979	6634.22
433.187	7033.58
433.394	6943.47
433.601	7416.55
433.808	7279.33
434.016	7363.3
434.223	7533.28
434.43	7994.08
434.637	7957.21
434.844	8514.26
435.052	8454.87
435.259	8422.1
435.466	8686.29
435.673	8610.51
435.88	9153.23
436.087	9460.42
436.294	9654.98
436.501	9376.45
436.708	9374.41
436.915	9888.45
437.122	10187.45
437.329	10248.89
437.537	10740.4
437.743	10638
437.95	10416.82
438.157	11123.37
438.364	11606.69
438.571	11473.57
438.778	11512.49
438.985	12649.11
439.192	12259.99
439.399	12513.94
439.606	12100.25
439.813	12880.53
440.02	13810.31
440.227	13570.69
440.433	13335.18
440.64	13795.97
440.847	13625.99
441.054	13922.94
441.261	14979.7
441.467	14627.45
441.674	15192.69
441.881	15555.18
442.088	15690.34
442.294	15454.83
442.501	15821.41
442.708	16036.45
442.914	16814.68
443.121	17711.69
443.328	17007.19
443.534	18186.82
443.741	17625.67
443.948	17371.72
444.154	18653.75
444.361	18577.98
444.568	18442.81
444.774	18819.64
444.981	18876.98
445.187	19702.31
445.394	20554.27
445.6	20140.58
445.807	21981.7
446.013	21199.38
446.22	21174.8
446.426	22241.79
446.633	22731.26
446.839	23636.46
447.046	22274.56
447.252	23663.08
447.459	23501.29
447.665	23482.86
447.871	24500.7
448.078	25878.99
448.284	24330.72
448.491	25063.89
448.697	26266.05
448.903	26638.78
449.11	26393.03
449.316	26065.35
449.522	26245.57
449.728	27177.4
449.935	27632.05
450.141	27627.95
450.347	28379.56
450.553	27244.98
450.76	27894.19
450.966	28711.33
451.172	28404.13
451.378	29147.54
451.584	28752.29
451.791	29495.7
451.997	28948.89
452.203	29622.67
452.409	29575.57
452.615	29735.31
452.821	28201.38
453.027	28228.01
453.233	29651.34
453.44	28694.94
453.646	28965.28
453.852	29125.02
454.058	29503.89
454.264	28541.35
454.47	29272.47
454.676	28537.25
454.882	29544.85
455.088	27150.78
455.294	27386.29
455.5	28031.4
455.705	28228.01
455.911	27107.77
456.117	26689.98
456.323	26218.95
456.529	24697.31
456.735	26247.62
456.941	25295.32
457.147	25004.5
457.352	24320.48
457.558	23898.6
457.764	24031.72
457.97	23669.23
458.176	23237.11
458.381	23208.44
458.587	21901.83
458.793	22381.06
458.999	20980.25
459.204	22411.78
459.41	21506.57
459.616	20290.08
459.821	20095.52
460.027	20240.93
460.233	19876.39
460.438	18928.18
460.644	19116.59
460.85	18158.14
461.055	18000.45
461.261	18076.23
461.466	16618.07
461.672	16134.75
461.878	17267.28
462.083	16325.21
462.289	15897.19
462.494	15815.27
462.7	14991.98
462.905	14555.77
463.111	15166.06
463.316	15039.09
463.522	14994.03
463.727	14678.65
463.932	14819.96
464.138	14635.64
464.343	14774.9
464.549	14156.41
464.754	14613.11
464.959	14379.64
465.165	14281.34
465.37	13957.76
465.575	13441.67
465.781	14072.45
465.986	14017.15
466.191	13521.54
466.397	13419.14
466.602	12870.29
466.807	13240.97
467.012	13163.15
467.218	13144.72
467.423	12935.82
467.628	13120.14
467.833	13392.52
468.038	12976.78
468.244	12575.38
468.449	13140.62
468.654	12669.59
468.859	12739.22
469.064	12636.82
469.269	12059.29
469.474	12239.51
469.679	12397.21
469.885	12104.35
470.09	12219.03
470.295	12079.77
470.5	11924.13
470.705	12014.24
470.91	11711.14
471.115	11575.97
471.32	11739.81
471.525	11639.46
471.73	11500.2
471.935	11434.66
472.139	10664.63
472.344	11211.43
472.549	11094.7
472.754	10859.18
472.959	10719.92
473.164	10498.74
473.369	10343.1
473.574	10756.79
473.778	10517.17
473.983	10490.55
474.188	10793.65
474.393	10066.62
474.598	10138.3
474.802	10048.19
475.007	9886.4
475.212	9917.12
475.417	9640.64
475.621	9679.55
475.826	9888.45
476.031	9374.41
476.235	9335.49
476.44	9360.07
476.645	9132.75
476.849	9237.19
477.054	9056.97
477.259	8938.19
477.463	9089.74
477.668	8614.61
477.872	8942.28
478.077	8518.36
478.282	8358.61
478.486	8504.02
478.691	8405.72
478.895	8223.45
479.1	8305.37
479.304	8387.29
479.509	8231.64
479.713	8291.03
479.918	8073.95
480.122	7828.19
480.326	8012.51
480.531	7887.58
480.735	7887.58
480.94	7938.78
481.144	8094.43
481.348	7738.08
481.553	7805.66
481.757	7682.78
481.961	7748.32
482.166	7772.89
482.37	7752.42
482.574	7535.33
482.778	7713.5
482.983	7621.35
483.187	7697.12
483.391	7664.35
483.595	7639.78
483.8	7543.52
484.004	7623.39
484.208	7822.05
484.412	7748.32
484.616	7715.55
484.821	7527.14
485.025	7615.2
485.229	7699.17
485.433	7553.76
485.637	7510.75
485.841	7615.2
486.045	7557.86
486.249	7690.98
486.453	7498.47
486.657	7621.35
486.861	7635.68
487.065	7377.64
487.269	7643.87
487.473	7486.18
487.677	7449.32
487.881	7611.11
488.085	7650.02
488.289	7502.56
488.493	7559.91
488.697	7652.06
488.901	7748.32
489.105	7664.35
489.309	7742.18
489.512	7871.2
489.716	7607.01
489.92	7666.4
490.124	7813.85
490.328	7901.92
490.531	7672.54
490.735	7826.14
490.939	7910.11
491.143	7805.66
491.346	7703.26
491.55	8041.18
491.754	8010.46
491.958	8184.54
492.161	7961.31
492.365	8202.97
492.569	7949.02
492.772	8024.79
492.976	8102.62
493.18	8155.86
493.383	8344.28
493.587	8327.89
493.79	8585.94
493.994	8280.79
494.197	8274.65
494.401	8626.9
494.605	8594.13
494.808	8674
495.012	8561.36
495.215	8702.67
495.419	8835.79
495.622	8571.6
495.825	8950.48
496.029	8757.97
496.232	8997.58
496.436	9003.72
496.639	9259.72
496.843	9081.55
497.046	9415.37
497.249	9458.37
497.453	9675.46
497.656	9487.04
497.859	9601.73
498.063	9657.03
498.266	10009.28
498.469	10113.72
498.673	10040
498.876	10207.93
499.079	10367.67
499.282	10252.98
499.485	10578.61
499.689	10562.23
499.892	10711.73
500.095	10717.87
500.298	10996.4
500.501	10826.42
500.705	11096.75
500.908	11389.61
501.111	11297.45
501.314	11508.39
501.517	11713.19
501.72	11811.49
501.923	11762.34
502.126	11854.5
502.329	12124.83
502.532	12038.81
502.735	12280.47
502.938	12808.85
503.141	12540.57
503.344	12747.41
503.547	13081.23
503.75	13216.4
503.953	13066.89
504.156	13396.62
504.359	13165.2
504.562	13615.75
504.765	13924.99
504.968	13963.9
505.17	13972.1
505.373	14342.78
505.576	14281.34
505.779	14488.18
505.982	14731.89
506.185	15082.1
506.387	14994.03
506.59	15000.18
506.793	15372.91
506.996	15417.96
507.198	15956.58
507.401	15536.74
507.604	15868.52
507.807	16200.29
508.009	16116.32
508.212	16378.46
508.415	16753.24
508.617	16960.08
508.82	16835.16
509.022	16794.2
509.225	17363.53
509.428	17400.4
509.63	17799.75
509.833	17832.52
510.035	18070.08
510.238	18100.8
510.44	18307.65
510.643	18526.78
510.845	18506.3
511.048	18643.51
511.25	18928.18
511.453	18944.56
511.655	19765.8
511.858	19405.36
512.06	19843.62
512.262	20009.51
512.465	19970.6
512.667	20130.34
512.87	20480.54
513.072	20619.8
513.274	20777.5
513.477	21228.05
513.679	21295.63
513.881	21615.12
514.084	21676.55
514.286	21756.43
514.488	22024.71
514.69	22280.71
514.893	22305.28
515.095	22313.47
515.297	22768.12
515.499	22880.76
515.701	23366.13
515.904	23386.61
516.106	23429.62
516.308	23738.86
516.51	24181.22
516.712	24132.07
516.914	24257
517.116	25061.85
517.318	25004.5
517.52	24918.49
517.722	25356.75
517.925	25129.43
518.127	25602.51
518.329	26063.3
518.531	25776.59
518.733	26458.56
518.935	26603.97
519.136	26468.8
519.338	26931.64
519.54	26988.99
519.742	27480.5
519.944	27308.47
520.146	28193.19
520.348	27969.96
520.55	28025.26
520.752	28197.29
520.954	28887.45
521.155	28529.06
521.357	29161.88
521.559	29301.14
521.761	29663.63
521.963	29469.08
522.164	29960.59
522.366	30189.96
522.568	30323.08
522.77	30247.3
522.971	30761.34
523.173	30466.44
523.375	30904.7
523.576	30796.16
523.778	30992.76
523.98	31527.28
524.181	31654.26
524.383	31777.14
524.584	32280.94
524.786	32225.64
524.988	31914.35
525.189	32455.01
525.391	32586.08
525.592	32487.78
525.794	33106.27
525.995	32688.48
526.197	33364.31
526.398	32874.85
526.6	33237.34
526.801	33163.61
527.003	33392.98
527.204	33880.4
527.406	34287.95
527.607	34005.33
527.808	34597.19
528.01	33646.93
528.211	34034
528.412	34822.47
528.614	34675.01
528.815	34644.29
529.016	34916.67
529.218	34509.13
529.419	34636.1
529.62	34939.2
529.822	34785.6
530.023	35055.93
530.224	34801.99
530.425	34912.58
530.626	35139.9
530.828	35117.37
531.029	35600.69
531.23	35096.89
531.431	35000.64
531.632	35367.23
531.833	35537.21
532.035	35293.5
532.236	35715.38
532.437	35742
532.638	35655.99
532.839	35801.4
533.04	35492.15
533.241	34984.26
533.442	35954.99
533.643	35883.31
533.844	35682.61
534.045	36454.7
534.246	35756.34
534.447	36020.53
534.648	35535.16
534.849	35756.34
535.05	35686.71
535.251	35905.84
535.451	35475.77
535.652	35682.61
535.853	35555.64
536.054	35846.45
536.255	35811.63
536.456	35582.26
536.657	36262.19
536.857	35844.4
537.058	35877.17
537.259	36061.49
537.46	35877.17
537.66	35701.04
537.861	35909.94
538.062	35791.16
538.263	35662.13
538.463	35719.48
538.664	35895.6
538.865	35637.56
539.065	36086.06
539.266	35510.58
539.466	36518.18
539.667	35842.35
539.868	35744.05
540.068	36139.31
540.269	35701.04
540.469	35922.23
540.67	35592.5
540.87	35817.78
541.071	35572.02
541.271	35954.99
541.472	35479.86
541.672	35694.9
541.873	36020.53
542.073	35301.69
542.274	35768.63
542.474	35762.48
542.675	35346.75
542.875	35711.28
543.075	35551.54
543.276	35354.94
543.476	35746.1
543.676	35457.34
543.877	35559.73
544.077	35701.04
544.277	35823.92
544.478	35711.28
544.678	35424.57
544.878	35522.87
545.078	35326.27
545.279	35275.07
545.479	35574.07
545.679	35764.53
545.879	35260.73
546.079	35819.83
546.28	35225.92
546.48	35326.27
546.68	35506.49
546.88	35506.49
547.08	35162.43
547.28	35213.63
547.48	34990.4
547.68	35289.4
547.88	35172.67
548.081	35690.8
548.281	35602.74
548.481	35180.86
548.681	35703.09
548.881	35383.61
549.081	35369.27
549.28	35068.22
549.48	35443
549.68	35295.55
549.88	35504.44
550.08	34963.78
550.28	34990.4
550.48	35197.24
550.68	35584.31
550.88	35062.08
551.08	35236.16
551.279	35150.14
551.479	35197.24
551.679	35440.95
551.879	34675.01
552.079	35281.21
552.278	35074.37
552.478	35131.71
552.678	35066.17
552.878	35254.59
553.077	35285.31
553.277	34713.92
553.477	35232.06
553.676	34955.58
553.876	34984.26
554.076	35121.47
554.275	34928.96
554.475	34371.91
554.674	34943.3
554.874	35025.21
555.074	34812.23
555.273	34976.06
555.473	34830.66
555.672	34781.51
555.872	34713.92
556.071	34861.38
556.271	34937.15
556.47	34453.83
556.67	34515.27
556.869	34543.94
557.068	34629.96
557.268	34419.02
557.467	34601.29
557.667	34582.85
557.866	34586.95
558.065	34099.53
558.265	34128.2
558.464	34023.76
558.663	34339.15
558.863	33755.47
559.062	34347.34
559.261	33694.04
559.461	34277.71
559.66	33718.61
559.859	34017.61
560.058	33739.09
560.258	34040.14
560.457	33460.57
560.656	33556.82
560.855	33700.18
561.054	33933.65
561.253	33460.57
561.453	33716.56
561.652	33511.77
561.851	33601.88
562.05	33372.5
562.249	33259.87
562.448	33679.7
562.647	33153.37
562.846	33157.47
563.045	33122.65
563.244	33022.3
563.443	33292.63
563.642	32731.49
563.841	33124.7
564.04	33014.11
564.239	33114.46
564.438	32426.34
564.637	32708.96
564.836	32672.1
565.035	32487.78
565.234	32934.24
565.432	32534.88
565.631	32407.91
565.83	32573.8
566.029	32242.03
566.228	31934.83
566.427	32151.91
566.625	32184.68
566.824	31971.69
567.023	32160.11
567.222	31394.17
567.42	32055.66
567.619	31545.72
567.818	31627.63
568.016	31476.09
568.215	31803.76
568.414	31656.31
568.612	31789.42
568.811	31158.65
569.01	31639.92
569.208	31023.48
569.407	31611.25
569.605	30865.79
569.804	31410.55
570.002	30853.5
570.201	31252.86
570.4	30626.18
570.598	30544.26
570.797	30462.34
570.995	30935.42
571.193	30263.69
571.392	30765.44
571.59	30357.89
571.789	30345.61
571.987	30036.36
572.186	30392.71
572.384	30046.6
572.582	30183.82
572.781	30290.31
572.979	29487.51
573.177	30153.1
573.376	29782.41
573.574	29424.02
573.772	29815.18
573.971	29520.27
574.169	29522.32
574.367	29499.8
574.565	29854.09
574.763	29714.83
574.962	29217.18
575.16	29139.35
575.358	29254.04
575.556	28610.98
575.754	29133.21
575.952	28465.57
576.151	29090.2
576.349	28592.55
576.547	28783.01
576.745	28582.31
576.943	28592.55
577.141	28600.74
577.339	28502.43
577.537	28361.12
577.735	28524.96
577.933	27959.72
578.131	28369.32
578.329	27836.84
578.527	27785.65
578.725	27949.48
578.923	27879.85
579.121	27822.51
579.319	27875.76
579.516	27711.92
579.714	27738.54
579.912	27509.17
580.11	27144.63
580.308	27507.12
580.506	27449.78
580.704	27044.28
580.901	27036.09
581.099	27189.69
581.297	26825.15
581.495	27021.75
581.692	26970.55
581.89	26853.82
582.088	26999.23
582.285	26798.52
582.483	26616.26
582.681	26671.55
582.878	26474.95
583.076	26098.12
583.274	26270.15
583.471	26481.09
583.669	26507.71
583.866	26005.96
584.064	26218.95
584.262	25532.88
584.459	26292.68
584.657	25682.38
584.854	26397.12
585.052	25426.39
585.249	25641.42
585.447	25891.27
585.644	25190.87
585.841	25379.28
586.039	25797.07
586.236	25313.75
586.434	25172.44
586.631	25047.51
586.828	25295.32
587.026	25168.34
587.223	25041.37
587.42	24840.67
587.618	24715.74
587.815	24586.72
588.012	24895.96
588.21	24603.1
588.407	24797.66
588.604	24379.87
588.801	24320.48
588.999	24334.82
589.196	24392.16
589.393	24265.19
589.59	24254.95
589.787	24166.88
589.984	23931.37
590.182	23656.94
590.379	24056.29
590.576	23691.76
590.773	23855.59
590.97	23798.25
591.167	23712.24
591.364	23480.82
591.561	23497.2
591.758	23402.99
591.955	23452.14
592.152	23579.12
592.349	23204.34
592.546	23173.62
592.743	23110.13
592.94	22850.04
593.137	23167.48
593.334	23161.33
593.531	22643.2
593.727	22858.23
593.924	22886.9
594.121	22559.23
594.318	22532.61
594.515	22198.79
594.712	22784.51
594.908	22198.79
595.105	22360.58
595.302	22186.5
595.499	22264.32
595.696	22049.28
595.892	21893.64
596.089	22286.85
596.286	22178.31
596.482	21920.26
596.679	21901.83
596.876	21602.83
597.072	21502.48
597.269	21770.76
597.466	21434.89
597.662	21533.2
597.859	21469.71
598.055	21408.27
598.252	21226
598.448	21281.3
598.645	21076.5
598.841	21045.78
599.038	20935.19
599.234	21295.63
599.431	20476.44
599.627	21074.45
599.824	20984.34
600.02	20869.65
600.217	20754.97
600.413	20632.09
600.609	20605.47
600.806	20367.9
601.002	20568.6
601.198	20232.74
601.395	20259.36
601.591	20419.1
601.787	20308.51
601.984	19941.93
602.18	20138.53
602.376	19855.91
602.572	19849.77
602.769	20077.09
602.965	19515.95
603.161	19835.43
603.357	19505.71
603.553	19483.18
603.75	19454.51
603.946	19552.81
604.142	19567.15
604.338	19135.03
604.534	19307.05
604.73	19456.56
604.926	19204.66
605.122	19264.05
605.318	19184.18
605.514	18979.38
605.71	18899.51
605.906	19024.44
606.102	19085.87
606.298	19038.77
606.494	18883.13
606.69	18831.93
606.886	18979.38
607.082	18524.73
607.278	18772.53
607.474	18666.04
607.67	18403.9
607.866	18430.52
608.062	18485.82
608.257	18100.8
608.453	18326.08
608.649	18381.37
608.845	18106.95
609.041	18203.2
609.236	18215.49
609.432	18125.38
609.628	18115.14
609.824	17967.68
610.019	17988.16
610.215	18084.42
610.411	17644.1
610.606	17867.33
610.802	17853
610.998	17947.2
611.193	17941.06
611.389	17629.77
611.584	17707.59
611.78	17719.88
611.976	17566.28
612.171	17805.89
612.367	17443.4
612.562	17599.05
612.758	17373.77
612.953	17168.98
613.149	17564.23
613.344	17363.53
613.539	17748.55
613.735	17107.54
613.93	17285.71
614.126	17285.71
614.321	17318.48
614.517	17279.57
614.712	17150.54
614.907	16810.58
615.103	17093.2
615.298	17037.91
615.493	17183.31
615.688	17125.97
615.884	17005.14
616.079	16667.22
616.274	16947.79
616.47	16908.88
616.665	16908.88
616.86	16826.96
617.055	16753.24
617.25	16454.23
617.445	16814.68
617.641	16587.35
617.836	16603.74
618.031	16427.61
618.226	16654.94
618.421	16261.73
618.616	16407.13
618.811	16196.19
619.006	16476.76
619.201	16153.18
619.396	16089.7
619.591	15829.6
619.786	15991.39
619.981	15585.9
620.176	16038.5
620.371	15489.64
620.566	15635.05
620.761	15692.39
620.956	15651.43
621.151	15358.57
621.346	15485.55
621.541	15284.84
621.735	15282.8
621.93	15366.76
622.125	15278.7
622.32	14850.67
622.515	15145.58
622.709	14963.31
622.904	14676.6
623.099	14523
623.294	14860.91
623.488	14604.92
623.683	14668.41
623.878	14158.46
624.072	14463.61
624.267	14273.15
624.462	14377.59
624.656	14228.09
624.851	14135.93
625.046	13988.48
625.24	13955.71
625.435	13828.74
625.629	13767.3
625.824	14015.1
626.018	13767.3
626.213	13470.34
626.407	13587.08
626.602	13410.95
626.796	13507.21
626.991	13296.27
627.185	13318.79
627.38	13171.34
627.574	12919.44
627.768	13054.61
627.963	13040.27
628.157	12645.01
628.352	12759.7
628.546	12720.79
628.74	12685.97
628.935	12581.53
629.129	12610.2
629.323	12327.58
629.517	12403.35
629.712	12303
629.906	12276.38
630.1	12079.77
630.294	12120.73
630.489	11997.85
630.683	12018.33
630.877	12079.77
631.071	11858.59
631.265	12047.01
631.459	11623.08
631.653	11731.62
631.848	11698.85
632.042	11596.45
632.236	11846.3
632.43	11455.14
632.624	11354.79
632.818	11303.59
633.012	11287.21
633.206	11244.2
633.4	11197.1
633.594	11121.32
633.788	11133.61
633.982	10756.79
634.176	11150
634.369	10891.95
634.563	10803.89
634.757	10664.63
634.951	10730.16
635.145	10810.03
635.339	10517.17
635.533	10566.32
635.726	10613.43
635.92	10193.59
636.114	10281.66
636.308	10255.03
636.501	10400.44
636.695	10273.46
636.889	10261.18
637.083	10158.78
637.276	9937.6
637.47	9994.94
637.664	9898.69
637.857	9956.03
638.051	10019.52
638.244	9831.1
638.438	9702.08
638.632	9753.28
638.825	9634.5
639.019	9534.15
639.212	9509.57
639.406	9646.79
639.599	9544.39
639.793	9482.95
639.986	9179.85
640.18	9286.34
640.373	9386.69
640.567	9190.09
640.76	9155.27
640.954	9138.89
641.147	9020.11
641.34	9122.51
641.534	8977.1
641.727	8950.48
641.92	8905.42
642.114	8876.75
642.307	8696.53
642.5	8907.47
642.694	8610.51
642.887	8377.05
643.08	8819.41
643.273	8393.43
643.467	8567.51
643.66	8307.41
643.853	8532.69
644.046	8327.89
644.239	8252.12
644.432	8149.72
644.626	8155.86
644.819	8256.22
645.012	8188.63
645.205	8116.95
645.398	8213.21
645.591	8090.33
645.784	8100.57
645.977	7832.29
646.17	7983.84
646.363	7922.4
646.556	7736.03
646.749	7629.54
646.942	7813.85
647.135	7705.31
647.328	7512.8
647.521	7729.89
647.714	7459.56
647.907	7484.13
648.099	7428.84
648.292	7541.47
648.485	7582.43
648.678	7381.73
648.871	7346.92
649.064	7172.84
649.256	7322.34
649.449	7041.77
649.642	7074.54
649.835	7152.36
650.027	7189.22
650.22	7127.78
650.413	7054.06
650.605	7135.98
650.798	6939.37
650.991	6759.15
651.183	6906.6
651.376	6775.53
651.568	6886.12
651.761	6933.23
651.954	6648.56
652.146	6439.67
652.339	6681.33
652.531	6681.33
652.724	6818.54
652.916	6519.54
653.109	6511.35
653.301	6357.75
653.494	6578.93
653.686	6454
653.879	6296.31
654.071	6398.71
654.263	6290.17
654.456	6292.21
654.648	6191.86
654.84	6271.73
655.033	6224.63
655.225	6079.22
655.417	6148.86
655.61	5960.44
655.802	6054.65
655.994	6068.98
656.186	5866.24
656.379	5976.83
656.571	5856
656.763	5888.76
656.955	5958.39
657.148	5919.48
657.34	5907.2
657.532	5774.08
657.724	5772.03
657.916	5714.69
658.108	5612.29
658.3	5665.53
658.492	5673.73
658.684	5395.2
658.876	5473.03
659.068	5657.34
659.26	5616.38
659.452	5499.65
659.644	5573.38
659.836	5444.35
660.028	5452.55
660.22	5214.98
660.412	5227.27
660.604	5137.16
660.796	5344
660.988	5104.39
661.18	5157.64
661.372	5208.84
661.563	5133.06
661.755	5092.1
661.947	5030.66
662.139	5083.91
662.331	4987.66
662.522	4879.11
662.714	4879.11
662.906	4995.85
663.097	4856.59
663.289	4748.04
663.481	4733.71
663.673	4942.6
663.864	4776.72
664.056	4789
664.247	4768.52
664.439	4592.4
664.631	4702.99
664.822	4870.92
665.014	4715.28
665.205	4653.84
665.397	4643.6
665.588	4621.07
665.78	4619.02
665.971	4629.26
666.163	4567.82
666.354	4541.2
666.546	4627.21
666.737	4477.71
666.929	4406.03
667.12	4526.86
667.311	4391.7
667.503	4354.83
667.694	4381.46
667.885	4322.07
668.077	4387.6
668.268	4305.68
668.459	4293.4
668.651	4336.4
668.842	4264.72
669.033	4098.84
669.224	4168.47
669.416	4158.23
669.607	4240.15
669.798	4035.35
669.989	4109.08
670.18	4102.93
670.371	4061.98
670.563	4207.38
670.754	4156.18
670.945	4014.87
671.136	4053.78
671.327	4043.54
671.518	4131.61
671.709	4111.13
671.9	3930.91
672.091	3937.05
672.282	3971.86
672.473	3797.79
672.664	3865.37
672.855	3959.58
673.046	3857.18
673.237	4045.59
673.428	3724.06
673.619	3814.17
673.809	3713.82
674	3945.24
674.191	3867.42
674.382	3846.94
674.573	3722.01
674.764	3797.79
674.954	3588.89
675.145	3719.96
675.336	3509.02
675.527	3615.52
675.717	3576.61
675.908	3732.25
676.099	3539.74
676.289	3552.03
676.48	3552.03
676.671	3459.87
676.861	3724.06
677.052	3535.65
677.243	3609.37
677.433	3590.94
677.624	3691.29
677.814	3576.61
678.005	3662.62
678.195	3375.91
678.386	3380
678.576	3519.26
678.767	3316.51
678.957	3521.31
679.148	3478.3
679.338	3511.07
679.529	3425.06
679.719	3502.88
679.909	3478.3
680.1	3474.21
680.29	3502.88
680.481	3322.66
680.671	3398.43
680.861	3322.66
681.052	3322.66
681.242	3474.21
681.432	3275.56
681.622	3339.04
681.813	3363.62
682.003	3404.58
682.193	3371.81
682.383	3328.8
682.573	3363.62
682.764	3242.79
682.954	3316.51
683.144	3236.64
683.334	3339.04
683.524	3339.04
683.714	3273.51
683.904	3183.4
684.094	3271.46
684.284	3160.87
684.474	3353.38
684.664	3261.22
684.854	3277.6
685.044	3154.73
685.234	3253.03
685.424	3201.83
685.614	3205.92
685.804	3263.27
685.994	3160.87
686.184	3314.47
686.374	3068.71
686.564	3158.82
686.753	3068.71
686.943	3093.29
687.133	3044.13
687.323	3050.28
687.513	3150.63
687.702	2978.6
687.892	3035.94
688.082	3040.04
688.272	2917.16
688.461	2988.84
688.651	3060.52
688.841	2929.45
689.03	2845.48
689.22	2992.94
689.41	2941.74
689.599	2954.02
689.789	2917.16
689.979	2966.31
690.168	2882.35
690.358	2650.92
690.547	2847.53
690.737	2765.61
690.926	2962.22
691.116	2685.74
691.305	2788.14
691.495	2759.47
691.684	2790.19
691.874	2798.38
692.063	2626.35
692.252	2777.9
692.442	2708.27
692.631	2685.74
692.82	2761.52
693.01	2685.74
693.199	2667.31
693.388	2659.12
693.578	2646.83
693.767	2642.73
693.956	2569.01
694.146	2624.3
694.335	2650.92
694.524	2530.09
694.713	2698.03
694.902	2620.21
695.092	2618.16
695.281	2593.58
695.47	2626.35
695.659	2448.18
695.848	2519.85
696.037	2466.61
696.226	2511.66
696.415	2507.57
696.604	2433.84
696.793	2480.94
696.982	2431.79
697.171	2427.7
697.36	2540.33
697.549	2503.47
697.738	2380.59
697.927	2417.46
698.116	2390.83
698.305	2487.09
698.494	2399.02
698.683	2536.24
698.872	2392.88
699.061	2446.13
699.25	2499.38
699.438	2417.46
699.627	2435.89
699.816	2407.22
700.005	2401.07
700.193	2427.7
700.382	2405.17
700.571	2439.98
700.76	2401.07
700.948	2360.11
701.137	2405.17
701.326	2386.74
701.514	2302.77
701.703	2286.39
701.892	2253.62
702.08	2427.7
702.269	2392.88
702.457	2384.69
702.646	2290.48
702.834	2257.71
703.023	2306.87
703.212	2259.76
703.4	2339.63
703.589	2413.36
703.777	2415.41
703.965	2249.52
704.154	2286.39
704.342	2253.62
704.531	2310.96
704.719	2270
704.907	2347.83
705.096	2249.52
705.284	2151.22
705.472	2167.6
705.661	2196.28
705.849	2251.57
706.037	2241.33
706.226	2171.7
706.414	2376.5
706.602	2243.38
706.79	2290.48
706.979	2257.71
707.167	2276.15
707.355	2224.95
707.543	2263.86
707.731	2290.48
707.919	2183.99
708.107	2157.36
708.296	2169.65
708.484	2224.95
708.672	2263.86
708.86	2323.25
709.048	2153.27
709.236	2212.66
709.424	2218.8
709.612	2298.67
709.8	2147.12
709.988	2208.56
710.176	2331.44
710.364	2274.1
710.551	2128.69
710.739	2253.62
710.927	2282.29
711.115	2294.58
711.303	2233.14
711.491	2300.72
711.679	2222.9
711.866	2272.05
712.054	2093.88
712.242	2147.12
712.43	2251.57
712.617	2243.38
712.805	2200.37
712.993	2270
713.181	2181.94
713.368	2276.15
713.556	2175.8
713.744	2093.88
713.931	2284.34
714.119	2253.62
714.306	2220.85
714.494	2132.79
714.682	2218.8
714.869	2104.12
715.057	2282.29
715.244	2239.28
715.432	2124.6
715.619	2202.42
715.807	2216.76
715.994	2202.42
716.182	2120.5
716.369	2138.93
716.556	2245.43
716.744	2052.92
716.931	2069.3
717.119	2280.24
717.306	2265.91
717.493	2186.04
717.681	2159.41
717.868	2085.69
718.055	2231.09
718.242	2175.8
718.43	2212.66
718.617	2224.95
718.804	2048.82
718.991	2202.42
719.179	2151.22
719.366	2132.79
719.553	2235.19
719.74	2163.51
719.927	2202.42
720.114	2202.42
720.301	2028.34
720.488	2102.07
720.676	2259.76
720.863	2175.8
721.05	2218.8
721.237	2208.56
721.424	2118.45
721.611	2171.7
721.798	2083.64
721.985	2186.04
722.172	2120.5
722.358	2052.92
722.545	2052.92
722.732	2224.95
722.919	2233.14
723.106	2134.84
723.293	2216.76
723.48	2114.36
723.667	1971
723.853	2083.64
724.04	2161.46
724.227	2093.88
724.414	2196.28
724.6	2151.22
724.787	2216.76
724.974	2206.52
725.161	2061.11
725.347	2079.54
725.534	2052.92
725.72	2159.41
725.907	2052.92
726.094	2106.17
726.28	2102.07
726.467	2007.86
726.653	2083.64
726.84	2095.93
727.027	2147.12
727.213	2069.3
727.4	2169.65
727.586	2267.95
727.773	2210.61
727.959	2126.64
728.145	2155.32
728.332	2214.71
728.518	2128.69
728.705	2181.94
728.891	2073.4
729.077	2171.7
729.264	2167.6
729.45	2112.31
729.636	2161.46
729.823	2224.95
730.009	2206.52
730.195	2128.69
730.382	2097.97
730.568	2153.27
730.754	2122.55
730.94	2083.64
731.126	2126.64
731.313	2136.88
731.499	2159.41
731.685	2276.15
731.871	2147.12
732.057	2179.89
732.243	2050.87
732.429	2110.26
732.615	2112.31
732.801	2151.22
732.987	2138.93
733.173	2169.65
733.359	2095.93
733.545	2157.36
733.731	2087.73
733.917	2048.82
734.103	2167.6
734.289	2149.17
734.475	2140.98
734.661	2169.65
734.847	2079.54
735.033	2192.18
735.219	2028.34
735.404	2136.88
735.59	2024.25
735.776	2048.82
735.962	2020.15
736.148	2063.16
736.333	1973.05
736.519	2167.6
736.705	2071.35
736.89	2149.17
737.076	2079.54
737.262	2048.82
737.447	2069.3
737.633	2077.49
737.819	2079.54
738.004	2046.77
738.19	2077.49
738.375	2085.69
738.561	2020.15
738.747	1954.62
738.932	2075.45
739.118	2083.64
739.303	2005.81
739.489	1989.43
739.674	1946.42
739.859	1973.05
740.045	2020.15
740.23	2097.97
740.416	1872.7
740.601	2011.96
740.786	1919.8
740.972	1956.66
741.157	1975.1
741.342	1975.1
741.528	1913.66
741.713	1958.71
741.898	2026.29
742.084	1997.62
742.269	1903.42
742.454	1915.7
742.639	1821.5
742.824	1971
743.01	2020.15
743.195	1938.23
743.38	1909.56
743.565	1872.7
743.75	1971
743.935	1876.79
744.12	1960.76
744.305	1913.66
744.49	1866.55
744.675	1831.74
744.86	1827.64
745.045	1872.7
745.23	1841.98
745.415	1780.54
745.6	1889.08
745.785	1712.96
745.97	1848.12
746.155	1790.78
746.34	1872.7
746.525	1741.63
746.71	1923.9
746.895	1784.63
747.079	1733.43
747.264	1680.19
747.449	1717.05
747.634	1798.97
747.819	1755.96
748.003	1626.94
748.188	1712.96
748.373	1684.28
748.557	1721.15
748.742	1700.67
748.927	1647.42
749.111	1626.94
749.296	1631.04
749.481	1614.65
749.665	1696.57
749.85	1635.13
750.034	1493.82
750.219	1704.76
750.404	1626.94
750.588	1610.56
750.773	1555.26
750.957	1551.17
751.141	1536.83
751.326	1577.79
751.51	1428.29
751.695	1628.99
751.879	1512.25
752.064	1585.98
752.248	1547.07
752.432	1463.1
752.617	1489.73
752.801	1506.11
752.985	1375.04
753.17	1389.38
753.354	1495.87
753.538	1520.45
753.722	1375.04
753.907	1442.62
754.091	1391.42
754.275	1422.14
754.459	1432.38
754.643	1258.31
754.828	1434.43
755.012	1422.14
755.196	1407.81
755.38	1250.11
755.564	1364.8
755.748	1352.51
755.932	1319.75
756.116	1426.24
756.3	1266.5
756.484	1246.02
756.668	1235.78
756.852	1266.5
757.036	1252.16
757.22	1258.31
757.404	1233.73
757.588	1274.69
757.772	1246.02
757.956	1282.88
758.14	1237.83
758.323	1168.2
758.507	1200.96
758.691	1192.77
758.875	1192.77
759.059	1196.87
759.242	1098.56
759.426	1102.66
759.61	1127.24
759.794	1145.67
759.977	1160
760.161	1053.51
760.345	1192.77
760.528	1133.38
760.712	1139.52
760.895	1139.52
761.079	1069.89
761.263	1037.13
761.446	1092.42
761.63	1080.13
761.813	1102.66
761.997	1045.32
762.18	1020.74
762.364	1059.65
762.547	1012.55
762.731	957.25
762.914	1069.89
763.098	1049.41
763.281	1010.5
763.464	963.4
763.648	938.82
763.831	996.17
764.015	983.88
764.198	949.06
764.381	959.3
764.564	1004.36
764.748	848.71
764.931	983.88
765.114	1071.94
765.297	930.63
765.481	967.49
765.664	1004.36
765.847	879.43
766.03	947.01
766.213	881.48
766.397	906.06
766.58	889.67
766.763	961.35
766.946	938.82
767.129	930.63
767.312	916.3
767.495	942.92
767.678	865.1
767.861	981.83
768.044	856.9
768.227	983.88
768.41	914.25
768.593	893.77
768.776	813.9
768.959	787.27
769.142	910.15
769.324	873.29
769.507	926.54
769.69	906.06
769.873	815.94
770.056	963.4
770.239	852.81
770.421	922.44
770.604	852.81
770.787	846.66
770.97	834.38
771.152	881.48
771.335	865.1
771.518	777.03
771.7	858.95
771.883	873.29
772.066	865.1
772.248	766.79
772.431	875.34
772.613	750.41
772.796	865.1
772.978	815.94
773.161	799.56
773.343	869.19
773.526	744.27
773.708	725.83
773.891	672.59
774.073	820.04
774.256	711.5
774.438	832.33
774.621	709.45
774.803	688.97
774.985	774.99
775.168	768.84
775.35	774.99
775.532	824.14
775.715	774.99
775.897	742.22
776.079	691.02
776.261	703.31
776.444	529.23
776.626	678.73
776.808	660.3
776.99	619.34
777.173	754.51
777.355	621.39
777.537	668.49
777.719	727.88
777.901	580.43
778.083	693.07
778.265	590.67
778.447	695.11
778.629	631.63
778.811	652.11
778.993	686.92
779.175	693.07
779.357	613.2
779.539	602.96
779.721	539.47
779.903	602.96
780.085	504.65
780.267	574.28
780.449	529.23
780.631	629.58
780.812	654.16
780.994	551.76
781.176	547.66
781.358	605
781.54	549.71
781.721	504.65
781.903	562
782.085	508.75
782.267	529.23
782.448	504.65
782.63	570.19
782.812	535.37
782.993	463.69
783.175	600.91
783.357	457.55
783.538	547.66
783.72	465.74
783.901	521.04
784.083	496.46
784.264	473.93
784.446	553.8
784.627	408.4
784.809	482.13
784.99	408.4
785.172	473.93
785.353	455.5
785.535	428.88
785.716	482.13
785.897	422.73
786.079	422.73
786.26	471.89
786.441	449.36
786.623	414.54
786.804	422.73
786.985	437.07
787.167	353.1
787.348	408.4
787.529	441.17
787.71	359.25
787.891	473.93
788.073	424.78
788.254	320.34
788.435	406.35
788.616	387.92
788.797	377.68
788.978	367.44
789.159	381.78
789.34	400.21
789.522	439.12
789.703	424.78
789.884	371.54
790.065	332.62
790.246	359.25
790.427	389.97
790.607	392.02
790.788	359.25
790.969	396.11
791.15	340.82
791.331	351.06
791.512	353.1
791.693	383.82
791.874	287.57
792.054	484.17
792.235	316.24
792.416	314.19
792.597	258.9
792.778	355.15
792.958	410.45
793.139	324.43
793.32	301.9
793.5	291.66
793.681	330.58
793.862	281.43
794.042	398.16
794.223	193.36
794.404	332.62
794.584	238.42
794.765	344.91
794.945	328.53
795.126	324.43
795.306	349.01
795.487	277.33
795.667	217.94
795.848	324.43
796.028	308.05
796.209	340.82
796.389	351.06
796.57	240.47
796.75	324.43
796.93	295.76
797.111	244.56
797.291	260.95
797.471	326.48
797.652	283.47
797.832	242.51
798.012	301.9
798.192	211.79
798.373	299.86
798.553	205.65
798.733	256.85
798.913	234.32
799.093	308.05
799.274	238.42
799.454	285.52
799.634	234.32
799.814	211.79
799.994	215.89
800.174	193.36
800.354	291.66
800.534	299.86
800.714	267.09
800.894	244.56
801.074	226.13
801.254	228.18
801.434	174.93
801.614	211.79
801.794	217.94
801.974	865.1
802.154	219.99
802.334	281.43
802.514	162.64
802.693	183.12
802.873	226.13
803.053	267.09
803.233	275.28
803.413	258.9
803.592	236.37
803.772	301.9
803.952	152.4
804.131	232.27
804.311	275.28
804.491	209.75
804.67	156.5
804.85	248.66
805.03	209.75
805.209	250.71
805.389	201.55
805.568	209.75
805.748	209.75
805.928	172.88
806.107	160.59
806.287	267.09
806.466	160.59
806.646	185.17
806.825	156.5
807.004	201.55
807.184	199.51
807.363	162.64
807.543	275.28
807.722	158.55
807.901	172.88
808.081	181.07
808.26	138.07
808.439	170.83
808.619	154.45
808.798	279.38
808.977	187.22
809.156	244.56
809.336	172.88
809.515	168.79
809.694	185.17
809.873	133.97
810.052	201.55
810.231	293.71
810.411	162.64
810.59	164.69
810.769	170.83
810.948	172.88
811.127	93.01
811.306	123.73
811.485	160.59
811.664	156.5
811.843	138.07
812.022	191.31
812.201	185.17
812.38	148.31
812.559	146.26
812.737	119.64
812.916	88.92
813.095	146.26
813.274	97.11
813.453	164.69
813.632	193.36
813.811	195.41
813.989	82.77
814.168	86.87
814.347	211.79
814.526	111.44
814.704	162.64
814.883	105.3
815.062	160.59
815.24	142.16
815.419	119.64
815.598	164.69
815.776	152.4
815.955	189.27
816.133	111.44
816.312	140.12
816.49	117.59
816.669	222.03
816.847	111.44
817.026	146.26
817.204	185.17
817.383	111.44
817.561	168.79
817.74	103.25
817.918	168.79
818.097	195.41
818.275	109.4
818.453	127.83
818.632	97.11
818.81	86.87
818.988	136.02
819.167	185.17
819.345	148.31
819.523	160.59
819.701	127.83
819.879	217.94
820.058	142.16
820.236	129.88
820.414	111.44
820.592	99.16
820.77	109.4
820.948	84.82
821.127	107.35
821.305	146.26
821.483	158.55
821.661	119.64
821.839	86.87
822.017	72.53
822.195	86.87
822.373	162.64
822.551	123.73
822.729	146.26
822.907	129.88
823.085	125.78
823.262	103.25
823.44	107.35
823.618	148.31
823.796	156.5
823.974	90.96
824.152	62.29
824.329	162.64
824.507	70.48
824.685	115.54
824.863	70.48
825.04	109.4
825.218	99.16
825.396	129.88
825.574	105.3
825.751	54.1
825.929	136.02
826.107	123.73
826.284	129.88
826.462	72.53
826.639	45.91
826.817	25.43
826.994	140.12
827.172	78.68
827.349	138.07
827.527	13.14
827.704	99.16
827.882	113.49
828.059	70.48
828.237	123.73
828.414	105.3
828.591	47.96
828.769	78.68
828.946	84.82
829.124	23.38
829.301	156.5
829.478	74.58
829.655	136.02
829.833	109.4
830.01	23.38
830.187	170.83
830.364	43.86
830.542	66.39
830.719	160.59
830.896	13.14
831.073	90.96
831.25	78.68
831.427	95.06
831.604	54.1
831.782	47.96
831.959	113.49
832.136	99.16
832.313	80.72
832.49	78.68
832.667	99.16
832.844	74.58
833.021	86.87
833.198	97.11
833.374	33.62
833.551	97.11
833.728	70.48
833.905	62.29
834.082	25.43
834.259	47.96
834.436	76.63
834.612	21.33
834.789	103.25
834.966	80.72
835.143	70.48
835.319	41.81
835.496	103.25
835.673	33.62
835.85	64.34
836.026	13.14
836.203	58.2
836.38	33.62
836.556	74.58
836.733	43.86
836.909	70.48
837.086	37.72
837.262	90.96
837.439	27.48
837.616	72.53
837.792	111.44
837.968	29.52
838.145	29.52
838.321	45.91
838.498	17.24
838.674	84.82
838.851	54.1
839.027	15.19
839.203	105.3
839.38	64.34
839.556	19.29
839.732	105.3
839.909	72.53
840.085	86.87
840.261	70.48
840.437	0.85
840.614	52.05
840.79	168.79
840.966	21.33
841.142	95.06
841.318	90.96
841.494	113.49
841.671	37.72
841.847	37.72
842.023	80.72
842.199	90.96
842.375	78.68
842.551	54.1
842.727	-76.97
842.903	45.91
843.079	-1.19
843.255	17.24
843.431	33.62
843.607	70.48
843.783	-9.39
843.959	82.77
844.134	19.29
844.31	162.64
844.486	93.01
844.662	78.68
844.838	33.62
845.013	95.06
845.189	70.48
845.365	39.76
845.541	13.14
845.716	19.29
845.892	84.82
846.068	56.15
846.244	47.96
846.419	70.48
846.595	-44.2
846.77	13.14
846.946	45.91
847.122	4.95
847.297	121.68
847.473	78.68
847.648	23.38
847.824	52.05
847.999	-21.67
848.175	29.52
848.35	45.91
848.526	181.07
848.701	39.76
848.876	21.33
849.052	58.2
849.227	45.91
849.403	82.77
849.578	47.96
849.753	0.85
849.929	86.87
850.104	103.25
850.279	64.34
850.454	-3.24
850.63	45.91
850.805	54.1
850.98	-27.82
851.155	62.29
851.33	-7.34
851.505	13.14
851.681	136.02
851.856	47.96
852.031	-17.58
852.206	66.39
852.381	15.19
852.556	17.24
852.731	72.53
852.906	62.29
853.081	123.73
853.256	33.62
853.431	-36.01
853.606	15.19
853.781	72.53
853.956	25.43
854.131	78.68
854.305	13.14
854.48	27.48
854.655	-42.15
854.83	23.38
855.005	31.57
855.18	39.76
855.354	29.52
855.529	50
855.704	88.92
855.879	29.52
856.053	90.96
856.228	119.64
856.403	-27.82
856.577	4.95
856.752	-9.39
856.926	82.77
857.101	111.44
857.276	-68.78
857.45	17.24
857.625	111.44
857.799	17.24
857.974	17.24
858.148	-17.58
858.323	-19.63
858.497	-7.34
858.672	29.52
858.846	-1.19
859.02	33.62
859.195	103.25
859.369	58.2
859.543	58.2
859.718	80.72
859.892	86.87
860.066	-7.34
860.241	7
860.415	-42.15
860.589	-11.43
860.763	-85.16
860.938	105.3
861.112	56.15
861.286	82.77
861.46	76.63
861.634	0.85
861.808	86.87
861.982	-48.3
862.157	2.9
862.331	21.33
862.505	-11.43
862.679	0.85
862.853	45.91
863.027	78.68
863.201	78.68
863.375	-70.83
863.549	74.58
863.722	58.2
863.896	70.48
864.07	-44.2
864.244	-1.19
864.418	58.2
864.592	45.91
864.766	45.91
864.939	62.29
865.113	37.72
865.287	62.29
865.461	-21.67
865.634	-40.11
865.808	-19.63
865.982	25.43
866.156	45.91
866.329	-3.24
866.503	21.33
866.676	23.38
866.85	-11.43
867.024	11.09
867.197	78.68
867.371	58.2
867.544	47.96
867.718	-25.77
867.891	78.68
868.065	13.14
868.238	-17.58
868.412	78.68
868.585	13.14
868.759	11.09
868.932	-15.53
869.105	66.39
869.279	-1.19
869.452	-7.34
869.625	-3.24
869.799	56.15
869.972	0.85
870.145	35.67
870.319	78.68
870.492	15.19
870.665	-36.01
870.838	62.29
871.011	-29.87
871.185	-25.77
871.358	21.33
871.531	41.81
871.704	-11.43
871.877	23.38
872.05	-23.72
872.223	-44.2
872.396	90.96
872.569	-27.82
872.742	9.05
872.915	58.2
873.088	-9.39
873.261	-27.82
873.434	0.85
873.607	25.43
873.78	-13.48
873.953	7
874.126	-11.43
874.299	-1.19
874.471	27.48
874.644	7
874.817	13.14
874.99	4.95
875.163	-3.24
875.335	15.19
875.508	45.91
875.681	58.2
875.853	13.14
876.026	-36.01
876.199	37.72
876.371	-3.24
876.544	41.81
876.717	-9.39
876.889	-19.63
877.062	7
877.234	-109.74
877.407	23.38
877.579	-7.34
877.752	-17.58
877.924	68.44
878.097	-21.67
878.269	-42.15
878.442	25.43
878.614	47.96
878.786	107.35
878.959	-74.92
879.131	4.95
879.303	17.24
879.476	37.72
879.648	21.33
879.82	-3.24
879.993	-17.58
880.165	4.95
880.337	62.29
880.509	-44.2
880.681	23.38
880.854	41.81
881.026	-72.87
881.198	121.68
881.37	37.72
881.542	-36.01
881.714	58.2
881.886	54.1
882.058	-15.53
882.23	9.05
882.402	21.33
882.574	9.05
882.746	29.52
882.918	90.96
883.09	25.43
883.262	9.05
883.434	-25.77
883.606	-36.01
883.778	-40.11
883.95	66.39
884.122	9.05
884.293	17.24
884.465	41.81
884.637	58.2
884.809	25.43
884.98	21.33
885.152	64.34
885.324	39.76
885.496	-31.91
885.667	45.91
885.839	-19.63
886.011	123.73
886.182	-17.58
886.354	-3.24
886.525	13.14
886.697	-11.43
886.869	62.29
887.04	-17.58
887.212	39.76
887.383	7
887.555	54.1
887.726	70.48
887.897	23.38
888.069	13.14
888.24	41.81
888.412	-3.24
888.583	4.95
888.754	-33.96
888.926	52.05
889.097	0.85
889.268	-9.39
889.44	-17.58
889.611	37.72
889.782	0.85
889.953	-13.48
890.125	39.76
890.296	58.2
890.467	-1.19
890.638	4.95
890.809	37.72
890.98	17.24
891.151	-15.53
891.323	7
891.494	37.72
891.665	23.38
891.836	31.57
892.007	47.96
892.178	107.35
892.349	29.52
892.52	9.05
892.691	-33.96
892.862	9.05
893.032	37.72
893.203	45.91
893.374	-44.2
893.545	-17.58
893.716	-25.77
893.887	11.09
894.057	9.05
894.228	54.1
894.399	-3.24
894.57	15.19
894.74	-42.15
894.911	56.15
895.082	15.19
895.253	25.43
895.423	13.14
895.594	80.72
895.764	7
895.935	-17.58
896.106	52.05
896.276	31.57
896.447	17.24
896.617	-44.2
896.788	15.19
896.958	-11.43
897.129	-89.26
897.299	-56.49
897.47	21.33
897.64	45.91
897.81	-85.16
897.981	62.29
898.151	62.29
898.322	76.63
898.492	62.29
898.662	-1.19
898.832	80.72
899.003	-40.11
899.173	37.72
899.343	4.95
899.513	-36.01
