Data from USB4F104151__181__14-45-07-113.txt Node

Date: Thu Mar 13 14:45:07 EDT 2025
User: louis
Spectrometer: USB4F10415
Trigger mode: 4
Integration Time (sec): 2.000000E-2
Scans to average: 1
Electric dark correction enabled: true
Nonlinearity correction enabled: false
Boxcar width: 0
XAxis mode: Wavelengths
Number of Pixels in Spectrum: 3648
>>>>>Begin Spectral Data<<<<<
178.204	-137.73
178.424	-137.73
178.644	-137.73
178.864	-131.58
179.084	-145.92
179.304	-29.18
179.524	-27.14
179.744	28.16
179.964	67.07
180.184	60.93
180.404	9.73
180.624	32.26
180.844	-20.99
181.064	-41.47
181.283	7.68
181.503	-94.72
181.723	7.68
181.943	-31.23
182.163	48.64
182.383	22.02
182.602	44.54
182.822	89.6
183.042	3.58
183.262	-57.86
183.482	3.58
183.701	-33.28
183.921	44.54
184.141	-18.94
184.361	44.54
184.58	48.64
184.8	-64
185.02	69.12
185.239	40.45
185.459	-12.8
185.679	22.02
185.898	65.02
186.118	11.78
186.338	42.5
186.557	32.26
186.777	15.87
186.997	-0.51
187.216	-0.51
187.436	73.21
187.655	65.02
187.875	-20.99
188.095	-8.7
188.314	42.5
188.534	-16.9
188.753	50.69
188.973	40.45
189.192	40.45
189.412	30.21
189.631	-35.33
189.851	34.3
190.07	44.54
190.29	67.07
190.509	19.97
190.729	9.73
190.948	40.45
191.168	169.47
191.387	42.5
191.607	69.12
191.826	73.21
192.045	-25.09
192.265	34.3
192.484	79.36
192.704	9.73
192.923	7.68
193.142	67.07
193.362	15.87
193.581	-20.99
193.8	7.68
194.02	32.26
194.239	15.87
194.458	-14.85
194.678	54.78
194.897	7.68
195.116	28.16
195.335	24.06
195.555	3.58
195.774	32.26
195.993	60.93
196.212	40.45
196.432	42.5
196.651	40.45
196.87	3.58
197.089	89.6
197.308	130.56
197.528	15.87
197.747	13.82
197.966	28.16
198.185	34.3
198.404	15.87
198.623	60.93
198.842	97.79
199.062	99.84
199.281	81.41
199.5	17.92
199.719	97.79
199.938	28.16
200.157	48.64
200.376	67.07
200.595	28.16
200.814	-2.56
201.033	40.45
201.252	56.83
201.471	-41.47
201.69	24.06
201.909	36.35
202.128	44.54
202.347	9.73
202.566	-100.86
202.785	19.97
203.004	-4.61
203.223	26.11
203.442	-16.9
203.661	15.87
203.879	89.6
204.098	44.54
204.317	28.16
204.536	48.64
204.755	24.06
204.974	-0.51
205.193	32.26
205.411	101.89
205.63	95.74
205.849	22.02
206.068	17.92
206.287	7.68
206.505	75.26
206.724	28.16
206.943	48.64
207.162	-18.94
207.381	1.54
207.599	-14.85
207.818	48.64
208.037	11.78
208.255	-12.8
208.474	50.69
208.693	17.92
208.911	50.69
209.13	-8.7
209.349	24.06
209.567	56.83
209.786	56.83
210.005	-25.09
210.223	89.6
210.442	-78.33
210.661	-8.7
210.879	11.78
211.098	26.11
211.316	112.13
211.535	11.78
211.753	-33.28
211.972	7.68
212.191	40.45
212.409	42.5
212.628	73.21
212.846	-31.23
213.065	-12.8
213.283	69.12
213.502	-53.76
213.72	-33.28
213.938	44.54
214.157	7.68
214.375	56.83
214.594	58.88
214.812	56.83
215.031	-14.85
215.249	-45.57
215.467	-8.7
215.686	85.5
215.904	101.89
216.122	-57.86
216.341	44.54
216.559	11.78
216.778	-14.85
216.996	7.68
217.214	65.02
217.432	5.63
217.651	48.64
217.869	32.26
218.087	32.26
218.306	60.93
218.524	15.87
218.742	44.54
218.96	56.83
219.179	24.06
219.397	-23.04
219.615	71.17
219.833	15.87
220.051	-25.09
220.27	73.21
220.488	9.73
220.706	26.11
220.924	44.54
221.142	-8.7
221.36	30.21
221.578	60.93
221.796	36.35
222.015	-31.23
222.233	28.16
222.451	105.98
222.669	65.02
222.887	75.26
223.105	-43.52
223.323	17.92
223.541	-20.99
223.759	85.5
223.977	-2.56
224.195	73.21
224.413	73.21
224.631	89.6
224.849	7.68
225.067	48.64
225.285	3.58
225.503	-14.85
225.721	-0.51
225.939	11.78
226.157	50.69
226.375	140.8
226.592	-43.52
226.81	-25.09
227.028	15.87
227.246	105.98
227.464	17.92
227.682	-33.28
227.9	112.13
228.117	-23.04
228.335	5.63
228.553	3.58
228.771	54.78
228.989	38.4
229.206	56.83
229.424	-51.71
229.642	7.68
229.86	24.06
230.077	69.12
230.295	48.64
230.513	28.16
230.731	26.11
230.948	38.4
231.166	9.73
231.384	5.63
231.601	30.21
231.819	93.69
232.037	1.54
232.254	5.63
232.472	32.26
232.689	3.58
232.907	11.78
233.125	75.26
233.342	-8.7
233.56	17.92
233.777	56.83
233.995	-49.66
234.213	136.7
234.43	73.21
234.648	-39.42
234.865	-16.9
235.083	32.26
235.3	48.64
235.518	-8.7
235.735	58.88
235.953	44.54
236.17	11.78
236.388	-6.66
236.605	56.83
236.822	34.3
237.04	24.06
237.257	-14.85
237.475	-70.14
237.692	67.07
237.909	40.45
238.127	-53.76
238.344	-23.04
238.562	26.11
238.779	-39.42
238.996	9.73
239.214	46.59
239.431	58.88
239.648	-8.7
239.865	24.06
240.083	-47.62
240.3	11.78
240.517	36.35
240.735	40.45
240.952	58.88
241.169	89.6
241.386	24.06
241.603	65.02
241.821	-39.42
242.038	26.11
242.255	-31.23
242.472	36.35
242.689	110.08
242.907	42.5
243.124	44.54
243.341	1.54
243.558	-16.9
243.775	-23.04
243.992	-41.47
244.209	46.59
244.426	99.84
244.643	58.88
244.86	17.92
245.078	7.68
245.295	56.83
245.512	46.59
245.729	-37.38
245.946	108.03
246.163	81.41
246.38	3.58
246.597	30.21
246.814	-0.51
247.031	140.8
247.248	48.64
247.464	28.16
247.681	48.64
247.898	-20.99
248.115	93.69
248.332	56.83
248.549	81.41
248.766	30.21
248.983	67.07
249.2	7.68
249.417	89.6
249.633	-16.9
249.85	26.11
250.067	-86.53
250.284	7.68
250.501	9.73
250.717	56.83
250.934	15.87
251.151	48.64
251.368	42.5
251.585	30.21
251.801	15.87
252.018	60.93
252.235	97.79
252.451	-74.24
252.668	3.58
252.885	108.03
253.102	122.37
253.318	75.26
253.535	-35.33
253.752	3.58
253.968	-8.7
254.185	40.45
254.401	44.54
254.618	-14.85
254.835	3.58
255.051	99.84
255.268	56.83
255.484	-4.61
255.701	-43.52
255.917	15.87
256.134	3.58
256.351	40.45
256.567	-33.28
256.784	9.73
257	-33.28
257.217	-41.47
257.433	-23.04
257.65	-18.94
257.866	56.83
258.082	3.58
258.299	-16.9
258.515	26.11
258.732	-0.51
258.948	81.41
259.165	-8.7
259.381	-31.23
259.597	42.5
259.814	-14.85
260.03	-8.7
260.246	56.83
260.463	-14.85
260.679	36.35
260.895	-57.86
261.112	99.84
261.328	44.54
261.544	24.06
261.761	34.3
261.977	-37.38
262.193	5.63
262.409	15.87
262.626	56.83
262.842	65.02
263.058	24.06
263.274	112.13
263.49	-41.47
263.707	34.3
263.923	67.07
264.139	48.64
264.355	9.73
264.571	7.68
264.787	1.54
265.004	44.54
265.22	36.35
265.436	50.69
265.652	22.02
265.868	65.02
266.084	56.83
266.3	-14.85
266.516	11.78
266.732	28.16
266.948	40.45
267.164	81.41
267.38	5.63
267.596	56.83
267.812	108.03
268.028	24.06
268.244	7.68
268.46	79.36
268.676	7.68
268.892	-10.75
269.108	7.68
269.324	7.68
269.54	118.27
269.756	97.79
269.972	-16.9
270.188	77.31
270.403	-14.85
270.619	24.06
270.835	73.21
271.051	28.16
271.267	-12.8
271.483	81.41
271.698	-4.61
271.914	81.41
272.13	3.58
272.346	134.65
272.562	-12.8
272.777	48.64
272.993	44.54
273.209	-8.7
273.425	40.45
273.64	11.78
273.856	50.69
274.072	7.68
274.287	7.68
274.503	69.12
274.719	-0.51
274.934	7.68
275.15	-0.51
275.366	24.06
275.581	-0.51
275.797	85.5
276.012	48.64
276.228	44.54
276.444	15.87
276.659	87.55
276.875	-4.61
277.09	11.78
277.306	58.88
277.521	48.64
277.737	-29.18
277.952	56.83
278.168	40.45
278.383	-33.28
278.599	1.54
278.814	17.92
279.03	9.73
279.245	32.26
279.461	40.45
279.676	50.69
279.892	7.68
280.107	28.16
280.322	-41.47
280.538	60.93
280.753	-8.7
280.969	17.92
281.184	32.26
281.399	32.26
281.615	34.3
281.83	81.41
282.045	-4.61
282.26	-25.09
282.476	24.06
282.691	36.35
282.906	-16.9
283.122	110.08
283.337	44.54
283.552	48.64
283.767	-53.76
283.983	130.56
284.198	-23.04
284.413	54.78
284.628	-78.33
284.843	77.31
285.058	67.07
285.274	15.87
285.489	-6.66
285.704	44.54
285.919	48.64
286.134	77.31
286.349	42.5
286.564	17.92
286.779	58.88
286.995	44.54
287.21	-12.8
287.425	26.11
287.64	13.82
287.855	-14.85
288.07	-27.14
288.285	32.26
288.5	67.07
288.715	73.21
288.93	60.93
289.145	15.87
289.36	-2.56
289.575	-4.61
289.79	-12.8
290.004	75.26
290.219	-4.61
290.434	26.11
290.649	67.07
290.864	19.97
291.079	15.87
291.294	85.5
291.509	34.3
291.724	28.16
291.938	28.16
292.153	-18.94
292.368	-6.66
292.583	48.64
292.798	11.78
293.012	65.02
293.227	28.16
293.442	-2.56
293.657	42.5
293.871	60.93
294.086	9.73
294.301	56.83
294.516	36.35
294.73	26.11
294.945	28.16
295.16	91.65
295.374	108.03
295.589	128.51
295.804	-8.7
296.018	15.87
296.233	75.26
296.447	-6.66
296.662	-23.04
296.877	124.41
297.091	28.16
297.306	30.21
297.52	50.69
297.735	-4.61
297.949	-31.23
298.164	50.69
298.378	7.68
298.593	-35.33
298.807	-41.47
299.022	-16.9
299.236	60.93
299.451	-90.62
299.665	1.54
299.88	69.12
300.094	105.98
300.309	30.21
300.523	38.4
300.737	26.11
300.952	81.41
301.166	89.6
301.381	40.45
301.595	-10.75
301.809	-49.66
302.024	1.54
302.238	34.3
302.452	32.26
302.667	118.27
302.881	122.37
303.095	36.35
303.309	15.87
303.524	-23.04
303.738	-33.28
303.952	-57.86
304.166	15.87
304.381	3.58
304.595	99.84
304.809	-64
305.023	-8.7
305.237	48.64
305.452	93.69
305.666	38.4
305.88	11.78
306.094	15.87
306.308	-20.99
306.522	9.73
306.736	93.69
306.95	56.83
307.164	85.5
307.379	-16.9
307.593	50.69
307.807	58.88
308.021	42.5
308.235	26.11
308.449	19.97
308.663	44.54
308.877	52.74
309.091	52.74
309.305	58.88
309.519	-23.04
309.733	75.26
309.947	1.54
310.161	85.5
310.374	58.88
310.588	-0.51
310.802	36.35
311.016	11.78
311.23	48.64
311.444	44.54
311.658	7.68
311.872	36.35
312.085	83.45
312.299	73.21
312.513	-8.7
312.727	105.98
312.941	-53.76
313.154	15.87
313.368	15.87
313.582	-29.18
313.796	28.16
314.009	42.5
314.223	44.54
314.437	9.73
314.651	15.87
314.864	-0.51
315.078	60.93
315.292	9.73
315.505	-25.09
315.719	40.45
315.933	48.64
316.146	26.11
316.36	17.92
316.573	132.61
316.787	-0.51
317.001	34.3
317.214	40.45
317.428	73.21
317.641	7.68
317.855	-16.9
318.068	24.06
318.282	62.98
318.495	42.5
318.709	101.89
318.922	15.87
319.136	138.75
319.349	52.74
319.563	65.02
319.776	65.02
319.99	-41.47
320.203	126.46
320.417	-66.05
320.63	81.41
320.843	50.69
321.057	42.5
321.27	24.06
321.483	-25.09
321.697	48.64
321.91	42.5
322.124	17.92
322.337	17.92
322.55	32.26
322.763	36.35
322.977	46.59
323.19	-8.7
323.403	17.92
323.617	-6.66
323.83	65.02
324.043	-39.42
324.256	65.02
324.469	-14.85
324.683	148.99
324.896	1.54
325.109	15.87
325.322	-25.09
325.535	81.41
325.748	36.35
325.962	-55.81
326.175	11.78
326.388	7.68
326.601	42.5
326.814	26.11
327.027	67.07
327.24	65.02
327.453	15.87
327.666	36.35
327.879	83.45
328.092	73.21
328.305	-12.8
328.518	-0.51
328.731	67.07
328.944	24.06
329.157	38.4
329.37	48.64
329.583	44.54
329.796	7.68
330.009	-31.23
330.222	71.17
330.435	56.83
330.648	32.26
330.861	-47.62
331.073	65.02
331.286	32.26
331.499	77.31
331.712	40.45
331.925	81.41
332.138	-8.7
332.35	108.03
332.563	-33.28
332.776	-14.85
332.989	9.73
333.202	65.02
333.414	15.87
333.627	81.41
333.84	9.73
334.053	81.41
334.265	17.92
334.478	50.69
334.691	32.26
334.903	19.97
335.116	9.73
335.329	58.88
335.541	40.45
335.754	26.11
335.966	-0.51
336.179	-8.7
336.392	1.54
336.604	-18.94
336.817	60.93
337.029	83.45
337.242	24.06
337.454	167.42
337.667	50.69
337.88	56.83
338.092	32.26
338.305	22.02
338.517	32.26
338.729	56.83
338.942	81.41
339.154	-0.51
339.367	28.16
339.579	-29.18
339.792	3.58
340.004	89.6
340.217	97.79
340.429	7.68
340.641	40.45
340.854	60.93
341.066	40.45
341.278	132.61
341.491	48.64
341.703	69.12
341.915	-14.85
342.128	36.35
342.34	-25.09
342.552	15.87
342.764	5.63
342.977	56.83
343.189	77.31
343.401	40.45
343.613	-41.47
343.826	44.54
344.038	24.06
344.25	56.83
344.462	3.58
344.674	40.45
344.886	30.21
345.099	114.17
345.311	165.37
345.523	81.41
345.735	-86.53
345.947	89.6
346.159	44.54
346.371	52.74
346.583	13.82
346.795	124.41
347.007	97.79
347.219	9.73
347.431	65.02
347.643	34.3
347.855	3.58
348.067	36.35
348.279	44.54
348.491	56.83
348.703	73.21
348.915	-6.66
349.127	7.68
349.339	56.83
349.551	3.58
349.763	108.03
349.975	-41.47
350.187	42.5
350.399	44.54
350.61	38.4
350.822	97.79
351.034	60.93
351.246	-23.04
351.458	60.93
351.669	1.54
351.881	58.88
352.093	56.83
352.305	24.06
352.517	73.21
352.728	50.69
352.94	-41.47
353.152	42.5
353.363	79.36
353.575	58.88
353.787	97.79
353.999	46.59
354.21	101.89
354.422	50.69
354.633	34.3
354.845	1.54
355.057	-8.7
355.268	40.45
355.48	97.79
355.692	13.82
355.903	75.26
356.115	-39.42
356.326	7.68
356.538	93.69
356.749	24.06
356.961	95.74
357.172	17.92
357.384	50.69
357.595	38.4
357.807	17.92
358.018	-4.61
358.23	19.97
358.441	56.83
358.653	56.83
358.864	9.73
359.075	48.64
359.287	17.92
359.498	75.26
359.709	32.26
359.921	110.08
360.132	22.02
360.344	50.69
360.555	28.16
360.766	-0.51
360.977	77.31
361.189	118.27
361.4	13.82
361.611	89.6
361.823	97.79
362.034	24.06
362.245	65.02
362.456	85.5
362.667	73.21
362.879	75.26
363.09	97.79
363.301	17.92
363.512	15.87
363.723	-4.61
363.935	60.93
364.146	105.98
364.357	26.11
364.568	24.06
364.779	1.54
364.99	105.98
365.201	48.64
365.412	110.08
365.623	1.54
365.834	24.06
366.045	48.64
366.256	67.07
366.467	24.06
366.678	-14.85
366.889	44.54
367.1	48.64
367.311	73.21
367.522	42.5
367.733	67.07
367.944	44.54
368.155	56.83
368.366	67.07
368.577	17.92
368.788	24.06
368.999	7.68
369.209	110.08
369.42	161.28
369.631	75.26
369.842	40.45
370.053	40.45
370.264	50.69
370.474	28.16
370.685	-8.7
370.896	71.17
371.107	22.02
371.317	-0.51
371.528	46.59
371.739	44.54
371.95	15.87
372.16	120.32
372.371	34.3
372.582	7.68
372.792	40.45
373.003	132.61
373.214	48.64
373.424	67.07
373.635	-14.85
373.846	83.45
374.056	26.11
374.267	75.26
374.477	32.26
374.688	75.26
374.898	50.69
375.109	34.3
375.319	5.63
375.53	91.65
375.74	85.5
375.951	26.11
376.161	114.17
376.372	85.5
376.582	44.54
376.793	32.26
377.003	71.17
377.214	110.08
377.424	73.21
377.635	24.06
377.845	48.64
378.055	126.46
378.266	-41.47
378.476	-33.28
378.686	36.35
378.897	11.78
379.107	-6.66
379.317	52.74
379.528	40.45
379.738	114.17
379.948	83.45
380.158	73.21
380.369	5.63
380.579	24.06
380.789	110.08
380.999	122.37
381.21	62.98
381.42	120.32
381.63	77.31
381.84	91.65
382.05	50.69
382.261	93.69
382.471	52.74
382.681	19.97
382.891	60.93
383.101	36.35
383.311	60.93
383.521	67.07
383.731	101.89
383.941	89.6
384.151	48.64
384.361	42.5
384.571	83.45
384.781	58.88
384.991	38.4
385.201	114.17
385.411	75.26
385.621	-8.7
385.831	5.63
386.041	44.54
386.251	26.11
386.461	69.12
386.671	42.5
386.881	42.5
387.091	-25.09
387.301	128.51
387.511	56.83
387.72	32.26
387.93	56.83
388.14	9.73
388.35	58.88
388.56	128.51
388.769	77.31
388.979	3.58
389.189	19.97
389.399	65.02
389.609	97.79
389.818	101.89
390.028	28.16
390.238	91.65
390.447	24.06
390.657	118.27
390.867	73.21
391.076	-18.94
391.286	87.55
391.496	108.03
391.705	58.88
391.915	32.26
392.125	56.83
392.334	28.16
392.544	134.65
392.753	97.79
392.963	105.98
393.172	91.65
393.382	114.17
393.591	146.94
393.801	79.36
394.01	67.07
394.22	67.07
394.429	116.22
394.639	122.37
394.848	69.12
395.058	69.12
395.267	32.26
395.477	165.37
395.686	105.98
395.895	58.88
396.105	81.41
396.314	73.21
396.524	60.93
396.733	91.65
396.942	77.31
397.152	138.75
397.361	120.32
397.57	91.65
397.78	73.21
397.989	83.45
398.198	179.71
398.407	-6.66
398.617	75.26
398.826	83.45
399.035	85.5
399.244	132.61
399.453	65.02
399.663	142.85
399.872	122.37
400.081	138.75
400.29	126.46
400.499	60.93
400.708	196.09
400.917	7.68
401.127	130.56
401.336	24.06
401.545	253.44
401.754	83.45
401.963	97.79
402.172	136.7
402.381	65.02
402.59	118.27
402.799	171.52
403.008	130.56
403.217	157.18
403.426	116.22
403.635	161.28
403.844	105.98
404.053	128.51
404.262	48.64
404.471	169.47
404.68	124.41
404.888	179.71
405.097	161.28
405.306	165.37
405.515	202.24
405.724	130.56
405.933	138.75
406.142	200.19
406.35	232.96
406.559	232.96
406.768	124.41
406.977	140.8
407.185	239.1
407.394	165.37
407.603	155.13
407.812	214.52
408.02	212.48
408.229	192
408.438	198.14
408.646	204.28
408.855	288.25
409.064	269.82
409.272	327.16
409.481	278.01
409.69	214.52
409.898	335.35
410.107	294.4
410.315	425.47
410.524	318.97
410.733	384.51
410.941	372.22
411.15	368.12
411.358	392.7
411.567	466.42
411.775	437.75
411.984	396.79
412.192	318.97
412.401	474.62
412.609	484.86
412.818	525.82
413.026	566.78
413.234	542.2
413.443	534.01
413.651	529.91
413.86	593.4
414.068	622.07
414.276	638.45
414.485	642.55
414.693	767.48
414.901	769.52
415.11	736.76
415.318	800.24
415.526	691.7
415.734	814.58
415.943	843.25
416.151	888.31
416.359	916.98
416.567	1041.9
416.776	1011.18
416.984	992.75
417.192	1048.05
417.4	1031.66
417.608	976.37
417.817	1121.77
418.025	1170.93
418.233	1263.08
418.441	1162.73
418.649	1224.17
418.857	1367.53
419.065	1383.91
419.273	1291.76
419.481	1342.96
419.689	1539.56
419.897	1523.18
420.105	1545.7
420.313	1551.85
420.521	1727.97
420.729	1754.6
420.937	1715.69
421.145	1828.32
421.353	1828.32
421.561	1990.11
421.769	2035.17
421.977	2102.75
422.185	2180.57
422.393	2287.07
422.601	2325.98
422.809	2412
423.017	2354.65
423.224	2420.19
423.432	2594.26
423.64	2682.33
423.848	2739.67
424.056	2825.68
424.263	3007.95
424.471	2977.23
424.679	3175.89
424.887	3161.55
425.094	3222.99
425.302	3288.53
425.51	3235.28
425.718	3448.27
425.925	3638.73
426.133	3675.59
426.341	3927.49
426.548	4066.75
426.756	4097.47
426.964	4130.24
427.171	4357.57
427.379	4324.8
427.586	4595.13
427.794	4777.4
428.001	4849.08
428.209	5150.13
428.417	4971.96
428.624	5330.35
428.832	5365.17
429.039	5313.97
429.247	5449.13
429.454	5914.02
429.662	6157.73
429.869	5793.19
430.076	6165.92
430.284	6186.4
430.491	6364.57
430.699	6636.95
430.906	6755.74
431.114	6700.44
431.321	6981.01
431.528	7146.9
431.736	7611.79
431.943	7781.77
432.15	7601.55
432.358	7808.39
432.565	8088.96
432.772	8050.05
432.979	8625.53
433.187	8666.49
433.394	8711.55
433.601	9491.82
433.808	9274.74
434.016	9344.37
434.223	9799.02
434.43	10386.79
434.637	10235.24
434.844	10616.16
435.052	10837.34
435.259	10771.8
435.466	10931.55
435.673	10837.34
435.88	11535.7
436.087	11910.47
436.294	12182.85
436.501	11771.21
436.708	12242.25
436.915	12617.02
437.122	13188.41
437.329	13147.45
437.537	13571.38
437.743	13708.59
437.95	13806.89
438.157	14071.08
438.364	14759.2
438.571	14675.23
438.778	14953.76
438.985	16282.89
439.192	15648.02
439.399	15918.35
439.606	15621.39
439.813	16510.21
440.02	17693.94
440.227	17235.19
440.433	17394.93
440.64	17663.22
440.847	17775.86
441.054	18070.76
441.261	19117.28
441.467	18853.09
441.674	19033.31
441.881	20131.02
442.088	19887.31
442.294	19713.24
442.501	20475.08
442.708	20411.59
442.914	21449.91
443.121	22273.2
443.328	21824.69
443.534	23432.35
443.741	22600.87
443.948	22451.37
444.154	23850.13
444.361	24032.4
444.568	24009.87
444.774	24028.31
444.981	24398.99
445.187	24978.56
445.394	26109.04
445.6	25771.13
445.807	28374.1
446.013	27094.11
446.22	27333.73
446.426	28404.81
446.633	28544.08
446.839	30280.75
447.046	28337.23
447.252	30434.35
447.459	30297.14
447.665	30223.41
447.871	31452.19
448.078	32877.58
448.284	31110.18
448.491	32168.98
448.697	33491.97
448.903	34079.74
449.11	34657.26
449.316	33872.89
449.522	34300.92
449.728	34950.12
449.935	35410.92
450.141	35361.76
450.347	36099.03
450.553	35228.65
450.76	35535.84
450.966	36979.66
451.172	36166.62
451.378	37366.73
451.584	36377.56
451.791	37307.33
451.997	37469.12
452.203	38132.67
452.409	38038.46
452.615	38103.99
452.821	36588.5
453.027	36103.13
453.233	38228.92
453.44	36645.84
453.646	37219.27
453.852	37336.01
454.058	37866.43
454.264	36682.7
454.47	37882.81
454.676	36703.18
454.882	38245.3
455.088	34626.54
455.294	35099.62
455.5	35961.82
455.705	36324.31
455.911	34497.52
456.117	34610.16
456.323	33676.29
456.529	32089.11
456.735	33412.1
456.941	32418.83
457.147	32367.63
457.352	31214.63
457.558	31257.64
457.764	31005.73
457.97	30434.35
458.176	29996.09
458.381	29744.19
458.587	28259.41
458.793	28257.36
458.999	27155.55
459.204	28935.24
459.41	27921.49
459.616	26104.95
459.821	26506.35
460.027	25996.4
460.233	25316.48
460.438	24116.37
460.644	24964.23
460.85	23444.63
461.055	23215.26
461.261	23397.53
461.466	21484.73
461.672	21101.76
461.878	22281.39
462.083	20823.23
462.289	20335.82
462.494	19975.38
462.7	19377.37
462.905	18697.44
463.111	19725.52
463.316	19631.32
463.522	19082.46
463.727	18844.9
463.932	19016.93
464.138	18892
464.343	18701.54
464.549	18425.06
464.754	19254.49
464.959	18941.15
465.165	18488.55
465.37	18177.26
465.575	17491.19
465.781	18189.55
465.986	18324.71
466.191	17470.71
466.397	17130.75
466.602	16268.55
466.807	17024.25
467.012	17097.98
467.218	16850.17
467.423	16499.97
467.628	16860.41
467.833	17577.2
468.038	16960.77
468.244	16424.2
468.449	17028.35
468.654	16588.03
468.859	16329.99
469.064	16317.7
469.269	15758.61
469.474	15762.7
469.679	16442.63
469.885	15721.74
470.09	16139.53
470.295	15762.7
470.5	15373.59
470.705	15699.22
470.91	15222.04
471.115	15086.87
471.32	15199.51
471.525	15269.14
471.73	14791.97
471.935	14947.61
472.139	14378.28
472.344	14365.99
472.549	14212.39
472.754	14220.58
472.959	13892.91
473.164	13630.77
473.369	13458.74
473.574	13913.39
473.778	13833.52
473.983	13618.48
474.188	13579.57
474.393	13012.28
474.598	13251.89
474.802	12830.01
475.007	12907.84
475.212	12748.09
475.417	12406.08
475.621	12598.59
475.826	12475.71
476.031	12324.16
476.235	12062.02
476.44	12252.49
476.645	12074.31
476.849	12035.4
477.054	11603.28
477.259	11605.33
477.463	11543.89
477.668	11486.54
477.872	11431.25
478.077	11378
478.282	10947.93
478.486	10986.84
478.691	10782.04
478.895	10739.04
479.1	10913.11
479.304	10689.88
479.509	10427.74
479.713	10519.9
479.918	10411.36
480.122	10173.8
480.326	10446.18
480.531	10589.53
480.735	10280.29
480.94	10181.99
481.144	10505.57
481.348	9987.43
481.553	10044.77
481.757	9856.36
481.961	10040.68
482.166	9989.48
482.37	10106.21
482.574	9909.61
482.778	10104.17
482.983	10102.12
483.187	9911.66
483.391	10108.26
483.595	10100.07
483.8	10042.73
484.004	10057.06
484.208	10022.25
484.412	9987.43
484.616	9987.43
484.821	10085.73
485.025	9696.62
485.229	10048.87
485.433	9788.78
485.637	9966.95
485.841	9803.11
486.045	9823.59
486.249	9954.66
486.453	9780.59
486.657	10052.97
486.861	10036.58
487.065	9794.92
487.269	9971.05
487.473	9831.79
487.677	9887.08
487.881	9944.42
488.085	9848.17
488.289	10028.39
488.493	10024.3
488.697	10075.49
488.901	9993.58
489.105	9993.58
489.309	10108.26
489.512	10009.96
489.716	10044.77
489.92	10067.3
490.124	10214.76
490.328	10274.15
490.531	10257.76
490.735	10218.85
490.939	10329.44
491.143	10306.91
491.346	9960.81
491.55	10444.13
491.754	10356.07
491.958	10521.95
492.161	10354.02
492.365	10425.7
492.569	10634.59
492.772	10650.97
492.976	10513.76
493.18	10765.66
493.383	10702.17
493.587	10669.41
493.79	10741.08
493.994	10734.94
494.197	11134.29
494.401	10980.7
494.605	11201.88
494.808	11208.02
495.012	11248.98
495.215	11232.6
495.419	11521.36
495.622	11312.47
495.825	11601.23
496.029	11576.66
496.232	12002.63
496.436	11760.97
496.639	12016.97
496.843	12145.99
497.046	12381.51
497.249	12283.2
497.453	12580.16
497.656	12569.92
497.859	12651.84
498.063	12465.47
498.266	13116.73
498.469	12911.93
498.673	13116.73
498.876	13272.37
499.079	13585.71
499.282	13405.49
499.485	13794.61
499.689	13841.71
499.892	14042.41
500.095	14163.24
500.298	14486.82
500.501	14306.6
500.705	14675.23
500.908	15156.5
501.111	15004.96
501.314	15131.93
501.517	15164.7
501.72	15650.07
501.923	15519
502.126	15938.83
502.329	16088.33
502.532	16129.29
502.735	16182.54
502.938	16850.17
503.141	16694.53
503.344	17042.68
503.547	17081.6
503.75	17272.06
503.953	17521.91
504.156	17413.37
504.359	17624.31
504.562	17956.08
504.765	18324.71
504.968	18486.5
505.17	18498.79
505.373	18752.74
505.576	18922.72
505.779	19195.1
505.982	19004.64
506.185	20069.58
506.387	19664.08
506.59	20002
506.793	20575.43
506.996	20159.69
507.198	20849.86
507.401	20786.37
507.604	20995.26
507.807	21421.24
508.009	21513.4
508.212	21685.43
508.415	22060.21
508.617	22404.27
508.82	22453.42
509.022	22779.04
509.225	23010.46
509.428	23186.59
509.63	23469.21
509.833	23473.31
510.035	23938.19
510.238	23743.64
510.44	24147.09
510.643	24630.41
510.845	24687.75
511.048	24827.01
511.25	25347.2
511.453	25304.19
511.655	26135.67
511.858	25609.34
512.06	26047.6
512.262	26545.26
512.465	26801.26
512.667	27051.11
512.87	27008.1
513.072	27485.28
513.274	27636.83
513.477	27935.83
513.679	28200.02
513.881	28701.77
514.084	28730.44
514.286	28537.93
514.488	28847.18
514.69	29656.12
514.893	29803.58
515.095	29713.47
515.297	30370.86
515.499	30340.15
515.701	30669.87
515.904	31157.28
516.106	31470.62
516.308	31495.2
516.51	32152.6
516.712	31806.49
516.914	32461.84
517.116	32963.59
517.318	33029.13
517.52	33221.64
517.722	33481.73
517.925	33410.05
518.127	34063.35
518.329	34221.05
518.531	34196.47
518.733	34724.85
518.935	35253.22
519.136	35361.76
519.338	35832.8
519.54	35959.77
519.742	36172.76
519.944	36344.79
520.146	36903.88
520.348	36668.37
520.55	36848.59
520.752	37415.88
520.954	37964.73
521.155	37405.64
521.357	38220.73
521.559	38435.77
521.761	39357.35
521.963	39179.18
522.164	39422.89
522.366	39130.03
522.568	39467.94
522.77	40063.9
522.971	40430.49
523.173	39873.44
523.375	40700.82
523.576	40741.78
523.778	40547.22
523.98	41382.79
524.181	41403.27
524.383	41290.63
524.584	41962.37
524.786	41939.84
524.988	41585.54
525.189	42314.62
525.391	42228.6
525.592	42820.47
525.794	42916.72
525.995	43203.44
526.197	42869.62
526.398	43023.22
526.6	43674.47
526.801	43805.54
527.003	43803.49
527.204	43805.54
527.406	44276.57
527.607	43993.95
527.808	44344.16
528.01	43776.87
528.211	44319.58
528.412	45306.7
528.614	44911.44
528.815	44911.44
529.016	45405
529.218	44864.34
529.419	45452.11
529.62	45345.61
529.822	45583.18
530.023	45230.93
530.224	45542.22
530.425	45525.83
530.626	45108.05
530.828	44995.41
531.029	46005.06
531.23	45491.02
531.431	45466.44
531.632	45790.02
531.833	45962.05
532.035	46007.11
532.236	45456.2
532.437	46220.09
532.638	45806.41
532.839	46220.09
533.04	46236.48
533.241	45370.19
533.442	46719.8
533.643	46111.55
533.844	45996.87
534.045	46504.76
534.246	45919.04
534.447	46246.72
534.648	46142.27
534.849	46148.42
535.05	45941.57
535.251	46220.09
535.451	45960
535.652	46703.42
535.853	46369.6
536.054	46250.81
536.255	46582.59
536.456	45830.98
536.657	46486.33
536.857	46392.12
537.058	45714.25
537.259	46259.01
537.46	46086.98
537.66	46304.06
537.861	46347.07
538.062	46324.54
538.263	46658.36
538.463	46261.05
538.664	46287.68
538.865	46119.74
539.065	46465.85
539.266	45732.68
539.466	46502.71
539.667	45790.02
539.868	46490.43
540.068	45960
540.269	45785.93
540.469	46355.26
540.67	45806.41
540.87	46197.57
541.071	45939.52
541.271	46328.64
541.472	46062.4
541.672	45849.41
541.873	46127.94
542.073	45515.59
542.274	46297.92
542.474	45974.34
542.675	45507.4
542.875	46125.89
543.075	46191.42
543.276	45652.81
543.476	46013.25
543.676	45759.3
543.877	46023.49
544.077	45665.1
544.277	45814.6
544.478	45957.95
544.678	46017.35
544.878	45716.29
545.078	45681.48
545.279	45742.92
545.479	45642.57
545.679	46031.68
545.879	45804.36
546.079	45884.23
546.28	45644.62
546.48	45581.13
546.68	45632.33
546.88	46113.6
547.08	46043.97
547.28	45691.72
547.48	45075.28
547.68	45947.71
547.88	45206.35
548.081	45785.93
548.281	45593.42
548.481	45230.93
548.681	45267.79
548.881	45339.47
549.081	45548.36
549.28	45364.04
549.48	45663.05
549.68	45429.58
549.88	45716.29
550.08	45167.44
550.28	45486.92
550.48	45355.85
550.68	45929.28
550.88	45714.25
551.08	45036.37
551.279	45312.84
551.479	45069.14
551.679	45175.63
551.879	45169.49
552.079	45214.54
552.278	45364.04
552.478	45079.38
552.678	45224.78
552.878	45388.62
553.077	45204.3
553.277	44782.42
553.477	45228.88
553.676	45185.87
553.876	45177.68
554.076	44759.89
554.275	44602.2
554.475	44684.12
554.674	44876.63
554.874	45405
555.074	44495.71
555.273	44610.39
555.473	44993.36
555.672	44170.08
555.872	44784.47
556.071	45011.79
556.271	44841.81
556.47	44669.78
556.67	44233.57
556.869	44258.14
557.068	44675.93
557.268	44524.38
557.467	44243.8
557.667	44747.61
557.866	44237.66
558.065	44239.71
558.265	44381.02
558.464	44063.58
558.663	44501.85
558.863	44018.53
559.062	44589.91
559.261	43586.41
559.461	44708.69
559.66	43500.39
559.859	43701.09
560.058	43909.99
560.258	43889.51
560.457	43332.46
560.656	43813.73
560.855	43486.06
561.054	43600.74
561.253	43328.36
561.453	43684.71
561.652	43733.86
561.851	43856.74
562.05	43309.93
562.249	43217.77
562.448	43584.36
562.647	42875.76
562.846	43359.08
563.045	43412.33
563.244	42611.57
563.443	42994.54
563.642	42185.6
563.841	42689.4
564.04	42507.13
564.239	43281.26
564.438	42425.21
564.637	42779.51
564.836	42683.25
565.035	42156.92
565.234	42634.1
565.432	42156.92
565.631	42167.16
565.83	42617.72
566.029	42281.85
566.228	42046.33
566.427	41886.59
566.625	41644.93
566.824	41522.05
567.023	41683.84
567.222	41364.36
567.42	41810.82
567.619	41624.45
567.818	41390.98
568.016	41399.18
568.215	41577.35
568.414	41024.4
568.612	41587.59
568.811	40987.53
569.01	41339.79
569.208	40631.19
569.407	40956.82
569.605	40846.22
569.804	41087.89
570.002	40520.6
570.201	40883.09
570.4	40633.24
570.598	40264.6
570.797	40188.83
570.995	39953.31
571.193	40356.76
571.392	40526.74
571.59	40119.2
571.789	40151.96
571.987	39910.3
572.186	39920.54
572.384	39834.53
572.582	39803.81
572.781	39971.74
572.979	39138.22
573.177	39695.27
573.376	39367.59
573.574	38988.72
573.772	39381.93
573.971	39060.4
574.169	38917.04
574.367	38593.46
574.565	39099.31
574.763	38677.43
574.962	38417.33
575.16	38054.84
575.358	38523.83
575.556	38185.91
575.754	38704.05
575.952	37690.3
576.151	38075.32
576.349	37815.23
576.547	37520.32
576.745	38089.66
576.943	38577.08
577.141	37512.13
577.339	37592
577.537	37628.87
577.735	37450.69
577.933	37194.7
578.131	37133.26
578.329	37309.38
578.527	36887.5
578.725	37065.67
578.923	36864.97
579.121	36670.42
579.319	36623.31
579.516	36416.47
579.714	36549.59
579.912	36449.24
580.11	36414.42
580.308	36236.25
580.506	36459.48
580.704	35312.61
580.901	36174.81
581.099	36228.06
581.297	35689.44
581.495	35881.95
581.692	35650.53
581.89	35591.14
582.088	36117.46
582.285	35247.08
582.483	35816.41
582.681	35173.35
582.878	35486.69
583.076	35240.93
583.274	35339.24
583.471	34765.81
583.669	34812.91
583.866	34694.13
584.064	34821.1
584.262	34479.09
584.459	34739.18
584.657	34677.74
584.854	34454.51
585.052	34298.87
585.249	34272.25
585.447	34085.88
585.644	33938.43
585.841	34038.78
586.039	34020.34
586.236	33680.38
586.434	33504.26
586.631	33188.87
586.828	33272.84
587.026	33629.18
587.223	33401.86
587.42	33295.36
587.618	33270.79
587.815	33057.8
588.012	32799.76
588.21	33010.7
588.407	33051.66
588.604	32498.7
588.801	32273.43
588.999	32377.87
589.196	32455.7
589.393	32314.39
589.59	32252.95
589.787	32117.78
589.984	31872.03
590.182	31906.84
590.379	31796.25
590.576	31335.46
590.773	31667.23
590.97	31593.5
591.167	31663.13
591.364	31108.13
591.561	31591.45
591.758	31073.32
591.955	30733.36
592.152	31491.1
592.349	31263.78
592.546	30934.06
592.743	31063.08
592.94	30813.23
593.137	30794.79
593.334	30845.99
593.531	29932.6
593.727	30645.29
593.924	30213.17
594.121	30045.24
594.318	30448.69
594.515	29985.85
594.712	30063.67
594.908	30018.61
595.105	30422.06
595.302	29914.17
595.499	29668.41
595.696	29809.72
595.892	29279.3
596.089	29754.43
596.286	29617.21
596.482	29484.09
596.679	29299.78
596.876	29281.35
597.072	28984.39
597.269	29099.08
597.466	28761.16
597.662	28939.33
597.859	28630.09
598.055	28927.05
598.252	28492.88
598.448	28404.81
598.645	28345.42
598.841	27903.06
599.038	28462.16
599.234	28281.94
599.431	27874.39
599.627	27718.75
599.824	28046.42
600.02	28058.71
600.217	27800.66
600.413	27513.95
600.609	27491.42
600.806	27550.81
601.002	27452.51
601.198	27356.25
601.395	26975.33
601.591	27268.19
601.787	27278.43
601.984	26666.09
602.18	27004
602.376	27065.44
602.572	26707.05
602.769	26707.05
602.965	26633.32
603.161	26823.78
603.357	26348.65
603.553	26360.94
603.75	26193.01
603.946	26219.63
604.142	26444.91
604.338	25754.74
604.534	25992.31
604.73	25701.5
604.926	25599.1
605.122	25773.17
605.318	25582.71
605.514	25611.39
605.71	25306.24
605.906	25588.86
606.102	25674.87
606.298	25345.15
606.494	25238.65
606.69	25224.32
606.886	25142.4
607.082	25005.19
607.278	25189.5
607.474	24812.68
607.67	24853.64
607.866	24444.04
608.062	24870.02
608.257	24679.56
608.453	24925.32
608.649	24829.06
608.845	24405.13
609.041	24546.44
609.236	24872.07
609.432	24204.43
609.628	24595.59
609.824	24235.15
610.019	23823.51
610.215	24167.57
610.411	24323.21
610.606	24056.98
610.802	24048.79
610.998	24007.83
611.193	24024.21
611.389	23733.4
611.584	23561.37
611.78	23510.17
611.976	23653.53
612.171	23753.88
612.367	23610.52
612.562	23647.38
612.758	23020.7
612.953	23452.83
613.149	23514.27
613.344	23112.86
613.539	23391.39
613.735	23026.85
613.93	23344.28
614.126	23348.38
614.321	23383.2
614.517	23202.97
614.712	23270.56
614.907	22809.76
615.103	22838.44
615.298	22848.68
615.493	22889.63
615.688	22490.28
615.884	23307.42
616.079	22582.44
616.274	22758.56
616.47	22549.67
616.665	22662.31
616.86	22396.07
617.055	22545.58
617.25	22115.5
617.445	22707.37
617.641	22101.17
617.836	22461.61
618.031	21974.19
618.226	22308.01
618.421	21996.72
618.616	22267.05
618.811	21716.15
619.006	21927.09
619.201	21707.96
619.396	21879.99
619.591	21529.78
619.786	21544.12
619.981	21155.01
620.176	21458.1
620.371	21171.39
620.566	21247.16
620.761	21089.47
620.956	21322.94
621.151	20978.88
621.346	20856
621.541	20542.66
621.735	20700.36
621.93	20407.5
622.125	20358.35
622.32	20143.31
622.515	20264.14
622.709	19758.29
622.904	19805.39
623.099	19823.83
623.294	20002
623.488	19545.3
623.683	19365.08
623.878	19125.47
624.072	19543.25
624.267	19324.12
624.462	19104.99
624.656	19162.33
624.851	19066.08
625.046	18805.99
625.24	18881.76
625.435	18660.58
625.629	18599.14
625.824	18480.36
626.018	18474.21
626.213	17915.12
626.407	18078.96
626.602	17851.63
626.796	18091.24
626.991	18054.38
627.185	17812.72
627.38	17818.86
627.574	17683.7
627.768	17462.52
627.963	17405.17
628.157	17100.03
628.352	17351.93
628.546	17069.31
628.74	17394.93
628.935	17073.4
629.129	16864.51
629.323	16540.93
629.517	16833.79
629.712	16805.12
629.906	16545.03
630.1	16117
630.294	16532.74
630.489	16131.34
630.683	16452.87
630.877	15990.03
631.071	15838.48
631.265	15981.84
631.459	15832.33
631.653	15721.74
631.848	15793.42
632.042	15867.15
632.236	15664.4
632.43	15381.78
632.624	15600.91
632.818	15246.62
633.012	15107.35
633.206	15131.93
633.4	15539.47
633.594	14664.99
633.788	14830.88
633.982	14867.74
634.176	14951.71
634.369	14630.18
634.563	14619.94
634.757	14511.39
634.951	14619.94
635.145	14384.42
635.339	14294.31
635.533	14318.89
635.726	14331.17
635.92	13870.38
636.114	13940.01
636.308	13997.35
636.501	14007.59
636.695	13827.37
636.889	13589.81
637.083	13544.75
637.276	13653.3
637.47	13331.76
637.664	13466.93
637.857	13532.47
638.051	13374.77
638.244	12956.99
638.438	13225.27
638.632	13053.24
638.825	13071.67
639.019	13004.09
639.212	12803.39
639.406	12838.2
639.599	12756.29
639.793	12705.09
639.986	12447.04
640.18	12565.82
640.373	12541.25
640.567	12295.49
640.76	12287.3
640.954	12225.86
641.147	12148.04
641.34	12025.16
641.534	12207.43
641.727	11859.28
641.92	12059.98
642.114	11859.28
642.307	11664.72
642.5	11586.9
642.694	11519.31
642.887	11550.03
643.08	11730.25
643.273	11459.92
643.467	11468.11
643.66	11394.39
643.853	11277.65
644.046	11203.93
644.239	11183.45
644.432	11062.62
644.626	11105.62
644.819	10988.89
645.012	11048.28
645.205	10814.81
645.398	10952.02
645.591	10681.69
645.784	10704.22
645.977	10460.51
646.17	10745.18
646.363	10515.81
646.556	10466.66
646.749	10448.22
646.942	10349.92
647.135	10362.21
647.328	10362.21
647.521	10397.03
647.714	10093.93
647.907	10091.88
648.099	9952.62
648.292	10151.27
648.485	9821.55
648.678	9942.38
648.871	9833.83
649.064	9747.82
649.256	9766.25
649.449	9772.39
649.642	9522.54
649.835	9436.53
650.027	9471.34
650.22	9295.22
650.413	9508.21
650.605	9506.16
650.798	9258.35
650.991	9481.58
651.183	9233.78
651.376	9172.34
651.568	9129.33
651.761	9266.55
651.954	9028.98
652.146	9022.84
652.339	8754.55
652.531	8906.1
652.724	8848.76
652.916	8721.79
653.109	8596.86
653.301	8678.78
653.494	8490.37
653.686	8234.37
653.879	8756.6
654.071	8631.68
654.263	8396.16
654.456	8490.37
654.648	8461.69
654.84	8222.08
655.033	8387.97
655.225	8160.64
655.417	8185.22
655.61	8080.77
655.802	8093.06
655.994	8166.79
656.186	7843.21
656.379	7945.61
656.571	7857.54
656.763	7880.07
656.955	7710.09
657.148	7640.46
657.34	7638.41
657.532	7529.87
657.724	7585.16
657.916	7622.03
658.108	7560.59
658.3	7411.09
658.492	7560.59
658.684	7275.92
658.876	7495.05
659.068	7366.03
659.26	7290.26
659.452	7396.75
659.644	7267.73
659.836	7114.13
660.028	7191.95
660.22	7036.31
660.412	7067.03
660.604	6958.49
660.796	6987.16
660.988	6712.73
661.18	6737.31
661.372	6823.32
661.563	6733.21
661.755	6708.63
661.947	6786.46
662.139	6788.5
662.331	6596
662.522	6524.32
662.714	6598.04
662.906	6626.71
663.097	6436.25
663.289	6614.43
663.481	6585.76
663.673	6438.3
663.864	6276.51
664.056	6452.64
664.247	6354.34
664.439	6102.43
664.631	6245.79
664.822	6182.31
665.014	6127.01
665.205	6063.52
665.397	6077.86
665.588	6055.33
665.78	5975.46
665.971	5948.84
666.163	5954.98
666.354	5844.39
666.546	5930.41
666.737	5764.52
666.929	5746.09
667.12	5875.11
667.311	5701.03
667.503	5741.99
667.694	5764.52
667.885	5563.82
668.077	5610.92
668.268	5598.63
668.459	5664.17
668.651	5498.28
668.842	5492.14
669.033	5408.17
669.224	5481.9
669.416	5438.89
669.607	5320.11
669.798	5393.84
669.989	5473.71
670.18	5447.08
670.371	5316.01
670.563	5236.14
670.754	5195.18
670.945	5152.18
671.136	5205.42
671.327	5137.84
671.518	5209.52
671.709	5154.23
671.9	5209.52
672.091	5127.6
672.282	5176.75
672.473	5143.99
672.664	5060.02
672.855	4826.55
673.046	4998.58
673.237	4976.05
673.428	4924.85
673.619	4877.75
673.809	4916.66
674	4664.76
674.191	4849.08
674.382	4629.95
674.573	4869.56
674.764	4724.15
674.954	4799.93
675.145	4668.86
675.336	4545.98
675.527	4699.58
675.717	4832.69
675.908	4797.88
676.099	4414.91
676.289	4574.65
676.48	4580.79
676.671	4490.68
676.861	4439.48
677.052	4642.23
677.243	4484.54
677.433	4451.77
677.624	4488.64
677.814	4449.72
678.005	4416.96
678.195	4595.13
678.386	4425.15
678.576	4316.61
678.767	4373.95
678.957	4414.91
679.148	4398.52
679.338	4310.46
679.529	4189.63
679.719	4361.66
679.909	4193.73
680.1	4277.69
680.29	4308.41
680.481	4228.54
680.671	4148.67
680.861	4019.65
681.052	4228.54
681.242	4105.67
681.432	4169.15
681.622	4023.75
681.813	4263.36
682.003	4079.04
682.193	4052.42
682.383	4160.96
682.573	4242.88
682.764	4025.79
682.954	4076.99
683.144	4079.04
683.334	4074.95
683.524	4117.95
683.714	4079.04
683.904	3857.86
684.094	4013.51
684.284	3980.74
684.474	4109.76
684.664	3777.99
684.854	3884.48
685.044	3972.55
685.234	3972.55
685.424	3816.9
685.614	3827.14
685.804	3884.48
685.994	3792.33
686.184	3751.37
686.374	3892.68
686.564	3786.18
686.753	3841.48
686.943	3599.82
687.133	3745.22
687.323	3945.92
687.513	3706.31
687.702	3648.97
687.892	3605.96
688.082	3591.63
688.272	3698.12
688.461	3587.53
688.651	3610.06
688.841	3560.91
689.03	3538.38
689.22	3440.08
689.41	3476.94
689.599	3470.8
689.789	3562.95
689.979	3536.33
690.168	3491.27
690.358	3448.27
690.547	3513.8
690.737	3433.93
690.926	3458.51
691.116	3356.11
691.305	3501.51
691.495	3384.78
691.684	3366.35
691.874	3460.56
692.063	3337.68
692.252	3284.43
692.442	3444.17
692.631	3292.62
692.82	3296.72
693.01	3225.04
693.199	3194.32
693.388	3309.01
693.578	3182.03
693.767	3325.39
693.956	3218.89
694.146	3360.2
694.335	3145.17
694.524	3132.88
694.713	3204.56
694.902	3227.09
695.092	3132.88
695.281	3206.61
695.47	3200.46
695.659	3042.77
695.848	3212.75
696.037	3063.25
696.226	3141.07
696.415	2973.14
696.604	3188.18
696.793	2893.27
696.982	2883.03
697.171	3055.06
697.36	3014.1
697.549	2962.9
697.738	2911.7
697.927	2993.62
698.116	2973.14
698.305	2948.56
698.494	2956.75
698.683	2874.84
698.872	2993.62
699.061	2915.8
699.25	2852.31
699.438	2827.73
699.627	2874.84
699.816	2850.26
700.005	2776.53
700.193	2711
700.382	2833.88
700.571	2809.3
700.76	2844.12
700.948	2846.16
701.137	2735.57
701.326	2770.39
701.514	2727.38
701.703	2794.97
701.892	2811.35
702.08	2868.69
702.269	2692.57
702.457	2770.39
702.646	2835.92
702.834	2825.68
703.023	2702.81
703.212	2801.11
703.4	2610.65
703.589	2645.46
703.777	2756.05
703.965	2661.85
704.154	2680.28
704.342	2657.75
704.531	2751.96
704.719	2715.09
704.907	2702.81
705.096	2696.66
705.284	2557.4
705.472	2579.93
705.661	2639.32
705.849	2649.56
706.037	2622.94
706.226	2629.08
706.414	2461.15
706.602	2569.69
706.79	2647.51
706.979	2633.18
707.167	2557.4
707.355	2655.7
707.543	2600.41
707.731	2629.08
707.919	2563.54
708.107	2508.25
708.296	2483.67
708.484	2483.67
708.672	2493.91
708.86	2581.98
709.048	2588.12
709.236	2528.73
709.424	2471.39
709.612	2489.82
709.8	2438.62
709.988	2491.87
710.176	2459.1
710.364	2528.73
710.551	2389.47
710.739	2506.2
710.927	2436.57
711.115	2561.5
711.303	2407.9
711.491	2358.75
711.679	2434.52
711.866	2401.76
712.054	2409.95
712.242	2399.71
712.43	2368.99
712.617	2440.67
712.805	2387.42
712.993	2352.6
713.181	2328.03
713.368	2393.56
713.556	2358.75
713.744	2409.95
713.931	2467.29
714.119	2346.46
714.306	2426.33
714.494	2385.37
714.682	2407.9
714.869	2278.88
715.057	2395.61
715.244	2358.75
715.432	2356.7
715.619	2364.89
715.807	2336.22
715.994	2346.46
716.182	2428.38
716.369	2354.65
716.556	2399.71
716.744	2219.49
716.931	2328.03
717.119	2307.55
717.306	2346.46
717.493	2311.64
717.681	2420.19
717.868	2401.76
718.055	2311.64
718.242	2190.81
718.43	2260.45
718.617	2325.98
718.804	2469.34
718.991	2221.53
719.179	2295.26
719.366	2209.25
719.553	2289.12
719.74	2274.78
719.927	2291.17
720.114	2352.6
720.301	2399.71
720.488	2172.38
720.676	2280.93
720.863	2262.49
721.05	2358.75
721.237	2246.11
721.424	2303.45
721.611	2201.05
721.798	2108.9
721.985	2088.42
722.172	2186.72
722.358	2186.72
722.545	2334.17
722.732	2088.42
722.919	2153.95
723.106	2158.05
723.293	2190.81
723.48	2227.68
723.667	2125.28
723.853	1992.16
724.04	2280.93
724.227	2315.74
724.414	2223.58
724.6	2178.53
724.787	2264.54
724.974	2211.29
725.161	2096.61
725.347	2018.79
725.534	2162.14
725.72	2156
725.907	2129.38
726.094	2229.73
726.28	2039.26
726.467	2098.66
726.653	2121.18
726.84	2090.46
727.027	2123.23
727.213	2098.66
727.4	2133.47
727.586	2207.2
727.773	2125.28
727.959	2199.01
728.145	2176.48
728.332	2194.91
728.518	2029.03
728.705	2237.92
728.891	2067.94
729.077	2119.14
729.264	2088.42
729.45	2094.56
729.636	2096.61
729.823	1994.21
730.009	2160.1
730.195	2049.5
730.382	2149.86
730.568	2137.57
730.754	2080.22
730.94	2088.42
731.126	2168.29
731.313	2151.9
731.499	2039.26
731.685	2125.28
731.871	2072.03
732.057	2022.88
732.243	2108.9
732.429	1990.11
732.615	2168.29
732.801	1998.31
732.987	2063.84
733.173	2039.26
733.359	2055.65
733.545	1986.02
733.731	2059.74
733.917	2000.35
734.103	2106.85
734.289	2067.94
734.475	1967.59
734.661	2045.41
734.847	1986.02
735.033	2033.12
735.219	2055.65
735.404	1981.92
735.59	1936.87
735.776	2000.35
735.962	1943.01
736.148	1998.31
736.333	2022.88
736.519	2035.17
736.705	1949.15
736.89	1965.54
737.076	1940.96
737.262	2010.59
737.447	2006.5
737.633	1969.63
737.819	2104.8
738.004	2000.35
738.19	1885.67
738.375	1895.91
738.561	2065.89
738.747	1973.73
738.932	1797.6
739.118	1924.58
739.303	1893.86
739.489	1900
739.674	2004.45
739.859	1842.66
740.045	1871.33
740.23	1951.2
740.416	1809.89
740.601	1891.81
740.786	1891.81
740.972	1838.56
741.157	1910.24
741.342	1824.23
741.528	1813.99
741.713	1900
741.898	1813.99
742.084	1830.37
742.269	1766.89
742.454	1836.52
742.639	1842.66
742.824	1746.41
743.01	1713.64
743.195	1762.79
743.38	1762.79
743.565	1750.5
743.75	1824.23
743.935	1605.1
744.12	1711.59
744.305	1699.3
744.49	1748.45
744.675	1699.3
744.86	1658.34
745.045	1787.36
745.23	1711.59
745.415	1711.59
745.6	1779.17
745.785	1689.06
745.97	1670.63
746.155	1732.07
746.34	1656.29
746.525	1568.23
746.71	1689.06
746.895	1605.1
747.079	1615.34
747.264	1637.86
747.449	1703.4
747.634	1555.94
747.819	1514.98
748.003	1549.8
748.188	1494.51
748.373	1539.56
748.557	1574.38
748.742	1478.12
748.927	1539.56
749.111	1572.33
749.296	1521.13
749.481	1359.34
749.665	1496.55
749.85	1465.83
750.034	1500.65
750.219	1445.35
750.404	1398.25
750.588	1547.75
750.773	1412.59
750.957	1486.31
751.141	1467.88
751.326	1476.07
751.51	1383.91
751.695	1492.46
751.879	1330.67
752.064	1369.58
752.248	1394.15
752.432	1375.72
752.617	1306.09
752.801	1406.44
752.985	1359.34
753.17	1334.76
753.354	1293.8
753.538	1324.52
753.722	1201.65
753.907	1289.71
754.091	1220.08
754.275	1320.43
754.459	1238.51
754.643	1179.12
754.828	1328.62
755.012	1246.7
755.196	1218.03
755.38	1310.19
755.564	1203.69
755.748	1224.17
755.932	1310.19
756.116	1166.83
756.3	1263.08
756.484	1215.98
756.668	1160.69
756.852	1138.16
757.036	1105.39
757.22	1134.06
757.404	1203.69
757.588	1164.78
757.772	1129.97
757.956	1140.21
758.14	1164.78
758.323	1113.58
758.507	1093.1
758.691	1175.02
758.875	1170.93
759.059	1080.82
759.242	1072.62
759.426	1000.94
759.61	994.8
759.794	978.42
759.977	986.61
760.161	1072.62
760.345	1048.05
760.528	1009.14
760.712	1068.53
760.895	1037.81
761.079	1091.06
761.263	1015.28
761.446	871.92
761.63	949.75
761.813	1007.09
761.997	933.36
762.18	1080.82
762.364	986.61
762.547	884.21
762.731	951.79
762.914	880.11
763.098	908.79
763.281	947.7
763.464	976.37
763.648	904.69
763.831	916.98
764.015	964.08
764.198	972.27
764.381	921.07
764.564	933.36
764.748	982.51
764.931	990.7
765.114	857.59
765.297	878.07
765.481	802.29
765.664	878.07
765.847	880.11
766.03	970.23
766.213	892.4
766.397	826.87
766.58	826.87
766.763	904.69
766.946	769.52
767.129	896.5
767.312	847.35
767.495	869.87
767.678	800.24
767.861	851.44
768.044	896.5
768.227	876.02
768.41	843.25
768.593	845.3
768.776	828.92
768.959	878.07
769.142	863.73
769.324	781.81
769.507	830.96
769.69	859.63
769.873	755.19
770.056	900.59
770.239	749.04
770.421	771.57
770.604	880.11
770.787	804.34
770.97	781.81
771.152	785.91
771.335	894.45
771.518	749.04
771.7	835.06
771.883	843.25
772.066	787.96
772.248	837.11
772.431	738.8
772.613	779.76
772.796	833.01
772.978	724.47
773.161	892.4
773.343	794.1
773.526	720.37
773.708	718.33
773.891	728.56
774.073	740.85
774.256	757.24
774.438	773.62
774.621	654.84
774.803	761.33
774.985	747
775.168	695.8
775.35	660.98
775.532	726.52
775.715	720.37
775.897	609.78
776.079	681.46
776.261	701.94
776.444	622.07
776.626	630.26
776.808	691.7
776.99	615.93
777.173	609.78
777.355	636.41
777.537	589.3
777.719	650.74
777.901	667.13
778.083	652.79
778.265	632.31
778.447	626.17
778.629	589.3
778.811	556.54
778.993	486.9
779.175	544.25
779.357	601.59
779.539	521.72
779.721	501.24
779.903	589.3
780.085	626.17
780.267	665.08
780.449	564.73
780.631	617.97
780.812	579.06
780.994	531.96
781.176	658.93
781.358	544.25
781.54	556.54
781.721	521.72
781.903	572.92
782.085	501.24
782.267	441.85
782.448	450.04
782.63	572.92
782.812	488.95
782.993	491
783.175	474.62
783.357	499.19
783.538	556.54
783.72	474.62
783.901	515.58
784.083	499.19
784.264	484.86
784.446	499.19
784.627	499.19
784.809	503.29
784.99	437.75
785.172	480.76
785.353	491
785.535	392.7
785.716	376.31
785.897	386.55
786.079	400.89
786.26	427.51
786.441	404.99
786.623	415.23
786.804	402.94
786.985	460.28
787.167	439.8
787.348	382.46
787.529	384.51
787.71	443.9
787.891	417.27
788.073	318.97
788.254	302.59
788.435	380.41
788.616	380.41
788.797	376.31
788.978	376.31
789.159	384.51
789.34	366.07
789.522	312.83
789.703	372.22
789.884	323.07
790.065	386.55
790.246	398.84
790.427	357.88
790.607	361.98
790.788	384.51
790.969	392.7
791.15	353.79
791.331	302.59
791.512	292.35
791.693	368.12
791.874	318.97
792.054	380.41
792.235	370.17
792.416	286.2
792.597	259.58
792.778	388.6
792.958	372.22
793.139	353.79
793.32	329.21
793.5	310.78
793.681	318.97
793.862	269.82
794.042	278.01
794.223	261.63
794.404	349.69
794.584	206.33
794.765	302.59
794.945	273.92
795.126	359.93
795.306	282.11
795.487	310.78
795.667	302.59
795.848	386.55
796.028	290.3
796.209	269.82
796.389	318.97
796.57	298.49
796.75	341.5
796.93	292.35
797.111	251.39
797.291	247.29
797.471	261.63
797.652	265.72
797.832	247.29
798.012	228.86
798.192	241.15
798.373	226.81
798.553	265.72
798.733	187.9
798.913	230.91
799.093	257.53
799.274	232.96
799.454	237.05
799.634	318.97
799.814	232.96
799.994	275.96
800.174	304.64
800.354	245.24
800.534	165.37
800.714	222.72
800.894	247.29
801.074	208.38
801.254	261.63
801.434	257.53
801.614	271.87
801.794	171.52
801.974	781.81
802.154	192
802.334	257.53
802.514	208.38
802.693	237.05
802.873	208.38
803.053	286.2
803.233	353.79
803.413	216.57
803.592	224.76
803.772	220.67
803.952	278.01
804.131	200.19
804.311	230.91
804.491	269.82
804.67	167.42
804.85	208.38
805.03	171.52
805.209	212.48
805.389	253.44
805.568	183.81
805.748	151.04
805.928	278.01
806.107	206.33
806.287	228.86
806.466	196.09
806.646	194.05
806.825	151.04
807.004	175.61
807.184	151.04
807.363	206.33
807.543	200.19
807.722	148.99
807.901	218.62
808.081	228.86
808.26	126.46
808.439	124.41
808.619	159.23
808.798	157.18
808.977	159.23
809.156	146.94
809.336	163.33
809.515	165.37
809.694	130.56
809.873	163.33
810.052	241.15
810.231	232.96
810.411	204.28
810.59	146.94
810.769	181.76
810.948	165.37
811.127	71.17
811.306	116.22
811.485	212.48
811.664	206.33
811.843	208.38
812.022	85.5
812.201	120.32
812.38	179.71
812.559	132.61
812.737	159.23
812.916	151.04
813.095	194.05
813.274	99.84
813.453	314.88
813.632	110.08
813.811	110.08
813.989	187.9
814.168	120.32
814.347	144.89
814.526	151.04
814.704	175.61
814.883	81.41
815.062	99.84
815.24	142.85
815.419	89.6
815.598	146.94
815.776	81.41
815.955	144.89
816.133	118.27
816.312	159.23
816.49	132.61
816.669	73.21
816.847	122.37
817.026	138.75
817.204	138.75
817.383	179.71
817.561	19.97
817.74	42.5
817.918	163.33
818.097	60.93
818.275	108.03
818.453	105.98
818.632	126.46
818.81	73.21
818.988	116.22
819.167	130.56
819.345	163.33
819.523	130.56
819.701	60.93
819.879	192
820.058	79.36
820.236	89.6
820.414	97.79
820.592	56.83
820.77	9.73
820.948	192
821.127	42.5
821.305	110.08
821.483	83.45
821.661	171.52
821.839	108.03
822.017	42.5
822.195	85.5
822.373	105.98
822.551	120.32
822.729	116.22
822.907	93.69
823.085	81.41
823.262	69.12
823.44	73.21
823.618	91.65
823.796	69.12
823.974	120.32
824.152	73.21
824.329	148.99
824.507	132.61
824.685	77.31
824.863	110.08
825.04	122.37
825.218	175.61
825.396	71.17
825.574	93.69
825.751	124.41
825.929	48.64
826.107	67.07
826.284	48.64
826.462	103.93
826.639	67.07
826.817	26.11
826.994	146.94
827.172	56.83
827.349	75.26
827.527	91.65
827.704	-23.04
827.882	105.98
828.059	105.98
828.237	67.07
828.414	116.22
828.591	56.83
828.769	97.79
828.946	116.22
829.124	56.83
829.301	110.08
829.478	24.06
829.655	58.88
829.833	142.85
830.01	-25.09
830.187	34.3
830.364	60.93
830.542	58.88
830.719	118.27
830.896	69.12
831.073	83.45
831.25	56.83
831.427	42.5
831.604	89.6
831.782	58.88
831.959	89.6
832.136	1.54
832.313	48.64
832.49	130.56
832.667	89.6
832.844	32.26
833.021	114.17
833.198	60.93
833.374	3.58
833.551	71.17
833.728	163.33
833.905	73.21
834.082	122.37
834.259	48.64
834.436	83.45
834.612	58.88
834.789	83.45
834.966	22.02
835.143	15.87
835.319	26.11
835.496	36.35
835.673	97.79
835.85	73.21
836.026	32.26
836.203	91.65
836.38	44.54
836.556	97.79
836.733	95.74
836.909	44.54
837.086	56.83
837.262	105.98
837.439	69.12
837.616	-25.09
837.792	-2.56
837.968	48.64
838.145	-8.7
838.321	93.69
838.498	97.79
838.674	50.69
838.851	83.45
839.027	73.21
839.203	48.64
839.38	116.22
839.556	65.02
839.732	83.45
839.909	112.13
840.085	75.26
840.261	108.03
840.437	32.26
840.614	73.21
840.79	52.74
840.966	-0.51
841.142	15.87
841.318	15.87
841.494	81.41
841.671	83.45
841.847	17.92
842.023	-8.7
842.199	34.3
842.375	52.74
842.551	-29.18
842.727	5.63
842.903	32.26
843.079	24.06
843.255	13.82
843.431	17.92
843.607	50.69
843.783	7.68
843.959	-14.85
844.134	15.87
844.31	50.69
844.486	-25.09
844.662	-37.38
844.838	36.35
845.013	60.93
845.189	7.68
845.365	163.33
845.541	62.98
845.716	32.26
845.892	116.22
846.068	50.69
846.244	77.31
846.419	-41.47
846.595	44.54
846.77	-6.66
846.946	87.55
847.122	15.87
847.297	40.45
847.473	40.45
847.648	-12.8
847.824	56.83
847.999	36.35
848.175	24.06
848.35	62.98
848.526	40.45
848.701	87.55
848.876	15.87
849.052	101.89
849.227	97.79
849.403	3.58
849.578	-0.51
849.753	28.16
849.929	114.17
850.104	52.74
850.279	-10.75
850.454	26.11
850.63	73.21
850.805	28.16
850.98	65.02
851.155	34.3
851.33	48.64
851.505	36.35
851.681	-39.42
851.856	34.3
852.031	30.21
852.206	-0.51
852.381	40.45
852.556	-4.61
852.731	15.87
852.906	75.26
853.081	48.64
853.256	65.02
853.431	69.12
853.606	3.58
853.781	17.92
853.956	36.35
854.131	38.4
854.305	15.87
854.48	65.02
854.655	48.64
854.83	-4.61
855.005	11.78
855.18	-66.05
855.354	34.3
855.529	89.6
855.704	85.5
855.879	15.87
856.053	-14.85
856.228	-43.52
856.403	-23.04
856.577	-12.8
856.752	-53.76
856.926	15.87
857.101	-4.61
857.276	36.35
857.45	15.87
857.625	11.78
857.799	15.87
857.974	34.3
858.148	48.64
858.323	48.64
858.497	65.02
858.672	89.6
858.846	-61.95
859.02	32.26
859.195	54.78
859.369	26.11
859.543	7.68
859.718	-8.7
859.892	-29.18
860.066	19.97
860.241	-8.7
860.415	-64
860.589	-16.9
860.763	24.06
860.938	-31.23
861.112	15.87
861.286	-27.14
861.46	24.06
861.634	11.78
861.808	83.45
861.982	1.54
862.157	11.78
862.331	-16.9
862.505	-0.51
862.679	22.02
862.853	67.07
863.027	81.41
863.201	87.55
863.375	-14.85
863.549	28.16
863.722	97.79
863.896	58.88
864.07	-37.38
864.244	1.54
864.418	38.4
864.592	87.55
864.766	54.78
864.939	-14.85
865.113	65.02
865.287	67.07
865.461	-39.42
865.634	-6.66
865.808	-16.9
865.982	-29.18
866.156	-90.62
866.329	-49.66
866.503	26.11
866.676	1.54
866.85	42.5
867.024	42.5
867.197	44.54
867.371	52.74
867.544	42.5
867.718	-49.66
867.891	11.78
868.065	26.11
868.238	-16.9
868.412	32.26
868.585	71.17
868.759	-64
868.932	11.78
869.105	-14.85
869.279	-8.7
869.452	56.83
869.625	-14.85
869.799	34.3
869.972	9.73
870.145	-41.47
870.319	7.68
870.492	-16.9
870.665	19.97
870.838	24.06
871.011	9.73
871.185	1.54
871.358	56.83
871.531	56.83
871.704	32.26
871.877	15.87
872.05	-39.42
872.223	-20.99
872.396	48.64
872.569	32.26
872.742	-86.53
872.915	32.26
873.088	-23.04
873.261	-0.51
873.434	-12.8
873.607	22.02
873.78	101.89
873.953	34.3
874.126	28.16
874.299	73.21
874.471	13.82
874.644	38.4
874.817	32.26
874.99	-33.28
875.163	15.87
875.335	-8.7
875.508	122.37
875.681	67.07
875.853	-98.81
876.026	-8.7
876.199	56.83
876.371	5.63
876.544	-18.94
876.717	34.3
876.889	-0.51
877.062	40.45
877.234	-31.23
877.407	-37.38
877.579	-41.47
877.752	22.02
877.924	15.87
878.097	26.11
878.269	-4.61
878.442	-16.9
878.614	44.54
878.786	34.3
878.959	34.3
879.131	-45.57
879.303	-16.9
879.476	-14.85
879.648	-12.8
879.82	-37.38
879.993	-12.8
880.165	40.45
880.337	-47.62
880.509	50.69
880.681	36.35
880.854	24.06
881.026	-29.18
881.198	56.83
881.37	7.68
881.542	15.87
881.714	28.16
881.886	30.21
882.058	56.83
882.23	26.11
882.402	30.21
882.574	3.58
882.746	17.92
882.918	105.98
883.09	79.36
883.262	7.68
883.434	28.16
883.606	48.64
883.778	-33.28
883.95	89.6
884.122	-35.33
884.293	32.26
884.465	54.78
884.637	32.26
884.809	79.36
884.98	32.26
885.152	34.3
885.324	-10.75
885.496	15.87
885.667	62.98
885.839	105.98
886.011	5.63
886.182	-0.51
886.354	1.54
886.525	-0.51
886.697	1.54
886.869	1.54
887.04	-31.23
887.212	-0.51
887.383	97.79
887.555	-57.86
887.726	-39.42
887.897	24.06
888.069	44.54
888.24	19.97
888.412	-16.9
888.583	13.82
888.754	-16.9
888.926	-0.51
889.097	-0.51
889.268	-10.75
889.44	17.92
889.611	-72.19
889.782	-74.24
889.953	-0.51
890.125	38.4
890.296	19.97
890.467	50.69
890.638	-33.28
890.809	22.02
890.98	-16.9
891.151	-25.09
891.323	-37.38
891.494	44.54
891.665	-8.7
891.836	48.64
892.007	22.02
892.178	52.74
892.349	-35.33
892.52	-12.8
892.691	-64
892.862	-29.18
893.032	-51.71
893.203	-41.47
893.374	17.92
893.545	19.97
893.716	46.59
893.887	40.45
894.057	-25.09
894.228	-25.09
894.399	-4.61
894.57	13.82
894.74	15.87
894.911	-25.09
895.082	-14.85
895.253	-6.66
895.423	52.74
895.594	73.21
895.764	93.69
895.935	-6.66
896.106	34.3
896.276	-82.43
896.447	46.59
896.617	26.11
896.788	-8.7
896.958	11.78
897.129	-41.47
897.299	-43.52
897.47	19.97
897.64	36.35
897.81	-14.85
897.981	1.54
898.151	-64
898.322	15.87
898.492	40.45
898.662	-55.81
898.832	24.06
899.003	-14.85
899.173	-20.99
899.343	-4.61
899.513	-25.09
