Data from USB4F104151__77__14-43-25-036.txt Node

Date: Thu Mar 13 14:43:25 EDT 2025
User: louis
Spectrometer: USB4F10415
Trigger mode: 4
Integration Time (sec): 2.000000E-2
Scans to average: 1
Electric dark correction enabled: true
Nonlinearity correction enabled: false
Boxcar width: 0
XAxis mode: Wavelengths
Number of Pixels in Spectrum: 3648
>>>>>Begin Spectral Data<<<<<
178.204	-123.56
178.424	-123.56
178.644	-123.56
178.864	-148.14
179.084	-137.9
179.304	-17.07
179.524	-12.97
179.744	-119.46
179.964	15.7
180.184	-19.11
180.404	52.56
180.624	17.75
180.844	34.13
181.064	54.61
181.283	-33.45
181.503	-8.87
181.723	36.18
181.943	-25.26
182.163	150.87
182.383	23.89
182.602	79.19
182.822	75.09
183.042	64.85
183.262	25.94
183.482	73.04
183.701	23.89
183.921	56.66
184.141	48.47
184.361	11.61
184.58	56.66
184.8	-39.59
185.02	-8.87
185.239	40.28
185.459	66.9
185.679	17.75
185.898	56.66
186.118	38.23
186.338	9.56
186.557	56.66
186.777	-78.51
186.997	50.52
187.216	85.33
187.436	75.09
187.655	130.39
187.875	52.56
188.095	7.51
188.314	71
188.534	91.48
188.753	9.56
188.973	46.42
189.192	15.7
189.412	56.66
189.631	40.28
189.851	64.85
190.07	77.14
190.29	1.37
190.509	66.9
190.729	-70.31
190.948	52.56
191.168	138.58
191.387	85.33
191.607	5.46
191.826	15.7
192.045	-19.11
192.265	48.47
192.484	15.7
192.704	56.66
192.923	3.41
193.142	11.61
193.362	19.8
193.581	-0.68
193.8	44.37
194.02	89.43
194.239	89.43
194.458	91.48
194.678	81.24
194.897	11.61
195.116	-12.97
195.335	-0.68
195.555	19.8
195.774	23.89
195.993	44.37
196.212	56.66
196.432	44.37
196.651	89.43
196.87	-6.83
197.089	97.62
197.308	32.08
197.528	23.89
197.747	25.94
197.966	85.33
198.185	-6.83
198.404	56.66
198.623	-31.4
198.842	60.76
199.062	-0.68
199.281	122.2
199.5	30.04
199.719	34.13
199.938	36.18
200.157	107.86
200.376	7.51
200.595	56.66
200.814	-6.83
201.033	-6.83
201.252	42.32
201.471	-37.55
201.69	44.37
201.909	15.7
202.128	19.8
202.347	73.04
202.566	64.85
202.785	-0.68
203.004	-15.02
203.223	154.96
203.442	64.85
203.661	11.61
203.879	-37.55
204.098	-4.78
204.317	-27.31
204.536	93.52
204.755	17.75
204.974	44.37
205.193	32.08
205.411	50.52
205.63	48.47
205.849	83.28
206.068	23.89
206.287	19.8
206.505	-55.98
206.724	7.51
206.943	17.75
207.162	-2.73
207.381	89.43
207.599	17.75
207.818	44.37
208.037	-107.18
208.255	32.08
208.474	73.04
208.693	36.18
208.911	-27.31
209.13	15.7
209.349	46.42
209.567	7.51
209.786	101.72
210.005	93.52
210.223	-8.87
210.442	7.51
210.661	91.48
210.879	23.89
211.098	-23.21
211.316	-33.45
211.535	15.7
211.753	-8.87
211.972	99.67
212.191	-0.68
212.409	68.95
212.628	132.44
212.846	60.76
213.065	56.66
213.283	93.52
213.502	-10.92
213.72	-0.68
213.938	64.85
214.157	52.56
214.375	25.94
214.594	42.32
214.812	99.67
215.031	56.66
215.249	15.7
215.467	50.52
215.686	36.18
215.904	75.09
216.122	-25.26
216.341	7.51
216.559	-25.26
216.778	-6.83
216.996	15.7
217.214	-10.92
217.432	-17.07
217.651	19.8
217.869	9.56
218.087	58.71
218.306	15.7
218.524	64.85
218.742	44.37
218.96	30.04
219.179	19.8
219.397	-4.78
219.615	52.56
219.833	56.66
220.051	3.41
220.27	-17.07
220.488	-2.73
220.706	134.48
220.924	-12.97
221.142	91.48
221.36	36.18
221.578	68.95
221.796	40.28
222.015	-25.26
222.233	73.04
222.451	38.23
222.669	-4.78
222.887	66.9
223.105	-29.35
223.323	73.04
223.541	7.51
223.759	13.65
223.977	58.71
224.195	23.89
224.413	3.41
224.631	25.94
224.849	81.24
225.067	114
225.285	-29.35
225.503	1.37
225.721	-15.02
225.939	56.66
226.157	58.71
226.375	64.85
226.592	46.42
226.81	116.05
227.028	107.86
227.246	58.71
227.464	23.89
227.682	97.62
227.9	-0.68
228.117	-10.92
228.335	64.85
228.553	81.24
228.771	-15.02
228.989	-4.78
229.206	23.89
229.424	68.95
229.642	-0.68
229.86	-4.78
230.077	48.47
230.295	23.89
230.513	122.2
230.731	-12.97
230.948	114
231.166	44.37
231.384	15.7
231.601	58.71
231.819	56.66
232.037	50.52
232.254	-49.83
232.472	5.46
232.689	23.89
232.907	-0.68
233.125	40.28
233.342	7.51
233.56	21.85
233.777	-8.87
233.995	-12.97
234.213	114
234.43	15.7
234.648	-4.78
234.865	-33.45
235.083	56.66
235.3	11.61
235.518	13.65
235.735	42.32
235.953	122.2
236.17	95.57
236.388	32.08
236.605	52.56
236.822	34.13
237.04	36.18
237.257	73.04
237.475	27.99
237.692	-0.68
237.909	66.9
238.127	25.94
238.344	56.66
238.562	-4.78
238.779	34.13
238.996	9.56
239.214	15.7
239.431	91.48
239.648	5.46
239.865	7.51
240.083	42.32
240.3	56.66
240.517	17.75
240.735	36.18
240.952	27.99
241.169	32.08
241.386	71
241.603	75.09
241.821	23.89
242.038	1.37
242.255	19.8
242.472	-58.03
242.689	27.99
242.907	56.66
243.124	-39.59
243.341	56.66
243.558	56.66
243.775	36.18
243.992	17.75
244.209	13.65
244.426	105.81
244.643	73.04
244.86	21.85
245.078	40.28
245.295	73.04
245.512	-8.87
245.729	48.47
245.946	-15.02
246.163	15.7
246.38	32.08
246.597	-0.68
246.814	-21.16
247.031	19.8
247.248	116.05
247.464	56.66
247.681	23.89
247.898	23.89
248.115	30.04
248.332	-23.21
248.549	52.56
248.766	148.82
248.983	27.99
249.2	64.85
249.417	50.52
249.633	44.37
249.85	25.94
250.067	23.89
250.284	40.28
250.501	75.09
250.717	46.42
250.934	30.04
251.151	77.14
251.368	40.28
251.585	64.85
251.801	50.52
252.018	15.7
252.235	11.61
252.451	3.41
252.668	7.51
252.885	64.85
253.102	58.71
253.318	19.8
253.535	19.8
253.752	-29.35
253.968	-6.83
254.185	52.56
254.401	105.81
254.618	15.7
254.835	81.24
255.051	146.77
255.268	17.75
255.484	15.7
255.701	15.7
255.917	56.66
256.134	3.41
256.351	25.94
256.567	9.56
256.784	93.52
257	-15.02
257.217	62.8
257.433	23.89
257.65	32.08
257.866	36.18
258.082	15.7
258.299	54.61
258.515	19.8
258.732	36.18
258.948	-15.02
259.165	101.72
259.381	5.46
259.597	75.09
259.814	11.61
260.03	3.41
260.246	50.52
260.463	93.52
260.679	116.05
260.895	23.89
261.112	-33.45
261.328	83.28
261.544	73.04
261.761	58.71
261.977	23.89
262.193	101.72
262.409	58.71
262.626	3.41
262.842	-4.78
263.058	25.94
263.274	68.95
263.49	17.75
263.707	87.38
263.923	75.09
264.139	7.51
264.355	-19.11
264.571	138.58
264.787	56.66
265.004	91.48
265.22	27.99
265.436	116.05
265.652	56.66
265.868	91.48
266.084	-33.45
266.3	19.8
266.516	27.99
266.732	58.71
266.948	-0.68
267.164	-4.78
267.38	15.7
267.596	48.47
267.812	126.29
268.028	21.85
268.244	3.41
268.46	3.41
268.676	-0.68
268.892	32.08
269.108	40.28
269.324	1.37
269.54	-29.35
269.756	42.32
269.972	21.85
270.188	17.75
270.403	-25.26
270.619	77.14
270.835	-25.26
271.051	42.32
271.267	73.04
271.483	-2.73
271.698	85.33
271.914	7.51
272.13	36.18
272.346	48.47
272.562	42.32
272.777	122.2
272.993	48.47
273.209	5.46
273.425	13.65
273.64	17.75
273.856	36.18
274.072	64.85
274.287	-55.98
274.503	7.51
274.719	58.71
274.934	21.85
275.15	-2.73
275.366	32.08
275.581	-4.78
275.797	50.52
276.012	-15.02
276.228	34.13
276.444	19.8
276.659	32.08
276.875	-39.59
277.09	23.89
277.306	-31.4
277.521	105.81
277.737	50.52
277.952	116.05
278.168	42.32
278.383	1.37
278.599	64.85
278.814	52.56
279.03	-17.07
279.245	52.56
279.461	87.38
279.676	64.85
279.892	23.89
280.107	-12.97
280.322	1.37
280.538	56.66
280.753	56.66
280.969	89.43
281.184	52.56
281.399	93.52
281.615	15.7
281.83	79.19
282.045	-12.97
282.26	60.76
282.476	9.56
282.691	146.77
282.906	15.7
283.122	97.62
283.337	23.89
283.552	27.99
283.767	58.71
283.983	107.86
284.198	-0.68
284.413	56.66
284.628	-84.65
284.843	161.11
285.058	83.28
285.274	71
285.489	27.99
285.704	23.89
285.919	40.28
286.134	44.37
286.349	19.8
286.564	25.94
286.779	114
286.995	54.61
287.21	85.33
287.425	32.08
287.64	75.09
287.855	85.33
288.07	-25.26
288.285	34.13
288.5	48.47
288.715	75.09
288.93	89.43
289.145	17.75
289.36	48.47
289.575	25.94
289.79	85.33
290.004	-0.68
290.219	130.39
290.434	23.89
290.649	48.47
290.864	-66.22
291.079	134.48
291.294	19.8
291.509	25.94
291.724	91.48
291.938	-6.83
292.153	46.42
292.368	73.04
292.583	56.66
292.798	73.04
293.012	-6.83
293.227	-39.59
293.442	42.32
293.657	3.41
293.871	48.47
294.086	40.28
294.301	68.95
294.516	87.38
294.73	-0.68
294.945	56.66
295.16	68.95
295.374	19.8
295.589	42.32
295.804	3.41
296.018	-8.87
296.233	89.43
296.447	-8.87
296.662	64.85
296.877	105.81
297.091	58.71
297.306	66.9
297.52	73.04
297.735	101.72
297.949	23.89
298.164	42.32
298.378	97.62
298.593	66.9
298.807	73.04
299.022	15.7
299.236	75.09
299.451	-0.68
299.665	13.65
299.88	64.85
300.094	25.94
300.309	64.85
300.523	81.24
300.737	3.41
300.952	-19.11
301.166	81.24
301.381	-2.73
301.595	-39.59
301.809	40.28
302.024	-15.02
302.238	40.28
302.452	64.85
302.667	50.52
302.881	73.04
303.095	105.81
303.309	138.58
303.524	89.43
303.738	15.7
303.952	36.18
304.166	64.85
304.381	52.56
304.595	148.82
304.809	56.66
305.023	48.47
305.237	15.7
305.452	13.65
305.666	62.8
305.88	44.37
306.094	-8.87
306.308	93.52
306.522	97.62
306.736	64.85
306.95	77.14
307.164	25.94
307.379	27.99
307.593	97.62
307.807	81.24
308.021	34.13
308.235	36.18
308.449	-0.68
308.663	85.33
308.877	109.91
309.091	46.42
309.305	50.52
309.519	15.7
309.733	105.81
309.947	-15.02
310.161	7.51
310.374	-17.07
310.588	89.43
310.802	7.51
311.016	64.85
311.23	-17.07
311.444	21.85
311.658	36.18
311.872	73.04
312.085	89.43
312.299	52.56
312.513	44.37
312.727	42.32
312.941	58.71
313.154	48.47
313.368	73.04
313.582	52.56
313.796	15.7
314.009	60.76
314.223	34.13
314.437	64.85
314.651	64.85
314.864	-0.68
315.078	11.61
315.292	73.04
315.505	-0.68
315.719	23.89
315.933	23.89
316.146	17.75
316.36	66.9
316.573	73.04
316.787	32.08
317.001	36.18
317.214	15.7
317.428	56.66
317.641	-49.83
317.855	11.61
318.068	27.99
318.282	103.76
318.495	19.8
318.709	34.13
318.922	95.57
319.136	75.09
319.349	50.52
319.563	9.56
319.776	83.28
319.99	99.67
320.203	19.8
320.417	40.28
320.63	56.66
320.843	138.58
321.057	25.94
321.27	75.09
321.483	36.18
321.697	50.52
321.91	-0.68
322.124	105.81
322.337	-4.78
322.55	27.99
322.763	7.51
322.977	19.8
323.19	15.7
323.403	93.52
323.617	85.33
323.83	50.52
324.043	1.37
324.256	23.89
324.469	73.04
324.683	79.19
324.896	40.28
325.109	73.04
325.322	9.56
325.535	64.85
325.748	42.32
325.962	89.43
326.175	23.89
326.388	17.75
326.601	122.2
326.814	19.8
327.027	89.43
327.24	75.09
327.453	87.38
327.666	64.85
327.879	114
328.092	50.52
328.305	81.24
328.518	77.14
328.731	9.56
328.944	52.56
329.157	23.89
329.37	73.04
329.583	73.04
329.796	56.66
330.009	58.71
330.222	81.24
330.435	83.28
330.648	40.28
330.861	-0.68
331.073	7.51
331.286	73.04
331.499	62.8
331.712	32.08
331.925	97.62
332.138	-8.87
332.35	81.24
332.563	64.85
332.776	89.43
332.989	52.56
333.202	62.8
333.414	-19.11
333.627	58.71
333.84	23.89
334.053	95.57
334.265	42.32
334.478	40.28
334.691	64.85
334.903	36.18
335.116	1.37
335.329	97.62
335.541	19.8
335.754	40.28
335.966	48.47
336.179	64.85
336.392	56.66
336.604	19.8
336.817	73.04
337.029	126.29
337.242	-8.87
337.454	7.51
337.667	64.85
337.88	15.7
338.092	-41.64
338.305	40.28
338.517	56.66
338.729	114
338.942	58.71
339.154	64.85
339.367	32.08
339.579	48.47
339.792	-41.64
340.004	85.33
340.217	23.89
340.429	30.04
340.641	64.85
340.854	32.08
341.066	34.13
341.278	97.62
341.491	111.96
341.703	-17.07
341.915	34.13
342.128	87.38
342.34	-41.64
342.552	-6.83
342.764	3.41
342.977	-21.16
343.189	77.14
343.401	30.04
343.613	32.08
343.826	32.08
344.038	81.24
344.25	75.09
344.462	-15.02
344.674	124.24
344.886	3.41
345.099	21.85
345.311	97.62
345.523	62.8
345.735	-19.11
345.947	48.47
346.159	17.75
346.371	105.81
346.583	46.42
346.795	122.2
347.007	50.52
347.219	83.28
347.431	5.46
347.643	73.04
347.855	109.91
348.067	40.28
348.279	-25.26
348.491	36.18
348.703	32.08
348.915	-12.97
349.127	54.61
349.339	58.71
349.551	87.38
349.763	124.24
349.975	36.18
350.187	32.08
350.399	34.13
350.61	40.28
350.822	46.42
351.034	73.04
351.246	40.28
351.458	81.24
351.669	44.37
351.881	99.67
352.093	50.52
352.305	-4.78
352.517	97.62
352.728	122.2
352.94	17.75
353.152	97.62
353.363	58.71
353.575	97.62
353.787	56.66
353.999	19.8
354.21	116.05
354.422	56.66
354.633	34.13
354.845	-12.97
355.057	48.47
355.268	89.43
355.48	56.66
355.692	73.04
355.903	71
356.115	91.48
356.326	7.51
356.538	107.86
356.749	107.86
356.961	101.72
357.172	7.51
357.384	-25.26
357.595	116.05
357.807	-23.21
358.018	17.75
358.23	32.08
358.441	68.95
358.653	60.76
358.864	34.13
359.075	101.72
359.287	23.89
359.498	124.24
359.709	11.61
359.921	64.85
360.132	97.62
360.344	81.24
360.555	40.28
360.766	52.56
360.977	21.85
361.189	19.8
361.4	13.65
361.611	87.38
361.823	107.86
362.034	48.47
362.245	32.08
362.456	99.67
362.667	50.52
362.879	40.28
363.09	44.37
363.301	87.38
363.512	83.28
363.723	91.48
363.935	81.24
364.146	73.04
364.357	1.37
364.568	118.1
364.779	56.66
364.99	36.18
365.201	17.75
365.412	64.85
365.623	30.04
365.834	15.7
366.045	40.28
366.256	9.56
366.467	56.66
366.678	73.04
366.889	68.95
367.1	9.56
367.311	32.08
367.522	3.41
367.733	25.94
367.944	114
368.155	40.28
368.366	36.18
368.577	15.7
368.788	1.37
368.999	13.65
369.209	81.24
369.42	111.96
369.631	58.71
369.842	46.42
370.053	32.08
370.264	62.8
370.474	-53.93
370.685	73.04
370.896	103.76
371.107	68.95
371.317	109.91
371.528	68.95
371.739	52.56
371.95	85.33
372.16	142.68
372.371	32.08
372.582	-21.16
372.792	48.47
373.003	40.28
373.214	32.08
373.424	23.89
373.635	56.66
373.846	32.08
374.056	44.37
374.267	83.28
374.477	93.52
374.688	99.67
374.898	15.7
375.109	48.47
375.319	89.43
375.53	66.9
375.74	1.37
375.951	42.32
376.161	48.47
376.372	120.15
376.582	48.47
376.793	130.39
377.003	89.43
377.214	62.8
377.424	44.37
377.635	-21.16
377.845	87.38
378.055	48.47
378.266	-0.68
378.476	44.37
378.686	32.08
378.897	11.61
379.107	64.85
379.317	-6.83
379.528	42.32
379.738	40.28
379.948	-21.16
380.158	91.48
380.369	87.38
380.579	89.43
380.789	73.04
380.999	154.96
381.21	99.67
381.42	187.73
381.63	68.95
381.84	25.94
382.05	95.57
382.261	91.48
382.471	1.37
382.681	7.51
382.891	99.67
383.101	136.53
383.311	-19.11
383.521	23.89
383.731	15.7
383.941	105.81
384.151	3.41
384.361	40.28
384.571	66.9
384.781	56.66
384.991	109.91
385.201	77.14
385.411	60.76
385.621	23.89
385.831	40.28
386.041	25.94
386.251	64.85
386.461	114
386.671	91.48
386.881	64.85
387.091	27.99
387.301	146.77
387.511	81.24
387.72	73.04
387.93	122.2
388.14	68.95
388.35	1.37
388.56	130.39
388.769	38.23
388.979	44.37
389.189	-0.68
389.399	85.33
389.609	56.66
389.818	114
390.028	21.85
390.238	58.71
390.447	142.68
390.657	58.71
390.867	73.04
391.076	58.71
391.286	120.15
391.496	77.14
391.705	21.85
391.915	181.59
392.125	85.33
392.334	73.04
392.544	124.24
392.753	40.28
392.963	75.09
393.172	52.56
393.382	7.51
393.591	122.2
393.801	36.18
394.01	23.89
394.22	89.43
394.429	34.13
394.639	38.23
394.848	9.56
395.058	89.43
395.267	97.62
395.477	146.77
395.686	50.52
395.895	64.85
396.105	140.63
396.314	77.14
396.524	48.47
396.733	62.8
396.942	114
397.152	83.28
397.361	99.67
397.57	152.91
397.78	134.48
397.989	89.43
398.198	109.91
398.407	91.48
398.617	97.62
398.826	68.95
399.035	118.1
399.244	64.85
399.453	44.37
399.663	75.09
399.872	165.2
400.081	114
400.29	116.05
400.499	66.9
400.708	128.34
400.917	23.89
401.127	62.8
401.336	138.58
401.545	128.34
401.754	105.81
401.963	126.29
402.172	130.39
402.381	36.18
402.59	89.43
402.799	183.63
403.008	114
403.217	101.72
403.426	210.26
403.635	89.43
403.844	99.67
404.053	171.35
404.262	150.87
404.471	171.35
404.68	99.67
404.888	138.58
405.097	105.81
405.306	122.2
405.515	187.73
405.724	124.24
405.933	214.35
406.142	109.91
406.35	193.87
406.559	189.78
406.768	224.59
406.977	253.27
407.185	200.02
407.394	220.5
407.603	179.54
407.812	191.83
408.02	265.55
408.229	261.46
408.438	197.97
408.646	277.84
408.855	286.03
409.064	312.66
409.272	335.18
409.481	228.69
409.69	271.7
409.898	269.65
410.107	298.32
410.315	304.46
410.524	222.55
410.733	300.37
410.941	279.89
411.15	329.04
411.358	370
411.567	449.87
411.775	390.48
411.984	382.29
412.192	363.86
412.401	392.53
412.609	486.73
412.818	443.73
413.026	496.97
413.234	482.64
413.443	490.83
413.651	443.73
413.86	519.5
414.068	648.52
414.276	564.56
414.485	486.73
414.693	605.52
414.901	697.67
415.11	714.06
415.318	626
415.526	687.43
415.734	677.19
415.943	777.55
416.151	730.44
416.359	798.03
416.567	843.08
416.776	826.7
416.984	1006.92
417.192	927.05
417.4	1000.77
417.608	832.84
417.817	861.51
418.025	1043.78
418.233	1066.31
418.441	933.19
418.649	1088.84
418.857	1207.62
419.065	1187.14
419.273	1211.71
419.481	1344.83
419.689	1273.15
419.897	1320.26
420.105	1367.36
420.313	1461.57
420.521	1551.68
420.729	1490.24
420.937	1549.63
421.145	1559.87
421.353	1623.36
421.561	1746.23
421.769	1776.95
421.977	1901.88
422.185	1916.22
422.393	1965.37
422.601	2043.19
422.809	2096.44
423.017	2135.35
423.224	2243.89
423.432	2202.93
423.64	2391.34
423.848	2489.65
424.056	2374.96
424.263	2495.79
424.471	2655.53
424.679	2690.35
424.887	2780.46
425.094	2817.32
425.302	2932.01
425.51	2907.43
425.718	3175.72
425.925	3140.9
426.133	3202.34
426.341	3280.16
426.548	3511.58
426.756	3591.45
426.964	3575.07
427.171	3872.03
427.379	3894.55
427.586	3906.84
427.794	4023.58
428.001	4259.09
428.209	4496.66
428.417	4496.66
428.624	4717.84
428.832	4570.38
429.039	4597.01
429.247	4527.38
429.454	5135.62
429.662	5387.52
429.869	5315.84
430.076	5516.55
430.284	5203.21
430.491	5670.14
430.699	5862.65
430.906	5870.84
431.114	5840.12
431.321	6096.12
431.528	6194.42
431.736	6702.32
431.943	6931.69
432.15	6761.71
432.358	7027.95
432.565	7306.47
432.772	7029.99
432.979	7572.71
433.187	7689.44
433.394	7863.52
433.601	8479.96
433.808	8297.69
434.016	8248.54
434.223	8633.55
434.43	9188.55
434.637	8969.42
434.844	9518.28
435.052	9624.77
435.259	9587.91
435.466	9731.26
435.673	9436.36
435.88	10095.8
436.087	10710.19
436.294	10640.56
436.501	10290.36
436.708	10667.19
436.915	10988.72
437.122	11451.56
437.329	11551.91
437.537	11777.19
437.743	12049.57
437.95	11828.38
438.157	12790.93
438.364	12827.79
438.571	12827.79
438.778	12911.76
438.985	14457.98
439.192	13745.28
439.399	14197.88
439.606	13851.78
439.813	14466.17
440.02	15383.66
440.227	15051.89
440.433	15058.03
440.64	15729.77
440.847	15451.24
441.054	15762.53
441.261	16798.8
441.467	16796.76
441.674	16931.92
441.881	17769.54
442.088	17450.06
442.294	17349.71
442.501	17808.45
442.708	18242.62
442.914	18711.61
443.121	19536.94
443.328	18949.17
443.534	20511.77
443.741	19837.99
443.948	19315.76
444.154	20839.45
444.361	20950.04
444.568	21191.7
444.774	21210.13
444.981	21228.56
445.187	21855.24
445.394	23069.69
445.6	22387.71
445.807	24515.55
446.013	23487.47
446.22	23854.06
446.426	24714.2
446.633	25084.89
446.839	26164.17
447.046	24820.7
447.252	26153.93
447.459	26590.14
447.665	26229.7
447.871	27462.58
448.078	28476.32
448.284	26885.05
448.491	27728.81
448.697	28980.12
448.903	29236.12
449.11	29551.51
449.316	29309.85
449.522	29756.3
449.728	30495.62
449.935	30753.66
450.141	30686.08
450.347	31138.68
450.553	30421.89
450.76	30911.36
450.966	31685.49
451.172	31826.8
451.378	32564.07
451.584	31886.19
451.791	32635.75
451.997	32486.25
452.203	33133.4
452.409	32908.13
452.615	32693.09
452.821	31538.04
453.027	31378.29
453.233	33012.57
453.44	31789.94
453.646	31947.63
453.852	32365.42
454.058	32809.82
454.264	31998.83
454.47	32598.88
454.676	31521.65
454.882	32901.98
455.088	30002.06
455.294	30331.78
455.5	31015.8
455.705	31077.24
455.911	30114.7
456.117	29467.54
456.323	29436.82
456.529	27528.11
456.735	28775.33
456.941	27896.75
457.147	27433.91
457.352	26387.39
457.558	26434.5
457.764	26459.07
457.97	26221.51
458.176	25469.9
458.381	25560.02
458.587	24239.08
458.793	24579.04
458.999	23340.02
459.204	24773.6
459.41	23872.49
459.616	22795.26
459.821	22723.58
460.027	22621.18
460.233	22072.32
460.438	21079.06
460.644	21222.42
460.85	20192.29
461.055	19762.22
461.261	19950.63
461.466	18304.06
461.672	17820.74
461.878	19098.67
462.083	17841.22
462.289	17425.48
462.494	17460.3
462.7	16575.58
462.905	15965.28
463.111	16620.63
463.316	16786.52
463.522	16284.76
463.727	16383.07
463.932	16288.86
464.138	16301.15
464.343	16151.65
464.549	15866.98
464.754	16358.49
464.959	15899.75
465.165	15996
465.37	15400.04
465.575	15217.77
465.781	15391.85
465.986	15803.49
466.191	14840.95
466.397	14748.79
466.602	13954.18
466.807	14517.37
467.012	14787.7
467.218	14396.54
467.423	14199.93
467.628	14435.45
467.833	15129.71
468.038	14503.03
468.244	13757.57
468.449	14406.78
468.654	13943.94
468.859	14021.76
469.064	14015.62
469.269	13417.61
469.474	13325.45
469.679	13642.89
469.885	13450.38
470.09	13491.34
470.295	13546.63
470.5	13061.26
470.705	13171.85
470.91	13085.84
471.115	12567.7
471.32	13094.03
471.525	12895.38
471.73	12678.29
471.935	12467.35
472.139	12117.15
472.344	12596.37
472.549	12143.77
472.754	12068
472.959	11762.85
473.164	11445.41
473.369	11349.16
473.574	11938.98
473.778	11779.23
473.983	11486.37
474.188	11592.87
474.393	10923.18
474.598	11136.17
474.802	11111.6
475.007	10896.56
475.212	10998.96
475.417	10693.81
475.621	10677.43
475.826	10763.44
476.031	10413.24
476.235	10321.08
476.44	10308.79
476.645	10165.43
476.849	10222.78
477.054	9987.26
477.259	9764.03
477.463	9841.86
477.668	9286.86
477.872	9807.04
478.077	9487.56
478.282	9471.17
478.486	9239.75
478.691	9368.77
478.895	9231.56
479.1	9311.43
479.304	9196.75
479.509	8756.43
479.713	9180.36
479.918	8813.77
480.122	8766.67
480.326	8809.68
480.531	8766.67
480.735	8621.27
480.94	8572.11
481.144	9071.82
481.348	8645.84
481.553	8651.99
481.757	8371.41
481.961	8649.94
482.166	8668.37
482.37	8684.75
482.574	8322.26
482.778	8387.8
482.983	8617.17
483.187	8531.16
483.391	8537.3
483.595	8408.28
483.8	8314.07
484.004	8350.93
484.208	8500.44
484.412	8441.04
484.616	8479.96
484.821	8430.8
485.025	8273.11
485.229	8559.83
485.433	8414.42
485.637	8389.85
485.841	8412.37
486.045	8234.2
486.249	8369.37
486.453	8314.07
486.657	8443.09
486.861	8395.99
487.065	7961.82
487.269	8404.18
487.473	8303.83
487.677	8463.57
487.881	8568.02
488.085	8338.65
488.289	8498.39
488.493	8269.02
488.697	8510.68
488.901	8432.85
489.105	8590.55
489.309	8584.4
489.512	8617.17
489.716	8596.69
489.92	8486.1
490.124	8510.68
490.328	8795.34
490.531	8248.54
490.735	8621.27
490.939	8613.07
491.143	8719.57
491.346	8496.34
491.55	8924.37
491.754	8903.89
491.958	8803.53
492.161	8772.82
492.365	8985.8
492.569	8793.3
492.772	8783.06
492.976	8907.98
493.18	8854.73
493.383	9338.05
493.587	8977.61
493.79	9168.07
493.994	9362.63
494.197	9192.65
494.401	9307.34
494.605	9297.1
494.808	9481.41
495.012	9559.24
495.215	9600.19
495.419	9927.87
495.622	9618.63
495.825	9661.63
496.029	9694.4
496.232	10034.36
496.436	10003.64
496.639	10198.2
496.843	10230.97
497.046	10296.5
497.249	10403
497.453	10493.11
497.656	10468.53
497.859	10706.1
498.063	10681.52
498.266	10943.66
498.469	10861.74
498.673	11072.68
498.876	11117.74
499.079	11300.01
499.282	11345.06
499.485	11789.47
499.689	11564.2
499.892	11871.39
500.095	11785.38
500.298	12039.33
500.501	11840.67
500.705	12416.15
500.908	12274.84
501.111	12393.62
501.314	12534.93
501.517	12860.56
501.72	12897.42
501.923	12944.53
502.126	13128.84
502.329	13212.81
502.532	13468.81
502.735	13560.97
502.938	13655.17
503.141	13841.54
503.344	14066.81
503.547	14171.26
503.75	14302.33
503.953	14300.28
504.156	14578.81
504.359	14773.36
504.562	14713.97
504.765	15060.08
504.968	15277.16
505.17	15387.75
505.373	15363.18
505.576	16036.96
505.779	16032.86
505.982	15627.37
506.185	16141.41
506.387	16473.18
506.59	16524.38
506.793	16669.78
506.996	16700.5
507.198	16925.78
507.401	17038.42
507.604	17177.68
507.807	17730.63
508.009	17644.62
508.212	17855.56
508.415	18152.51
508.617	18281.53
508.82	18433.08
509.022	18242.62
509.225	18766.9
509.428	18826.29
509.63	19106.87
509.833	19170.35
510.035	19797.03
510.238	19508.27
510.44	19864.61
510.643	20071.46
510.845	20233.25
511.048	20302.88
511.25	20610.07
511.453	20601.88
511.655	21548.04
511.858	21238.8
512.06	21304.34
512.262	21675.02
512.465	21531.66
512.667	22109.19
512.87	22256.64
513.072	22223.87
513.274	22604.8
513.477	22858.74
513.679	22920.18
513.881	23176.18
514.084	23512.05
514.286	23454.7
514.488	23774.19
514.69	24501.22
514.893	24265.7
515.095	24675.29
515.297	24552.41
515.499	25119.7
515.701	25099.22
515.904	25068.5
516.106	25570.26
516.308	25742.28
516.51	25942.99
516.712	26035.14
516.914	26266.56
517.116	26510.27
517.318	26776.51
517.52	26811.32
517.722	26977.21
517.925	27593.65
518.127	27790.25
518.329	27765.68
518.531	27446.19
518.733	28425.12
518.935	28603.3
519.136	28335.01
519.338	28961.69
519.54	29453.2
519.742	29733.78
519.944	29635.47
520.146	30157.71
520.348	30241.67
520.55	30333.83
520.752	30403.46
520.954	30835.58
521.155	30622.59
521.357	30890.88
521.559	31589.24
521.761	32066.41
521.963	31773.55
522.164	32054.12
522.366	32238.44
522.568	32476.01
522.77	32506.73
522.971	33160.03
523.173	32525.16
523.375	32930.65
523.576	33082.2
523.778	33110.88
523.98	33602.39
524.181	33692.5
524.383	33710.93
524.584	34110.28
524.786	34329.42
524.988	33846.1
525.189	34749.25
525.391	34712.39
525.592	34857.79
525.794	35101.5
525.995	35232.57
526.197	34849.6
526.398	35636.02
526.6	35312.44
526.801	35396.41
527.003	35691.32
527.204	35758.9
527.406	35824.43
527.607	35875.63
527.808	36410.15
528.01	35928.88
528.211	36375.34
528.412	36995.87
528.614	36385.58
528.815	36614.95
529.016	36932.39
529.218	36760.36
529.419	36725.54
529.62	36913.95
529.822	36723.49
530.023	36725.54
530.224	37329.69
530.425	37352.22
530.626	36875.04
530.828	37006.11
531.029	38028.05
531.23	37247.77
531.431	37268.25
531.632	37704.47
531.833	37829.4
532.035	37675.8
532.236	37442.33
532.437	37985.04
532.638	37587.74
532.839	37995.28
533.04	38185.74
533.241	37501.72
533.442	38525.71
533.643	38087.44
533.844	37507.86
534.045	38052.62
534.246	37671.7
534.447	38296.33
534.648	37698.33
534.849	38044.43
535.05	37817.11
535.251	37778.2
535.451	37909.27
535.652	38236.94
535.853	37921.55
536.054	37784.34
536.255	37919.51
536.456	37411.61
536.657	38388.49
536.857	37847.83
537.058	37595.93
537.259	38273.81
537.46	37942.03
537.66	37669.65
537.861	38302.48
538.062	37731.09
538.263	38005.52
538.463	37724.95
538.664	37686.04
538.865	38335.24
539.065	38099.73
539.266	37737.24
539.466	38159.12
539.667	37493.53
539.868	38257.42
540.068	37389.08
540.269	37561.11
540.469	38124.3
540.67	37901.07
540.87	37438.23
541.071	37735.19
541.271	38212.37
541.472	37763.86
541.672	37516.06
541.873	37532.44
542.073	36825.89
542.274	37653.27
542.474	37540.63
542.675	37243.68
542.875	37970.71
543.075	37823.25
543.276	37290.78
543.476	37735.19
543.676	37436.19
543.877	37872.4
544.077	37833.49
544.277	37516.06
544.478	37538.58
544.678	37862.16
544.878	37667.61
545.078	37557.02
545.279	37120.8
545.479	37333.79
545.679	37194.53
545.879	37704.47
546.079	37471
546.28	37184.29
546.48	37153.57
546.68	37536.54
546.88	37636.89
547.08	37417.75
547.28	37374.75
547.48	37034.78
547.68	37729.05
547.88	37471
548.081	37212.96
548.281	37425.95
548.481	37251.87
548.681	37260.06
548.881	37151.52
549.081	37344.03
549.28	36981.54
549.48	37468.95
549.68	36965.15
549.88	37704.47
550.08	37133.09
550.28	37663.51
550.48	36901.67
550.68	37321.5
550.88	36959.01
551.08	37092.13
551.279	37339.93
551.479	36860.71
551.679	37198.62
551.879	37002.02
552.079	37182.24
552.278	36969.25
552.478	37206.81
552.678	37045.02
552.878	37071.65
553.077	36967.2
553.277	36741.92
553.477	37595.93
553.676	37139.23
553.876	36692.77
554.076	36844.32
554.275	36715.3
554.475	36254.51
554.674	37002.02
554.874	36721.44
555.074	36426.54
555.273	36834.08
555.473	36885.28
555.672	36569.9
555.872	36291.37
556.071	36643.62
556.271	36684.58
556.47	36281.13
556.67	36295.47
556.869	36344.62
557.068	36545.32
557.268	36451.11
557.467	36555.56
557.667	35857.2
557.866	36322.09
558.065	36229.93
558.265	35826.48
558.464	35955.5
558.663	36199.21
558.863	35959.6
559.062	36324.14
559.261	36035.38
559.461	36031.28
559.66	35535.67
559.859	35736.37
560.058	35683.12
560.258	35875.63
560.457	35484.47
560.656	35654.45
560.855	35644.21
561.054	35726.13
561.253	35253.05
561.453	35593.01
561.652	35676.98
561.851	35830.58
562.05	35095.36
562.249	34876.23
562.448	35580.73
562.647	35253.05
562.846	35201.85
563.045	35054.4
563.244	34997.06
563.443	35210.04
563.642	34571.08
563.841	34802.5
564.04	34775.87
564.239	34843.46
564.438	34298.7
564.637	34851.65
564.836	34843.46
565.035	34433.86
565.234	34517.83
565.432	34251.59
565.631	34317.13
565.83	34571.08
566.029	33925.97
566.228	34198.35
566.427	34057.04
566.625	33862.48
566.824	33213.27
567.023	33983.31
567.222	33481.56
567.42	33686.36
567.619	33755.99
567.818	33600.34
568.016	33434.46
568.215	33688.4
568.414	33723.22
568.612	33647.44
568.811	33413.98
569.01	33655.64
569.208	32899.94
569.407	33225.56
569.605	32617.32
569.804	33114.97
570.002	32867.17
570.201	33117.02
570.4	32533.35
570.598	32549.73
570.797	32428.9
570.995	32711.52
571.193	32224.11
571.392	32496.49
571.59	32228.2
571.789	32187.24
571.987	32078.7
572.186	31853.42
572.384	32007.02
572.582	31964.01
572.781	32308.07
572.979	31376.25
573.177	31558.52
573.376	31583.09
573.574	31406.97
573.772	31949.68
573.971	31214.46
574.169	31314.81
574.367	31017.85
574.565	31552.37
574.763	31206.27
574.962	30839.68
575.16	30669.7
575.358	30835.58
575.556	30786.43
575.754	30929.79
575.952	30659.46
576.151	30997.37
576.349	30561.15
576.547	30258.06
576.745	30542.72
576.943	30518.15
577.141	30143.37
577.339	30284.68
577.537	30217.1
577.735	29844.37
577.933	29672.34
578.131	29930.38
578.329	29846.41
578.527	29733.78
578.725	29680.53
578.923	29954.96
579.121	29340.57
579.319	29889.42
579.516	29688.72
579.714	29500.31
579.912	29627.28
580.11	28924.83
580.308	29315.99
580.506	28980.12
580.704	28902.3
580.901	29129.62
581.099	29356.95
581.297	28609.44
581.495	28928.92
581.692	28844.96
581.89	28550.05
582.088	28613.54
582.285	28482.47
582.483	28601.25
582.681	28679.07
582.878	28050.35
583.076	28056.49
583.274	28111.78
583.471	27993
583.669	27945.9
583.866	27880.36
584.064	27798.45
584.262	27681.71
584.459	27708.33
584.657	27454.39
584.854	27669.42
585.052	27188.15
585.249	27534.26
585.447	27272.12
585.644	27286.45
585.841	27184.05
586.039	27253.69
586.236	26782.65
586.434	26895.29
586.631	26854.33
586.828	26725.31
587.026	26756.03
587.223	26536.9
587.42	26723.26
587.618	26297.28
587.815	26104.77
588.012	26305.48
588.21	26207.17
588.407	26651.58
588.604	26502.08
588.801	26254.28
588.999	26246.08
589.196	25990.09
589.393	25936.84
589.59	25813.96
589.787	25508.82
589.984	25625.55
590.182	25541.58
590.379	25627.6
590.576	25187.28
590.773	25451.47
590.97	25185.24
591.167	25222.1
591.364	24781.79
591.561	25179.09
591.758	24880.09
591.955	25009.11
592.152	25017.3
592.349	24763.36
592.546	24919
592.743	24890.33
592.94	24454.11
593.137	24701.92
593.334	24587.23
593.531	24249.32
593.727	24284.13
593.924	24361.95
594.121	24153.06
594.318	24198.12
594.515	23888.87
594.712	24132.58
594.908	23620.59
595.105	24005.61
595.302	23677.93
595.499	23940.07
595.696	23645.16
595.892	23301.11
596.089	23452.66
596.286	23944.17
596.482	23358.45
596.679	23274.48
596.876	23286.77
597.072	22989.81
597.269	23194.61
597.466	22952.95
597.662	22840.31
597.859	22821.88
598.055	23008.25
598.252	22866.94
598.448	22191.11
598.645	22555.65
598.841	22545.41
599.038	22295.55
599.234	22529.02
599.431	21928.97
599.627	22135.81
599.824	22461.44
600.02	22068.23
600.217	22078.47
600.413	22017.03
600.609	22162.44
600.806	22017.03
601.002	21765.13
601.198	21613.58
601.395	21396.49
601.591	21836.81
601.787	21652.49
601.984	21322.77
602.18	21441.55
602.376	21445.65
602.572	20919.32
602.769	21269.52
602.965	21203.99
603.161	21175.31
603.357	21029.91
603.553	20988.95
603.75	20935.7
603.946	20628.51
604.142	20808.73
604.338	20614.17
604.534	20835.35
604.73	20474.91
604.926	20651.03
605.122	20177.95
605.318	20689.95
605.514	20216.86
605.71	20194.34
605.906	20317.22
606.102	20087.84
606.298	20120.61
606.494	20003.88
606.69	19975.2
606.886	20167.71
607.082	19702.82
607.278	20085.79
607.474	19274.8
607.67	19995.68
607.866	19668.01
608.062	19846.18
608.257	19371.05
608.453	19569.71
608.649	19563.56
608.845	19405.87
609.041	19489.84
609.236	19645.48
609.432	19584.04
609.628	19428.4
609.824	19123.25
610.019	19127.35
610.215	19143.73
610.411	19106.87
610.606	19037.23
610.802	19201.07
610.998	18953.27
611.193	19108.91
611.389	19110.96
611.584	18873.4
611.78	19008.56
611.976	18895.92
612.171	19014.71
612.367	18834.49
612.562	18709.56
612.758	18373.69
612.953	18469.95
613.149	18943.03
613.344	18312.25
613.539	18689.08
613.735	18410.56
613.93	18744.38
614.126	18320.45
614.321	18656.31
614.517	18232.38
614.712	18383.93
614.907	18330.69
615.103	18277.44
615.298	18222.14
615.493	18322.49
615.688	17857.6
615.884	18488.38
616.079	18023.49
616.274	18250.81
616.47	18019.39
616.665	18125.89
616.86	17878.08
617.055	18078.79
617.25	17826.89
617.445	17585.22
617.641	17671.24
617.836	17728.58
618.031	17368.14
618.226	17740.87
618.421	17695.82
618.616	17615.94
618.811	17251.41
619.006	17757.25
619.201	16913.49
619.396	17179.73
619.591	17411.15
619.786	17329.23
619.981	16864.34
620.176	17161.3
620.371	16700.5
620.566	17103.95
620.761	17050.71
620.956	17038.42
621.151	16520.28
621.346	16790.61
621.541	16438.36
621.735	16555.1
621.93	16487.51
622.125	16395.36
622.32	16137.31
622.515	16243.81
622.709	15873.12
622.904	16026.72
623.099	15574.12
623.294	15746.15
623.488	15613.03
623.683	15719.53
623.878	15529.06
624.072	15533.16
624.267	15318.12
624.462	15277.16
624.656	14900.34
624.851	15266.92
625.046	15203.44
625.24	15166.57
625.435	14799.99
625.629	14832.75
625.824	14621.81
626.018	14697.59
626.213	14435.45
626.407	14263.42
626.602	14574.71
626.796	14273.66
626.991	14417.02
627.185	14273.66
627.38	14201.98
627.574	14083.2
627.768	14118.01
627.963	13827.2
628.157	13786.24
628.352	13640.84
628.546	13620.36
628.74	13761.67
628.935	13567.11
629.129	13597.83
629.323	13401.22
629.517	13307.02
629.712	13231.24
629.906	13296.78
630.1	12993.68
630.294	13081.74
630.489	12922
630.683	12997.77
630.877	12792.98
631.071	12721.3
631.265	12790.93
631.459	12440.73
631.653	12651.67
631.848	12557.46
632.042	12244.12
632.236	12319.9
632.43	12260.51
632.624	12414.1
632.818	12262.55
633.012	11869.34
633.206	11943.07
633.4	12207.26
633.594	11834.53
633.788	11992.22
633.982	11762.85
634.176	11721.89
634.369	11599.01
634.563	11701.41
634.757	11642.02
634.951	11523.24
635.145	11431.08
635.339	11504.81
635.533	11484.33
635.726	11318.44
635.92	11074.73
636.114	11347.11
636.308	11027.63
636.501	10919.09
636.695	11148.46
636.889	10906.8
637.083	10841.26
637.276	10792.11
637.47	10689.71
637.664	10702
637.857	10691.76
638.051	10753.2
638.244	10517.68
638.438	10527.92
638.632	10615.99
638.825	10439.86
639.019	10321.08
639.212	10093.76
639.406	10290.36
639.599	10052.8
639.793	10032.32
639.986	10171.58
640.18	10009.79
640.373	9972.93
640.567	9866.43
640.76	9954.49
640.954	9759.94
641.147	9739.46
641.34	9581.76
641.534	9514.18
641.727	9723.07
641.92	9753.79
642.114	9501.89
642.307	9524.42
642.5	9379.01
642.694	9217.22
642.887	9241.8
643.08	9190.6
643.273	9221.32
643.467	9073.87
643.66	9034.96
643.853	9149.64
644.046	8920.27
644.239	9067.72
644.432	9059.53
644.626	8729.81
644.819	8832.21
645.012	8891.6
645.205	8928.46
645.398	8690.9
645.591	8592.59
645.784	8559.83
645.977	8580.31
646.17	8506.58
646.363	8502.48
646.556	8232.15
646.749	8250.58
646.942	8252.63
647.135	8299.73
647.328	8228.06
647.521	8250.58
647.714	8076.51
647.907	8025.31
648.099	7939.29
648.292	8002.78
648.485	8099.03
648.678	7879.9
648.871	7767.26
649.064	7783.65
649.256	7990.49
649.449	7689.44
649.642	7732.45
649.835	7666.91
650.027	7519.46
650.22	7531.75
650.413	7628
650.605	7384.29
650.798	7533.79
650.991	7503.07
651.183	7306.47
651.376	7494.88
651.568	7404.77
651.761	7275.75
651.954	7255.27
652.146	7077.1
652.339	7226.6
652.531	7077.1
652.724	7046.38
652.916	6989.03
653.109	6862.06
653.301	6913.26
653.494	6923.5
653.686	6903.02
653.879	7017.71
654.071	6595.82
654.263	6780.14
654.456	6642.93
654.648	6812.91
654.84	6565.11
655.033	6481.14
655.225	6628.59
655.417	6522.1
655.61	6532.34
655.802	6554.87
655.994	6436.08
656.186	6511.86
656.379	6405.36
656.571	6421.75
656.763	6282.49
656.955	6198.52
657.148	6157.56
657.34	6186.23
657.532	6286.58
657.724	6094.07
657.916	6020.35
658.108	6202.61
658.3	6022.39
658.492	5954.81
658.684	5973.24
658.876	5924.09
659.068	5848.32
659.26	5932.28
659.452	5958.91
659.644	5917.95
659.836	5864.7
660.028	5653.76
660.22	5553.41
660.412	5733.63
660.604	5743.87
660.796	5588.22
660.988	5721.34
661.18	5627.14
661.372	5545.22
661.563	5360.9
661.755	5514.5
661.947	5512.45
662.139	5440.77
662.331	5227.78
662.522	5491.97
662.714	5168.39
662.906	5252.36
663.097	5334.28
663.289	5350.66
663.481	5160.2
663.673	5160.2
663.864	5192.97
664.056	5233.93
664.247	5084.42
664.439	5072.14
664.631	5174.53
664.822	5061.9
665.014	5076.23
665.205	4959.5
665.397	4810
665.588	4941.07
665.78	4934.92
665.971	4842.76
666.163	4953.35
666.354	4832.52
666.546	4807.95
666.737	4740.36
666.929	4762.89
667.12	4687.12
667.311	4846.86
667.503	4861.2
667.694	4637.97
667.885	4547.86
668.077	4572.43
668.268	4582.67
668.459	4472.08
668.651	4447.51
668.842	4603.15
669.033	4439.31
669.224	4519.18
669.416	4623.63
669.607	4664.59
669.798	4418.83
669.989	4433.17
670.18	4279.57
670.371	4416.79
670.563	4293.91
670.754	4293.91
670.945	4365.59
671.136	4349.2
671.327	4220.18
671.518	4291.86
671.709	4191.51
671.9	4291.86
672.091	4103.45
672.282	4046.1
672.473	4261.14
672.664	4140.31
672.855	4168.98
673.046	4226.32
673.237	4111.64
673.428	4070.68
673.619	4099.35
673.809	4029.72
674	4029.72
674.191	3974.42
674.382	3886.36
674.573	3912.99
674.764	4003.1
674.954	3847.45
675.145	3826.97
675.336	3781.92
675.527	3902.75
675.717	3921.18
675.908	3810.59
676.099	3716.38
676.289	3833.11
676.48	3745.05
676.671	3736.86
676.861	3820.83
677.052	3783.96
677.243	3761.44
677.433	3829.02
677.624	3677.47
677.814	3706.14
678.005	3677.47
678.195	3734.81
678.386	3745.05
678.576	3538.21
678.767	3597.6
678.957	3568.93
679.148	3661.09
679.338	3474.72
679.529	3611.93
679.719	3562.78
679.909	3720.48
680.1	3523.87
680.29	3669.28
680.481	3564.83
680.671	3491.1
680.861	3489.06
681.052	3530.02
681.242	3489.06
681.432	3513.63
681.622	3357.99
681.813	3411.23
682.003	3304.74
682.193	3441.95
682.383	3396.9
682.573	3429.66
682.764	3271.97
682.954	3280.16
683.144	3466.53
683.334	3325.22
683.524	3325.22
683.714	3329.31
683.904	3179.81
684.094	3378.47
684.284	3255.59
684.474	3202.34
684.664	3325.22
684.854	3175.72
685.044	3251.49
685.234	3288.36
685.424	3261.73
685.614	3099.94
685.804	3237.16
685.994	3161.38
686.184	3271.97
686.374	3104.04
686.564	3054.89
686.753	3056.93
686.943	3079.46
687.133	3151.14
687.323	3026.22
687.513	3140.9
687.702	3054.89
687.892	3063.08
688.082	3067.17
688.272	3038.5
688.461	2932.01
688.651	2911.53
688.841	2899.24
689.03	3007.78
689.22	2966.82
689.41	2925.86
689.599	2919.72
689.789	3026.22
689.979	2989.35
690.168	2843.95
690.358	2925.86
690.547	2958.63
690.737	2891.05
690.926	2884.91
691.116	2753.84
691.305	2823.47
691.495	2817.32
691.684	2747.69
691.874	2680.11
692.063	2735.4
692.252	2698.54
692.442	2825.51
692.631	2727.21
692.82	2608.43
693.01	2723.12
693.199	2641.2
693.388	2778.41
693.578	2669.87
693.767	2590
693.956	2579.76
694.146	2614.57
694.335	2587.95
694.524	2573.61
694.713	2702.64
694.902	2526.51
695.092	2620.72
695.281	2577.71
695.47	2565.42
695.659	2579.76
695.848	2528.56
696.037	2436.4
696.226	2508.08
696.415	2534.7
696.604	2596.14
696.793	2481.46
696.982	2510.13
697.171	2428.21
697.36	2467.12
697.549	2465.07
697.738	2440.5
697.927	2374.96
698.116	2495.79
698.305	2358.58
698.494	2452.78
698.683	2442.54
698.872	2475.31
699.061	2352.43
699.25	2399.54
699.438	2393.39
699.627	2350.39
699.816	2452.78
700.005	2338.1
700.193	2372.91
700.382	2334
700.571	2309.43
700.76	2321.71
700.948	2393.39
701.137	2342.19
701.326	2358.58
701.514	2227.51
701.703	2362.67
701.892	2288.95
702.08	2352.43
702.269	2334
702.457	2239.8
702.646	2385.2
702.834	2350.39
703.023	2315.57
703.212	2252.08
703.4	2334
703.589	2172.21
703.777	2247.99
703.965	2170.16
704.154	2233.65
704.342	2200.88
704.531	2370.87
704.719	2204.98
704.907	2301.23
705.096	2260.27
705.284	2149.68
705.472	2305.33
705.661	2178.36
705.849	2299.19
706.037	2215.22
706.226	2233.65
706.414	2231.6
706.602	2190.64
706.79	2280.75
706.979	2221.36
707.167	2217.27
707.355	2176.31
707.543	2247.99
707.731	2276.66
707.919	2268.47
708.107	2121.01
708.296	2280.75
708.484	2211.12
708.672	2088.25
708.86	2137.4
709.048	2233.65
709.236	2268.47
709.424	2116.92
709.612	2254.13
709.8	2180.4
709.988	2204.98
710.176	2170.16
710.364	2231.6
710.551	2223.41
710.739	2086.2
710.927	2129.2
711.115	2116.92
711.303	2178.36
711.491	2211.12
711.679	2147.64
711.866	2211.12
712.054	2188.6
712.242	2172.21
712.43	2278.71
712.617	2147.64
712.805	2182.45
712.993	2118.97
713.181	2092.34
713.368	2067.77
713.556	2215.22
713.744	2112.82
713.931	2227.51
714.119	2229.56
714.306	2260.27
714.494	2141.49
714.682	2145.59
714.869	1983.8
715.057	2108.73
715.244	2080.05
715.432	2245.94
715.619	2227.51
715.807	2106.68
715.994	2145.59
716.182	2075.96
716.369	2147.64
716.556	2133.3
716.744	2166.07
716.931	2073.91
717.119	2092.34
717.306	2026.81
717.493	2211.12
717.681	2145.59
717.868	2104.63
718.055	2133.3
718.242	2098.49
718.43	2213.17
718.617	2106.68
718.804	2088.25
718.991	2170.16
719.179	2157.88
719.366	2030.9
719.553	2039.09
719.74	2151.73
719.927	2129.2
720.114	2094.39
720.301	2063.67
720.488	2131.25
720.676	2063.67
720.863	2104.63
721.05	2129.2
721.237	2102.58
721.424	1928.5
721.611	2178.36
721.798	2080.05
721.985	2047.29
722.172	2161.97
722.358	2047.29
722.545	2065.72
722.732	2051.38
722.919	2178.36
723.106	2041.14
723.293	2018.61
723.48	2080.05
723.667	2086.2
723.853	2139.44
724.04	2135.35
724.227	2000.18
724.414	2075.96
724.6	2116.92
724.787	2088.25
724.974	2102.58
725.161	2100.53
725.347	2116.92
725.534	2198.84
725.72	2219.32
725.907	2186.55
726.094	2047.29
726.28	1957.18
726.467	2137.4
726.653	2108.73
726.84	2049.33
727.027	2153.78
727.213	2071.86
727.4	2041.14
727.586	2133.3
727.773	2010.42
727.959	1998.13
728.145	2035
728.332	2022.71
728.518	2080.05
728.705	2168.12
728.891	2157.88
729.077	2041.14
729.264	2073.91
729.45	2112.82
729.636	2235.7
729.823	2149.68
730.009	2014.52
730.195	2082.1
730.382	2092.34
730.568	2071.86
730.754	2121.01
730.94	2108.73
731.126	2112.82
731.313	2121.01
731.499	2008.37
731.685	2069.81
731.871	1951.03
732.057	2014.52
732.243	2051.38
732.429	1998.13
732.615	2155.83
732.801	2198.84
732.987	2127.16
733.173	2137.4
733.359	2012.47
733.545	2112.82
733.731	2041.14
733.917	2090.29
734.103	2131.25
734.289	2028.85
734.475	1965.37
734.661	2129.2
734.847	1924.41
735.033	1981.75
735.219	2086.2
735.404	1932.6
735.59	1977.66
735.776	2032.95
735.962	2032.95
736.148	2045.24
736.333	2006.33
736.519	2112.82
736.705	1926.46
736.89	2178.36
737.076	2055.48
737.262	2006.33
737.447	2010.42
737.633	1967.42
737.819	2012.47
738.004	2057.53
738.19	1983.8
738.375	1934.65
738.561	2114.87
738.747	2022.71
738.932	1959.22
739.118	1973.56
739.303	2000.18
739.489	1967.42
739.674	2000.18
739.859	1871.16
740.045	1981.75
740.23	1862.97
740.416	1942.84
740.601	1940.79
740.786	2018.61
740.972	1932.6
741.157	1973.56
741.342	1918.26
741.528	1785.15
741.713	1862.97
741.898	1924.41
742.084	1910.07
742.269	1850.68
742.454	1803.58
742.639	1852.73
742.824	1735.99
743.01	1822.01
743.195	1998.13
743.38	1776.95
743.565	1844.54
743.75	1766.71
743.935	1834.3
744.12	1903.93
744.305	1793.34
744.49	1756.47
744.675	1828.15
744.86	1879.35
745.045	1830.2
745.23	1819.96
745.415	1748.28
745.6	1779
745.785	1795.39
745.97	1703.23
746.155	1779
746.34	1715.52
746.525	1697.08
746.71	1735.99
746.895	1756.47
747.079	1686.84
747.264	1649.98
747.449	1752.38
747.634	1662.27
747.819	1709.37
748.003	1660.22
748.188	1649.98
748.373	1580.35
748.557	1715.52
748.742	1641.79
748.927	1615.16
749.111	1582.4
749.296	1697.08
749.481	1512.77
749.665	1533.25
749.85	1559.87
750.034	1547.58
750.219	1613.12
750.404	1523.01
750.588	1439.04
750.773	1461.57
750.957	1498.43
751.141	1508.67
751.326	1596.73
751.51	1441.09
751.695	1486.14
751.879	1418.56
752.064	1518.91
752.248	1359.17
752.432	1463.62
752.617	1436.99
752.801	1402.18
752.985	1295.68
753.17	1418.56
753.354	1418.56
753.538	1502.53
753.722	1295.68
753.907	1453.38
754.091	1424.7
754.275	1318.21
754.459	1449.28
754.643	1416.51
754.828	1334.59
755.012	1391.94
755.196	1385.79
755.38	1205.57
755.564	1248.58
755.748	1181
755.932	1281.35
756.116	1205.57
756.3	1215.81
756.484	1191.24
756.668	1228.1
756.852	1084.74
757.036	1199.43
757.22	1207.62
757.404	1207.62
757.588	1215.81
757.772	1205.57
757.956	1181
758.14	1215.81
758.323	1115.46
758.507	1162.56
758.691	1148.23
758.875	1131.84
759.059	1238.34
759.242	1142.08
759.426	1191.24
759.61	1070.4
759.794	1119.56
759.977	1178.95
760.161	1213.76
760.345	1076.55
760.528	1117.51
760.712	1101.12
760.895	1080.64
761.079	1008.97
761.263	1058.12
761.446	1025.35
761.63	1123.65
761.813	1072.45
761.997	1004.87
762.18	1033.54
762.364	1023.3
762.547	1002.82
762.731	1105.22
762.914	988.49
763.098	1033.54
763.281	986.44
763.464	929.1
763.648	972.1
763.831	1033.54
764.015	1066.31
764.198	970.05
764.381	1041.73
764.564	1041.73
764.748	982.34
764.931	1002.82
765.114	955.72
765.297	982.34
765.481	820.55
765.664	935.24
765.847	941.38
766.03	1064.26
766.213	1008.97
766.397	1002.82
766.58	912.71
766.763	1002.82
766.946	879.94
767.129	812.36
767.312	906.57
767.495	920.9
767.678	851.27
767.861	898.38
768.044	869.7
768.227	925
768.41	871.75
768.593	881.99
768.776	925
768.959	898.38
769.142	900.42
769.324	894.28
769.507	847.18
769.69	820.55
769.873	900.42
770.056	968.01
770.239	851.27
770.421	949.57
770.604	894.28
770.787	843.08
770.97	765.26
771.152	779.59
771.335	886.09
771.518	892.23
771.7	843.08
771.883	785.74
772.066	875.85
772.248	822.6
772.431	916.81
772.613	879.94
772.796	744.78
772.978	791.88
773.161	814.41
773.343	836.94
773.526	761.16
773.708	728.39
773.891	740.68
774.073	765.26
774.256	736.59
774.438	752.97
774.621	681.29
774.803	814.41
774.985	738.63
775.168	681.29
775.35	716.11
775.532	736.59
775.715	777.55
775.897	732.49
776.079	679.24
776.261	662.86
776.444	712.01
776.626	804.17
776.808	693.58
776.99	613.71
777.173	646.48
777.355	701.77
777.537	671.05
777.719	623.95
777.901	642.38
778.083	638.28
778.265	609.61
778.447	765.26
778.629	654.67
778.811	605.52
778.993	650.57
779.175	687.43
779.357	595.28
779.539	574.8
779.721	605.52
779.903	585.04
780.085	531.79
780.267	628.04
780.449	642.38
780.631	630.09
780.812	595.28
780.994	525.65
781.176	605.52
781.358	632.14
781.54	597.32
781.721	568.65
781.903	605.52
782.085	535.89
782.267	570.7
782.448	503.12
782.63	470.35
782.812	499.02
782.993	499.02
783.175	544.08
783.357	451.92
783.538	445.77
783.72	490.83
783.901	484.69
784.083	503.12
784.264	488.78
784.446	501.07
784.627	458.06
784.809	484.69
784.99	507.21
785.172	523.6
785.353	445.77
785.535	482.64
785.716	462.16
785.897	419.15
786.079	431.44
786.26	501.07
786.441	490.83
786.623	408.91
786.804	384.34
786.985	427.34
787.167	458.06
787.348	361.81
787.529	400.72
787.71	470.35
787.891	441.68
788.073	437.58
788.254	435.53
788.435	474.45
788.616	429.39
788.797	441.68
788.978	304.46
789.159	427.34
789.34	413.01
789.522	382.29
789.703	320.85
789.884	394.58
790.065	361.81
790.246	367.95
790.427	351.57
790.607	425.29
790.788	410.96
790.969	318.8
791.15	367.95
791.331	290.13
791.512	376.14
791.693	249.17
791.874	310.61
792.054	367.95
792.235	384.34
792.416	392.53
792.597	351.57
792.778	380.24
792.958	376.14
793.139	283.99
793.32	400.72
793.5	308.56
793.681	288.08
793.862	347.47
794.042	306.51
794.223	337.23
794.404	318.8
794.584	232.79
794.765	337.23
794.945	367.95
795.126	359.76
795.306	339.28
795.487	329.04
795.667	351.57
795.848	273.75
796.028	286.03
796.209	288.08
796.389	326.99
796.57	298.32
796.75	339.28
796.93	240.98
797.111	226.64
797.291	269.65
797.471	302.42
797.652	195.92
797.832	200.02
798.012	359.76
798.192	269.65
798.373	261.46
798.553	253.27
798.733	310.61
798.913	220.5
799.093	197.97
799.274	298.32
799.454	195.92
799.634	265.55
799.814	269.65
799.994	240.98
800.174	195.92
800.354	251.22
800.534	228.69
800.714	267.6
800.894	243.03
801.074	195.92
801.254	277.84
801.434	240.98
801.614	204.11
801.794	195.92
801.974	855.37
802.154	247.12
802.334	220.5
802.514	197.97
802.693	165.2
802.873	195.92
803.053	253.27
803.233	171.35
803.413	294.22
803.592	214.35
803.772	220.5
803.952	216.4
804.131	126.29
804.311	236.88
804.491	255.31
804.67	181.59
804.85	140.63
805.03	189.78
805.209	240.98
805.389	228.69
805.568	148.82
805.748	200.02
805.928	181.59
806.107	243.03
806.287	126.29
806.466	197.97
806.646	220.5
806.825	255.31
807.004	247.12
807.184	212.31
807.363	197.97
807.543	222.55
807.722	204.11
807.901	185.68
808.081	216.4
808.26	134.48
808.439	222.55
808.619	157.01
808.798	208.21
808.977	124.24
809.156	161.11
809.336	163.15
809.515	140.63
809.694	138.58
809.873	165.2
810.052	171.35
810.231	195.92
810.411	116.05
810.59	202.07
810.769	202.07
810.948	159.06
811.127	206.16
811.306	154.96
811.485	183.63
811.664	290.13
811.843	73.04
812.022	130.39
812.201	165.2
812.38	124.24
812.559	163.15
812.737	179.54
812.916	107.86
813.095	109.91
813.274	146.77
813.453	116.05
813.632	187.73
813.811	206.16
813.989	89.43
814.168	224.59
814.347	154.96
814.526	187.73
814.704	187.73
814.883	212.31
815.062	128.34
815.24	165.2
815.419	159.06
815.598	169.3
815.776	107.86
815.955	154.96
816.133	130.39
816.312	185.68
816.49	171.35
816.669	157.01
816.847	204.11
817.026	251.22
817.204	114
817.383	138.58
817.561	165.2
817.74	107.86
817.918	91.48
818.097	150.87
818.275	97.62
818.453	114
818.632	146.77
818.81	154.96
818.988	81.24
819.167	118.1
819.345	138.58
819.523	83.28
819.701	105.81
819.879	150.87
820.058	107.86
820.236	171.35
820.414	187.73
820.592	144.72
820.77	124.24
820.948	91.48
821.127	56.66
821.305	93.52
821.483	52.56
821.661	163.15
821.839	146.77
822.017	83.28
822.195	75.09
822.373	197.97
822.551	163.15
822.729	179.54
822.907	111.96
823.085	185.68
823.262	148.82
823.44	77.14
823.618	75.09
823.796	118.1
823.974	116.05
824.152	114
824.329	77.14
824.507	154.96
824.685	114
824.863	157.01
825.04	128.34
825.218	154.96
825.396	138.58
825.574	150.87
825.751	73.04
825.929	120.15
826.107	91.48
826.284	124.24
826.462	105.81
826.639	83.28
826.817	130.39
826.994	73.04
827.172	7.51
827.349	109.91
827.527	163.15
827.704	36.18
827.882	136.53
828.059	97.62
828.237	146.77
828.414	56.66
828.591	48.47
828.769	40.28
828.946	48.47
829.124	81.24
829.301	130.39
829.478	132.44
829.655	204.11
829.833	91.48
830.01	124.24
830.187	138.58
830.364	62.8
830.542	66.9
830.719	107.86
830.896	107.86
831.073	148.82
831.25	120.15
831.427	64.85
831.604	109.91
831.782	68.95
831.959	130.39
832.136	118.1
832.313	171.35
832.49	68.95
832.667	152.91
832.844	89.43
833.021	50.52
833.198	136.53
833.374	91.48
833.551	114
833.728	95.57
833.905	48.47
834.082	68.95
834.259	56.66
834.436	154.96
834.612	81.24
834.789	68.95
834.966	25.94
835.143	68.95
835.319	3.41
835.496	97.62
835.673	52.56
835.85	114
836.026	42.32
836.203	114
836.38	107.86
836.556	7.51
836.733	34.13
836.909	97.62
837.086	66.9
837.262	17.75
837.439	40.28
837.616	36.18
837.792	3.41
837.968	-0.68
838.145	48.47
838.321	38.23
838.498	109.91
838.674	40.28
838.851	7.51
839.027	42.32
839.203	44.37
839.38	91.48
839.556	91.48
839.732	99.67
839.909	3.41
840.085	32.08
840.261	15.7
840.437	48.47
840.614	60.76
840.79	140.63
840.966	40.28
841.142	34.13
841.318	11.61
841.494	97.62
841.671	105.81
841.847	62.8
842.023	77.14
842.199	75.09
842.375	42.32
842.551	32.08
842.727	40.28
842.903	79.19
843.079	23.89
843.255	128.34
843.431	42.32
843.607	50.52
843.783	36.18
843.959	30.04
844.134	-6.83
844.31	36.18
844.486	52.56
844.662	36.18
844.838	-8.87
845.013	73.04
845.189	81.24
845.365	105.81
845.541	1.37
845.716	56.66
845.892	52.56
846.068	42.32
846.244	15.7
846.419	165.2
846.595	32.08
846.77	58.71
846.946	3.41
847.122	99.67
847.297	48.47
847.473	126.29
847.648	-37.55
847.824	1.37
847.999	-2.73
848.175	-6.83
848.35	85.33
848.526	9.56
848.701	25.94
848.876	60.76
849.052	89.43
849.227	1.37
849.403	19.8
849.578	109.91
849.753	46.42
849.929	46.42
850.104	7.51
850.279	-8.87
850.454	3.41
850.63	85.33
850.805	3.41
850.98	163.15
851.155	48.47
851.33	75.09
851.505	-31.4
851.681	64.85
851.856	-17.07
852.031	85.33
852.206	68.95
852.381	-15.02
852.556	32.08
852.731	56.66
852.906	161.11
853.081	44.37
853.256	40.28
853.431	83.28
853.606	60.76
853.781	23.89
853.956	19.8
854.131	77.14
854.305	79.19
854.48	-8.87
854.655	75.09
854.83	64.85
855.005	38.23
855.18	89.43
855.354	40.28
855.529	36.18
855.704	17.75
855.879	130.39
856.053	-12.97
856.228	32.08
856.403	85.33
856.577	30.04
856.752	-23.21
856.926	40.28
857.101	60.76
857.276	-17.07
857.45	11.61
857.625	-12.97
857.799	5.46
857.974	15.7
858.148	23.89
858.323	23.89
858.497	73.04
858.672	9.56
858.846	7.51
859.02	134.48
859.195	30.04
859.369	-0.68
859.543	15.7
859.718	64.85
859.892	81.24
860.066	50.52
860.241	19.8
860.415	-58.03
860.589	73.04
860.763	-8.87
860.938	-8.87
861.112	71
861.286	40.28
861.46	48.47
861.634	-29.35
861.808	68.95
861.982	-47.79
862.157	73.04
862.331	-10.92
862.505	-17.07
862.679	-4.78
862.853	-21.16
863.027	42.32
863.201	122.2
863.375	-0.68
863.549	-0.68
863.722	-15.02
863.896	97.62
864.07	66.9
864.244	30.04
864.418	73.04
864.592	79.19
864.766	-17.07
864.939	58.71
865.113	19.8
865.287	64.85
865.461	-6.83
865.634	-4.78
865.808	-6.83
865.982	11.61
866.156	9.56
866.329	87.38
866.503	-43.69
866.676	-12.97
866.85	66.9
867.024	60.76
867.197	48.47
867.371	50.52
867.544	36.18
867.718	11.61
867.891	17.75
868.065	-15.02
868.238	15.7
868.412	32.08
868.585	30.04
868.759	1.37
868.932	9.56
869.105	21.85
869.279	-25.26
869.452	-6.83
869.625	48.47
869.799	122.2
869.972	9.56
870.145	-47.79
870.319	48.47
870.492	25.94
870.665	3.41
870.838	-35.5
871.011	-58.03
871.185	32.08
871.358	44.37
871.531	3.41
871.704	42.32
871.877	44.37
872.05	1.37
872.223	-0.68
872.396	32.08
872.569	68.95
872.742	-66.22
872.915	13.65
873.088	25.94
873.261	-23.21
873.434	50.52
873.607	-41.64
873.78	25.94
873.953	40.28
874.126	44.37
874.299	19.8
874.471	34.13
874.644	5.46
874.817	23.89
874.99	19.8
875.163	38.23
875.335	-8.87
875.508	11.61
875.681	138.58
875.853	19.8
876.026	54.61
876.199	40.28
876.371	-31.4
876.544	9.56
876.717	7.51
876.889	1.37
877.062	-6.83
877.234	11.61
877.407	11.61
877.579	-21.16
877.752	34.13
877.924	-66.22
878.097	-25.26
878.269	46.42
878.442	23.89
878.614	32.08
878.786	58.71
878.959	-10.92
879.131	-31.4
879.303	-82.6
879.476	3.41
879.648	85.33
879.82	-17.07
879.993	15.7
880.165	19.8
880.337	5.46
880.509	23.89
880.681	23.89
880.854	9.56
881.026	75.09
881.198	25.94
881.37	-23.21
881.542	23.89
881.714	27.99
881.886	-25.26
882.058	62.8
882.23	-41.64
882.402	-39.59
882.574	-6.83
882.746	9.56
882.918	167.25
883.09	3.41
883.262	25.94
883.434	36.18
883.606	-15.02
883.778	-58.03
883.95	91.48
884.122	-0.68
884.293	68.95
884.465	-84.65
884.637	34.13
884.809	-6.83
884.98	11.61
885.152	21.85
885.324	23.89
885.496	89.43
885.667	50.52
885.839	-12.97
886.011	7.51
886.182	-12.97
886.354	-0.68
886.525	-39.59
886.697	5.46
886.869	40.28
887.04	62.8
887.212	-8.87
887.383	48.47
887.555	1.37
887.726	-27.31
887.897	40.28
888.069	15.7
888.24	32.08
888.412	-12.97
888.583	15.7
888.754	23.89
888.926	-72.36
889.097	109.91
889.268	-39.59
889.44	40.28
889.611	-8.87
889.782	-41.64
889.953	-17.07
890.125	-49.83
890.296	-17.07
890.467	36.18
890.638	30.04
890.809	3.41
890.98	-33.45
891.151	23.89
891.323	13.65
891.494	-31.4
891.665	36.18
891.836	1.37
892.007	-10.92
892.178	32.08
892.349	99.67
892.52	5.46
892.691	-41.64
892.862	-33.45
893.032	-55.98
893.203	-6.83
893.374	-43.69
893.545	50.52
893.716	21.85
893.887	11.61
894.057	9.56
894.228	-17.07
894.399	-41.64
894.57	58.71
894.74	-4.78
894.911	-55.98
895.082	32.08
895.253	-0.68
895.423	23.89
895.594	30.04
895.764	64.85
895.935	56.66
896.106	-37.55
896.276	64.85
896.447	-6.83
896.617	15.7
896.788	-33.45
896.958	19.8
897.129	34.13
897.299	48.47
897.47	1.37
897.64	58.71
897.81	-37.55
897.981	75.09
898.151	-17.07
898.322	11.61
898.492	40.28
898.662	-25.26
898.832	-60.07
899.003	-8.87
899.173	75.09
899.343	58.71
899.513	-45.74
