Data from USB4F104151__94__14-43-36-474.txt Node

Date: Thu Mar 13 14:43:36 EDT 2025
User: louis
Spectrometer: USB4F10415
Trigger mode: 4
Integration Time (sec): 2.000000E-2
Scans to average: 1
Electric dark correction enabled: true
Nonlinearity correction enabled: false
Boxcar width: 0
XAxis mode: Wavelengths
Number of Pixels in Spectrum: 3648
>>>>>Begin Spectral Data<<<<<
178.204	-135.34
178.424	-135.34
178.644	-135.34
178.864	-151.72
179.084	-145.58
179.304	30.55
179.524	-2.22
179.744	-20.65
179.964	85.84
180.184	32.6
180.404	26.45
180.624	-20.65
180.844	-26.79
181.064	-51.37
181.283	-20.65
181.503	-4.27
181.723	-28.84
181.943	-147.62
182.163	106.32
182.383	-2.22
182.602	-4.27
182.822	3.93
183.042	81.75
183.262	-34.99
183.482	53.08
183.701	-73.9
183.921	28.5
184.141	-55.47
184.361	16.21
184.58	-12.46
184.8	-2.22
185.02	-37.03
185.239	38.74
185.459	44.88
185.679	85.84
185.898	-2.22
186.118	-0.17
186.338	-84.14
186.557	85.84
186.777	3.93
186.997	3.93
187.216	44.88
187.436	32.6
187.655	-12.46
187.875	-45.23
188.095	16.21
188.314	28.5
188.534	71.51
188.753	3.93
188.973	100.18
189.192	69.46
189.412	-12.46
189.631	-0.17
189.851	-16.55
190.07	71.51
190.29	1.88
190.509	44.88
190.729	8.02
190.948	71.51
191.168	159.57
191.387	-20.65
191.607	14.17
191.826	20.31
192.045	5.97
192.265	10.07
192.484	77.65
192.704	63.32
192.923	-61.61
193.142	40.79
193.362	3.93
193.581	110.42
193.8	-51.37
194.02	28.5
194.239	8.02
194.458	-4.27
194.678	-4.27
194.897	22.36
195.116	8.02
195.335	65.36
195.555	69.46
195.774	53.08
195.993	77.65
196.212	-18.6
196.432	42.84
196.651	10.07
196.87	30.55
197.089	94.04
197.308	-0.17
197.528	30.55
197.747	18.26
197.966	-16.55
198.185	40.79
198.404	20.31
198.623	38.74
198.842	-2.22
199.062	36.69
199.281	79.7
199.5	22.36
199.719	-32.94
199.938	40.79
200.157	48.98
200.376	20.31
200.595	16.21
200.814	-10.41
201.033	-6.31
201.252	38.74
201.471	55.12
201.69	-4.27
201.909	102.23
202.128	-104.62
202.347	48.98
202.566	-16.55
202.785	-10.41
203.004	-32.94
203.223	110.42
203.442	63.32
203.661	-4.27
203.879	-41.13
204.098	38.74
204.317	42.84
204.536	28.5
204.755	87.89
204.974	73.56
205.193	3.93
205.411	69.46
205.63	-0.17
205.849	81.75
206.068	5.97
206.287	32.6
206.505	20.31
206.724	-0.17
206.943	-16.55
207.162	5.97
207.381	10.07
207.599	-4.27
207.818	-6.31
208.037	12.12
208.255	-10.41
208.474	61.27
208.693	36.69
208.911	-28.84
209.13	96.08
209.349	85.84
209.567	22.36
209.786	-26.79
210.005	59.22
210.223	83.8
210.442	-22.7
210.661	16.21
210.879	-32.94
211.098	63.32
211.316	59.22
211.535	-12.46
211.753	20.31
211.972	-20.65
212.191	34.64
212.409	91.99
212.628	-39.08
212.846	16.21
213.065	30.55
213.283	44.88
213.502	-73.9
213.72	38.74
213.938	-0.17
214.157	57.17
214.375	20.31
214.594	-45.23
214.812	67.41
215.031	-4.27
215.249	-18.6
215.467	12.12
215.686	79.7
215.904	94.04
216.122	-67.75
216.341	77.65
216.559	-16.55
216.778	-6.31
216.996	63.32
217.214	14.17
217.432	38.74
217.651	53.08
217.869	44.88
218.087	-73.9
218.306	-24.75
218.524	44.88
218.742	36.69
218.96	-34.99
219.179	-8.36
219.397	1.88
219.615	5.97
219.833	77.65
220.051	-4.27
220.27	89.94
220.488	16.21
220.706	91.99
220.924	40.79
221.142	36.69
221.36	46.93
221.578	44.88
221.796	-20.65
222.015	-90.28
222.233	-4.27
222.451	48.98
222.669	-108.71
222.887	44.88
223.105	-20.65
223.323	14.17
223.541	-0.17
223.759	5.97
223.977	-34.99
224.195	44.88
224.413	-37.03
224.631	44.88
224.849	87.89
225.067	36.69
225.285	-10.41
225.503	32.6
225.721	-49.32
225.939	-12.46
226.157	28.5
226.375	100.18
226.592	69.46
226.81	32.6
227.028	26.45
227.246	24.4
227.464	12.12
227.682	28.5
227.9	10.07
228.117	28.5
228.335	-32.94
228.553	73.56
228.771	-8.36
228.989	-4.27
229.206	-16.55
229.424	-10.41
229.642	-14.51
229.86	44.88
230.077	30.55
230.295	94.04
230.513	55.12
230.731	69.46
230.948	85.84
231.166	61.27
231.384	3.93
231.601	-12.46
231.819	3.93
232.037	42.84
232.254	-26.79
232.472	-16.55
232.689	10.07
232.907	3.93
233.125	-20.65
233.342	69.46
233.56	-67.75
233.777	5.97
233.995	53.08
234.213	57.17
234.43	36.69
234.648	-67.75
234.865	3.93
235.083	18.26
235.3	-8.36
235.518	-8.36
235.735	8.02
235.953	30.55
236.17	34.64
236.388	44.88
236.605	89.94
236.822	46.93
237.04	46.93
237.257	12.12
237.475	-32.94
237.692	69.46
237.909	12.12
238.127	89.94
238.344	12.12
238.562	-12.46
238.779	-8.36
238.996	-30.89
239.214	28.5
239.431	46.93
239.648	26.45
239.865	3.93
240.083	28.5
240.3	-20.65
240.517	-39.08
240.735	44.88
240.952	51.03
241.169	73.56
241.386	44.88
241.603	48.98
241.821	-8.36
242.038	69.46
242.255	61.27
242.472	5.97
242.689	-8.36
242.907	63.32
243.124	-16.55
243.341	-41.13
243.558	24.4
243.775	-37.03
243.992	-20.65
244.209	46.93
244.426	55.12
244.643	46.93
244.86	71.51
245.078	-24.75
245.295	94.04
245.512	-4.27
245.729	12.12
245.946	55.12
246.163	8.02
246.38	14.17
246.597	57.17
246.814	51.03
247.031	3.93
247.248	63.32
247.464	69.46
247.681	53.08
247.898	24.4
248.115	-45.23
248.332	44.88
248.549	-28.84
248.766	55.12
248.983	-4.27
249.2	-2.22
249.417	61.27
249.633	3.93
249.85	8.02
250.067	44.88
250.284	94.04
250.501	-12.46
250.717	53.08
250.934	-26.79
251.151	38.74
251.368	-8.36
251.585	110.42
251.801	-37.03
252.018	46.93
252.235	5.97
252.451	-20.65
252.668	10.07
252.885	-28.84
253.102	3.93
253.318	44.88
253.535	28.5
253.752	-28.84
253.968	16.21
254.185	-10.41
254.401	44.88
254.618	-4.27
254.835	26.45
255.051	-6.31
255.268	75.6
255.484	-59.56
255.701	-4.27
255.917	44.88
256.134	-39.08
256.351	-22.7
256.567	-12.46
256.784	14.17
257	-67.75
257.217	36.69
257.433	-10.41
257.65	57.17
257.866	-4.27
258.082	3.93
258.299	44.88
258.515	44.88
258.732	-26.79
258.948	-43.18
259.165	61.27
259.381	28.5
259.597	26.45
259.814	3.93
260.03	-0.17
260.246	-26.79
260.463	-16.55
260.679	77.65
260.895	14.17
261.112	57.17
261.328	-26.79
261.544	-10.41
261.761	155.47
261.977	-10.41
262.193	3.93
262.409	28.5
262.626	67.41
262.842	51.03
263.058	-32.94
263.274	12.12
263.49	20.31
263.707	77.65
263.923	20.31
264.139	-73.9
264.355	36.69
264.571	38.74
264.787	44.88
265.004	94.04
265.22	-14.51
265.436	26.45
265.652	14.17
265.868	28.5
266.084	-53.42
266.3	73.56
266.516	-4.27
266.732	-12.46
266.948	12.12
267.164	30.55
267.38	-6.31
267.596	10.07
267.812	20.31
268.028	57.17
268.244	-39.08
268.46	-80.04
268.676	83.8
268.892	-28.84
269.108	-41.13
269.324	-2.22
269.54	-69.8
269.756	61.27
269.972	-12.46
270.188	77.65
270.403	-59.56
270.619	34.64
270.835	36.69
271.051	-10.41
271.267	77.65
271.483	61.27
271.698	30.55
271.914	63.32
272.13	-39.08
272.346	28.5
272.562	53.08
272.777	46.93
272.993	36.69
273.209	46.93
273.425	14.17
273.64	-20.65
273.856	14.17
274.072	8.02
274.287	-0.17
274.503	28.5
274.719	24.4
274.934	22.36
275.15	22.36
275.366	46.93
275.581	-98.47
275.797	18.26
276.012	-32.94
276.228	1.88
276.444	71.51
276.659	5.97
276.875	3.93
277.09	-26.79
277.306	3.93
277.521	5.97
277.737	28.5
277.952	85.84
278.168	-45.23
278.383	69.46
278.599	28.5
278.814	40.79
279.03	5.97
279.245	85.84
279.461	63.32
279.676	77.65
279.892	-61.61
280.107	8.02
280.322	-55.47
280.538	5.97
280.753	-53.42
280.969	53.08
281.184	12.12
281.399	55.12
281.615	40.79
281.83	-8.36
282.045	-53.42
282.26	-67.75
282.476	44.88
282.691	71.51
282.906	57.17
283.122	-0.17
283.337	38.74
283.552	-14.51
283.767	79.7
283.983	5.97
284.198	-45.23
284.413	3.93
284.628	-53.42
284.843	-20.65
285.058	69.46
285.274	-26.79
285.489	20.31
285.704	67.41
285.919	-41.13
286.134	-53.42
286.349	-71.85
286.564	-0.17
286.779	8.02
286.995	5.97
287.21	40.79
287.425	12.12
287.64	57.17
287.855	-45.23
288.07	34.64
288.285	71.51
288.5	81.75
288.715	20.31
288.93	8.02
289.145	-49.32
289.36	65.36
289.575	65.36
289.79	85.84
290.004	44.88
290.219	51.03
290.434	-10.41
290.649	-75.95
290.864	65.36
291.079	14.17
291.294	36.69
291.509	30.55
291.724	18.26
291.938	81.75
292.153	12.12
292.368	10.07
292.583	110.42
292.798	28.5
293.012	-12.46
293.227	-10.41
293.442	65.36
293.657	94.04
293.871	79.7
294.086	20.31
294.301	71.51
294.516	94.04
294.73	44.88
294.945	-41.13
295.16	38.74
295.374	53.08
295.589	96.08
295.804	-37.03
296.018	28.5
296.233	34.64
296.447	-0.17
296.662	-20.65
296.877	8.02
297.091	44.88
297.306	3.93
297.52	-34.99
297.735	42.84
297.949	30.55
298.164	38.74
298.378	-10.41
298.593	-37.03
298.807	102.23
299.022	-37.03
299.236	16.21
299.451	12.12
299.665	3.93
299.88	57.17
300.094	-37.03
300.309	-47.27
300.523	20.31
300.737	32.6
300.952	53.08
301.166	59.22
301.381	-0.17
301.595	48.98
301.809	38.74
302.024	-0.17
302.238	-18.6
302.452	57.17
302.667	24.4
302.881	3.93
303.095	81.75
303.309	104.28
303.524	36.69
303.738	77.65
303.952	-10.41
304.166	-0.17
304.381	-57.51
304.595	126.8
304.809	-32.94
305.023	-53.42
305.237	24.4
305.452	73.56
305.666	34.64
305.88	46.93
306.094	-20.65
306.308	8.02
306.522	85.84
306.736	24.4
306.95	36.69
307.164	-12.46
307.379	42.84
307.593	-12.46
307.807	22.36
308.021	20.31
308.235	-8.36
308.449	69.46
308.663	-43.18
308.877	102.23
309.091	-16.55
309.305	36.69
309.519	-82.09
309.733	28.5
309.947	-10.41
310.161	36.69
310.374	69.46
310.588	87.89
310.802	-20.65
311.016	65.36
311.23	-28.84
311.444	22.36
311.658	26.45
311.872	-59.56
312.085	85.84
312.299	-2.22
312.513	55.12
312.727	-20.65
312.941	77.65
313.154	16.21
313.368	-65.71
313.582	38.74
313.796	3.93
314.009	3.93
314.223	44.88
314.437	22.36
314.651	-65.71
314.864	-26.79
315.078	-4.27
315.292	22.36
315.505	20.31
315.719	71.51
315.933	-0.17
316.146	12.12
316.36	44.88
316.573	106.32
316.787	20.31
317.001	53.08
317.214	22.36
317.428	73.56
317.641	-96.43
317.855	12.12
318.068	46.93
318.282	16.21
318.495	-0.17
318.709	59.22
318.922	3.93
319.136	3.93
319.349	65.36
319.563	36.69
319.776	40.79
319.99	-12.46
320.203	10.07
320.417	46.93
320.63	51.03
320.843	38.74
321.057	44.88
321.27	28.5
321.483	26.45
321.697	14.17
321.91	38.74
322.124	20.31
322.337	16.21
322.55	22.36
322.763	-30.89
322.977	48.98
323.19	-28.84
323.403	75.6
323.617	22.36
323.83	44.88
324.043	55.12
324.256	-4.27
324.469	-18.6
324.683	26.45
324.896	-14.51
325.109	10.07
325.322	-20.65
325.535	20.31
325.748	102.23
325.962	1.88
326.175	55.12
326.388	-2.22
326.601	-16.55
326.814	18.26
327.027	-10.41
327.24	79.7
327.453	44.88
327.666	30.55
327.879	-20.65
328.092	38.74
328.305	-53.42
328.518	77.65
328.731	20.31
328.944	28.5
329.157	61.27
329.37	22.36
329.583	100.18
329.796	-4.27
330.009	-114.86
330.222	10.07
330.435	71.51
330.648	20.31
330.861	32.6
331.073	14.17
331.286	36.69
331.499	-24.75
331.712	8.02
331.925	-43.18
332.138	61.27
332.35	18.26
332.563	-16.55
332.776	91.99
332.989	-2.22
333.202	48.98
333.414	61.27
333.627	87.89
333.84	32.6
334.053	87.89
334.265	20.31
334.478	14.17
334.691	-57.51
334.903	28.5
335.116	-59.56
335.329	69.46
335.541	73.56
335.754	55.12
335.966	-2.22
336.179	5.97
336.392	12.12
336.604	-10.41
336.817	51.03
337.029	-8.36
337.242	1.88
337.454	-61.61
337.667	-65.71
337.88	83.8
338.092	48.98
338.305	32.6
338.517	3.93
338.729	36.69
338.942	28.5
339.154	8.02
339.367	16.21
339.579	118.61
339.792	-4.27
340.004	53.08
340.217	32.6
340.429	5.97
340.641	1.88
340.854	-45.23
341.066	-10.41
341.278	40.79
341.491	63.32
341.703	26.45
341.915	-41.13
342.128	114.52
342.34	-57.51
342.552	20.31
342.764	12.12
342.977	-6.31
343.189	79.7
343.401	22.36
343.613	-32.94
343.826	36.69
344.038	28.5
344.25	34.64
344.462	3.93
344.674	-4.27
344.886	22.36
345.099	55.12
345.311	53.08
345.523	12.12
345.735	38.74
345.947	26.45
346.159	-39.08
346.371	53.08
346.583	48.98
346.795	65.36
347.007	-28.84
347.219	-0.17
347.431	-16.55
347.643	44.88
347.855	51.03
348.067	36.69
348.279	32.6
348.491	22.36
348.703	-12.46
348.915	-30.89
349.127	5.97
349.339	46.93
349.551	-26.79
349.763	44.88
349.975	-12.46
350.187	36.69
350.399	118.61
350.61	94.04
350.822	-2.22
351.034	-32.94
351.246	36.69
351.458	36.69
351.669	38.74
351.881	94.04
352.093	61.27
352.305	85.84
352.517	61.27
352.728	-10.41
352.94	63.32
353.152	61.27
353.363	46.93
353.575	94.04
353.787	91.99
353.999	102.23
354.21	36.69
354.422	-59.56
354.633	-4.27
354.845	12.12
355.057	40.79
355.268	55.12
355.48	12.12
355.692	38.74
355.903	30.55
356.115	-59.56
356.326	-12.46
356.538	87.89
356.749	20.31
356.961	53.08
357.172	12.12
357.384	-26.79
357.595	75.6
357.807	65.36
358.018	44.88
358.23	44.88
358.441	79.7
358.653	53.08
358.864	28.5
359.075	53.08
359.287	59.22
359.498	28.5
359.709	16.21
359.921	28.5
360.132	38.74
360.344	-61.61
360.555	-32.94
360.766	22.36
360.977	26.45
361.189	61.27
361.4	30.55
361.611	106.32
361.823	24.4
362.034	44.88
362.245	-10.41
362.456	61.27
362.667	28.5
362.879	3.93
363.09	28.5
363.301	12.12
363.512	-12.46
363.723	-4.27
363.935	30.55
364.146	38.74
364.357	-20.65
364.568	28.5
364.779	-82.09
364.99	55.12
365.201	20.31
365.412	79.7
365.623	-102.57
365.834	44.88
366.045	16.21
366.256	46.93
366.467	104.28
366.678	77.65
366.889	63.32
367.1	28.5
367.311	48.98
367.522	-34.99
367.733	30.55
367.944	44.88
368.155	28.5
368.366	-10.41
368.577	5.97
368.788	48.98
368.999	77.65
369.209	1.88
369.42	-20.65
369.631	94.04
369.842	77.65
370.053	69.46
370.264	77.65
370.474	-32.94
370.685	20.31
370.896	102.23
371.107	114.52
371.317	69.46
371.528	-20.65
371.739	57.17
371.95	104.28
372.16	55.12
372.371	69.46
372.582	-51.37
372.792	24.4
373.003	71.51
373.214	-16.55
373.424	55.12
373.635	12.12
373.846	79.7
374.056	36.69
374.267	94.04
374.477	61.27
374.688	-26.79
374.898	69.46
375.109	-18.6
375.319	63.32
375.53	126.8
375.74	28.5
375.951	12.12
376.161	-45.23
376.372	-10.41
376.582	61.27
376.793	5.97
377.003	36.69
377.214	-20.65
377.424	-41.13
377.635	63.32
377.845	8.02
378.055	69.46
378.266	3.93
378.476	26.45
378.686	36.69
378.897	36.69
379.107	-51.37
379.317	67.41
379.528	77.65
379.738	-12.46
379.948	5.97
380.158	40.79
380.369	5.97
380.579	24.4
380.789	46.93
380.999	85.84
381.21	38.74
381.42	126.8
381.63	-8.36
381.84	44.88
382.05	12.12
382.261	44.88
382.471	46.93
382.681	-32.94
382.891	122.71
383.101	30.55
383.311	-57.51
383.521	20.31
383.731	40.79
383.941	75.6
384.151	61.27
384.361	12.12
384.571	73.56
384.781	118.61
384.991	40.79
385.201	44.88
385.411	102.23
385.621	96.08
385.831	12.12
386.041	-4.27
386.251	20.31
386.461	57.17
386.671	61.27
386.881	3.93
387.091	44.88
387.301	-16.55
387.511	51.03
387.72	32.6
387.93	53.08
388.14	-28.84
388.35	57.17
388.56	85.84
388.769	48.98
388.979	53.08
389.189	3.93
389.399	57.17
389.609	71.51
389.818	32.6
390.028	81.75
390.238	30.55
390.447	1.88
390.657	51.03
390.867	-0.17
391.076	71.51
391.286	55.12
391.496	48.98
391.705	32.6
391.915	57.17
392.125	79.7
392.334	10.07
392.544	71.51
392.753	53.08
392.963	94.04
393.172	63.32
393.382	-45.23
393.591	200.53
393.801	12.12
394.01	14.17
394.22	91.99
394.429	-37.03
394.639	55.12
394.848	102.23
395.058	59.22
395.267	128.85
395.477	139.09
395.686	89.94
395.895	85.84
396.105	155.47
396.314	69.46
396.524	32.6
396.733	-6.31
396.942	61.27
397.152	122.71
397.361	83.8
397.57	71.51
397.78	10.07
397.989	48.98
398.198	182.1
398.407	16.21
398.617	36.69
398.826	22.36
399.035	77.65
399.244	73.56
399.453	139.09
399.663	94.04
399.872	135
400.081	-37.03
400.29	104.28
400.499	38.74
400.708	81.75
400.917	63.32
401.127	79.7
401.336	42.84
401.545	192.34
401.754	85.84
401.963	81.75
402.172	147.28
402.381	75.6
402.59	102.23
402.799	100.18
403.008	163.67
403.217	104.28
403.426	69.46
403.635	102.23
403.844	128.85
404.053	73.56
404.262	104.28
404.471	130.9
404.68	171.86
404.888	85.84
405.097	161.62
405.306	167.76
405.515	178
405.724	135
405.933	163.67
406.142	143.19
406.35	169.81
406.559	135
406.768	165.71
406.977	94.04
407.185	202.58
407.394	214.87
407.603	104.28
407.812	192.34
408.02	145.24
408.229	124.76
408.438	204.63
408.646	218.96
408.855	229.2
409.064	202.58
409.272	208.72
409.481	286.54
409.69	223.06
409.898	261.97
410.107	315.22
410.315	358.22
410.524	245.59
410.733	253.78
410.941	358.22
411.15	374.61
411.358	315.22
411.567	417.61
411.775	368.46
411.984	413.52
412.192	425.81
412.401	397.14
412.609	397.14
412.818	462.67
413.026	522.06
413.234	378.7
413.443	446.29
413.651	446.29
413.86	489.29
414.068	530.25
414.276	524.11
414.485	587.6
414.693	544.59
414.901	597.84
415.11	724.81
415.318	585.55
415.526	661.32
415.734	659.28
415.943	669.52
416.151	646.99
416.359	790.35
416.567	747.34
416.776	757.58
416.984	896.84
417.192	876.36
417.4	814.92
417.608	808.78
417.817	857.93
418.025	982.85
418.233	982.85
418.441	931.66
418.649	1032.01
418.857	1118.02
419.065	1163.08
419.273	1136.45
419.481	1185.6
419.689	1142.6
419.897	1335.1
420.105	1259.33
420.313	1384.26
420.521	1445.7
420.729	1335.1
420.937	1519.42
421.145	1523.52
421.353	1601.34
421.561	1677.12
421.769	1673.02
421.977	1697.6
422.185	1756.99
422.393	1802.04
422.601	1972.02
422.809	2006.84
423.017	1879.86
423.224	2002.74
423.432	2150.2
423.64	2232.12
423.848	2336.56
424.056	2287.41
424.263	2508.59
424.471	2385.71
424.679	2676.52
424.887	2594.61
425.094	2719.53
425.302	2860.84
425.51	2860.84
425.718	2846.51
425.925	2936.62
426.133	2979.62
426.341	3286.82
426.548	3333.92
426.756	3227.43
426.964	3532.58
427.171	3649.31
427.379	3653.41
427.586	3809.05
427.794	3847.96
428.001	4108.05
428.209	4224.79
428.417	4075.29
428.624	4450.07
428.832	4362
429.039	4337.43
429.247	4374.29
429.454	4894.47
429.662	5201.67
429.869	4818.7
430.076	5134.09
430.284	4998.92
430.491	5216.01
430.699	5541.63
430.906	5517.06
431.114	5641.98
431.321	5805.82
431.528	5807.87
431.736	6266.61
431.943	6520.56
432.15	6412.02
432.358	6512.37
432.565	6766.32
432.772	6606.58
432.979	7175.91
433.187	7231.21
433.394	7411.43
433.601	7728.86
433.808	7857.89
434.016	7829.21
434.223	7935.71
434.43	8589.01
434.637	8543.95
434.844	8898.25
435.052	9105.1
435.259	9139.91
435.466	9213.64
435.673	8933.07
435.88	9703.11
436.087	10038.97
436.294	10170.04
436.501	9787.07
436.708	10114.75
436.915	10559.16
437.122	10845.87
437.329	10862.26
437.537	11234.99
437.743	11447.97
437.95	11325.1
438.157	12011.17
438.364	12218.01
438.571	12244.63
438.778	12418.71
438.985	13356.68
439.192	12820.11
439.399	13352.59
439.606	13014.67
439.813	13760.13
440.02	14675.57
440.227	14136.96
440.433	14055.04
440.64	14630.52
440.847	14421.63
441.054	15005.3
441.261	15973.99
441.467	15822.44
441.674	16039.52
441.881	16346.72
442.088	16541.27
442.294	16461.4
442.501	17018.45
442.708	17137.23
442.914	17958.47
443.121	18533.95
443.328	18177.6
443.534	19269.17
443.741	18972.21
443.948	18409.02
444.154	20114.98
444.361	19723.82
444.568	20063.78
444.774	19949.09
444.981	19912.23
445.187	20473.37
445.394	21483.02
445.6	21280.27
445.807	23354.86
446.013	22205.95
446.22	22877.69
446.426	23508.46
446.633	23723.5
446.839	24954.33
447.046	23487.98
447.252	24819.16
447.459	24929.75
447.665	24892.89
447.871	26015.18
448.078	27284.92
448.284	25832.91
448.491	26578.37
448.697	27669.94
448.903	27702.7
449.11	28016.04
449.316	27844.01
449.522	28210.6
449.728	29097.37
449.935	29035.93
450.141	28863.9
450.347	29859.21
450.553	28892.57
450.76	29099.42
450.966	30326.15
451.172	29990.28
451.378	30811.52
451.584	30193.03
451.791	31155.58
451.997	30870.91
452.203	31358.33
452.409	31300.98
452.615	31055.23
452.821	30125.45
453.027	29812.11
453.233	31444.34
453.44	30326.15
453.646	30715.26
453.852	30709.12
454.058	31225.21
454.264	29937.04
454.47	31100.28
454.676	30328.2
454.882	30752.13
455.088	28241.32
455.294	29216.15
455.5	29496.72
455.705	29842.83
455.911	28661.15
456.117	28179.88
456.323	27772.33
456.529	26459.59
456.735	27463.09
456.941	27088.31
457.147	26262.98
457.352	25664.97
457.558	25609.68
457.764	25470.42
457.97	25144.79
458.176	24460.77
458.381	24622.56
458.587	23158.26
458.793	23350.77
458.999	21868.04
459.204	23723.5
459.41	23098.87
459.616	21464.59
459.821	21802.5
460.027	21505.55
460.233	20862.49
460.438	20074.02
460.644	20362.78
460.85	19437.1
461.055	18918.96
461.261	18955.83
461.466	17647.18
461.672	17088.08
461.878	18411.07
462.083	17225.29
462.289	16844.37
462.494	16582.23
462.7	15652.45
462.905	15568.49
463.111	15869.54
463.316	15851.11
463.522	15566.44
463.727	15879.78
463.932	15724.13
464.138	15482.47
464.343	15511.14
464.549	15021.68
464.754	15828.58
464.959	15605.35
465.165	15140.46
465.37	14712.44
465.575	14202.49
465.781	14962.29
465.986	14978.67
466.191	14341.75
466.397	13883.01
466.602	13291.15
466.807	13907.59
467.012	14042.75
467.218	13784.71
467.423	13561.48
467.628	13729.41
467.833	14495.35
468.038	13758.08
468.244	13549.19
468.449	13840
468.654	13622.92
468.859	13366.92
469.064	13405.83
469.269	12797.59
469.474	12986
469.679	13282.95
469.885	12861.07
470.09	13000.33
470.295	12986
470.5	12361.37
470.705	12873.36
470.91	12271.26
471.115	12474.01
471.32	12607.12
471.525	12441.24
471.73	12242.59
471.935	12127.9
472.139	11663.01
472.344	11775.65
472.549	11916.96
472.754	11398.82
472.959	11443.88
473.164	11234.99
473.369	10960.56
473.574	11271.85
473.778	11089.58
473.983	11077.29
474.188	11247.27
474.393	10843.82
474.598	10598.07
474.802	10714.8
475.007	10387.13
475.212	10413.75
475.417	10112.7
475.621	10149.56
475.826	10104.51
476.031	9918.14
476.235	9737.92
476.44	10020.54
476.645	9531.08
476.849	9961.15
477.054	9582.28
477.259	9428.68
477.463	9520.84
477.668	9189.07
477.872	9447.11
478.077	9174.73
478.282	8836.81
478.486	8933.07
478.691	9107.15
478.895	8758.99
479.1	8885.97
479.304	8576.72
479.509	8543.95
479.713	8867.53
479.918	8482.52
480.122	8341.21
480.326	8589.01
480.531	8394.45
480.735	8236.76
480.94	8203.99
481.144	8734.42
481.348	8091.35
481.553	8142.55
481.757	8152.79
481.961	8421.08
482.166	8509.14
482.37	8244.95
482.574	7950.04
482.778	8285.91
482.983	8341.21
483.187	8175.32
483.391	8191.7
483.595	8148.7
483.8	7960.28
484.004	7982.81
484.208	8318.68
484.412	8130.27
484.616	8181.46
484.821	8025.82
485.025	8175.32
485.229	8199.9
485.433	8040.15
485.637	7855.84
485.841	8099.55
486.045	8001.24
486.249	8201.94
486.453	8214.23
486.657	8195.8
486.861	8034.01
487.065	7847.65
487.269	8187.61
487.473	7876.32
487.677	8091.35
487.881	8195.8
488.085	8109.79
488.289	8062.68
488.493	7960.28
488.697	8187.61
488.901	8378.07
489.105	8107.74
489.309	8214.23
489.512	8343.25
489.716	8113.88
489.92	8302.29
490.124	8152.79
490.328	8326.87
490.531	8453.84
490.735	8437.46
490.939	8218.33
491.143	8394.45
491.346	8230.62
491.55	8435.41
491.754	8408.79
491.958	8734.42
492.161	8513.24
492.365	8556.24
492.569	8615.63
492.772	8670.93
492.976	8693.46
493.18	8675.02
493.383	8656.59
493.587	8888.01
493.79	8859.34
493.994	8720.08
494.197	8853.2
494.401	8900.3
494.605	8971.98
494.808	9074.38
495.012	9367.24
495.215	9221.83
495.419	9211.59
495.622	9273.03
495.825	9318.09
496.029	9311.94
496.232	9578.18
496.436	9400.01
496.639	9819.84
496.843	9858.75
497.046	9778.88
497.249	10065.6
497.453	9983.68
497.656	10249.91
497.859	10151.61
498.063	10227.39
498.266	10294.97
498.469	10354.36
498.673	10350.26
498.876	10702.51
499.079	10657.46
499.282	10743.47
499.485	11062.96
499.689	11142.83
499.892	11306.66
500.095	11304.62
500.298	11681.44
500.501	11560.61
500.705	11832.99
500.908	11990.69
501.111	12015.26
501.314	11959.97
501.517	12332.7
501.72	12480.15
501.923	12463.77
502.126	12705.43
502.329	12865.17
502.532	12971.66
502.735	13205.13
502.938	13446.79
503.141	13399.69
503.344	13487.75
503.547	13659.78
503.75	13989.5
503.953	13876.87
504.156	14268.03
504.359	14388.86
504.562	14417.53
504.765	14558.84
504.968	14687.86
505.17	14970.48
505.373	14853.75
505.576	15529.58
505.779	15505
505.982	15326.83
506.185	16033.38
506.387	15832.68
506.59	16055.9
506.793	16330.33
506.996	16428.63
507.198	16768.6
507.401	16764.5
507.604	16862.8
507.807	16957.01
508.009	17393.23
508.212	17493.58
508.415	17761.86
508.617	17690.18
508.82	17919.56
509.022	17614.41
509.225	18456.12
509.428	18406.97
509.63	18791.99
509.833	18687.54
510.035	19187.25
510.238	18964.02
510.44	19539.5
510.643	19611.18
510.845	20004.39
511.048	19570.22
511.25	20006.44
511.453	20409.89
511.655	20917.78
511.858	20786.71
512.06	20741.66
512.262	20995.6
512.465	21323.28
512.667	21642.76
512.87	21566.99
513.072	21589.52
513.274	22078.98
513.477	22447.61
513.679	22478.33
513.881	22910.46
514.084	22865.4
514.286	22844.92
514.488	23127.54
514.69	23774.7
514.893	23971.3
515.095	23930.34
515.297	24040.93
515.499	24290.79
515.701	24636.89
515.904	24937.94
516.106	24882.65
516.308	25239
516.51	25398.74
516.712	25669.07
516.914	26111.43
517.116	26232.26
517.318	26398.15
517.52	26482.11
517.722	26746.3
517.925	27250.1
518.127	27020.73
518.329	27428.27
518.531	27483.57
518.733	27641.26
518.935	27887.02
519.136	28114.34
519.338	28655.01
519.54	28655.01
519.742	29056.41
519.944	29109.66
520.146	29498.77
520.348	29476.24
520.55	29576.59
520.752	29670.8
520.954	30137.74
521.155	30002.57
521.357	30576
521.559	31112.57
521.761	31284.6
521.963	31313.27
522.164	31376.76
522.366	31604.08
522.568	31690.1
522.77	31999.34
522.971	32476.52
523.173	32398.69
523.375	32669.03
523.576	32445.8
523.778	32697.7
523.98	33006.94
524.181	33119.58
524.383	33434.97
524.584	33740.11
524.786	34112.84
524.988	33738.07
525.189	34057.55
525.391	34178.38
525.592	34600.26
525.794	34489.67
525.995	34698.56
526.197	34641.22
526.398	34899.26
526.6	35294.52
526.801	35140.93
527.003	35005.76
527.204	35464.5
527.406	35794.23
527.607	35210.56
527.808	35988.78
528.01	35319.1
528.211	35616.05
528.412	36576.55
528.614	36183.34
528.815	36439.34
529.016	36453.67
529.218	36443.43
529.419	36130.09
529.62	36529.45
529.822	36373.8
530.023	36545.83
530.224	36511.02
530.425	36715.81
530.626	36132.14
530.828	36746.53
531.029	37217.57
531.23	37066.02
531.431	36877.6
531.632	36939.04
531.833	37178.65
532.035	37111.07
532.236	37168.41
532.437	37594.39
532.638	36955.43
532.839	37129.5
533.04	37410.07
533.241	36642.09
533.442	37289.24
533.643	37168.41
533.844	37420.31
534.045	37254.43
534.246	36824.36
534.447	37496.09
534.648	37377.31
534.849	37610.78
535.05	37311.77
535.251	37659.93
535.451	37342.49
535.652	37704.98
535.853	37578.01
536.054	37354.78
536.255	37709.08
536.456	37246.24
536.657	37788.95
536.857	37348.64
537.058	37188.89
537.259	37444.89
537.46	37530.9
537.66	37457.18
537.861	37336.35
538.062	37233.95
538.263	37475.61
538.463	37156.13
538.664	37354.78
538.865	37713.17
539.065	37692.69
539.266	37264.67
539.466	37354.78
539.667	36936.99
539.868	38063.38
540.068	37500.19
540.269	37156.13
540.469	37512.47
540.67	37389.59
540.87	37350.68
541.071	37002.53
541.271	37508.38
541.472	37231.9
541.672	37330.2
541.873	37350.68
542.073	36785.44
542.274	37338.4
542.474	37223.71
542.675	37133.6
542.875	37569.82
543.075	37164.32
543.276	36674.85
543.476	37270.81
543.676	36898.08
543.877	37768.47
544.077	37047.58
544.277	37125.41
544.478	37334.3
544.678	37254.43
544.878	37156.13
545.078	36893.99
545.279	36787.49
545.479	36879.65
545.679	37295.39
545.879	36912.42
546.079	37143.84
546.28	36629.8
546.48	36578.6
546.68	36971.81
546.88	36967.71
547.08	37043.49
547.28	36715.81
547.48	36816.16
547.68	36871.46
547.88	36920.61
548.081	36920.61
548.281	36431.15
548.481	37117.21
548.681	37100.83
548.881	36472.1
549.081	36859.17
549.28	36611.37
549.48	36912.42
549.68	36625.7
549.88	37203.23
550.08	36818.21
550.28	36631.85
550.48	36697.38
550.68	36814.12
550.88	36646.18
551.08	36666.66
551.279	36637.99
551.479	36570.41
551.679	36713.77
551.879	36660.52
552.079	36773.16
552.278	36439.34
552.478	36689.19
552.678	36646.18
552.878	36658.47
553.077	36562.22
553.277	36156.72
553.477	37033.25
553.676	36650.28
553.876	36216.11
554.076	36445.48
554.275	36431.15
554.475	36226.35
554.674	36242.73
554.874	36418.86
555.074	36416.81
555.273	36572.46
555.473	36455.72
555.672	35833.14
555.872	36037.94
556.071	36310.32
556.271	36193.58
556.47	36003.12
556.67	35863.86
556.869	36082.99
557.068	36250.92
557.268	35904.82
557.467	35908.91
557.667	35243.32
557.866	35996.98
558.065	35906.87
558.265	35450.17
558.464	35489.08
558.663	35804.47
558.863	35142.97
559.062	35599.67
559.261	35448.12
559.461	35718.45
559.66	34608.45
559.859	35403.07
560.058	35558.71
560.258	35243.32
560.457	34819.39
560.656	35310.91
560.855	35165.5
561.054	35159.36
561.253	34862.4
561.453	34884.93
561.652	35181.88
561.851	34981.18
562.05	35226.94
562.249	34815.3
562.448	35044.67
562.647	34970.94
562.846	34854.21
563.045	34848.07
563.244	34307.4
563.443	35167.55
563.642	34432.33
563.841	34473.29
564.04	34336.07
564.239	34489.67
564.438	34205
564.637	34344.27
564.836	34364.74
565.035	33582.42
565.234	34065.74
565.432	34151.76
565.631	33901.9
565.83	33963.34
566.029	33873.23
566.228	33871.18
566.427	33903.95
566.625	33477.97
566.824	33426.78
567.023	33918.29
567.222	32869.73
567.42	33613.14
567.619	33168.73
567.818	33244.51
568.016	33185.11
568.215	33420.63
568.414	33135.96
568.612	33430.87
568.811	32963.93
569.01	33076.57
569.208	32615.78
569.407	32990.56
569.605	32497
569.804	32920.93
570.002	32482.66
570.201	32908.64
570.4	32529.76
570.598	31950.19
570.797	32273.77
570.995	32396.65
571.193	31950.19
571.392	32308.58
571.59	31743.34
571.789	32138.6
571.987	31935.85
572.186	31952.24
572.384	31675.76
572.582	32023.92
572.781	31886.7
572.979	31227.26
573.177	31509.88
573.376	31522.16
573.574	31059.32
573.772	31294.84
573.971	31313.27
574.169	30969.21
574.367	30827.9
574.565	31225.21
574.763	31020.41
574.962	30776.7
575.16	30504.32
575.358	30891.39
575.556	30373.25
575.754	30930.3
575.952	30279.05
576.151	30504.32
576.349	30092.68
576.547	30440.84
576.745	30092.68
576.943	30303.62
577.141	29908.36
577.339	30131.59
577.537	29984.14
577.735	29746.58
577.933	29728.14
578.131	29879.69
578.329	29502.87
578.527	29533.59
578.725	29746.58
578.923	29691.28
579.121	29511.06
579.319	29265.3
579.516	29191.58
579.714	29048.22
579.912	28954.01
580.11	29173.14
580.308	28753.31
580.506	28941.72
580.704	28388.77
580.901	28716.45
581.099	29056.41
581.297	28691.87
581.495	28300.71
581.692	28716.45
581.89	28454.31
582.088	28722.59
582.285	28183.98
582.483	28380.58
582.681	28351.91
582.878	27948.46
583.076	27778.48
583.274	28108.2
583.471	27510.19
583.669	27975.08
583.866	27440.56
584.064	27774.38
584.262	27073.98
584.459	27727.28
584.657	27491.76
584.854	27352.5
585.052	26777.02
585.249	27553.2
585.447	27141.56
585.644	26715.58
585.841	26744.25
586.039	27131.32
586.236	26707.39
586.434	26781.12
586.631	26578.37
586.828	26942.91
587.026	26566.08
587.223	26736.06
587.42	26426.82
587.618	26453.44
587.815	26138.05
588.012	26330.56
588.21	26267.08
588.407	26523.07
588.604	25968.07
588.801	26021.32
588.999	25744.84
589.196	25892.3
589.393	25576.91
589.59	25824.72
589.787	25757.13
589.984	25550.29
590.182	25259.48
590.379	25357.78
590.576	25267.67
590.773	25279.96
590.97	25011.67
591.167	25013.72
591.364	24841.69
591.561	25327.06
591.758	24980.95
591.955	24583.65
592.152	25128.41
592.349	24915.42
592.546	24853.98
592.743	24428
592.94	24251.88
593.137	24188.39
593.334	24403.42
593.531	24380.9
593.727	24341.99
593.924	24155.62
594.121	23850.47
594.318	24014.31
594.515	23350.77
594.712	23952.87
594.908	23543.28
595.105	23758.31
595.302	23356.91
595.499	23803.37
595.696	23727.6
595.892	23389.68
596.089	23518.7
596.286	23500.27
596.482	23072.25
596.679	23320.05
596.876	23318
597.072	23027.19
597.269	23047.67
597.466	22932.98
597.662	22939.13
597.859	22656.51
598.055	22681.08
598.252	22699.51
598.448	22763
598.645	22511.1
598.841	22246.91
599.038	22513.15
599.234	22228.48
599.431	22105.6
599.627	22236.67
599.824	22013.45
600.02	22029.83
600.217	22124.04
600.413	21976.58
600.609	21974.53
600.806	21708.3
601.002	21917.19
601.198	21818.89
601.395	21544.46
601.591	21360.14
601.787	21407.25
601.984	21378.58
602.18	21501.45
602.376	21409.29
602.572	21122.58
602.769	21106.2
602.965	21138.96
603.161	21210.64
603.357	20866.58
603.553	20985.37
603.75	21134.87
603.946	20704.79
604.142	20751.9
604.338	20377.12
604.534	20727.32
604.73	20596.25
604.926	20502.04
605.122	20299.3
605.318	19967.52
605.514	20114.98
605.71	20194.85
605.906	20235.81
606.102	19940.9
606.298	20067.88
606.494	19918.37
606.69	19807.78
606.886	20037.16
607.082	19469.87
607.278	19901.99
607.474	19621.42
607.67	20123.17
607.866	19549.74
608.062	20031.01
608.257	19992.1
608.453	19713.58
608.649	19625.51
608.845	19303.98
609.041	19390
609.236	19320.37
609.432	19310.13
609.628	18976.31
609.824	19131.95
610.019	19002.93
610.215	19287.6
610.411	19109.43
610.606	19222.06
610.802	18871.86
610.998	18955.83
611.193	19330.61
611.389	18927.16
611.584	18626.11
611.78	18497.08
611.976	18976.31
612.171	18894.39
612.367	18757.18
612.562	18869.81
612.758	18562.62
612.953	18269.76
613.149	18695.74
613.344	18452.03
613.539	18570.81
613.735	18310.72
613.93	18392.64
614.126	18212.42
614.321	18452.03
614.517	18269.76
614.712	18357.82
614.907	18030.15
615.103	18406.97
615.298	18333.25
615.493	18355.77
615.688	17897.03
615.884	18349.63
616.079	18011.71
616.274	18083.39
616.47	18028.1
616.665	17983.04
616.86	17806.92
617.055	17784.39
617.25	17841.73
617.445	18071.11
617.641	17489.48
617.836	17886.79
618.031	17227.34
618.226	17530.44
618.421	17479.24
618.616	17391.18
618.811	17438.28
619.006	17501.77
619.201	17245.77
619.396	17163.86
619.591	17167.95
619.786	17247.82
619.981	16905.81
620.176	17088.08
620.371	16705.11
620.566	16780.89
620.761	16635.48
620.956	16678.49
621.151	16184.93
621.346	16522.84
621.541	16006.75
621.735	16354.91
621.93	16133.73
622.125	16203.36
622.32	15953.51
622.515	16297.56
622.709	15941.22
622.904	15699.56
623.099	15748.71
623.294	15709.8
623.488	15494.76
623.683	15562.34
623.878	15343.21
624.072	15453.8
624.267	15287.92
624.462	15404.65
624.656	15087.22
624.851	14894.71
625.046	14784.12
625.24	14962.29
625.435	14892.66
625.629	14691.96
625.824	14651
626.018	14521.98
626.213	14425.72
626.407	14493.3
626.602	14124.67
626.796	14110.33
626.991	14315.13
627.185	14214.78
627.38	14190.2
627.574	13835.91
627.768	14026.37
627.963	13837.95
628.157	13854.34
628.352	13809.28
628.546	13209.23
628.74	13649.54
628.935	13291.15
629.129	13516.42
629.323	12856.98
629.517	13266.57
629.712	13176.46
629.906	13203.08
630.1	12926.61
630.294	13012.62
630.489	12965.52
630.683	12936.85
630.877	12785.3
631.071	12734.1
631.265	12809.87
631.459	12549.78
631.653	12476.05
631.848	12451.48
632.042	12355.22
632.236	12523.16
632.43	12164.76
632.624	12154.52
632.818	11988.64
633.012	11882.14
633.206	12017.31
633.4	12088.99
633.594	11767.46
633.788	11968.16
633.982	11730.59
634.176	11583.14
634.369	11646.63
634.563	11355.82
634.757	11368.1
634.951	11710.11
635.145	11615.91
635.339	11415.21
635.533	11304.62
635.726	11220.65
635.92	11073.2
636.114	11095.72
636.308	10958.51
636.501	11159.21
636.695	10989.23
636.889	10878.64
637.083	10696.37
637.276	10804.91
637.47	10751.67
637.664	10583.73
637.857	10598.07
638.051	10399.41
638.244	10491.57
638.438	10481.33
638.632	10280.63
638.825	10376.89
639.019	10194.62
639.212	10340.02
639.406	10030.78
639.599	10186.43
639.793	9967.29
639.986	9852.61
640.18	9942.72
640.373	9744.06
640.567	9936.57
640.76	9742.02
640.954	9596.61
641.147	9662.15
641.34	9619.14
641.534	9668.29
641.727	9645.76
641.92	9379.53
642.114	9637.57
642.307	9326.28
642.5	9316.04
642.694	9209.54
642.887	9318.09
643.08	9275.08
643.273	9064.14
643.467	9170.63
643.66	8875.73
643.853	8855.25
644.046	8832.72
644.239	9039.56
644.432	8883.92
644.626	8646.35
644.819	8650.45
645.012	8595.15
645.205	8752.85
645.398	8537.81
645.591	8543.95
645.784	8490.71
645.977	8302.29
646.17	8361.69
646.363	8222.42
646.556	8199.9
646.749	8324.82
646.942	8312.53
647.135	8122.07
647.328	8171.22
647.521	8034.01
647.714	8019.67
647.907	8042.2
648.099	8183.51
648.292	7966.43
648.485	7864.03
648.678	7892.7
648.871	7876.32
649.064	7632.61
649.256	7519.97
649.449	7683.81
649.642	7665.38
649.835	7526.11
650.027	7560.93
650.22	7223.02
650.413	7417.57
650.605	7376.61
650.798	7448.29
650.991	7352.04
651.183	7229.16
651.376	7147.24
651.568	7333.61
651.761	7091.95
651.954	7053.03
652.146	6954.73
652.339	7196.39
652.531	6944.49
652.724	6985.45
652.916	6829.81
653.109	6952.68
653.301	6868.72
653.494	6870.76
653.686	6614.77
653.879	6919.92
654.071	6825.71
654.263	6731.5
654.456	6561.52
654.648	6747.89
654.84	6717.17
655.033	6573.81
655.225	6608.62
655.417	6426.36
655.61	6586.1
655.802	6442.74
655.994	6430.45
656.186	6268.66
656.379	6098.68
656.571	6375.16
656.763	6160.12
656.955	6123.26
657.148	6221.56
657.34	6250.23
657.532	5893.88
657.724	6027
657.916	5848.83
658.108	5996.28
658.3	5943.03
658.492	5967.61
658.684	5740.29
658.876	5828.35
659.068	5834.49
659.26	5795.58
659.452	5877.5
659.644	5717.76
659.836	5838.59
660.028	5791.48
660.22	5756.67
660.412	5742.33
660.604	5607.17
660.796	5650.18
660.988	5512.96
661.18	5437.19
661.372	5428.99
661.563	5568.26
661.755	5361.41
661.947	5418.75
662.139	5385.99
662.331	5220.1
662.522	5302.02
662.714	5152.52
662.906	5271.3
663.097	5254.92
663.289	5103.37
663.481	5097.22
663.673	5125.9
663.864	5015.3
664.056	5152.52
664.247	5046.02
664.439	4863.76
664.631	5119.75
664.822	4935.43
665.014	5046.02
665.205	4894.47
665.397	4896.52
665.588	4919.05
665.78	4783.88
665.971	4730.64
666.163	4753.16
666.354	4830.99
666.546	4669.2
666.737	4654.86
666.929	4560.66
667.12	4628.24
667.311	4613.9
667.503	4491.02
667.694	4558.61
667.885	4552.46
668.077	4439.83
668.268	4478.74
668.459	4445.97
668.651	4411.15
668.842	4423.44
669.033	4304.66
669.224	4398.87
669.416	4378.39
669.607	4396.82
669.798	4355.86
669.989	4230.93
670.18	4218.64
670.371	4259.6
670.563	4239.12
670.754	4214.55
670.945	4134.68
671.136	4194.07
671.327	4149.01
671.518	4019.99
671.709	4222.74
671.9	4142.87
672.091	4052.76
672.282	4058.9
672.473	3870.49
672.664	4065.05
672.855	3823.39
673.046	3948.31
673.237	4071.19
673.428	3970.84
673.619	3995.42
673.809	4063
674	3823.39
674.191	3858.2
674.382	3946.27
674.573	3774.24
674.764	3911.45
674.954	4038.42
675.145	3888.92
675.336	3772.19
675.527	3823.39
675.717	3772.19
675.908	3837.72
676.099	3874.59
676.289	3718.94
676.48	3665.69
676.671	3616.54
676.861	3649.31
677.052	3485.47
677.243	3624.73
677.433	3641.12
677.624	3647.26
677.814	3682.08
678.005	3682.08
678.195	3585.82
678.386	3561.25
678.576	3551.01
678.767	3612.45
678.957	3530.53
679.148	3632.93
679.338	3600.16
679.529	3501.86
679.719	3567.39
679.909	3444.51
680.1	3536.67
680.29	3485.47
680.481	3387.17
680.671	3417.89
680.861	3368.74
681.052	3452.7
681.242	3387.17
681.432	3405.6
681.622	3528.48
681.813	3342.11
682.003	3346.21
682.193	3284.77
682.383	3258.15
682.573	3372.83
682.764	3432.22
682.954	3462.94
683.144	3317.54
683.334	3237.67
683.524	3374.88
683.714	3319.59
683.904	3186.47
684.094	3252
684.284	3247.91
684.474	3295.01
684.664	3272.48
684.854	3411.75
685.044	3288.87
685.234	3174.18
685.424	3321.63
685.614	3161.89
685.804	3190.56
685.994	3274.53
686.184	3145.51
686.374	3145.51
686.564	3215.14
686.753	3116.84
686.943	2922.28
687.133	3075.88
687.323	3053.35
687.513	3014.44
687.702	3016.49
687.892	3002.15
688.082	3012.39
688.272	2991.91
688.461	2897.71
688.651	2975.53
688.841	2826.03
689.03	2897.71
689.22	2850.6
689.41	2887.47
689.599	2969.38
689.789	2920.23
689.979	2893.61
690.168	2891.56
690.358	2901.8
690.547	2813.74
690.737	2821.93
690.926	2914.09
691.116	2883.37
691.305	2694.96
691.495	2817.83
691.684	2826.03
691.874	2758.44
692.063	2860.84
692.252	2809.64
692.442	2740.01
692.631	2719.53
692.82	2750.25
693.01	2604.85
693.199	2645.8
693.388	2660.14
693.578	2578.22
693.767	2608.94
693.956	2535.21
694.146	2610.99
694.335	2531.12
694.524	2486.06
694.713	2561.84
694.902	2584.37
695.092	2631.47
695.281	2504.5
695.47	2584.37
695.659	2463.54
695.848	2494.26
696.037	2563.89
696.226	2502.45
696.415	2451.25
696.604	2436.91
696.793	2471.73
696.982	2520.88
697.171	2531.12
697.36	2410.29
697.549	2404.14
697.738	2426.67
697.927	2502.45
698.116	2346.8
698.305	2410.29
698.494	2486.06
698.683	2393.9
698.872	2381.62
699.061	2469.68
699.25	2363.19
699.438	2232.12
699.627	2299.7
699.816	2412.34
700.005	2354.99
700.193	2307.89
700.382	2428.72
700.571	2387.76
700.76	2453.3
700.948	2297.65
701.137	2297.65
701.326	2332.47
701.514	2352.95
701.703	2289.46
701.892	2273.07
702.08	2387.76
702.269	2336.56
702.457	2314.03
702.646	2334.51
702.834	2232.12
703.023	2211.64
703.212	2307.89
703.4	2250.55
703.589	2146.1
703.777	2234.16
703.965	2266.93
704.154	2162.48
704.342	2152.24
704.531	2203.44
704.719	2180.92
704.907	2191.16
705.096	2234.16
705.284	2252.59
705.472	2135.86
705.661	2201.4
705.849	2146.1
706.037	2182.96
706.226	2150.2
706.414	2133.81
706.602	2053.94
706.79	2248.5
706.979	2084.66
707.167	2096.95
707.355	2101.05
707.543	2199.35
707.731	2223.92
707.919	2240.31
708.107	2154.29
708.296	2113.33
708.484	2133.81
708.672	2273.07
708.86	2037.56
709.048	2127.67
709.236	2027.32
709.424	2199.35
709.612	2133.81
709.8	2146.1
709.988	2117.43
710.176	2174.77
710.364	2185.01
710.551	2094.9
710.739	2076.47
710.927	2068.28
711.115	2107.19
711.303	2017.08
711.491	2146.1
711.679	2156.34
711.866	2113.33
712.054	2015.03
712.242	2162.48
712.43	2099
712.617	2137.91
712.805	1988.41
712.993	2088.76
713.181	1937.21
713.368	2146.1
713.556	2008.89
713.744	2127.67
713.931	2174.77
714.119	2088.76
714.306	2049.85
714.494	2123.57
714.682	2064.18
714.869	2021.17
715.057	2045.75
715.244	1994.55
715.432	2107.19
715.619	2047.8
715.807	2055.99
715.994	2094.9
716.182	2064.18
716.369	2084.66
716.556	2133.81
716.744	2015.03
716.931	2072.37
717.119	2031.41
717.306	2096.95
717.493	2068.28
717.681	2015.03
717.868	2031.41
718.055	2017.08
718.242	2101.05
718.43	2037.56
718.617	2019.13
718.804	2092.85
718.991	2055.99
719.179	1978.17
719.366	2051.89
719.553	2039.61
719.74	2072.37
719.927	2117.43
720.114	2084.66
720.301	2029.37
720.488	2053.94
720.676	2010.93
720.863	2068.28
721.05	2135.86
721.237	2068.28
721.424	2035.51
721.611	2027.32
721.798	2070.33
721.985	2062.13
722.172	1953.59
722.358	2027.32
722.545	2015.03
722.732	2086.71
722.919	2074.42
723.106	2076.47
723.293	1961.78
723.48	2010.93
723.667	1955.64
723.853	2021.17
724.04	1988.41
724.227	1978.17
724.414	1957.69
724.6	1976.12
724.787	2041.65
724.974	1984.31
725.161	2012.98
725.347	1937.21
725.534	2072.37
725.72	1980.22
725.907	1988.41
726.094	2135.86
726.28	1941.3
726.467	2012.98
726.653	2041.65
726.84	2068.28
727.027	2113.33
727.213	2053.94
727.4	1974.07
727.586	2109.24
727.773	2021.17
727.959	2019.13
728.145	2064.18
728.332	2064.18
728.518	2019.13
728.705	2142
728.891	2012.98
729.077	1996.6
729.264	1863.48
729.45	2035.51
729.636	2129.72
729.823	2017.08
730.009	2035.51
730.195	2082.61
730.382	1986.36
730.568	1898.3
730.754	1955.64
730.94	1920.82
731.126	1978.17
731.313	2012.98
731.499	1986.36
731.685	2047.8
731.871	2055.99
732.057	2072.37
732.243	1988.41
732.429	1986.36
732.615	2180.92
732.801	1961.78
732.987	1906.49
733.173	1961.78
733.359	1924.92
733.545	2004.79
733.731	1951.54
733.917	1931.06
734.103	2006.84
734.289	2021.17
734.475	1980.22
734.661	1988.41
734.847	1929.02
735.033	1965.88
735.219	1961.78
735.404	1863.48
735.59	1920.82
735.776	1838.91
735.962	1955.64
736.148	1912.63
736.333	1972.02
736.519	1830.71
736.705	1953.59
736.89	1871.67
737.076	1847.1
737.262	1773.37
737.447	1869.62
737.633	1926.97
737.819	1918.78
738.004	1980.22
738.19	1863.48
738.375	1875.77
738.561	1988.41
738.747	1873.72
738.932	1840.95
739.118	1883.96
739.303	1951.54
739.489	1904.44
739.674	1851.19
739.859	1806.14
740.045	1873.72
740.23	1904.44
740.416	1783.61
740.601	1750.84
740.786	1871.67
740.972	1875.77
741.157	1797.95
741.342	1838.91
741.528	1787.71
741.713	1865.53
741.898	1838.91
742.084	1713.98
742.269	1865.53
742.454	1777.47
742.639	1820.47
742.824	1722.17
743.01	1808.19
743.195	1838.91
743.38	1756.99
743.565	1701.69
743.75	1828.67
743.935	1834.81
744.12	1855.29
744.305	1691.45
744.49	1697.6
744.675	1765.18
744.86	1756.99
745.045	1650.49
745.23	1748.79
745.415	1765.18
745.6	1689.4
745.785	1687.36
745.97	1675.07
746.155	1617.72
746.34	1546.05
746.525	1613.63
746.71	1654.59
746.895	1601.34
747.079	1658.68
747.264	1576.77
747.449	1564.48
747.634	1621.82
747.819	1664.83
748.003	1513.28
748.188	1535.81
748.373	1494.85
748.557	1523.52
748.742	1511.23
748.927	1482.56
749.111	1527.61
749.296	1453.89
749.481	1505.09
749.665	1517.37
749.85	1453.89
750.034	1576.77
750.219	1443.65
750.404	1482.56
750.588	1572.67
750.773	1363.78
750.957	1380.16
751.141	1476.41
751.326	1400.64
751.51	1324.87
751.695	1419.07
751.879	1216.32
752.064	1359.68
752.248	1412.93
752.432	1443.65
752.617	1347.39
752.801	1347.39
752.985	1371.97
753.17	1371.97
753.354	1249.09
753.538	1324.87
753.722	1281.86
753.907	1253.19
754.091	1208.13
754.275	1281.86
754.459	1242.95
754.643	1236.8
754.828	1294.15
755.012	1302.34
755.196	1154.88
755.38	1251.14
755.564	1175.36
755.748	1208.13
755.932	1175.36
756.116	1208.13
756.3	1228.61
756.484	1191.75
756.668	1122.12
756.852	1093.44
757.036	1122.12
757.22	1161.03
757.404	1224.51
757.588	1161.03
757.772	1208.13
757.956	1130.31
758.14	1208.13
758.323	1095.49
758.507	1077.06
758.691	1029.96
758.875	1097.54
759.059	1136.45
759.242	997.19
759.426	1046.34
759.61	1042.25
759.794	1019.72
759.977	995.14
760.161	1167.17
760.345	1052.49
760.528	995.14
760.712	958.28
760.895	1013.57
761.079	1036.1
761.263	935.75
761.446	986.95
761.63	939.85
761.813	1003.33
761.997	954.18
762.18	872.26
762.364	1052.49
762.547	1064.77
762.731	1027.91
762.914	921.42
763.098	974.66
763.281	945.99
763.464	978.76
763.648	937.8
763.831	956.23
764.015	1005.38
764.198	884.55
764.381	945.99
764.564	872.26
764.748	847.69
764.931	954.18
765.114	907.08
765.297	890.7
765.481	868.17
765.664	907.08
765.847	870.22
766.03	872.26
766.213	790.35
766.397	851.78
766.58	913.22
766.763	870.22
766.946	864.07
767.129	902.98
767.312	915.27
767.495	841.54
767.678	761.67
767.861	900.94
768.044	814.92
768.227	814.92
768.41	909.13
768.593	866.12
768.776	724.81
768.959	866.12
769.142	778.06
769.324	816.97
769.507	825.16
769.69	839.5
769.873	773.96
770.056	800.59
770.239	868.17
770.421	823.11
770.604	866.12
770.787	773.96
770.97	825.16
771.152	786.25
771.335	814.92
771.518	712.52
771.7	835.4
771.883	759.63
772.066	749.39
772.248	761.67
772.431	773.96
772.613	759.63
772.796	816.97
772.978	790.35
773.161	757.58
773.343	683.85
773.526	718.67
773.708	702.28
773.891	630.6
774.073	712.52
774.256	724.81
774.438	782.15
774.621	653.13
774.803	714.57
774.985	669.52
775.168	716.62
775.35	661.32
775.532	724.81
775.715	661.32
775.897	683.85
776.079	622.41
776.261	642.89
776.444	718.67
776.626	595.79
776.808	730.95
776.99	661.32
777.173	599.88
777.355	612.17
777.537	681.8
777.719	663.37
777.901	581.45
778.083	552.78
778.265	614.22
778.447	606.03
778.629	610.12
778.811	597.84
778.993	638.8
779.175	634.7
779.357	565.07
779.539	593.74
779.721	595.79
779.903	511.82
780.085	577.36
780.267	550.73
780.449	560.97
780.631	532.3
780.812	583.5
780.994	497.49
781.176	560.97
781.358	485.2
781.54	538.45
781.721	544.59
781.903	489.29
782.085	520.01
782.267	528.21
782.448	470.86
782.63	456.53
782.812	546.64
782.993	544.59
783.175	571.21
783.357	442.19
783.538	528.21
783.72	505.68
783.901	448.33
784.083	399.18
784.264	479.05
784.446	403.28
784.627	474.96
784.809	462.67
784.99	450.38
785.172	528.21
785.353	474.96
785.535	378.7
785.716	405.33
785.897	460.62
786.079	417.61
786.26	397.14
786.441	382.8
786.623	347.98
786.804	429.9
786.985	409.42
787.167	360.27
787.348	358.22
787.529	393.04
787.71	317.26
787.891	390.99
788.073	384.85
788.254	335.7
788.435	366.42
788.616	413.52
788.797	347.98
788.978	286.54
789.159	407.38
789.34	372.56
789.522	405.33
789.703	358.22
789.884	370.51
790.065	358.22
790.246	415.57
790.427	364.37
790.607	311.12
790.788	366.42
790.969	374.61
791.15	315.22
791.331	341.84
791.512	259.92
791.693	362.32
791.874	321.36
792.054	415.57
792.235	372.56
792.416	335.7
792.597	300.88
792.778	380.75
792.958	292.69
793.139	321.36
793.32	339.79
793.5	241.49
793.681	360.27
793.862	284.5
794.042	227.15
794.223	309.07
794.404	315.22
794.584	339.79
794.765	325.46
794.945	216.91
795.126	339.79
795.306	284.5
795.487	257.87
795.667	171.86
795.848	266.07
796.028	268.11
796.209	210.77
796.389	241.49
796.57	290.64
796.75	284.5
796.93	202.58
797.111	253.78
797.291	257.87
797.471	268.11
797.652	192.34
797.832	188.24
798.012	309.07
798.192	257.87
798.373	233.3
798.553	241.49
798.733	257.87
798.913	204.63
799.093	221.01
799.274	266.07
799.454	186.19
799.634	241.49
799.814	274.26
799.994	319.31
800.174	218.96
800.354	184.15
800.534	169.81
800.714	241.49
800.894	231.25
801.074	255.83
801.254	282.45
801.434	202.58
801.614	233.3
801.794	257.87
801.974	706.38
802.154	184.15
802.334	200.53
802.514	151.38
802.693	202.58
802.873	161.62
803.053	292.69
803.233	196.43
803.413	188.24
803.592	184.15
803.772	223.06
803.952	182.1
804.131	184.15
804.311	141.14
804.491	249.68
804.67	163.67
804.85	241.49
805.03	184.15
805.209	245.59
805.389	218.96
805.568	159.57
805.748	173.91
805.928	221.01
806.107	139.09
806.287	225.11
806.466	247.63
806.646	137.04
806.825	221.01
807.004	155.47
807.184	192.34
807.363	104.28
807.543	94.04
807.722	130.9
807.901	171.86
808.081	155.47
808.26	108.37
808.439	159.57
808.619	122.71
808.798	151.38
808.977	145.24
809.156	200.53
809.336	192.34
809.515	118.61
809.694	155.47
809.873	167.76
810.052	212.82
810.231	229.2
810.411	169.81
810.59	196.43
810.769	75.6
810.948	159.57
811.127	87.89
811.306	128.85
811.485	87.89
811.664	102.23
811.843	149.33
812.022	163.67
812.201	128.85
812.38	188.24
812.559	173.91
812.737	202.58
812.916	120.66
813.095	163.67
813.274	175.95
813.453	94.04
813.632	147.28
813.811	126.8
813.989	96.08
814.168	186.19
814.347	114.52
814.526	122.71
814.704	130.9
814.883	151.38
815.062	112.47
815.24	94.04
815.419	143.19
815.598	118.61
815.776	32.6
815.955	120.66
816.133	122.71
816.312	218.96
816.49	77.65
816.669	46.93
816.847	118.61
817.026	36.69
817.204	44.88
817.383	128.85
817.561	-10.41
817.74	122.71
817.918	145.24
818.097	135
818.275	153.43
818.453	169.81
818.632	87.89
818.81	124.76
818.988	96.08
819.167	94.04
819.345	69.46
819.523	38.74
819.701	57.17
819.879	94.04
820.058	161.62
820.236	85.84
820.414	44.88
820.592	16.21
820.77	5.97
820.948	143.19
821.127	61.27
821.305	94.04
821.483	42.84
821.661	94.04
821.839	135
822.017	104.28
822.195	126.8
822.373	159.57
822.551	16.21
822.729	98.13
822.907	69.46
823.085	151.38
823.262	38.74
823.44	63.32
823.618	96.08
823.796	91.99
823.974	94.04
824.152	77.65
824.329	69.46
824.507	91.99
824.685	122.71
824.863	87.89
825.04	120.66
825.218	91.99
825.396	77.65
825.574	63.32
825.751	102.23
825.929	132.95
826.107	61.27
826.284	36.69
826.462	69.46
826.639	126.8
826.817	-8.36
826.994	108.37
827.172	36.69
827.349	167.76
827.527	48.98
827.704	73.56
827.882	48.98
828.059	89.94
828.237	91.99
828.414	65.36
828.591	-53.42
828.769	59.22
828.946	67.41
829.124	71.51
829.301	79.7
829.478	104.28
829.655	46.93
829.833	12.12
830.01	83.8
830.187	85.84
830.364	-80.04
830.542	77.65
830.719	53.08
830.896	77.65
831.073	96.08
831.25	20.31
831.427	104.28
831.604	85.84
831.782	8.02
831.959	118.61
832.136	77.65
832.313	16.21
832.49	75.6
832.667	28.5
832.844	30.55
833.021	30.55
833.198	73.56
833.374	65.36
833.551	122.71
833.728	77.65
833.905	57.17
834.082	46.93
834.259	71.51
834.436	61.27
834.612	10.07
834.789	73.56
834.966	143.19
835.143	16.21
835.319	59.22
835.496	14.17
835.673	77.65
835.85	-0.17
836.026	55.12
836.203	57.17
836.38	18.26
836.556	71.51
836.733	104.28
836.909	79.7
837.086	128.85
837.262	20.31
837.439	61.27
837.616	36.69
837.792	46.93
837.968	-4.27
838.145	57.17
838.321	28.5
838.498	87.89
838.674	44.88
838.851	94.04
839.027	61.27
839.203	10.07
839.38	32.6
839.556	53.08
839.732	-4.27
839.909	20.31
840.085	55.12
840.261	28.5
840.437	44.88
840.614	12.12
840.79	20.31
840.966	94.04
841.142	28.5
841.318	-6.31
841.494	53.08
841.671	126.8
841.847	-69.8
842.023	28.5
842.199	12.12
842.375	-4.27
842.551	-2.22
842.727	102.23
842.903	89.94
843.079	-34.99
843.255	24.4
843.431	96.08
843.607	20.31
843.783	28.5
843.959	79.7
844.134	61.27
844.31	28.5
844.486	-26.79
844.662	53.08
844.838	38.74
845.013	14.17
845.189	77.65
845.365	94.04
845.541	73.56
845.716	100.18
845.892	32.6
846.068	28.5
846.244	-69.8
846.419	65.36
846.595	3.93
846.77	32.6
846.946	36.69
847.122	38.74
847.297	5.97
847.473	-10.41
847.648	-20.65
847.824	16.21
847.999	-67.75
848.175	-8.36
848.35	-8.36
848.526	87.89
848.701	12.12
848.876	44.88
849.052	61.27
849.227	34.64
849.403	-32.94
849.578	24.4
849.753	12.12
849.929	16.21
850.104	55.12
850.279	8.02
850.454	30.55
850.63	14.17
850.805	69.46
850.98	1.88
851.155	10.07
851.33	-41.13
851.505	3.93
851.681	85.84
851.856	-49.32
852.031	77.65
852.206	22.36
852.381	69.46
852.556	-0.17
852.731	48.98
852.906	-12.46
853.081	77.65
853.256	79.7
853.431	48.98
853.606	1.88
853.781	-26.79
853.956	-80.04
854.131	-10.41
854.305	-53.42
854.48	3.93
854.655	36.69
854.83	-10.41
855.005	73.56
855.18	44.88
855.354	-8.36
855.529	57.17
855.704	20.31
855.879	55.12
856.053	-4.27
856.228	-4.27
856.403	-30.89
856.577	30.55
856.752	-8.36
856.926	28.5
857.101	3.93
857.276	18.26
857.45	5.97
857.625	36.69
857.799	-20.65
857.974	53.08
858.148	-43.18
858.323	12.12
858.497	12.12
858.672	-12.46
858.846	-12.46
859.02	85.84
859.195	-28.84
859.369	22.36
859.543	28.5
859.718	5.97
859.892	57.17
860.066	30.55
860.241	44.88
860.415	96.08
860.589	18.26
860.763	28.5
860.938	-12.46
861.112	81.75
861.286	32.6
861.46	-73.9
861.634	-43.18
861.808	71.51
861.982	16.21
862.157	30.55
862.331	-49.32
862.505	-53.42
862.679	1.88
862.853	-14.51
863.027	-53.42
863.201	65.36
863.375	-18.6
863.549	81.75
863.722	32.6
863.896	44.88
864.07	44.88
864.244	55.12
864.418	-22.7
864.592	-4.27
864.766	26.45
864.939	59.22
865.113	-55.47
865.287	20.31
865.461	-4.27
865.634	38.74
865.808	26.45
865.982	3.93
866.156	-12.46
866.329	-26.79
866.503	-0.17
866.676	61.27
866.85	-24.75
867.024	-55.47
867.197	-26.79
867.371	28.5
867.544	83.8
867.718	24.4
867.891	44.88
868.065	-49.32
868.238	-4.27
868.412	40.79
868.585	-32.94
868.759	3.93
868.932	-61.61
869.105	3.93
869.279	-43.18
869.452	-53.42
869.625	-39.08
869.799	-12.46
869.972	14.17
870.145	28.5
870.319	83.8
870.492	69.46
870.665	-32.94
870.838	-53.42
871.011	-55.47
871.185	44.88
871.358	18.26
871.531	46.93
871.704	-18.6
871.877	-49.32
872.05	-0.17
872.223	-0.17
872.396	-59.56
872.569	20.31
872.742	-53.42
872.915	79.7
873.088	28.5
873.261	-16.55
873.434	24.4
873.607	-4.27
873.78	30.55
873.953	-12.46
874.126	-26.79
874.299	-12.46
874.471	-32.94
874.644	3.93
874.817	-24.75
874.99	-69.8
875.163	-51.37
875.335	53.08
875.508	-10.41
875.681	22.36
875.853	1.88
876.026	3.93
876.199	20.31
876.371	5.97
876.544	-16.55
876.717	-10.41
876.889	-8.36
877.062	53.08
877.234	-75.95
877.407	-22.7
877.579	40.79
877.752	104.28
877.924	-26.79
878.097	-20.65
878.269	16.21
878.442	38.74
878.614	-4.27
878.786	12.12
878.959	32.6
879.131	-4.27
879.303	-2.22
879.476	18.26
879.648	-28.84
879.82	8.02
879.993	-73.9
880.165	20.31
880.337	61.27
880.509	-34.99
880.681	-118.95
880.854	-14.51
881.026	10.07
881.198	87.89
881.37	-45.23
881.542	20.31
881.714	-4.27
881.886	-37.03
882.058	-24.75
882.23	-37.03
882.402	-10.41
882.574	-43.18
882.746	-6.31
882.918	44.88
883.09	-10.41
883.262	44.88
883.434	77.65
883.606	-53.42
883.778	-6.31
883.95	102.23
884.122	-20.65
884.293	30.55
884.465	-0.17
884.637	73.56
884.809	-51.37
884.98	-75.95
885.152	32.6
885.324	20.31
885.496	20.31
885.667	36.69
885.839	63.32
886.011	3.93
886.182	-67.75
886.354	51.03
886.525	-24.75
886.697	40.79
886.869	-32.94
887.04	38.74
887.212	34.64
887.383	77.65
887.555	12.12
887.726	-34.99
887.897	-116.9
888.069	-4.27
888.24	-4.27
888.412	-34.99
888.583	16.21
888.754	12.12
888.926	-4.27
889.097	-24.75
889.268	-16.55
889.44	-12.46
889.611	-69.8
889.782	14.17
889.953	-28.84
890.125	-28.84
890.296	-53.42
890.467	10.07
890.638	-30.89
890.809	-51.37
890.98	8.02
891.151	-94.38
891.323	36.69
891.494	-0.17
891.665	-69.8
891.836	-2.22
892.007	75.6
892.178	53.08
892.349	-20.65
892.52	20.31
892.691	20.31
892.862	-61.61
893.032	-12.46
893.203	65.36
893.374	46.93
893.545	22.36
893.716	-26.79
893.887	77.65
894.057	-49.32
894.228	-69.8
894.399	12.12
894.57	8.02
894.74	20.31
894.911	-20.65
895.082	-34.99
895.253	30.55
895.423	-28.84
895.594	28.5
895.764	-61.61
895.935	-10.41
896.106	36.69
896.276	-41.13
896.447	-6.31
896.617	14.17
896.788	-28.84
896.958	22.36
897.129	-53.42
897.299	-86.19
897.47	38.74
897.64	20.31
897.81	-61.61
897.981	-4.27
898.151	-32.94
898.322	-16.55
898.492	-26.79
898.662	48.98
898.832	-69.8
899.003	-24.75
899.173	-32.94
899.343	-16.55
899.513	46.93
