Data from USB4F104151__312__14-46-45-270.txt Node

Date: Thu Mar 13 14:46:45 EDT 2025
User: louis
Spectrometer: USB4F10415
Trigger mode: 4
Integration Time (sec): 2.000000E-2
Scans to average: 1
Electric dark correction enabled: true
Nonlinearity correction enabled: false
Boxcar width: 0
XAxis mode: Wavelengths
Number of Pixels in Spectrum: 3648
>>>>>Begin Spectral Data<<<<<
178.204	-122.37
178.424	-122.37
178.644	-122.37
178.864	-171.52
179.084	-105.98
179.304	8.7
179.524	-42.5
179.744	31.23
179.964	37.38
180.184	-48.64
180.404	35.33
180.624	-38.4
180.844	25.09
181.064	23.04
181.283	-7.68
181.503	-24.06
181.723	0.51
181.943	-48.64
182.163	115.2
182.383	2.56
182.602	61.95
182.822	70.14
183.042	25.09
183.262	45.57
183.482	25.09
183.701	16.9
183.921	57.86
184.141	41.47
184.361	90.62
184.58	27.14
184.8	43.52
185.02	-36.35
185.239	25.09
185.459	-32.26
185.679	123.39
185.898	0.51
186.118	45.57
186.338	-13.82
186.557	51.71
186.777	-32.26
186.997	-42.5
187.216	47.62
187.436	74.24
187.655	-7.68
187.875	37.38
188.095	16.9
188.314	4.61
188.534	82.43
188.753	47.62
188.973	25.09
189.192	109.05
189.412	37.38
189.631	-3.58
189.851	49.66
190.07	123.39
190.29	0.51
190.509	20.99
190.729	14.85
190.948	45.57
191.168	102.91
191.387	33.28
191.607	18.94
191.826	8.7
192.045	37.38
192.265	-58.88
192.484	78.33
192.704	2.56
192.923	-7.68
193.142	164.35
193.362	-22.02
193.581	139.77
193.8	-65.02
194.02	66.05
194.239	0.51
194.458	98.81
194.678	-3.58
194.897	59.9
195.116	55.81
195.335	96.77
195.555	104.96
195.774	86.53
195.993	57.86
196.212	0.51
196.432	53.76
196.651	8.7
196.87	51.71
197.089	41.47
197.308	61.95
197.528	68.09
197.747	27.14
197.966	72.19
198.185	104.96
198.404	-7.68
198.623	-17.92
198.842	4.61
199.062	23.04
199.281	45.57
199.5	47.62
199.719	16.9
199.938	45.57
200.157	84.48
200.376	55.81
200.595	115.2
200.814	-34.3
201.033	16.9
201.252	90.62
201.471	2.56
201.69	107.01
201.909	16.9
202.128	98.81
202.347	66.05
202.566	33.28
202.785	20.99
203.004	-110.08
203.223	84.48
203.442	-15.87
203.661	25.09
203.879	84.48
204.098	-5.63
204.317	18.94
204.536	90.62
204.755	0.51
204.974	-48.64
205.193	23.04
205.411	41.47
205.63	33.28
205.849	49.66
206.068	37.38
206.287	41.47
206.505	25.09
206.724	18.94
206.943	78.33
207.162	-30.21
207.381	53.76
207.599	70.14
207.818	51.71
208.037	14.85
208.255	-7.68
208.474	53.76
208.693	-3.58
208.911	59.9
209.13	64
209.349	16.9
209.567	94.72
209.786	35.33
210.005	74.24
210.223	0.51
210.442	25.09
210.661	33.28
210.879	57.86
211.098	23.04
211.316	131.58
211.535	66.05
211.753	8.7
211.972	-11.78
212.191	35.33
212.409	45.57
212.628	49.66
212.846	20.99
213.065	59.9
213.283	82.43
213.502	-9.73
213.72	10.75
213.938	-5.63
214.157	37.38
214.375	-44.54
214.594	29.18
214.812	84.48
215.031	37.38
215.249	-5.63
215.467	68.09
215.686	25.09
215.904	35.33
216.122	16.9
216.341	92.67
216.559	25.09
216.778	-32.26
216.996	66.05
217.214	-7.68
217.432	43.52
217.651	16.9
217.869	59.9
218.087	-30.21
218.306	23.04
218.524	33.28
218.742	25.09
218.96	90.62
219.179	47.62
219.397	68.09
219.615	45.57
219.833	10.75
220.051	-42.5
220.27	43.52
220.488	74.24
220.706	25.09
220.924	66.05
221.142	33.28
221.36	37.38
221.578	92.67
221.796	66.05
222.015	20.99
222.233	-87.55
222.451	57.86
222.669	25.09
222.887	18.94
223.105	-40.45
223.323	100.86
223.541	82.43
223.759	16.9
223.977	27.14
224.195	117.25
224.413	25.09
224.631	78.33
224.849	18.94
225.067	64
225.285	-15.87
225.503	18.94
225.721	66.05
225.939	66.05
226.157	-46.59
226.375	123.39
226.592	70.14
226.81	6.66
227.028	12.8
227.246	119.29
227.464	51.71
227.682	51.71
227.9	119.29
228.117	64
228.335	-38.4
228.553	14.85
228.771	94.72
228.989	39.42
229.206	-85.5
229.424	35.33
229.642	-38.4
229.86	2.56
230.077	49.66
230.295	33.28
230.513	0.51
230.731	66.05
230.948	25.09
231.166	111.1
231.384	0.51
231.601	49.66
231.819	0.51
232.037	2.56
232.254	-56.83
232.472	47.62
232.689	41.47
232.907	49.66
233.125	-48.64
233.342	14.85
233.56	12.8
233.777	-3.58
233.995	27.14
234.213	80.38
234.43	-13.82
234.648	0.51
234.865	49.66
235.083	115.2
235.3	8.7
235.518	70.14
235.735	47.62
235.953	113.15
236.17	45.57
236.388	82.43
236.605	-30.21
236.822	20.99
237.04	51.71
237.257	82.43
237.475	-15.87
237.692	27.14
237.909	0.51
238.127	43.52
238.344	-19.97
238.562	72.19
238.779	-1.54
238.996	8.7
239.214	45.57
239.431	37.38
239.648	-7.68
239.865	64
240.083	35.33
240.3	33.28
240.517	-24.06
240.735	25.09
240.952	49.66
241.169	107.01
241.386	16.9
241.603	0.51
241.821	4.61
242.038	27.14
242.255	74.24
242.472	-32.26
242.689	33.28
242.907	143.87
243.124	61.95
243.341	18.94
243.558	33.28
243.775	51.71
243.992	8.7
244.209	102.91
244.426	117.25
244.643	18.94
244.86	53.76
245.078	49.66
245.295	0.51
245.512	66.05
245.729	8.7
245.946	109.05
246.163	10.75
246.38	18.94
246.597	18.94
246.814	35.33
247.031	16.9
247.248	74.24
247.464	-9.73
247.681	102.91
247.898	49.66
248.115	-15.87
248.332	43.52
248.549	-11.78
248.766	-7.68
248.983	31.23
249.2	43.52
249.417	-17.92
249.633	-9.73
249.85	41.47
250.067	16.9
250.284	41.47
250.501	66.05
250.717	49.66
250.934	51.71
251.151	-15.87
251.368	59.9
251.585	53.76
251.801	12.8
252.018	98.81
252.235	45.57
252.451	-30.21
252.668	-7.68
252.885	33.28
253.102	10.75
253.318	-15.87
253.535	37.38
253.752	57.86
253.968	-11.78
254.185	49.66
254.401	25.09
254.618	82.43
254.835	25.09
255.051	107.01
255.268	0.51
255.484	33.28
255.701	41.47
255.917	33.28
256.134	-19.97
256.351	16.9
256.567	66.05
256.784	-24.06
257	25.09
257.217	53.76
257.433	66.05
257.65	12.8
257.866	10.75
258.082	4.61
258.299	-32.26
258.515	20.99
258.732	16.9
258.948	49.66
259.165	76.29
259.381	31.23
259.597	57.86
259.814	-13.82
260.03	-3.58
260.246	82.43
260.463	57.86
260.679	8.7
260.895	57.86
261.112	59.9
261.328	33.28
261.544	20.99
261.761	59.9
261.977	0.51
262.193	-26.11
262.409	4.61
262.626	109.05
262.842	-5.63
263.058	-22.02
263.274	107.01
263.49	27.14
263.707	-7.68
263.923	109.05
264.139	-48.64
264.355	51.71
264.571	51.71
264.787	25.09
265.004	74.24
265.22	20.99
265.436	16.9
265.652	39.42
265.868	94.72
266.084	18.94
266.3	37.38
266.516	-22.02
266.732	33.28
266.948	66.05
267.164	37.38
267.38	10.75
267.596	0.51
267.812	41.47
268.028	25.09
268.244	27.14
268.46	0.51
268.676	-1.54
268.892	86.53
269.108	-24.06
269.324	33.28
269.54	-19.97
269.756	43.52
269.972	-13.82
270.188	18.94
270.403	35.33
270.619	39.42
270.835	45.57
271.051	31.23
271.267	16.9
271.483	2.56
271.698	57.86
271.914	82.43
272.13	-38.4
272.346	43.52
272.562	-30.21
272.777	84.48
272.993	82.43
273.209	35.33
273.425	29.18
273.64	-32.26
273.856	29.18
274.072	18.94
274.287	31.23
274.503	51.71
274.719	-15.87
274.934	-3.58
275.15	39.42
275.366	51.71
275.581	-56.83
275.797	82.43
276.012	20.99
276.228	-40.45
276.444	51.71
276.659	45.57
276.875	25.09
277.09	-13.82
277.306	59.9
277.521	84.48
277.737	55.81
277.952	41.47
278.168	66.05
278.383	37.38
278.599	59.9
278.814	29.18
279.03	57.86
279.245	27.14
279.461	74.24
279.676	59.9
279.892	49.66
280.107	100.86
280.322	-79.36
280.538	-3.58
280.753	10.75
280.969	33.28
281.184	100.86
281.399	78.33
281.615	45.57
281.83	41.47
282.045	-30.21
282.26	-32.26
282.476	-42.5
282.691	66.05
282.906	12.8
283.122	12.8
283.337	-11.78
283.552	-7.68
283.767	-7.68
283.983	43.52
284.198	76.29
284.413	25.09
284.628	-69.12
284.843	41.47
285.058	18.94
285.274	-7.68
285.489	6.66
285.704	25.09
285.919	10.75
286.134	27.14
286.349	86.53
286.564	33.28
286.779	12.8
286.995	131.58
287.21	20.99
287.425	-3.58
287.64	51.71
287.855	55.81
288.07	-32.26
288.285	57.86
288.5	39.42
288.715	23.04
288.93	12.8
289.145	49.66
289.36	70.14
289.575	47.62
289.79	25.09
290.004	35.33
290.219	59.9
290.434	47.62
290.649	43.52
290.864	16.9
291.079	-11.78
291.294	82.43
291.509	45.57
291.724	29.18
291.938	-24.06
292.153	51.71
292.368	31.23
292.583	-3.58
292.798	25.09
293.012	47.62
293.227	90.62
293.442	-28.16
293.657	59.9
293.871	59.9
294.086	-40.45
294.301	57.86
294.516	16.9
294.73	78.33
294.945	12.8
295.16	68.09
295.374	66.05
295.589	66.05
295.804	-3.58
296.018	-32.26
296.233	102.91
296.447	33.28
296.662	18.94
296.877	61.95
297.091	12.8
297.306	33.28
297.52	76.29
297.735	49.66
297.949	2.56
298.164	43.52
298.378	82.43
298.593	-36.35
298.807	43.52
299.022	100.86
299.236	94.72
299.451	-15.87
299.665	68.09
299.88	0.51
300.094	74.24
300.309	35.33
300.523	10.75
300.737	-40.45
300.952	102.91
301.166	119.29
301.381	74.24
301.595	43.52
301.809	-54.78
302.024	12.8
302.238	68.09
302.452	88.57
302.667	-65.02
302.881	45.57
303.095	57.86
303.309	4.61
303.524	10.75
303.738	37.38
303.952	-3.58
304.166	25.09
304.381	-60.93
304.595	49.66
304.809	70.14
305.023	102.91
305.237	14.85
305.452	37.38
305.666	82.43
305.88	125.44
306.094	53.76
306.308	68.09
306.522	16.9
306.736	8.7
306.95	109.05
307.164	18.94
307.379	82.43
307.593	123.39
307.807	49.66
308.021	61.95
308.235	156.16
308.449	-32.26
308.663	-15.87
308.877	180.73
309.091	-5.63
309.305	57.86
309.519	18.94
309.733	0.51
309.947	68.09
310.161	66.05
310.374	82.43
310.588	55.81
310.802	27.14
311.016	45.57
311.23	-46.59
311.444	-30.21
311.658	8.7
311.872	49.66
312.085	45.57
312.299	102.91
312.513	25.09
312.727	29.18
312.941	-38.4
313.154	-7.68
313.368	102.91
313.582	35.33
313.796	49.66
314.009	18.94
314.223	96.77
314.437	25.09
314.651	100.86
314.864	27.14
315.078	27.14
315.292	35.33
315.505	29.18
315.719	4.61
315.933	12.8
316.146	-19.97
316.36	61.95
316.573	45.57
316.787	57.86
317.001	61.95
317.214	-52.74
317.428	43.52
317.641	4.61
317.855	18.94
318.068	33.28
318.282	16.9
318.495	35.33
318.709	84.48
318.922	31.23
319.136	59.9
319.349	25.09
319.563	-46.59
319.776	12.8
319.99	43.52
320.203	107.01
320.417	82.43
320.63	2.56
320.843	82.43
321.057	55.81
321.27	33.28
321.483	43.52
321.697	164.35
321.91	94.72
322.124	78.33
322.337	57.86
322.55	23.04
322.763	41.47
322.977	-19.97
323.19	57.86
323.403	33.28
323.617	25.09
323.83	51.71
324.043	31.23
324.256	33.28
324.469	37.38
324.683	18.94
324.896	20.99
325.109	18.94
325.322	-50.69
325.535	16.9
325.748	47.62
325.962	8.7
326.175	57.86
326.388	-7.68
326.601	70.14
326.814	53.76
327.027	84.48
327.24	33.28
327.453	12.8
327.666	-24.06
327.879	53.76
328.092	47.62
328.305	86.53
328.518	0.51
328.731	80.38
328.944	45.57
329.157	12.8
329.37	51.71
329.583	102.91
329.796	51.71
330.009	-32.26
330.222	86.53
330.435	107.01
330.648	16.9
330.861	49.66
331.073	84.48
331.286	96.77
331.499	-54.78
331.712	-38.4
331.925	43.52
332.138	76.29
332.35	-15.87
332.563	25.09
332.776	111.1
332.989	4.61
333.202	-28.16
333.414	31.23
333.627	16.9
333.84	-22.02
334.053	115.2
334.265	29.18
334.478	80.38
334.691	10.75
334.903	-13.82
335.116	-1.54
335.329	70.14
335.541	57.86
335.754	109.05
335.966	37.38
336.179	23.04
336.392	33.28
336.604	119.29
336.817	90.62
337.029	16.9
337.242	45.57
337.454	10.75
337.667	4.61
337.88	59.9
338.092	82.43
338.305	74.24
338.517	76.29
338.729	72.19
338.942	66.05
339.154	-24.06
339.367	33.28
339.579	18.94
339.792	86.53
340.004	43.52
340.217	27.14
340.429	98.81
340.641	41.47
340.854	90.62
341.066	16.9
341.278	29.18
341.491	39.42
341.703	131.58
341.915	16.9
342.128	-15.87
342.34	49.66
342.552	92.67
342.764	35.33
342.977	18.94
343.189	18.94
343.401	33.28
343.613	14.85
343.826	53.76
344.038	-44.54
344.25	78.33
344.462	31.23
344.674	61.95
344.886	18.94
345.099	66.05
345.311	74.24
345.523	39.42
345.735	20.99
345.947	61.95
346.159	43.52
346.371	14.85
346.583	20.99
346.795	133.63
347.007	49.66
347.219	92.67
347.431	8.7
347.643	57.86
347.855	76.29
348.067	70.14
348.279	-15.87
348.491	45.57
348.703	33.28
348.915	27.14
349.127	12.8
349.339	43.52
349.551	-19.97
349.763	109.05
349.975	2.56
350.187	123.39
350.399	20.99
350.61	98.81
350.822	-15.87
351.034	98.81
351.246	123.39
351.458	64
351.669	162.3
351.881	16.9
352.093	59.9
352.305	123.39
352.517	45.57
352.728	109.05
352.94	10.75
353.152	-5.63
353.363	0.51
353.575	10.75
353.787	80.38
353.999	115.2
354.21	-3.58
354.422	100.86
354.633	49.66
354.845	29.18
355.057	88.57
355.268	66.05
355.48	66.05
355.692	4.61
355.903	33.28
356.115	25.09
356.326	117.25
356.538	94.72
356.749	25.09
356.961	25.09
357.172	47.62
357.384	49.66
357.595	139.77
357.807	31.23
358.018	2.56
358.23	-22.02
358.441	49.66
358.653	100.86
358.864	68.09
359.075	10.75
359.287	127.49
359.498	90.62
359.709	74.24
359.921	12.8
360.132	33.28
360.344	74.24
360.555	76.29
360.766	-19.97
360.977	27.14
361.189	43.52
361.4	45.57
361.611	98.81
361.823	133.63
362.034	90.62
362.245	-38.4
362.456	61.95
362.667	66.05
362.879	25.09
363.09	-24.06
363.301	49.66
363.512	51.71
363.723	57.86
363.935	39.42
364.146	14.85
364.357	-1.54
364.568	57.86
364.779	37.38
364.99	8.7
365.201	-56.83
365.412	111.1
365.623	25.09
365.834	49.66
366.045	45.57
366.256	53.76
366.467	35.33
366.678	57.86
366.889	66.05
367.1	23.04
367.311	61.95
367.522	8.7
367.733	109.05
367.944	78.33
368.155	12.8
368.366	66.05
368.577	10.75
368.788	90.62
368.999	45.57
369.209	33.28
369.42	68.09
369.631	109.05
369.842	2.56
370.053	-22.02
370.264	109.05
370.474	25.09
370.685	98.81
370.896	29.18
371.107	98.81
371.317	-11.78
371.528	12.8
371.739	92.67
371.95	98.81
372.16	145.92
372.371	41.47
372.582	-44.54
372.792	47.62
373.003	0.51
373.214	33.28
373.424	2.56
373.635	39.42
373.846	100.86
374.056	94.72
374.267	-11.78
374.477	98.81
374.688	-15.87
374.898	23.04
375.109	51.71
375.319	35.33
375.53	57.86
375.74	66.05
375.951	94.72
376.161	27.14
376.372	98.81
376.582	109.05
376.793	84.48
377.003	-22.02
377.214	-28.16
377.424	55.81
377.635	4.61
377.845	-11.78
378.055	-24.06
378.266	4.61
378.476	68.09
378.686	23.04
378.897	51.71
379.107	10.75
379.317	115.2
379.528	84.48
379.738	41.47
379.948	-13.82
380.158	131.58
380.369	49.66
380.579	29.18
380.789	33.28
380.999	61.95
381.21	10.75
381.42	82.43
381.63	-32.26
381.84	127.49
382.05	55.81
382.261	84.48
382.471	92.67
382.681	41.47
382.891	82.43
383.101	31.23
383.311	84.48
383.521	29.18
383.731	20.99
383.941	76.29
384.151	49.66
384.361	90.62
384.571	33.28
384.781	61.95
384.991	123.39
385.201	115.2
385.411	150.01
385.621	49.66
385.831	59.9
386.041	57.86
386.251	59.9
386.461	49.66
386.671	127.49
386.881	0.51
387.091	4.61
387.301	33.28
387.511	43.52
387.72	8.7
387.93	164.35
388.14	-7.68
388.35	20.99
388.56	23.04
388.769	92.67
388.979	117.25
389.189	-3.58
389.399	66.05
389.609	45.57
389.818	35.33
390.028	74.24
390.238	18.94
390.447	37.38
390.657	98.81
390.867	27.14
391.076	2.56
391.286	-3.58
391.496	90.62
391.705	59.9
391.915	94.72
392.125	78.33
392.334	68.09
392.544	86.53
392.753	84.48
392.963	74.24
393.172	49.66
393.382	27.14
393.591	111.1
393.801	-24.06
394.01	96.77
394.22	53.76
394.429	102.91
394.639	90.62
394.848	45.57
395.058	61.95
395.267	78.33
395.477	86.53
395.686	37.38
395.895	98.81
396.105	94.72
396.314	64
396.524	66.05
396.733	125.44
396.942	131.58
397.152	90.62
397.361	96.77
397.57	84.48
397.78	94.72
397.989	119.29
398.198	84.48
398.407	61.95
398.617	51.71
398.826	43.52
399.035	115.2
399.244	43.52
399.453	86.53
399.663	12.8
399.872	115.2
400.081	84.48
400.29	100.86
400.499	92.67
400.708	98.81
400.917	47.62
401.127	76.29
401.336	57.86
401.545	254.46
401.754	86.53
401.963	154.11
402.172	0.51
402.381	115.2
402.59	117.25
402.799	231.93
403.008	111.1
403.217	68.09
403.426	156.16
403.635	74.24
403.844	170.49
404.053	131.58
404.262	137.73
404.471	209.4
404.68	90.62
404.888	158.21
405.097	90.62
405.306	150.01
405.515	61.95
405.724	109.05
405.933	211.45
406.142	203.26
406.35	137.73
406.559	160.25
406.768	166.4
406.977	186.88
407.185	176.64
407.394	119.29
407.603	197.12
407.812	188.93
408.02	215.55
408.229	164.35
408.438	272.89
408.646	199.16
408.855	291.32
409.064	225.79
409.272	201.21
409.481	238.08
409.69	201.21
409.898	266.75
410.107	221.69
410.315	385.53
410.524	338.43
410.733	295.42
410.941	303.61
411.15	346.62
411.358	389.63
411.567	369.15
411.775	332.28
411.984	377.34
412.192	365.05
412.401	328.19
412.609	518.65
412.818	444.92
413.026	358.91
413.234	487.93
413.443	451.07
413.651	393.72
413.86	422.39
414.068	598.52
414.276	489.98
414.485	565.75
414.693	610.81
414.901	608.76
415.11	569.85
415.318	645.62
415.526	641.53
415.734	711.16
415.943	592.37
416.151	676.34
416.359	743.92
416.567	721.4
416.776	731.64
416.984	868.85
417.192	768.5
417.4	831.99
417.608	827.89
417.817	893.43
418.025	983.54
418.233	1008.11
418.441	1006.06
418.649	1057.26
418.857	1171.95
419.065	1139.18
419.273	1106.42
419.481	1157.61
419.689	1165.81
419.897	1253.87
420.105	1221.1
420.313	1333.74
420.521	1462.76
420.729	1483.24
420.937	1401.32
421.145	1470.95
421.353	1534.44
421.561	1665.51
421.769	1593.83
421.977	1741.29
422.185	1763.81
422.393	1812.96
422.601	1804.77
422.809	1915.36
423.017	1968.61
423.224	1982.95
423.432	2058.72
423.64	2111.97
423.848	2308.57
424.056	2218.46
424.263	2404.83
424.471	2460.12
424.679	2478.55
424.887	2648.54
425.094	2744.79
425.302	2673.11
425.51	2779.61
425.718	2826.71
425.925	2906.58
426.133	3033.55
426.341	3305.93
426.548	3369.42
426.756	3262.93
426.964	3424.72
427.171	3408.33
427.379	3588.55
427.586	3682.76
427.794	3807.69
428.001	4047.3
428.209	4139.46
428.417	4100.55
428.624	4409.79
428.832	4237.76
429.039	4432.32
429.247	4262.33
429.454	4835.77
429.662	5001.65
429.869	4766.14
430.076	5093.81
430.284	4934.07
430.491	5136.82
430.699	5423.53
430.906	5317.04
431.114	5380.53
431.321	5603.75
431.528	5720.49
431.736	6044.07
431.943	6451.61
432.15	6369.69
432.358	6289.82
432.565	6566.3
432.772	6662.55
432.979	7014.8
433.187	6963.61
433.394	6949.27
433.601	7584.14
433.808	7598.48
434.016	7358.86
434.223	7668.11
434.43	8235.39
434.637	8100.23
434.844	8585.6
435.052	8763.77
435.259	8929.66
435.466	8876.41
435.673	8712.57
435.88	9412.98
436.087	9859.43
436.294	9695.6
436.501	9570.67
436.708	9789.8
436.915	9910.63
437.122	10649.95
437.329	10520.93
437.537	10805.6
437.743	10914.14
437.95	10740.06
438.157	11374.93
438.364	11682.13
438.571	11938.12
438.778	11749.71
438.985	12804.41
439.192	12249.41
439.399	12781.88
439.606	12687.68
439.813	13252.92
440.02	14072.11
440.227	13875.5
440.433	13601.07
440.64	13998.38
440.847	14084.39
441.054	14373.16
441.261	15229.21
441.467	15051.03
441.674	15343.89
441.881	15892.75
442.088	15845.65
442.294	15644.95
442.501	16066.83
442.708	16312.58
442.914	17195.26
443.121	17893.61
443.328	17342.71
443.534	18577.64
443.741	18041.07
443.948	17844.46
444.154	19253.47
444.361	19116.25
444.568	18841.82
444.774	18962.65
444.981	19329.24
445.187	19859.66
445.394	20783.3
445.6	20553.93
445.807	22481.06
446.013	21416.12
446.22	21848.24
446.426	22933.67
446.633	23074.98
446.839	24017.04
447.046	22562.98
447.252	23877.78
447.459	24023.19
447.665	23820.44
447.871	25053.31
448.078	26013.81
448.284	24952.96
448.491	25528.44
448.697	26433.64
448.903	27199.58
449.11	26845.29
449.316	26572.91
449.522	26787.94
449.728	28063.83
449.935	28029.01
450.141	27732.06
450.347	28575.82
450.553	27639.9
450.76	27990.1
450.966	29116.48
451.172	28706.89
451.378	29388.86
451.584	28899.4
451.791	29763.64
451.997	29694.01
452.203	30005.3
452.409	30322.74
452.615	30259.25
452.821	28936.26
453.027	28530.76
453.233	30359.6
453.44	29177.92
453.646	29274.18
453.852	29368.38
454.058	29880.38
454.264	29065.28
454.47	29937.72
454.676	28876.87
454.882	30052.41
455.088	27646.04
455.294	28008.53
455.5	28510.28
455.705	28506.19
455.911	27037.8
456.117	26820.71
456.323	26753.13
456.529	25241.73
456.735	26282.09
456.941	25981.04
457.147	25469.05
457.352	24862.85
457.558	24537.23
457.764	24418.44
457.97	23998.61
458.176	23566.49
458.381	23371.93
458.587	22405.29
458.793	22462.63
458.999	21412.03
459.204	22849.7
459.41	22053.04
459.616	20836.55
459.821	20768.96
460.027	20605.13
460.233	20138.19
460.438	19220.7
460.644	19531.99
460.85	18673.89
461.055	18258.15
461.261	18233.58
461.466	16873.73
461.672	16351.49
461.878	17537.27
462.083	16374.02
462.289	16261.38
462.494	15898.89
462.7	15186.2
462.905	14688.54
463.111	15397.14
463.316	15130.91
463.522	15036.7
463.727	15135
463.932	15276.31
464.138	15022.36
464.343	14930.2
464.549	14700.83
464.754	15243.54
464.959	14833.95
465.165	14524.71
465.37	14078.25
465.575	13742.38
465.781	14086.44
465.986	14229.8
466.191	13621.55
466.397	13416.76
466.602	12716.35
466.807	13244.73
467.012	13324.6
467.218	13470
467.423	13216.05
467.628	13459.76
467.833	13609.26
468.038	13060.41
468.244	12677.44
468.449	13515.06
468.654	12767.55
468.859	12966.2
469.064	12620.1
469.269	12456.26
469.474	12468.55
469.679	12597.57
469.885	12253.51
470.09	12425.54
470.295	12357.96
470.5	12081.48
470.705	12228.93
470.91	11952.46
471.115	11751.76
471.32	11925.83
471.525	11968.84
471.73	11651.41
471.935	11526.48
472.139	11395.41
472.344	11411.79
472.549	11282.77
472.754	11313.49
472.959	11133.27
473.164	10846.55
473.369	10281.32
473.574	11094.36
473.778	10596.7
473.983	10658.14
474.188	10879.32
474.393	10211.68
474.598	10287.46
474.802	10273.12
475.007	10240.36
475.212	10142.05
475.417	9687.4
475.621	9748.84
475.826	10021.22
476.031	9802.09
476.235	9431.41
476.44	9548.14
476.645	9347.44
476.849	9281.91
477.054	9333.11
477.259	9056.63
477.463	9187.7
477.668	8831.35
477.872	8970.62
478.077	8669.56
478.282	8413.57
478.486	8679.8
478.691	8413.57
478.895	8479.1
479.1	8667.52
479.304	8401.28
479.509	8059.27
479.713	8450.43
479.918	7993.73
480.122	8053.13
480.326	8094.08
480.531	8194.43
480.735	8028.55
480.94	8014.21
481.144	8178.05
481.348	7877
481.553	7897.48
481.757	7809.42
481.961	7715.21
482.166	7879.05
482.37	7885.19
482.574	7790.99
482.778	7647.63
482.983	7922.06
483.187	7633.29
483.391	7688.59
483.595	7565.71
483.8	7506.32
484.004	7713.16
484.208	7715.21
484.412	7797.13
484.616	7942.53
484.821	7831.94
485.025	7625.1
485.229	7868.81
485.433	7713.16
485.637	7590.28
485.841	7793.03
486.045	7711.11
486.249	7709.07
486.453	7721.35
486.657	7627.15
486.861	7793.03
487.065	7545.23
487.269	7776.65
487.473	7469.45
487.677	7823.75
487.881	7889.29
488.085	7721.35
488.289	7721.35
488.493	7840.14
488.697	7874.95
488.901	7786.89
489.105	7840.14
489.309	7915.91
489.512	8018.31
489.716	7917.96
489.92	7963.01
490.124	7768.46
490.328	8077.7
490.531	7877
490.735	7831.94
490.939	8006.02
491.143	8040.84
491.346	7872.9
491.55	8233.35
491.754	8024.45
491.958	8044.93
492.161	8208.77
492.365	8307.07
492.569	8300.93
492.772	7979.4
492.976	8157.57
493.18	8243.59
493.383	8468.86
493.587	8302.98
493.79	8421.76
493.994	8264.07
494.197	8501.63
494.401	8569.21
494.605	8464.77
494.808	8620.41
495.012	8722.81
495.215	8638.84
495.419	8851.83
495.622	8810.87
495.825	9083.25
496.029	8874.36
496.232	9032.05
496.436	9101.69
496.639	9331.06
496.843	9361.78
497.046	9474.42
497.249	9628.01
497.453	9550.19
497.656	9642.35
497.859	9709.93
498.063	9814.38
498.266	10029.41
498.469	9974.12
498.673	10099.05
498.876	10178.92
499.079	10103.14
499.282	10416.48
499.485	10600.8
499.689	10598.75
499.892	10563.93
500.095	10559.84
500.298	11012.44
500.501	10729.82
500.705	11032.92
500.908	11155.8
501.111	11428.18
501.314	11594.06
501.517	11600.21
501.72	11786.57
501.923	11952.46
502.126	11915.59
502.329	12263.75
502.532	12345.67
502.735	12388.67
502.938	12536.13
503.141	12788.03
503.344	12896.57
503.547	12874.04
503.75	13048.12
503.953	13338.93
504.156	13334.84
504.359	13420.85
504.562	13445.43
504.765	13848.88
504.968	14035.24
505.17	14237.99
505.373	13918.51
505.576	14227.75
505.779	14522.66
505.982	14573.86
506.185	14764.32
506.387	14870.81
506.59	15059.23
506.793	15460.63
506.996	15343.89
507.198	16079.11
507.401	15622.42
507.604	15692.05
507.807	16179.47
508.009	16255.24
508.212	16713.98
508.415	16521.48
508.617	16988.41
508.82	16890.11
509.022	16859.39
509.225	17332.47
509.428	17422.58
509.63	17809.65
509.833	17410.29
510.035	18043.12
510.238	17760.5
510.44	18338.02
510.643	18612.45
510.845	18589.92
511.048	18481.38
511.25	18925.79
511.453	19134.68
511.655	19624.15
511.858	19355.86
512.06	19691.73
512.262	19798.23
512.465	19755.22
512.667	19904.72
512.87	20424.9
513.072	20226.25
513.274	20754.63
513.477	21149.89
513.679	21381.31
513.881	21473.46
514.084	21694.64
514.286	21532.86
514.488	21797.04
514.69	22284.46
514.893	22476.97
515.095	22544.55
515.297	22679.72
515.499	22974.63
515.701	22775.97
515.904	23455.9
516.106	23349.4
516.308	23562.39
516.51	23963.79
516.712	24115.34
516.914	24494.22
517.116	24701.06
517.318	24707.21
517.52	24830.09
517.722	24955.01
517.925	25403.52
518.127	25825.4
518.329	25778.29
518.531	25780.34
518.733	26122.35
518.935	26351.73
519.136	26505.32
519.338	26656.87
519.54	27166.82
519.742	27213.92
519.944	27410.53
520.146	27963.48
520.348	27885.65
520.55	27762.78
520.752	27963.48
520.954	28661.83
521.155	28407.89
521.357	28710.99
521.559	29294.66
521.761	29407.3
521.963	29556.8
522.164	29528.13
522.366	29773.88
522.568	29962.29
522.77	30486.57
522.971	30644.27
523.173	30572.59
523.375	30904.36
523.576	30621.74
523.778	30742.57
523.98	31627.29
524.181	31465.5
524.383	31612.96
524.584	31463.46
524.786	31604.77
524.988	31731.74
525.189	32043.03
525.391	32395.28
525.592	32815.12
525.794	32581.65
525.995	32743.44
526.197	32929.8
526.398	33159.17
526.6	33153.03
526.801	33337.35
527.003	33193.99
527.204	33427.46
527.406	33492.99
527.607	33875.96
527.808	34330.61
528.01	33482.75
528.211	33761.28
528.412	34224.12
528.614	34289.65
528.815	34574.32
529.016	34754.54
529.218	34545.65
529.419	34650.1
529.62	34910.19
529.822	34260.98
530.023	34670.57
530.224	34619.38
530.425	34646
530.626	34394.1
530.828	34396.15
531.029	35375.08
531.23	34674.67
531.431	35125.22
531.632	35368.93
531.833	35188.71
532.035	35280.87
532.236	35373.03
532.437	35239.91
532.638	35221.48
532.839	35473.38
533.04	35667.94
533.241	35104.74
533.442	35848.16
533.643	35844.06
533.844	35473.38
534.045	35837.92
534.246	35026.92
534.447	35622.88
534.648	35483.62
534.849	35708.9
535.05	35721.18
535.251	35553.25
535.451	35141.61
535.652	35815.39
535.853	35649.5
536.054	35526.63
536.255	35545.06
536.456	35182.57
536.657	35751.9
536.857	35534.82
537.058	35612.64
537.259	35651.55
537.46	35995.61
537.66	35467.23
537.861	35809.25
538.062	35616.74
538.263	35696.61
538.463	35598.3
538.664	35561.44
538.865	35721.18
539.065	36184.02
539.266	35207.14
539.466	35891.16
539.667	35426.28
539.868	35944.41
540.068	35669.98
540.269	35477.47
540.469	35741.66
540.67	35456.99
540.87	35606.5
541.071	35766.24
541.271	35801.05
541.472	35524.58
541.672	35266.53
541.873	35284.97
542.073	35151.85
542.274	35778.53
542.474	35536.87
542.675	35411.94
542.875	35860.44
543.075	35198.95
543.276	35155.94
543.476	35403.75
543.676	35293.16
543.877	35649.5
544.077	35649.5
544.277	35123.18
544.478	35411.94
544.678	35471.33
544.878	35223.53
545.078	35508.19
545.279	35137.51
545.479	35094.5
545.679	35553.25
545.879	35391.46
546.079	35602.4
546.28	35315.69
546.48	34822.12
546.68	35133.42
546.88	35131.37
547.08	34969.58
547.28	35440.61
547.48	35061.74
547.68	35448.8
547.88	35033.07
548.081	35229.67
548.281	35035.11
548.481	34889.71
548.681	35452.9
548.881	35387.36
549.081	34899.95
549.28	35209.19
549.48	35098.6
549.68	35373.03
549.88	35502.05
550.08	34891.76
550.28	35188.71
550.48	34975.72
550.68	35375.08
550.88	34805.74
551.08	34899.95
551.279	35330.02
551.479	35010.54
551.679	34779.12
551.879	34506.74
552.079	35047.4
552.278	34652.14
552.478	34936.81
552.678	35000.3
552.878	34920.43
553.077	34451.44
553.277	34330.61
553.477	35678.18
553.676	35231.72
553.876	34637.81
554.076	34404.34
554.275	34818.03
554.475	34627.57
554.674	34805.74
554.874	34230.26
555.074	34492.4
555.273	34748.4
555.473	34881.52
555.672	34103.29
555.872	34217.97
556.071	34099.19
556.271	34562.03
556.47	34631.66
556.67	34054.14
556.869	34047.99
557.068	34236.41
557.268	33984.51
557.467	34119.67
557.667	34140.15
557.866	33968.12
558.065	34295.8
558.265	33869.82
558.464	33986.55
558.663	34011.13
558.863	33808.38
559.062	34183.16
559.261	33933.31
559.461	33931.26
559.66	33466.37
559.859	33978.36
560.058	33497.09
560.258	33542.14
560.457	33259.52
560.656	33826.81
560.855	33263.62
561.054	33566.72
561.253	33249.28
561.453	33560.58
561.652	33359.87
561.851	33644.54
562.05	33105.93
562.249	32653.33
562.448	33116.17
562.647	33058.82
562.846	33206.28
563.045	33114.12
563.244	32565.26
563.443	33159.17
563.642	32710.67
563.841	32825.36
564.04	32897.03
564.239	32929.8
564.438	32671.76
564.637	32567.31
564.836	32616.46
565.035	32129.05
565.234	32239.64
565.432	32317.46
565.631	31719.45
565.83	32266.26
566.029	31977.5
566.228	32038.94
566.427	31754.27
566.625	31875.1
566.824	31791.13
567.023	32053.27
567.222	31469.6
567.42	31760.41
567.619	31535.13
567.818	31422.5
568.016	31438.88
568.215	31420.45
568.414	31301.67
568.612	31592.48
568.811	30935.08
569.01	31176.74
569.208	30631.98
569.407	31109.16
569.605	30705.71
569.804	31131.68
570.002	30548.01
570.201	30933.03
570.4	30599.21
570.598	30201.91
570.797	30505.01
570.995	30593.07
571.193	30136.37
571.392	30545.97
571.59	29753.4
571.789	30251.06
571.987	30044.21
572.186	29958.2
572.384	29810.75
572.582	30062.65
572.781	30083.12
572.979	29636.67
573.177	29599.8
573.376	29859.9
573.574	29386.82
573.772	29646.91
573.971	29026.37
574.169	29438.01
574.367	28811.34
574.565	29376.58
574.763	28981.32
574.962	28665.93
575.16	28766.28
575.358	29022.28
575.556	28614.73
575.754	29007.94
575.952	28698.7
576.151	28942.41
576.349	28332.11
576.547	28139.6
576.745	28700.75
576.943	28479.57
577.141	28256.34
577.339	28336.21
577.537	28295.25
577.735	28348.5
577.933	27859.03
578.131	28178.51
578.329	27766.87
578.527	27687
578.725	27488.35
578.923	27545.69
579.121	27594.84
579.319	27121.76
579.516	27371.61
579.714	27498.59
579.912	27240.54
580.11	27383.9
580.308	27277.41
580.506	27240.54
580.704	26744.94
580.901	27263.07
581.099	27172.96
581.297	26499.18
581.495	26998.88
581.692	26867.81
581.89	26515.56
582.088	26769.51
582.285	26278
582.483	26464.36
582.681	26351.73
582.878	26407.02
583.076	25919.6
583.274	25800.82
583.471	25974.9
583.669	26265.71
583.866	26083.44
584.064	26155.12
584.262	25391.23
584.459	25704.57
584.657	25153.66
584.854	25837.69
585.052	25481.34
585.249	25643.13
585.447	25337.98
585.644	25272.45
585.841	25254.01
586.039	25489.53
586.236	24967.3
586.434	25086.08
586.631	25163.9
586.828	24973.44
587.026	24959.11
587.223	24946.82
587.42	24985.73
587.618	24664.2
587.815	24522.89
588.012	24131.73
588.21	24574.09
588.407	24473.74
588.604	24387.72
588.801	24053.9
588.999	24127.63
589.196	24123.54
589.393	24275.09
589.59	24002.71
589.787	23974.03
589.984	23838.87
590.182	23660.69
590.379	23728.28
590.576	23353.5
590.773	23453.85
590.97	23339.16
591.167	23533.72
591.364	23097.5
591.561	23404.7
591.758	22968.48
591.955	23414.94
592.152	23326.88
592.349	23142.56
592.546	22960.29
592.743	23290.01
592.94	22808.74
593.137	22851.75
593.334	22759.59
593.531	22571.18
593.727	22624.42
593.924	22593.7
594.121	22163.63
594.318	22653.09
594.515	22204.59
594.712	22581.42
594.908	22171.82
595.105	22333.61
595.302	21723.32
595.499	21997.74
595.696	21934.26
595.892	21651.64
596.089	22034.61
596.286	21852.34
596.482	22169.77
596.679	21815.48
596.876	21801.14
597.072	21393.59
597.269	21338.3
597.466	21381.31
597.662	21244.09
597.859	21508.28
598.055	21313.72
598.252	21127.36
598.448	21123.26
598.645	20897.99
598.841	20797.63
599.038	20791.49
599.234	21110.97
599.431	20709.57
599.627	20670.66
599.824	20644.04
600.02	20412.62
600.217	20619.46
600.413	20314.31
600.609	20406.47
600.806	20381.9
601.002	20164.81
601.198	20295.88
601.395	20136.14
601.591	20132.04
601.787	19906.77
601.984	19937.49
602.18	20084.94
602.376	19855.57
602.572	19734.74
602.769	19765.46
602.965	19450.07
603.161	19863.76
603.357	19661.01
603.553	19515.61
603.75	19198.17
603.946	19409.11
604.142	19644.63
604.338	19149.02
604.534	19110.11
604.73	19003.61
604.926	19091.68
605.122	19046.62
605.318	18860.26
605.514	18907.36
605.71	18626.79
605.906	18766.05
606.102	18614.5
606.298	18651.36
606.494	18821.34
606.69	18649.32
606.886	18544.87
607.082	18600.16
607.278	18628.84
607.474	18196.71
607.67	18557.16
607.866	18274.54
608.062	18262.25
608.257	18252.01
608.453	17981.68
608.649	18122.99
608.845	17699.06
609.041	18012.4
609.236	18051.31
609.432	17764.59
609.628	18000.11
609.824	17750.26
610.019	18106.6
610.215	17928.43
610.411	17932.53
610.606	17680.63
610.802	17780.98
610.998	17641.71
611.193	17670.39
611.389	17580.28
611.584	17477.88
611.78	17352.95
611.976	17379.57
612.171	17772.78
612.367	17443.06
612.562	17402.1
612.758	17209.59
612.953	17146.11
613.149	17441.01
613.344	16957.69
613.539	17332.47
613.735	17328.38
613.93	17213.69
614.126	16838.91
614.321	17072.38
614.517	16949.5
614.712	17045.76
614.907	17035.52
615.103	16986.36
615.298	17027.32
615.493	16967.93
615.688	16810.24
615.884	16976.12
616.079	16597.25
616.274	16890.11
616.47	16711.94
616.665	16810.24
616.86	16455.94
617.055	16480.52
617.25	16642.31
617.445	16460.04
617.641	16062.73
617.836	16804.1
618.031	16216.33
618.226	16447.75
618.421	16310.54
618.616	16277.77
618.811	15999.24
619.006	16165.13
619.201	15862.03
619.396	16247.05
619.591	15720.72
619.786	16044.3
619.981	15540.5
620.176	15870.22
620.371	15630.61
620.566	15771.92
620.761	15530.26
620.956	15581.46
621.151	15372.57
621.346	15503.64
621.541	15223.06
621.735	15337.75
621.93	15040.79
622.125	15081.75
622.32	14817.57
622.515	14924.06
622.709	14743.84
622.904	15018.27
623.099	14831.9
623.294	14715.17
623.488	14575.91
623.683	14541.09
623.878	14074.15
624.072	14369.06
624.267	14442.79
624.462	14211.37
624.656	13787.44
624.851	14037.29
625.046	13984.04
625.24	13988.14
625.435	13910.32
625.629	13859.12
625.824	13775.15
626.018	13490.48
626.213	13377.84
626.407	13414.71
626.602	13242.68
626.796	13316.4
626.991	13175.09
627.185	13295.93
627.38	13144.38
627.574	13197.62
627.768	12865.85
627.963	12970.3
628.157	12642.62
628.352	12902.72
628.546	12693.82
628.74	12505.41
628.935	12581.18
629.129	12620.1
629.323	12273.99
629.517	12263.75
629.712	12288.32
629.906	12372.29
630.1	12241.22
630.294	12153.16
630.489	11903.31
630.683	11977.03
630.877	11821.39
631.071	11774.28
631.265	11829.58
631.459	11716.94
631.653	11637.07
631.848	11641.17
632.042	11657.55
632.236	11430.23
632.43	11585.87
632.624	11411.79
632.818	11370.83
633.012	11163.99
633.206	10977.62
633.4	11069.78
633.594	11174.23
633.788	11372.88
633.982	10977.62
634.176	11002.2
634.369	10897.75
634.563	10881.37
634.757	10826.07
634.951	10766.68
635.145	10715.48
635.339	10531.17
635.533	10740.06
635.726	10584.41
635.92	10256.74
636.114	10484.06
636.308	10289.51
636.501	10305.89
636.695	10121.57
636.889	10277.22
637.083	9955.69
637.276	9826.67
637.47	9939.3
637.664	9896.3
637.857	9900.39
638.051	9808.23
638.244	9767.27
638.438	9789.8
638.632	9628.01
638.825	9542
639.019	9709.93
639.212	9515.37
639.406	9496.94
639.599	9521.52
639.793	9335.15
639.986	9298.29
640.18	9351.54
640.373	9318.77
640.567	9226.61
640.76	9175.41
640.954	9005.43
641.147	8952.18
641.34	9075.06
641.534	8966.52
641.727	8956.28
641.92	8821.11
642.114	8767.87
642.307	8542.59
642.5	8774.01
642.694	8679.8
642.887	8649.08
643.08	8530.3
643.273	8432
643.467	8593.79
643.66	8368.51
643.853	8356.22
644.046	8421.76
644.239	8290.69
644.432	8239.49
644.626	8094.08
644.819	8145.28
645.012	8192.39
645.205	8159.62
645.398	8120.71
645.591	8049.03
645.784	7969.16
645.977	7893.38
646.17	8089.99
646.363	7960.97
646.556	7569.8
646.749	7741.83
646.942	7813.51
647.135	7700.87
647.328	7555.47
647.521	7606.67
647.714	7479.69
647.907	7430.54
648.099	7303.57
648.292	7418.25
648.485	7481.74
648.678	7539.08
648.871	7266.71
649.064	7266.71
649.256	7342.48
649.449	7309.71
649.642	7201.17
649.835	6996.37
650.027	7094.68
650.22	7025.04
650.413	7102.87
650.605	7086.48
650.798	6930.84
650.991	6865.3
651.183	6853.02
651.376	6807.96
651.568	6850.97
651.761	6728.09
651.954	6777.24
652.146	6689.18
652.339	6549.92
652.531	6574.49
652.724	6513.05
652.916	6318.5
653.109	6527.39
653.301	6480.29
653.494	6449.57
653.686	6357.41
653.879	6566.3
654.071	6328.74
654.263	6314.4
654.456	6334.88
654.648	6306.21
654.84	6146.47
655.033	6220.19
655.225	6054.31
655.417	6107.55
655.61	6128.03
655.802	6015.4
655.994	6103.46
656.186	5988.77
656.379	5865.89
656.571	5894.57
656.763	5816.74
656.955	5712.3
657.148	5833.13
657.34	5915.05
657.532	5763.5
657.724	5712.3
657.916	5718.44
658.108	5749.16
658.3	5575.08
658.492	5702.06
658.684	5474.73
658.876	5671.34
659.068	5536.17
659.26	5554.6
659.452	5360.05
659.644	5417.39
659.836	5464.49
660.028	5302.7
660.22	5177.78
660.412	5345.71
660.604	5249.46
660.796	5179.82
660.988	5237.17
661.18	5286.32
661.372	5198.26
661.563	5200.3
661.755	5171.63
661.947	5073.33
662.139	5089.71
662.331	5007.8
662.522	5063.09
662.714	5040.56
662.906	4911.54
663.097	4792.76
663.289	4784.57
663.481	4882.87
663.673	4759.99
663.864	4735.42
664.056	4706.74
664.247	4655.54
664.439	4766.14
664.631	4696.5
664.822	4762.04
665.014	4637.11
665.205	4645.31
665.397	4645.31
665.588	4604.35
665.78	4561.34
665.971	4471.23
666.163	4524.47
666.354	4633.02
666.546	4374.97
666.737	4491.71
666.929	4506.04
667.12	4428.22
667.311	4450.75
667.503	4262.33
667.694	4286.91
667.885	4207.04
668.077	4368.83
668.268	4188.61
668.459	4217.28
668.651	4055.49
668.842	4151.74
669.033	4276.67
669.224	4329.92
669.416	4256.19
669.607	4022.72
669.798	4147.65
669.989	4180.42
670.18	3932.61
670.371	4164.03
670.563	4067.78
670.754	3969.48
670.945	4006.34
671.136	4051.39
671.327	3908.04
671.518	4008.39
671.709	3957.19
671.9	3908.04
672.091	3903.94
672.282	3926.47
672.473	3736.01
672.664	3881.41
672.855	3736.01
673.046	3832.26
673.237	3830.21
673.428	3697.1
673.619	3858.89
673.809	3660.23
674	3908.04
674.191	3789.25
674.382	3813.83
674.573	3606.98
674.764	3756.49
674.954	3525.07
675.145	3529.16
675.336	3543.5
675.527	3557.83
675.717	3625.42
675.908	3465.68
676.099	3572.17
676.289	3424.72
676.48	3531.21
676.671	3402.19
676.861	3375.56
677.052	3416.52
677.243	3408.33
677.433	3447.24
677.624	3609.03
677.814	3394
678.005	3363.28
678.195	3350.99
678.386	3412.43
678.576	3363.28
678.767	3305.93
678.957	3412.43
679.148	3350.99
679.338	3346.89
679.529	3326.41
679.719	3318.22
679.909	3328.46
680.1	3375.56
680.29	3441.1
680.481	3152.34
680.671	3107.28
680.861	3148.24
681.052	3189.2
681.242	3228.11
681.432	3181.01
681.622	3181.01
681.813	3168.72
682.003	3275.21
682.193	3109.33
682.383	3138
682.573	3209.68
682.764	3181.01
682.954	3178.96
683.144	3113.42
683.334	2974.16
683.524	2990.55
683.714	3140.05
683.904	3123.66
684.094	2965.97
684.284	3047.89
684.474	3047.89
684.664	3047.89
684.854	2986.45
685.044	3084.75
685.234	2949.59
685.424	2937.3
685.614	2925.01
685.804	3129.81
685.994	3080.66
686.184	2937.3
686.374	2992.59
686.564	2974.16
686.753	2902.48
686.943	2836.95
687.133	2978.26
687.323	2925.01
687.513	2884.05
687.702	2765.27
687.892	2892.24
688.082	2886.1
688.272	2695.64
688.461	2738.65
688.651	2916.82
688.841	2671.06
689.03	2726.36
689.22	2669.02
689.41	2720.21
689.599	2650.58
689.789	2712.02
689.979	2658.78
690.168	2769.37
690.358	2613.72
690.547	2593.24
690.737	2638.3
690.926	2623.96
691.116	2732.5
691.305	2712.02
691.495	2587.1
691.684	2519.51
691.874	2587.1
692.063	2623.96
692.252	2666.97
692.442	2621.91
692.631	2460.12
692.82	2554.33
693.01	2679.26
693.199	2458.07
693.388	2535.9
693.578	2523.61
693.767	2525.66
693.956	2537.95
694.146	2437.59
694.335	2359.77
694.524	2413.02
694.713	2517.47
694.902	2441.69
695.092	2458.07
695.281	2453.98
695.47	2324.96
695.659	2388.44
695.848	2367.96
696.037	2343.39
696.226	2372.06
696.415	2402.78
696.604	2535.9
696.793	2458.07
696.982	2341.34
697.171	2460.12
697.36	2335.2
697.549	2245.09
697.738	2322.91
697.927	2185.69
698.116	2365.92
698.305	2343.39
698.494	2347.48
698.683	2390.49
698.872	2408.92
699.061	2286.05
699.25	2361.82
699.438	2408.92
699.627	2294.24
699.816	2300.38
700.005	2214.37
700.193	2240.99
700.382	2245.09
700.571	2320.86
700.76	2245.09
700.948	2372.06
701.137	2388.44
701.326	2263.52
701.514	2150.88
701.703	2343.39
701.892	2222.56
702.08	2384.35
702.269	2294.24
702.457	2281.95
702.646	2109.92
702.834	2130.4
703.023	2206.17
703.212	2261.47
703.4	2177.5
703.589	2142.69
703.777	2240.99
703.965	2179.55
704.154	2236.89
704.342	2216.41
704.531	2195.93
704.719	2253.28
704.907	2212.32
705.096	2111.97
705.284	2085.34
705.472	2130.4
705.661	2259.42
705.849	2216.41
706.037	2232.8
706.226	2105.82
706.414	2073.06
706.602	2165.21
706.79	2085.34
706.979	2128.35
707.167	2142.69
707.355	2136.54
707.543	2154.98
707.731	2257.37
707.919	2200.03
708.107	2124.26
708.296	2062.82
708.484	2101.73
708.672	2171.36
708.86	2099.68
709.048	2197.98
709.236	2171.36
709.424	2220.51
709.612	2195.93
709.8	2142.69
709.988	2114.02
710.176	2107.87
710.364	2081.25
710.551	2114.02
710.739	2154.98
710.927	2052.58
711.115	2091.49
711.303	2122.21
711.491	2030.05
711.679	2081.25
711.866	2019.81
712.054	2068.96
712.242	2075.1
712.43	2130.4
712.617	2042.34
712.805	2073.06
712.993	2109.92
713.181	2093.54
713.368	2228.7
713.556	2103.78
713.744	2105.82
713.931	2187.74
714.119	2058.72
714.306	2107.87
714.494	2046.43
714.682	2193.89
714.869	2122.21
715.057	2154.98
715.244	1999.33
715.432	2171.36
715.619	2138.59
715.807	2111.97
715.994	2062.82
716.182	2142.69
716.369	2093.54
716.556	1999.33
716.744	2032.1
716.931	2025.95
717.119	2068.96
717.306	2142.69
717.493	2003.43
717.681	2044.38
717.868	2124.26
718.055	2130.4
718.242	2071.01
718.43	2077.15
718.617	2025.95
718.804	2071.01
718.991	2077.15
719.179	2179.55
719.366	2109.92
719.553	2048.48
719.74	2091.49
719.927	2146.78
720.114	2064.86
720.301	1984.99
720.488	2021.86
720.676	2099.68
720.863	1997.28
721.05	2126.3
721.237	1968.61
721.424	2028
721.611	2097.63
721.798	2046.43
721.985	2007.52
722.172	2056.67
722.358	2040.29
722.545	2077.15
722.732	2116.06
722.919	2138.59
723.106	2017.76
723.293	1911.27
723.48	2017.76
723.667	2017.76
723.853	1898.98
724.04	2040.29
724.227	2023.91
724.414	1915.36
724.6	2109.92
724.787	2040.29
724.974	2048.48
725.161	2028
725.347	2011.62
725.534	2023.91
725.72	2048.48
725.907	2064.86
726.094	1997.28
726.28	2023.91
726.467	2068.96
726.653	2126.3
726.84	2048.48
727.027	1974.75
727.213	1917.41
727.4	2066.91
727.586	1984.99
727.773	2079.2
727.959	1974.75
728.145	2025.95
728.332	1974.75
728.518	1966.56
728.705	1991.14
728.891	2107.87
729.077	1980.9
729.264	2013.67
729.45	1982.95
729.636	1917.41
729.823	2034.14
730.009	2091.49
730.195	1937.89
730.382	1933.79
730.568	1952.23
730.754	1860.07
730.94	1974.75
731.126	1999.33
731.313	2066.91
731.499	1884.64
731.685	2034.14
731.871	1972.71
732.057	2068.96
732.243	1982.95
732.429	1982.95
732.615	2042.34
732.801	1995.23
732.987	1999.33
733.173	2077.15
733.359	1925.6
733.545	1954.27
733.731	1862.12
733.917	2032.1
734.103	2032.1
734.289	1937.89
734.475	1892.84
734.661	1931.75
734.847	1974.75
735.033	2056.67
735.219	1915.36
735.404	2032.1
735.59	1991.14
735.776	1845.73
735.962	2081.25
736.148	1901.03
736.333	1995.23
736.519	1950.18
736.705	1995.23
736.89	1925.6
737.076	1954.27
737.262	1984.99
737.447	1823.2
737.633	1831.4
737.819	2036.19
738.004	1839.59
738.19	1812.96
738.375	1804.77
738.561	1919.46
738.747	1872.36
738.932	1925.6
739.118	1882.6
739.303	1892.84
739.489	1878.5
739.674	1890.79
739.859	1921.51
740.045	1831.4
740.23	1886.69
740.416	1745.38
740.601	1866.21
740.786	1827.3
740.972	1786.34
741.157	1909.22
741.342	1790.44
741.528	1819.11
741.713	1880.55
741.898	1741.29
742.084	1767.91
742.269	1679.85
742.454	1761.77
742.639	1731.05
742.824	1780.2
743.01	1806.82
743.195	1796.58
743.38	1774.05
743.565	1745.38
743.75	1673.7
743.935	1810.92
744.12	1751.53
744.305	1704.42
744.49	1749.48
744.675	1769.96
744.86	1710.57
745.045	1729
745.23	1634.79
745.415	1516.01
745.6	1712.61
745.785	1657.32
745.97	1657.32
746.155	1573.35
746.34	1653.22
746.525	1681.89
746.71	1642.98
746.895	1649.13
747.079	1638.89
747.264	1528.3
747.449	1632.74
747.634	1602.02
747.819	1573.35
748.003	1579.5
748.188	1538.54
748.373	1415.66
748.557	1516.01
748.742	1405.42
748.927	1473
749.111	1479.15
749.296	1470.95
749.481	1589.74
749.665	1368.56
749.85	1339.88
750.034	1401.32
750.219	1468.91
750.404	1393.13
750.588	1429.99
750.773	1401.32
750.957	1311.21
751.141	1317.36
751.326	1401.32
751.51	1339.88
751.695	1409.51
751.879	1323.5
752.064	1376.75
752.248	1360.36
752.432	1374.7
752.617	1309.16
752.801	1360.36
752.985	1335.79
753.17	1286.64
753.354	1292.78
753.538	1264.11
753.722	1217.01
753.907	1286.64
754.091	1274.35
754.275	1282.54
754.459	1200.62
754.643	1223.15
754.828	1300.97
755.012	1239.53
755.196	1139.18
755.38	1174
755.564	1161.71
755.748	1198.57
755.932	1092.08
756.116	1141.23
756.3	1147.37
756.484	1180.14
756.668	1051.12
756.852	1196.53
757.036	1169.9
757.22	1188.33
757.404	1098.22
757.588	1110.51
757.772	1122.8
757.956	1102.32
758.14	1001.97
758.323	1065.46
758.507	1126.89
758.691	985.58
758.875	1139.18
759.059	1053.17
759.242	1044.98
759.426	1016.3
759.61	1016.3
759.794	1065.46
759.977	1024.5
760.161	1149.42
760.345	1022.45
760.528	1049.07
760.712	1038.83
760.895	1016.3
761.079	963.06
761.263	946.67
761.446	899.57
761.63	918
761.813	958.96
761.997	983.54
762.18	1022.45
762.364	868.85
762.547	901.62
762.731	889.33
762.914	856.56
763.098	932.34
763.281	911.86
763.464	887.28
763.648	930.29
763.831	887.28
764.015	920.05
764.198	805.36
764.381	926.19
764.564	891.38
764.748	1020.4
764.931	922.1
765.114	817.65
765.297	887.28
765.481	813.56
765.664	862.71
765.847	881.14
766.03	918
766.213	848.37
766.397	891.38
766.58	807.41
766.763	862.71
766.946	936.43
767.129	821.75
767.312	762.36
767.495	852.47
767.678	856.56
767.861	836.08
768.044	782.84
768.227	844.28
768.41	795.12
768.593	846.32
768.776	819.7
768.959	727.54
769.142	903.67
769.324	819.7
769.507	795.12
769.69	766.45
769.873	815.6
770.056	874.99
770.239	834.04
770.421	799.22
770.604	748.02
770.787	737.78
770.97	803.32
771.152	731.64
771.335	766.45
771.518	737.78
771.7	766.45
771.883	737.78
772.066	741.88
772.248	750.07
772.431	803.32
772.613	725.49
772.796	696.82
772.978	772.6
773.161	772.6
773.343	713.21
773.526	700.92
773.708	729.59
773.891	711.16
774.073	719.35
774.256	649.72
774.438	709.11
774.621	645.62
774.803	758.26
774.985	682.49
775.168	631.29
775.35	602.61
775.532	700.92
775.715	657.91
775.897	672.25
776.079	698.87
776.261	682.49
776.444	674.29
776.626	571.9
776.808	606.71
776.99	600.57
777.173	647.67
777.355	578.04
777.537	584.18
777.719	573.94
777.901	623.09
778.083	641.53
778.265	543.22
778.447	647.67
778.629	629.24
778.811	571.9
778.993	565.75
779.175	614.9
779.357	516.6
779.539	485.88
779.721	559.61
779.903	588.28
780.085	551.42
780.267	537.08
780.449	508.41
780.631	549.37
780.812	614.9
780.994	477.69
781.176	485.88
781.358	530.94
781.54	455.16
781.721	541.18
781.903	569.85
782.085	434.68
782.267	559.61
782.448	459.26
782.63	453.11
782.812	522.74
782.993	557.56
783.175	508.41
783.357	432.63
783.538	551.42
783.72	410.11
783.901	449.02
784.083	481.78
784.264	518.65
784.446	510.46
784.627	424.44
784.809	483.83
784.99	502.26
785.172	532.98
785.353	532.98
785.535	451.07
785.716	434.68
785.897	424.44
786.079	393.72
786.26	367.1
786.441	418.3
786.623	363
786.804	383.48
786.985	436.73
787.167	395.77
787.348	422.39
787.529	332.28
787.71	403.96
787.891	459.26
788.073	391.67
788.254	403.96
788.435	403.96
788.616	373.24
788.797	328.19
788.978	348.67
789.159	276.99
789.34	328.19
789.522	352.76
789.703	330.23
789.884	320
790.065	336.38
790.246	389.63
790.427	358.91
790.607	352.76
790.788	328.19
790.969	313.85
791.15	344.57
791.331	326.14
791.512	340.47
791.693	344.57
791.874	309.76
792.054	406.01
792.235	264.7
792.416	258.56
792.597	315.9
792.778	268.8
792.958	365.05
793.139	332.28
793.32	281.08
793.5	287.23
793.681	344.57
793.862	287.23
794.042	307.71
794.223	303.61
794.404	207.36
794.584	180.73
794.765	231.93
794.945	338.43
795.126	279.04
795.306	279.04
795.487	274.94
795.667	344.57
795.848	221.69
796.028	289.28
796.209	264.7
796.389	233.98
796.57	295.42
796.75	139.77
796.93	320
797.111	158.21
797.291	295.42
797.471	262.65
797.652	246.27
797.832	221.69
798.012	328.19
798.192	252.41
798.373	213.5
798.553	205.31
798.733	246.27
798.913	158.21
799.093	223.74
799.274	279.04
799.454	281.08
799.634	279.04
799.814	287.23
799.994	276.99
800.174	221.69
800.354	268.8
800.534	238.08
800.714	217.6
800.894	188.93
801.074	197.12
801.254	215.55
801.434	254.46
801.614	199.16
801.794	145.92
801.974	791.03
802.154	166.4
802.334	158.21
802.514	197.12
802.693	225.79
802.873	186.88
803.053	199.16
803.233	242.17
803.413	176.64
803.592	156.16
803.772	246.27
803.952	199.16
804.131	168.45
804.311	209.4
804.491	238.08
804.67	209.4
804.85	150.01
805.03	141.82
805.209	205.31
805.389	207.36
805.568	199.16
805.748	229.88
805.928	164.35
806.107	201.21
806.287	238.08
806.466	223.74
806.646	164.35
806.825	176.64
807.004	256.51
807.184	166.4
807.363	111.1
807.543	217.6
807.722	193.02
807.901	135.68
808.081	168.45
808.26	139.77
808.439	166.4
808.619	197.12
808.798	117.25
808.977	143.87
809.156	258.56
809.336	254.46
809.515	133.63
809.694	100.86
809.873	168.45
810.052	248.32
810.231	172.54
810.411	227.84
810.59	139.77
810.769	98.81
810.948	131.58
811.127	143.87
811.306	188.93
811.485	123.39
811.664	184.83
811.843	33.28
812.022	174.59
812.201	141.82
812.38	117.25
812.559	123.39
812.737	96.77
812.916	109.05
813.095	152.06
813.274	133.63
813.453	182.78
813.632	176.64
813.811	121.34
813.989	82.43
814.168	156.16
814.347	139.77
814.526	166.4
814.704	131.58
814.883	160.25
815.062	147.97
815.24	260.6
815.419	158.21
815.598	98.81
815.776	2.56
815.955	127.49
816.133	109.05
816.312	150.01
816.49	152.06
816.669	115.2
816.847	195.07
817.026	123.39
817.204	92.67
817.383	166.4
817.561	74.24
817.74	111.1
817.918	135.68
818.097	160.25
818.275	113.15
818.453	82.43
818.632	150.01
818.81	147.97
818.988	141.82
819.167	166.4
819.345	107.01
819.523	20.99
819.701	68.09
819.879	131.58
820.058	123.39
820.236	104.96
820.414	102.91
820.592	111.1
820.77	109.05
820.948	37.38
821.127	78.33
821.305	115.2
821.483	133.63
821.661	115.2
821.839	139.77
822.017	27.14
822.195	139.77
822.373	90.62
822.551	104.96
822.729	135.68
822.907	76.29
823.085	82.43
823.262	96.77
823.44	76.29
823.618	156.16
823.796	90.62
823.974	100.86
824.152	70.14
824.329	94.72
824.507	74.24
824.685	74.24
824.863	68.09
825.04	111.1
825.218	84.48
825.396	109.05
825.574	59.9
825.751	90.62
825.929	94.72
826.107	23.04
826.284	195.07
826.462	76.29
826.639	74.24
826.817	33.28
826.994	133.63
827.172	125.44
827.349	174.59
827.527	141.82
827.704	51.71
827.882	119.29
828.059	74.24
828.237	12.8
828.414	59.9
828.591	80.38
828.769	129.53
828.946	-5.63
829.124	53.76
829.301	78.33
829.478	41.47
829.655	18.94
829.833	66.05
830.01	-5.63
830.187	94.72
830.364	72.19
830.542	41.47
830.719	143.87
830.896	111.1
831.073	76.29
831.25	43.52
831.427	82.43
831.604	84.48
831.782	59.9
831.959	76.29
832.136	37.38
832.313	90.62
832.49	39.42
832.667	18.94
832.844	111.1
833.021	82.43
833.198	123.39
833.374	-65.02
833.551	84.48
833.728	41.47
833.905	100.86
834.082	29.18
834.259	68.09
834.436	82.43
834.612	88.57
834.789	68.09
834.966	98.81
835.143	4.61
835.319	6.66
835.496	74.24
835.673	39.42
835.85	8.7
836.026	66.05
836.203	74.24
836.38	100.86
836.556	98.81
836.733	33.28
836.909	78.33
837.086	59.9
837.262	35.33
837.439	80.38
837.616	49.66
837.792	49.66
837.968	70.14
838.145	-5.63
838.321	100.86
838.498	70.14
838.674	57.86
838.851	-3.58
839.027	31.23
839.203	-22.02
839.38	20.99
839.556	57.86
839.732	107.01
839.909	111.1
840.085	-5.63
840.261	117.25
840.437	115.2
840.614	8.7
840.79	139.77
840.966	82.43
841.142	92.67
841.318	45.57
841.494	37.38
841.671	98.81
841.847	78.33
842.023	37.38
842.199	123.39
842.375	84.48
842.551	8.7
842.727	104.96
842.903	139.77
843.079	14.85
843.255	64
843.431	-1.54
843.607	86.53
843.783	16.9
843.959	166.4
844.134	70.14
844.31	150.01
844.486	-5.63
844.662	-22.02
844.838	-22.02
845.013	115.2
845.189	45.57
845.365	74.24
845.541	-48.64
845.716	-48.64
845.892	104.96
846.068	51.71
846.244	10.75
846.419	70.14
846.595	31.23
846.77	2.56
846.946	131.58
847.122	-24.06
847.297	-9.73
847.473	49.66
847.648	-13.82
847.824	37.38
847.999	-7.68
848.175	88.57
848.35	59.9
848.526	66.05
848.701	139.77
848.876	39.42
849.052	10.75
849.227	115.2
849.403	27.14
849.578	-7.68
849.753	16.9
849.929	33.28
850.104	41.47
850.279	37.38
850.454	78.33
850.63	-13.82
850.805	18.94
850.98	74.24
851.155	-30.21
851.33	64
851.505	-3.58
851.681	59.9
851.856	43.52
852.031	59.9
852.206	104.96
852.381	-11.78
852.556	84.48
852.731	160.25
852.906	66.05
853.081	53.76
853.256	16.9
853.431	45.57
853.606	0.51
853.781	33.28
853.956	33.28
854.131	10.75
854.305	41.47
854.48	45.57
854.655	88.57
854.83	16.9
855.005	66.05
855.18	-19.97
855.354	41.47
855.529	16.9
855.704	66.05
855.879	49.66
856.053	8.7
856.228	12.8
856.403	51.71
856.577	55.81
856.752	27.14
856.926	94.72
857.101	53.76
857.276	33.28
857.45	-7.68
857.625	66.05
857.799	12.8
857.974	59.9
858.148	-24.06
858.323	82.43
858.497	43.52
858.672	-17.92
858.846	-5.63
859.02	0.51
859.195	27.14
859.369	-13.82
859.543	12.8
859.718	49.66
859.892	59.9
860.066	29.18
860.241	23.04
860.415	68.09
860.589	86.53
860.763	29.18
860.938	8.7
861.112	12.8
861.286	0.51
861.46	29.18
861.634	12.8
861.808	66.05
861.982	-40.45
862.157	0.51
862.331	57.86
862.505	-7.68
862.679	12.8
862.853	-40.45
863.027	29.18
863.201	70.14
863.375	41.47
863.549	68.09
863.722	-54.78
863.896	82.43
864.07	-15.87
864.244	59.9
864.418	82.43
864.592	141.82
864.766	53.76
864.939	-46.59
865.113	10.75
865.287	115.2
865.461	20.99
865.634	59.9
865.808	92.67
865.982	37.38
866.156	-24.06
866.329	0.51
866.503	25.09
866.676	45.57
866.85	-52.74
867.024	57.86
867.197	107.01
867.371	0.51
867.544	66.05
867.718	41.47
867.891	-7.68
868.065	-1.54
868.238	-40.45
868.412	25.09
868.585	2.56
868.759	-32.26
868.932	25.09
869.105	12.8
869.279	16.9
869.452	-65.02
869.625	51.71
869.799	20.99
869.972	-28.16
870.145	61.95
870.319	-13.82
870.492	82.43
870.665	57.86
870.838	72.19
871.011	-22.02
871.185	-15.87
871.358	0.51
871.531	2.56
871.704	18.94
871.877	-3.58
872.05	-30.21
872.223	-7.68
872.396	59.9
872.569	14.85
872.742	-1.54
872.915	16.9
873.088	-13.82
873.261	0.51
873.434	0.51
873.607	27.14
873.78	66.05
873.953	8.7
874.126	-1.54
874.299	-28.16
874.471	8.7
874.644	-9.73
874.817	-5.63
874.99	31.23
875.163	16.9
875.335	16.9
875.508	-7.68
875.681	16.9
875.853	-13.82
876.026	96.77
876.199	98.81
876.371	-40.45
876.544	53.76
876.717	0.51
876.889	8.7
877.062	49.66
877.234	-54.78
877.407	-112.13
877.579	37.38
877.752	57.86
877.924	-40.45
878.097	10.75
878.269	-40.45
878.442	18.94
878.614	-11.78
878.786	-34.3
878.959	-3.58
879.131	74.24
879.303	8.7
879.476	61.95
879.648	-36.35
879.82	2.56
879.993	49.66
880.165	-24.06
880.337	27.14
880.509	8.7
880.681	16.9
880.854	16.9
881.026	12.8
881.198	88.57
881.37	45.57
881.542	51.71
881.714	12.8
881.886	-22.02
882.058	82.43
882.23	57.86
882.402	-13.82
882.574	2.56
882.746	20.99
882.918	31.23
883.09	-15.87
883.262	-48.64
883.434	57.86
883.606	-83.45
883.778	53.76
883.95	53.76
884.122	-15.87
884.293	49.66
884.465	8.7
884.637	107.01
884.809	6.66
884.98	41.47
885.152	31.23
885.324	59.9
885.496	-42.5
885.667	74.24
885.839	-40.45
886.011	57.86
886.182	-48.64
886.354	70.14
886.525	33.28
886.697	27.14
886.869	29.18
887.04	25.09
887.212	25.09
887.383	88.57
887.555	84.48
887.726	27.14
887.897	55.81
888.069	0.51
888.24	-30.21
888.412	16.9
888.583	-24.06
888.754	51.71
888.926	-36.35
889.097	51.71
889.268	-24.06
889.44	16.9
889.611	12.8
889.782	-1.54
889.953	-46.59
890.125	49.66
890.296	6.66
890.467	92.67
890.638	-54.78
890.809	2.56
890.98	29.18
891.151	82.43
891.323	8.7
891.494	-24.06
891.665	16.9
891.836	10.75
892.007	0.51
892.178	8.7
892.349	33.28
892.52	74.24
892.691	-7.68
892.862	0.51
893.032	-73.21
893.203	8.7
893.374	59.9
893.545	66.05
893.716	-42.5
893.887	23.04
894.057	4.61
894.228	-11.78
894.399	57.86
894.57	8.7
894.74	88.57
894.911	-24.06
895.082	45.57
895.253	4.61
895.423	-15.87
895.594	45.57
895.764	-32.26
895.935	20.99
896.106	20.99
896.276	20.99
896.447	16.9
896.617	29.18
896.788	2.56
896.958	-32.26
897.129	-48.64
897.299	29.18
897.47	0.51
897.64	20.99
897.81	29.18
897.981	33.28
898.151	37.38
898.322	51.71
898.492	-40.45
898.662	8.7
898.832	-24.06
899.003	-15.87
899.173	-7.68
899.343	-24.06
899.513	0.51
