Data from USB4F104151__248__14-45-51-742.txt Node

Date: Thu Mar 13 14:45:51 EDT 2025
User: louis
Spectrometer: USB4F10415
Trigger mode: 4
Integration Time (sec): 2.000000E-2
Scans to average: 1
Electric dark correction enabled: true
Nonlinearity correction enabled: false
Boxcar width: 0
XAxis mode: Wavelengths
Number of Pixels in Spectrum: 3648
>>>>>Begin Spectral Data<<<<<
178.204	-105.47
178.424	-105.47
178.644	-105.47
178.864	-95.23
179.084	-80.89
179.304	-48.13
179.524	-17.41
179.744	-9.22
179.964	66.56
180.184	1.02
180.404	-25.6
180.624	25.6
180.844	17.41
181.064	1.02
181.283	1.02
181.503	-15.36
181.723	3.07
181.943	-54.27
182.163	74.75
182.383	41.98
182.602	107.52
182.822	113.66
183.042	19.46
183.262	-17.41
183.482	91.13
183.701	48.13
183.921	82.94
184.141	44.03
184.361	19.46
184.58	48.13
184.8	41.98
185.02	39.94
185.239	97.28
185.459	87.04
185.679	76.8
185.898	-5.12
186.118	84.99
186.338	11.26
186.557	37.89
186.777	25.6
186.997	25.6
187.216	50.18
187.436	89.09
187.655	74.75
187.875	82.94
188.095	27.65
188.314	99.33
188.534	54.27
188.753	39.94
188.973	3.07
189.192	62.46
189.412	3.07
189.631	19.46
189.851	50.18
190.07	115.71
190.29	62.46
190.509	58.37
190.729	52.22
190.948	93.18
191.168	134.14
191.387	91.13
191.607	46.08
191.826	50.18
192.045	64.51
192.265	58.37
192.484	115.71
192.704	33.79
192.923	134.14
193.142	95.23
193.362	39.94
193.581	181.25
193.8	105.47
194.02	29.7
194.239	-31.74
194.458	23.55
194.678	33.79
194.897	99.33
195.116	105.47
195.335	60.42
195.555	21.5
195.774	17.41
195.993	35.84
196.212	74.75
196.432	66.56
196.651	74.75
196.87	91.13
197.089	103.42
197.308	58.37
197.528	82.94
197.747	19.46
197.966	93.18
198.185	91.13
198.404	52.22
198.623	76.8
198.842	-19.46
199.062	39.94
199.281	46.08
199.5	27.65
199.719	-21.5
199.938	91.13
200.157	74.75
200.376	68.61
200.595	50.18
200.814	54.27
201.033	17.41
201.252	44.03
201.471	5.12
201.69	74.75
201.909	-15.36
202.128	33.79
202.347	58.37
202.566	17.41
202.785	50.18
203.004	44.03
203.223	107.52
203.442	-19.46
203.661	115.71
203.879	52.22
204.098	80.89
204.317	19.46
204.536	41.98
204.755	95.23
204.974	41.98
205.193	50.18
205.411	132.09
205.63	-48.13
205.849	9.22
206.068	-44.03
206.287	58.37
206.505	70.65
206.724	-3.07
206.943	39.94
207.162	74.75
207.381	35.84
207.599	62.46
207.818	60.42
208.037	39.94
208.255	91.13
208.474	35.84
208.693	17.41
208.911	1.02
209.13	41.98
209.349	66.56
209.567	9.22
209.786	66.56
210.005	48.13
210.223	50.18
210.442	13.31
210.661	76.8
210.879	82.94
211.098	29.7
211.316	-9.22
211.535	132.09
211.753	91.13
211.972	132.09
212.191	58.37
212.409	31.74
212.628	82.94
212.846	95.23
213.065	91.13
213.283	82.94
213.502	68.61
213.72	-7.17
213.938	31.74
214.157	93.18
214.375	52.22
214.594	33.79
214.812	62.46
215.031	66.56
215.249	1.02
215.467	115.71
215.686	68.61
215.904	76.8
216.122	115.71
216.341	132.09
216.559	17.41
216.778	70.65
216.996	50.18
217.214	44.03
217.432	136.19
217.651	1.02
217.869	-21.5
218.087	-27.65
218.306	7.17
218.524	91.13
218.742	-13.31
218.96	115.71
219.179	1.02
219.397	99.33
219.615	136.19
219.833	109.57
220.051	58.37
220.27	82.94
220.488	44.03
220.706	105.47
220.924	123.9
221.142	21.5
221.36	48.13
221.578	115.71
221.796	119.81
222.015	25.6
222.233	35.84
222.451	93.18
222.669	35.84
222.887	31.74
223.105	50.18
223.323	3.07
223.541	95.23
223.759	64.51
223.977	29.7
224.195	50.18
224.413	82.94
224.631	41.98
224.849	95.23
225.067	99.33
225.285	27.65
225.503	103.42
225.721	-39.94
225.939	58.37
226.157	25.6
226.375	107.52
226.592	5.12
226.81	-29.7
227.028	33.79
227.246	109.57
227.464	44.03
227.682	119.81
227.9	33.79
228.117	-19.46
228.335	72.7
228.553	17.41
228.771	99.33
228.989	41.98
229.206	19.46
229.424	29.7
229.642	21.5
229.86	-13.31
230.077	99.33
230.295	46.08
230.513	89.09
230.731	37.89
230.948	50.18
231.166	107.52
231.384	54.27
231.601	58.37
231.819	125.95
232.037	3.07
232.254	-11.26
232.472	50.18
232.689	37.89
232.907	74.75
233.125	66.56
233.342	-21.5
233.56	27.65
233.777	74.75
233.995	29.7
234.213	99.33
234.43	132.09
234.648	66.56
234.865	50.18
235.083	66.56
235.3	93.18
235.518	50.18
235.735	62.46
235.953	105.47
236.17	76.8
236.388	50.18
236.605	19.46
236.822	82.94
237.04	82.94
237.257	58.37
237.475	54.27
237.692	58.37
237.909	13.31
238.127	27.65
238.344	60.42
238.562	56.32
238.779	50.18
238.996	123.9
239.214	46.08
239.431	66.56
239.648	-11.26
239.865	84.99
240.083	41.98
240.3	132.09
240.517	64.51
240.735	46.08
240.952	82.94
241.169	62.46
241.386	140.29
241.603	25.6
241.821	21.5
242.038	119.81
242.255	87.04
242.472	13.31
242.689	78.85
242.907	52.22
243.124	70.65
243.341	35.84
243.558	70.65
243.775	101.37
243.992	50.18
244.209	146.43
244.426	99.33
244.643	35.84
244.86	33.79
245.078	33.79
245.295	11.26
245.512	115.71
245.729	-5.12
245.946	109.57
246.163	146.43
246.38	50.18
246.597	31.74
246.814	93.18
247.031	52.22
247.248	58.37
247.464	115.71
247.681	66.56
247.898	82.94
248.115	99.33
248.332	58.37
248.549	105.47
248.766	66.56
248.983	60.42
249.2	58.37
249.417	87.04
249.633	25.6
249.85	46.08
250.067	68.61
250.284	60.42
250.501	41.98
250.717	50.18
250.934	109.57
251.151	74.75
251.368	93.18
251.585	35.84
251.801	50.18
252.018	-7.17
252.235	29.7
252.451	13.31
252.668	56.32
252.885	125.95
253.102	76.8
253.318	91.13
253.535	11.26
253.752	50.18
253.968	52.22
254.185	50.18
254.401	21.5
254.618	125.95
254.835	-19.46
255.051	160.77
255.268	97.28
255.484	33.79
255.701	35.84
255.917	58.37
256.134	68.61
256.351	48.13
256.567	35.84
256.784	84.99
257	37.89
257.217	128
257.433	70.65
257.65	111.61
257.866	31.74
258.082	-15.36
258.299	-31.74
258.515	76.8
258.732	80.89
258.948	37.89
259.165	33.79
259.381	33.79
259.597	17.41
259.814	58.37
260.03	29.7
260.246	-56.32
260.463	33.79
260.679	58.37
260.895	17.41
261.112	58.37
261.328	25.6
261.544	70.65
261.761	101.37
261.977	44.03
262.193	19.46
262.409	33.79
262.626	41.98
262.842	70.65
263.058	35.84
263.274	123.9
263.49	60.42
263.707	76.8
263.923	21.5
264.139	48.13
264.355	41.98
264.571	35.84
264.787	140.29
265.004	95.23
265.22	-35.84
265.436	105.47
265.652	-13.31
265.868	93.18
266.084	62.46
266.3	74.75
266.516	9.22
266.732	25.6
266.948	41.98
267.164	33.79
267.38	74.75
267.596	27.65
267.812	91.13
268.028	37.89
268.244	66.56
268.46	41.98
268.676	78.85
268.892	60.42
269.108	78.85
269.324	17.41
269.54	-56.32
269.756	82.94
269.972	89.09
270.188	33.79
270.403	50.18
270.619	58.37
270.835	27.65
271.051	76.8
271.267	52.22
271.483	84.99
271.698	70.65
271.914	52.22
272.13	54.27
272.346	58.37
272.562	62.46
272.777	44.03
272.993	74.75
273.209	1.02
273.425	50.18
273.64	41.98
273.856	115.71
274.072	19.46
274.287	17.41
274.503	97.28
274.719	103.42
274.934	54.27
275.15	-56.32
275.366	5.12
275.581	-21.5
275.797	132.09
276.012	103.42
276.228	62.46
276.444	82.94
276.659	140.29
276.875	15.36
277.09	27.65
277.306	29.7
277.521	58.37
277.737	58.37
277.952	29.7
278.168	70.65
278.383	58.37
278.599	62.46
278.814	33.79
279.03	-1.02
279.245	41.98
279.461	46.08
279.676	84.99
279.892	-19.46
280.107	56.32
280.322	82.94
280.538	107.52
280.753	-3.07
280.969	54.27
281.184	41.98
281.399	95.23
281.615	58.37
281.83	74.75
282.045	-27.65
282.26	95.23
282.476	123.9
282.691	93.18
282.906	91.13
283.122	41.98
283.337	58.37
283.552	76.8
283.767	66.56
283.983	54.27
284.198	25.6
284.413	17.41
284.628	74.75
284.843	-5.12
285.058	95.23
285.274	-15.36
285.489	39.94
285.704	123.9
285.919	41.98
286.134	58.37
286.349	11.26
286.564	27.65
286.779	33.79
286.995	9.22
287.21	37.89
287.425	21.5
287.64	-13.31
287.855	74.75
288.07	-1.02
288.285	60.42
288.5	103.42
288.715	50.18
288.93	39.94
289.145	-5.12
289.36	109.57
289.575	82.94
289.79	164.86
290.004	33.79
290.219	68.61
290.434	70.65
290.649	41.98
290.864	62.46
291.079	66.56
291.294	58.37
291.509	84.99
291.724	97.28
291.938	62.46
292.153	74.75
292.368	3.07
292.583	91.13
292.798	58.37
293.012	41.98
293.227	50.18
293.442	66.56
293.657	68.61
293.871	33.79
294.086	48.13
294.301	33.79
294.516	72.7
294.73	164.86
294.945	50.18
295.16	27.65
295.374	70.65
295.589	60.42
295.804	60.42
296.018	60.42
296.233	48.13
296.447	66.56
296.662	-3.07
296.877	115.71
297.091	84.99
297.306	95.23
297.52	68.61
297.735	111.61
297.949	35.84
298.164	25.6
298.378	56.32
298.593	54.27
298.807	68.61
299.022	35.84
299.236	146.43
299.451	66.56
299.665	33.79
299.88	60.42
300.094	-7.17
300.309	33.79
300.523	150.53
300.737	19.46
300.952	44.03
301.166	115.71
301.381	19.46
301.595	33.79
301.809	39.94
302.024	-15.36
302.238	46.08
302.452	148.48
302.667	48.13
302.881	72.7
303.095	128
303.309	99.33
303.524	23.55
303.738	101.37
303.952	82.94
304.166	60.42
304.381	60.42
304.595	99.33
304.809	23.55
305.023	101.37
305.237	115.71
305.452	54.27
305.666	58.37
305.88	68.61
306.094	101.37
306.308	99.33
306.522	33.79
306.736	125.95
306.95	128
307.164	60.42
307.379	17.41
307.593	66.56
307.807	66.56
308.021	128
308.235	84.99
308.449	68.61
308.663	50.18
308.877	76.8
309.091	82.94
309.305	99.33
309.519	29.7
309.733	87.04
309.947	9.22
310.161	128
310.374	54.27
310.588	134.14
310.802	128
311.016	91.13
311.23	107.52
311.444	115.71
311.658	80.89
311.872	134.14
312.085	70.65
312.299	78.85
312.513	25.6
312.727	107.52
312.941	46.08
313.154	119.81
313.368	97.28
313.582	123.9
313.796	107.52
314.009	84.99
314.223	140.29
314.437	21.5
314.651	17.41
314.864	66.56
315.078	54.27
315.292	58.37
315.505	78.85
315.719	99.33
315.933	13.31
316.146	74.75
316.36	44.03
316.573	103.42
316.787	93.18
317.001	41.98
317.214	66.56
317.428	78.85
317.641	9.22
317.855	84.99
318.068	87.04
318.282	68.61
318.495	91.13
318.709	93.18
318.922	74.75
319.136	76.8
319.349	33.79
319.563	128
319.776	37.89
319.99	23.55
320.203	107.52
320.417	33.79
320.63	101.37
320.843	119.81
321.057	44.03
321.27	41.98
321.483	82.94
321.697	99.33
321.91	41.98
322.124	134.14
322.337	35.84
322.55	-23.55
322.763	101.37
322.977	95.23
323.19	74.75
323.403	-15.36
323.617	64.51
323.83	60.42
324.043	91.13
324.256	33.79
324.469	99.33
324.683	121.85
324.896	66.56
325.109	93.18
325.322	25.6
325.535	62.46
325.748	117.76
325.962	150.53
326.175	39.94
326.388	193.53
326.601	84.99
326.814	35.84
327.027	91.13
327.24	107.52
327.453	62.46
327.666	50.18
327.879	44.03
328.092	66.56
328.305	125.95
328.518	60.42
328.731	17.41
328.944	35.84
329.157	74.75
329.37	21.5
329.583	78.85
329.796	111.61
330.009	70.65
330.222	101.37
330.435	119.81
330.648	27.65
330.861	74.75
331.073	152.57
331.286	84.99
331.499	54.27
331.712	54.27
331.925	78.85
332.138	70.65
332.35	76.8
332.563	-15.36
332.776	87.04
332.989	113.66
333.202	74.75
333.414	74.75
333.627	93.18
333.84	-23.55
334.053	99.33
334.265	113.66
334.478	52.22
334.691	78.85
334.903	68.61
335.116	66.56
335.329	111.61
335.541	60.42
335.754	103.42
335.966	68.61
336.179	54.27
336.392	66.56
336.604	50.18
336.817	113.66
337.029	50.18
337.242	50.18
337.454	111.61
337.667	123.9
337.88	115.71
338.092	78.85
338.305	101.37
338.517	62.46
338.729	70.65
338.942	134.14
339.154	23.55
339.367	27.65
339.579	87.04
339.792	76.8
340.004	27.65
340.217	105.47
340.429	113.66
340.641	19.46
340.854	17.41
341.066	44.03
341.278	101.37
341.491	179.2
341.703	82.94
341.915	41.98
342.128	99.33
342.34	62.46
342.552	93.18
342.764	123.9
342.977	72.7
343.189	50.18
343.401	91.13
343.613	105.47
343.826	84.99
344.038	68.61
344.25	66.56
344.462	68.61
344.674	60.42
344.886	62.46
345.099	58.37
345.311	97.28
345.523	46.08
345.735	62.46
345.947	72.7
346.159	78.85
346.371	27.65
346.583	136.19
346.795	99.33
347.007	27.65
347.219	66.56
347.431	-31.74
347.643	91.13
347.855	82.94
348.067	132.09
348.279	11.26
348.491	74.75
348.703	142.33
348.915	50.18
349.127	-13.31
349.339	19.46
349.551	160.77
349.763	76.8
349.975	68.61
350.187	140.29
350.399	78.85
350.61	99.33
350.822	33.79
351.034	46.08
351.246	70.65
351.458	39.94
351.669	44.03
351.881	117.76
352.093	142.33
352.305	119.81
352.517	76.8
352.728	103.42
352.94	41.98
353.152	84.99
353.363	103.42
353.575	66.56
353.787	123.9
353.999	74.75
354.21	50.18
354.422	46.08
354.633	62.46
354.845	84.99
355.057	39.94
355.268	54.27
355.48	128
355.692	25.6
355.903	74.75
356.115	54.27
356.326	99.33
356.538	117.76
356.749	44.03
356.961	50.18
357.172	68.61
357.384	74.75
357.595	115.71
357.807	101.37
358.018	17.41
358.23	95.23
358.441	82.94
358.653	128
358.864	82.94
359.075	39.94
359.287	107.52
359.498	107.52
359.709	84.99
359.921	74.75
360.132	107.52
360.344	41.98
360.555	37.89
360.766	66.56
360.977	-29.7
361.189	209.92
361.4	132.09
361.611	95.23
361.823	109.57
362.034	107.52
362.245	3.07
362.456	101.37
362.667	54.27
362.879	82.94
363.09	150.53
363.301	82.94
363.512	93.18
363.723	148.48
363.935	29.7
364.146	62.46
364.357	107.52
364.568	50.18
364.779	44.03
364.99	44.03
365.201	21.5
365.412	109.57
365.623	-23.55
365.834	80.89
366.045	58.37
366.256	125.95
366.467	60.42
366.678	111.61
366.889	64.51
367.1	99.33
367.311	115.71
367.522	136.19
367.733	50.18
367.944	99.33
368.155	21.5
368.366	58.37
368.577	105.47
368.788	52.22
368.999	60.42
369.209	25.6
369.42	168.96
369.631	144.38
369.842	52.22
370.053	107.52
370.264	148.48
370.474	107.52
370.685	19.46
370.896	13.31
371.107	144.38
371.317	123.9
371.528	58.37
371.739	130.05
371.95	115.71
372.16	54.27
372.371	74.75
372.582	50.18
372.792	74.75
373.003	74.75
373.214	41.98
373.424	74.75
373.635	29.7
373.846	150.53
374.056	78.85
374.267	84.99
374.477	166.91
374.688	140.29
374.898	95.23
375.109	140.29
375.319	105.47
375.53	148.48
375.74	121.85
375.951	58.37
376.161	58.37
376.372	64.51
376.582	156.67
376.793	93.18
377.003	95.23
377.214	82.94
377.424	39.94
377.635	54.27
377.845	-11.26
378.055	140.29
378.266	44.03
378.476	76.8
378.686	181.25
378.897	66.56
379.107	62.46
379.317	148.48
379.528	93.18
379.738	82.94
379.948	52.22
380.158	156.67
380.369	91.13
380.579	50.18
380.789	164.86
380.999	125.95
381.21	103.42
381.42	148.48
381.63	68.61
381.84	128
382.05	95.23
382.261	146.43
382.471	115.71
382.681	62.46
382.891	58.37
383.101	148.48
383.311	37.89
383.521	74.75
383.731	134.14
383.941	132.09
384.151	136.19
384.361	115.71
384.571	115.71
384.781	95.23
384.991	193.53
385.201	144.38
385.411	123.9
385.621	134.14
385.831	142.33
386.041	91.13
386.251	95.23
386.461	82.94
386.671	31.74
386.881	82.94
387.091	82.94
387.301	84.99
387.511	111.61
387.72	95.23
387.93	33.79
388.14	50.18
388.35	58.37
388.56	128
388.769	107.52
388.979	132.09
389.189	156.67
389.399	134.14
389.609	117.76
389.818	66.56
390.028	136.19
390.238	101.37
390.447	111.61
390.657	123.9
390.867	111.61
391.076	21.5
391.286	82.94
391.496	109.57
391.705	5.12
391.915	205.82
392.125	175.1
392.334	103.42
392.544	91.13
392.753	142.33
392.963	78.85
393.172	185.34
393.382	103.42
393.591	132.09
393.801	84.99
394.01	111.61
394.22	95.23
394.429	117.76
394.639	35.84
394.848	152.57
395.058	160.77
395.267	58.37
395.477	173.05
395.686	91.13
395.895	181.25
396.105	183.29
396.314	185.34
396.524	138.24
396.733	107.52
396.942	146.43
397.152	136.19
397.361	181.25
397.57	58.37
397.78	158.72
397.989	99.33
398.198	238.59
398.407	138.24
398.617	115.71
398.826	76.8
399.035	181.25
399.244	150.53
399.453	123.9
399.663	162.81
399.872	197.63
400.081	70.65
400.29	148.48
400.499	181.25
400.708	142.33
400.917	66.56
401.127	125.95
401.336	123.9
401.545	107.52
401.754	209.92
401.963	140.29
402.172	166.91
402.381	181.25
402.59	199.68
402.799	248.83
403.008	187.39
403.217	160.77
403.426	113.66
403.635	148.48
403.844	191.49
404.053	191.49
404.262	179.2
404.471	238.59
404.68	187.39
404.888	248.83
405.097	220.16
405.306	236.54
405.515	214.01
405.724	248.83
405.933	203.77
406.142	257.02
406.35	242.68
406.559	246.78
406.768	279.55
406.977	259.07
407.185	179.2
407.394	259.07
407.603	248.83
407.812	297.98
408.02	345.08
408.229	263.16
408.438	263.16
408.646	252.92
408.855	304.12
409.064	332.79
409.272	293.88
409.481	388.09
409.69	388.09
409.898	345.08
410.107	414.71
410.315	379.9
410.524	414.71
410.733	433.15
410.941	467.96
411.15	394.23
411.358	443.39
411.567	439.29
411.775	476.15
411.984	492.54
412.192	488.44
412.401	574.46
412.609	533.5
412.818	646.13
413.026	619.51
413.234	664.57
413.443	697.33
413.651	609.27
413.86	697.33
414.068	721.91
414.276	844.79
414.485	748.53
414.693	746.48
414.901	789.49
415.11	812.02
415.318	838.64
415.526	844.79
415.734	924.66
415.943	945.14
416.151	961.52
416.359	1025.01
416.567	1041.39
416.776	975.86
416.984	1190.89
417.192	1137.65
417.4	1123.31
417.608	1151.98
417.817	1246.19
418.025	1256.43
418.233	1385.45
418.441	1344.49
418.649	1364.97
418.857	1532.9
419.065	1569.77
419.273	1479.66
419.481	1489.9
419.689	1754.09
419.897	1762.28
420.105	1860.58
420.313	1815.52
420.521	1872.87
420.729	1975.27
420.937	1983.46
421.145	2032.61
421.353	2200.54
421.561	2198.49
421.769	2288.61
421.977	2474.97
422.185	2378.72
422.393	2503.64
422.601	2687.96
422.809	2671.58
423.017	2657.24
423.224	2884.56
423.432	2876.37
423.64	2929.62
423.848	3195.86
424.056	3050.45
424.263	3367.88
424.471	3386.32
424.679	3308.49
424.887	3498.95
425.094	3664.84
425.302	3711.94
425.51	3834.82
425.718	4115.39
425.925	4131.78
426.133	4236.22
426.341	4375.49
426.548	4606.91
426.756	4639.67
426.964	4613.05
427.171	5012.4
427.379	5131.19
427.586	5264.3
427.794	5249.97
428.001	5403.57
428.209	5829.54
428.417	5723.05
428.624	6091.68
428.832	6071.2
429.039	6063.01
429.247	6017.96
429.454	6654.87
429.662	7039.89
429.869	6632.35
430.076	7168.91
430.284	6800.28
430.491	7050.13
430.699	7691.15
430.906	7566.22
431.114	7863.18
431.321	7941
431.528	8246.15
431.736	8651.64
431.943	9102.2
432.15	8770.43
432.358	8838.01
432.565	9272.18
432.772	9356.15
432.979	9970.54
433.187	10093.41
433.394	10191.72
433.601	10546.02
433.808	10926.94
434.016	10580.83
434.223	11053.91
434.43	11838.28
434.637	11471.7
434.844	12288.84
435.052	12446.53
435.259	12419.91
435.466	12596.03
435.673	12299.08
435.88	13300.53
436.087	13962.03
436.294	13941.55
436.501	13615.92
436.708	13929.26
436.915	14426.92
437.122	15223.58
437.329	14803.74
437.537	15391.51
437.743	15909.65
437.95	15549.2
438.157	16562.95
438.364	16931.58
438.571	16823.04
438.778	17214.2
438.985	18803.43
439.192	18068.2
439.399	18363.11
439.606	18033.39
439.813	19245.79
440.02	20470.47
440.227	20007.63
440.433	19811.03
440.64	20566.73
440.847	20241.1
441.054	20810.43
441.261	22096.56
441.467	21727.92
441.674	22459.05
441.881	23349.92
442.088	23151.26
442.294	23071.39
442.501	23153.31
442.708	24003.22
442.914	24922.76
443.121	26045.04
443.328	25148.03
443.534	27028.07
443.741	26018.42
443.948	25406.08
444.154	27636.31
444.361	27511.39
444.568	27816.54
444.774	27804.25
444.981	27935.32
445.187	29006.41
445.394	30167.6
445.6	29860.41
445.807	32487.95
446.013	31136.29
446.22	31765.02
446.426	33047.05
446.633	33499.65
446.839	34597.36
447.046	33411.59
447.252	35230.18
447.459	34804.2
447.665	34824.68
447.871	36049.37
448.078	38058.43
448.284	36336.09
448.491	37413.32
448.697	38638
448.903	39473.57
449.11	39440.81
449.316	39035.31
449.522	39412.13
449.728	41165.2
449.935	40982.93
450.141	41097.61
450.347	42166.65
450.553	40515.99
450.76	41195.92
450.966	42674.55
451.172	42277.24
451.378	43114.86
451.584	42637.69
451.791	43501.93
451.997	43491.69
452.203	44241.24
452.409	44106.08
452.615	43874.66
452.821	42350.97
453.027	42285.43
453.233	44458.33
453.44	42766.71
453.646	43372.91
453.852	43379.05
454.058	43911.52
454.264	42848.63
454.47	44001.63
454.676	42690.93
454.882	44200.29
455.088	40638.87
455.294	41449.86
455.5	41980.29
455.705	42178.94
455.911	40692.12
456.117	40147.36
456.323	40063.39
456.529	37247.43
456.735	38965.68
456.941	37976.51
457.147	38054.33
457.352	36495.83
457.558	36155.86
457.764	36641.23
457.97	35957.21
458.176	35117.54
458.381	35043.82
458.587	33272.32
458.793	33247.75
458.999	31652.38
459.204	33554.94
459.41	33065.48
459.616	31126.05
459.821	30876.2
460.027	30810.67
460.233	30181.94
460.438	28965.45
460.644	29061.7
460.85	28009.04
461.055	27564.64
461.261	27376.22
461.466	25440.89
461.672	24502.92
461.878	26280.56
462.083	24681.1
462.289	24285.84
462.494	24128.14
462.7	23003.81
462.905	22289.07
463.111	22882.98
463.316	23138.97
463.522	22532.78
463.727	22694.57
463.932	22856.36
464.138	22516.39
464.343	22411.95
464.549	21926.58
464.754	22594.22
464.959	22360.75
465.165	22289.07
465.37	21385.91
465.575	20722.37
465.781	21820.08
465.986	21635.77
466.191	20896.45
466.397	20462.28
466.602	19696.34
466.807	20433.61
467.012	20222.67
467.218	20525.77
467.423	19821.27
467.628	20323.02
467.833	21080.77
468.038	20165.32
468.244	19643.09
468.449	20511.43
468.654	19565.27
468.859	19497.69
469.064	19319.51
469.269	18782.95
469.474	18950.88
469.679	19088.09
469.885	18678.5
470.09	19010.27
470.295	18797.28
470.5	18825.95
470.705	18590.44
470.91	18207.47
471.115	17951.47
471.32	18418.41
471.525	18213.61
471.73	17697.52
471.935	17840.88
472.139	17148.67
472.344	17228.54
472.549	17330.94
472.754	17036.03
472.959	16864
473.164	16450.31
473.369	16190.22
473.574	16767.74
473.778	16517.89
473.983	16419.59
474.188	16347.91
474.393	15569.68
474.598	15581.97
474.802	15340.31
475.007	15389.46
475.212	15446.8
475.417	14871.33
475.621	14979.87
475.826	15059.74
476.031	14603.04
476.235	14453.54
476.44	14736.16
476.645	14224.17
476.849	14431.01
477.054	14277.41
477.259	13839.15
477.463	14089
477.668	13886.25
477.872	13794.09
478.077	13486.9
478.282	13132.6
478.486	13341.49
478.691	13099.83
478.895	13161.27
479.1	12940.09
479.304	13085.5
479.509	12639.04
479.713	12940.09
479.918	12544.83
480.122	12301.12
480.326	12604.22
480.531	12415.81
480.735	12383.04
480.94	12313.41
481.144	12542.78
481.348	12133.19
481.553	12084.04
481.757	11932.49
481.961	12106.57
482.166	12288.84
482.37	12182.34
482.574	11717.45
482.778	12002.12
482.983	12217.16
483.187	12088.14
483.391	12161.86
483.595	11975.5
483.8	12071.75
484.004	12002.12
484.208	12125
484.412	11995.98
484.616	11957.07
484.821	12163.91
485.025	11766.6
485.229	11895.63
485.433	11864.91
485.637	12102.47
485.841	11813.71
486.045	11821.9
486.249	11850.57
486.453	11690.83
486.657	12161.86
486.861	12108.62
487.065	11735.88
487.269	12108.62
487.473	11615.05
487.677	12182.34
487.881	12247.88
488.085	11854.67
488.289	12006.22
488.493	11883.34
488.697	12114.76
488.901	12198.73
489.105	11952.97
489.309	12145.48
489.512	12178.25
489.716	12194.63
489.92	12139.33
490.124	12288.84
490.328	12501.83
490.531	12208.97
490.735	12436.29
490.939	12694.33
491.143	12401.47
491.346	12499.78
491.55	12800.83
491.754	12759.87
491.958	12669.76
492.161	12741.44
492.365	12796.73
492.569	12739.39
492.772	12725.05
492.976	13075.26
493.18	13159.22
493.383	13097.78
493.587	13439.79
493.79	13292.34
493.994	13218.61
494.197	13398.84
494.401	13574.96
494.605	13984.55
494.808	13822.77
495.012	13970.22
495.215	13964.07
495.419	14048.04
495.622	14011.18
495.825	14191.4
496.029	14347.05
496.232	14670.62
496.436	14500.64
496.639	14865.18
496.843	14840.61
497.046	15006.49
497.249	15457.04
497.453	15469.33
497.656	15573.78
497.859	15571.73
498.063	15803.15
498.266	16036.62
498.469	15936.27
498.673	16130.83
498.876	16624.39
499.079	16620.29
499.282	16796.42
499.485	17324.79
499.689	17212.15
499.892	17623.8
500.095	17494.77
500.298	17750.77
500.501	17707.76
500.705	18078.44
500.908	18416.36
501.111	18727.65
501.314	18924.26
501.517	18954.97
501.72	19184.35
501.923	19192.54
502.126	19559.13
502.329	20093.65
502.532	20038.35
502.735	20204.24
502.938	21091.01
503.141	20730.56
503.344	21056.19
503.547	21267.13
503.75	21639.86
503.953	21873.33
504.156	22110.89
504.359	22153.9
504.562	22287.02
504.765	23081.63
504.968	23208.61
505.17	23818.9
505.373	23409.31
505.576	23816.85
505.779	24218.25
505.982	24449.67
506.185	25094.79
506.387	24885.89
506.59	25111.17
506.793	25608.83
506.996	25729.66
507.198	26342
507.401	26131.06
507.604	26536.56
507.807	27175.52
508.009	27181.67
508.212	27482.72
508.415	27910.74
508.617	28144.21
508.82	28090.96
509.022	28322.38
509.225	29039.17
509.428	29276.74
509.63	29407.81
509.833	29743.67
510.035	30521.9
510.238	30052.92
510.44	30444.08
510.643	31267.36
510.845	31726.11
511.048	31386.15
511.25	32205.33
511.453	32068.12
511.655	33036.81
511.858	32782.86
512.06	33227.27
512.262	33358.34
512.465	33440.26
512.667	34077.18
512.87	34759.15
513.072	34607.6
513.274	35486.18
513.477	35482.08
513.679	35987.93
513.881	36461.01
514.084	36766.16
514.286	36207.06
514.488	36895.18
514.69	37990.84
514.893	38252.98
515.095	38015.42
515.297	38689.2
515.499	39123.37
515.701	39381.42
515.904	39647.65
516.106	39917.98
516.308	40309.14
516.51	40921.49
516.712	40706.45
516.914	41447.82
517.116	41752.96
517.318	42078.59
517.52	42105.21
517.722	42541.43
517.925	42807.67
518.127	43426.15
518.329	44132.7
518.531	43645.29
518.733	44460.38
518.935	44945.75
519.136	44716.37
519.338	45914.44
519.54	46045.51
519.742	45949.25
519.944	46862.64
520.146	47149.36
520.348	47200.56
520.55	47216.94
520.752	47745.32
520.954	48361.76
521.155	47905.06
521.357	49002.77
521.559	49430.8
521.761	50067.72
521.963	49961.22
522.164	50151.68
522.366	50198.79
522.568	50823.42
522.77	51040.5
522.971	51704.04
523.173	51255.54
523.375	51706.09
523.576	51898.6
523.778	51906.79
523.98	52803.8
524.181	52768.99
524.383	53006.55
524.584	53436.62
524.786	53782.73
524.988	53526.74
525.189	54323.4
525.391	54397.12
525.592	54257.86
525.794	54827.2
525.995	54743.23
526.197	54763.71
526.398	55029.94
526.6	55285.94
526.801	55572.66
527.003	55867.56
527.204	55920.81
527.406	56504.48
527.607	56266.92
527.808	56875.16
528.01	55883.95
528.211	56486.05
528.412	57114.78
528.614	56912.03
528.815	57053.34
529.016	57780.37
529.218	57364.63
529.419	57634.96
529.62	57696.4
529.822	57440.4
530.023	57372.82
530.224	57925.77
530.425	57669.78
530.626	57591.95
530.828	57657.49
531.029	58648.71
531.23	57874.57
531.431	58101.9
531.632	58243.21
531.833	58734.72
532.035	58568.83
532.236	58544.26
532.437	58855.55
532.638	58529.92
532.839	59080.83
533.04	58421.38
533.241	58392.71
533.442	59250.81
533.643	58798.21
533.844	58665.09
534.045	58904.7
534.246	58620.03
534.447	59312.25
534.648	58386.57
534.849	58953.85
535.05	58300.55
535.251	58962.04
535.451	59041.92
535.652	59226.23
535.853	58935.42
536.054	59209.85
536.255	59246.71
536.456	59291.77
536.657	59291.77
536.857	58914.94
537.058	59080.83
537.259	59437.17
537.46	59220.09
537.66	58267.78
537.861	59357.3
538.062	59015.29
538.263	59095.16
538.463	58693.76
538.664	58878.08
538.865	59123.83
539.065	59228.28
539.266	59146.36
539.466	59500.66
539.667	58472.58
539.868	59215.99
540.068	58706.05
540.269	58546.31
540.469	59381.88
540.67	59209.85
540.87	58955.9
541.071	58867.84
541.271	58892.41
541.472	59017.34
541.672	58957.95
541.873	58849.41
542.073	58267.78
542.274	59289.72
542.474	58591.36
542.675	58507.4
542.875	59527.28
543.075	58599.55
543.276	58161.29
543.476	58972.28
543.676	58439.81
543.877	59304.06
544.077	58937.47
544.277	58402.95
544.478	58562.69
544.678	58818.69
544.878	58544.26
545.078	58931.32
545.279	58566.79
545.479	58237.06
545.679	58736.77
545.879	58822.78
546.079	58863.74
546.28	58650.75
546.48	58341.51
546.68	58701.95
546.88	58642.56
547.08	58970.24
547.28	58704
547.48	58095.75
547.68	58523.78
547.88	58099.85
548.081	59236.47
548.281	58546.31
548.481	58550.4
548.681	58812.54
548.881	58640.51
549.081	58775.68
549.28	58243.21
549.48	58390.66
549.68	58312.84
549.88	58947.71
550.08	58343.56
550.28	58998.91
550.48	58185.86
550.68	58925.18
550.88	58464.39
551.08	58531.97
551.279	58554.5
551.479	58243.21
551.679	58138.76
551.879	58472.58
552.079	58210.44
552.278	58167.43
552.478	58181.77
552.678	58112.14
552.878	58202.25
553.077	58112.14
553.277	58134.66
553.477	58587.27
553.676	58120.33
553.876	58216.58
554.076	57843.85
554.275	57927.82
554.475	57510.03
554.674	58081.42
554.874	57772.17
555.074	57413.78
555.273	57874.57
555.473	57997.45
555.672	57456.79
555.872	57473.17
556.071	57948.3
556.271	58103.95
556.47	57489.55
556.67	56940.7
556.869	57620.62
557.068	57497.75
557.268	57231.51
557.467	57555.09
557.667	57548.95
557.866	57479.31
558.065	57391.25
558.265	57229.46
558.464	57424.02
558.663	57311.38
558.863	56658.08
559.062	57557.14
559.261	57217.17
559.461	57487.51
559.66	56506.53
559.859	56928.41
560.058	56572.06
560.258	56772.77
560.457	56350.88
560.656	56586.4
560.855	56637.6
561.054	57055.39
561.253	55824.56
561.453	56367.27
561.652	56619.17
561.851	56383.65
562.05	56383.65
562.249	56283.3
562.448	56217.77
562.647	56039.59
562.846	56215.72
563.045	56273.06
563.244	55498.93
563.443	56064.17
563.642	55255.22
563.841	55859.37
564.04	55466.16
564.239	55761.07
564.438	55691.44
564.637	55842.99
564.836	55974.06
565.035	55273.65
565.234	55398.58
565.432	55019.7
565.631	55218.36
565.83	55124.15
566.029	55085.24
566.228	54708.41
566.427	55011.51
566.625	54505.66
566.824	54202.56
567.023	54907.07
567.222	53762.25
567.42	54954.17
567.619	54358.21
567.818	54530.24
568.016	53958.86
568.215	54425.79
568.414	54171.85
568.612	54493.38
568.811	54063.3
569.01	53774.54
569.208	53557.45
569.407	53934.28
569.605	53117.14
569.804	54106.31
570.002	53008.6
570.201	53123.29
570.4	53203.16
570.598	53287.12
570.797	53020.89
570.995	52828.38
571.193	52629.72
571.392	52629.72
571.59	52115.68
571.789	52267.23
571.987	52682.97
572.186	52281.57
572.384	52070.63
572.582	52279.52
572.781	52148.45
572.979	51646.7
573.177	51788.01
573.376	52300
573.574	51704.04
573.772	51458.29
573.971	51351.79
574.169	51116.28
574.367	50743.55
574.565	51257.59
574.763	51001.59
574.962	51136.76
575.16	50358.53
575.358	50981.11
575.556	50520.32
575.754	51067.12
575.952	50249.99
576.151	50481.41
576.349	49809.67
576.547	50190.59
576.745	49789.19
576.943	50215.17
577.141	49572.11
577.339	50039.04
577.537	49801.48
577.735	49541.39
577.933	49275.15
578.131	49230.1
578.329	49309.97
578.527	48900.37
578.725	49322.26
578.923	49502.48
579.121	48591.13
579.319	48611.61
579.516	48797.98
579.714	48470.3
579.912	48642.33
580.11	47999.27
580.308	48118.05
580.506	48015.65
580.704	47388.97
580.901	47618.35
581.099	47798.57
581.297	47186.22
581.495	47374.64
581.692	47642.92
581.89	46870.84
582.088	47458.6
582.285	47055.15
582.483	47016.24
582.681	46715.19
582.878	46586.17
583.076	46510.39
583.274	46661.94
583.471	46227.77
583.669	46508.35
583.866	46145.86
584.064	46033.22
584.262	45830.47
584.459	46141.76
584.657	45963.59
584.854	45756.74
585.052	45082.96
585.249	45816.13
585.447	45267.28
585.644	45203.79
585.841	44996.95
586.039	45435.21
586.236	44458.33
586.434	44411.23
586.631	44661.08
586.828	44411.23
587.026	44577.11
587.223	44185.95
587.42	44302.68
587.618	44286.3
587.815	44061.02
588.012	43723.11
588.21	43354.47
588.407	43854.18
588.604	43460.97
588.801	43145.58
588.999	43503.98
589.196	43090.29
589.393	42957.17
589.59	43100.53
589.787	42584.44
589.984	42131.84
590.182	42174.84
590.379	42561.91
590.576	42092.93
590.773	42561.91
590.97	41953.66
591.167	42078.59
591.364	41171.34
591.561	41937.28
591.758	41163.15
591.955	41599.37
592.152	41881.98
592.349	41118.09
592.546	41458.06
592.743	41140.62
592.94	40188.31
593.137	40759.7
593.334	41134.48
593.531	40397.21
593.727	40784.27
593.924	40466.84
594.121	39956.89
594.318	40495.51
594.515	39784.86
594.712	40155.55
594.908	39672.23
595.105	40307.1
595.302	39885.22
595.499	40092.06
595.696	39512.49
595.892	39131.56
596.089	39223.72
596.286	39481.77
596.482	38928.81
596.679	39139.75
596.876	39078.32
597.072	38318.52
597.269	38885.81
597.466	38195.64
597.662	38177.21
597.859	38259.13
598.055	38457.78
598.252	37607.87
598.448	37771.71
598.645	37751.23
598.841	37450.18
599.038	37652.93
599.234	37806.53
599.431	37044.68
599.627	37288.39
599.824	37575.11
600.02	37042.63
600.217	36964.81
600.413	37032.39
600.609	36977.1
600.806	36600.27
601.002	36594.13
601.198	36557.27
601.395	36256.21
601.591	36278.74
601.787	36006.36
601.984	35727.84
602.18	36153.82
602.376	35660.26
602.572	35650.02
602.769	35699.17
602.965	35146.22
603.161	35277.29
603.357	35224.04
603.553	34935.27
603.75	35215.85
603.946	34968.04
604.142	35043.82
604.338	34566.64
604.534	34703.85
604.73	34556.4
604.926	34263.54
605.122	34062.84
605.318	34525.68
605.514	33757.69
605.71	33874.43
605.906	33841.66
606.102	33669.63
606.298	33526.27
606.494	33726.97
606.69	33577.47
606.886	33774.08
607.082	32952.84
607.278	33681.92
607.474	32963.08
607.67	33462.79
607.866	32442.9
608.062	33384.96
608.257	33047.05
608.453	32975.37
608.649	32875.02
608.845	32680.46
609.041	32598.54
609.236	32311.83
609.432	32371.22
609.628	32637.45
609.824	32326.16
610.019	31822.36
610.215	32387.6
610.411	32528.91
610.606	32029.21
610.802	31789.59
610.998	31973.91
611.193	31871.51
611.389	31707.68
611.584	31742.49
611.78	31547.93
611.976	31623.71
612.171	31455.78
612.367	31592.99
612.562	31627.81
612.758	30972.46
612.953	30956.07
613.149	31754.78
613.344	30951.98
613.539	31189.54
613.735	30663.21
613.93	31197.73
614.126	30562.86
614.321	31201.83
614.517	30988.84
614.712	30841.39
614.907	30798.38
615.103	30720.56
615.298	30554.67
615.493	30675.5
615.688	29872.7
615.884	30894.63
616.079	29872.7
616.274	30331.44
616.47	30233.14
616.665	30159.41
616.86	30016.05
617.055	29706.81
617.25	30007.86
617.445	30220.85
617.641	29553.21
617.836	29549.12
618.031	29129.28
618.226	29563.45
618.421	29147.72
618.616	29395.52
618.811	28998.21
619.006	29428.29
619.201	28568.14
619.396	29059.65
619.591	28729.93
619.786	28914.25
619.981	28367.44
620.176	28592.72
620.371	28064.34
620.566	28518.99
620.761	28131.92
620.956	28142.16
621.151	27718.23
621.346	27963.99
621.541	27478.62
621.735	27601.5
621.93	27114.08
622.125	27288.16
622.32	26436.2
622.515	27036.26
622.709	26851.94
622.904	26632.81
623.099	26417.77
623.294	26344.05
623.488	26040.95
623.683	26114.67
623.878	25827.96
624.072	26036.85
624.267	25768.57
624.462	25684.6
624.656	25563.77
624.851	25455.23
625.046	25135.74
625.24	24664.71
625.435	24547.98
625.629	25127.55
625.824	24443.53
626.018	24394.38
626.213	24384.14
626.407	24283.79
626.602	23624.34
626.796	24210.06
626.991	23681.69
627.185	23560.86
627.38	23429.79
627.574	23327.39
627.768	23192.22
627.963	23118.5
628.157	22915.75
628.352	23098.02
628.546	22784.68
628.74	22942.37
628.935	22536.87
629.129	22571.69
629.323	22381.23
629.517	22332.08
629.712	22237.87
629.906	22141.61
630.1	21793.46
630.294	21809.84
630.489	21621.43
630.683	21965.49
630.877	21170.88
631.071	21181.12
631.265	21279.42
631.459	20861.63
631.653	21097.15
631.848	20906.69
632.042	20847.3
632.236	20863.68
632.43	20402.89
632.624	20603.59
632.818	20378.31
633.012	20112.08
633.206	20224.72
633.4	19874.51
633.594	19858.13
633.788	20058.83
633.982	19634.9
634.176	19600.08
634.369	19397.34
634.563	19356.38
634.757	19299.03
634.951	19235.55
635.145	19403.48
635.339	19167.96
635.533	18860.77
635.726	18651.88
635.92	18707.17
636.114	18725.6
636.308	18457.32
636.501	18572
636.695	18371.3
636.889	18361.06
637.083	18146.03
637.276	18119.4
637.47	18105.07
637.664	18066.16
637.857	17894.13
638.051	17695.47
638.244	17535.73
638.438	17474.29
638.632	17396.47
638.825	17246.97
639.019	17203.96
639.212	17050.36
639.406	17197.82
639.599	16763.65
639.793	16886.53
639.986	16653.06
640.18	16968.45
640.373	16593.67
640.567	16444.17
640.76	16411.4
640.954	16274.18
641.147	16268.04
641.34	16347.91
641.534	16077.58
641.727	15993.61
641.92	15872.78
642.114	15749.9
642.307	15710.99
642.5	15368.98
642.694	15407.89
642.887	15373.08
643.08	15586.07
643.273	15362.84
643.467	15285.01
643.66	15090.46
643.853	14809.89
644.046	14598.95
644.239	14918.43
644.432	14887.71
644.626	14885.66
644.819	14277.41
645.012	14551.84
645.205	14566.18
645.398	14123.82
645.591	14215.98
645.784	14142.25
645.977	14172.97
646.17	14086.95
646.363	13835.05
646.556	13751.09
646.749	13767.47
646.942	13650.74
647.135	13632.3
647.328	13501.23
647.521	13556.53
647.714	13218.61
647.907	13361.97
648.099	13118.26
648.292	12948.28
648.485	13120.31
648.678	12993.34
648.871	12766.01
649.064	12714.81
649.256	12745.53
649.449	12634.94
649.642	12716.86
649.835	12340.04
650.027	12378.95
650.22	12176.2
650.413	12391.23
650.605	12663.61
650.798	12176.2
650.991	12153.67
651.183	12022.6
651.376	12004.17
651.568	11889.48
651.761	11649.87
651.954	11946.83
652.146	11608.91
652.339	11625.29
652.531	11674.45
652.724	11567.95
652.916	11357.01
653.109	11559.76
653.301	11434.83
653.494	11301.72
653.686	11189.08
653.879	11371.35
654.071	11082.58
654.263	10918.75
654.456	10965.85
654.648	11150.17
654.84	10838.87
655.033	10726.24
655.225	10756.96
655.417	10830.68
655.61	10603.36
655.802	10703.71
655.994	10453.86
656.186	10363.75
656.379	10453.86
656.571	10435.42
656.763	10384.23
656.955	10423.14
657.148	10072.93
657.34	10120.04
657.532	10103.65
657.724	9859.95
657.916	10003.3
658.108	9710.44
658.3	9618.29
658.492	9814.89
658.684	9659.24
658.876	9771.88
659.068	9491.31
659.26	9511.79
659.452	9458.54
659.644	9376.62
659.836	9143.16
660.028	9376.62
660.22	9120.63
660.412	9286.51
660.604	9079.67
660.796	9112.44
660.988	9018.23
661.18	8967.03
661.372	8831.87
661.563	8907.64
661.755	8827.77
661.947	8717.18
662.139	8625.02
662.331	8868.73
662.522	8342.4
662.714	8602.49
662.906	8733.56
663.097	8520.57
663.289	8371.07
663.481	8293.25
663.673	8332.16
663.864	8207.23
664.056	8053.64
664.247	7893.9
664.439	8070.02
664.631	8020.87
664.822	8051.59
665.014	7832.46
665.205	7867.27
665.397	7828.36
665.588	7842.7
665.78	7568.27
665.971	7701.39
666.163	7652.24
666.354	7693.19
666.546	7531.41
666.737	7502.73
666.929	7373.71
667.12	7340.94
667.311	7367.57
667.503	7130
667.694	7318.42
667.885	7369.62
668.077	7125.91
668.268	7015.32
668.459	7074.71
668.651	6982.55
668.842	7013.27
669.033	6947.73
669.224	6923.16
669.416	6939.54
669.607	6841.24
669.798	6896.53
669.989	6896.53
670.18	6730.65
670.371	6714.27
670.563	6726.55
670.754	6601.63
670.945	6570.91
671.136	6495.13
671.327	6486.94
671.518	6357.92
671.709	6421.41
671.9	6441.89
672.091	6423.45
672.282	6267.81
672.473	6374.3
672.664	6230.94
672.855	6284.19
673.046	6292.38
673.237	6226.85
673.428	6065.06
673.619	6202.27
673.809	5999.52
674	5944.23
674.191	6063.01
674.382	5923.75
674.573	5970.85
674.764	6046.63
674.954	5884.84
675.145	5813.16
675.336	5784.49
675.527	5624.75
675.717	5778.34
675.908	5829.54
676.099	5800.87
676.289	5745.58
676.48	5530.54
676.671	5462.96
676.861	5657.51
677.052	5565.36
677.243	5663.66
677.433	5604.27
677.624	5469.1
677.814	5491.63
678.005	5548.97
678.195	5591.98
678.386	5546.92
678.576	5546.92
678.767	5432.24
678.957	5649.32
679.148	5362.61
679.338	5538.73
679.529	5424.05
679.719	5280.69
679.909	5317.55
680.1	5303.22
680.29	5309.36
680.481	5245.87
680.671	5243.82
680.861	5245.87
681.052	5219.25
681.242	5192.62
681.432	5348.27
681.622	5178.29
681.813	5045.17
682.003	4965.3
682.193	5034.93
682.383	5049.27
682.573	5079.99
682.764	4914.1
682.954	5047.22
683.144	4991.92
683.334	4940.72
683.524	4899.77
683.714	5002.16
683.904	4787.13
684.094	4893.62
684.284	4731.83
684.474	5047.22
684.664	4891.57
684.854	4826.04
685.044	4799.41
685.234	4867
685.424	4850.61
685.614	4860.85
685.804	4629.43
685.994	4694.97
686.184	4780.98
686.374	4682.68
686.564	4750.26
686.753	4735.93
686.943	4582.33
687.133	4555.71
687.323	4793.27
687.513	4694.97
687.702	4676.54
687.892	4719.54
688.082	4703.16
688.272	4615.1
688.461	4524.99
688.651	4514.75
688.841	4549.56
689.03	4369.34
689.22	4400.06
689.41	4539.32
689.599	4586.43
689.789	4375.49
689.979	4428.73
690.168	4346.81
690.358	4385.73
690.547	4256.7
690.737	4371.39
690.926	4572.09
691.116	4170.69
691.305	4494.27
691.495	4248.51
691.684	4109.25
691.874	4295.61
692.063	4289.47
692.252	4344.77
692.442	4271.04
692.631	4115.39
692.82	4088.77
693.01	4256.7
693.199	4187.07
693.388	4074.43
693.578	4058.05
693.767	4133.82
693.956	4056
694.146	4205.5
694.335	3969.99
694.524	4039.62
694.713	4076.48
694.902	4076.48
695.092	3861.45
695.281	3935.17
695.47	4135.87
695.659	4000.71
695.848	3894.21
696.037	4060.1
696.226	3990.47
696.415	4137.92
696.604	3910.6
696.793	4017.09
696.982	3908.55
697.171	3965.89
697.36	3959.75
697.549	3926.98
697.738	4053.95
697.927	3877.83
698.116	3795.91
698.305	3957.7
698.494	3797.96
698.683	3810.25
698.872	3845.06
699.061	3896.26
699.25	3703.75
699.438	3830.73
699.627	3789.77
699.816	3857.35
700.005	3617.74
700.193	3750.85
700.382	3662.79
700.571	3695.56
700.76	3607.5
700.948	3630.02
701.137	3580.87
701.326	3654.6
701.514	3556.3
701.703	3765.19
701.892	3584.97
702.08	3713.99
702.269	3605.45
702.457	3488.71
702.646	3519.43
702.834	3466.19
703.023	3564.49
703.212	3591.11
703.4	3544.01
703.589	3484.62
703.777	3531.72
703.965	3691.46
704.154	3523.53
704.342	3359.69
704.531	3474.38
704.719	3458
704.907	3419.08
705.096	3468.24
705.284	3445.71
705.472	3480.52
705.661	3425.23
705.849	3376.08
706.037	3337.17
706.226	3386.32
706.414	3378.12
706.602	3238.86
706.79	3343.31
706.979	3394.51
707.167	3378.12
707.355	3206.1
707.543	3294.16
707.731	3290.06
707.919	3140.56
708.107	3253.2
708.296	3187.66
708.484	3126.22
708.672	3269.58
708.86	3130.32
709.048	3247.05
709.236	3007.44
709.424	3277.77
709.612	3288.01
709.8	2999.25
709.988	3085.26
710.176	3218.38
710.364	3103.7
710.551	3068.88
710.739	3081.17
710.927	3146.7
711.115	3056.59
711.303	3109.84
711.491	2962.39
711.679	3007.44
711.866	3091.41
712.054	2978.77
712.242	3093.46
712.43	3042.26
712.617	3007.44
712.805	3099.6
712.993	2974.67
713.181	2950.1
713.368	2884.56
713.556	2864.08
713.744	2866.13
713.931	3021.78
714.119	2827.22
714.306	2950.1
714.494	2847.7
714.682	2833.36
714.869	2831.32
715.057	2966.48
715.244	2816.98
715.432	2878.42
715.619	2780.12
715.807	2728.92
715.994	2773.97
716.182	2814.93
716.369	2753.49
716.556	2765.78
716.744	2724.82
716.931	2638.81
717.119	2722.77
717.306	2761.69
717.493	2706.39
717.681	2685.91
717.868	2706.39
718.055	2663.38
718.242	2606.04
718.43	2577.37
718.617	2585.56
718.804	2610.14
718.991	2685.91
719.179	2548.7
719.366	2534.36
719.553	2558.94
719.74	2503.64
719.927	2610.14
720.114	2534.36
720.301	2493.4
720.488	2599.9
720.676	2413.53
720.863	2489.31
721.05	2532.31
721.237	2450.39
721.424	2528.22
721.611	2442.2
721.798	2456.54
721.985	2362.33
722.172	2495.45
722.358	2417.63
722.545	2380.76
722.732	2434.01
722.919	2464.73
723.106	2446.3
723.293	2460.63
723.48	2520.03
723.667	2354.14
723.853	2294.75
724.04	2440.15
724.227	2296.8
724.414	2376.67
724.6	2364.38
724.787	2261.98
724.974	2325.47
725.161	2368.48
725.347	2229.21
725.534	2364.38
725.72	2304.99
725.907	2257.89
726.094	2243.55
726.28	2223.07
726.467	2212.83
726.653	2233.31
726.84	2282.46
727.027	2280.41
727.213	2237.41
727.4	2237.41
727.586	2239.45
727.773	2196.45
727.959	2137.06
728.145	2225.12
728.332	2196.45
728.518	2110.43
728.705	2182.11
728.891	2106.34
729.077	2180.06
729.264	2147.3
729.45	2044.9
729.636	2173.92
729.823	2122.72
730.009	2073.57
730.195	2130.91
730.382	1999.84
730.568	1975.27
730.754	2024.42
730.94	2083.81
731.126	2137.06
731.313	2010.08
731.499	1958.88
731.685	2102.24
731.871	2141.15
732.057	1983.46
732.243	1864.68
732.429	2026.47
732.615	1942.5
732.801	2053.09
732.987	1979.36
733.173	1999.84
733.359	2008.03
733.545	2003.94
733.731	2026.47
733.917	1973.22
734.103	2038.75
734.289	2034.66
734.475	1938.4
734.661	1977.31
734.847	1879.01
735.033	2022.37
735.219	1901.54
735.404	1917.92
735.59	1909.73
735.776	1936.35
735.962	1883.11
736.148	1827.81
736.333	1856.48
736.519	1821.67
736.705	1809.38
736.89	1790.95
737.076	1840.1
737.262	1782.76
737.447	1745.89
737.633	1811.43
737.819	1852.39
738.004	1905.63
738.19	1825.76
738.375	1883.11
738.561	1831.91
738.747	1758.18
738.932	1680.36
739.118	1827.81
739.303	1852.39
739.489	1680.36
739.674	1663.97
739.859	1704.93
740.045	1805.28
740.23	1631.21
740.416	1666.02
740.601	1731.56
740.786	1725.41
740.972	1713.13
741.157	1616.87
741.342	1627.11
741.528	1725.41
741.713	1709.03
741.898	1635.3
742.084	1633.26
742.269	1647.59
742.454	1661.93
742.639	1690.6
742.824	1661.93
743.01	1604.58
743.195	1592.3
743.38	1641.45
743.565	1647.59
743.75	1606.63
743.935	1616.87
744.12	1600.49
744.305	1516.52
744.49	1651.69
744.675	1475.56
744.86	1565.67
745.045	1575.91
745.23	1479.66
745.415	1522.66
745.6	1524.71
745.785	1493.99
745.97	1557.48
746.155	1502.19
746.34	1385.45
746.525	1412.07
746.71	1491.95
746.895	1352.68
747.079	1508.33
747.264	1387.5
747.449	1319.92
747.634	1403.88
747.819	1346.54
748.003	1362.92
748.188	1428.46
748.373	1330.16
748.557	1420.27
748.742	1313.77
748.927	1344.49
749.111	1330.16
749.296	1281
749.481	1371.12
749.665	1311.72
749.85	1262.57
750.034	1233.9
750.219	1209.33
750.404	1281
750.588	1250.28
750.773	1248.24
750.957	1270.76
751.141	1266.67
751.326	1274.86
751.51	1090.54
751.695	1164.27
751.879	1352.68
752.064	1233.9
752.248	1276.91
752.432	1258.48
752.617	1203.18
752.801	1278.96
752.985	1190.89
753.17	1133.55
753.354	1151.98
753.538	1192.94
753.722	1027.06
753.907	1156.08
754.091	1127.41
754.275	1184.75
754.459	1104.88
754.643	1086.45
754.828	1022.96
755.012	1192.94
755.196	1115.12
755.38	1088.5
755.564	1111.02
755.748	1076.21
755.932	1078.26
756.116	955.38
756.3	1082.35
756.484	1047.54
756.668	986.1
756.852	969.71
757.036	1111.02
757.22	1004.53
757.404	1016.82
757.588	979.95
757.772	982
757.956	943.09
758.14	975.86
758.323	893.94
758.507	1010.67
758.691	947.19
758.875	975.86
759.059	1018.86
759.242	1025.01
759.426	943.09
759.61	828.4
759.794	887.79
759.977	852.98
760.161	977.91
760.345	879.6
760.528	869.36
760.712	904.18
760.895	963.57
761.079	863.22
761.263	844.79
761.446	844.79
761.63	885.75
761.813	836.6
761.997	920.56
762.18	799.73
762.364	855.03
762.547	785.4
762.731	814.07
762.914	801.78
763.098	871.41
763.281	887.79
763.464	785.4
763.648	814.07
763.831	754.68
764.015	848.88
764.198	795.64
764.381	756.72
764.564	820.21
764.748	846.84
764.931	832.5
765.114	740.34
765.297	857.07
765.481	771.06
765.664	824.31
765.847	721.91
766.03	799.73
766.213	721.91
766.397	762.87
766.58	734.2
766.763	852.98
766.946	775.16
767.129	721.91
767.312	746.48
767.495	705.53
767.678	791.54
767.861	783.35
768.044	799.73
768.227	752.63
768.41	713.72
768.593	775.16
768.776	746.48
768.959	707.57
769.142	777.2
769.324	705.53
769.507	713.72
769.69	642.04
769.873	728.05
770.056	797.68
770.239	697.33
770.421	726
770.604	726
770.787	685.05
770.97	754.68
771.152	748.53
771.335	701.43
771.518	674.81
771.7	764.92
771.883	783.35
772.066	623.61
772.248	697.33
772.431	717.81
772.613	683
772.796	713.72
772.978	693.24
773.161	605.17
773.343	689.14
773.526	623.61
773.708	664.57
773.891	564.22
774.073	676.85
774.256	623.61
774.438	623.61
774.621	680.95
774.803	627.7
774.985	568.31
775.168	576.5
775.35	650.23
775.532	650.23
775.715	488.44
775.897	658.42
776.079	596.98
776.261	633.85
776.444	599.03
776.626	642.04
776.808	642.04
776.99	633.85
777.173	547.83
777.355	545.78
777.537	560.12
777.719	521.21
777.901	648.18
778.083	517.11
778.265	521.21
778.447	599.03
778.629	584.7
778.811	480.25
778.993	584.7
779.175	564.22
779.357	558.07
779.539	539.64
779.721	558.07
779.903	582.65
780.085	582.65
780.267	463.86
780.449	521.21
780.631	582.65
780.812	525.3
780.994	492.54
781.176	545.78
781.358	508.92
781.54	451.58
781.721	502.78
781.903	504.82
782.085	482.3
782.267	508.92
782.448	484.34
782.63	455.67
782.812	451.58
782.993	510.97
783.175	486.39
783.357	457.72
783.538	486.39
783.72	394.23
783.901	508.92
784.083	455.67
784.264	519.16
784.446	429.05
784.627	357.37
784.809	414.71
784.99	379.9
785.172	410.62
785.353	427
785.535	480.25
785.716	410.62
785.897	398.33
786.079	361.47
786.26	408.57
786.441	431.1
786.623	375.8
786.804	326.65
786.985	406.52
787.167	353.27
787.348	390.14
787.529	416.76
787.71	465.91
787.891	338.94
788.073	254.97
788.254	381.95
788.435	445.43
788.616	437.24
788.797	394.23
788.978	312.32
789.159	316.41
789.34	412.67
789.522	330.75
789.703	312.32
789.884	357.37
790.065	377.85
790.246	373.75
790.427	332.79
790.607	367.61
790.788	422.91
790.969	361.47
791.15	375.8
791.331	320.51
791.512	271.36
791.693	351.23
791.874	424.95
792.054	332.79
792.235	308.22
792.416	240.64
792.597	263.16
792.778	377.85
792.958	336.89
793.139	343.03
793.32	236.54
793.5	271.36
793.681	363.51
793.862	345.08
794.042	285.69
794.223	250.88
794.404	302.08
794.584	197.63
794.765	332.79
794.945	197.63
795.126	291.84
795.306	295.93
795.487	300.03
795.667	287.74
795.848	216.06
796.028	340.99
796.209	351.23
796.389	248.83
796.57	275.45
796.75	205.82
796.93	263.16
797.111	222.2
797.291	283.64
797.471	271.36
797.652	263.16
797.832	252.92
798.012	312.32
798.192	209.92
798.373	230.4
798.553	238.59
798.733	230.4
798.913	304.12
799.093	226.3
799.274	220.16
799.454	312.32
799.634	248.83
799.814	189.44
799.994	246.78
800.174	312.32
800.354	181.25
800.534	205.82
800.714	265.21
800.894	263.16
801.074	259.07
801.254	265.21
801.434	185.34
801.614	216.06
801.794	252.92
801.974	787.44
802.154	175.1
802.334	185.34
802.514	275.45
802.693	189.44
802.873	244.73
803.053	304.12
803.233	205.82
803.413	244.73
803.592	214.01
803.772	156.67
803.952	193.53
804.131	295.93
804.311	226.3
804.491	234.49
804.67	226.3
804.85	173.05
805.03	197.63
805.209	246.78
805.389	128
805.568	173.05
805.748	183.29
805.928	197.63
806.107	201.72
806.287	189.44
806.466	164.86
806.646	189.44
806.825	230.4
807.004	189.44
807.184	156.67
807.363	226.3
807.543	265.21
807.722	146.43
807.901	148.48
808.081	281.6
808.26	103.42
808.439	140.29
808.619	173.05
808.798	171.01
808.977	64.51
809.156	230.4
809.336	187.39
809.515	152.57
809.694	140.29
809.873	138.24
810.052	238.59
810.231	148.48
810.411	107.52
810.59	201.72
810.769	109.57
810.948	199.68
811.127	128
811.306	185.34
811.485	87.04
811.664	142.33
811.843	134.14
812.022	209.92
812.201	201.72
812.38	168.96
812.559	136.19
812.737	197.63
812.916	181.25
813.095	179.2
813.274	164.86
813.453	140.29
813.632	171.01
813.811	189.44
813.989	140.29
814.168	156.67
814.347	136.19
814.526	103.42
814.704	209.92
814.883	142.33
815.062	134.14
815.24	193.53
815.419	97.28
815.598	121.85
815.776	62.46
815.955	181.25
816.133	158.72
816.312	93.18
816.49	91.13
816.669	140.29
816.847	111.61
817.026	132.09
817.204	93.18
817.383	119.81
817.561	99.33
817.74	107.52
817.918	187.39
818.097	74.75
818.275	78.85
818.453	115.71
818.632	82.94
818.81	189.44
818.988	148.48
819.167	134.14
819.345	138.24
819.523	136.19
819.701	35.84
819.879	82.94
820.058	175.1
820.236	128
820.414	50.18
820.592	156.67
820.77	82.94
820.948	72.7
821.127	58.37
821.305	119.81
821.483	29.7
821.661	193.53
821.839	134.14
822.017	128
822.195	87.04
822.373	156.67
822.551	125.95
822.729	144.38
822.907	111.61
823.085	82.94
823.262	54.27
823.44	74.75
823.618	134.14
823.796	68.61
823.974	111.61
824.152	99.33
824.329	58.37
824.507	115.71
824.685	185.34
824.863	66.56
825.04	78.85
825.218	197.63
825.396	132.09
825.574	58.37
825.751	76.8
825.929	134.14
826.107	23.55
826.284	82.94
826.462	132.09
826.639	68.61
826.817	101.37
826.994	84.99
827.172	152.57
827.349	185.34
827.527	121.85
827.704	136.19
827.882	99.33
828.059	35.84
828.237	62.46
828.414	87.04
828.591	134.14
828.769	99.33
828.946	91.13
829.124	146.43
829.301	91.13
829.478	50.18
829.655	119.81
829.833	93.18
830.01	123.9
830.187	58.37
830.364	17.41
830.542	119.81
830.719	93.18
830.896	70.65
831.073	74.75
831.25	84.99
831.427	-11.26
831.604	97.28
831.782	89.09
831.959	123.9
832.136	58.37
832.313	123.9
832.49	78.85
832.667	107.52
832.844	111.61
833.021	119.81
833.198	128
833.374	150.53
833.551	115.71
833.728	1.02
833.905	93.18
834.082	17.41
834.259	82.94
834.436	125.95
834.612	80.89
834.789	115.71
834.966	56.32
835.143	50.18
835.319	17.41
835.496	164.86
835.673	111.61
835.85	33.79
836.026	50.18
836.203	87.04
836.38	13.31
836.556	119.81
836.733	17.41
836.909	197.63
837.086	44.03
837.262	115.71
837.439	27.65
837.616	41.98
837.792	-35.84
837.968	125.95
838.145	68.61
838.321	5.12
838.498	78.85
838.674	140.29
838.851	52.22
839.027	109.57
839.203	99.33
839.38	50.18
839.556	115.71
839.732	66.56
839.909	91.13
840.085	107.52
840.261	117.76
840.437	82.94
840.614	52.22
840.79	97.28
840.966	-19.46
841.142	68.61
841.318	95.23
841.494	54.27
841.671	123.9
841.847	64.51
842.023	60.42
842.199	19.46
842.375	111.61
842.551	62.46
842.727	44.03
842.903	60.42
843.079	1.02
843.255	130.05
843.431	19.46
843.607	82.94
843.783	76.8
843.959	66.56
844.134	62.46
844.31	117.76
844.486	-23.55
844.662	74.75
844.838	80.89
845.013	41.98
845.189	109.57
845.365	95.23
845.541	82.94
845.716	41.98
845.892	54.27
846.068	9.22
846.244	-13.31
846.419	107.52
846.595	44.03
846.77	93.18
846.946	66.56
847.122	48.13
847.297	37.89
847.473	101.37
847.648	-3.07
847.824	82.94
847.999	44.03
848.175	74.75
848.35	60.42
848.526	58.37
848.701	25.6
848.876	68.61
849.052	25.6
849.227	58.37
849.403	74.75
849.578	89.09
849.753	119.81
849.929	60.42
850.104	60.42
850.279	33.79
850.454	107.52
850.63	109.57
850.805	35.84
850.98	46.08
851.155	74.75
851.33	37.89
851.505	41.98
851.681	119.81
851.856	41.98
852.031	41.98
852.206	58.37
852.381	50.18
852.556	84.99
852.731	68.61
852.906	72.7
853.081	115.71
853.256	87.04
853.431	46.08
853.606	-68.61
853.781	29.7
853.956	44.03
854.131	19.46
854.305	-29.7
854.48	50.18
854.655	1.02
854.83	103.42
855.005	82.94
855.18	56.32
855.354	25.6
855.529	27.65
855.704	41.98
855.879	48.13
856.053	5.12
856.228	91.13
856.403	29.7
856.577	33.79
856.752	17.41
856.926	66.56
857.101	7.17
857.276	50.18
857.45	41.98
857.625	41.98
857.799	66.56
857.974	125.95
858.148	5.12
858.323	41.98
858.497	7.17
858.672	11.26
858.846	27.65
859.02	99.33
859.195	-19.46
859.369	25.6
859.543	54.27
859.718	111.61
859.892	58.37
860.066	17.41
860.241	27.65
860.415	9.22
860.589	58.37
860.763	11.26
860.938	-13.31
861.112	82.94
861.286	52.22
861.46	-7.17
861.634	44.03
861.808	84.99
861.982	54.27
862.157	5.12
862.331	39.94
862.505	-48.13
862.679	-7.17
862.853	-15.36
863.027	9.22
863.201	101.37
863.375	11.26
863.549	99.33
863.722	78.85
863.896	74.75
864.07	17.41
864.244	35.84
864.418	25.6
864.592	66.56
864.766	-5.12
864.939	50.18
865.113	35.84
865.287	50.18
865.461	31.74
865.634	44.03
865.808	-15.36
865.982	33.79
866.156	-46.08
866.329	31.74
866.503	58.37
866.676	76.8
866.85	117.76
867.024	54.27
867.197	84.99
867.371	25.6
867.544	5.12
867.718	-5.12
867.891	115.71
868.065	48.13
868.238	41.98
868.412	29.7
868.585	41.98
868.759	27.65
868.932	1.02
869.105	41.98
869.279	48.13
869.452	19.46
869.625	37.89
869.799	-15.36
869.972	-21.5
870.145	39.94
870.319	-19.46
870.492	13.31
870.665	-5.12
870.838	41.98
871.011	33.79
871.185	25.6
871.358	7.17
871.531	29.7
871.704	60.42
871.877	33.79
872.05	-7.17
872.223	33.79
872.396	58.37
872.569	99.33
872.742	25.6
872.915	101.37
873.088	39.94
873.261	5.12
873.434	-11.26
873.607	-23.55
873.78	9.22
873.953	-60.42
874.126	-56.32
874.299	-37.89
874.471	-27.65
874.644	91.13
874.817	52.22
874.99	17.41
875.163	25.6
875.335	33.79
875.508	33.79
875.681	117.76
875.853	37.89
876.026	-27.65
876.199	128
876.371	39.94
876.544	-29.7
876.717	37.89
876.889	52.22
877.062	50.18
877.234	33.79
877.407	78.85
877.579	1.02
877.752	1.02
877.924	52.22
878.097	-72.7
878.269	31.74
878.442	15.36
878.614	48.13
878.786	82.94
878.959	17.41
879.131	50.18
879.303	-80.89
879.476	23.55
879.648	23.55
879.82	29.7
879.993	-52.22
880.165	50.18
880.337	1.02
880.509	50.18
880.681	-31.74
880.854	-35.84
881.026	87.04
881.198	60.42
881.37	46.08
881.542	52.22
881.714	-5.12
881.886	50.18
882.058	25.6
882.23	107.52
882.402	-5.12
882.574	17.41
882.746	17.41
882.918	9.22
883.09	3.07
883.262	5.12
883.434	-60.42
883.606	21.5
883.778	39.94
883.95	105.47
884.122	-11.26
884.293	-15.36
884.465	91.13
884.637	123.9
884.809	-5.12
884.98	27.65
885.152	9.22
885.324	-7.17
885.496	-48.13
885.667	-46.08
885.839	-31.74
886.011	107.52
886.182	-21.5
886.354	-31.74
886.525	1.02
886.697	54.27
886.869	7.17
887.04	-3.07
887.212	58.37
887.383	72.7
887.555	21.5
887.726	27.65
887.897	17.41
888.069	17.41
888.24	97.28
888.412	91.13
888.583	9.22
888.754	91.13
888.926	-58.37
889.097	33.79
889.268	-15.36
889.44	87.04
889.611	-39.94
889.782	-17.41
889.953	39.94
890.125	58.37
890.296	-78.85
890.467	-7.17
890.638	136.19
890.809	-5.12
890.98	37.89
891.151	5.12
891.323	87.04
891.494	62.46
891.665	33.79
891.836	103.42
892.007	9.22
892.178	60.42
892.349	19.46
892.52	-31.74
892.691	-64.51
892.862	-31.74
893.032	-5.12
893.203	46.08
893.374	60.42
893.545	56.32
893.716	-35.84
893.887	50.18
894.057	17.41
894.228	44.03
894.399	27.65
894.57	1.02
894.74	9.22
894.911	5.12
895.082	-44.03
895.253	50.18
895.423	21.5
895.594	52.22
895.764	37.89
895.935	56.32
896.106	60.42
896.276	50.18
896.447	5.12
896.617	-13.31
896.788	-5.12
896.958	70.65
897.129	101.37
897.299	41.98
897.47	41.98
897.64	29.7
897.81	-23.55
897.981	66.56
898.151	1.02
898.322	60.42
898.492	62.46
898.662	33.79
898.832	35.84
899.003	21.5
899.173	-7.17
899.343	37.89
899.513	-37.89
