Data from USB4F104151__186__14-45-10-332.txt Node

Date: Thu Mar 13 14:45:10 EDT 2025
User: louis
Spectrometer: USB4F10415
Trigger mode: 4
Integration Time (sec): 2.000000E-2
Scans to average: 1
Electric dark correction enabled: true
Nonlinearity correction enabled: false
Boxcar width: 0
XAxis mode: Wavelengths
Number of Pixels in Spectrum: 3648
>>>>>Begin Spectral Data<<<<<
178.204	-84.65
178.424	-84.65
178.644	-84.65
178.864	-152.23
179.084	-86.7
179.304	23.89
179.524	-68.27
179.744	-21.16
179.964	-37.55
180.184	32.08
180.404	-17.07
180.624	44.37
180.844	44.37
181.064	-58.03
181.283	81.24
181.503	-10.92
181.723	-12.97
181.943	-55.98
182.163	36.18
182.383	40.28
182.602	30.04
182.822	-10.92
183.042	83.28
183.262	-8.87
183.482	62.8
183.701	-4.78
183.921	71
184.141	-2.73
184.361	44.37
184.58	-8.87
184.8	52.56
185.02	52.56
185.239	32.08
185.459	17.75
185.679	36.18
185.898	-53.93
186.118	40.28
186.338	-0.68
186.557	42.32
186.777	-19.11
186.997	44.37
187.216	-12.97
187.436	77.14
187.655	15.7
187.875	-15.02
188.095	-43.69
188.314	44.37
188.534	40.28
188.753	40.28
188.973	25.94
189.192	11.61
189.412	36.18
189.631	-0.68
189.851	32.08
190.07	32.08
190.29	19.8
190.509	-53.93
190.729	23.89
190.948	25.94
191.168	118.1
191.387	-23.21
191.607	44.37
191.826	30.04
192.045	40.28
192.265	5.46
192.484	3.41
192.704	15.7
192.923	-19.11
193.142	66.9
193.362	-4.78
193.581	71
193.8	1.37
194.02	89.43
194.239	17.75
194.458	62.8
194.678	-8.87
194.897	60.76
195.116	15.7
195.335	48.47
195.555	-17.07
195.774	11.61
195.993	60.76
196.212	-19.11
196.432	-4.78
196.651	3.41
196.87	36.18
197.089	27.99
197.308	27.99
197.528	44.37
197.747	34.13
197.966	-53.93
198.185	71
198.404	52.56
198.623	81.24
198.842	13.65
199.062	23.89
199.281	40.28
199.5	21.84
199.719	54.61
199.938	68.95
200.157	-12.97
200.376	77.14
200.595	3.41
200.814	48.47
201.033	27.99
201.252	32.08
201.471	56.66
201.69	25.94
201.909	-2.73
202.128	-0.68
202.347	32.08
202.566	-4.78
202.785	54.61
203.004	-51.88
203.223	68.95
203.442	-10.92
203.661	-103.08
203.879	-25.26
204.098	52.56
204.317	13.65
204.536	79.19
204.755	52.56
204.974	46.42
205.193	-31.4
205.411	62.8
205.63	95.57
205.849	30.04
206.068	27.99
206.287	32.08
206.505	25.94
206.724	5.46
206.943	73.04
207.162	38.23
207.381	30.04
207.599	58.71
207.818	1.37
208.037	3.41
208.255	46.42
208.474	-21.16
208.693	44.37
208.911	60.76
209.13	54.61
209.349	19.8
209.567	71
209.786	-27.31
210.005	60.76
210.223	-29.35
210.442	30.04
210.661	11.61
210.879	56.66
211.098	-2.73
211.316	-68.27
211.535	36.18
211.753	-35.5
211.972	-17.07
212.191	52.56
212.409	-29.35
212.628	15.7
212.846	-23.21
213.065	44.37
213.283	66.9
213.502	-17.07
213.72	-21.16
213.938	-21.16
214.157	83.28
214.375	25.94
214.594	38.23
214.812	68.95
215.031	-39.59
215.249	-0.68
215.467	1.37
215.686	38.23
215.904	56.66
216.122	-86.7
216.341	32.08
216.559	30.04
216.778	73.04
216.996	58.71
217.214	1.37
217.432	5.46
217.651	-4.78
217.869	46.42
218.087	-43.69
218.306	-31.4
218.524	79.19
218.742	-103.08
218.96	126.29
219.179	93.52
219.397	62.8
219.615	73.04
219.833	3.41
220.051	-12.97
220.27	85.33
220.488	13.65
220.706	11.61
220.924	3.41
221.142	23.89
221.36	38.23
221.578	7.51
221.796	27.99
222.015	93.52
222.233	-21.16
222.451	134.48
222.669	-12.97
222.887	60.76
223.105	-12.97
223.323	54.61
223.541	-43.69
223.759	-37.55
223.977	3.41
224.195	3.41
224.413	-8.87
224.631	48.47
224.849	-10.92
225.067	85.33
225.285	-4.78
225.503	32.08
225.721	-0.68
225.939	23.89
226.157	-17.07
226.375	56.66
226.592	3.41
226.81	11.61
227.028	64.85
227.246	79.19
227.464	19.8
227.682	-6.83
227.9	-60.07
228.117	44.37
228.335	40.28
228.553	-33.45
228.771	-0.68
228.989	-41.64
229.206	64.85
229.424	-12.97
229.642	7.51
229.86	-39.59
230.077	89.43
230.295	-0.68
230.513	68.95
230.731	77.14
230.948	15.7
231.166	79.19
231.384	15.7
231.601	38.23
231.819	56.66
232.037	27.99
232.254	7.51
232.472	-0.68
232.689	11.61
232.907	-17.07
233.125	3.41
233.342	32.08
233.56	-37.55
233.777	19.8
233.995	36.18
234.213	50.52
234.43	101.72
234.648	27.99
234.865	30.04
235.083	-27.31
235.3	93.52
235.518	93.52
235.735	77.14
235.953	15.7
236.17	-35.5
236.388	-33.45
236.605	27.99
236.822	62.8
237.04	85.33
237.257	36.18
237.475	-2.73
237.692	27.99
237.909	85.33
238.127	-41.64
238.344	-4.78
238.562	105.81
238.779	3.41
238.996	15.7
239.214	21.84
239.431	68.95
239.648	9.56
239.865	83.28
240.083	68.95
240.3	68.95
240.517	-6.83
240.735	48.47
240.952	11.61
241.169	-41.64
241.386	27.99
241.603	38.23
241.821	-51.88
242.038	36.18
242.255	75.09
242.472	-8.87
242.689	19.8
242.907	38.23
243.124	-33.45
243.341	13.65
243.558	-49.83
243.775	-2.73
243.992	-15.02
244.209	60.76
244.426	77.14
244.643	60.76
244.86	17.75
245.078	27.99
245.295	52.56
245.512	85.33
245.729	-29.35
245.946	21.84
246.163	19.8
246.38	60.76
246.597	-21.16
246.814	71
247.031	-4.78
247.248	32.08
247.464	54.61
247.681	46.42
247.898	56.66
248.115	44.37
248.332	-70.31
248.549	89.43
248.766	56.66
248.983	68.95
249.2	5.46
249.417	36.18
249.633	44.37
249.85	103.76
250.067	-62.12
250.284	60.76
250.501	-0.68
250.717	93.52
250.934	-10.92
251.151	32.08
251.368	73.04
251.585	118.1
251.801	93.52
252.018	5.46
252.235	103.76
252.451	27.99
252.668	-29.35
252.885	68.95
253.102	32.08
253.318	-17.07
253.535	-70.31
253.752	-6.83
253.968	-58.03
254.185	44.37
254.401	42.32
254.618	44.37
254.835	54.61
255.051	52.56
255.268	46.42
255.484	52.56
255.701	-6.83
255.917	-10.92
256.134	-21.16
256.351	44.37
256.567	5.46
256.784	38.23
257	30.04
257.217	44.37
257.433	36.18
257.65	1.37
257.866	68.95
258.082	-17.07
258.299	5.46
258.515	38.23
258.732	48.47
258.948	32.08
259.165	36.18
259.381	38.23
259.597	-45.74
259.814	60.76
260.03	15.7
260.246	-10.92
260.463	-12.97
260.679	42.32
260.895	-2.73
261.112	52.56
261.328	19.8
261.544	-10.92
261.761	62.8
261.977	62.8
262.193	32.08
262.409	105.81
262.626	32.08
262.842	7.51
263.058	11.61
263.274	27.99
263.49	-10.92
263.707	19.8
263.923	-12.97
264.139	71
264.355	21.84
264.571	68.95
264.787	71
265.004	77.14
265.22	40.28
265.436	68.95
265.652	-10.92
265.868	-10.92
266.084	36.18
266.3	36.18
266.516	-35.5
266.732	15.7
266.948	89.43
267.164	-4.78
267.38	52.56
267.596	68.95
267.812	109.91
268.028	7.51
268.244	19.8
268.46	27.99
268.676	19.8
268.892	40.28
269.108	-33.45
269.324	-8.87
269.54	-19.11
269.756	44.37
269.972	9.56
270.188	15.7
270.403	19.8
270.619	44.37
270.835	58.71
271.051	-68.27
271.267	54.61
271.483	56.66
271.698	54.61
271.914	36.18
272.13	101.72
272.346	93.52
272.562	25.94
272.777	71
272.993	19.8
273.209	5.46
273.425	-10.92
273.64	44.37
273.856	52.56
274.072	52.56
274.287	36.18
274.503	44.37
274.719	-0.68
274.934	15.7
275.15	60.76
275.366	71
275.581	7.51
275.797	25.94
276.012	34.13
276.228	3.41
276.444	58.71
276.659	54.61
276.875	-33.45
277.09	7.51
277.306	73.04
277.521	27.99
277.737	13.65
277.952	54.61
278.168	38.23
278.383	60.76
278.599	21.84
278.814	93.52
279.03	15.7
279.245	66.9
279.461	34.13
279.676	44.37
279.892	5.46
280.107	52.56
280.322	11.61
280.538	38.23
280.753	15.7
280.969	40.28
281.184	81.24
281.399	116.05
281.615	32.08
281.83	60.76
282.045	-0.68
282.26	19.8
282.476	7.51
282.691	120.15
282.906	21.84
283.122	-10.92
283.337	40.28
283.552	48.47
283.767	-49.83
283.983	73.04
284.198	40.28
284.413	27.99
284.628	-62.12
284.843	52.56
285.058	11.61
285.274	23.89
285.489	30.04
285.704	52.56
285.919	-12.97
286.134	-37.55
286.349	-0.68
286.564	13.65
286.779	34.13
286.995	-21.16
287.21	62.8
287.425	-2.73
287.64	-21.16
287.855	68.95
288.07	40.28
288.285	85.33
288.5	79.19
288.715	109.91
288.93	9.56
289.145	-21.16
289.36	3.41
289.575	27.99
289.79	85.33
290.004	38.23
290.219	62.8
290.434	5.46
290.649	27.99
290.864	36.18
291.079	44.37
291.294	48.47
291.509	38.23
291.724	32.08
291.938	-2.73
292.153	50.52
292.368	13.65
292.583	93.52
292.798	5.46
293.012	-4.78
293.227	44.37
293.442	27.99
293.657	93.52
293.871	85.33
294.086	118.1
294.301	27.99
294.516	60.76
294.73	52.56
294.945	-37.55
295.16	-21.16
295.374	60.76
295.589	99.67
295.804	9.56
296.018	81.24
296.233	-6.83
296.447	15.7
296.662	-39.59
296.877	75.09
297.091	64.85
297.306	52.56
297.52	99.67
297.735	146.77
297.949	91.48
298.164	-23.21
298.378	-31.4
298.593	11.61
298.807	-4.78
299.022	46.42
299.236	134.48
299.451	-0.68
299.665	-0.68
299.88	19.8
300.094	46.42
300.309	-12.97
300.523	126.29
300.737	11.61
300.952	-37.55
301.166	71
301.381	17.75
301.595	25.94
301.809	-21.16
302.024	-6.83
302.238	64.85
302.452	62.8
302.667	32.08
302.881	44.37
303.095	-37.55
303.309	-35.5
303.524	1.37
303.738	-29.35
303.952	5.46
304.166	1.37
304.381	19.8
304.595	77.14
304.809	-37.55
305.023	40.28
305.237	52.56
305.452	40.28
305.666	-45.74
305.88	44.37
306.094	40.28
306.308	62.8
306.522	56.66
306.736	27.99
306.95	-29.35
307.164	-31.4
307.379	19.8
307.593	103.76
307.807	89.43
308.021	44.37
308.235	-29.35
308.449	-10.92
308.663	-6.83
308.877	64.85
309.091	46.42
309.305	77.14
309.519	-51.88
309.733	11.61
309.947	-8.87
310.161	44.37
310.374	5.46
310.588	66.9
310.802	7.51
311.016	-25.26
311.23	66.9
311.444	-45.74
311.658	89.43
311.872	54.61
312.085	132.44
312.299	81.24
312.513	68.95
312.727	60.76
312.941	44.37
313.154	85.33
313.368	3.41
313.582	7.51
313.796	64.85
314.009	11.61
314.223	105.81
314.437	44.37
314.651	11.61
314.864	44.37
315.078	-21.16
315.292	-21.16
315.505	-0.68
315.719	64.85
315.933	-8.87
316.146	-19.11
316.36	-45.74
316.573	85.33
316.787	54.61
317.001	44.37
317.214	5.46
317.428	93.52
317.641	64.85
317.855	54.61
318.068	85.33
318.282	27.99
318.495	109.91
318.709	77.14
318.922	40.28
319.136	87.38
319.349	21.84
319.563	-19.11
319.776	38.23
319.99	-19.11
320.203	105.81
320.417	48.47
320.63	-74.41
320.843	32.08
321.057	7.51
321.27	52.56
321.483	126.29
321.697	68.95
321.91	27.99
322.124	52.56
322.337	81.24
322.55	68.95
322.763	52.56
322.977	5.46
323.19	27.99
323.403	36.18
323.617	19.8
323.83	25.94
324.043	-8.87
324.256	122.2
324.469	-27.31
324.683	42.32
324.896	3.41
325.109	7.51
325.322	-27.31
325.535	66.9
325.748	15.7
325.962	30.04
326.175	60.76
326.388	36.18
326.601	-47.79
326.814	46.42
327.027	7.51
327.24	167.25
327.453	-4.78
327.666	15.7
327.879	62.8
328.092	66.9
328.305	27.99
328.518	52.56
328.731	19.8
328.944	11.61
329.157	40.28
329.37	36.18
329.583	-10.92
329.796	46.42
330.009	30.04
330.222	32.08
330.435	-10.92
330.648	73.04
330.861	27.99
331.073	46.42
331.286	15.7
331.499	-29.35
331.712	13.65
331.925	95.57
332.138	79.19
332.35	40.28
332.563	5.46
332.776	19.8
332.989	36.18
333.202	52.56
333.414	-35.5
333.627	50.52
333.84	40.28
334.053	99.67
334.265	30.04
334.478	23.89
334.691	52.56
334.903	105.81
335.116	-21.16
335.329	109.91
335.541	97.62
335.754	3.41
335.966	-0.68
336.179	44.37
336.392	-0.68
336.604	101.72
336.817	-31.4
337.029	101.72
337.242	11.61
337.454	68.95
337.667	-35.5
337.88	48.47
338.092	85.33
338.305	15.7
338.517	-31.4
338.729	15.7
338.942	77.14
339.154	19.8
339.367	32.08
339.579	38.23
339.792	-19.11
340.004	56.66
340.217	56.66
340.429	66.9
340.641	27.99
340.854	-19.11
341.066	46.42
341.278	60.76
341.491	138.58
341.703	81.24
341.915	44.37
342.128	52.56
342.34	54.61
342.552	52.56
342.764	-31.4
342.977	15.7
343.189	68.95
343.401	-29.35
343.613	-19.11
343.826	32.08
344.038	-12.97
344.25	91.48
344.462	5.46
344.674	60.76
344.886	11.61
345.099	60.76
345.311	-29.35
345.523	46.42
345.735	-21.16
345.947	54.61
346.159	25.94
346.371	40.28
346.583	25.94
346.795	73.04
347.007	-37.55
347.219	75.09
347.431	-19.11
347.643	146.77
347.855	-4.78
348.067	7.51
348.279	17.75
348.491	93.52
348.703	44.37
348.915	50.52
349.127	-17.07
349.339	134.48
349.551	23.89
349.763	30.04
349.975	54.61
350.187	23.89
350.399	101.72
350.61	52.56
350.822	36.18
351.034	54.61
351.246	19.8
351.458	27.99
351.669	85.33
351.881	27.99
352.093	62.8
352.305	11.61
352.517	77.14
352.728	79.19
352.94	21.84
353.152	93.52
353.363	-12.97
353.575	93.52
353.787	77.14
353.999	75.09
354.21	89.43
354.422	-27.31
354.633	-19.11
354.845	23.89
355.057	25.94
355.268	-17.07
355.48	58.71
355.692	25.94
355.903	15.7
356.115	19.8
356.326	-76.46
356.538	56.66
356.749	36.18
356.961	38.23
357.172	27.99
357.384	-2.73
357.595	58.71
357.807	50.52
358.018	52.56
358.23	36.18
358.441	109.91
358.653	46.42
358.864	-12.97
359.075	68.95
359.287	42.32
359.498	64.85
359.709	-25.26
359.921	30.04
360.132	38.23
360.344	3.41
360.555	-8.87
360.766	89.43
360.977	40.28
361.189	36.18
361.4	25.94
361.611	-4.78
361.823	52.56
362.034	68.95
362.245	-33.45
362.456	25.94
362.667	71
362.879	68.95
363.09	5.46
363.301	99.67
363.512	101.72
363.723	-12.97
363.935	50.52
364.146	128.34
364.357	-12.97
364.568	34.13
364.779	-0.68
364.99	21.84
365.201	3.41
365.412	64.85
365.623	-68.27
365.834	101.72
366.045	32.08
366.256	75.09
366.467	87.38
366.678	44.37
366.889	52.56
367.1	85.33
367.311	48.47
367.522	48.47
367.733	60.76
367.944	81.24
368.155	1.37
368.366	93.52
368.577	64.85
368.788	103.76
368.999	-41.64
369.209	-35.5
369.42	200.02
369.631	71
369.842	50.52
370.053	-2.73
370.264	68.95
370.474	68.95
370.685	64.85
370.896	54.61
371.107	44.37
371.317	71
371.528	91.48
371.739	77.14
371.95	44.37
372.16	3.41
372.371	-35.5
372.582	-19.11
372.792	13.65
373.003	-29.35
373.214	52.56
373.424	103.76
373.635	56.66
373.846	107.86
374.056	-4.78
374.267	36.18
374.477	25.94
374.688	-0.68
374.898	48.47
375.109	19.8
375.319	-23.21
375.53	81.24
375.74	19.8
375.951	85.33
376.161	62.8
376.372	48.47
376.582	-29.35
376.793	85.33
377.003	62.8
377.214	32.08
377.424	56.66
377.635	85.33
377.845	56.66
378.055	36.18
378.266	15.7
378.476	23.89
378.686	52.56
378.897	73.04
379.107	52.56
379.317	64.85
379.528	19.8
379.738	5.46
379.948	-19.11
380.158	38.23
380.369	62.8
380.579	60.76
380.789	87.38
380.999	64.85
381.21	7.51
381.42	89.43
381.63	5.46
381.84	81.24
382.05	40.28
382.261	120.15
382.471	52.56
382.681	79.19
382.891	79.19
383.101	11.61
383.311	32.08
383.521	42.32
383.731	68.95
383.941	30.04
384.151	25.94
384.361	-33.45
384.571	64.85
384.781	60.76
384.991	27.99
385.201	54.61
385.411	32.08
385.621	66.9
385.831	44.37
386.041	56.66
386.251	27.99
386.461	52.56
386.671	56.66
386.881	68.95
387.091	109.91
387.301	89.43
387.511	85.33
387.72	95.57
387.93	42.32
388.14	7.51
388.35	-58.03
388.56	87.38
388.769	56.66
388.979	11.61
389.189	5.46
389.399	64.85
389.609	146.77
389.818	73.04
390.028	81.24
390.238	105.81
390.447	11.61
390.657	79.19
390.867	89.43
391.076	-31.4
391.286	36.18
391.496	44.37
391.705	77.14
391.915	52.56
392.125	114
392.334	56.66
392.544	50.52
392.753	103.76
392.963	-2.73
393.172	34.13
393.382	54.61
393.591	71
393.801	93.52
394.01	68.95
394.22	60.76
394.429	60.76
394.639	50.52
394.848	11.61
395.058	68.95
395.267	99.67
395.477	27.99
395.686	142.68
395.895	81.24
396.105	136.53
396.314	87.38
396.524	62.8
396.733	77.14
396.942	109.91
397.152	146.77
397.361	27.99
397.57	48.47
397.78	62.8
397.989	114
398.198	150.87
398.407	101.72
398.617	54.61
398.826	54.61
399.035	-29.35
399.244	79.19
399.453	32.08
399.663	120.15
399.872	130.39
400.081	111.96
400.29	120.15
400.499	103.76
400.708	89.43
400.917	71
401.127	38.23
401.336	73.04
401.545	56.66
401.754	93.52
401.963	103.76
402.172	38.23
402.381	148.82
402.59	93.52
402.799	167.25
403.008	77.14
403.217	81.24
403.426	107.86
403.635	146.77
403.844	83.28
404.053	118.1
404.262	52.56
404.471	154.96
404.68	126.29
404.888	79.19
405.097	95.57
405.306	134.48
405.515	116.05
405.724	118.1
405.933	116.05
406.142	216.4
406.35	109.91
406.559	218.45
406.768	163.15
406.977	175.44
407.185	169.3
407.394	183.63
407.603	97.62
407.812	118.1
408.02	228.69
408.229	218.45
408.438	159.06
408.646	195.92
408.855	232.79
409.064	175.44
409.272	122.2
409.481	247.12
409.69	148.82
409.898	230.74
410.107	261.46
410.315	316.75
410.524	224.59
410.733	267.6
410.941	326.99
411.15	302.42
411.358	253.27
411.567	341.33
411.775	349.52
411.984	232.79
412.192	404.82
412.401	363.86
412.609	335.18
412.818	388.43
413.026	439.63
413.234	472.4
413.443	456.01
413.651	396.62
413.86	519.5
414.068	486.73
414.276	466.25
414.485	447.82
414.693	486.73
414.901	546.12
415.11	593.23
415.318	617.8
415.526	568.65
415.734	580.94
415.943	652.62
416.151	652.62
416.359	619.85
416.567	695.63
416.776	699.72
416.984	802.12
417.192	834.89
417.4	875.85
417.608	712.01
417.817	890.18
418.025	931.14
418.233	1074.5
418.441	974.15
418.649	1023.3
418.857	1013.06
419.065	1064.26
419.273	998.73
419.481	1086.79
419.689	1088.84
419.897	1201.47
420.105	1150.28
420.313	1183.04
420.521	1314.11
420.729	1314.11
420.937	1404.22
421.145	1430.85
421.353	1518.91
421.561	1602.88
421.769	1494.33
421.977	1606.97
422.185	1611.07
422.393	1707.32
422.601	1822.01
422.809	1824.06
423.017	1797.43
423.224	1979.7
423.432	2010.42
423.64	1994.04
423.848	2182.45
424.056	2192.69
424.263	2233.65
424.471	2209.08
424.679	2370.87
424.887	2522.41
425.094	2571.57
425.302	2518.32
425.51	2596.14
425.718	2786.6
425.925	2686.25
426.133	2970.92
426.341	2985.26
426.548	3243.3
426.756	3210.53
426.964	3259.68
427.171	3472.67
427.379	3509.54
427.586	3523.87
427.794	3632.41
428.001	3777.82
428.209	3902.75
428.417	3865.88
428.624	4173.08
428.832	4205.85
429.039	4189.46
429.247	4070.68
429.454	4640.01
429.662	4910.35
429.869	4578.58
430.076	4723.98
430.284	4723.98
430.491	5022.98
430.699	5201.16
430.906	5094.66
431.114	5348.61
431.321	5340.42
431.528	5475.59
431.736	6026.49
431.943	6149.37
432.15	6112.5
432.358	6104.31
432.565	6419.7
432.772	6368.5
432.979	6714.61
433.187	6755.57
433.394	6927.6
433.601	7390.44
433.808	7355.62
434.016	7273.7
434.223	7490.79
434.43	8271.06
434.637	7873.76
434.844	8375.51
435.052	8455.38
435.259	8522.96
435.466	8408.28
435.673	8592.59
435.88	9256.14
436.087	9655.49
436.294	9460.93
436.501	9651.39
436.708	9526.47
436.915	9952.45
437.122	10251.45
437.329	10407.09
437.537	10558.64
437.743	10718.39
437.95	10765.49
438.157	11293.86
438.364	11582.63
438.571	11660.45
438.778	11740.32
438.985	12903.57
439.192	12403.86
439.399	12645.52
439.606	12340.38
439.813	13175.95
440.02	14019.71
440.227	13485.19
440.433	13534.34
440.64	14044.29
440.847	13743.24
441.054	14218.36
441.261	15170.67
441.467	14871.67
441.674	15244.4
441.881	15598.7
442.088	15705.19
442.294	15559.78
442.501	16254.05
442.708	16387.16
442.914	17011.79
443.121	17425.48
443.328	17531.98
443.534	18623.55
443.741	18082.88
443.948	17876.04
444.154	19139.63
444.361	19098.67
444.568	19203.12
444.774	18979.89
444.981	19287.09
445.187	19924.01
445.394	20882.45
445.6	20603.93
445.807	22672.38
446.013	21451.79
446.22	22262.79
446.426	22543.36
446.633	23211
446.839	24034.28
447.046	22772.73
447.252	23749.61
447.459	24013.8
447.665	23792.62
447.871	25029.59
448.078	26078.15
448.284	25039.83
448.491	25615.31
448.697	26903.48
448.903	27364.28
449.11	27497.39
449.316	27061.18
449.522	27544.5
449.728	28347.3
449.935	28527.52
450.141	28265.38
450.347	28908.44
450.553	28312.49
450.76	28324.77
450.966	29631.38
451.172	29068.19
451.378	30159.75
451.584	29604.75
451.791	30073.74
451.997	30034.83
452.203	30665.6
452.409	30706.56
452.615	30253.96
452.821	29098.91
453.027	29356.95
453.233	30808.96
453.44	29512.59
453.646	29940.62
453.852	29916.04
454.058	30382.98
454.264	29225.88
454.47	30055.31
454.676	29860.75
454.882	30548.87
455.088	27798.45
455.294	28316.58
455.5	28849.05
455.705	29105.05
455.911	28191.66
456.117	27474.87
456.323	27294.64
456.529	25820.11
456.735	26942.39
456.941	26258.37
457.147	25844.68
457.352	25226.2
457.558	24792.03
457.764	25109.46
457.97	24458.21
458.176	24136.68
458.381	23825.39
458.587	22807.55
458.793	23090.17
458.999	21482.51
459.204	23297.01
459.41	22631.42
459.616	21242.9
459.821	21173.27
460.027	20923.41
460.233	20694.04
460.438	19807.27
460.644	19887.14
460.85	18922.55
461.055	18369.6
461.261	18801.72
461.466	17441.87
461.672	16856.15
461.878	18005.06
462.083	16755.8
462.289	16503.9
462.494	16518.23
462.7	15742.05
462.905	15395.95
463.111	15801.44
463.316	15764.58
463.522	15373.42
463.727	15510.63
463.932	15512.68
464.138	15271.02
464.343	15180.91
464.549	14920.82
464.754	15422.57
464.959	15152.24
465.165	14785.65
465.37	14523.51
465.575	14189.69
465.781	14574.71
465.986	14781.56
466.191	14279.8
466.397	13745.28
466.602	13540.49
466.807	14056.57
467.012	13773.96
467.218	13907.07
467.423	13616.26
467.628	13851.78
467.833	14388.35
468.038	13585.54
468.244	13280.39
468.449	13843.59
468.654	13374.6
468.859	13307.02
469.064	13374.6
469.269	12735.63
469.474	12954.77
469.679	13178
469.885	12717.2
470.09	12934.29
470.295	12846.23
470.5	12715.16
470.705	12596.37
470.91	12295.32
471.115	12323.99
471.32	12356.76
471.525	12369.05
471.73	12029.09
471.935	12061.85
472.139	11420.84
472.344	11791.52
472.549	11424.93
472.754	11469.99
472.959	11359.4
473.164	11312.3
473.369	10892.46
473.574	11281.58
473.778	11058.35
473.983	10982.57
474.188	10986.67
474.393	10759.35
474.598	10634.42
474.802	10407.09
475.007	10507.44
475.212	10505.4
475.417	10097.85
475.621	10075.32
475.826	10239.16
476.031	10101.95
476.235	9802.94
476.44	9997.5
476.645	9874.62
476.849	9809.09
477.054	9581.76
477.259	9424.07
477.463	9632.96
477.668	9209.03
477.872	9460.93
478.077	9157.83
478.282	9030.86
478.486	8834.25
478.691	9039.05
478.895	9030.86
479.1	8826.06
479.304	8795.34
479.509	8555.73
479.713	8654.03
479.918	8781.01
480.122	8404.18
480.326	8621.27
480.531	8694.99
480.735	8307.93
480.94	8197.34
481.144	8617.17
481.348	8123.61
481.553	8461.52
481.757	8088.79
481.961	8031.45
482.166	8332.5
482.37	8211.67
482.574	8017.11
482.778	8092.89
482.983	8357.08
483.187	8293.59
483.391	8189.14
483.595	8211.67
483.8	8035.55
484.004	8088.79
484.208	8156.38
484.412	8213.72
484.616	8189.14
484.821	8146.14
485.025	7750.88
485.229	8178.9
485.433	8125.66
485.637	8223.96
485.841	8092.89
486.045	8168.66
486.249	8043.74
486.453	8205.53
486.657	7941.34
486.861	8361.17
487.065	7875.81
487.269	8019.16
487.473	8000.73
487.677	8254.68
487.881	8211.67
488.085	8197.34
488.289	8170.71
488.493	8148.18
488.697	8279.25
488.901	8258.78
489.105	8115.42
489.309	8252.63
489.512	8352.98
489.716	8318.17
489.92	8293.59
490.124	8381.65
490.328	8420.56
490.531	8334.55
490.735	8412.37
490.939	8414.42
491.143	8608.98
491.346	8283.35
491.55	8713.42
491.754	8443.09
491.958	8596.69
492.161	8584.4
492.365	8797.39
492.569	8551.63
492.772	8778.96
492.976	8844.49
493.18	8758.48
493.383	8821.97
493.587	8961.23
493.79	9131.21
493.994	8912.08
494.197	8965.32
494.401	9209.03
494.605	9116.87
494.808	9536.71
495.012	9415.88
495.215	9311.43
495.419	9598.15
495.622	9649.35
495.825	9751.74
496.029	9594.05
496.232	9843.9
496.436	9716.93
496.639	10241.21
496.843	10011.84
497.046	10136.76
497.249	10335.42
497.453	10339.51
497.656	10628.28
497.859	10650.8
498.063	10773.68
498.266	11119.79
498.469	11039.92
498.673	11076.78
498.876	11199.66
499.079	11234.47
499.282	11424.93
499.485	11543.72
499.689	11703.46
499.892	11781.28
500.095	11857.06
500.298	12201.12
500.501	12078.24
500.705	12461.21
500.908	12291.23
501.111	12534.93
501.314	12817.55
501.517	12889.23
501.72	13077.65
501.923	12903.57
502.126	13309.07
502.329	13634.69
502.532	13751.43
502.735	13784.19
502.938	14093.44
503.141	13978.75
503.344	14437.5
503.547	14505.08
503.75	14711.92
503.953	14933.11
504.156	14967.92
504.359	15121.52
504.562	15113.33
504.765	15639.65
504.968	15719.53
505.17	15942.75
505.373	16211.04
505.576	16249.95
505.779	16424.03
505.982	16510.04
506.185	17009.75
506.387	17093.71
506.59	17134.67
506.793	17529.93
506.996	17579.08
507.198	18238.53
507.401	17888.32
507.604	18158.66
507.807	18844.73
508.009	18492.48
508.212	18846.77
508.415	19119.15
508.617	19221.55
508.82	19377.2
509.022	19381.29
509.225	19731.5
509.428	20153.38
509.63	20296.74
509.833	20208.67
510.035	20911.13
510.238	20882.45
510.44	21079.06
510.643	21365.78
510.845	21695.5
511.048	21482.51
511.25	21797.9
511.453	21894.15
511.655	22948.86
511.858	22641.66
512.06	22584.32
512.262	23022.58
512.465	23217.14
512.667	23473.14
512.87	23981.03
513.072	23823.34
513.274	24554.46
513.477	24292.32
513.679	24749.02
513.881	25258.96
514.084	25119.7
514.286	25254.87
514.488	25326.55
514.69	26282.95
514.893	26260.42
515.095	26407.87
515.297	26577.86
515.499	26723.26
515.701	27323.32
515.904	27552.69
516.106	27671.47
516.308	28128.17
516.51	28208.04
516.712	28287.91
516.914	28572.58
517.116	28969.88
517.318	29307.8
517.52	29234.07
517.722	29168.54
517.925	30108.55
518.127	30292.87
518.329	30464.9
518.531	30253.96
518.733	30919.55
518.935	30997.37
519.136	31411.06
519.338	31726.45
519.54	31834.99
519.742	32156.52
519.944	32191.34
520.146	32883.55
520.348	32848.74
520.55	33276.76
520.752	33151.84
520.954	34038.61
521.155	33782.61
521.357	34370.38
521.559	34487.11
521.761	34808.64
521.963	34997.06
522.164	35457.85
522.366	35547.96
522.568	35701.56
522.77	35857.2
522.971	36266.8
523.173	36064.05
523.375	36074.29
523.576	36361
523.778	36281.13
523.98	36971.3
524.181	37319.45
524.383	37370.65
524.584	37702.42
524.786	37665.56
524.988	37739.29
525.189	38105.87
525.391	38179.6
525.592	38615.82
525.794	38681.35
525.995	38953.73
526.197	38671.11
526.398	39136
526.6	39133.95
526.801	39465.72
527.003	39824.12
527.204	39924.47
527.406	40073.97
527.607	39744.25
527.808	40647.4
528.01	39760.63
528.211	40033.01
528.412	40907.49
528.614	40606.44
528.815	40803.05
529.016	41122.53
529.218	40714.98
529.419	40846.05
529.62	40698.6
529.822	40792.81
530.023	41376.48
530.224	41214.69
530.425	41310.94
530.626	41054.95
530.828	41138.91
531.029	42058.45
531.23	41521.88
531.431	41439.96
531.632	41732.82
531.833	42207.95
532.035	41765.59
532.236	41667.29
532.437	41968.34
532.638	41900.76
532.839	42037.97
533.04	41867.99
533.241	41351.9
533.442	42721.99
533.643	41921.24
533.844	42236.62
534.045	42296.02
534.246	41917.14
534.447	41972.44
534.648	42066.64
534.849	42250.96
535.05	42203.86
535.251	42506.96
535.451	42279.63
535.652	42144.47
535.853	42187.47
536.054	42259.15
536.255	42302.16
536.456	41913.05
536.657	42683.08
536.857	42238.67
537.058	41937.62
537.259	42662.6
537.46	42484.43
537.66	42406.61
537.861	42130.13
538.062	42230.48
538.263	42431.18
538.463	41861.85
538.664	42128.08
538.865	42408.65
539.065	42765
539.266	41986.77
539.466	42670.79
539.667	41851.61
539.868	42654.41
540.068	42427.09
540.269	41997.01
540.469	42605.26
540.67	42207.95
540.87	42339.02
541.071	42220.24
541.271	42662.6
541.472	42357.46
541.672	42066.64
541.873	42373.84
542.073	41833.17
542.274	42537.68
542.474	42177.23
542.675	42169.04
542.875	42166.99
543.075	42453.71
543.276	41679.58
543.476	42271.44
543.676	42132.18
543.877	42277.58
544.077	42359.5
544.277	42097.36
544.478	42218.19
544.678	42347.22
544.878	41919.19
545.078	42031.83
545.279	41870.04
545.479	42087.12
545.679	42269.39
545.879	42132.18
546.079	41882.33
546.28	42074.84
546.48	41919.19
546.68	42025.68
546.88	42203.86
547.08	41923.29
547.28	41911
547.48	41947.86
547.68	41966.29
547.88	41929.43
548.081	42533.58
548.281	41788.12
548.481	41847.51
548.681	42351.31
548.881	41968.34
549.081	41849.56
549.28	41992.92
549.48	42349.26
549.68	41884.37
549.88	41943.77
550.08	41812.7
550.28	42193.62
550.48	41816.79
550.68	42083.03
550.88	41595.61
551.08	41679.58
551.279	41894.61
551.479	41366.24
551.679	41841.37
551.879	41804.5
552.079	42177.23
552.278	41741.02
552.478	42193.62
552.678	41841.37
552.878	42105.55
553.077	41505.5
553.277	41521.88
553.477	42025.68
553.676	41407.2
553.876	41538.27
554.076	41251.55
554.275	41632.47
554.475	41056.99
554.674	41753.3
554.874	41427.68
555.074	41169.63
555.273	41634.52
555.473	41646.81
555.672	41179.87
555.872	41413.34
556.071	41374.43
556.271	41558.75
556.47	41034.47
556.67	40848.1
556.869	41087.71
557.068	41536.22
557.268	40968.93
557.467	40970.98
557.667	40669.93
557.866	41028.32
558.065	41034.47
558.265	40739.56
558.464	40764.14
558.663	41214.69
558.863	40278.77
559.062	41032.42
559.261	40690.41
559.461	41153.25
559.66	40315.63
559.859	40712.94
560.058	40280.81
560.258	40528.62
560.457	40114.93
560.656	40649.45
560.855	40116.98
561.054	40377.07
561.253	40092.4
561.453	40383.21
561.652	40385.26
561.851	40387.31
562.05	39635.7
562.249	39658.23
562.448	40123.12
562.647	39795.45
562.846	39699.19
563.045	39963.38
563.244	39627.51
563.443	40209.14
563.642	39404.28
563.841	39674.62
564.04	39283.45
564.239	39987.96
564.438	39199.49
564.637	39385.85
564.836	39672.57
565.035	39240.45
565.234	39138.05
565.432	38984.45
565.631	38845.19
565.83	39459.58
566.029	39191.3
566.228	38873.86
566.427	39084.8
566.625	39033.6
566.824	38431.5
567.023	38591.24
567.222	37804.82
567.42	38935.3
567.619	38597.38
567.818	38091.54
568.016	37862.16
568.215	38525.71
568.414	37991.19
568.612	38462.22
568.811	37919.51
569.01	38001.43
569.208	37896.98
569.407	37794.58
569.605	37188.38
569.804	38015.76
570.002	37450.52
570.201	38083.34
570.4	37077.79
570.598	37120.8
570.797	37085.98
570.995	37479.19
571.193	36606.76
571.392	37630.74
571.59	36559.66
571.789	36784.93
571.987	37038.88
572.186	36623.14
572.384	36490.02
572.582	36481.83
572.781	36569.9
572.979	36012.85
573.177	36662.05
573.376	36234.03
573.574	35965.74
573.772	36176.69
573.971	35656.5
574.169	35812.15
574.367	35961.65
574.565	35986.22
574.763	35748.66
574.962	35423.03
575.16	35105.6
575.358	35023.68
575.556	34945.86
575.754	35330.87
575.952	35197.76
576.151	35402.55
576.349	34585.41
576.547	34863.94
576.745	34745.16
576.943	34812.74
577.141	34620.23
577.339	34782.02
577.537	34284.36
577.735	34388.81
577.933	34186.06
578.131	34364.23
578.329	34104.14
578.527	33647.44
578.725	34167.63
578.923	34263.88
579.121	33639.25
579.319	33798.99
579.516	33846.1
579.714	33536.85
579.912	33465.17
580.11	33753.94
580.308	33571.67
580.506	33434.46
580.704	32934.75
580.901	33061.72
581.099	33536.85
581.297	32842.59
581.495	32553.83
581.692	32727.91
581.89	32629.6
582.088	32547.68
582.285	32531.3
582.483	32912.22
582.681	32404.33
582.878	32349.03
583.076	31970.16
583.274	32389.99
583.471	31597.43
583.669	31968.11
583.866	31671.15
584.064	31978.35
584.262	31452.02
584.459	31818.61
584.657	31376.25
584.854	31724.4
585.052	31087.48
585.249	31366.01
585.447	31304.57
585.644	31122.3
585.841	31179.64
586.039	31331.19
586.236	30808.96
586.434	30585.73
586.631	30909.31
586.828	30624.64
587.026	30608.26
587.223	30301.06
587.42	30430.08
587.618	30780.29
587.815	30299.01
588.012	30114.7
588.21	30135.18
588.407	30206.86
588.604	29668.24
588.801	29533.07
588.999	29873.04
589.196	29686.67
589.393	29387.67
589.59	29531.03
589.787	29635.47
589.984	28914.59
590.182	28834.72
590.379	29158.3
590.576	28992.41
590.773	28961.69
590.97	28713.89
591.167	28908.44
591.364	28566.43
591.561	28765.09
591.758	28398.5
591.955	28717.98
592.152	28443.56
592.349	28253.09
592.546	28513.19
592.743	28312.49
592.94	28019.63
593.137	28310.44
593.334	27935.66
593.531	27771.82
593.727	27958.19
593.924	28015.53
594.121	27313.08
594.318	27724.72
594.515	27313.08
594.712	27450.29
594.908	27163.57
595.105	27341.75
595.302	27204.53
595.499	27268.02
595.696	26936.25
595.892	26856.38
596.089	27206.58
596.286	26958.78
596.482	26790.84
596.679	26692.54
596.876	26819.52
597.072	26592.19
597.269	26450.88
597.466	26254.28
597.662	26450.88
597.859	26241.99
598.055	26221.51
598.252	26080.2
598.448	26084.3
598.645	25625.55
598.841	25805.77
599.038	25699.28
599.234	25678.8
599.431	25474
599.627	25398.23
599.824	25441.23
600.02	25349.07
600.217	25068.5
600.413	24824.79
600.609	25209.81
600.806	25197.52
601.002	25074.65
601.198	24787.93
601.395	24669.15
601.591	24773.6
601.787	24771.55
601.984	24529.89
602.18	24617.95
602.376	24400.86
602.572	24505.31
602.769	24206.31
602.965	24224.74
603.161	24282.08
603.357	24263.65
603.553	24214.5
603.75	23776.23
603.946	23970.79
604.142	23708.65
604.338	23245.81
604.534	23718.89
604.73	23262.19
604.926	23432.18
605.122	23561.2
605.318	23383.02
605.514	23262.19
605.71	23014.39
605.906	23247.86
606.102	23227.38
606.298	22957.05
606.494	23149.56
606.69	22815.74
606.886	22752.25
607.082	22805.5
607.278	22811.64
607.474	22627.32
607.67	22580.22
607.866	22264.83
608.062	22729.72
608.257	22211.59
608.453	22518.78
608.649	22531.07
608.845	22012.93
609.041	22189.06
609.236	22486.01
609.432	22115.33
609.628	22092.8
609.824	22080.52
610.019	21832.71
610.215	22244.35
610.411	22033.41
610.606	21801.99
610.802	21752.84
610.998	21666.83
611.193	21892.1
611.389	21498.89
611.584	21601.29
611.78	21281.81
611.976	21580.81
612.171	21459.98
612.367	21519.37
612.562	21353.49
612.758	20966.42
612.953	21062.68
613.149	21570.57
613.344	20909.08
613.539	21312.53
613.735	20984.85
613.93	21011.48
614.126	20749.34
614.321	21034
614.517	20812.82
614.712	20591.64
614.907	20737.05
615.103	20780.06
615.298	20323.36
615.493	20878.36
615.688	20335.65
615.884	21081.11
616.079	20507.68
616.274	20479
616.47	20263.97
616.665	20284.45
616.86	20415.52
617.055	20177.95
617.25	20147.23
617.445	20249.63
617.641	20067.36
617.836	20163.62
618.031	19840.04
618.226	20253.73
618.421	19784.74
618.616	20229.15
618.811	19469.36
619.006	19825.7
619.201	19293.23
619.396	19921.96
619.591	19156.02
619.786	19397.68
619.981	19248.18
620.176	19153.97
620.371	18854.97
620.566	19307.57
620.761	18988.08
620.956	19170.35
621.151	18641.98
621.346	18766.9
621.541	18670.65
621.735	18783.29
621.93	18187.33
622.125	18410.56
622.32	18054.21
622.515	18265.15
622.709	17925.19
622.904	17947.72
623.099	17771.59
623.294	17857.6
623.488	17738.82
623.683	17509.45
623.878	17292.37
624.072	17542.22
624.267	17724.49
624.462	17427.53
624.656	17101.9
624.851	17288.27
625.046	17011.79
625.24	16976.98
625.435	16854.1
625.629	16856.15
625.824	16677.97
626.018	16624.73
626.213	16231.52
626.407	16299.1
626.602	16116.83
626.796	16350.3
626.991	16137.31
627.185	16120.93
627.38	15864.93
627.574	15682.66
627.768	15602.79
627.963	15471.72
628.157	15443.05
628.352	15471.72
628.546	15277.16
628.74	15400.04
628.935	15430.76
629.129	15285.36
629.323	15033.46
629.517	15111.28
629.712	14994.54
629.906	14902.39
630.1	14484.6
630.294	14812.28
630.489	14642.29
630.683	14763.12
630.877	14519.42
631.071	14326.91
631.265	14414.97
631.459	14269.56
631.653	14124.16
631.848	14103.68
632.042	13991.04
632.236	14265.47
632.43	13575.3
632.624	13929.6
632.818	13976.7
633.012	13749.38
633.206	13569.16
633.4	13603.97
633.594	13417.61
633.788	13153.42
633.982	13544.58
634.176	13208.72
634.369	13071.5
634.563	13122.7
634.757	13280.39
634.951	13032.59
635.145	13116.56
635.339	13001.87
635.533	12844.18
635.726	12807.31
635.92	12674.2
636.114	12561.56
636.308	12430.49
636.501	12514.45
636.695	12375.19
636.889	12364.95
637.083	12209.31
637.276	12178.59
637.47	12176.54
637.664	11986.08
637.857	11990.17
638.051	11988.13
638.244	11865.25
638.438	11484.33
638.632	11820.19
638.825	11453.61
639.019	11492.52
639.212	11383.98
639.406	11545.77
639.599	11398.31
639.793	11320.49
639.986	11252.91
640.18	11265.19
640.373	11275.43
640.567	10902.7
640.76	11275.43
640.954	10710.19
641.147	10912.94
641.34	10759.35
641.534	10824.88
641.727	10669.23
641.92	10681.52
642.114	10665.14
642.307	10677.43
642.5	10456.25
642.694	10327.22
642.887	10259.64
643.08	10452.15
643.273	10194.11
643.467	10218.68
643.66	10204.35
643.853	9884.86
644.046	9960.64
644.239	10187.96
644.432	9708.74
644.626	9809.09
644.819	9841.86
645.012	9512.13
645.205	9882.81
645.398	9766.08
645.591	9520.32
645.784	9426.12
645.977	9417.93
646.17	9280.71
646.363	9317.58
646.556	9213.13
646.749	9213.13
646.942	9354.44
647.135	9016.52
647.328	9034.96
647.521	9055.44
647.714	8895.69
647.907	9086.15
648.099	8803.53
648.292	8903.89
648.485	8774.86
648.678	8789.2
648.871	8836.3
649.064	8662.23
649.256	8670.42
649.449	8432.85
649.642	8420.56
649.835	8459.48
650.027	8477.91
650.22	8273.11
650.413	8340.69
650.605	8230.1
650.798	8414.42
650.991	7955.68
651.183	8262.87
651.376	7914.72
651.568	7957.72
651.761	7804.13
651.954	7922.91
652.146	7814.37
652.339	7773.41
652.531	7783.65
652.724	7677.15
652.916	7572.71
653.109	7568.61
653.301	7605.47
653.494	7605.47
653.686	7425.25
653.879	7570.66
654.071	7521.51
654.263	7335.14
654.456	7402.72
654.648	7392.48
654.84	7156.97
655.033	7136.49
655.225	7179.5
655.417	7036.14
655.61	7179.5
655.802	7050.47
655.994	7064.81
656.186	6929.64
656.379	6958.32
656.571	7021.8
656.763	6743.28
656.955	6943.98
657.148	6769.9
657.34	6814.96
657.532	6466.8
657.724	6679.79
657.916	6647.02
658.108	6601.97
658.3	6620.4
658.492	6690.03
658.684	6450.42
658.876	6374.64
659.068	6376.69
659.26	6343.92
659.452	6315.25
659.644	6249.72
659.836	6257.91
660.028	6276.34
660.22	6116.6
660.412	6038.78
660.604	6108.41
660.796	6102.26
660.988	5963
661.18	6073.59
661.372	5901.56
661.563	5934.33
661.755	5813.5
661.947	5836.03
662.139	5901.56
662.331	5846.27
662.522	5760.25
662.714	5733.63
662.906	5713.15
663.097	5559.55
663.289	5625.09
663.481	5606.66
663.673	5586.18
663.864	5430.53
664.056	5346.56
664.247	5471.49
664.439	5385.48
664.631	5526.78
664.822	5379.33
665.014	5180.68
665.205	5414.15
665.397	5340.42
665.588	5231.88
665.78	5168.39
665.971	5014.79
666.163	5123.34
666.354	5127.43
666.546	4955.4
666.737	4967.69
666.929	4893.96
667.12	4865.29
667.311	4918.54
667.503	4846.86
667.694	4799.76
667.885	4805.9
668.077	4941.07
668.268	4863.24
668.459	4699.41
668.651	4660.49
668.842	4697.36
669.033	4674.83
669.224	4521.23
669.416	4752.65
669.607	4640.01
669.798	4586.77
669.989	4631.82
670.18	4517.14
670.371	4525.33
670.563	4394.26
670.754	4582.67
670.945	4410.64
671.136	4361.49
671.327	4283.67
671.518	4484.37
671.709	4195.61
671.9	4347.15
672.091	4384.02
672.282	4187.41
672.473	4128.02
672.664	4302.1
672.855	4238.61
673.046	4279.57
673.237	4117.78
673.428	4199.7
673.619	4351.25
673.809	4148.5
674	4246.8
674.191	4195.61
674.382	4054.3
674.573	4082.97
674.764	4001.05
674.954	4056.34
675.145	4066.58
675.336	3855.64
675.527	3974.42
675.717	3943.71
675.908	3978.52
676.099	3923.23
676.289	3939.61
676.48	3988.76
676.671	3853.59
676.861	3724.57
677.052	3790.11
677.243	3763.48
677.433	3884.31
677.624	3816.73
677.814	3702.04
678.005	3824.92
678.195	3763.48
678.386	3581.21
678.576	3673.37
678.767	3665.18
678.957	3693.85
679.148	3687.71
679.338	3599.65
679.529	3667.23
679.719	3622.17
679.909	3681.57
680.1	3656.99
680.29	3693.85
680.481	3558.69
680.671	3599.65
680.861	3573.02
681.052	3573.02
681.242	3552.54
681.432	3700
681.622	3616.03
681.813	3431.71
682.003	3517.73
682.193	3484.96
682.383	3628.32
682.573	3575.07
682.764	3575.07
682.954	3542.3
683.144	3386.66
683.334	3472.67
683.524	3532.06
683.714	3452.19
683.904	3501.34
684.094	3296.55
684.284	3441.95
684.474	3394.85
684.664	3468.58
684.854	3384.61
685.044	3378.47
685.234	3429.66
685.424	3296.55
685.614	3378.47
685.804	3255.59
685.994	3255.59
686.184	3398.95
686.374	3435.81
686.564	3271.97
686.753	3306.79
686.943	3263.78
687.133	3323.17
687.323	3259.68
687.513	3288.36
687.702	3269.92
687.892	3212.58
688.082	3235.11
688.272	3271.97
688.461	3245.35
688.651	3314.98
688.841	3132.71
689.03	3116.33
689.22	3085.61
689.41	3036.45
689.599	3079.46
689.789	3083.56
689.979	3288.36
690.168	3093.8
690.358	3169.57
690.547	2970.92
690.737	3222.82
690.926	3157.29
691.116	2956.58
691.305	3124.52
691.495	3087.65
691.684	3093.8
691.874	3048.74
692.063	3058.98
692.252	2944.3
692.442	3075.37
692.631	3038.5
692.82	2975.02
693.01	2909.48
693.199	2944.3
693.388	2882.86
693.578	2891.05
693.767	2891.05
693.956	2833.71
694.146	2784.55
694.335	2968.87
694.524	2813.23
694.713	2874.67
694.902	2839.85
695.092	2927.91
695.281	2889
695.47	2845.99
695.659	2913.58
695.848	2821.42
696.037	2913.58
696.226	2854.19
696.415	2774.31
696.604	2860.33
696.793	2776.36
696.982	2749.74
697.171	2817.32
697.36	2764.08
697.549	2815.27
697.738	2729.26
697.927	2757.93
698.116	2755.88
698.305	2649.39
698.494	2759.98
698.683	2596.14
698.872	2700.59
699.061	2700.59
699.25	2682.16
699.438	2645.29
699.627	2680.11
699.816	2762.03
700.005	2665.77
700.193	2688.3
700.382	2856.23
700.571	2653.48
700.76	2569.52
700.948	2712.88
701.137	2772.27
701.326	2733.36
701.514	2628.91
701.703	2651.44
701.892	2706.73
702.08	2676.01
702.269	2510.13
702.457	2641.2
702.646	2485.55
702.834	2641.2
703.023	2460.98
703.212	2673.96
703.4	2534.7
703.589	2563.37
703.777	2553.13
703.965	2436.4
704.154	2559.28
704.342	2544.94
704.531	2620.72
704.719	2440.5
704.907	2592.05
705.096	2567.47
705.284	2553.13
705.472	2495.79
705.661	2479.41
705.849	2561.33
706.037	2555.18
706.226	2497.84
706.414	2524.46
706.602	2456.88
706.79	2483.5
706.979	2381.1
707.167	2463.02
707.355	2358.58
707.543	2471.22
707.731	2430.26
707.919	2481.46
708.107	2501.94
708.296	2313.52
708.484	2426.16
708.672	2428.21
708.86	2354.48
709.048	2362.67
709.236	2395.44
709.424	2420.02
709.612	2395.44
709.8	2258.23
709.988	2346.29
710.176	2446.64
710.364	2395.44
710.551	2368.82
710.739	2325.81
710.927	2420.02
711.115	2264.37
711.303	2299.19
711.491	2327.86
711.679	2340.15
711.866	2473.26
712.054	2377.01
712.242	2243.89
712.43	2415.92
712.617	2391.34
712.805	2233.65
712.993	2327.86
713.181	2114.87
713.368	2290.99
713.556	2321.71
713.744	2299.19
713.931	2342.19
714.119	2295.09
714.306	2233.65
714.494	2336.05
714.682	2116.92
714.869	2293.04
715.057	2252.08
715.244	2176.31
715.432	2385.2
715.619	2207.03
715.807	2168.12
715.994	2319.67
716.182	2112.82
716.369	2178.36
716.556	2231.6
716.744	2221.36
716.931	2071.86
717.119	2176.31
717.306	2129.2
717.493	2151.73
717.681	2141.49
717.868	2239.8
718.055	2200.88
718.242	2184.5
718.43	2215.22
718.617	2145.59
718.804	2116.92
718.991	2168.12
719.179	2207.03
719.366	2075.96
719.553	2159.92
719.74	2121.01
719.927	2051.38
720.114	2112.82
720.301	2116.92
720.488	2051.38
720.676	2090.29
720.863	2090.29
721.05	2010.42
721.237	1981.75
721.424	2200.88
721.611	2137.4
721.798	2014.52
721.985	1998.13
722.172	1989.94
722.358	2071.86
722.545	1994.04
722.732	1996.09
722.919	2108.73
723.106	1985.85
723.293	1989.94
723.48	2035
723.667	2010.42
723.853	1967.42
724.04	2002.23
724.227	2000.18
724.414	2022.71
724.6	1948.98
724.787	2028.85
724.974	2129.2
725.161	1901.88
725.347	1987.89
725.534	2032.95
725.72	1928.5
725.907	1963.32
726.094	1936.7
726.28	1985.85
726.467	2047.29
726.653	1994.04
726.84	1979.7
727.027	2075.96
727.213	1932.6
727.4	2024.76
727.586	1994.04
727.773	1957.18
727.959	1873.21
728.145	1908.02
728.332	1920.31
728.518	1809.72
728.705	1998.13
728.891	1899.83
729.077	1836.35
729.264	1912.12
729.45	1897.78
729.636	1928.5
729.823	1895.74
730.009	1856.82
730.195	1879.35
730.382	1955.13
730.568	1834.3
730.754	1807.67
730.94	1807.67
731.126	1881.4
731.313	1822.01
731.499	1887.54
731.685	1920.31
731.871	1805.63
732.057	1838.39
732.243	1789.24
732.429	1809.72
732.615	1842.49
732.801	1858.87
732.987	1813.82
733.173	1940.79
733.359	1815.87
733.545	1807.67
733.731	1783.1
733.917	1912.12
734.103	1838.39
734.289	1748.28
734.475	1797.43
734.661	1889.59
734.847	1817.91
735.033	1789.24
735.219	1787.19
735.404	1756.47
735.59	1746.23
735.776	1719.61
735.962	1908.02
736.148	1858.87
736.333	1807.67
736.519	1756.47
736.705	1690.94
736.89	1674.56
737.076	1731.9
737.262	1670.46
737.447	1813.82
737.633	1660.22
737.819	1795.39
738.004	1779
738.19	1660.22
738.375	1639.74
738.561	1713.47
738.747	1731.9
738.932	1649.98
739.118	1828.15
739.303	1758.52
739.489	1668.41
739.674	1686.84
739.859	1711.42
740.045	1621.31
740.23	1699.13
740.416	1606.97
740.601	1735.99
740.786	1711.42
740.972	1617.21
741.157	1615.16
741.342	1463.61
741.528	1559.87
741.713	1625.4
741.898	1561.92
742.084	1674.56
742.269	1576.25
742.454	1576.25
742.639	1563.97
742.824	1576.25
743.01	1545.53
743.195	1568.06
743.38	1580.35
743.565	1518.91
743.75	1428.8
743.935	1523.01
744.12	1609.02
744.305	1533.25
744.49	1391.94
744.675	1561.92
744.86	1496.38
745.045	1447.23
745.23	1463.61
745.415	1506.62
745.6	1498.43
745.785	1527.1
745.97	1553.73
746.155	1514.81
746.34	1400.13
746.525	1359.17
746.71	1420.61
746.895	1398.08
747.079	1465.66
747.264	1482.05
747.449	1428.8
747.634	1412.42
747.819	1365.31
748.003	1324.35
748.188	1355.07
748.373	1322.31
748.557	1310.02
748.742	1338.69
748.927	1396.03
749.111	1336.64
749.296	1330.5
749.481	1320.26
749.665	1328.45
749.85	1213.76
750.034	1283.39
750.219	1258.82
750.404	1264.96
750.588	1256.77
750.773	1201.47
750.957	1299.78
751.141	1158.47
751.326	1193.28
751.51	1191.24
751.695	1215.81
751.879	1170.76
752.064	1185.09
752.248	1197.38
752.432	1203.52
752.617	1101.12
752.801	1183.04
752.985	1199.43
753.17	1219.91
753.354	1181
753.538	1154.37
753.722	1045.83
753.907	1160.52
754.091	1103.17
754.275	1166.66
754.459	1154.37
754.643	1088.84
754.828	1060.17
755.012	1097.03
755.196	1070.4
755.38	1031.49
755.564	957.77
755.748	1097.03
755.932	1107.27
756.116	1080.64
756.3	968.01
756.484	1060.17
756.668	933.19
756.852	1021.25
757.036	961.86
757.22	994.63
757.404	941.38
757.588	998.73
757.772	912.71
757.956	978.25
758.14	1015.11
758.323	933.19
758.507	970.05
758.691	994.63
758.875	972.1
759.059	984.39
759.242	959.81
759.426	841.03
759.61	986.44
759.794	896.33
759.977	884.04
760.161	925
760.345	916.81
760.528	881.99
760.712	894.28
760.895	859.46
761.079	871.75
761.263	830.79
761.446	769.35
761.63	929.1
761.813	871.75
761.997	798.03
762.18	810.31
762.364	847.18
762.547	836.94
762.731	781.64
762.914	769.35
763.098	849.22
763.281	886.09
763.464	783.69
763.648	824.65
763.831	773.45
764.015	769.35
764.198	855.37
764.381	795.98
764.564	822.6
764.748	755.02
764.931	800.07
765.114	765.26
765.297	836.94
765.481	798.03
765.664	810.31
765.847	701.77
766.03	650.57
766.213	728.39
766.397	838.98
766.58	775.5
766.763	814.41
766.946	666.96
767.129	683.34
767.312	722.25
767.495	638.28
767.678	714.06
767.861	734.54
768.044	736.59
768.227	707.91
768.41	685.39
768.593	781.64
768.776	718.15
768.959	759.11
769.142	800.07
769.324	683.34
769.507	623.95
769.69	736.59
769.873	652.62
770.056	781.64
770.239	683.34
770.421	732.49
770.604	699.72
770.787	662.86
770.97	726.35
771.152	628.04
771.335	712.01
771.518	695.63
771.7	707.91
771.883	724.3
772.066	626
772.248	605.52
772.431	701.77
772.613	683.34
772.796	644.43
772.978	666.96
773.161	765.26
773.343	675.15
773.526	646.48
773.708	533.84
773.891	605.52
774.073	570.7
774.256	623.95
774.438	759.11
774.621	601.42
774.803	652.62
774.985	589.13
775.168	585.04
775.35	601.42
775.532	650.57
775.715	466.25
775.897	531.79
776.079	593.23
776.261	550.22
776.444	580.94
776.626	531.79
776.808	542.03
776.99	539.98
777.173	585.04
777.355	527.69
777.537	529.74
777.719	515.41
777.901	533.84
778.083	572.75
778.265	513.36
778.447	517.45
778.629	480.59
778.811	539.98
778.993	480.59
779.175	564.56
779.357	585.04
779.539	544.08
779.721	525.65
779.903	503.12
780.085	503.12
780.267	478.54
780.449	505.17
780.631	519.5
780.812	560.46
780.994	513.36
781.176	482.64
781.358	490.83
781.54	443.73
781.721	466.25
781.903	494.93
782.085	423.25
782.267	511.31
782.448	396.62
782.63	437.58
782.812	429.39
782.993	404.82
783.175	503.12
783.357	408.91
783.538	394.58
783.72	363.86
783.901	408.91
784.083	431.44
784.264	415.05
784.446	326.99
784.627	347.47
784.809	447.82
784.99	388.43
785.172	406.86
785.353	437.58
785.535	355.66
785.716	324.94
785.897	396.62
786.079	314.7
786.26	324.94
786.441	392.53
786.623	263.51
786.804	324.94
786.985	335.18
787.167	396.62
787.348	388.43
787.529	300.37
787.71	324.94
787.891	349.52
788.073	322.9
788.254	349.52
788.435	335.18
788.616	294.22
788.797	259.41
788.978	234.83
789.159	322.9
789.34	445.77
789.522	292.18
789.703	304.46
789.884	314.7
790.065	322.9
790.246	406.86
790.427	159.06
790.607	357.71
790.788	294.22
790.969	306.51
791.15	296.27
791.331	312.66
791.512	308.56
791.693	318.8
791.874	292.18
792.054	410.96
792.235	351.57
792.416	298.32
792.597	269.65
792.778	306.51
792.958	208.21
793.139	290.13
793.32	273.75
793.5	251.22
793.681	331.09
793.862	206.16
794.042	240.98
794.223	202.07
794.404	267.6
794.584	243.03
794.765	228.69
794.945	275.79
795.126	200.02
795.306	251.22
795.487	308.56
795.667	290.13
795.848	318.8
796.028	257.36
796.209	269.65
796.389	228.69
796.57	245.07
796.75	169.3
796.93	189.78
797.111	173.39
797.291	232.79
797.471	234.83
797.652	200.02
797.832	206.16
798.012	179.54
798.192	232.79
798.373	226.64
798.553	191.83
798.733	261.46
798.913	175.44
799.093	154.96
799.274	177.49
799.454	212.31
799.634	243.03
799.814	238.93
799.994	214.35
800.174	212.31
800.354	212.31
800.534	171.35
800.714	224.59
800.894	232.79
801.074	183.63
801.254	142.68
801.434	152.91
801.614	271.7
801.794	128.34
801.974	785.74
802.154	240.98
802.334	212.31
802.514	122.2
802.693	230.74
802.873	187.73
803.053	292.18
803.233	208.21
803.413	206.16
803.592	261.46
803.772	167.25
803.952	97.62
804.131	142.68
804.311	200.02
804.491	224.59
804.67	167.25
804.85	128.34
805.03	257.36
805.209	220.5
805.389	232.79
805.568	171.35
805.748	128.34
805.928	240.98
806.107	81.24
806.287	148.82
806.466	167.25
806.646	118.1
806.825	175.44
807.004	163.15
807.184	249.17
807.363	154.96
807.543	150.87
807.722	208.21
807.901	152.91
808.081	218.45
808.26	85.33
808.439	142.68
808.619	163.15
808.798	134.48
808.977	175.44
809.156	109.91
809.336	179.54
809.515	245.07
809.694	163.15
809.873	138.58
810.052	200.02
810.231	150.87
810.411	169.3
810.59	142.68
810.769	183.63
810.948	142.68
811.127	114
811.306	109.91
811.485	52.56
811.664	114
811.843	124.24
812.022	101.72
812.201	161.11
812.38	159.06
812.559	79.19
812.737	126.29
812.916	134.48
813.095	101.72
813.274	85.33
813.453	175.44
813.632	179.54
813.811	216.4
813.989	146.77
814.168	208.21
814.347	64.85
814.526	126.29
814.704	136.53
814.883	253.27
815.062	144.72
815.24	126.29
815.419	140.63
815.598	152.91
815.776	126.29
815.955	118.1
816.133	68.95
816.312	97.62
816.49	66.9
816.669	77.14
816.847	79.19
817.026	138.58
817.204	128.34
817.383	87.38
817.561	62.8
817.74	120.15
817.918	128.34
818.097	120.15
818.275	85.33
818.453	118.1
818.632	109.91
818.81	120.15
818.988	68.95
819.167	73.04
819.345	138.58
819.523	68.95
819.701	60.76
819.879	101.72
820.058	109.91
820.236	50.52
820.414	128.34
820.592	148.82
820.77	89.43
820.948	93.52
821.127	95.57
821.305	68.95
821.483	130.39
821.661	120.15
821.839	101.72
822.017	77.14
822.195	66.9
822.373	30.04
822.551	111.96
822.729	134.48
822.907	79.19
823.085	85.33
823.262	54.61
823.44	103.76
823.618	56.66
823.796	52.56
823.974	-23.21
824.152	54.61
824.329	19.8
824.507	105.81
824.685	95.57
824.863	95.57
825.04	52.56
825.218	142.68
825.396	52.56
825.574	91.48
825.751	19.8
825.929	111.96
826.107	44.37
826.284	159.06
826.462	58.71
826.639	103.76
826.817	-25.26
826.994	27.99
827.172	15.7
827.349	93.52
827.527	77.14
827.704	44.37
827.882	60.76
828.059	21.84
828.237	17.75
828.414	75.09
828.591	79.19
828.769	58.71
828.946	54.61
829.124	-0.68
829.301	118.1
829.478	81.24
829.655	50.52
829.833	64.85
830.01	7.51
830.187	101.72
830.364	52.56
830.542	27.99
830.719	85.33
830.896	77.14
831.073	52.56
831.25	85.33
831.427	109.91
831.604	128.34
831.782	46.42
831.959	-4.78
832.136	-60.07
832.313	52.56
832.49	77.14
832.667	120.15
832.844	66.9
833.021	107.86
833.198	105.81
833.374	48.47
833.551	38.23
833.728	-17.07
833.905	54.61
834.082	27.99
834.259	52.56
834.436	111.96
834.612	27.99
834.789	48.47
834.966	54.61
835.143	83.28
835.319	32.08
835.496	126.29
835.673	60.76
835.85	27.99
836.026	44.37
836.203	44.37
836.38	27.99
836.556	95.57
836.733	75.09
836.909	103.76
837.086	64.85
837.262	7.51
837.439	85.33
837.616	11.61
837.792	25.94
837.968	103.76
838.145	36.18
838.321	93.52
838.498	11.61
838.674	42.32
838.851	52.56
839.027	-17.07
839.203	19.8
839.38	56.66
839.556	34.13
839.732	19.8
839.909	52.56
840.085	56.66
840.261	46.42
840.437	5.46
840.614	64.85
840.79	3.41
840.966	126.29
841.142	21.84
841.318	-43.69
841.494	44.37
841.671	36.18
841.847	13.65
842.023	87.38
842.199	3.41
842.375	27.99
842.551	30.04
842.727	109.91
842.903	122.2
843.079	-27.31
843.255	126.29
843.431	34.13
843.607	-8.87
843.783	-76.46
843.959	71
844.134	81.24
844.31	105.81
844.486	-12.97
844.662	15.7
844.838	85.33
845.013	27.99
845.189	93.52
845.365	60.76
845.541	62.8
845.716	52.56
845.892	75.09
846.068	-27.31
846.244	48.47
846.419	-0.68
846.595	-23.21
846.77	56.66
846.946	77.14
847.122	-2.73
847.297	-27.31
847.473	30.04
847.648	23.89
847.824	27.99
847.999	-45.74
848.175	36.18
848.35	13.65
848.526	60.76
848.701	77.14
848.876	30.04
849.052	27.99
849.227	-19.11
849.403	40.28
849.578	48.47
849.753	34.13
849.929	64.85
850.104	11.61
850.279	44.37
850.454	19.8
850.63	54.61
850.805	68.95
850.98	-47.79
851.155	44.37
851.33	71
851.505	-27.31
851.681	-12.97
851.856	-4.78
852.031	48.47
852.206	27.99
852.381	40.28
852.556	-19.11
852.731	50.52
852.906	11.61
853.081	-10.92
853.256	19.8
853.431	64.85
853.606	34.13
853.781	-35.5
853.956	-12.97
854.131	52.56
854.305	19.8
854.48	17.75
854.655	-25.26
854.83	32.08
855.005	-21.16
855.18	62.8
855.354	15.7
855.529	56.66
855.704	-4.78
855.879	11.61
856.053	1.37
856.228	52.56
856.403	44.37
856.577	19.8
856.752	-4.78
856.926	-29.35
857.101	64.85
857.276	60.76
857.45	32.08
857.625	71
857.799	5.46
857.974	46.42
858.148	-25.26
858.323	56.66
858.497	-25.26
858.672	25.94
858.846	1.37
859.02	9.56
859.195	7.51
859.369	73.04
859.543	11.61
859.718	3.41
859.892	-10.92
860.066	-19.11
860.241	34.13
860.415	-10.92
860.589	19.8
860.763	40.28
860.938	27.99
861.112	3.41
861.286	1.37
861.46	-19.11
861.634	7.51
861.808	15.7
861.982	81.24
862.157	-31.4
862.331	60.76
862.505	-43.69
862.679	-10.92
862.853	46.42
863.027	34.13
863.201	54.61
863.375	-53.93
863.549	1.37
863.722	36.18
863.896	30.04
864.07	13.65
864.244	81.24
864.418	38.23
864.592	66.9
864.766	58.71
864.939	30.04
865.113	32.08
865.287	71
865.461	-45.74
865.634	-10.92
865.808	-74.41
865.982	52.56
866.156	30.04
866.329	-2.73
866.503	-33.45
866.676	60.76
866.85	-10.92
867.024	-0.68
867.197	15.7
867.371	17.75
867.544	40.28
867.718	-2.73
867.891	23.89
868.065	-8.87
868.238	19.8
868.412	27.99
868.585	-4.78
868.759	-12.97
868.932	-19.11
869.105	-19.11
869.279	-25.26
869.452	-12.97
869.625	21.84
869.799	-29.35
869.972	13.65
870.145	-12.97
870.319	27.99
870.492	15.7
870.665	52.56
870.838	-37.55
871.011	-68.27
871.185	52.56
871.358	27.99
871.531	30.04
871.704	-74.41
871.877	56.66
872.05	-41.64
872.223	-21.16
872.396	60.76
872.569	23.89
872.742	58.71
872.915	23.89
873.088	85.33
873.261	-12.97
873.434	-12.97
873.607	13.65
873.78	77.14
873.953	-43.69
874.126	21.84
874.299	-45.74
874.471	5.46
874.644	44.37
874.817	58.71
874.99	-8.87
875.163	5.46
875.335	36.18
875.508	44.37
875.681	52.56
875.853	-25.26
876.026	9.56
876.199	77.14
876.371	52.56
876.544	60.76
876.717	46.42
876.889	-70.31
877.062	19.8
877.234	-21.16
877.407	-21.16
877.579	9.56
877.752	-4.78
877.924	27.99
878.097	-10.92
878.269	38.23
878.442	1.37
878.614	23.89
878.786	56.66
878.959	40.28
879.131	50.52
879.303	3.41
879.476	21.84
879.648	23.89
879.82	13.65
879.993	-29.35
880.165	52.56
880.337	-33.45
880.509	27.99
880.681	-33.45
880.854	-21.16
881.026	-17.07
881.198	120.15
881.37	-4.78
881.542	23.89
881.714	3.41
881.886	3.41
882.058	-37.55
882.23	7.51
882.402	60.76
882.574	-4.78
882.746	38.23
882.918	36.18
883.09	52.56
883.262	-53.93
883.434	-8.87
883.606	-45.74
883.778	-15.02
883.95	-12.97
884.122	-45.74
884.293	-12.97
884.465	36.18
884.637	-2.73
884.809	38.23
884.98	-33.45
885.152	44.37
885.324	64.85
885.496	-27.31
885.667	-2.73
885.839	-55.98
886.011	89.43
886.182	-29.35
886.354	23.89
886.525	27.99
886.697	38.23
886.869	32.08
887.04	-12.97
887.212	13.65
887.383	77.14
887.555	11.61
887.726	30.04
887.897	-19.11
888.069	19.8
888.24	-0.68
888.412	27.99
888.583	13.65
888.754	73.04
888.926	-68.27
889.097	-33.45
889.268	-12.97
889.44	95.57
889.611	7.51
889.782	-15.02
889.953	-45.74
890.125	19.8
890.296	-49.83
890.467	19.8
890.638	-2.73
890.809	30.04
890.98	-58.03
891.151	34.13
891.323	3.41
891.494	-37.55
891.665	19.8
891.836	-45.74
892.007	36.18
892.178	46.42
892.349	3.41
892.52	-6.83
892.691	9.56
892.862	-12.97
893.032	-2.73
893.203	-27.31
893.374	13.65
893.545	15.7
893.716	79.19
893.887	-12.97
894.057	-49.83
894.228	13.65
894.399	52.56
894.57	25.94
894.74	32.08
894.911	-12.97
895.082	-17.07
895.253	-4.78
895.423	-4.78
895.594	40.28
895.764	21.84
895.935	-68.27
896.106	-62.12
896.276	-33.45
896.447	-37.55
896.617	-25.26
896.788	-25.26
896.958	-2.73
897.129	-62.12
897.299	-94.89
897.47	5.46
897.64	-4.78
897.81	-37.55
897.981	-10.92
898.151	56.66
898.322	-51.88
898.492	-2.73
898.662	9.56
898.832	-62.12
899.003	-21.16
899.173	-45.74
899.343	13.65
899.513	-37.55
