Data from USB4F104151__79__14-43-27-076.txt Node

Date: Thu Mar 13 14:43:27 EDT 2025
User: louis
Spectrometer: USB4F10415
Trigger mode: 4
Integration Time (sec): 2.000000E-2
Scans to average: 1
Electric dark correction enabled: true
Nonlinearity correction enabled: false
Boxcar width: 0
XAxis mode: Wavelengths
Number of Pixels in Spectrum: 3648
>>>>>Begin Spectral Data<<<<<
178.204	-162.13
178.424	-162.13
178.644	-162.13
178.864	-98.64
179.084	-104.79
179.304	1.71
179.524	46.76
179.744	1.71
179.964	-6.49
180.184	20.14
180.404	1.71
180.624	-39.25
180.844	13.99
181.064	-45.4
181.283	-55.64
181.503	-39.25
181.723	100.01
181.943	-14.68
182.163	77.48
182.383	20.14
182.602	59.05
182.822	63.15
183.042	-12.63
183.262	50.86
183.482	28.33
183.701	42.67
183.921	46.76
184.141	97.96
184.361	91.82
184.58	93.87
184.8	7.85
185.02	-29.01
185.239	38.57
185.459	34.47
185.679	50.86
185.898	1.71
186.118	1.71
186.338	20.14
186.557	-43.35
186.777	-12.63
186.997	75.43
187.216	-26.96
187.436	87.72
187.655	36.52
187.875	93.87
188.095	-31.06
188.314	5.8
188.534	50.86
188.753	5.8
188.973	22.19
189.192	134.82
189.412	44.71
189.631	-26.96
189.851	-8.53
190.07	108.2
190.29	20.14
190.509	63.15
190.729	-72.02
190.948	44.71
191.168	54.95
191.387	67.24
191.607	1.71
191.826	5.8
192.045	34.47
192.265	18.09
192.484	77.48
192.704	44.71
192.923	104.11
193.142	13.99
193.362	18.09
193.581	20.14
193.8	59.05
194.02	81.58
194.239	18.09
194.458	44.71
194.678	-20.82
194.897	71.34
195.116	-26.96
195.335	46.76
195.555	13.99
195.774	13.99
195.993	-26.96
196.212	-6.49
196.432	-10.58
196.651	61.1
196.87	-43.35
197.089	157.35
197.308	-0.34
197.528	106.15
197.747	-29.01
197.966	-2.39
198.185	52.91
198.404	-12.63
198.623	-31.06
198.842	116.39
199.062	40.62
199.281	91.82
199.5	34.47
199.719	24.23
199.938	114.34
200.157	24.23
200.376	57
200.595	128.68
200.814	116.39
201.033	-22.87
201.252	11.95
201.471	116.39
201.69	95.91
201.909	20.14
202.128	93.87
202.347	91.82
202.566	28.33
202.785	-14.68
203.004	18.09
203.223	79.53
203.442	-16.73
203.661	-18.77
203.879	81.58
204.098	24.23
204.317	30.38
204.536	3.75
204.755	20.14
204.974	50.86
205.193	28.33
205.411	91.82
205.63	52.91
205.849	54.95
206.068	54.95
206.287	-4.44
206.505	34.47
206.724	50.86
206.943	3.75
207.162	-26.96
207.381	44.71
207.599	-12.63
207.818	120.49
208.037	18.09
208.255	1.71
208.474	42.67
208.693	20.14
208.911	20.14
209.13	3.75
209.349	26.28
209.567	-61.78
209.786	116.39
210.005	71.34
210.223	-57.68
210.442	-12.63
210.661	54.95
210.879	-47.44
211.098	7.85
211.316	50.86
211.535	-14.68
211.753	50.86
211.972	50.86
212.191	-4.44
212.409	42.67
212.628	59.05
212.846	-51.54
213.065	63.15
213.283	100.01
213.502	28.33
213.72	-4.44
213.938	36.52
214.157	-20.82
214.375	52.91
214.594	5.8
214.812	18.09
215.031	-10.58
215.249	-47.44
215.467	46.76
215.686	26.28
215.904	26.28
216.122	9.9
216.341	75.43
216.559	9.9
216.778	50.86
216.996	36.52
217.214	1.71
217.432	-80.21
217.651	-2.39
217.869	1.71
218.087	83.63
218.306	50.86
218.524	85.67
218.742	18.09
218.96	42.67
219.179	44.71
219.397	50.86
219.615	69.29
219.833	26.28
220.051	-8.53
220.27	3.75
220.488	11.95
220.706	24.23
220.924	67.24
221.142	-18.77
221.36	22.19
221.578	1.71
221.796	63.15
222.015	-22.87
222.233	59.05
222.451	108.2
222.669	-33.11
222.887	140.97
223.105	-20.82
223.323	26.28
223.541	46.76
223.759	22.19
223.977	-14.68
224.195	24.23
224.413	30.38
224.631	67.24
224.849	28.33
225.067	65.19
225.285	-12.63
225.503	63.15
225.721	-51.54
225.939	52.91
226.157	-6.49
226.375	61.1
226.592	93.87
226.81	-18.77
227.028	52.91
227.246	67.24
227.464	-22.87
227.682	67.24
227.9	108.2
228.117	128.68
228.335	42.67
228.553	-4.44
228.771	-47.44
228.989	-14.68
229.206	34.47
229.424	-22.87
229.642	28.33
229.86	-8.53
230.077	-61.78
230.295	3.75
230.513	34.47
230.731	54.95
230.948	24.23
231.166	54.95
231.384	-76.12
231.601	-29.01
231.819	108.2
232.037	9.9
232.254	-4.44
232.472	59.05
232.689	36.52
232.907	63.15
233.125	-18.77
233.342	11.95
233.56	5.8
233.777	-2.39
233.995	67.24
234.213	87.72
234.43	69.29
234.648	9.9
234.865	38.57
235.083	-14.68
235.3	32.43
235.518	-10.58
235.735	79.53
235.953	79.53
236.17	11.95
236.388	36.52
236.605	48.81
236.822	95.91
237.04	108.2
237.257	-35.16
237.475	75.43
237.692	-14.68
237.909	-45.4
238.127	-4.44
238.344	87.72
238.562	79.53
238.779	65.19
238.996	95.91
239.214	83.63
239.431	59.05
239.648	30.38
239.865	75.43
240.083	16.04
240.3	20.14
240.517	-8.53
240.735	79.53
240.952	61.1
241.169	50.86
241.386	73.39
241.603	34.47
241.821	26.28
242.038	59.05
242.255	28.33
242.472	65.19
242.689	-22.87
242.907	67.24
243.124	9.9
243.341	22.19
243.558	71.34
243.775	42.67
243.992	-59.73
244.209	42.67
244.426	116.39
244.643	34.47
244.86	-16.73
245.078	100.01
245.295	9.9
245.512	44.71
245.729	-26.96
245.946	42.67
246.163	-0.34
246.38	28.33
246.597	34.47
246.814	20.14
247.031	106.15
247.248	9.9
247.464	13.99
247.681	61.1
247.898	42.67
248.115	22.19
248.332	13.99
248.549	59.05
248.766	44.71
248.983	46.76
249.2	18.09
249.417	75.43
249.633	40.62
249.85	50.86
250.067	11.95
250.284	46.76
250.501	11.95
250.717	-2.39
250.934	59.05
251.151	34.47
251.368	-33.11
251.585	9.9
251.801	9.9
252.018	-10.58
252.235	38.57
252.451	3.75
252.668	3.75
252.885	50.86
253.102	44.71
253.318	5.8
253.535	7.85
253.752	30.38
253.968	-55.64
254.185	28.33
254.401	26.28
254.618	-26.96
254.835	38.57
255.051	59.05
255.268	9.9
255.484	22.19
255.701	136.87
255.917	118.44
256.134	1.71
256.351	36.52
256.567	-2.39
256.784	30.38
257	-20.82
257.217	75.43
257.433	9.9
257.65	16.04
257.866	50.86
258.082	-20.82
258.299	136.87
258.515	1.71
258.732	-31.06
258.948	34.47
259.165	30.38
259.381	63.15
259.597	13.99
259.814	54.95
260.03	83.63
260.246	1.71
260.463	26.28
260.679	50.86
260.895	65.19
261.112	63.15
261.328	9.9
261.544	93.87
261.761	67.24
261.977	9.9
262.193	-6.49
262.409	100.01
262.626	3.75
262.842	114.34
263.058	3.75
263.274	75.43
263.49	-6.49
263.707	95.91
263.923	44.71
264.139	67.24
264.355	59.05
264.571	112.3
264.787	124.58
265.004	50.86
265.22	1.71
265.436	30.38
265.652	3.75
265.868	9.9
266.084	-4.44
266.3	79.53
266.516	61.1
266.732	1.71
266.948	38.57
267.164	34.47
267.38	65.19
267.596	42.67
267.812	63.15
268.028	26.28
268.244	-18.77
268.46	11.95
268.676	18.09
268.892	30.38
269.108	-45.4
269.324	-4.44
269.54	-18.77
269.756	83.63
269.972	-0.34
270.188	-6.49
270.403	-22.87
270.619	26.28
270.835	-26.96
271.051	9.9
271.267	-6.49
271.483	1.71
271.698	69.29
271.914	89.77
272.13	46.76
272.346	67.24
272.562	1.71
272.777	46.76
272.993	9.9
273.209	11.95
273.425	20.14
273.64	67.24
273.856	48.81
274.072	28.33
274.287	22.19
274.503	1.71
274.719	44.71
274.934	-18.77
275.15	26.28
275.366	28.33
275.581	-39.25
275.797	-4.44
276.012	-26.96
276.228	34.47
276.444	42.67
276.659	42.67
276.875	-26.96
277.09	22.19
277.306	54.95
277.521	87.72
277.737	13.99
277.952	93.87
278.168	11.95
278.383	93.87
278.599	50.86
278.814	108.2
279.03	44.71
279.245	46.76
279.461	5.8
279.676	52.91
279.892	-35.16
280.107	3.75
280.322	128.68
280.538	63.15
280.753	-18.77
280.969	44.71
281.184	-22.87
281.399	112.3
281.615	67.24
281.83	-2.39
282.045	20.14
282.26	42.67
282.476	112.3
282.691	71.34
282.906	100.01
283.122	3.75
283.337	-2.39
283.552	-22.87
283.767	1.71
283.983	-4.44
284.198	-61.78
284.413	3.75
284.628	46.76
284.843	118.44
285.058	67.24
285.274	48.81
285.489	18.09
285.704	28.33
285.919	3.75
286.134	-39.25
286.349	-37.2
286.564	-24.92
286.779	50.86
286.995	28.33
287.21	18.09
287.425	42.67
287.64	30.38
287.855	1.71
288.07	67.24
288.285	46.76
288.5	13.99
288.715	87.72
288.93	42.67
289.145	38.57
289.36	18.09
289.575	50.86
289.79	46.76
290.004	104.11
290.219	75.43
290.434	67.24
290.649	-6.49
290.864	67.24
291.079	52.91
291.294	46.76
291.509	26.28
291.724	71.34
291.938	93.87
292.153	-24.92
292.368	54.95
292.583	46.76
292.798	54.95
293.012	50.86
293.227	40.62
293.442	26.28
293.657	24.23
293.871	3.75
294.086	59.05
294.301	16.04
294.516	77.48
294.73	1.71
294.945	-61.78
295.16	-12.63
295.374	100.01
295.589	26.28
295.804	81.58
296.018	83.63
296.233	61.1
296.447	30.38
296.662	63.15
296.877	44.71
297.091	50.86
297.306	-2.39
297.52	36.52
297.735	-47.44
297.949	100.01
298.164	3.75
298.378	28.33
298.593	-20.82
298.807	-37.2
299.022	102.06
299.236	87.72
299.451	61.1
299.665	48.81
299.88	28.33
300.094	69.29
300.309	75.43
300.523	-12.63
300.737	11.95
300.952	34.47
301.166	67.24
301.381	-4.44
301.595	18.09
301.809	69.29
302.024	-31.06
302.238	44.71
302.452	36.52
302.667	-14.68
302.881	67.24
303.095	59.05
303.309	-20.82
303.524	30.38
303.738	-6.49
303.952	-2.39
304.166	34.47
304.381	18.09
304.595	9.9
304.809	-10.58
305.023	-39.25
305.237	91.82
305.452	63.15
305.666	73.39
305.88	52.91
306.094	42.67
306.308	140.97
306.522	18.09
306.736	118.44
306.95	63.15
307.164	26.28
307.379	28.33
307.593	112.3
307.807	-6.49
308.021	61.1
308.235	91.82
308.449	-10.58
308.663	40.62
308.877	124.58
309.091	-67.92
309.305	13.99
309.519	-63.83
309.733	9.9
309.947	13.99
310.161	26.28
310.374	26.28
310.588	81.58
310.802	30.38
311.016	65.19
311.23	124.58
311.444	26.28
311.658	-6.49
311.872	26.28
312.085	67.24
312.299	108.2
312.513	83.63
312.727	61.1
312.941	42.67
313.154	89.77
313.368	50.86
313.582	9.9
313.796	42.67
314.009	-18.77
314.223	-14.68
314.437	5.8
314.651	95.91
314.864	11.95
315.078	18.09
315.292	30.38
315.505	61.1
315.719	75.43
315.933	124.58
316.146	18.09
316.36	36.52
316.573	116.39
316.787	34.47
317.001	59.05
317.214	1.71
317.428	77.48
317.641	13.99
317.855	1.71
318.068	44.71
318.282	63.15
318.495	-22.87
318.709	128.68
318.922	63.15
319.136	112.3
319.349	128.68
319.563	-4.44
319.776	79.53
319.99	-14.68
320.203	20.14
320.417	71.34
320.63	57
320.843	42.67
321.057	18.09
321.27	5.8
321.483	36.52
321.697	59.05
321.91	13.99
322.124	42.67
322.337	9.9
322.55	42.67
322.763	44.71
322.977	81.58
323.19	-12.63
323.403	13.99
323.617	-26.96
323.83	50.86
324.043	22.19
324.256	57
324.469	-33.11
324.683	93.87
324.896	97.96
325.109	30.38
325.322	22.19
325.535	59.05
325.748	61.1
325.962	9.9
326.175	87.72
326.388	48.81
326.601	26.28
326.814	13.99
327.027	75.43
327.24	159.4
327.453	9.9
327.666	38.57
327.879	104.11
328.092	110.25
328.305	44.71
328.518	52.91
328.731	40.62
328.944	-8.53
329.157	50.86
329.37	71.34
329.583	83.63
329.796	100.01
330.009	-10.58
330.222	67.24
330.435	24.23
330.648	61.1
330.861	-37.2
331.073	59.05
331.286	85.67
331.499	-22.87
331.712	-72.02
331.925	67.24
332.138	34.47
332.35	63.15
332.563	-6.49
332.776	34.47
332.989	-18.77
333.202	83.63
333.414	18.09
333.627	52.91
333.84	22.19
334.053	-6.49
334.265	30.38
334.478	42.67
334.691	18.09
334.903	108.2
335.116	-4.44
335.329	1.71
335.541	3.75
335.754	104.11
335.966	1.71
336.179	100.01
336.392	79.53
336.604	61.1
336.817	77.48
337.029	57
337.242	20.14
337.454	61.1
337.667	9.9
337.88	97.96
338.092	65.19
338.305	26.28
338.517	42.67
338.729	30.38
338.942	87.72
339.154	36.52
339.367	-4.44
339.579	59.05
339.792	28.33
340.004	67.24
340.217	112.3
340.429	-2.39
340.641	67.24
340.854	85.67
341.066	3.75
341.278	93.87
341.491	1.71
341.703	-24.92
341.915	26.28
342.128	61.1
342.34	93.87
342.552	38.57
342.764	-6.49
342.977	77.48
343.189	-35.16
343.401	69.29
343.613	9.9
343.826	42.67
344.038	1.71
344.25	36.52
344.462	26.28
344.674	36.52
344.886	13.99
345.099	59.05
345.311	13.99
345.523	-10.58
345.735	-31.06
345.947	120.49
346.159	59.05
346.371	124.58
346.583	44.71
346.795	100.01
347.007	-18.77
347.219	59.05
347.431	28.33
347.643	59.05
347.855	36.52
348.067	75.43
348.279	22.19
348.491	61.1
348.703	83.63
348.915	5.8
349.127	9.9
349.339	-18.77
349.551	-4.44
349.763	91.82
349.975	54.95
350.187	145.06
350.399	9.9
350.61	32.43
350.822	79.53
351.034	18.09
351.246	20.14
351.458	28.33
351.669	1.71
351.881	30.38
352.093	34.47
352.305	106.15
352.517	77.48
352.728	95.91
352.94	67.24
353.152	116.39
353.363	9.9
353.575	-4.44
353.787	110.25
353.999	36.52
354.21	32.43
354.422	13.99
354.633	36.52
354.845	-14.68
355.057	59.05
355.268	61.1
355.48	34.47
355.692	-47.44
355.903	42.67
356.115	-102.74
356.326	36.52
356.538	100.01
356.749	18.09
356.961	112.3
357.172	52.91
357.384	50.86
357.595	67.24
357.807	-14.68
358.018	11.95
358.23	22.19
358.441	102.06
358.653	114.34
358.864	52.91
359.075	-39.25
359.287	30.38
359.498	5.8
359.709	9.9
359.921	67.24
360.132	-10.58
360.344	-61.78
360.555	11.95
360.766	-10.58
360.977	83.63
361.189	83.63
361.4	-39.25
361.611	42.67
361.823	34.47
362.034	-45.4
362.245	63.15
362.456	-4.44
362.667	77.48
362.879	54.95
363.09	1.71
363.301	44.71
363.512	20.14
363.723	-6.49
363.935	-31.06
364.146	50.86
364.357	18.09
364.568	63.15
364.779	-67.92
364.99	69.29
365.201	13.99
365.412	65.19
365.623	26.28
365.834	3.75
366.045	102.06
366.256	112.3
366.467	42.67
366.678	16.04
366.889	-47.44
367.1	1.71
367.311	130.73
367.522	93.87
367.733	3.75
367.944	65.19
368.155	75.43
368.366	42.67
368.577	108.2
368.788	91.82
368.999	3.75
369.209	61.1
369.42	108.2
369.631	77.48
369.842	63.15
370.053	61.1
370.264	5.8
370.474	83.63
370.685	3.75
370.896	40.62
371.107	71.34
371.317	52.91
371.528	13.99
371.739	118.44
371.95	38.57
372.16	61.1
372.371	-24.92
372.582	18.09
372.792	-12.63
373.003	75.43
373.214	7.85
373.424	104.11
373.635	22.19
373.846	124.58
374.056	5.8
374.267	-4.44
374.477	50.86
374.688	52.91
374.898	67.24
375.109	50.86
375.319	89.77
375.53	67.24
375.74	-12.63
375.951	-16.73
376.161	-59.73
376.372	112.3
376.582	44.71
376.793	134.82
377.003	-37.2
377.214	75.43
377.424	59.05
377.635	67.24
377.845	52.91
378.055	52.91
378.266	-47.44
378.476	46.76
378.686	46.76
378.897	77.48
379.107	42.67
379.317	85.67
379.528	34.47
379.738	93.87
379.948	67.24
380.158	85.67
380.369	5.8
380.579	57
380.789	108.2
380.999	87.72
381.21	38.57
381.42	114.34
381.63	59.05
381.84	122.54
382.05	38.57
382.261	18.09
382.471	11.95
382.681	59.05
382.891	108.2
383.101	63.15
383.311	9.9
383.521	59.05
383.731	118.44
383.941	87.72
384.151	102.06
384.361	50.86
384.571	81.58
384.781	102.06
384.991	67.24
385.201	132.78
385.411	81.58
385.621	57
385.831	26.28
386.041	100.01
386.251	75.43
386.461	79.53
386.671	63.15
386.881	28.33
387.091	40.62
387.301	46.76
387.511	63.15
387.72	67.24
387.93	38.57
388.14	69.29
388.35	-6.49
388.56	20.14
388.769	79.53
388.979	32.43
389.189	44.71
389.399	61.1
389.609	11.95
389.818	124.58
390.028	44.71
390.238	155.3
390.447	5.8
390.657	61.1
390.867	67.24
391.076	85.67
391.286	69.29
391.496	11.95
391.705	73.39
391.915	161.45
392.125	134.82
392.334	87.72
392.544	79.53
392.753	87.72
392.963	30.38
393.172	3.75
393.382	38.57
393.591	75.43
393.801	59.05
394.01	75.43
394.22	116.39
394.429	67.24
394.639	67.24
394.848	100.01
395.058	-0.34
395.267	102.06
395.477	46.76
395.686	116.39
395.895	75.43
396.105	153.26
396.314	48.81
396.524	93.87
396.733	108.2
396.942	126.63
397.152	48.81
397.361	175.78
397.57	50.86
397.78	100.01
397.989	71.34
398.198	151.21
398.407	42.67
398.617	161.45
398.826	52.91
399.035	63.15
399.244	175.78
399.453	83.63
399.663	59.05
399.872	140.97
400.081	95.91
400.29	214.7
400.499	108.2
400.708	112.3
400.917	102.06
401.127	153.26
401.336	18.09
401.545	134.82
401.754	198.31
401.963	102.06
402.172	22.19
402.381	67.24
402.59	132.78
402.799	124.58
403.008	206.5
403.217	93.87
403.426	136.87
403.635	110.25
403.844	104.11
404.053	87.72
404.262	95.91
404.471	206.5
404.68	126.63
404.888	175.78
405.097	81.58
405.306	124.58
405.515	214.7
405.724	77.48
405.933	202.41
406.142	153.26
406.35	136.87
406.559	239.27
406.768	116.39
406.977	239.27
407.185	181.93
407.394	235.18
407.603	239.27
407.812	263.85
408.02	190.12
408.229	218.79
408.438	259.75
408.646	183.98
408.855	218.79
409.064	214.7
409.272	200.36
409.481	298.66
409.69	202.41
409.898	226.98
410.107	329.38
410.315	300.71
410.524	284.33
410.733	345.77
410.941	284.33
411.15	446.12
411.358	356.01
411.567	468.64
411.775	313
411.984	427.68
412.192	366.25
412.401	437.92
412.609	513.7
412.818	439.97
413.026	454.31
413.234	458.4
413.443	503.46
413.651	452.26
413.86	456.36
414.068	579.23
414.276	579.23
414.485	534.18
414.693	642.72
414.901	616.1
415.11	648.86
415.318	685.73
415.526	663.2
415.734	726.69
415.943	779.93
416.151	798.37
416.359	839.33
416.567	845.47
416.776	747.17
416.984	820.89
417.192	911
417.4	896.67
417.608	878.24
417.817	919.2
418.025	1095.32
418.233	1078.94
418.441	986.78
418.649	1109.66
418.857	1193.62
419.065	1296.02
419.273	1212.06
419.481	1257.11
419.689	1347.22
419.897	1388.18
420.105	1466
420.313	1513.11
420.521	1492.63
420.729	1566.35
420.937	1566.35
421.145	1701.52
421.353	1742.48
421.561	1738.38
421.769	1877.65
421.977	1861.26
422.185	1762.96
422.393	1871.5
422.601	2156.17
422.809	2143.88
423.017	2180.75
423.224	2197.13
423.432	2213.51
423.64	2291.34
423.848	2598.53
424.056	2418.31
424.263	2631.3
424.471	2664.07
424.679	2717.31
424.887	2969.21
425.094	2983.55
425.302	2969.21
425.51	3010.17
425.718	3133.05
425.925	3208.83
426.133	3282.55
426.341	3475.06
426.548	3622.52
426.756	3556.98
426.964	3733.11
427.171	3841.65
427.379	4073.07
427.586	3896.94
427.794	4118.12
428.001	4388.46
428.209	4587.11
428.417	4568.68
428.624	4824.67
428.832	4736.61
429.039	4802.15
429.247	4687.46
429.454	5297.75
429.662	5455.45
429.869	5271.13
430.076	5576.28
430.284	5445.21
430.491	5746.26
430.699	5852.75
430.906	5867.09
431.114	6116.94
431.321	6461
431.528	6542.92
431.736	6778.44
431.943	7104.06
432.15	6909.51
432.358	7130.69
432.565	7333.43
432.772	7259.71
432.979	7712.31
433.187	7824.95
433.394	7718.45
433.601	8218.16
433.808	8547.88
434.016	8455.72
434.223	8664.61
434.43	9328.16
434.637	9014.82
434.844	9659.93
435.052	9801.24
435.259	9891.35
435.466	9834
435.673	9897.49
435.88	10464.78
436.087	11122.18
436.294	10679.82
436.501	10667.53
436.708	10749.45
436.915	11216.38
437.122	11701.75
437.329	11793.91
437.537	12123.63
437.743	12322.29
437.95	12242.42
438.157	12502.51
438.364	13372.89
438.571	13430.24
438.778	13395.42
438.985	14460.37
439.192	13954.52
439.399	14513.61
439.606	13925.85
439.813	14898.63
440.02	15766.97
440.227	15769.02
440.433	15037.89
440.64	15855.03
440.847	15562.17
441.054	16041.4
441.261	17081.77
441.467	16942.5
441.674	17321.38
441.881	17843.61
442.088	17880.47
442.294	17610.14
442.501	18212.24
442.708	18331.03
442.914	19111.3
443.121	19932.54
443.328	19463.55
443.534	20923.76
443.741	20184.44
443.948	19584.38
444.154	21400.93
444.361	21419.36
444.568	21273.96
444.774	21513.57
444.981	21599.59
445.187	22179.16
445.394	23428.42
445.6	23197
445.807	25109.8
446.013	24218.94
446.22	24483.13
446.426	25578.79
446.633	25689.38
446.839	26500.37
447.046	25269.55
447.252	26696.98
447.459	26828.05
447.665	26869.01
447.871	28007.68
448.078	29119.73
448.284	27614.47
448.491	28568.82
448.697	29672.68
448.903	30358.75
449.11	30332.12
449.316	29859.04
449.522	30225.63
449.728	31200.46
449.935	31282.38
450.141	31128.78
450.347	32234.69
450.553	31499.47
450.76	31548.62
450.966	32580.79
451.172	32126.14
451.378	33596.59
451.584	32449.72
451.791	33135.79
451.997	32990.39
452.203	33395.89
452.409	33739.94
452.615	33418.41
452.821	32529.59
453.027	31853.76
453.233	33414.32
453.44	32498.87
453.646	32933.04
453.852	32912.56
454.058	33563.82
454.264	32664.76
454.47	33017.01
454.676	32652.47
454.882	33369.26
455.088	30627.03
455.294	31067.34
455.5	31427.79
455.705	32128.19
455.911	30465.24
456.117	30270.68
456.323	29852.9
456.529	28308.73
456.735	29357.29
456.941	28695.8
457.147	27909.38
457.352	27499.78
457.558	27247.88
457.764	27514.12
457.97	26608.92
458.176	26268.95
458.381	26447.13
458.587	24640.82
458.793	24993.07
458.999	23690.56
459.204	25429.29
459.41	24624.43
459.616	22873.42
459.821	23283.02
460.027	23283.02
460.233	22426.96
460.438	21484.9
460.644	21697.89
460.85	20675.95
461.055	20370.8
461.261	20596.08
461.466	18734.48
461.672	18193.81
461.878	19699.07
462.083	18240.92
462.289	17769.88
462.494	17626.53
462.7	17118.63
462.905	16522.67
463.111	17227.17
463.316	17139.11
463.522	16543.15
463.727	16713.13
463.932	16645.55
464.138	16364.98
464.343	16639.4
464.549	16211.38
464.754	16674.22
464.959	16606.64
465.165	16399.79
465.37	15674.81
465.575	15386.05
465.781	15844.79
465.986	15945.14
466.191	15279.55
466.397	15064.52
466.602	14314.96
466.807	14919.11
467.012	14810.57
467.218	14712.27
467.423	14636.49
467.628	14923.21
467.833	15355.33
468.038	14902.73
468.244	14304.72
468.449	14902.73
468.654	14411.21
468.859	14562.76
469.064	14384.59
469.269	13563.36
469.474	13946.33
469.679	13897.17
469.885	13680.09
470.09	14050.77
470.295	13739.48
470.5	13473.25
470.705	13575.64
470.91	13346.27
471.115	13045.22
471.32	13338.08
471.525	13116.9
471.73	13041.12
471.935	12660.2
472.139	12297.71
472.344	12635.63
472.549	12371.44
472.754	12330.48
472.959	12125.68
473.164	11709.94
473.369	11795.96
473.574	12078.58
473.778	11951.6
473.983	11843.06
474.188	11922.93
474.393	11472.38
474.598	11425.28
474.802	11146.75
475.007	11052.55
475.212	11259.39
475.417	10870.28
475.621	10874.37
475.826	10786.31
476.031	10558.99
476.235	10423.82
476.44	10391.05
476.645	10311.18
476.849	10515.98
477.054	10368.52
477.259	10083.86
477.463	9891.35
477.668	10030.61
477.872	10102.29
478.077	9807.38
478.282	9508.38
478.486	9571.86
478.691	9401.88
478.895	9459.23
479.1	9246.24
479.304	9414.17
479.509	9174.56
479.713	9528.86
479.918	8920.61
480.122	8996.39
480.326	8953.38
480.531	9004.58
480.735	8736.29
480.94	8982.05
481.144	9070.11
481.348	8943.14
481.553	8730.15
481.757	8685.09
481.961	8838.69
482.166	8750.63
482.37	8764.96
482.574	8605.22
482.778	8621.61
482.983	8912.42
483.187	8629.8
483.391	8758.82
483.595	8799.78
483.8	8687.14
484.004	8750.63
484.208	8912.42
484.412	8599.08
484.616	8758.82
484.821	8701.48
485.025	8459.82
485.229	8707.62
485.433	8562.22
485.637	8537.64
485.841	8453.67
486.045	8652.33
486.249	8558.12
486.453	8476.2
486.657	8721.96
486.861	8543.78
487.065	8328.75
487.269	8574.5
487.473	8275.5
487.677	8810.02
487.881	8631.85
488.085	8533.54
488.289	8767.01
488.493	8609.32
488.697	8793.64
488.901	8730.15
489.105	8623.66
489.309	8807.97
489.512	8713.77
489.716	8865.32
489.92	8355.37
490.124	8564.26
490.328	8828.45
490.531	8678.95
490.735	8949.28
490.939	8801.83
491.143	8898.08
491.346	8881.7
491.55	9154.08
491.754	9039.39
491.958	9006.63
492.161	8922.66
492.365	9076.26
492.569	8918.56
492.772	9160.22
492.976	9057.82
493.18	9203.23
493.383	9401.88
493.587	9520.67
493.79	9326.11
493.994	9356.83
494.197	9614.87
494.401	9498.14
494.605	9430.55
494.808	9752.09
495.012	9741.85
495.215	9631.26
495.419	10012.18
495.622	9467.42
495.825	10124.82
496.029	9879.06
496.232	10046.99
496.436	10331.66
496.639	10419.72
496.843	10331.66
497.046	10470.92
497.249	10671.62
497.453	10526.22
497.656	10737.16
497.859	10599.94
498.063	10978.82
498.266	11105.79
498.469	10964.48
498.673	10987.01
498.876	11382.27
499.079	11474.43
499.282	11343.36
499.485	12058.1
499.689	11816.44
499.892	11838.97
500.095	12021.24
500.298	12471.79
500.501	12121.59
500.705	12553.71
500.908	12590.57
501.111	12740.07
501.314	12805.61
501.517	12834.28
501.72	13067.75
501.923	13123.04
502.126	13561.31
502.329	13483.48
502.532	13706.71
502.735	13956.57
502.938	14081.49
503.141	14040.53
503.344	14267.86
503.547	14288.34
503.75	14755.27
503.953	14728.65
504.156	14718.41
504.359	14890.44
504.562	15082.95
504.765	15463.87
504.968	15504.83
505.17	15619.52
505.373	15775.16
505.576	15928.76
505.779	16065.97
505.982	16283.06
506.185	16608.69
506.387	16639.4
506.59	16797.1
506.793	17337.76
506.996	16698.8
507.198	17446.3
507.401	17507.74
507.604	17720.73
507.807	17964.44
508.009	18019.74
508.212	18068.89
508.415	18488.72
508.617	18507.15
508.82	18546.06
509.022	18720.14
509.225	19225.99
509.428	19101.06
509.63	19117.45
509.833	19674.49
510.035	20352.37
510.238	19828.09
510.44	20229.49
510.643	20632.94
510.845	20610.42
511.048	20299.12
511.25	21134.7
511.453	20847.98
511.655	22064.47
511.858	21548.39
512.06	21894.49
512.262	21953.88
512.465	22113.63
512.667	22289.75
512.87	22701.39
513.072	22670.67
513.274	22924.62
513.477	23283.02
513.679	23522.63
513.881	23577.92
514.084	24132.92
514.286	24057.15
514.488	24376.63
514.69	24894.77
514.893	24667.44
515.095	24784.18
515.297	25339.18
515.499	25343.27
515.701	25357.61
515.904	26068.25
516.106	26039.58
516.308	26121.5
516.51	26397.98
516.712	26559.77
516.914	27120.91
517.116	27155.72
517.318	27344.14
517.52	27559.17
517.722	27626.76
517.925	28112.13
518.127	28439.8
518.329	28101.89
518.531	28169.47
518.733	28847.35
518.935	29064.43
519.136	29005.04
519.338	29471.98
519.54	29613.29
519.742	30196.96
519.944	30196.96
520.146	30727.38
520.348	30985.43
520.55	30837.97
520.752	30846.16
520.954	31528.14
521.155	31497.42
521.357	31704.26
521.559	31808.71
521.761	32367.8
521.963	32363.71
522.164	32838.84
522.366	32767.16
522.568	32705.72
522.77	33289.39
522.971	33600.68
523.173	33227.95
523.375	33803.43
523.576	33645.74
523.778	33465.52
523.98	34178.21
524.181	34530.46
524.383	34188.45
524.584	34938.01
524.786	34868.37
524.988	34251.94
525.189	35394.7
525.391	35503.24
525.592	35370.13
525.794	35382.41
525.995	35347.6
526.197	35863.69
526.398	36000.9
526.6	36097.16
526.801	36185.22
527.003	36424.83
527.204	36574.33
527.406	36686.97
527.607	36861.05
527.808	36996.21
528.01	36648.06
528.211	36727.93
528.412	37516.4
528.614	37368.94
528.815	37317.75
529.016	37854.31
529.218	37418.1
529.419	37430.38
529.62	38044.77
529.822	37710.96
530.023	37465.2
530.224	37665.9
530.425	37872.74
530.626	37411.95
530.828	37794.92
531.029	38259.81
531.23	37502.06
531.431	37454.96
531.632	38069.35
531.833	38292.58
532.035	37788.78
532.236	38102.12
532.437	38771.8
532.638	38579.29
532.839	38403.17
533.04	38806.62
533.241	38184.04
533.442	39115.86
533.643	38470.75
533.844	38390.88
534.045	38765.66
534.246	38149.22
534.447	38792.28
534.648	38358.11
534.849	38345.83
535.05	38067.3
535.251	38626.4
535.451	38296.67
535.652	38724.7
535.853	38452.32
536.054	38712.41
536.255	38659.16
536.456	38362.21
536.657	38913.11
536.857	38483.04
537.058	38616.16
537.259	38933.59
537.46	38231.14
537.66	38800.47
537.861	38632.54
538.062	38478.94
538.263	38581.34
538.463	38425.7
538.664	38243.43
538.865	38501.47
539.065	38751.32
539.266	38411.36
539.466	38603.87
539.667	37758.06
539.868	38505.57
540.068	38708.32
540.269	38263.91
540.469	38614.11
540.67	38560.86
540.87	38106.21
541.071	38280.29
541.271	38192.23
541.472	38630.49
541.672	38284.39
541.873	38181.99
542.073	37592.17
542.274	38648.92
542.474	38057.06
542.675	37969
542.875	38640.73
543.075	38149.22
543.276	37719.15
543.476	38337.63
543.676	37969
543.877	38509.66
544.077	38136.93
544.277	37975.14
544.478	38329.44
544.678	38216.8
544.878	38239.33
545.078	38222.95
545.279	37837.93
545.479	37545.07
545.679	37932.14
545.879	37960.81
546.079	38288.48
546.28	37995.62
546.48	37682.28
546.68	37895.27
546.88	38009.96
547.08	37987.43
547.28	37952.62
547.48	37567.6
547.68	37815.4
547.88	37672.04
548.081	38210.66
548.281	37862.5
548.481	37588.08
548.681	38005.86
548.881	37821.55
549.081	38120.55
549.28	38067.3
549.48	37796.97
549.68	37971.05
549.88	38145.12
550.08	37487.73
550.28	37543.02
550.48	37571.69
550.68	37682.28
550.88	37457.01
551.08	37913.7
551.279	38009.96
551.479	37289.07
551.679	37715.05
551.879	37913.7
552.079	37891.18
552.278	37254.26
552.478	37463.15
552.678	37878.89
552.878	37399.66
553.077	37620.84
553.277	37035.13
553.477	37991.53
553.676	37334.13
553.876	37254.26
554.076	37053.56
554.275	37606.51
554.475	37047.41
554.674	37381.23
554.874	37270.64
555.074	37387.38
555.273	37502.06
555.473	37354.61
555.672	37108.85
555.872	37104.76
556.071	37325.94
556.271	37420.14
556.47	36879.48
556.67	36732.03
556.869	36707.45
557.068	37100.66
557.268	36971.64
557.467	37358.7
557.667	36988.02
557.866	36916.34
558.065	36603
558.265	36342.91
558.464	36619.39
558.663	36772.99
558.863	36611.2
559.062	37143.67
559.261	36209.79
559.461	36942.97
559.66	36553.85
559.859	36394.11
560.058	36568.19
560.258	36748.41
560.457	36115.59
560.656	36347.01
560.855	36091.01
561.054	36463.74
561.253	36306.05
561.453	36033.67
561.652	36148.36
561.851	36392.06
562.05	36136.07
562.249	35656.84
562.448	35859.59
562.647	35714.19
562.846	35380.37
563.045	35738.76
563.244	35357.84
563.443	35921.03
563.642	34880.66
563.841	35298.45
564.04	35052.69
564.239	35845.26
564.438	35138.71
564.637	35280.02
564.836	35353.74
565.035	35175.57
565.234	34720.92
565.432	34770.07
565.631	35019.92
565.83	34868.37
566.029	34716.82
566.228	34411.68
566.427	34399.39
566.625	34133.15
566.824	34411.68
567.023	34366.62
567.222	33926.31
567.42	34825.37
567.619	34366.62
567.818	34249.89
568.016	34032.8
568.215	34215.07
568.414	33952.93
568.612	34323.61
568.811	33780.9
569.01	33969.32
569.208	33514.67
569.407	33471.66
569.605	33381.55
569.804	33676.46
570.002	33240.24
570.201	33639.59
570.4	33006.77
570.598	33451.18
570.797	33006.77
570.995	33215.66
571.193	32797.88
571.392	32726.2
571.59	32443.58
571.789	33090.74
571.987	32943.28
572.186	32488.63
572.384	32697.53
572.582	32730.3
572.781	32705.72
572.979	32236.73
573.177	32210.11
573.376	32275.65
573.574	32003.27
573.772	32249.02
573.971	32181.44
574.169	31900.87
574.367	31859.91
574.565	31952.07
574.763	31470.79
574.962	31704.26
575.16	31556.81
575.358	31378.64
575.556	31374.54
575.754	31540.43
575.952	30737.62
576.151	31388.88
576.349	30899.41
576.547	31100.11
576.745	31040.72
576.943	31149.26
577.141	30960.85
577.339	30964.95
577.537	30516.44
577.735	30823.64
577.933	30553.3
578.131	30528.73
578.329	30414.04
578.527	30457.05
578.725	30604.5
578.923	30366.94
579.121	30127.33
579.319	30139.61
579.516	30205.15
579.714	30018.78
579.912	29947.11
580.11	29715.69
580.308	29715.69
580.506	29572.33
580.704	29355.24
580.901	29400.3
581.099	29463.79
581.297	29418.73
581.495	29201.65
581.692	29349.1
581.89	29113.58
582.088	29275.37
582.285	28660.98
582.483	29054.19
582.681	29152.49
582.878	28779.76
583.076	28232.96
583.274	28947.7
583.471	28447.99
583.669	28626.17
583.866	28693.75
584.064	28660.98
584.262	28355.83
584.459	28529.91
584.657	28339.45
584.854	28220.67
585.052	27643.14
585.249	28075.26
585.447	27921.66
585.644	27198.73
585.841	27882.75
586.039	27507.97
586.236	27378.95
586.434	27358.47
586.631	27340.04
586.828	27471.11
587.026	27426.06
587.223	27268.36
587.42	27436.3
587.618	27174.16
587.815	26842.39
588.012	26682.64
588.21	26952.98
588.407	27168.01
588.604	26813.71
588.801	26248.47
588.999	26230.04
589.196	26774.8
589.393	26524.95
589.59	26195.23
589.787	26053.92
589.984	26074.4
590.182	25826.59
590.379	26205.47
590.576	25947.42
590.773	26107.16
590.97	25480.49
591.167	25855.26
591.364	25615.65
591.561	25683.23
591.758	25052.46
591.955	25470.25
592.152	25333.03
592.349	24943.92
592.546	25275.69
592.743	25509.16
592.94	24724.79
593.137	24786.22
593.334	25210.15
593.531	24890.67
593.727	24921.39
593.924	24507.7
594.121	24587.57
594.318	24651.06
594.515	24290.62
594.712	24724.79
594.908	24458.55
595.105	24456.5
595.302	24028.48
595.499	24401.21
595.696	23936.32
595.892	23774.53
596.089	24169.79
596.286	24126.78
596.482	23948.61
596.679	23723.33
596.876	23661.89
597.072	23481.67
597.269	23674.18
597.466	23199.05
597.662	23315.78
597.859	23299.4
598.055	23270.73
598.252	23063.88
598.448	23035.21
598.645	23233.86
598.841	22996.3
599.038	22965.58
599.234	23080.27
599.431	22453.59
599.627	22762.83
599.824	22992.2
600.02	22562.13
600.217	22369.62
600.413	22652.24
600.609	22375.77
600.806	22263.13
601.002	22388.05
601.198	22115.67
601.395	22052.19
601.591	22029.66
601.787	21968.22
601.984	21853.53
602.18	22185.3
602.376	21781.85
602.572	21757.28
602.769	21765.47
602.965	21386.6
603.161	21507.43
603.357	21472.61
603.553	21503.33
603.75	21433.7
603.946	21267.81
604.142	21325.16
604.338	20989.29
604.534	21286.25
604.73	20890.99
604.926	21071.21
605.122	21204.33
605.318	20983.15
605.514	20751.73
605.71	20729.2
605.906	20741.49
606.102	20518.26
606.298	20487.54
606.494	20555.12
606.69	20587.89
606.886	20514.16
607.082	20180.34
607.278	20587.89
607.474	19969.4
607.67	20200.82
607.866	19875.2
608.062	19965.31
608.257	19856.76
608.453	19897.72
608.649	20106.62
608.845	19869.05
609.041	19889.53
609.236	19819.9
609.432	19953.02
609.628	20260.21
609.824	19684.73
610.019	19357.06
610.215	19678.59
610.411	19844.48
610.606	19772.8
610.802	19658.11
610.998	19565.95
611.193	19658.11
611.389	19406.21
611.584	19449.22
611.78	19264.9
611.976	19303.81
612.171	19168.65
612.367	19266.95
612.562	19273.09
612.758	18910.6
612.953	18963.85
613.149	19228.04
613.344	18916.75
613.539	18965.9
613.735	18922.89
613.93	19131.78
614.126	18867.59
614.321	18978.19
614.517	18611.6
614.712	18752.91
614.907	18617.74
615.103	18855.31
615.298	18726.28
615.493	18994.57
615.688	18392.47
615.884	18615.69
616.079	18408.85
616.274	18599.31
616.47	18261.4
616.665	18417.04
616.86	18240.92
617.055	18421.14
617.25	18318.74
617.445	18367.89
617.641	17972.63
617.836	18298.26
618.031	17982.87
618.226	17890.71
618.421	17905.05
618.616	18124.18
618.811	17671.58
619.006	17905.05
619.201	17690.01
619.396	17765.79
619.591	17343.91
619.786	17759.64
619.981	17544.61
620.176	17358.24
620.371	17427.87
620.566	17266.08
620.761	17198.5
620.956	17497.5
621.151	17065.38
621.346	17042.85
621.541	16666.03
621.735	17016.23
621.93	16635.31
622.125	16969.13
622.32	16426.42
622.515	16463.28
622.709	16471.47
622.904	16401.84
623.099	16158.13
623.294	16215.48
623.488	15871.42
623.683	15967.67
623.878	15789.5
624.072	15840.7
624.267	15965.62
624.462	15777.21
624.656	15621.56
624.851	15568.32
625.046	15607.23
625.24	15484.35
625.435	15177.16
625.629	15109.57
625.824	15140.29
626.018	15189.44
626.213	14853.58
626.407	14742.99
626.602	14747.08
626.796	14761.42
626.991	14814.66
627.185	14681.55
627.38	14474.7
627.574	14472.65
627.768	14341.58
627.963	14183.89
628.157	14054.87
628.352	14108.12
628.546	13911.51
628.74	14005.72
628.935	13778.39
629.129	14048.72
629.323	13673.95
629.517	13655.51
629.712	13460.96
629.906	13516.25
630.1	13448.67
630.294	13577.69
630.489	13223.39
630.683	13303.26
630.877	12920.29
631.071	13010.4
631.265	13180.39
631.459	12981.73
631.653	12821.99
631.848	12670.44
632.042	12783.08
632.236	12613.1
632.43	12545.52
632.624	12662.25
632.818	12512.75
633.012	12164.59
633.206	12477.93
633.4	12191.22
633.594	12170.74
633.788	12168.69
633.982	12117.49
634.176	12068.34
634.369	12004.85
634.563	11965.94
634.757	11779.57
634.951	11722.23
635.145	11666.94
635.339	11544.06
635.533	11628.03
635.726	11400.7
635.92	11331.07
636.114	11380.22
636.308	11326.97
636.501	11228.67
636.695	11339.26
636.889	10982.92
637.083	11136.51
637.276	11081.22
637.47	11021.83
637.664	10915.33
637.857	10923.52
638.051	10952.2
638.244	10661.38
638.438	10712.58
638.632	10753.54
638.825	10419.72
639.019	10601.99
639.212	10438.16
639.406	10425.87
639.599	10372.62
639.793	10210.83
639.986	10192.4
640.18	10198.54
640.373	10163.73
640.567	10006.03
640.76	10120.72
640.954	9981.46
641.147	9981.46
641.34	9813.52
641.534	9870.87
641.727	9866.77
641.92	9819.67
642.114	9569.82
642.307	9707.03
642.5	9614.87
642.694	9510.43
642.887	9567.77
643.08	9418.27
643.273	9448.99
643.467	9373.21
643.66	9268.77
643.853	9199.13
644.046	9125.41
644.239	9268.77
644.432	9141.79
644.626	8977.95
644.819	8926.75
645.012	9051.68
645.205	9039.39
645.398	8885.8
645.591	8912.42
645.784	9025.06
645.977	8594.98
646.17	8783.4
646.363	8609.32
646.556	8662.57
646.749	8631.85
646.942	8623.66
647.135	8519.21
647.328	8429.1
647.521	8398.38
647.714	8238.64
647.907	8398.38
648.099	8087.09
648.292	8173.1
648.485	7966.26
648.678	8146.48
648.871	7894.58
649.064	7972.4
649.256	7804.47
649.449	7874.1
649.642	7919.15
649.835	7708.21
650.027	7843.38
650.22	7667.25
650.413	7669.3
650.605	7681.59
650.798	7685.69
650.991	7685.69
651.183	7589.43
651.376	7554.62
651.568	7538.23
651.761	7532.09
651.954	7460.41
652.146	7272
652.339	7425.59
652.531	7394.87
652.724	7298.62
652.916	7175.74
653.109	7138.88
653.301	6901.31
653.494	6977.09
653.686	7065.15
653.879	7061.05
654.071	7036.48
654.263	6989.38
654.456	6868.55
654.648	7007.81
654.84	6770.24
655.033	6653.51
655.225	6846.02
655.417	6766.15
655.61	6655.56
655.802	6633.03
655.994	6649.41
656.186	6708.8
656.379	6604.36
656.571	6471.24
656.763	6391.37
656.955	6432.33
657.148	6207.05
657.34	6428.23
657.532	6243.92
657.724	6477.38
657.916	6205
658.108	6231.63
658.3	6346.31
658.492	6215.24
658.684	6137.42
658.876	6039.12
659.068	6168.14
659.26	5903.95
659.452	6024.78
659.644	6016.59
659.836	6037.07
660.028	5871.19
660.22	5869.14
660.412	5977.68
660.604	5795.41
660.796	5742.16
660.988	5758.55
661.18	5727.83
661.372	5776.98
661.563	5774.93
661.755	5596.76
661.947	5643.86
662.139	5656.15
662.331	5690.96
662.522	5498.45
662.714	5486.17
662.906	5408.34
663.097	5463.64
663.289	5480.02
663.481	5291.61
663.673	5279.32
663.864	5273.18
664.056	5326.43
664.247	5232.22
664.439	5195.36
664.631	5369.43
664.822	5142.11
665.014	5191.26
665.205	5285.47
665.397	5033.57
665.588	5115.48
665.78	4968.03
665.971	5008.99
666.163	4922.98
666.354	4945.5
666.546	4953.7
666.737	4839.01
666.929	4869.73
667.12	4925.02
667.311	4849.25
667.503	4820.58
667.694	4826.72
667.885	4691.56
668.077	4793.95
668.268	4744.8
668.459	4564.58
668.651	4646.5
668.842	4568.68
669.033	4482.66
669.224	4589.16
669.416	4589.16
669.607	4507.24
669.798	4568.68
669.989	4693.6
670.18	4576.87
670.371	4466.28
670.563	4519.53
670.754	4531.81
670.945	4343.4
671.136	4355.69
671.327	4474.47
671.518	4263.53
671.709	4427.37
671.9	4343.4
672.091	4318.82
672.282	4181.61
672.473	4353.64
672.664	4290.15
672.855	4245.1
673.046	4109.93
673.237	4202.09
673.428	4122.22
673.619	4146.8
673.809	4146.8
674	4187.75
674.191	4249.19
674.382	4095.6
674.573	4132.46
674.764	4048.49
674.954	4085.36
675.145	3958.38
675.336	4054.64
675.527	4073.07
675.717	3999.34
675.908	4097.64
676.099	3952.24
676.289	3939.95
676.48	3886.7
676.671	3819.12
676.861	3942
677.052	3747.44
677.243	3894.9
677.433	3907.18
677.624	3759.73
677.814	3661.43
678.005	3878.51
678.195	3729.01
678.386	3724.91
678.576	3755.63
678.767	3538.55
678.957	3602.04
679.148	3679.86
679.338	3626.61
679.529	3722.87
679.719	3749.49
679.909	3688.05
680.1	3696.24
680.29	3559.03
680.481	3602.04
680.671	3618.42
680.861	3622.52
681.052	3565.17
681.242	3565.17
681.432	3548.79
681.622	3516.02
681.813	3442.29
682.003	3454.58
682.193	3417.72
682.383	3534.45
682.573	3446.39
682.764	3444.34
682.954	3479.16
683.144	3509.88
683.334	3548.79
683.524	3380.86
683.714	3389.05
683.904	3495.54
684.094	3337.85
684.284	3460.73
684.474	3294.84
684.664	3274.36
684.854	3434.1
685.044	3239.55
685.234	3255.93
685.424	3245.69
685.614	3317.37
685.804	3298.94
685.994	3315.32
686.184	3327.61
686.374	3315.32
686.564	3329.66
686.753	3198.59
686.943	3133.05
687.133	3317.37
687.323	3081.85
687.513	3155.58
687.702	3214.97
687.892	3212.92
688.082	3106.43
688.272	3010.17
688.461	3073.66
688.651	3133.05
688.841	3001.98
689.03	2999.93
689.22	3018.36
689.41	3020.41
689.599	3096.19
689.789	2918.01
689.979	3053.18
690.168	2911.87
690.358	2926.21
690.547	2811.52
690.737	2887.29
690.926	2860.67
691.116	2864.77
691.305	2860.67
691.495	2844.29
691.684	2766.46
691.874	2803.33
692.063	2715.27
692.252	2893.44
692.442	2834.05
692.631	2772.61
692.82	2655.87
693.01	2582.15
693.199	2653.83
693.388	2655.87
693.578	2664.07
693.767	2762.37
693.956	2688.64
694.146	2631.3
694.335	2578.05
694.524	2619.01
694.713	2506.37
694.902	2664.07
695.092	2504.32
695.281	2586.24
695.47	2592.39
695.659	2569.86
695.848	2510.47
696.037	2567.81
696.226	2608.77
696.415	2453.13
696.604	2573.96
696.793	2489.99
696.982	2549.38
697.171	2698.88
697.36	2461.32
697.549	2526.85
697.738	2494.08
697.927	2498.18
698.116	2469.51
698.305	2510.47
698.494	2328.2
698.683	2322.06
698.872	2442.89
699.061	2457.22
699.25	2477.7
699.438	2401.93
699.627	2297.48
699.816	2397.83
700.005	2344.58
700.193	2434.69
700.382	2416.26
700.571	2371.21
700.76	2313.86
700.948	2354.82
701.137	2418.31
701.326	2270.86
701.514	2338.44
701.703	2389.64
701.892	2225.8
702.08	2369.16
702.269	2336.39
702.457	2328.2
702.646	2336.39
702.834	2367.11
703.023	2328.2
703.212	2279.05
703.4	2266.76
703.589	2229.9
703.777	2289.29
703.965	2188.94
704.154	2225.8
704.342	2180.75
704.531	2166.41
704.719	2270.86
704.907	2270.86
705.096	2287.24
705.284	2311.82
705.472	2150.03
705.661	2270.86
705.849	2303.62
706.037	2260.62
706.226	2203.27
706.414	2197.13
706.602	2233.99
706.79	2268.81
706.979	2229.9
707.167	2229.9
707.355	2139.79
707.543	2236.04
707.731	2172.55
707.919	2205.32
708.107	2215.56
708.296	2115.21
708.484	2156.17
708.672	2289.29
708.86	2174.6
709.048	2262.66
709.236	2209.42
709.424	2264.71
709.612	2303.62
709.8	2143.88
709.988	2254.47
710.176	2184.84
710.364	2111.11
710.551	2164.36
710.739	2127.5
710.927	2147.98
711.115	2094.73
711.303	2174.6
711.491	2131.59
711.679	2133.64
711.866	2197.13
712.054	2147.98
712.242	2203.27
712.43	2172.55
712.617	2051.72
712.805	2176.65
712.993	2156.17
713.181	2131.59
713.368	2072.2
713.556	2107.02
713.744	2066.06
713.931	2123.4
714.119	2066.06
714.306	2190.99
714.494	2092.68
714.682	2223.75
714.869	2107.02
715.057	2215.56
715.244	2123.4
715.432	2109.07
715.619	2008.72
715.807	2094.73
715.994	2143.88
716.182	2066.06
716.369	2150.03
716.556	2039.44
716.744	2125.45
716.931	2029.2
717.119	2115.21
717.306	2084.49
717.493	2082.44
717.681	2037.39
717.868	2131.59
718.055	2172.55
718.242	2102.92
718.43	2107.02
718.617	2086.54
718.804	2166.41
718.991	2193.03
719.179	2152.07
719.366	2166.41
719.553	2141.83
719.74	2197.13
719.927	2041.48
720.114	2123.4
720.301	2049.68
720.488	2008.72
720.676	2123.4
720.863	2147.98
721.05	2184.84
721.237	2051.72
721.424	2094.73
721.611	2131.59
721.798	1992.33
721.985	2143.88
722.172	2086.54
722.358	2000.52
722.545	2231.94
722.732	2025.1
722.919	2012.81
723.106	2141.83
723.293	2066.06
723.48	2156.17
723.667	2051.72
723.853	2012.81
724.04	2139.79
724.227	2135.69
724.414	2117.26
724.6	2139.79
724.787	2100.87
724.974	2182.79
725.161	2004.62
725.347	2066.06
725.534	2002.57
725.72	2107.02
725.907	2041.48
726.094	2107.02
726.28	2041.48
726.467	2180.75
726.653	1984.14
726.84	2049.68
727.027	2195.08
727.213	2010.76
727.4	2119.31
727.586	2180.75
727.773	2002.57
727.959	2074.25
728.145	2045.58
728.332	2080.39
728.518	2021
728.705	2190.99
728.891	2086.54
729.077	1982.09
729.264	2027.15
729.45	2074.25
729.636	2119.31
729.823	2107.02
730.009	1975.95
730.195	2086.54
730.382	2188.94
730.568	2090.63
730.754	2006.67
730.94	2113.16
731.126	2121.35
731.313	2150.03
731.499	2059.92
731.685	2064.01
731.871	2039.44
732.057	2025.1
732.243	2127.5
732.429	2111.11
732.615	2004.62
732.801	2094.73
732.987	2010.76
733.173	2102.92
733.359	2021
733.545	2111.11
733.731	2023.05
733.917	2016.91
734.103	2068.11
734.289	2055.82
734.475	2061.96
734.661	2016.91
734.847	2090.63
735.033	2078.35
735.219	2016.91
735.404	1928.85
735.59	2000.52
735.776	1900.17
735.962	2002.57
736.148	2021
736.333	1996.43
736.519	1996.43
736.705	1975.95
736.89	1978
737.076	1961.61
737.262	1959.56
737.447	2008.72
737.633	2004.62
737.819	1916.56
738.004	1879.69
738.19	1984.14
738.375	1896.08
738.561	2018.96
738.747	1978
738.932	1953.42
739.118	2047.63
739.303	1945.23
739.489	1943.18
739.674	1930.89
739.859	1955.47
740.045	1846.93
740.23	1824.4
740.416	1851.02
740.601	1978
740.786	1836.69
740.972	1916.56
741.157	1902.22
741.342	1853.07
741.528	1902.22
741.713	1877.65
741.898	1889.93
742.084	1803.92
742.269	1982.09
742.454	1820.3
742.639	1904.27
742.824	1853.07
743.01	1654.42
743.195	1836.69
743.38	1898.13
743.565	1814.16
743.75	1828.49
743.935	1842.83
744.12	1941.13
744.305	1816.21
744.49	1719.95
744.675	1697.42
744.86	1758.86
745.045	1779.34
745.23	1699.47
745.415	1791.63
745.6	1762.96
745.785	1740.43
745.97	1832.59
746.155	1658.51
746.34	1779.34
746.525	1676.95
746.71	1724.05
746.895	1631.89
747.079	1625.75
747.264	1681.04
747.449	1689.23
747.634	1699.47
747.819	1595.03
748.003	1666.71
748.188	1582.74
748.373	1619.6
748.557	1619.6
748.742	1545.88
748.927	1574.55
749.111	1633.94
749.296	1476.24
749.481	1599.12
749.665	1521.3
749.85	1472.15
750.034	1611.41
750.219	1533.59
750.404	1586.83
750.588	1494.68
750.773	1468.05
750.957	1541.78
751.141	1451.67
751.326	1377.94
751.51	1427.09
751.695	1459.86
751.879	1386.13
752.064	1447.57
752.248	1402.52
752.432	1459.86
752.617	1425.04
752.801	1423
752.985	1349.27
753.17	1445.52
753.354	1402.52
753.538	1373.85
753.722	1371.8
753.907	1365.65
754.091	1177.24
754.275	1320.6
754.459	1377.94
754.643	1418.9
754.828	1314.45
755.012	1324.69
755.196	1226.39
755.38	1379.99
755.564	1130.14
755.748	1222.3
755.932	1250.97
756.116	1320.6
756.3	1248.92
756.484	1222.3
756.668	1257.11
756.852	1175.19
757.036	1289.88
757.22	1107.61
757.404	1214.1
757.588	1193.62
757.772	1263.26
757.956	1101.47
758.14	1265.3
758.323	1089.18
758.507	1228.44
758.691	1150.62
758.875	1130.14
759.059	1144.47
759.242	1164.95
759.426	1095.32
759.61	1134.23
759.794	1066.65
759.977	1111.71
760.161	1210.01
760.345	1083.03
760.528	1158.81
760.712	1042.07
760.895	1138.33
761.079	1089.18
761.263	1011.36
761.446	1009.31
761.63	1060.51
761.813	1070.75
761.997	1050.27
762.18	968.35
762.364	1058.46
762.547	992.92
762.731	1009.31
762.914	1068.7
763.098	1013.4
763.281	886.43
763.464	1050.27
763.648	898.72
763.831	894.62
764.015	960.16
764.198	954.01
764.381	999.07
764.564	972.44
764.748	997.02
764.931	958.11
765.114	949.92
765.297	984.73
765.481	970.4
765.664	849.57
765.847	980.64
766.03	939.68
766.213	888.48
766.397	831.13
766.58	902.81
766.763	1013.4
766.946	939.68
767.129	921.24
767.312	913.05
767.495	849.57
767.678	865.95
767.861	863.9
768.044	880.29
768.227	853.66
768.41	820.89
768.593	886.43
768.776	915.1
768.959	886.43
769.142	927.39
769.324	812.7
769.507	853.66
769.69	839.33
769.873	820.89
770.056	865.95
770.239	831.13
770.421	788.13
770.604	808.61
770.787	839.33
770.97	829.09
771.152	837.28
771.335	841.37
771.518	870.05
771.7	831.13
771.883	835.23
772.066	788.13
772.248	855.71
772.431	827.04
772.613	806.56
772.796	761.5
772.978	804.51
773.161	845.47
773.343	831.13
773.526	689.82
773.708	708.26
773.891	714.4
774.073	814.75
774.256	829.09
774.438	824.99
774.621	677.54
774.803	777.89
774.985	792.22
775.168	798.37
775.35	693.92
775.532	792.22
775.715	722.59
775.897	683.68
776.079	644.77
776.261	771.74
776.444	657.06
776.626	747.17
776.808	710.3
776.99	599.71
777.173	657.06
777.355	698.02
777.537	638.62
777.719	657.06
777.901	593.57
778.083	618.15
778.265	503.46
778.447	673.44
778.629	650.91
778.811	657.06
778.993	583.33
779.175	671.39
779.357	634.53
779.539	640.67
779.721	525.99
779.903	601.76
780.085	673.44
780.267	552.61
780.449	636.58
780.631	755.36
780.812	652.96
780.994	624.29
781.176	579.23
781.358	585.38
781.54	562.85
781.721	657.06
781.903	630.43
782.085	530.08
782.267	525.99
782.448	528.03
782.63	544.42
782.812	564.9
782.993	618.15
783.175	511.65
783.357	435.88
783.538	468.64
783.72	505.51
783.901	509.6
784.083	501.41
784.264	444.07
784.446	454.31
784.627	497.32
784.809	452.26
784.99	394.92
785.172	478.88
785.353	456.36
785.535	437.92
785.716	476.84
785.897	403.11
786.079	444.07
786.26	439.97
786.441	433.83
786.623	310.95
786.804	435.88
786.985	392.87
787.167	380.58
787.348	427.68
787.529	421.54
787.71	487.08
787.891	454.31
788.073	401.06
788.254	419.49
788.435	394.92
788.616	462.5
788.797	347.81
788.978	388.77
789.159	360.1
789.34	399.01
789.522	331.43
789.703	409.25
789.884	349.86
790.065	353.96
790.246	396.96
790.427	388.77
790.607	399.01
790.788	399.01
790.969	345.77
791.15	388.77
791.331	329.38
791.512	304.81
791.693	358.05
791.874	386.72
792.054	325.29
792.235	378.53
792.416	294.57
792.597	272.04
792.778	390.82
792.958	325.29
793.139	362.15
793.32	376.48
793.5	269.99
793.681	302.76
793.862	337.57
794.042	294.57
794.223	304.81
794.404	276.13
794.584	251.56
794.765	421.54
794.945	415.4
795.126	372.39
795.306	306.85
795.487	337.57
795.667	257.7
795.848	280.23
796.028	386.72
796.209	231.08
796.389	306.85
796.57	278.18
796.75	282.28
796.93	269.99
797.111	263.85
797.291	239.27
797.471	315.05
797.652	239.27
797.832	263.85
798.012	247.46
798.192	261.8
798.373	235.18
798.553	290.47
798.733	255.65
798.913	239.27
799.093	282.28
799.274	231.08
799.454	263.85
799.634	239.27
799.814	226.98
799.994	290.47
800.174	267.94
800.354	263.85
800.534	239.27
800.714	210.6
800.894	118.44
801.074	251.56
801.254	222.89
801.434	269.99
801.614	192.17
801.794	214.7
801.974	800.41
802.154	190.12
802.334	276.13
802.514	243.37
802.693	167.59
802.873	159.4
803.053	239.27
803.233	224.94
803.413	206.5
803.592	157.35
803.772	183.98
803.952	255.65
804.131	194.22
804.311	173.74
804.491	231.08
804.67	181.93
804.85	186.02
805.03	161.45
805.209	206.5
805.389	192.17
805.568	116.39
805.748	229.03
805.928	214.7
806.107	265.89
806.287	208.55
806.466	175.78
806.646	171.69
806.825	192.17
807.004	241.32
807.184	243.37
807.363	263.85
807.543	214.7
807.722	147.11
807.901	222.89
808.081	165.54
808.26	138.92
808.439	175.78
808.619	239.27
808.798	190.12
808.977	220.84
809.156	171.69
809.336	155.3
809.515	175.78
809.694	138.92
809.873	136.87
810.052	128.68
810.231	186.02
810.411	177.83
810.59	149.16
810.769	173.74
810.948	181.93
811.127	63.15
811.306	186.02
811.485	181.93
811.664	222.89
811.843	116.39
812.022	147.11
812.201	108.2
812.38	181.93
812.559	134.82
812.737	118.44
812.916	155.3
813.095	243.37
813.274	100.01
813.453	173.74
813.632	140.97
813.811	132.78
813.989	157.35
814.168	108.2
814.347	181.93
814.526	140.97
814.704	165.54
814.883	128.68
815.062	79.53
815.24	202.41
815.419	85.67
815.598	140.97
815.776	102.06
815.955	251.56
816.133	95.91
816.312	124.58
816.49	95.91
816.669	110.25
816.847	59.05
817.026	116.39
817.204	181.93
817.383	118.44
817.561	87.72
817.74	145.06
817.918	106.15
818.097	116.39
818.275	83.63
818.453	200.36
818.632	167.59
818.81	95.91
818.988	79.53
819.167	85.67
819.345	165.54
819.523	81.58
819.701	192.17
819.879	116.39
820.058	124.58
820.236	157.35
820.414	83.63
820.592	173.74
820.77	22.19
820.948	77.48
821.127	161.45
821.305	91.82
821.483	102.06
821.661	93.87
821.839	59.05
822.017	93.87
822.195	120.49
822.373	91.82
822.551	112.3
822.729	118.44
822.907	140.97
823.085	140.97
823.262	95.91
823.44	83.63
823.618	67.24
823.796	128.68
823.974	100.01
824.152	140.97
824.329	89.77
824.507	116.39
824.685	75.43
824.863	71.34
825.04	57
825.218	165.54
825.396	140.97
825.574	85.67
825.751	104.11
825.929	136.87
826.107	124.58
826.284	140.97
826.462	97.96
826.639	81.58
826.817	73.39
826.994	100.01
827.172	46.76
827.349	126.63
827.527	169.64
827.704	93.87
827.882	18.09
828.059	91.82
828.237	106.15
828.414	165.54
828.591	18.09
828.769	167.59
828.946	57
829.124	106.15
829.301	147.11
829.478	116.39
829.655	11.95
829.833	100.01
830.01	61.1
830.187	34.47
830.364	52.91
830.542	57
830.719	153.26
830.896	126.63
831.073	102.06
831.25	100.01
831.427	134.82
831.604	5.8
831.782	36.52
831.959	110.25
832.136	34.47
832.313	118.44
832.49	54.95
832.667	42.67
832.844	120.49
833.021	67.24
833.198	69.29
833.374	97.96
833.551	28.33
833.728	89.77
833.905	91.82
834.082	75.43
834.259	38.57
834.436	124.58
834.612	11.95
834.789	130.73
834.966	65.19
835.143	18.09
835.319	22.19
835.496	-12.63
835.673	59.05
835.85	134.82
836.026	75.43
836.203	75.43
836.38	28.33
836.556	67.24
836.733	20.14
836.909	42.67
837.086	75.43
837.262	52.91
837.439	75.43
837.616	26.28
837.792	67.24
837.968	75.43
838.145	104.11
838.321	71.34
838.498	79.53
838.674	52.91
838.851	93.87
839.027	59.05
839.203	71.34
839.38	42.67
839.556	3.75
839.732	79.53
839.909	116.39
840.085	71.34
840.261	9.9
840.437	-31.06
840.614	34.47
840.79	67.24
840.966	3.75
841.142	38.57
841.318	50.86
841.494	38.57
841.671	32.43
841.847	30.38
842.023	50.86
842.199	116.39
842.375	26.28
842.551	3.75
842.727	11.95
842.903	93.87
843.079	28.33
843.255	102.06
843.431	85.67
843.607	42.67
843.783	-22.87
843.959	124.58
844.134	-14.68
844.31	120.49
844.486	-8.53
844.662	67.24
844.838	28.33
845.013	9.9
845.189	1.71
845.365	79.53
845.541	67.24
845.716	85.67
845.892	-18.77
846.068	44.71
846.244	-57.68
846.419	100.01
846.595	57
846.77	42.67
846.946	22.19
847.122	11.95
847.297	-6.49
847.473	149.16
847.648	50.86
847.824	59.05
847.999	34.47
848.175	-31.06
848.35	122.54
848.526	91.82
848.701	102.06
848.876	42.67
849.052	18.09
849.227	28.33
849.403	-0.34
849.578	81.58
849.753	75.43
849.929	-4.44
850.104	-6.49
850.279	130.73
850.454	28.33
850.63	-12.63
850.805	52.91
850.98	63.15
851.155	50.86
851.33	59.05
851.505	11.95
851.681	112.3
851.856	-12.63
852.031	26.28
852.206	44.71
852.381	50.86
852.556	-14.68
852.731	13.99
852.906	91.82
853.081	-18.77
853.256	7.85
853.431	-4.44
853.606	30.38
853.781	30.38
853.956	3.75
854.131	9.9
854.305	-26.96
854.48	112.3
854.655	-20.82
854.83	52.91
855.005	46.76
855.18	3.75
855.354	67.24
855.529	95.91
855.704	26.28
855.879	102.06
856.053	-14.68
856.228	165.54
856.403	9.9
856.577	50.86
856.752	5.8
856.926	5.8
857.101	46.76
857.276	5.8
857.45	22.19
857.625	36.52
857.799	-14.68
857.974	9.9
858.148	-67.92
858.323	36.52
858.497	13.99
858.672	11.95
858.846	-80.21
859.02	-8.53
859.195	-22.87
859.369	-6.49
859.543	87.72
859.718	5.8
859.892	34.47
860.066	75.43
860.241	3.75
860.415	26.28
860.589	1.71
860.763	42.67
860.938	-12.63
861.112	-31.06
861.286	42.67
861.46	9.9
861.634	52.91
861.808	67.24
861.982	79.53
862.157	7.85
862.331	18.09
862.505	-41.3
862.679	42.67
862.853	-31.06
863.027	46.76
863.201	173.74
863.375	-16.73
863.549	-47.44
863.722	-12.63
863.896	1.71
864.07	50.86
864.244	75.43
864.418	18.09
864.592	83.63
864.766	106.15
864.939	30.38
865.113	-2.39
865.287	61.1
865.461	-20.82
865.634	67.24
865.808	38.57
865.982	1.71
866.156	30.38
866.329	-20.82
866.503	-86.36
866.676	22.19
866.85	-2.39
867.024	13.99
867.197	140.97
867.371	34.47
867.544	-63.83
867.718	7.85
867.891	-33.11
868.065	36.52
868.238	59.05
868.412	85.67
868.585	1.71
868.759	1.71
868.932	-51.54
869.105	-67.92
869.279	-2.39
869.452	-24.92
869.625	24.23
869.799	28.33
869.972	-39.25
870.145	18.09
870.319	-6.49
870.492	11.95
870.665	-39.25
870.838	42.67
871.011	-61.78
871.185	5.8
871.358	26.28
871.531	36.52
871.704	11.95
871.877	18.09
872.05	-33.11
872.223	-47.44
872.396	9.9
872.569	79.53
872.742	-0.34
872.915	34.47
873.088	5.8
873.261	-10.58
873.434	67.24
873.607	-2.39
873.78	69.29
873.953	-22.87
874.126	13.99
874.299	59.05
874.471	18.09
874.644	-6.49
874.817	-14.68
874.99	122.54
875.163	20.14
875.335	67.24
875.508	-14.68
875.681	42.67
875.853	18.09
876.026	1.71
876.199	-12.63
876.371	34.47
876.544	16.04
876.717	22.19
876.889	-31.06
877.062	93.87
877.234	-41.3
877.407	5.8
877.579	-14.68
877.752	69.29
877.924	42.67
878.097	-6.49
878.269	1.71
878.442	1.71
878.614	20.14
878.786	46.76
878.959	-16.73
879.131	13.99
879.303	-67.92
879.476	67.24
879.648	24.23
879.82	5.8
879.993	-39.25
880.165	61.1
880.337	-20.82
880.509	26.28
880.681	-47.44
880.854	18.09
881.026	-2.39
881.198	57
881.37	59.05
881.542	1.71
881.714	9.9
881.886	26.28
882.058	11.95
882.23	-18.77
882.402	34.47
882.574	34.47
882.746	32.43
882.918	-14.68
883.09	13.99
883.262	65.19
883.434	-20.82
883.606	-35.16
883.778	18.09
883.95	16.04
884.122	-22.87
884.293	-6.49
884.465	-10.58
884.637	-2.39
884.809	-53.59
884.98	26.28
885.152	44.71
885.324	18.09
885.496	9.9
885.667	40.62
885.839	26.28
886.011	52.91
886.182	-39.25
886.354	3.75
886.525	-18.77
886.697	-0.34
886.869	79.53
887.04	1.71
887.212	42.67
887.383	89.77
887.555	-6.49
887.726	26.28
887.897	50.86
888.069	100.01
888.24	22.19
888.412	-4.44
888.583	-88.4
888.754	93.87
888.926	-35.16
889.097	24.23
889.268	-31.06
889.44	-14.68
889.611	11.95
889.782	-22.87
889.953	28.33
890.125	13.99
890.296	-10.58
890.467	59.05
890.638	-0.34
890.809	-63.83
890.98	-61.78
891.151	63.15
891.323	85.67
891.494	9.9
891.665	46.76
891.836	-96.6
892.007	67.24
892.178	16.04
892.349	26.28
892.52	18.09
892.691	40.62
892.862	48.81
893.032	-47.44
893.203	13.99
893.374	-6.49
893.545	75.43
893.716	-51.54
893.887	61.1
894.057	-43.35
894.228	-14.68
894.399	20.14
894.57	9.9
894.74	-4.44
894.911	-31.06
895.082	-0.34
895.253	-22.87
895.423	-18.77
895.594	28.33
895.764	-26.96
895.935	-14.68
896.106	-2.39
896.276	9.9
896.447	44.71
896.617	-37.2
896.788	34.47
896.958	9.9
897.129	-108.88
897.299	-10.58
897.47	-6.49
897.64	79.53
897.81	20.14
897.981	13.99
898.151	-61.78
898.322	54.95
898.492	59.05
898.662	67.24
898.832	-63.83
899.003	-39.25
899.173	-43.35
899.343	-6.49
899.513	28.33
