Data from USB4F104151__116__14-43-53-390.txt Node

Date: Thu Mar 13 14:43:53 EDT 2025
User: louis
Spectrometer: USB4F10415
Trigger mode: 4
Integration Time (sec): 2.000000E-2
Scans to average: 1
Electric dark correction enabled: true
Nonlinearity correction enabled: false
Boxcar width: 0
XAxis mode: Wavelengths
Number of Pixels in Spectrum: 3648
>>>>>Begin Spectral Data<<<<<
178.204	-85.5
178.424	-85.5
178.644	-85.5
178.864	-165.37
179.084	-89.6
179.304	25.09
179.524	-11.78
179.744	-17.92
179.964	4.61
180.184	-9.73
180.404	45.57
180.624	-40.45
180.844	6.66
181.064	-19.97
181.283	-9.73
181.503	-11.78
181.723	39.42
181.943	-19.97
182.163	82.43
182.383	59.9
182.602	23.04
182.822	86.53
183.042	37.38
183.262	-7.68
183.482	8.7
183.701	-42.5
183.921	78.33
184.141	23.04
184.361	37.38
184.58	4.61
184.8	-52.74
185.02	57.86
185.239	16.9
185.459	-36.35
185.679	70.14
185.898	-3.58
186.118	37.38
186.338	80.38
186.557	14.85
186.777	37.38
186.997	33.28
187.216	-15.87
187.436	143.87
187.655	25.09
187.875	96.77
188.095	20.99
188.314	23.04
188.534	43.52
188.753	-17.92
188.973	-24.06
189.192	86.53
189.412	43.52
189.631	-17.92
189.851	78.33
190.07	8.7
190.29	25.09
190.509	12.8
190.729	-9.73
190.948	61.95
191.168	96.77
191.387	72.19
191.607	-7.68
191.826	33.28
192.045	12.8
192.265	-52.74
192.484	-1.54
192.704	57.86
192.923	-52.74
193.142	111.1
193.362	57.86
193.581	0.51
193.8	39.42
194.02	82.43
194.239	-1.54
194.458	31.23
194.678	-26.11
194.897	-9.73
195.116	102.91
195.335	-3.58
195.555	14.85
195.774	-3.58
195.993	74.24
196.212	14.85
196.432	66.05
196.651	70.14
196.87	45.57
197.089	61.95
197.308	-3.58
197.528	45.57
197.747	53.76
197.966	-40.45
198.185	104.96
198.404	27.14
198.623	53.76
198.842	86.53
199.062	47.62
199.281	113.15
199.5	39.42
199.719	16.9
199.938	0.51
200.157	104.96
200.376	-3.58
200.595	64
200.814	-17.92
201.033	102.91
201.252	-1.54
201.471	29.18
201.69	117.25
201.909	37.38
202.128	104.96
202.347	64
202.566	37.38
202.785	29.18
203.004	6.66
203.223	127.49
203.442	4.61
203.661	86.53
203.879	86.53
204.098	82.43
204.317	6.66
204.536	12.8
204.755	64
204.974	20.99
205.193	35.33
205.411	107.01
205.63	53.76
205.849	113.15
206.068	37.38
206.287	8.7
206.505	49.66
206.724	104.96
206.943	23.04
207.162	14.85
207.381	-1.54
207.599	66.05
207.818	64
208.037	57.86
208.255	55.81
208.474	31.23
208.693	37.38
208.911	16.9
209.13	20.99
209.349	4.61
209.567	47.62
209.786	53.76
210.005	25.09
210.223	45.57
210.442	-28.16
210.661	64
210.879	18.94
211.098	6.66
211.316	14.85
211.535	55.81
211.753	51.71
211.972	45.57
212.191	-44.54
212.409	20.99
212.628	0.51
212.846	-69.12
213.065	31.23
213.283	55.81
213.502	-11.78
213.72	31.23
213.938	80.38
214.157	12.8
214.375	-3.58
214.594	-5.63
214.812	66.05
215.031	33.28
215.249	10.75
215.467	76.29
215.686	23.04
215.904	70.14
216.122	53.76
216.341	78.33
216.559	20.99
216.778	88.57
216.996	68.09
217.214	39.42
217.432	37.38
217.651	-7.68
217.869	12.8
218.087	33.28
218.306	-3.58
218.524	125.44
218.742	-9.73
218.96	53.76
219.179	45.57
219.397	-19.97
219.615	33.28
219.833	59.9
220.051	6.66
220.27	127.49
220.488	-7.68
220.706	64
220.924	-3.58
221.142	-73.21
221.36	29.18
221.578	111.1
221.796	61.95
222.015	18.94
222.233	-19.97
222.451	121.34
222.669	20.99
222.887	41.47
223.105	-36.35
223.323	39.42
223.541	20.99
223.759	33.28
223.977	98.81
224.195	111.1
224.413	45.57
224.631	16.9
224.849	8.7
225.067	37.38
225.285	61.95
225.503	55.81
225.721	-60.93
225.939	-44.54
226.157	104.96
226.375	98.81
226.592	-11.78
226.81	45.57
227.028	23.04
227.246	70.14
227.464	47.62
227.682	23.04
227.9	109.05
228.117	94.72
228.335	43.52
228.553	37.38
228.771	33.28
228.989	39.42
229.206	-34.3
229.424	-36.35
229.642	45.57
229.86	-3.58
230.077	78.33
230.295	80.38
230.513	45.57
230.731	102.91
230.948	70.14
231.166	45.57
231.384	10.75
231.601	0.51
231.819	107.01
232.037	-48.64
232.254	-34.3
232.472	78.33
232.689	39.42
232.907	70.14
233.125	-40.45
233.342	-11.78
233.56	-15.87
233.777	-17.92
233.995	61.95
234.213	6.66
234.43	55.81
234.648	57.86
234.865	-9.73
235.083	16.9
235.3	78.33
235.518	119.29
235.735	-11.78
235.953	25.09
236.17	45.57
236.388	6.66
236.605	14.85
236.822	47.62
237.04	18.94
237.257	-19.97
237.475	82.43
237.692	31.23
237.909	23.04
238.127	-32.26
238.344	-7.68
238.562	39.42
238.779	29.18
238.996	-24.06
239.214	20.99
239.431	39.42
239.648	-19.97
239.865	-11.78
240.083	117.25
240.3	64
240.517	-38.4
240.735	31.23
240.952	96.77
241.169	31.23
241.386	94.72
241.603	39.42
241.821	20.99
242.038	20.99
242.255	43.52
242.472	-1.54
242.689	29.18
242.907	29.18
243.124	-1.54
243.341	20.99
243.558	-17.92
243.775	-7.68
243.992	41.47
244.209	6.66
244.426	45.57
244.643	98.81
244.86	6.66
245.078	94.72
245.295	8.7
245.512	82.43
245.729	23.04
245.946	25.09
246.163	-3.58
246.38	61.95
246.597	51.71
246.814	-28.16
247.031	-44.54
247.248	16.9
247.464	29.18
247.681	2.56
247.898	78.33
248.115	61.95
248.332	-73.21
248.549	88.57
248.766	115.2
248.983	-17.92
249.2	72.19
249.417	45.57
249.633	-5.63
249.85	29.18
250.067	37.38
250.284	20.99
250.501	-42.5
250.717	80.38
250.934	8.7
251.151	27.14
251.368	59.9
251.585	47.62
251.801	12.8
252.018	39.42
252.235	78.33
252.451	-50.69
252.668	16.9
252.885	55.81
253.102	45.57
253.318	-9.73
253.535	35.33
253.752	31.23
253.968	33.28
254.185	35.33
254.401	23.04
254.618	88.57
254.835	-89.6
255.051	88.57
255.268	10.75
255.484	33.28
255.701	-3.58
255.917	61.95
256.134	-3.58
256.351	-1.54
256.567	-44.54
256.784	57.86
257	45.57
257.217	64
257.433	76.29
257.65	51.71
257.866	-34.3
258.082	-15.87
258.299	-5.63
258.515	53.76
258.732	29.18
258.948	6.66
259.165	16.9
259.381	23.04
259.597	-60.93
259.814	-1.54
260.03	-1.54
260.246	47.62
260.463	29.18
260.679	70.14
260.895	10.75
261.112	61.95
261.328	-7.68
261.544	-50.69
261.761	86.53
261.977	82.43
262.193	-19.97
262.409	27.14
262.626	90.62
262.842	-19.97
263.058	-34.3
263.274	-9.73
263.49	39.42
263.707	14.85
263.923	-7.68
264.139	6.66
264.355	61.95
264.571	86.53
264.787	29.18
265.004	80.38
265.22	29.18
265.436	-69.12
265.652	25.09
265.868	53.76
266.084	20.99
266.3	113.15
266.516	25.09
266.732	92.67
266.948	4.61
267.164	10.75
267.38	-7.68
267.596	-11.78
267.812	61.95
268.028	61.95
268.244	10.75
268.46	123.39
268.676	-19.97
268.892	45.57
269.108	6.66
269.324	86.53
269.54	33.28
269.756	96.77
269.972	12.8
270.188	-28.16
270.403	-24.06
270.619	-52.74
270.835	-11.78
271.051	6.66
271.267	16.9
271.483	66.05
271.698	37.38
271.914	29.18
272.13	-19.97
272.346	-28.16
272.562	66.05
272.777	20.99
272.993	10.75
273.209	-26.11
273.425	16.9
273.64	-11.78
273.856	4.61
274.072	20.99
274.287	29.18
274.503	31.23
274.719	10.75
274.934	23.04
275.15	-15.87
275.366	35.33
275.581	0.51
275.797	64
276.012	4.61
276.228	-13.82
276.444	57.86
276.659	27.14
276.875	35.33
277.09	49.66
277.306	-15.87
277.521	37.38
277.737	-1.54
277.952	12.8
278.168	-32.26
278.383	37.38
278.599	-60.93
278.814	14.85
279.03	8.7
279.245	74.24
279.461	20.99
279.676	102.91
279.892	-5.63
280.107	-44.54
280.322	-15.87
280.538	55.81
280.753	-7.68
280.969	35.33
281.184	121.34
281.399	96.77
281.615	43.52
281.83	4.61
282.045	86.53
282.26	27.14
282.476	4.61
282.691	82.43
282.906	25.09
283.122	14.85
283.337	14.85
283.552	25.09
283.767	20.99
283.983	43.52
284.198	20.99
284.413	53.76
284.628	-24.06
284.843	41.47
285.058	33.28
285.274	53.76
285.489	43.52
285.704	61.95
285.919	29.18
286.134	16.9
286.349	-1.54
286.564	29.18
286.779	37.38
286.995	64
287.21	-9.73
287.425	0.51
287.64	0.51
287.855	39.42
288.07	-44.54
288.285	2.56
288.5	61.95
288.715	-19.97
288.93	-13.82
289.145	49.66
289.36	53.76
289.575	29.18
289.79	37.38
290.004	45.57
290.219	12.8
290.434	84.48
290.649	25.09
290.864	45.57
291.079	37.38
291.294	66.05
291.509	12.8
291.724	35.33
291.938	14.85
292.153	55.81
292.368	16.9
292.583	-44.54
292.798	16.9
293.012	12.8
293.227	47.62
293.442	37.38
293.657	49.66
293.871	61.95
294.086	53.76
294.301	-9.73
294.516	51.71
294.73	74.24
294.945	-38.4
295.16	23.04
295.374	94.72
295.589	14.85
295.804	45.57
296.018	0.51
296.233	-3.58
296.447	74.24
296.662	-1.54
296.877	84.48
297.091	86.53
297.306	80.38
297.52	64
297.735	-1.54
297.949	37.38
298.164	-19.97
298.378	20.99
298.593	29.18
298.807	-11.78
299.022	-9.73
299.236	4.61
299.451	-17.92
299.665	68.09
299.88	80.38
300.094	20.99
300.309	-50.69
300.523	14.85
300.737	53.76
300.952	33.28
301.166	-9.73
301.381	-75.26
301.595	27.14
301.809	-5.63
302.024	66.05
302.238	-11.78
302.452	61.95
302.667	-11.78
302.881	121.34
303.095	-9.73
303.309	98.81
303.524	-1.54
303.738	70.14
303.952	20.99
304.166	41.47
304.381	20.99
304.595	37.38
304.809	8.7
305.023	55.81
305.237	-52.74
305.452	-44.54
305.666	45.57
305.88	0.51
306.094	47.62
306.308	20.99
306.522	-52.74
306.736	102.91
306.95	53.76
307.164	90.62
307.379	49.66
307.593	74.24
307.807	25.09
308.021	31.23
308.235	12.8
308.449	55.81
308.663	2.56
308.877	49.66
309.091	104.96
309.305	-11.78
309.519	39.42
309.733	4.61
309.947	-60.93
310.161	31.23
310.374	55.81
310.588	0.51
310.802	33.28
311.016	-1.54
311.23	-36.35
311.444	12.8
311.658	8.7
311.872	41.47
312.085	14.85
312.299	51.71
312.513	104.96
312.727	-3.58
312.941	-42.5
313.154	41.47
313.368	66.05
313.582	-5.63
313.796	10.75
314.009	29.18
314.223	-5.63
314.437	107.01
314.651	6.66
314.864	31.23
315.078	57.86
315.292	20.99
315.505	23.04
315.719	86.53
315.933	25.09
316.146	-9.73
316.36	4.61
316.573	72.19
316.787	-60.93
317.001	25.09
317.214	12.8
317.428	31.23
317.641	-44.54
317.855	20.99
318.068	12.8
318.282	53.76
318.495	98.81
318.709	102.91
318.922	20.99
319.136	102.91
319.349	74.24
319.563	55.81
319.776	45.57
319.99	16.9
320.203	86.53
320.417	-38.4
320.63	53.76
320.843	86.53
321.057	45.57
321.27	53.76
321.483	-40.45
321.697	61.95
321.91	90.62
322.124	23.04
322.337	66.05
322.55	72.19
322.763	-36.35
322.977	80.38
323.19	-44.54
323.403	41.47
323.617	66.05
323.83	59.9
324.043	25.09
324.256	18.94
324.469	-22.02
324.683	29.18
324.896	-9.73
325.109	31.23
325.322	14.85
325.535	39.42
325.748	-19.97
325.962	-52.74
326.175	2.56
326.388	-9.73
326.601	23.04
326.814	-15.87
327.027	-5.63
327.24	29.18
327.453	0.51
327.666	111.1
327.879	53.76
328.092	-36.35
328.305	-44.54
328.518	76.29
328.731	-7.68
328.944	45.57
329.157	47.62
329.37	45.57
329.583	53.76
329.796	86.53
330.009	31.23
330.222	49.66
330.435	20.99
330.648	12.8
330.861	2.56
331.073	-3.58
331.286	53.76
331.499	-3.58
331.712	49.66
331.925	29.18
332.138	-1.54
332.35	70.14
332.563	14.85
332.776	18.94
332.989	12.8
333.202	64
333.414	-22.02
333.627	-24.06
333.84	20.99
334.053	72.19
334.265	-5.63
334.478	39.42
334.691	90.62
334.903	59.9
335.116	-69.12
335.329	18.94
335.541	80.38
335.754	41.47
335.966	23.04
336.179	51.71
336.392	4.61
336.604	4.61
336.817	53.76
337.029	35.33
337.242	82.43
337.454	55.81
337.667	-19.97
337.88	160.25
338.092	12.8
338.305	45.57
338.517	-15.87
338.729	111.1
338.942	135.68
339.154	-9.73
339.367	76.29
339.579	-3.58
339.792	25.09
340.004	88.57
340.217	25.09
340.429	29.18
340.641	37.38
340.854	4.61
341.066	20.99
341.278	115.2
341.491	45.57
341.703	55.81
341.915	37.38
342.128	57.86
342.34	49.66
342.552	-71.17
342.764	61.95
342.977	111.1
343.189	43.52
343.401	20.99
343.613	14.85
343.826	76.29
344.038	2.56
344.25	70.14
344.462	88.57
344.674	37.38
344.886	47.62
345.099	61.95
345.311	61.95
345.523	-44.54
345.735	20.99
345.947	23.04
346.159	-11.78
346.371	39.42
346.583	29.18
346.795	86.53
347.007	96.77
347.219	-36.35
347.431	61.95
347.643	45.57
347.855	-1.54
348.067	123.39
348.279	29.18
348.491	8.7
348.703	39.42
348.915	33.28
349.127	6.66
349.339	-1.54
349.551	25.09
349.763	-44.54
349.975	-24.06
350.187	78.33
350.399	57.86
350.61	66.05
350.822	-9.73
351.034	57.86
351.246	6.66
351.458	-11.78
351.669	72.19
351.881	147.97
352.093	37.38
352.305	45.57
352.517	29.18
352.728	39.42
352.94	18.94
353.152	88.57
353.363	49.66
353.575	41.47
353.787	23.04
353.999	35.33
354.21	45.57
354.422	33.28
354.633	-40.45
354.845	33.28
355.057	53.76
355.268	16.9
355.48	68.09
355.692	49.66
355.903	-7.68
356.115	41.47
356.326	66.05
356.538	107.01
356.749	61.95
356.961	104.96
357.172	23.04
357.384	49.66
357.595	115.2
357.807	37.38
358.018	-52.74
358.23	70.14
358.441	41.47
358.653	90.62
358.864	10.75
359.075	-52.74
359.287	14.85
359.498	-11.78
359.709	20.99
359.921	84.48
360.132	59.9
360.344	53.76
360.555	-13.82
360.766	29.18
360.977	45.57
361.189	55.81
361.4	16.9
361.611	33.28
361.823	92.67
362.034	64
362.245	-1.54
362.456	31.23
362.667	72.19
362.879	49.66
363.09	98.81
363.301	92.67
363.512	70.14
363.723	94.72
363.935	16.9
364.146	53.76
364.357	8.7
364.568	23.04
364.779	-24.06
364.99	37.38
365.201	45.57
365.412	90.62
365.623	-42.5
365.834	90.62
366.045	109.05
366.256	4.61
366.467	16.9
366.678	78.33
366.889	121.34
367.1	-19.97
367.311	74.24
367.522	37.38
367.733	18.94
367.944	37.38
368.155	61.95
368.366	29.18
368.577	80.38
368.788	135.68
368.999	20.99
369.209	-56.83
369.42	70.14
369.631	55.81
369.842	27.14
370.053	12.8
370.264	37.38
370.474	41.47
370.685	41.47
370.896	100.86
371.107	-15.87
371.317	29.18
371.528	66.05
371.739	70.14
371.95	94.72
372.16	70.14
372.371	68.09
372.582	72.19
372.792	20.99
373.003	43.52
373.214	49.66
373.424	53.76
373.635	64
373.846	68.09
374.056	16.9
374.267	61.95
374.477	29.18
374.688	20.99
374.898	109.05
375.109	111.1
375.319	92.67
375.53	104.96
375.74	-1.54
375.951	29.18
376.161	31.23
376.372	29.18
376.582	49.66
376.793	86.53
377.003	-24.06
377.214	6.66
377.424	45.57
377.635	14.85
377.845	-17.92
378.055	98.81
378.266	25.09
378.476	47.62
378.686	70.14
378.897	6.66
379.107	43.52
379.317	82.43
379.528	4.61
379.738	16.9
379.948	84.48
380.158	53.76
380.369	23.04
380.579	8.7
380.789	-19.97
380.999	29.18
381.21	43.52
381.42	41.47
381.63	61.95
381.84	107.01
382.05	41.47
382.261	39.42
382.471	64
382.681	45.57
382.891	98.81
383.101	78.33
383.311	45.57
383.521	64
383.731	14.85
383.941	43.52
384.151	55.81
384.361	31.23
384.571	49.66
384.781	39.42
384.991	53.76
385.201	29.18
385.411	33.28
385.621	57.86
385.831	70.14
386.041	55.81
386.251	29.18
386.461	49.66
386.671	37.38
386.881	113.15
387.091	53.76
387.301	70.14
387.511	43.52
387.72	98.81
387.93	-13.82
388.14	33.28
388.35	57.86
388.56	70.14
388.769	37.38
388.979	23.04
389.189	-30.21
389.399	113.15
389.609	76.29
389.818	31.23
390.028	66.05
390.238	61.95
390.447	45.57
390.657	115.2
390.867	66.05
391.076	47.62
391.286	37.38
391.496	45.57
391.705	-32.26
391.915	102.91
392.125	25.09
392.334	-46.59
392.544	80.38
392.753	45.57
392.963	86.53
393.172	31.23
393.382	-85.5
393.591	94.72
393.801	55.81
394.01	90.62
394.22	64
394.429	59.9
394.639	86.53
394.848	49.66
395.058	64
395.267	76.29
395.477	72.19
395.686	6.66
395.895	156.16
396.105	66.05
396.314	14.85
396.524	94.72
396.733	45.57
396.942	94.72
397.152	86.53
397.361	37.38
397.57	18.94
397.78	92.67
397.989	49.66
398.198	86.53
398.407	86.53
398.617	47.62
398.826	33.28
399.035	115.2
399.244	43.52
399.453	125.44
399.663	33.28
399.872	45.57
400.081	31.23
400.29	86.53
400.499	45.57
400.708	102.91
400.917	78.33
401.127	61.95
401.336	18.94
401.545	164.35
401.754	119.29
401.963	88.57
402.172	53.76
402.381	115.2
402.59	66.05
402.799	29.18
403.008	98.81
403.217	84.48
403.426	51.71
403.635	29.18
403.844	41.47
404.053	102.91
404.262	53.76
404.471	88.57
404.68	145.92
404.888	137.73
405.097	154.11
405.306	96.77
405.515	131.58
405.724	121.34
405.933	137.73
406.142	137.73
406.35	201.21
406.559	203.26
406.768	107.01
406.977	162.3
407.185	86.53
407.394	197.12
407.603	145.92
407.812	154.11
408.02	147.97
408.229	133.63
408.438	170.49
408.646	113.15
408.855	152.06
409.064	197.12
409.272	233.98
409.481	258.56
409.69	170.49
409.898	203.26
410.107	209.4
410.315	274.94
410.524	178.69
410.733	219.64
410.941	250.36
411.15	326.14
411.358	223.74
411.567	344.57
411.775	279.04
411.984	291.32
412.192	307.71
412.401	215.55
412.609	301.56
412.818	406.01
413.026	324.09
413.234	414.2
413.443	332.28
413.651	360.95
413.86	389.63
414.068	438.78
414.276	438.78
414.485	397.82
414.693	432.63
414.901	520.7
415.11	371.19
415.318	410.11
415.526	569.85
415.734	532.98
415.943	623.09
416.151	582.14
416.359	553.46
416.567	643.57
416.776	637.43
416.984	578.04
417.192	700.92
417.4	692.73
417.608	662.01
417.817	692.73
418.025	727.54
418.233	807.41
418.441	741.88
418.649	778.74
418.857	815.6
419.065	1014.26
419.273	807.41
419.481	852.47
419.689	1004.02
419.897	979.44
420.105	999.92
420.313	1012.21
420.521	1085.94
420.729	1114.61
420.937	1122.8
421.145	1169.9
421.353	1139.18
421.561	1253.87
421.769	1290.73
421.977	1382.89
422.185	1335.79
422.393	1380.84
422.601	1481.19
422.809	1599.98
423.017	1454.57
423.224	1677.8
423.432	1696.23
423.64	1599.98
423.848	1802.72
424.056	1720.81
424.263	1872.36
424.471	1751.53
424.679	1886.69
424.887	2021.86
425.094	1995.23
425.302	2120.16
425.51	2036.19
425.718	2240.99
425.925	2335.2
426.133	2304.48
426.341	2515.42
426.548	2666.97
426.756	2441.69
426.964	2576.86
427.171	2748.89
427.379	2830.8
427.586	2787.8
427.794	2980.31
428.001	3004.88
428.209	3314.13
428.417	3088.85
428.624	3326.41
428.832	3398.09
429.039	3373.52
429.247	3310.03
429.454	3580.36
429.662	3949
429.869	3606.98
430.076	3877.32
430.284	3748.29
430.491	3989.96
430.699	4145.6
430.906	4190.66
431.114	4381.12
431.321	4403.64
431.528	4538.81
431.736	4774.33
431.943	5044.66
432.15	4841.91
432.358	4960.69
432.565	5181.87
432.772	5110.19
432.979	5267.89
433.187	5478.83
433.394	5497.26
433.601	5722.54
433.808	5853.61
434.016	5775.78
434.223	6140.32
434.43	6605.21
434.637	6255.01
434.844	6781.34
435.052	6726.04
435.259	6943.13
435.466	6812.06
435.673	6861.21
435.88	7313.81
436.087	7735.69
436.294	7643.53
436.501	7440.78
436.708	7563.66
436.915	7987.59
437.122	8302.98
437.329	8034.69
437.537	8583.55
437.743	8556.93
437.95	8522.11
438.157	8995.19
438.364	9269.62
438.571	9341.3
438.778	9329.01
438.985	10199.4
439.192	9781.61
439.399	10058.09
439.606	9744.75
439.813	10498.4
440.02	11204.95
440.227	10672.48
440.433	10799.45
440.64	11170.13
440.847	11022.68
441.054	11266.39
441.261	11997.51
441.467	11909.45
441.674	11977.03
441.881	12521.79
442.088	12292.42
442.294	12253.51
442.501	12785.98
442.708	12767.55
442.914	13394.23
443.121	13926.7
443.328	13613.36
443.534	14584.1
443.741	14039.34
443.948	13730.09
444.154	14952.73
444.361	14766.37
444.568	14983.45
444.774	15227.16
444.981	15145.24
445.187	15427.86
445.394	16247.05
445.6	16005.39
445.807	17422.58
446.013	16623.87
446.22	16996.6
446.426	17586.42
446.633	17928.43
446.839	18567.4
447.046	17852.66
447.252	18829.54
447.459	18518.25
447.665	18643.17
447.871	19683.54
448.078	20570.31
448.284	19419.35
448.491	19953.87
448.697	20740.29
448.903	21053.63
449.11	21129.41
449.316	20938.94
449.522	20990.14
449.728	21635.25
449.935	22218.92
450.141	22108.33
450.347	22532.26
450.553	21903.54
450.76	22126.77
450.966	22491.3
451.172	22526.12
451.378	23433.37
451.584	22810.79
451.791	23197.85
451.997	22943.91
452.203	23521.43
452.409	23658.65
452.615	23406.75
452.821	22997.15
453.027	22356.14
453.233	23593.11
453.44	23015.58
453.646	22884.51
453.852	23052.45
454.058	23423.13
454.264	22876.32
454.47	23087.26
454.676	22837.41
454.882	23660.69
455.088	21549.24
455.294	21500.09
455.5	22169.77
455.705	22470.83
455.911	21592.25
456.117	21072.06
456.323	20932.8
456.529	19675.35
456.735	20631.75
456.941	20160.72
457.147	19910.86
457.352	19257.56
457.558	19099.87
457.764	19261.66
457.97	18833.63
458.176	18387.18
458.381	18151.66
458.587	17295.61
458.793	17393.91
458.999	16646.4
459.204	17662.19
459.41	17189.11
459.616	15917.33
459.821	16226.57
460.027	15972.62
460.233	15565.07
460.438	14803.23
460.644	15104.28
460.85	14293.29
461.055	14020.91
461.261	14221.61
461.466	13058.36
461.672	12865.85
461.878	13517.11
462.083	12849.47
462.289	12284.23
462.494	12390.72
462.7	11837.77
462.905	11653.45
463.111	11950.41
463.316	11876.68
463.522	11753.8
463.727	11800.91
463.932	11733.32
464.138	11579.73
464.343	11571.54
464.549	11311.44
464.754	11637.07
464.959	11573.58
465.165	11434.32
465.37	11055.45
465.575	10606.94
465.781	11112.79
465.986	11231.57
466.191	10654.05
466.397	10606.94
466.602	10004.84
466.807	10643.81
467.012	10520.93
467.218	10447.2
467.423	10205.54
467.628	10465.63
467.833	10615.13
468.038	10432.86
468.244	9869.67
468.449	10508.64
468.654	9996.65
468.859	9935.21
469.064	9773.42
469.269	9722.22
469.474	9605.49
469.679	9793.9
469.885	9732.46
470.09	9554.29
470.295	9666.92
470.5	9353.59
470.705	9474.42
470.91	9400.69
471.115	9245.04
471.32	9173.36
471.525	9380.21
471.73	9220.47
471.935	9050.49
472.139	8581.5
472.344	8788.35
472.549	8880.5
472.754	8552.83
472.959	8649.08
473.164	8294.79
473.369	8180.1
473.574	8489.34
473.778	8458.62
473.983	8386.94
474.188	8208.77
474.393	7887.24
474.598	7944.58
474.802	7795.08
475.007	7745.93
475.212	7899.53
475.417	7696.78
475.621	7559.56
475.826	7659.92
476.031	7516.56
476.235	7184.79
476.44	7436.69
476.645	7352.72
476.849	7491.98
477.054	7149.97
477.259	7033.24
477.463	7053.72
477.668	6797.72
477.872	7152.02
478.077	7051.67
478.282	6740.38
478.486	6754.71
478.691	6691.23
478.895	6631.83
479.1	6513.05
479.304	6560.16
479.509	6519.2
479.713	6670.75
479.918	6324.64
480.122	6171.04
480.326	6306.21
480.531	6136.23
480.735	6222.24
480.94	6156.71
481.144	6351.26
481.348	6082.98
481.553	6113.7
481.757	6025.64
481.961	6052.26
482.166	6166.95
482.37	6082.98
482.574	6177.19
482.778	6025.64
482.983	6324.64
483.187	5980.58
483.391	6140.32
483.595	6152.61
483.8	6103.46
484.004	6132.13
484.208	6173.09
484.412	5962.15
484.616	6095.27
484.821	6222.24
485.025	5845.41
485.229	6054.31
485.433	6160.8
485.637	5880.23
485.841	6046.12
486.045	6011.3
486.249	6205.86
486.453	5906.85
486.657	6183.33
486.861	6338.98
487.065	5906.85
487.269	6078.88
487.473	5937.57
487.677	6050.21
487.881	6150.56
488.085	6068.64
488.289	6123.94
488.493	6042.02
488.697	6189.47
488.901	6082.98
489.105	6160.8
489.309	5968.29
489.512	6123.94
489.716	6115.75
489.92	6023.59
490.124	6082.98
490.328	6179.23
490.531	6287.78
490.735	6162.85
490.939	6353.31
491.143	6183.33
491.346	6164.9
491.55	6263.2
491.754	6279.58
491.958	6443.42
492.161	6314.4
492.365	6388.13
492.569	6269.34
492.772	6369.69
492.976	6615.45
493.18	6476.19
493.383	6752.66
493.587	6586.78
493.79	6674.84
493.994	6562.2
494.197	6658.46
494.401	6676.89
494.605	6613.4
494.808	6832.54
495.012	6760.86
495.215	6848.92
495.419	7033.24
495.622	6879.64
495.825	6971.8
496.029	7311.76
496.232	7182.74
496.436	7176.59
496.639	7209.36
496.843	7293.33
497.046	7233.94
497.249	7801.22
497.453	7559.56
497.656	7606.67
497.859	7723.4
498.063	7733.64
498.266	8028.55
498.469	7852.42
498.673	7827.85
498.876	7999.88
499.079	8141.19
499.282	8114.56
499.485	8345.98
499.689	8194.43
499.892	8436.1
500.095	8536.45
500.298	8663.42
500.501	8597.88
500.705	8706.43
500.908	8864.12
501.111	9093.49
501.314	9132.4
501.517	9214.32
501.72	9179.51
501.923	9353.59
502.126	9312.63
502.329	9746.8
502.532	9711.98
502.735	9959.78
502.938	9933.16
503.141	9941.35
503.344	10207.59
503.547	10334.56
503.75	10195.3
503.953	10320.23
504.156	10758.49
504.359	10813.79
504.562	10475.87
504.765	10914.14
504.968	10926.43
505.17	11161.94
505.373	11116.89
505.576	11207
505.779	11573.58
505.982	11575.63
506.185	11858.25
506.387	11723.09
506.59	11718.99
506.793	12269.89
506.996	12247.37
507.198	12480.83
507.401	12431.68
507.604	12783.93
507.807	12818.75
508.009	13099.32
508.212	13224.25
508.415	13254.97
508.617	13234.49
508.82	13244.73
509.022	13127.99
509.225	13744.43
509.428	13973.8
509.63	13756.72
509.833	14057.77
510.035	14414.12
510.238	14133.54
510.44	14254.37
510.643	14598.43
510.845	14635.3
511.048	14782.75
511.25	14887.2
511.453	15098.14
511.655	15458.58
511.858	15524.12
512.06	15565.07
512.262	15898.89
512.465	15624.47
512.667	15866.13
512.87	16070.92
513.072	16234.76
513.274	16642.31
513.477	16718.08
513.679	16974.08
513.881	16773.38
514.084	16867.58
514.286	17252.6
514.488	17344.76
514.69	17799.41
514.893	17854.7
515.095	17895.66
515.297	18012.4
515.499	18051.31
515.701	18125.04
515.904	18370.79
516.106	18680.03
516.308	18778.34
516.51	19122.4
516.712	19097.82
516.914	19013.85
517.116	19491.03
517.318	19501.27
517.52	19470.55
517.722	19976.4
517.925	20107.47
518.127	20469.96
518.329	20435.14
518.531	20429
518.733	20746.44
518.935	21033.15
519.136	20873.41
519.338	21328.06
519.54	21596.34
519.742	21606.58
519.944	21395.64
520.146	21784.76
520.348	22196.4
520.55	22116.53
520.752	22335.66
520.954	22886.56
521.155	22503.59
521.357	22884.51
521.559	22925.47
521.761	23509.15
521.963	23312.54
522.164	23873.68
522.366	23885.97
522.568	23609.5
522.77	23797.91
522.971	24465.55
523.173	24277.13
523.375	24318.09
523.576	24230.03
523.778	24404.11
523.98	24680.58
524.181	24776.84
524.383	24850.56
524.584	25530.49
524.786	25131.14
524.988	25327.74
525.189	25593.98
525.391	25897.08
525.592	25976.95
525.794	25907.32
525.995	26118.26
526.197	25913.46
526.398	26058.87
526.6	26773.61
526.801	26310.77
527.003	26357.87
527.204	26513.52
527.406	26683.5
527.607	26859.62
527.808	26992.74
528.01	26763.37
528.211	27064.42
528.412	27578.46
528.614	27195.49
528.815	27285.6
529.016	27711.58
529.218	27189.35
529.419	27457.63
529.62	27701.34
529.822	27457.63
530.023	27875.41
530.224	27564.12
530.425	27531.36
530.626	27588.7
530.828	27240.54
531.029	28108.88
531.23	27570.27
531.431	27732.06
531.632	27994.2
531.833	27695.19
532.035	28176.47
532.236	27916.37
532.437	28188.75
532.638	27803.74
532.839	28340.3
533.04	28457.04
533.241	27850.84
533.442	28547.15
533.643	28293.2
533.844	28010.58
534.045	28295.25
534.246	28260.43
534.447	28313.68
534.648	27684.95
534.849	28033.11
535.05	28072.02
535.251	28225.62
535.451	28149.84
535.652	28368.98
535.853	28428.37
536.054	28291.15
536.255	28416.08
536.456	27934.81
536.657	28244.05
536.857	28301.39
537.058	28090.45
537.259	28571.72
537.46	28164.18
537.66	27986
537.861	28188.75
538.062	27883.61
538.263	28467.28
538.463	28235.86
538.664	28194.9
538.865	28291.15
539.065	28112.98
539.266	28080.21
539.466	28579.92
539.667	28209.23
539.868	28305.49
540.068	28176.47
540.269	28276.82
540.469	28041.3
540.67	28211.28
540.87	28125.27
541.071	27795.54
541.271	28139.6
541.472	28143.7
541.672	27877.46
541.873	27979.86
542.073	27586.65
542.274	28282.96
542.474	27943
542.675	27635.8
542.875	27891.8
543.075	27914.33
543.276	27611.23
543.476	28405.84
543.676	27658.33
543.877	28332.11
544.077	28123.22
544.277	27920.47
544.478	28108.88
544.678	27830.36
544.878	27629.66
545.078	28067.92
545.279	27832.41
545.479	27725.91
545.679	27813.98
545.879	27967.57
546.079	27727.96
546.28	27916.37
546.48	27512.92
546.68	27867.22
546.88	27908.18
547.08	27742.3
547.28	27678.81
547.48	27635.8
547.68	27689.05
547.88	27605.08
548.081	27879.51
548.281	27854.93
548.481	27897.94
548.681	28018.77
548.881	27723.86
549.081	27535.45
549.28	27394.14
549.48	27494.49
549.68	27254.88
549.88	28141.65
550.08	27760.73
550.28	27805.78
550.48	27621.47
550.68	27480.16
550.88	27646.04
551.08	27490.4
551.279	27613.27
551.479	27287.65
551.679	27523.16
551.879	27699.29
552.079	27523.16
552.278	27521.12
552.478	27615.32
552.678	27404.38
552.878	27617.37
553.077	27603.03
553.277	27496.54
553.477	27822.17
553.676	27265.12
553.876	27457.63
554.076	27496.54
554.275	27385.95
554.475	27134.05
554.674	27758.68
554.874	27459.68
555.074	27060.32
555.273	27238.5
555.473	27220.06
555.672	26873.96
555.872	27080.8
556.071	27367.52
556.271	27439.2
556.47	27048.04
556.67	26888.29
556.869	27199.58
557.068	27160.67
557.268	26880.1
557.467	27017.32
557.667	26955.88
557.866	27027.56
558.065	26927.21
558.265	26681.45
558.464	26544.23
558.663	26996.84
558.863	26337.39
559.062	27060.32
559.261	26232.94
559.461	26706.02
559.66	26187.89
559.859	26792.04
560.058	26296.43
560.258	26437.74
560.457	26419.31
560.656	26560.62
560.855	26290.29
561.054	26599.53
561.253	26108.02
561.453	26181.74
561.652	26298.48
561.851	26339.44
562.05	25913.46
562.249	26239.09
562.448	26273.9
562.647	26136.69
562.846	25856.12
563.045	26085.49
563.244	25979
563.443	25991.28
563.642	25706.62
563.841	25929.84
564.04	25391.23
564.239	26013.81
564.438	25534.59
564.637	25774.2
564.836	25692.28
565.035	25340.03
565.234	25360.51
565.432	25127.04
565.631	25155.71
565.83	25342.08
566.029	25335.93
566.228	25129.09
566.427	25002.11
566.625	25098.37
566.824	24727.69
567.023	24987.78
567.222	24838.28
567.42	24737.93
567.619	24850.56
567.818	24834.18
568.016	24471.69
568.215	25065.6
568.414	24402.06
568.612	24752.26
568.811	24320.14
569.01	24535.18
569.208	24017.04
569.407	24404.11
569.605	24197.26
569.804	24420.49
570.002	23957.65
570.201	24277.13
570.4	23875.73
570.598	23840.92
570.797	23713.94
570.995	23969.94
571.193	23367.84
571.392	23728.28
571.59	23779.48
571.789	23548.06
571.987	23304.35
572.186	23181.47
572.384	23478.43
572.582	23312.54
572.781	23619.74
572.979	23077.02
573.177	23144.61
573.376	23431.32
573.574	22679.72
573.772	23144.61
573.971	23074.98
574.169	22827.17
574.367	22950.05
574.565	22999.2
574.763	22728.87
574.962	22464.68
575.16	22597.8
575.358	22485.16
575.556	22206.64
575.754	22681.77
575.952	22329.52
576.151	22589.61
576.349	22313.13
576.547	22151.34
576.745	22247.6
576.943	22409.39
577.141	22083.76
577.339	21848.24
577.537	21954.74
577.735	22061.23
577.933	21561.53
578.131	21688.5
578.329	21493.94
578.527	21512.38
578.725	21692.6
578.923	21708.98
579.121	21596.34
579.319	21657.78
579.516	21631.16
579.714	21485.75
579.912	21223.61
580.11	21395.64
580.308	21145.79
580.506	21287.1
580.704	20789.44
580.901	21043.39
581.099	21080.25
581.297	20693.19
581.495	20912.32
581.692	20930.75
581.89	20814.02
582.088	20912.32
582.285	20707.52
582.483	20877.51
582.681	20463.82
582.878	20715.72
583.076	20424.9
583.274	20635.85
583.471	20474.06
583.669	20488.39
583.866	20060.37
584.064	20295.88
584.262	19878.1
584.459	20070.61
584.657	19923.15
584.854	19919.06
585.052	19816.66
585.249	19800.27
585.447	19699.92
585.644	19515.61
585.841	19763.41
586.039	19957.97
586.236	19470.55
586.434	19411.16
586.631	19402.97
586.828	19503.32
587.026	19452.12
587.223	19308.76
587.42	19427.54
587.618	19396.82
587.815	19239.13
588.012	19271.9
588.21	18673.89
588.407	19157.21
588.604	18729.19
588.801	18778.34
588.999	18811.1
589.196	18829.54
589.393	18690.27
589.59	18536.68
589.787	18487.53
589.984	18659.56
590.182	18086.12
590.379	18665.7
590.576	18428.13
590.773	18262.25
590.97	18159.85
591.167	18383.08
591.364	18079.98
591.561	18170.09
591.758	18108.65
591.955	17862.9
592.152	17985.77
592.349	17748.21
592.546	17936.62
592.743	17932.53
592.94	17699.06
593.137	17666.29
593.334	17748.21
593.531	17488.12
593.727	17858.8
593.924	17780.98
594.121	17223.93
594.318	17398.01
594.515	17205.5
594.712	17608.95
594.908	17088.76
595.105	17211.64
595.302	17047.8
595.499	17217.79
595.696	17078.52
595.892	16863.49
596.089	17082.62
596.286	16935.17
596.482	16943.36
596.679	16791.81
596.876	16810.24
597.072	16611.59
597.269	16513.28
597.466	16668.93
597.662	16437.51
597.859	16584.96
598.055	16509.19
598.252	16544
598.448	16593.15
598.645	16236.81
598.841	16077.07
599.038	16163.08
599.234	16245
599.431	16216.33
599.627	16101.64
599.824	15974.67
600.02	16085.26
600.217	16081.16
600.413	15851.79
600.609	15667.47
600.806	15749.39
601.002	15833.36
601.198	15849.74
601.395	15421.72
601.591	15638.8
601.787	15790.35
601.984	15472.92
602.18	15823.12
602.376	15747.34
602.572	15200.54
602.769	15335.7
602.965	15315.22
603.161	15241.5
603.357	15229.21
603.553	15175.96
603.75	15122.71
603.946	14891.29
604.142	14942.49
604.338	14725.41
604.534	15040.79
604.73	14577.95
604.926	14657.82
605.122	14897.44
605.318	14414.12
605.514	14506.27
605.71	14491.94
605.906	14358.82
606.102	14623.01
606.298	14381.35
606.494	14410.02
606.69	14487.84
606.886	14373.16
607.082	13941.04
607.278	14317.86
607.474	14215.46
607.67	14299.43
607.866	13791.53
608.062	14274.85
608.257	14115.11
608.453	14061.87
608.649	14029.1
608.845	14096.68
609.041	13938.99
609.236	14242.09
609.432	13951.28
609.628	14000.43
609.824	13793.58
610.019	13947.18
610.215	13963.56
610.411	13924.65
610.606	13658.42
610.802	14031.15
610.998	13793.58
611.193	13844.78
611.389	13556.02
611.584	13631.79
611.78	13642.03
611.976	13457.71
612.171	13637.94
612.367	13506.87
612.562	13326.64
612.758	13068.6
612.953	13332.79
613.149	13578.54
613.344	13089.08
613.539	13214.01
613.735	13308.21
613.93	13218.1
614.126	13027.64
614.321	13410.61
614.517	13041.98
614.712	13234.49
614.907	13009.21
615.103	13179.19
615.298	12998.97
615.493	13336.88
615.688	12972.35
615.884	13054.26
616.079	12720.45
616.274	13015.35
616.47	12865.85
616.665	13078.84
616.86	12773.69
617.055	12763.45
617.25	12824.89
617.445	12777.79
617.641	12654.91
617.836	12638.53
618.031	12538.18
618.226	12710.21
618.421	12589.38
618.616	12865.85
618.811	12421.44
619.006	12636.48
619.201	12429.63
619.396	12470.59
619.591	12091.72
619.786	12333.38
619.981	12298.56
620.176	12233.03
620.371	12003.66
620.566	12120.39
620.761	11968.84
620.956	12130.63
621.151	11923.79
621.346	11974.99
621.541	11895.11
621.735	11819.34
621.93	11614.54
622.125	11704.65
622.32	11571.54
622.515	11571.54
622.709	11434.32
622.904	11538.77
623.099	11233.62
623.294	11381.07
623.488	11309.4
623.683	11374.93
623.878	10928.47
624.072	11272.53
624.267	11145.56
624.462	10946.9
624.656	10916.19
624.851	10815.83
625.046	10662.24
625.24	10486.11
625.435	10748.25
625.629	10598.75
625.824	10359.14
626.018	10611.04
626.213	10383.71
626.407	10404.19
626.602	10199.4
626.796	10375.52
626.991	10312.03
627.185	10142.05
627.38	10160.48
627.574	9994.6
627.768	9947.5
627.963	9974.12
628.157	9771.37
628.352	9752.94
628.546	9820.52
628.74	9726.32
628.935	9677.16
629.129	9662.83
629.323	9482.61
629.517	9599.34
629.712	9638.25
629.906	9478.51
630.1	9369.97
630.294	9363.83
630.489	9122.16
630.683	9310.58
630.877	8884.6
631.071	9066.87
631.265	9388.4
631.459	9005.43
631.653	8960.38
631.848	8868.22
632.042	8892.79
632.236	8700.28
632.43	8771.96
632.624	8831.35
632.818	8788.35
633.012	8522.11
633.206	8577.41
633.4	8626.56
633.594	8452.48
633.788	8401.28
633.982	8462.72
634.176	8382.85
634.369	8313.22
634.563	8395.14
634.757	8339.84
634.951	8444.29
635.145	8354.18
635.339	8286.59
635.533	7926.15
635.726	8190.34
635.92	8059.27
636.114	8020.36
636.308	7950.73
636.501	7952.77
636.695	7928.2
636.889	7704.97
637.083	7762.31
637.276	7729.55
637.47	7860.62
637.664	7625.1
637.857	7559.56
638.051	7819.66
638.244	7539.08
638.438	7545.23
638.632	7709.07
638.825	7448.97
639.019	7319.95
639.212	7393.68
639.406	7344.53
639.599	7305.62
639.793	7258.51
639.986	6973.85
640.18	7238.03
640.373	7055.76
640.567	6988.18
640.76	7041.43
640.954	6869.4
641.147	6863.26
641.34	6951.32
641.534	6844.82
641.727	6787.48
641.92	6824.34
642.114	6844.82
642.307	6625.69
642.5	6703.51
642.694	6654.36
642.887	6732.19
643.08	6697.37
643.273	6478.24
643.467	6564.25
643.66	6373.79
643.853	6429.09
644.046	6453.66
644.239	6338.98
644.432	6328.74
644.626	6263.2
644.819	6472.09
645.012	6175.14
645.205	6263.2
645.398	6144.42
645.591	6160.8
645.784	6039.97
645.977	6123.94
646.17	6175.14
646.363	6025.64
646.556	5910.95
646.749	5853.61
646.942	5929.38
647.135	5915.05
647.328	6042.02
647.521	5779.88
647.714	5814.7
647.907	5747.11
648.099	5845.41
648.292	5798.31
648.485	5634.47
648.678	5593.51
648.871	5638.57
649.064	5628.33
649.256	5691.82
649.449	5413.29
649.642	5480.88
649.835	5337.52
650.027	5411.25
650.22	5460.4
650.413	5427.63
650.605	5456.3
650.798	5233.07
650.991	5419.44
651.183	5390.77
651.376	5200.3
651.568	5235.12
651.761	5247.41
651.954	5188.02
652.146	5165.49
652.339	5259.7
652.531	5110.19
652.724	5061.04
652.916	5065.14
653.109	4880.82
653.301	5091.76
653.494	4946.36
653.686	4796.85
653.879	4960.69
654.071	4925.88
654.263	4792.76
654.456	5026.23
654.648	4813.24
654.84	4835.77
655.033	4803
655.225	4678.07
655.417	4661.69
655.61	4635.07
655.802	4856.25
655.994	4702.65
656.186	4491.71
656.379	4524.47
656.571	4448.7
656.763	4598.2
656.955	4489.66
657.148	4415.93
657.34	4489.66
657.532	4469.18
657.724	4336.06
657.916	4540.86
658.108	4297.15
658.3	4243.9
658.492	4424.12
658.684	4192.7
658.876	4329.92
659.068	4379.07
659.26	4149.7
659.452	4368.83
659.644	4387.26
659.836	4172.22
660.028	4325.82
660.22	3985.86
660.412	4176.32
660.604	4047.3
660.796	4149.7
660.988	4061.63
661.18	4045.25
661.372	4053.44
661.563	4121.03
661.755	3924.42
661.947	3930.56
662.139	3920.32
662.331	3905.99
662.522	4004.29
662.714	3793.35
662.906	4004.29
663.097	3842.5
663.289	3834.31
663.481	3637.7
663.673	3731.91
663.864	3740.1
664.056	3883.46
664.247	3740.1
664.439	3674.57
664.631	3649.99
664.822	3768.77
665.014	3783.11
665.205	3699.14
665.397	3756.49
665.588	3576.27
665.78	3658.18
665.971	3533.26
666.163	3649.99
666.354	3576.27
666.546	3635.66
666.737	3500.49
666.929	3465.68
667.12	3432.91
667.311	3441.1
667.503	3424.72
667.694	3422.67
667.885	3461.58
668.077	3502.54
668.268	3365.32
668.459	3342.8
668.651	3363.28
668.842	3439.05
669.033	3353.04
669.224	3207.63
669.416	3496.39
669.607	3258.83
669.798	3373.52
669.989	3326.41
670.18	3273.17
670.371	3373.52
670.563	3297.74
670.754	3244.49
670.945	3281.36
671.136	3144.14
671.327	3215.82
671.518	3150.29
671.709	3256.78
671.9	3146.19
672.091	3285.45
672.282	3101.14
672.473	3080.66
672.664	3064.27
672.855	3156.43
673.046	3131.86
673.237	3072.47
673.428	2978.26
673.619	3029.46
673.809	3127.76
674	3015.12
674.191	3109.33
674.382	3111.38
674.573	3183.06
674.764	3084.75
674.954	3047.89
675.145	2937.3
675.336	2982.35
675.527	2982.35
675.717	3150.29
675.908	2957.78
676.099	2951.63
676.289	2970.07
676.48	3019.22
676.671	2945.49
676.861	2970.07
677.052	2982.35
677.243	2875.86
677.433	2955.73
677.624	3004.88
677.814	2972.11
678.005	2912.72
678.195	2970.07
678.386	2931.16
678.576	2929.11
678.767	2988.5
678.957	2824.66
679.148	2828.76
679.338	2912.72
679.529	2773.46
679.719	2968.02
679.909	3011.03
680.1	2920.92
680.29	2785.75
680.481	2834.9
680.671	2990.55
680.861	2949.59
681.052	2943.44
681.242	2879.96
681.432	2941.4
681.622	2839
681.813	2892.24
682.003	2894.29
682.193	2863.57
682.383	2836.95
682.573	2931.16
682.764	2945.49
682.954	2873.81
683.144	2709.97
683.334	2806.23
683.524	2816.47
683.714	2802.13
683.904	2830.8
684.094	2908.63
684.284	2755.03
684.474	2752.98
684.664	2795.99
684.854	2877.91
685.044	2871.76
685.234	2752.98
685.424	2791.89
685.614	2707.93
685.804	2822.61
685.994	2777.56
686.184	2853.33
686.374	2685.4
686.564	2617.82
686.753	2767.32
686.943	2685.4
687.133	2834.9
687.323	2759.13
687.513	2896.34
687.702	2730.45
687.892	2572.76
688.082	2576.86
688.272	2644.44
688.461	2580.95
688.651	2607.58
688.841	2560.47
689.03	2587.1
689.22	2644.44
689.41	2609.62
689.599	2537.95
689.789	2509.27
689.979	2562.52
690.168	2478.55
690.358	2486.75
690.547	2415.07
690.737	2544.09
690.926	2427.35
691.116	2519.51
691.305	2460.12
691.495	2384.35
691.684	2316.76
691.874	2490.84
692.063	2402.78
692.252	2437.59
692.442	2470.36
692.631	2464.22
692.82	2441.69
693.01	2437.59
693.199	2458.07
693.388	2240.99
693.578	2445.79
693.767	2257.37
693.956	2341.34
694.146	2249.18
694.335	2308.57
694.524	2306.52
694.713	2292.19
694.902	2185.69
695.092	2355.68
695.281	2281.95
695.47	2320.86
695.659	2193.89
695.848	2214.37
696.037	2167.26
696.226	2130.4
696.415	2251.23
696.604	2232.8
696.793	2163.17
696.982	2200.03
697.171	2175.45
697.36	2197.98
697.549	2154.98
697.738	2183.65
697.927	2142.69
698.116	2169.31
698.305	2032.1
698.494	2202.08
698.683	2093.54
698.872	2077.15
699.061	2249.18
699.25	2187.74
699.438	2126.3
699.627	2073.06
699.816	2073.06
700.005	2019.81
700.193	2138.59
700.382	2118.11
700.571	2154.98
700.76	2030.05
700.948	2228.7
701.137	1933.79
701.326	2128.35
701.514	2021.86
701.703	1997.28
701.892	2044.38
702.08	2062.82
702.269	2038.24
702.457	2034.14
702.646	2066.91
702.834	1917.41
703.023	2044.38
703.212	2036.19
703.4	2015.71
703.589	2003.43
703.777	2120.16
703.965	1991.14
704.154	2052.58
704.342	2091.49
704.531	1989.09
704.719	2028
704.907	1962.47
705.096	1991.14
705.284	1997.28
705.472	2050.53
705.661	2103.78
705.849	1929.7
706.037	2077.15
706.226	1948.13
706.414	2036.19
706.602	1970.66
706.79	2025.95
706.979	2062.82
707.167	2036.19
707.355	2068.96
707.543	1999.33
707.731	2030.05
707.919	1880.55
708.107	1929.7
708.296	1931.75
708.484	2034.14
708.672	1982.95
708.86	1976.8
709.048	2099.68
709.236	1888.74
709.424	1898.98
709.612	1911.27
709.8	1933.79
709.988	1966.56
710.176	1991.14
710.364	2001.38
710.551	1987.04
710.739	2167.26
710.927	1937.89
711.115	2042.34
711.303	2126.3
711.491	2040.29
711.679	2040.29
711.866	2085.34
712.054	2054.62
712.242	1946.08
712.43	1956.32
712.617	1978.85
712.805	2062.82
712.993	2142.69
713.181	1962.47
713.368	2017.76
713.556	2052.58
713.744	2116.06
713.931	2017.76
714.119	2060.77
714.306	1991.14
714.494	2025.95
714.682	2003.43
714.869	2019.81
715.057	2003.43
715.244	1978.85
715.432	1989.09
715.619	1999.33
715.807	2087.39
715.994	2169.31
716.182	2134.5
716.369	2011.62
716.556	2060.77
716.744	2021.86
716.931	2095.58
717.119	2105.82
717.306	2040.29
717.493	2093.54
717.681	2114.02
717.868	2179.55
718.055	2097.63
718.242	2150.88
718.43	2128.35
718.617	2105.82
718.804	2056.67
718.991	2177.5
719.179	2079.2
719.366	2128.35
719.553	2046.43
719.74	2109.92
719.927	2257.37
720.114	2120.16
720.301	2142.69
720.488	2081.25
720.676	2015.71
720.863	2218.46
721.05	2091.49
721.237	2175.45
721.424	2159.07
721.611	2052.58
721.798	2040.29
721.985	2167.26
722.172	2089.44
722.358	2181.6
722.545	2140.64
722.732	2136.54
722.919	1987.04
723.106	2085.34
723.293	2099.68
723.48	2060.77
723.667	2116.06
723.853	2154.98
724.04	2159.07
724.227	2322.91
724.414	2187.74
724.6	2120.16
724.787	2071.01
724.974	2134.5
725.161	2232.8
725.347	2281.95
725.534	2134.5
725.72	2171.36
725.907	2197.98
726.094	2177.5
726.28	2169.31
726.467	2105.82
726.653	2171.36
726.84	2202.08
727.027	2206.17
727.213	2073.06
727.4	2224.61
727.586	2134.5
727.773	2363.87
727.959	2247.13
728.145	2146.78
728.332	2202.08
728.518	2204.13
728.705	2210.27
728.891	2339.29
729.077	2240.99
729.264	2210.27
729.45	2304.48
729.636	2306.52
729.823	2243.04
730.009	2302.43
730.195	2333.15
730.382	2306.52
730.568	2245.09
730.754	2353.63
730.94	2257.37
731.126	2269.66
731.313	2355.68
731.499	2224.61
731.685	2365.92
731.871	2243.04
732.057	2288.09
732.243	2226.65
732.429	2306.52
732.615	2257.37
732.801	2331.1
732.987	2267.61
733.173	2245.09
733.359	2308.57
733.545	2208.22
733.731	2316.76
733.917	2306.52
734.103	2318.81
734.289	2327
734.475	2259.42
734.661	2339.29
734.847	2234.85
735.033	2273.76
735.219	2363.87
735.404	2388.44
735.59	2357.72
735.776	2298.33
735.962	2380.25
736.148	2458.07
736.333	2212.32
736.519	2251.23
736.705	2339.29
736.89	2300.38
737.076	2265.57
737.262	2240.99
737.447	2322.91
737.633	2306.52
737.819	2257.37
738.004	2251.23
738.19	2361.82
738.375	2363.87
738.561	2245.09
738.747	2296.28
738.932	2202.08
739.118	2327
739.303	2257.37
739.489	2232.8
739.674	2265.57
739.859	2341.34
740.045	2333.15
740.23	2413.02
740.416	2228.7
740.601	2163.17
740.786	2277.85
740.972	2208.22
741.157	2136.54
741.342	2185.69
741.528	2212.32
741.713	2327
741.898	2253.28
742.084	2126.3
742.269	2179.55
742.454	2288.09
742.639	2288.09
742.824	2267.61
743.01	2191.84
743.195	2152.93
743.38	2224.61
743.565	2208.22
743.75	2167.26
743.935	2187.74
744.12	2157.02
744.305	2093.54
744.49	2148.83
744.675	2159.07
744.86	2081.25
745.045	2179.55
745.23	2032.1
745.415	2095.58
745.6	2195.93
745.785	2046.43
745.97	2068.96
746.155	2087.39
746.34	1987.04
746.525	1903.07
746.71	1995.23
746.895	2028
747.079	1970.66
747.264	2075.1
747.449	2032.1
747.634	1993.19
747.819	2085.34
748.003	2001.38
748.188	1982.95
748.373	2093.54
748.557	1892.84
748.742	1751.53
748.927	1946.08
749.111	1901.03
749.296	1974.75
749.481	1972.71
749.665	1860.07
749.85	1876.45
750.034	1872.36
750.219	1855.97
750.404	1769.96
750.588	1778.15
750.773	1778.15
750.957	1683.94
751.141	1774.05
751.326	1716.71
751.51	1726.95
751.695	1669.61
751.879	1743.33
752.064	1753.57
752.248	1759.72
752.432	1792.48
752.617	1647.08
752.801	1767.91
752.985	1729
753.17	1647.08
753.354	1634.79
753.538	1581.54
753.722	1614.31
753.907	1606.12
754.091	1503.72
754.275	1610.22
754.459	1454.57
754.643	1470.95
754.828	1481.19
755.012	1507.82
755.196	1479.15
755.38	1491.43
755.564	1536.49
755.748	1391.08
755.932	1518.06
756.116	1477.1
756.3	1532.39
756.484	1384.94
756.668	1497.58
756.852	1530.34
757.036	1440.23
757.22	1495.53
757.404	1319.4
757.588	1448.43
757.772	1307.12
757.956	1458.67
758.14	1429.99
758.323	1429.99
758.507	1458.67
758.691	1319.4
758.875	1401.32
759.059	1341.93
759.242	1325.55
759.426	1294.83
759.61	1288.68
759.794	1366.51
759.977	1290.73
760.161	1315.31
760.345	1329.64
760.528	1272.3
760.712	1282.54
760.895	1305.07
761.079	1257.96
761.263	1311.21
761.446	1221.1
761.63	1229.29
761.813	1217.01
761.997	1151.47
762.18	1153.52
762.364	1194.48
762.547	1081.84
762.731	1249.77
762.914	1249.77
763.098	1122.8
763.281	1124.85
763.464	1061.36
763.648	1126.89
763.831	1094.13
764.015	1114.61
764.198	1071.6
764.381	1098.22
764.564	1161.71
764.748	1044.98
764.931	1061.36
765.114	1126.89
765.297	1090.03
765.481	1118.7
765.664	1135.09
765.847	1053.17
766.03	1077.74
766.213	1102.32
766.397	1057.26
766.58	1087.98
766.763	1055.22
766.946	1028.59
767.129	1047.02
767.312	922.1
767.495	1094.13
767.678	963.06
767.861	1061.36
768.044	971.25
768.227	940.53
768.41	954.87
768.593	1073.65
768.776	1104.37
768.959	963.06
769.142	989.68
769.324	938.48
769.507	940.53
769.69	995.82
769.873	881.14
770.056	999.92
770.239	956.91
770.421	1036.78
770.604	938.48
770.787	893.43
770.97	946.67
771.152	852.47
771.335	905.71
771.518	948.72
771.7	971.25
771.883	926.19
772.066	934.39
772.248	911.86
772.431	944.63
772.613	852.47
772.796	872.95
772.978	860.66
773.161	825.84
773.343	870.9
773.526	793.08
773.708	791.03
773.891	801.27
774.073	848.37
774.256	813.56
774.438	954.87
774.621	840.18
774.803	874.99
774.985	801.27
775.168	815.6
775.35	815.6
775.532	834.04
775.715	793.08
775.897	803.32
776.079	791.03
776.261	725.49
776.444	715.25
776.626	692.73
776.808	686.58
776.99	727.54
777.173	651.77
777.355	764.4
777.537	717.3
777.719	694.77
777.901	782.84
778.083	717.3
778.265	662.01
778.447	745.97
778.629	653.81
778.811	694.77
778.993	733.68
779.175	735.73
779.357	684.53
779.539	700.92
779.721	596.47
779.903	561.66
780.085	621.05
780.267	631.29
780.449	666.1
780.631	592.37
780.812	633.33
780.994	627.19
781.176	561.66
781.358	547.32
781.54	578.04
781.721	623.09
781.903	633.33
782.085	518.65
782.267	553.46
782.448	479.74
782.63	532.98
782.812	594.42
782.993	498.17
783.175	563.7
783.357	600.57
783.538	471.54
783.72	465.4
783.901	498.17
784.083	506.36
784.264	508.41
784.446	479.74
784.627	506.36
784.809	565.75
784.99	492.02
785.172	473.59
785.353	481.78
785.535	455.16
785.716	444.92
785.897	430.59
786.079	428.54
786.26	547.32
786.441	463.35
786.623	430.59
786.804	440.83
786.985	446.97
787.167	479.74
787.348	401.91
787.529	498.17
787.71	459.26
787.891	430.59
788.073	430.59
788.254	385.53
788.435	487.93
788.616	467.45
788.797	379.39
788.978	397.82
789.159	324.09
789.34	506.36
789.522	365.05
789.703	459.26
789.884	420.35
790.065	416.25
790.246	360.95
790.427	324.09
790.607	434.68
790.788	418.3
790.969	389.63
791.15	365.05
791.331	350.71
791.512	295.42
791.693	438.78
791.874	381.43
792.054	424.44
792.235	389.63
792.416	344.57
792.597	360.95
792.778	356.86
792.958	391.67
793.139	352.76
793.32	356.86
793.5	287.23
793.681	449.02
793.862	410.11
794.042	371.19
794.223	317.95
794.404	301.56
794.584	201.21
794.765	274.94
794.945	365.05
795.126	365.05
795.306	332.28
795.487	291.32
795.667	301.56
795.848	283.13
796.028	309.76
796.209	248.32
796.389	311.8
796.57	307.71
796.75	307.71
796.93	373.24
797.111	244.22
797.291	272.89
797.471	356.86
797.652	285.18
797.832	299.52
798.012	389.63
798.192	258.56
798.373	233.98
798.553	217.6
798.733	252.41
798.913	274.94
799.093	338.43
799.274	307.71
799.454	291.32
799.634	240.12
799.814	184.83
799.994	287.23
800.174	330.23
800.354	256.51
800.534	250.36
800.714	217.6
800.894	258.56
801.074	160.25
801.254	238.08
801.434	242.17
801.614	258.56
801.794	248.32
801.974	782.84
802.154	195.07
802.334	256.51
802.514	291.32
802.693	254.46
802.873	225.79
803.053	336.38
803.233	274.94
803.413	209.4
803.592	260.6
803.772	188.93
803.952	274.94
804.131	221.69
804.311	272.89
804.491	285.18
804.67	139.77
804.85	221.69
805.03	211.45
805.209	266.75
805.389	258.56
805.568	201.21
805.748	184.83
805.928	209.4
806.107	231.93
806.287	258.56
806.466	260.6
806.646	164.35
806.825	176.64
807.004	258.56
807.184	266.75
807.363	223.74
807.543	205.31
807.722	123.39
807.901	250.36
808.081	233.98
808.26	180.73
808.439	260.6
808.619	221.69
808.798	176.64
808.977	184.83
809.156	217.6
809.336	121.34
809.515	168.45
809.694	145.92
809.873	231.93
810.052	195.07
810.231	223.74
810.411	207.36
810.59	178.69
810.769	197.12
810.948	250.36
811.127	176.64
811.306	170.49
811.485	127.49
811.664	287.23
811.843	170.49
812.022	154.11
812.201	135.68
812.38	152.06
812.559	266.75
812.737	168.45
812.916	160.25
813.095	201.21
813.274	147.97
813.453	164.35
813.632	182.78
813.811	195.07
813.989	107.01
814.168	147.97
814.347	109.05
814.526	115.2
814.704	162.3
814.883	182.78
815.062	96.77
815.24	141.82
815.419	61.95
815.598	135.68
815.776	78.33
815.955	178.69
816.133	152.06
816.312	115.2
816.49	111.1
816.669	217.6
816.847	205.31
817.026	158.21
817.204	123.39
817.383	170.49
817.561	86.53
817.74	139.77
817.918	152.06
818.097	121.34
818.275	162.3
818.453	102.91
818.632	176.64
818.81	102.91
818.988	100.86
819.167	180.73
819.345	115.2
819.523	119.29
819.701	119.29
819.879	193.02
820.058	145.92
820.236	76.29
820.414	113.15
820.592	123.39
820.77	102.91
820.948	111.1
821.127	127.49
821.305	131.58
821.483	72.19
821.661	115.2
821.839	107.01
822.017	137.73
822.195	170.49
822.373	119.29
822.551	225.79
822.729	123.39
822.907	102.91
823.085	66.05
823.262	72.19
823.44	102.91
823.618	8.7
823.796	201.21
823.974	82.43
824.152	125.44
824.329	123.39
824.507	98.81
824.685	193.02
824.863	39.42
825.04	82.43
825.218	131.58
825.396	74.24
825.574	96.77
825.751	96.77
825.929	133.63
826.107	162.3
826.284	94.72
826.462	152.06
826.639	53.76
826.817	80.38
826.994	193.02
827.172	107.01
827.349	205.31
827.527	90.62
827.704	98.81
827.882	104.96
828.059	152.06
828.237	74.24
828.414	115.2
828.591	90.62
828.769	164.35
828.946	119.29
829.124	70.14
829.301	156.16
829.478	82.43
829.655	131.58
829.833	133.63
830.01	98.81
830.187	147.97
830.364	33.28
830.542	78.33
830.719	111.1
830.896	139.77
831.073	20.99
831.25	94.72
831.427	72.19
831.604	94.72
831.782	39.42
831.959	72.19
832.136	16.9
832.313	115.2
832.49	57.86
832.667	-11.78
832.844	14.85
833.021	158.21
833.198	123.39
833.374	72.19
833.551	131.58
833.728	86.53
833.905	70.14
834.082	86.53
834.259	31.23
834.436	115.2
834.612	45.57
834.789	102.91
834.966	45.57
835.143	72.19
835.319	14.85
835.496	127.49
835.673	109.05
835.85	16.9
836.026	133.63
836.203	107.01
836.38	37.38
836.556	45.57
836.733	80.38
836.909	78.33
837.086	45.57
837.262	33.28
837.439	39.42
837.616	111.1
837.792	117.25
837.968	115.2
838.145	104.96
838.321	57.86
838.498	121.34
838.674	160.25
838.851	-34.3
839.027	20.99
839.203	4.61
839.38	113.15
839.556	70.14
839.732	59.9
839.909	88.57
840.085	-15.87
840.261	29.18
840.437	61.95
840.614	45.57
840.79	55.81
840.966	53.76
841.142	41.47
841.318	72.19
841.494	94.72
841.671	74.24
841.847	10.75
842.023	-24.06
842.199	86.53
842.375	33.28
842.551	37.38
842.727	6.66
842.903	150.01
843.079	20.99
843.255	37.38
843.431	49.66
843.607	115.2
843.783	-11.78
843.959	47.62
844.134	53.76
844.31	135.68
844.486	-19.97
844.662	70.14
844.838	57.86
845.013	70.14
845.189	78.33
845.365	18.94
845.541	25.09
845.716	37.38
845.892	96.77
846.068	72.19
846.244	-11.78
846.419	113.15
846.595	4.61
846.77	-26.11
846.946	16.9
847.122	20.99
847.297	66.05
847.473	137.73
847.648	53.76
847.824	51.71
847.999	0.51
848.175	68.09
848.35	39.42
848.526	70.14
848.701	41.47
848.876	51.71
849.052	78.33
849.227	23.04
849.403	-24.06
849.578	20.99
849.753	37.38
849.929	98.81
850.104	6.66
850.279	37.38
850.454	0.51
850.63	41.47
850.805	45.57
850.98	47.62
851.155	64
851.33	20.99
851.505	12.8
851.681	135.68
851.856	4.61
852.031	45.57
852.206	53.76
852.381	0.51
852.556	6.66
852.731	102.91
852.906	86.53
853.081	78.33
853.256	-11.78
853.431	96.77
853.606	-19.97
853.781	72.19
853.956	16.9
854.131	96.77
854.305	-1.54
854.48	20.99
854.655	-26.11
854.83	-24.06
855.005	68.09
855.18	90.62
855.354	41.47
855.529	49.66
855.704	37.38
855.879	23.04
856.053	-58.88
856.228	66.05
856.403	20.99
856.577	31.23
856.752	-46.59
856.926	86.53
857.101	-58.88
857.276	-52.74
857.45	25.09
857.625	59.9
857.799	8.7
857.974	98.81
858.148	-3.58
858.323	4.61
858.497	-19.97
858.672	29.18
858.846	27.14
859.02	70.14
859.195	51.71
859.369	8.7
859.543	16.9
859.718	49.66
859.892	-26.11
860.066	29.18
860.241	-28.16
860.415	0.51
860.589	-11.78
860.763	16.9
860.938	37.38
861.112	66.05
861.286	-50.69
861.46	31.23
861.634	78.33
861.808	90.62
861.982	18.94
862.157	8.7
862.331	90.62
862.505	-3.58
862.679	-28.16
862.853	-32.26
863.027	-15.87
863.201	154.11
863.375	-44.54
863.549	57.86
863.722	23.04
863.896	43.52
864.07	-24.06
864.244	14.85
864.418	0.51
864.592	68.09
864.766	-40.45
864.939	39.42
865.113	33.28
865.287	59.9
865.461	-15.87
865.634	0.51
865.808	39.42
865.982	43.52
866.156	47.62
866.329	4.61
866.503	94.72
866.676	-15.87
866.85	55.81
867.024	-24.06
867.197	-3.58
867.371	27.14
867.544	-3.58
867.718	-32.26
867.891	98.81
868.065	6.66
868.238	-3.58
868.412	-44.54
868.585	-13.82
868.759	-24.06
868.932	4.61
869.105	-19.97
869.279	51.71
869.452	4.61
869.625	61.95
869.799	53.76
869.972	-75.26
870.145	-1.54
870.319	70.14
870.492	-1.54
870.665	4.61
870.838	-3.58
871.011	-40.45
871.185	16.9
871.358	80.38
871.531	20.99
871.704	-42.5
871.877	18.94
872.05	-3.58
872.223	6.66
872.396	10.75
872.569	55.81
872.742	70.14
872.915	27.14
873.088	57.86
873.261	33.28
873.434	6.66
873.607	37.38
873.78	29.18
873.953	6.66
874.126	-75.26
874.299	29.18
874.471	-11.78
874.644	14.85
874.817	47.62
874.99	98.81
875.163	-50.69
875.335	-11.78
875.508	-26.11
875.681	66.05
875.853	-7.68
876.026	-11.78
876.199	12.8
876.371	-22.02
876.544	10.75
876.717	104.96
876.889	-13.82
877.062	-42.5
877.234	-95.74
877.407	12.8
877.579	31.23
877.752	2.56
877.924	45.57
878.097	-22.02
878.269	12.8
878.442	23.04
878.614	0.51
878.786	-28.16
878.959	-28.16
879.131	-79.36
879.303	-15.87
879.476	47.62
879.648	-7.68
879.82	61.95
879.993	31.23
880.165	-7.68
880.337	20.99
880.509	-3.58
880.681	-7.68
880.854	47.62
881.026	-11.78
881.198	113.15
881.37	-11.78
881.542	6.66
881.714	20.99
881.886	2.56
882.058	16.9
882.23	31.23
882.402	-89.6
882.574	45.57
882.746	8.7
882.918	20.99
883.09	-9.73
883.262	39.42
883.434	33.28
883.606	-40.45
883.778	20.99
883.95	86.53
884.122	-15.87
884.293	-3.58
884.465	29.18
884.637	27.14
884.809	-9.73
884.98	29.18
885.152	-15.87
885.324	66.05
885.496	-34.3
885.667	-28.16
885.839	16.9
886.011	41.47
886.182	4.61
886.354	31.23
886.525	57.86
886.697	45.57
886.869	12.8
887.04	-3.58
887.212	78.33
887.383	98.81
887.555	12.8
887.726	-28.16
887.897	-40.45
888.069	25.09
888.24	29.18
888.412	12.8
888.583	-3.58
888.754	-83.45
888.926	4.61
889.097	-15.87
889.268	-13.82
889.44	-36.35
889.611	-60.93
889.782	-5.63
889.953	-52.74
890.125	23.04
890.296	61.95
890.467	-24.06
890.638	37.38
890.809	35.33
890.98	-13.82
891.151	-34.3
891.323	-3.58
891.494	37.38
891.665	-17.92
891.836	-44.54
892.007	-26.11
892.178	8.7
892.349	10.75
892.52	-65.02
892.691	14.85
892.862	37.38
893.032	-24.06
893.203	-48.64
893.374	-32.26
893.545	-36.35
893.716	8.7
893.887	31.23
894.057	41.47
894.228	20.99
894.399	-28.16
894.57	55.81
894.74	29.18
894.911	20.99
895.082	-19.97
895.253	20.99
895.423	31.23
895.594	-26.11
895.764	-32.26
895.935	25.09
896.106	76.29
896.276	-17.92
896.447	16.9
896.617	70.14
896.788	-52.74
896.958	-7.68
897.129	33.28
897.299	-52.74
897.47	10.75
897.64	8.7
897.81	31.23
897.981	18.94
898.151	-50.69
898.322	-7.68
898.492	-1.54
898.662	-1.54
898.832	-3.58
899.003	-89.6
899.173	33.28
899.343	-34.3
899.513	-7.68
