Data from USB4F104151__53__14-43-07-181.txt Node

Date: Thu Mar 13 14:43:07 EDT 2025
User: louis
Spectrometer: USB4F10415
Trigger mode: 4
Integration Time (sec): 2.000000E-2
Scans to average: 1
Electric dark correction enabled: true
Nonlinearity correction enabled: false
Boxcar width: 0
XAxis mode: Wavelengths
Number of Pixels in Spectrum: 3648
>>>>>Begin Spectral Data<<<<<
178.204	-108.03
178.424	-108.03
178.644	-108.03
178.864	-62.98
179.084	-71.17
179.304	29.18
179.524	-24.06
179.744	-1.54
179.964	27.14
180.184	18.94
180.404	59.9
180.624	-1.54
180.844	16.9
181.064	-40.45
181.283	-54.78
181.503	-38.4
181.723	8.7
181.943	35.33
182.163	72.19
182.383	188.93
182.602	-15.87
182.822	96.77
183.042	59.9
183.262	23.04
183.482	-9.73
183.701	51.71
183.921	51.71
184.141	-34.3
184.361	23.04
184.58	-50.69
184.8	6.66
185.02	16.9
185.239	-32.26
185.459	47.62
185.679	145.92
185.898	-5.63
186.118	-5.63
186.338	47.62
186.557	80.38
186.777	-7.68
186.997	57.86
187.216	57.86
187.436	113.15
187.655	-1.54
187.875	25.09
188.095	-50.69
188.314	8.7
188.534	4.61
188.753	-1.54
188.973	47.62
189.192	10.75
189.412	14.85
189.631	10.75
189.851	14.85
190.07	64
190.29	10.75
190.509	88.57
190.729	6.66
190.948	64
191.168	129.53
191.387	59.9
191.607	6.66
191.826	-13.82
192.045	68.09
192.265	57.86
192.484	23.04
192.704	57.86
192.923	59.9
193.142	115.2
193.362	49.66
193.581	41.47
193.8	25.09
194.02	39.42
194.239	-17.92
194.458	14.85
194.678	72.19
194.897	74.24
195.116	-17.92
195.335	53.76
195.555	53.76
195.774	16.9
195.993	0.51
196.212	23.04
196.432	59.9
196.651	47.62
196.87	66.05
197.089	82.43
197.308	96.77
197.528	80.38
197.747	-32.26
197.966	47.62
198.185	80.38
198.404	-30.21
198.623	80.38
198.842	43.52
199.062	80.38
199.281	113.15
199.5	-24.06
199.719	47.62
199.938	4.61
200.157	104.96
200.376	33.28
200.595	14.85
200.814	72.19
201.033	33.28
201.252	90.62
201.471	55.81
201.69	107.01
201.909	25.09
202.128	59.9
202.347	55.81
202.566	82.43
202.785	41.47
203.004	-54.78
203.223	96.77
203.442	-1.54
203.661	55.81
203.879	74.24
204.098	39.42
204.317	70.14
204.536	4.61
204.755	88.57
204.974	129.53
205.193	96.77
205.411	72.19
205.63	57.86
205.849	88.57
206.068	70.14
206.287	49.66
206.505	98.81
206.724	2.56
206.943	55.81
207.162	-32.26
207.381	33.28
207.599	47.62
207.818	39.42
208.037	14.85
208.255	47.62
208.474	31.23
208.693	41.47
208.911	78.33
209.13	35.33
209.349	23.04
209.567	33.28
209.786	-22.02
210.005	-9.73
210.223	39.42
210.442	16.9
210.661	-1.54
210.879	16.9
211.098	92.67
211.316	37.38
211.535	109.05
211.753	53.76
211.972	88.57
212.191	68.09
212.409	6.66
212.628	100.86
212.846	-24.06
213.065	23.04
213.283	168.45
213.502	29.18
213.72	55.81
213.938	-9.73
214.157	4.61
214.375	90.62
214.594	31.23
214.812	-30.21
215.031	55.81
215.249	43.52
215.467	23.04
215.686	16.9
215.904	80.38
216.122	23.04
216.341	51.71
216.559	59.9
216.778	18.94
216.996	129.53
217.214	41.47
217.432	10.75
217.651	80.38
217.869	72.19
218.087	55.81
218.306	-13.82
218.524	82.43
218.742	35.33
218.96	51.71
219.179	82.43
219.397	0.51
219.615	121.34
219.833	80.38
220.051	2.56
220.27	23.04
220.488	98.81
220.706	37.38
220.924	59.9
221.142	14.85
221.36	-7.68
221.578	70.14
221.796	39.42
222.015	31.23
222.233	33.28
222.451	135.68
222.669	-11.78
222.887	80.38
223.105	-13.82
223.323	35.33
223.541	-42.5
223.759	64
223.977	27.14
224.195	129.53
224.413	76.29
224.631	39.42
224.849	-22.02
225.067	133.63
225.285	43.52
225.503	98.81
225.721	29.18
225.939	47.62
226.157	14.85
226.375	43.52
226.592	-11.78
226.81	64
227.028	72.19
227.246	96.77
227.464	2.56
227.682	76.29
227.9	113.15
228.117	33.28
228.335	39.42
228.553	80.38
228.771	25.09
228.989	123.39
229.206	47.62
229.424	68.09
229.642	64
229.86	-3.58
230.077	23.04
230.295	12.8
230.513	92.67
230.731	25.09
230.948	80.38
231.166	147.97
231.384	-19.97
231.601	64
231.819	6.66
232.037	-15.87
232.254	-28.16
232.472	64
232.689	-7.68
232.907	72.19
233.125	16.9
233.342	55.81
233.56	23.04
233.777	41.47
233.995	92.67
234.213	76.29
234.43	18.94
234.648	88.57
234.865	76.29
235.083	49.66
235.3	59.9
235.518	16.9
235.735	80.38
235.953	107.01
236.17	47.62
236.388	39.42
236.605	84.48
236.822	-1.54
237.04	39.42
237.257	6.66
237.475	23.04
237.692	-15.87
237.909	-46.59
238.127	57.86
238.344	66.05
238.562	31.23
238.779	90.62
238.996	27.14
239.214	-3.58
239.431	47.62
239.648	29.18
239.865	76.29
240.083	86.53
240.3	18.94
240.517	33.28
240.735	37.38
240.952	92.67
241.169	2.56
241.386	33.28
241.603	57.86
241.821	23.04
242.038	47.62
242.255	94.72
242.472	4.61
242.689	31.23
242.907	100.86
243.124	0.51
243.341	88.57
243.558	18.94
243.775	23.04
243.992	72.19
244.209	139.77
244.426	143.87
244.643	39.42
244.86	55.81
245.078	64
245.295	23.04
245.512	39.42
245.729	-5.63
245.946	31.23
246.163	27.14
246.38	-17.92
246.597	59.9
246.814	31.23
247.031	55.81
247.248	88.57
247.464	39.42
247.681	59.9
247.898	96.77
248.115	72.19
248.332	-5.63
248.549	72.19
248.766	125.44
248.983	55.81
249.2	43.52
249.417	55.81
249.633	51.71
249.85	72.19
250.067	31.23
250.284	43.52
250.501	39.42
250.717	59.9
250.934	33.28
251.151	61.95
251.368	64
251.585	47.62
251.801	23.04
252.018	39.42
252.235	-7.68
252.451	104.96
252.668	45.57
252.885	102.91
253.102	31.23
253.318	18.94
253.535	4.61
253.752	16.9
253.968	-19.97
254.185	55.81
254.401	-15.87
254.618	29.18
254.835	43.52
255.051	98.81
255.268	49.66
255.484	-1.54
255.701	90.62
255.917	74.24
256.134	76.29
256.351	23.04
256.567	-17.92
256.784	27.14
257	-7.68
257.217	45.57
257.433	0.51
257.65	-22.02
257.866	6.66
258.082	-54.78
258.299	-1.54
258.515	49.66
258.732	68.09
258.948	-22.02
259.165	43.52
259.381	66.05
259.597	51.71
259.814	129.53
260.03	96.77
260.246	4.61
260.463	37.38
260.679	55.81
260.895	109.05
261.112	66.05
261.328	39.42
261.544	-17.92
261.761	141.82
261.977	23.04
262.193	39.42
262.409	31.23
262.626	43.52
262.842	6.66
263.058	76.29
263.274	131.58
263.49	64
263.707	90.62
263.923	45.57
264.139	-1.54
264.355	107.01
264.571	72.19
264.787	119.29
265.004	39.42
265.22	43.52
265.436	8.7
265.652	39.42
265.868	66.05
266.084	49.66
266.3	59.9
266.516	66.05
266.732	55.81
266.948	70.14
267.164	47.62
267.38	86.53
267.596	29.18
267.812	113.15
268.028	41.47
268.244	66.05
268.46	78.33
268.676	150.01
268.892	-3.58
269.108	-9.73
269.324	-22.02
269.54	47.62
269.756	147.97
269.972	0.51
270.188	98.81
270.403	125.44
270.619	-38.4
270.835	80.38
271.051	31.23
271.267	64
271.483	31.23
271.698	31.23
271.914	29.18
272.13	57.86
272.346	72.19
272.562	82.43
272.777	23.04
272.993	84.48
273.209	45.57
273.425	59.9
273.64	68.09
273.856	80.38
274.072	76.29
274.287	33.28
274.503	18.94
274.719	49.66
274.934	55.81
275.15	51.71
275.366	-17.92
275.581	47.62
275.797	78.33
276.012	10.75
276.228	49.66
276.444	80.38
276.659	139.77
276.875	27.14
277.09	35.33
277.306	25.09
277.521	45.57
277.737	-5.63
277.952	107.01
278.168	133.63
278.383	88.57
278.599	47.62
278.814	66.05
279.03	45.57
279.245	129.53
279.461	55.81
279.676	66.05
279.892	51.71
280.107	70.14
280.322	23.04
280.538	31.23
280.753	61.95
280.969	80.38
281.184	29.18
281.399	49.66
281.615	-22.02
281.83	68.09
282.045	18.94
282.26	104.96
282.476	57.86
282.691	39.42
282.906	64
283.122	68.09
283.337	27.14
283.552	35.33
283.767	-9.73
283.983	76.29
284.198	37.38
284.413	0.51
284.628	92.67
284.843	64
285.058	156.16
285.274	104.96
285.489	55.81
285.704	100.86
285.919	39.42
286.134	178.69
286.349	23.04
286.564	64
286.779	74.24
286.995	113.15
287.21	16.9
287.425	80.38
287.64	64
287.855	41.47
288.07	72.19
288.285	100.86
288.5	-17.92
288.715	107.01
288.93	41.47
289.145	-15.87
289.36	64
289.575	39.42
289.79	35.33
290.004	59.9
290.219	45.57
290.434	-19.97
290.649	72.19
290.864	57.86
291.079	-7.68
291.294	8.7
291.509	39.42
291.724	2.56
291.938	-40.45
292.153	80.38
292.368	10.75
292.583	129.53
292.798	107.01
293.012	16.9
293.227	37.38
293.442	-11.78
293.657	33.28
293.871	29.18
294.086	14.85
294.301	115.2
294.516	111.1
294.73	23.04
294.945	-22.02
295.16	25.09
295.374	113.15
295.589	76.29
295.804	55.81
296.018	61.95
296.233	115.2
296.447	74.24
296.662	31.23
296.877	131.58
297.091	55.81
297.306	80.38
297.52	43.52
297.735	-22.02
297.949	80.38
298.164	76.29
298.378	-7.68
298.593	41.47
298.807	104.96
299.022	92.67
299.236	23.04
299.451	59.9
299.665	82.43
299.88	-38.4
300.094	49.66
300.309	64
300.523	29.18
300.737	100.86
300.952	49.66
301.166	66.05
301.381	72.19
301.595	23.04
301.809	84.48
302.024	49.66
302.238	43.52
302.452	74.24
302.667	98.81
302.881	4.61
303.095	33.28
303.309	55.81
303.524	84.48
303.738	96.77
303.952	53.76
304.166	72.19
304.381	64
304.595	43.52
304.809	35.33
305.023	20.99
305.237	14.85
305.452	107.01
305.666	51.71
305.88	61.95
306.094	86.53
306.308	27.14
306.522	47.62
306.736	68.09
306.95	72.19
307.164	-22.02
307.379	10.75
307.593	131.58
307.807	104.96
308.021	102.91
308.235	72.19
308.449	39.42
308.663	80.38
308.877	92.67
309.091	6.66
309.305	84.48
309.519	-1.54
309.733	25.09
309.947	2.56
310.161	76.29
310.374	76.29
310.588	51.71
310.802	-52.74
311.016	78.33
311.23	109.05
311.444	2.56
311.658	47.62
311.872	57.86
312.085	88.57
312.299	113.15
312.513	66.05
312.727	25.09
312.941	53.76
313.154	23.04
313.368	49.66
313.582	23.04
313.796	88.57
314.009	0.51
314.223	39.42
314.437	74.24
314.651	66.05
314.864	59.9
315.078	49.66
315.292	-26.11
315.505	-54.78
315.719	68.09
315.933	98.81
316.146	27.14
316.36	55.81
316.573	55.81
316.787	-22.02
317.001	55.81
317.214	47.62
317.428	137.73
317.641	-3.58
317.855	6.66
318.068	4.61
318.282	41.47
318.495	80.38
318.709	10.75
318.922	39.42
319.136	123.39
319.349	80.38
319.563	49.66
319.776	53.76
319.99	-30.21
320.203	92.67
320.417	23.04
320.63	72.19
320.843	150.01
321.057	82.43
321.27	88.57
321.483	49.66
321.697	109.05
321.91	88.57
322.124	27.14
322.337	76.29
322.55	64
322.763	90.62
322.977	98.81
323.19	23.04
323.403	80.38
323.617	0.51
323.83	49.66
324.043	-1.54
324.256	72.19
324.469	-9.73
324.683	25.09
324.896	-13.82
325.109	125.44
325.322	70.14
325.535	64
325.748	55.81
325.962	51.71
326.175	33.28
326.388	20.99
326.601	121.34
326.814	23.04
327.027	68.09
327.24	92.67
327.453	18.94
327.666	33.28
327.879	-1.54
328.092	2.56
328.305	35.33
328.518	-1.54
328.731	66.05
328.944	25.09
329.157	55.81
329.37	25.09
329.583	-5.63
329.796	137.73
330.009	33.28
330.222	72.19
330.435	20.99
330.648	88.57
330.861	78.33
331.073	111.1
331.286	70.14
331.499	35.33
331.712	47.62
331.925	66.05
332.138	80.38
332.35	145.92
332.563	59.9
332.776	66.05
332.989	43.52
333.202	64
333.414	0.51
333.627	66.05
333.84	43.52
334.053	86.53
334.265	123.39
334.478	-9.73
334.691	51.71
334.903	43.52
335.116	55.81
335.329	6.66
335.541	137.73
335.754	88.57
335.966	-1.54
336.179	10.75
336.392	39.42
336.604	-5.63
336.817	96.77
337.029	25.09
337.242	6.66
337.454	82.43
337.667	68.09
337.88	88.57
338.092	72.19
338.305	104.96
338.517	70.14
338.729	80.38
338.942	8.7
339.154	31.23
339.367	-9.73
339.579	27.14
339.792	-7.68
340.004	78.33
340.217	113.15
340.429	129.53
340.641	-75.26
340.854	14.85
341.066	37.38
341.278	37.38
341.491	59.9
341.703	35.33
341.915	80.38
342.128	98.81
342.34	84.48
342.552	49.66
342.764	47.62
342.977	129.53
343.189	66.05
343.401	125.44
343.613	27.14
343.826	100.86
344.038	100.86
344.25	39.42
344.462	23.04
344.674	55.81
344.886	41.47
345.099	113.15
345.311	80.38
345.523	-44.54
345.735	-26.11
345.947	88.57
346.159	-15.87
346.371	84.48
346.583	39.42
346.795	68.09
347.007	72.19
347.219	96.77
347.431	94.72
347.643	117.25
347.855	20.99
348.067	33.28
348.279	61.95
348.491	12.8
348.703	72.19
348.915	41.47
349.127	14.85
349.339	88.57
349.551	35.33
349.763	43.52
349.975	68.09
350.187	72.19
350.399	145.92
350.61	51.71
350.822	55.81
351.034	59.9
351.246	4.61
351.458	14.85
351.669	123.39
351.881	107.01
352.093	92.67
352.305	125.44
352.517	74.24
352.728	39.42
352.94	109.05
353.152	80.38
353.363	2.56
353.575	37.38
353.787	-9.73
353.999	76.29
354.21	107.01
354.422	70.14
354.633	125.44
354.845	41.47
355.057	66.05
355.268	115.2
355.48	59.9
355.692	45.57
355.903	10.75
356.115	55.81
356.326	0.51
356.538	166.4
356.749	35.33
356.961	96.77
357.172	107.01
357.384	72.19
357.595	121.34
357.807	6.66
358.018	-38.4
358.23	2.56
358.441	37.38
358.653	86.53
358.864	49.66
359.075	-11.78
359.287	39.42
359.498	57.86
359.709	37.38
359.921	39.42
360.132	59.9
360.344	31.23
360.555	16.9
360.766	104.96
360.977	90.62
361.189	68.09
361.4	49.66
361.611	43.52
361.823	31.23
362.034	37.38
362.245	39.42
362.456	8.7
362.667	55.81
362.879	57.86
363.09	96.77
363.301	150.01
363.512	6.66
363.723	74.24
363.935	51.71
364.146	104.96
364.357	31.23
364.568	115.2
364.779	16.9
364.99	90.62
365.201	90.62
365.412	43.52
365.623	-5.63
365.834	152.06
366.045	64
366.256	51.71
366.467	51.71
366.678	66.05
366.889	88.57
367.1	104.96
367.311	4.61
367.522	6.66
367.733	27.14
367.944	117.25
368.155	61.95
368.366	90.62
368.577	76.29
368.788	72.19
368.999	-1.54
369.209	47.62
369.42	104.96
369.631	113.15
369.842	117.25
370.053	35.33
370.264	31.23
370.474	8.7
370.685	33.28
370.896	-9.73
371.107	102.91
371.317	107.01
371.528	115.2
371.739	41.47
371.95	72.19
372.16	49.66
372.371	49.66
372.582	51.71
372.792	76.29
373.003	150.01
373.214	35.33
373.424	84.48
373.635	-9.73
373.846	158.21
374.056	39.42
374.267	109.05
374.477	109.05
374.688	74.24
374.898	64
375.109	33.28
375.319	64
375.53	82.43
375.74	14.85
375.951	143.87
376.161	90.62
376.372	53.76
376.582	16.9
376.793	74.24
377.003	41.47
377.214	64
377.424	-24.06
377.635	-5.63
377.845	59.9
378.055	96.77
378.266	-26.11
378.476	72.19
378.686	29.18
378.897	121.34
379.107	119.29
379.317	47.62
379.528	104.96
379.738	117.25
379.948	2.56
380.158	41.47
380.369	80.38
380.579	-1.54
380.789	41.47
380.999	94.72
381.21	8.7
381.42	137.73
381.63	-1.54
381.84	57.86
382.05	64
382.261	92.67
382.471	53.76
382.681	47.62
382.891	0.51
383.101	47.62
383.311	14.85
383.521	23.04
383.731	70.14
383.941	74.24
384.151	-17.92
384.361	72.19
384.571	104.96
384.781	66.05
384.991	41.47
385.201	66.05
385.411	55.81
385.621	104.96
385.831	68.09
386.041	55.81
386.251	-3.58
386.461	72.19
386.671	29.18
386.881	119.29
387.091	23.04
387.301	129.53
387.511	68.09
387.72	64
387.93	117.25
388.14	61.95
388.35	84.48
388.56	66.05
388.769	47.62
388.979	41.47
389.189	14.85
389.399	133.63
389.609	23.04
389.818	39.42
390.028	41.47
390.238	23.04
390.447	117.25
390.657	68.09
390.867	74.24
391.076	137.73
391.286	66.05
391.496	123.39
391.705	59.9
391.915	96.77
392.125	109.05
392.334	92.67
392.544	150.01
392.753	90.62
392.963	27.14
393.172	154.11
393.382	23.04
393.591	115.2
393.801	8.7
394.01	172.54
394.22	23.04
394.429	49.66
394.639	88.57
394.848	92.67
395.058	117.25
395.267	107.01
395.477	119.29
395.686	121.34
395.895	162.3
396.105	150.01
396.314	178.69
396.524	154.11
396.733	121.34
396.942	147.97
397.152	137.73
397.361	96.77
397.57	76.29
397.78	64
397.989	86.53
398.198	129.53
398.407	131.58
398.617	139.77
398.826	139.77
399.035	164.35
399.244	137.73
399.453	90.62
399.663	47.62
399.872	129.53
400.081	53.76
400.29	80.38
400.499	82.43
400.708	123.39
400.917	76.29
401.127	82.43
401.336	41.47
401.545	137.73
401.754	129.53
401.963	117.25
402.172	111.1
402.381	70.14
402.59	94.72
402.799	117.25
403.008	186.88
403.217	133.63
403.426	147.97
403.635	125.44
403.844	141.82
404.053	107.01
404.262	209.4
404.471	203.26
404.68	158.21
404.888	115.2
405.097	115.2
405.306	213.5
405.515	205.31
405.724	166.4
405.933	64
406.142	227.84
406.35	205.31
406.559	150.01
406.768	123.39
406.977	219.64
407.185	205.31
407.394	252.41
407.603	139.77
407.812	256.51
408.02	254.46
408.229	174.59
408.438	236.03
408.646	197.12
408.855	244.22
409.064	227.84
409.272	303.61
409.481	264.7
409.69	260.6
409.898	279.04
410.107	268.8
410.315	301.56
410.524	330.23
410.733	313.85
410.941	350.71
411.15	377.34
411.358	432.63
411.567	434.68
411.775	350.71
411.984	322.04
412.192	457.21
412.401	453.11
412.609	481.78
412.818	498.17
413.026	500.22
413.234	522.74
413.443	518.65
413.651	444.92
413.86	524.79
414.068	561.66
414.276	680.44
414.485	596.47
414.693	596.47
414.901	735.73
415.11	672.25
415.318	596.47
415.526	811.51
415.734	692.73
415.943	795.12
416.151	862.71
416.359	743.92
416.567	870.9
416.776	844.28
416.984	922.1
417.192	844.28
417.4	883.19
417.608	836.08
417.817	975.35
418.025	1059.31
418.233	1165.81
418.441	1024.5
418.649	1049.07
418.857	1145.33
419.065	1178.09
419.273	1143.28
419.481	1239.53
419.689	1321.45
419.897	1311.21
420.105	1391.08
420.313	1432.04
420.521	1493.48
420.729	1589.74
420.937	1522.15
421.145	1532.39
421.353	1745.38
421.561	1759.72
421.769	1782.24
421.977	1901.03
422.185	1972.71
422.393	2021.86
422.601	1911.27
422.809	2064.86
423.017	2238.94
423.224	2214.37
423.432	2310.62
423.64	2337.24
423.848	2423.26
424.056	2394.59
424.263	2517.47
424.471	2517.47
424.679	2646.49
424.887	2912.72
425.094	2939.35
425.302	2961.87
425.51	3021.27
425.718	3047.89
425.925	3072.47
426.133	3189.2
426.341	3310.03
426.548	3557.83
426.756	3615.18
426.964	3625.42
427.171	3762.63
427.379	3805.64
427.586	4153.79
427.794	4075.97
428.001	4293.05
428.209	4528.57
428.417	4403.64
428.624	4766.14
428.832	4733.37
429.039	4702.65
429.247	4723.13
429.454	5069.23
429.662	5310.89
429.869	5028.28
430.076	5462.44
430.284	5194.16
430.491	5527.98
430.699	5816.74
430.906	5896.61
431.114	5826.98
431.321	6013.35
431.528	6224.29
431.736	6629.79
431.943	6953.37
432.15	6617.5
432.358	6793.62
432.565	7051.67
432.772	7094.68
432.979	7719.31
433.187	7813.51
433.394	7768.46
433.601	8266.11
433.808	8225.15
434.016	8212.87
434.223	8530.3
434.43	8919.42
434.637	8857.98
434.844	9460.08
435.052	9701.74
435.259	9398.64
435.466	9656.68
435.673	9697.64
435.88	10049.89
436.087	10824.03
436.294	10676.57
436.501	10385.76
436.708	10570.08
436.915	10961.24
437.122	11520.34
437.329	11606.35
437.537	11811.15
437.743	12073.29
437.95	11972.94
438.157	12622.14
438.364	12812.6
438.571	12810.56
438.778	12994.87
438.985	14088.49
439.192	13498.67
439.399	13895.98
439.606	13736.24
439.813	14569.76
440.02	15479.06
440.227	15059.23
440.433	15204.63
440.64	15603.99
440.847	15352.09
441.054	15651.09
441.261	16808.19
441.467	16488.71
441.674	16908.54
441.881	17541.36
442.088	17418.49
442.294	17547.51
442.501	17674.48
442.708	17948.91
442.914	18639.08
443.121	19126.49
443.328	19126.49
443.534	20639.94
443.741	19720.4
443.948	19384.54
444.154	20820.16
444.361	20650.18
444.568	20689.09
444.774	21078.21
444.981	20902.08
445.187	21514.42
445.394	22460.59
445.6	22388.91
445.807	24580.23
446.013	23287.96
446.22	23568.54
446.426	24656.01
446.633	24705.16
446.839	26167.41
447.046	24869
447.252	26196.08
447.459	25993.33
447.665	25974.9
447.871	27396.19
448.078	28571.72
448.284	27088.99
448.491	28069.97
448.697	28858.44
448.903	29378.62
449.11	29577.28
449.316	28665.93
449.522	29608
449.728	30470.19
449.935	30910.5
450.141	30736.43
450.347	31342.63
450.553	30453.81
450.76	30828.59
450.966	31717.4
451.172	31420.45
451.378	32503.82
451.584	31889.43
451.791	32331.79
451.997	32575.5
452.203	32913.42
452.409	32741.39
452.615	32921.61
452.821	31434.78
453.027	31078.44
453.233	32868.36
453.44	31479.84
453.646	31883.29
453.852	32047.13
454.058	32348.18
454.264	31576.09
454.47	32385.04
454.676	31221.8
454.882	32948.23
455.088	29880.38
455.294	30543.92
455.5	30718
455.705	31330.34
455.911	29704.25
456.117	28977.22
456.323	28966.98
456.529	27848.79
456.735	28631.12
456.941	27746.39
457.147	27535.45
457.352	26775.66
457.558	26452.08
457.764	26529.9
457.97	25815.16
458.176	25409.66
458.381	25194.62
458.587	24307.85
458.793	24461.45
458.999	22982.82
459.204	24522.89
459.41	23869.59
459.616	22485.16
459.821	22388.91
460.027	22266.03
460.233	21881.01
460.438	20920.51
460.644	21311.67
460.85	19998.93
461.055	19513.56
461.261	19730.64
461.466	18133.23
461.672	17674.48
461.878	18929.89
462.083	17766.64
462.289	17574.13
462.494	17524.98
462.7	16441.61
462.905	16066.83
463.111	16615.68
463.316	16673.03
463.522	16388.36
463.727	16371.97
463.932	16425.22
464.138	15884.56
464.343	16072.97
464.549	15655.19
464.754	15902.99
464.959	16072.97
465.165	15874.32
465.37	15268.12
465.575	14907.68
465.781	15493.4
465.986	15464.72
466.191	14901.53
466.397	14700.83
466.602	14053.67
466.807	14649.63
467.012	14483.75
467.218	14186.79
467.423	14403.88
467.628	14174.5
467.833	14709.02
468.038	14395.68
468.244	14027.05
468.449	14692.64
468.654	14031.15
468.859	13769.01
469.064	13822.25
469.269	13271.35
469.474	13492.53
469.679	13795.63
469.885	13257.01
470.09	13527.35
470.295	13355.32
470.5	13107.51
470.705	13093.18
470.91	12775.74
471.115	12730.69
471.32	12937.53
471.525	12943.67
471.73	12695.87
471.935	12605.76
472.139	12097.86
472.344	12259.65
472.549	12306.76
472.754	11878.73
472.959	11909.45
473.164	11612.49
473.369	11344.21
473.574	11954.51
473.778	11551.06
473.983	11446.61
474.188	11503.95
474.393	11032.92
474.598	11098.45
474.802	10969.43
475.007	11014.49
475.212	11002.2
475.417	10424.67
475.621	10551.65
475.826	10631.52
476.031	10377.57
476.235	10045.8
476.44	10475.87
476.645	10086.76
476.849	10035.56
477.054	10086.76
477.259	9814.38
477.463	9834.86
477.668	9642.35
477.872	9847.15
478.077	9509.23
478.282	9400.69
478.486	9351.54
478.691	9167.22
478.895	9228.66
479.1	9046.39
479.304	9107.83
479.509	8733.05
479.713	8896.89
479.918	8948.09
480.122	8472.96
480.326	8794.49
480.531	8763.77
480.735	8542.59
480.94	8718.71
481.144	8774.01
481.348	8380.8
481.553	8653.18
481.757	8333.7
481.961	8305.03
482.166	8599.93
482.37	8403.33
482.574	8405.38
482.778	8550.78
482.983	8622.46
483.187	8464.77
483.391	8624.51
483.595	8331.65
483.8	8440.19
484.004	8384.9
484.208	8538.49
484.412	8501.63
484.616	8380.8
484.821	8309.12
485.025	8280.45
485.229	8438.14
485.433	8307.07
485.637	8489.34
485.841	8092.04
486.045	8501.63
486.249	8581.5
486.453	8300.93
486.657	8462.72
486.861	8370.56
487.065	8126.85
487.269	8497.53
487.473	8239.49
487.677	8305.03
487.881	8530.3
488.085	8319.36
488.289	8544.64
488.493	8180.1
488.697	8601.98
488.901	8542.59
489.105	8331.65
489.309	8495.49
489.512	8546.69
489.716	8407.42
489.92	8354.18
490.124	8485.25
490.328	8642.94
490.531	8567.17
490.735	8731
490.939	8546.69
491.143	8477.05
491.346	8569.21
491.55	8675.71
491.754	8739.19
491.958	8714.62
492.161	8671.61
492.365	8927.61
492.569	8716.67
492.772	8798.59
492.976	8925.56
493.18	9040.25
493.383	8987
493.587	9128.31
493.79	8966.52
493.994	9150.84
494.197	8915.32
494.401	9378.16
494.605	9263.47
494.808	9435.5
495.012	9529.71
495.215	9462.13
495.419	9683.31
495.622	9546.09
495.825	9730.41
496.029	9722.22
496.232	9681.26
496.436	9754.99
496.639	10111.33
496.843	10176.87
497.046	10299.75
497.249	10330.47
497.453	10443.1
497.656	10492.26
497.859	10410.34
498.063	10543.46
498.266	10783.07
498.469	10791.26
498.673	10785.12
498.876	10961.24
499.079	11159.89
499.282	11159.89
499.485	11475.28
499.689	11471.18
499.892	11442.51
500.095	11571.54
500.298	11888.97
500.501	11884.87
500.705	12200.26
500.908	12302.66
501.111	12396.87
501.314	12454.21
501.517	12613.95
501.72	12716.35
501.923	12960.06
502.126	12919.1
502.329	13302.07
502.532	13263.16
502.735	13250.87
502.938	13400.37
503.141	13510.96
503.344	13965.61
503.547	14037.29
503.75	14137.64
503.953	14557.47
504.156	14491.94
504.359	14487.84
504.562	14563.62
504.765	14917.92
504.968	15190.3
505.17	15202.58
505.373	15130.91
505.576	15530.26
505.779	15726.86
505.982	15776.02
506.185	16072.97
506.387	16326.92
506.59	16259.34
506.793	16644.35
506.996	16728.32
507.198	17156.35
507.401	16875.77
507.604	17529.08
507.807	17518.84
508.009	17803.5
508.212	17684.72
508.415	18075.88
508.617	18041.07
508.82	18069.74
509.022	18014.45
509.225	18727.14
509.428	18751.71
509.63	19001.57
509.833	19001.57
510.035	19738.83
510.238	19353.82
510.44	19630.29
510.643	19912.91
510.845	20211.92
511.048	20173
511.25	20371.66
511.453	20537.54
511.655	21266.62
511.858	21110.97
512.06	21145.79
512.262	21561.53
512.465	21221.56
512.667	21846.19
512.87	22028.46
513.072	21833.91
513.274	22333.61
513.477	22704.29
513.679	22843.56
513.881	22970.53
514.084	23382.17
514.286	23414.94
514.488	23525.53
514.69	24092.82
514.893	24103.06
515.095	24000.66
515.297	24721.54
515.499	24504.46
515.701	25086.08
515.904	25284.73
516.106	25401.47
516.308	25417.85
516.51	26009.72
516.712	26069.11
516.914	25931.89
517.116	26699.88
517.318	26808.42
517.52	27066.47
517.722	27076.71
517.925	27445.34
518.127	27615.32
518.329	27590.75
518.531	27592.79
518.733	28446.8
518.935	28438.61
519.136	28411.98
519.338	28610.64
519.54	29399.1
519.742	29333.57
519.944	29388.86
520.146	29902.9
520.348	30220.34
520.55	29968.44
520.752	30474.29
520.954	30982.18
521.155	30642.22
521.357	31311.91
521.559	30924.84
521.761	31787.03
521.963	31565.85
522.164	31893.53
522.366	32110.61
522.568	32190.48
522.77	32628.75
522.971	32798.73
523.173	32612.37
523.375	33124.36
523.576	33120.26
523.778	33193.99
523.98	33513.47
524.181	33552.38
524.383	33878.01
524.584	34449.39
524.786	33859.58
524.988	33966.07
525.189	34680.81
525.391	34854.89
525.592	34793.45
525.794	35039.21
525.995	35010.54
526.197	35528.67
526.398	35207.14
526.6	35825.63
526.801	35540.96
527.003	35917.79
527.204	35526.63
527.406	36204.5
527.607	36167.64
527.808	36517.84
528.01	35766.24
528.211	36130.78
528.412	36845.52
528.614	36710.35
528.815	36782.03
529.016	36927.44
529.218	36644.82
529.419	36982.73
529.62	36949.96
529.822	37103.56
530.023	36915.15
530.224	37365.7
530.425	37193.67
530.626	36849.61
530.828	36612.05
531.029	37779.39
531.23	37531.59
531.431	37468.1
531.632	37621.7
531.833	37783.49
532.035	37107.66
532.236	37801.92
532.437	37560.26
532.638	37597.12
532.839	37738.43
533.04	38324.15
533.241	37502.92
533.442	38371.25
533.643	37918.65
533.844	37777.34
534.045	38004.67
534.246	37842.88
534.447	38088.63
534.648	37648.32
534.849	38055.87
535.05	37861.31
535.251	38033.34
535.451	37763.01
535.652	38053.82
535.853	37881.79
536.054	38268.86
536.255	38064.06
536.456	37652.42
536.657	38688.69
536.857	38158.27
537.058	37744.58
537.259	37844.93
537.46	38186.94
537.66	37666.75
537.861	38162.36
538.062	37967.8
538.263	38059.96
538.463	37849.02
538.664	37932.99
538.865	37984.19
539.065	37808.06
539.266	37570.5
539.466	38141.88
539.667	37328.84
539.868	38395.83
540.068	37992.38
540.269	37980.09
540.469	38150.07
540.67	37691.33
540.87	37490.63
541.071	37814.21
541.271	37928.89
541.472	37687.23
541.672	38117.31
541.873	37828.54
542.073	37597.12
542.274	37881.79
542.474	37928.89
542.675	37320.65
542.875	37912.51
543.075	37633.99
543.276	37257.16
543.476	37537.73
543.676	37412.81
543.877	37849.02
544.077	37834.69
544.277	37771.2
544.478	37400.52
544.678	38012.86
544.878	37457.86
545.078	37531.59
545.279	37189.58
545.479	37445.57
545.679	37328.84
545.879	38004.67
546.079	37574.59
546.28	37357.51
546.48	36839.37
546.68	37455.81
546.88	37451.72
547.08	37683.14
547.28	37658.56
547.48	37492.68
547.68	37666.75
547.88	37152.71
548.081	37552.07
548.281	37248.97
548.481	37318.6
548.681	37916.61
548.881	37177.29
549.081	37441.48
549.28	37480.39
549.48	37332.93
549.68	36978.64
549.88	37791.68
550.08	37154.76
550.28	37750.72
550.48	37447.62
550.68	37525.44
550.88	37291.97
551.08	37185.48
551.279	37121.99
551.479	37095.37
551.679	37027.79
551.879	37285.83
552.079	37488.58
552.278	37302.21
552.478	37365.7
552.678	37279.69
552.878	37152.71
553.077	36818.89
553.277	37085.13
553.477	37507.01
553.676	37156.81
553.876	36401.11
554.076	36708.3
554.275	36845.52
554.475	36501.46
554.674	37007.31
554.874	36962.25
555.074	36667.34
555.273	36906.96
555.473	36884.43
555.672	36816.85
555.872	36489.17
556.071	36667.34
556.271	36556.75
556.47	36577.23
556.67	36456.4
556.869	36358.1
557.068	36661.2
557.268	36386.77
557.467	36540.37
557.667	36229.08
557.866	36327.38
558.065	36274.13
558.265	35968.99
558.464	36050.91
558.663	36220.89
558.863	35796.96
559.062	36663.25
559.261	35672.03
559.461	36114.39
559.66	35211.24
559.859	35909.6
560.058	35440.61
560.258	35878.88
560.457	35637.22
560.656	35629.02
560.855	35837.92
561.054	35794.91
561.253	35377.12
561.453	35559.39
561.652	35657.7
561.851	35467.23
562.05	35500
562.249	35291.11
562.448	35481.57
562.647	35327.97
562.846	34809.84
563.045	35207.14
563.244	35016.68
563.443	35299.3
563.642	34535.41
563.841	35350.5
564.04	34467.83
564.239	35184.62
564.438	34727.92
564.637	34625.52
564.836	34551.79
565.035	34056.18
565.234	34775.02
565.432	34172.92
565.631	34164.73
565.83	34308.08
566.029	34177.01
566.228	34215.93
566.427	34082.81
566.625	33802.24
566.824	33591.3
567.023	33964.03
567.222	33282.05
567.42	33730.56
567.619	33693.69
567.818	33714.17
568.016	33431.55
568.215	33820.67
568.414	33615.87
568.612	33839.1
568.811	33329.16
569.01	33472.51
569.208	33120.26
569.407	33476.61
569.605	32712.72
569.804	33196.04
570.002	33112.07
570.201	33312.77
570.4	32647.18
570.598	32557.07
570.797	32157.72
570.995	32059.41
571.193	32225.3
571.392	32743.44
571.59	32104.47
571.789	32258.07
571.987	31893.53
572.186	31940.63
572.384	31836.19
572.582	31803.42
572.781	31965.21
572.979	31389.73
573.177	31528.99
573.376	31631.39
573.574	31711.26
573.772	31600.67
573.971	31526.94
574.169	31248.42
574.367	30941.22
574.565	30916.65
574.763	30754.86
574.962	31154.21
575.16	30650.41
575.358	31031.33
575.556	30908.46
575.754	30754.86
575.952	30455.86
576.151	30904.36
576.349	30720.04
576.547	30724.14
576.745	30283.83
576.943	30552.11
577.141	30085.17
577.339	30335.03
577.537	30150.71
577.735	30158.9
577.933	29909.05
578.131	29755.45
578.329	29880.38
578.527	29802.55
578.725	29816.89
578.923	29925.43
579.121	29603.9
579.319	29675.58
579.516	29620.28
579.714	29173.83
579.912	29308.99
580.11	29126.72
580.308	29206.59
580.506	29151.3
580.704	28774.47
580.901	28866.63
581.099	29089.86
581.297	28653.64
581.495	28815.43
581.692	28727.37
581.89	28416.08
582.088	28817.48
582.285	28262.48
582.483	28590.16
582.681	28098.64
582.878	28227.67
583.076	28090.45
583.274	27914.33
583.471	28041.3
583.669	28039.25
583.866	27578.46
584.064	27711.58
584.262	27740.25
584.459	27906.13
584.657	27504.73
584.854	28022.87
585.052	27062.37
585.249	27140.19
585.447	27338.85
585.644	26974.31
585.841	27050.08
586.039	27361.37
586.236	26962.02
586.434	26515.56
586.631	26990.69
586.828	26863.72
587.026	26814.57
587.223	26464.36
587.42	26685.54
587.618	26546.28
587.815	26110.07
588.012	26011.76
588.21	26169.46
588.407	26724.46
588.604	26163.31
588.801	25854.07
588.999	26282.09
589.196	25946.23
589.393	25661.56
589.59	25573.5
589.787	25661.56
589.984	25673.85
590.182	25276.54
590.379	25383.04
590.576	25348.22
590.773	25378.94
590.97	25204.86
591.167	25297.02
591.364	24801.41
591.561	25249.92
591.758	24842.37
591.955	24791.17
592.152	24963.2
592.349	24844.42
592.546	24524.94
592.743	24871.04
592.94	24363.15
593.137	24766.6
593.334	24273.04
593.531	23849.11
593.727	24668.3
593.924	24115.34
594.121	24039.57
594.318	24187.02
594.515	23730.33
594.712	24209.55
594.908	23838.87
595.105	24072.34
595.302	23304.35
595.499	24006.8
595.696	23787.67
595.892	23621.78
596.089	23677.08
596.286	23511.19
596.482	23281.82
596.679	23462.04
596.876	23402.65
597.072	23173.28
597.269	23095.46
597.466	22685.86
597.662	22722.73
597.859	23083.17
598.055	22755.49
598.252	22476.97
598.448	22757.54
598.645	22624.42
598.841	22411.43
599.038	22470.83
599.234	22366.38
599.431	22288.56
599.627	22079.66
599.824	22462.63
600.02	22229.16
600.217	22247.6
600.413	22165.68
600.609	21739.7
600.806	21498.04
601.002	22075.57
601.198	21780.66
601.395	21575.86
601.591	21350.59
601.787	21463.22
601.984	21428.41
602.18	21758.13
602.376	21369.02
602.572	21213.37
602.769	21344.44
602.965	21027.01
603.161	20871.36
603.357	21051.58
603.553	21084.35
603.75	20998.34
603.946	20826.31
604.142	21020.86
604.338	20418.76
604.534	20801.73
604.73	20338.89
604.926	20383.94
605.122	20433.1
605.318	20385.99
605.514	20003.02
605.71	20224.2
605.906	20279.5
606.102	20154.57
606.298	20209.87
606.494	20035.79
606.69	20136.14
606.886	20299.98
607.082	19947.73
607.278	19888.34
607.474	19636.44
607.67	20058.32
607.866	19521.75
608.062	20015.31
608.257	19593.43
608.453	19718.36
608.649	19462.36
608.845	19341.53
609.041	19327.19
609.236	19638.48
609.432	19355.86
609.628	19419.35
609.824	19151.07
610.019	19247.32
610.215	19124.44
610.411	19339.48
610.606	19151.07
610.802	19114.2
610.998	18933.98
611.193	19153.12
611.389	18874.59
611.584	18680.03
611.78	18727.14
611.976	18735.33
612.171	18825.44
612.367	18753.76
612.562	18471.14
612.758	18608.36
612.953	18368.74
613.149	18819.3
613.344	18196.71
613.539	18976.99
613.735	18317.54
613.93	18626.79
614.126	18319.59
614.321	18579.68
614.517	18508.01
614.712	18456.81
614.907	18338.02
615.103	18161.9
615.298	18366.7
615.493	18192.62
615.688	18241.77
615.884	18335.98
616.079	17930.48
616.274	18065.64
616.47	18036.97
616.665	18061.55
616.86	18077.93
617.055	17955.05
617.25	17832.18
617.445	17993.97
617.641	17688.82
617.836	17760.5
618.031	17316.09
618.226	17742.07
618.421	17445.11
618.616	17602.8
618.811	17398.01
619.006	17447.16
619.201	17385.72
619.396	17406.2
619.591	17123.58
619.786	17250.55
619.981	16767.23
620.176	16918.78
620.371	16787.71
620.566	17035.52
620.761	16705.79
620.956	16767.23
621.151	16353.54
621.346	16496.9
621.541	16521.48
621.735	16713.98
621.93	16128.27
622.125	16204.04
622.32	15933.71
622.515	16212.23
622.709	15939.85
622.904	16040.2
623.099	15866.13
623.294	15845.65
623.488	15751.44
623.683	15825.17
623.878	15296.79
624.072	15374.61
624.267	15335.7
624.462	15079.71
624.656	14975.26
624.851	15311.13
625.046	15069.47
625.24	14932.25
625.435	14833.95
625.629	15018.27
625.824	14754.08
626.018	14747.93
626.213	14561.57
626.407	14563.62
626.602	14172.46
626.796	14244.13
626.991	14330.15
627.185	14088.49
627.38	13943.08
627.574	13959.47
627.768	13967.66
627.963	13871.4
628.157	13642.03
628.352	13791.53
628.546	13211.96
628.74	13883.69
628.935	13467.95
629.129	13490.48
629.323	13406.52
629.517	13465.91
629.712	13275.45
629.906	13240.63
630.1	12900.67
630.294	12917.05
630.489	12802.36
630.683	12941.63
630.877	12755.26
631.071	12927.29
631.265	12507.46
631.459	12656.96
631.653	12482.88
631.848	12339.52
632.042	12249.41
632.236	12368.2
632.43	12241.22
632.624	12136.77
632.818	12073.29
633.012	12052.81
633.206	11977.03
633.4	12011.85
633.594	11897.16
633.788	12017.99
633.982	12011.85
634.176	11907.4
634.369	11714.89
634.563	11628.88
634.757	11534.67
634.951	11643.21
635.145	11530.58
635.339	11465.04
635.533	11381.07
635.726	11286.87
635.92	11200.85
636.114	11213.14
636.308	11096.41
636.501	11194.71
636.695	11053.4
636.889	10813.79
637.083	10907.99
637.276	10752.35
637.47	10639.71
637.664	10781.02
637.857	10809.69
638.051	10647.9
638.244	10430.82
638.438	10580.32
638.632	10352.99
638.825	10363.23
639.019	10359.14
639.212	10281.32
639.406	10160.48
639.599	10027.37
639.793	10117.48
639.986	9787.75
640.18	9857.39
640.373	9937.26
640.567	9699.69
640.76	9691.5
640.954	9771.37
641.147	9761.13
641.34	9625.97
641.534	9468.27
641.727	9580.91
641.92	9472.37
642.114	9652.59
642.307	9593.2
642.5	9480.56
642.694	9116.02
642.887	9140.6
643.08	9316.72
643.273	9181.56
643.467	9054.58
643.66	8966.52
643.853	8917.37
644.046	8907.13
644.239	8876.41
644.432	8905.08
644.626	8847.74
644.819	8804.73
645.012	8675.71
645.205	8796.54
645.398	8776.06
645.591	8835.45
645.784	8493.44
645.977	8460.67
646.17	8597.88
646.363	8397.18
646.556	8247.68
646.749	8157.57
646.942	8388.99
647.135	8282.5
647.328	8216.96
647.521	8108.42
647.714	8108.42
647.907	8098.18
648.099	8075.65
648.292	7909.77
648.485	7899.53
648.678	7731.59
648.871	7946.63
649.064	7903.62
649.256	7895.43
649.449	7788.94
649.642	7475.6
649.835	7575.95
650.027	7420.3
650.22	7539.08
650.413	7375.25
650.605	7604.62
650.798	7471.5
650.991	7381.39
651.183	7319.95
651.376	7281.04
651.568	7420.3
651.761	7285.14
651.954	7270.8
652.146	7291.28
652.339	7072.15
652.531	7178.64
652.724	7037.33
652.916	6963.61
653.109	6926.74
653.301	6920.6
653.494	6910.36
653.686	6734.23
653.879	6920.6
654.071	6818.2
654.263	6810.01
654.456	6644.12
654.648	6744.47
654.84	6521.24
655.033	6494.62
655.225	6551.96
655.417	6597.02
655.61	6537.63
655.802	6535.58
655.994	6431.13
656.186	6433.18
656.379	6457.76
656.571	6394.27
656.763	6109.6
656.955	6355.36
657.148	6414.75
657.34	6199.71
657.532	6150.56
657.724	6166.95
657.916	6037.92
658.108	5964.2
658.3	6035.88
658.492	5960.1
658.684	5960.1
658.876	5943.72
659.068	6123.94
659.26	5794.22
659.452	5962.15
659.644	5798.31
659.836	5783.98
660.028	5839.27
660.22	5794.22
660.412	5708.2
660.604	5669.29
660.796	5749.16
660.988	5507.5
661.18	5425.58
661.372	5525.93
661.563	5527.98
661.755	5536.17
661.947	5552.56
662.139	5503.4
662.331	5446.06
662.522	5314.99
662.714	5337.52
662.906	5274.03
663.097	5128.63
663.289	5355.95
663.481	5319.09
663.673	5323.18
663.864	5282.22
664.056	5200.3
664.247	5120.43
664.439	5067.19
664.631	5126.58
664.822	5159.35
665.014	4932.02
665.205	5038.52
665.397	4938.16
665.588	5067.19
665.78	5018.04
665.971	4987.32
666.163	4903.35
666.354	4995.51
666.546	4835.77
666.737	4770.23
666.929	4749.75
667.12	4743.61
667.311	4843.96
667.503	4778.42
667.694	4561.34
667.885	4569.53
668.077	4702.65
668.268	4506.04
668.459	4577.72
668.651	4504
668.842	4532.67
669.033	4454.84
669.224	4454.84
669.416	4594.11
669.607	4479.42
669.798	4454.84
669.989	4479.42
670.18	4475.32
670.371	4577.72
670.563	4456.89
670.754	4391.36
670.945	4309.44
671.136	4307.39
671.327	4331.97
671.518	4153.79
671.709	4415.93
671.9	4307.39
672.091	4366.78
672.282	4278.72
672.473	4096.45
672.664	4243.9
672.855	4213.18
673.046	4047.3
673.237	4102.59
673.428	4004.29
673.619	4055.49
673.809	4006.34
674	3899.84
674.191	3973.57
674.382	3971.52
674.573	4037.06
674.764	4010.43
674.954	4041.15
675.145	3877.32
675.336	3869.12
675.527	3967.43
675.717	3828.17
675.908	3971.52
676.099	3817.93
676.289	3840.45
676.48	3887.56
676.671	3799.49
676.861	3799.49
677.052	3733.96
677.243	3746.25
677.433	3736.01
677.624	3824.07
677.814	3682.76
678.005	3725.77
678.195	3709.38
678.386	3733.96
678.576	3725.77
678.767	3697.1
678.957	3457.48
679.148	3717.58
679.338	3680.71
679.529	3594.7
679.719	3520.97
679.909	3662.28
680.1	3584.46
680.29	3486.15
680.481	3406.28
680.671	3549.64
680.861	3588.55
681.052	3480.01
681.242	3365.32
681.432	3551.69
681.622	3539.4
681.813	3619.27
682.003	3432.91
682.193	3490.25
682.383	3488.2
682.573	3484.11
682.764	3443.15
682.954	3463.63
683.144	3422.67
683.334	3344.84
683.524	3377.61
683.714	3324.37
683.904	3246.54
684.094	3293.65
684.284	3307.98
684.474	3348.94
684.664	3371.47
684.854	3375.56
685.044	3176.91
685.234	3291.6
685.424	3226.06
685.614	3187.15
685.804	3168.72
685.994	3246.54
686.184	3154.38
686.374	3129.81
686.564	3203.54
686.753	3097.04
686.943	3035.6
687.133	3129.81
687.323	3187.15
687.513	3189.2
687.702	3029.46
687.892	3054.03
688.082	2955.73
688.272	2996.69
688.461	3152.34
688.651	3178.96
688.841	2984.4
689.03	2947.54
689.22	2914.77
689.41	2980.31
689.599	2933.2
689.789	2836.95
689.979	2984.4
690.168	3025.36
690.358	3041.75
690.547	2890.2
690.737	2890.2
690.926	2771.41
691.116	2750.93
691.305	2810.33
691.495	2732.5
691.684	2949.59
691.874	2808.28
692.063	2843.09
692.252	2744.79
692.442	2834.9
692.631	2730.45
692.82	2630.1
693.01	2843.09
693.199	2712.02
693.388	2687.45
693.578	2613.72
693.767	2646.49
693.956	2611.67
694.146	2611.67
694.335	2613.72
694.524	2488.79
694.713	2599.38
694.902	2623.96
695.092	2580.95
695.281	2621.91
695.47	2505.18
695.659	2587.1
695.848	2628.06
696.037	2470.36
696.226	2587.1
696.415	2517.47
696.604	2673.11
696.793	2539.99
696.982	2572.76
697.171	2562.52
697.36	2468.31
697.549	2496.99
697.738	2419.16
697.927	2374.11
698.116	2410.97
698.305	2400.73
698.494	2406.88
698.683	2392.54
698.872	2513.37
699.061	2441.69
699.25	2423.26
699.438	2464.22
699.627	2464.22
699.816	2417.12
700.005	2390.49
700.193	2435.55
700.382	2492.89
700.571	2337.24
700.76	2376.16
700.948	2496.99
701.137	2345.44
701.326	2351.58
701.514	2349.53
701.703	2404.83
701.892	2300.38
702.08	2415.07
702.269	2378.2
702.457	2374.11
702.646	2349.53
702.834	2367.96
703.023	2318.81
703.212	2349.53
703.4	2413.02
703.589	2265.57
703.777	2390.49
703.965	2263.52
704.154	2376.16
704.342	2281.95
704.531	2345.44
704.719	2324.96
704.907	2286.05
705.096	2363.87
705.284	2367.96
705.472	2308.57
705.661	2173.41
705.849	2324.96
706.037	2374.11
706.226	2243.04
706.414	2355.68
706.602	2324.96
706.79	2259.42
706.979	2253.28
707.167	2312.67
707.355	2220.51
707.543	2236.89
707.731	2306.52
707.919	2226.65
708.107	2341.34
708.296	2261.47
708.484	2300.38
708.672	2314.72
708.86	2253.28
709.048	2275.81
709.236	2312.67
709.424	2361.82
709.612	2204.13
709.8	2210.27
709.988	2292.19
710.176	2359.77
710.364	2171.36
710.551	2255.33
710.739	2185.69
710.927	2185.69
711.115	2255.33
711.303	2238.94
711.491	2173.41
711.679	2134.5
711.866	2226.65
712.054	2202.08
712.242	2281.95
712.43	2333.15
712.617	2146.78
712.805	2185.69
712.993	2243.04
713.181	2163.17
713.368	2316.76
713.556	2212.32
713.744	2202.08
713.931	2243.04
714.119	2224.61
714.306	2316.76
714.494	2187.74
714.682	2267.61
714.869	2120.16
715.057	2193.89
715.244	2179.55
715.432	2189.79
715.619	2177.5
715.807	2132.45
715.994	2267.61
716.182	2169.31
716.369	2124.26
716.556	2212.32
716.744	2116.06
716.931	2169.31
717.119	2161.12
717.306	2179.55
717.493	2202.08
717.681	2222.56
717.868	2247.13
718.055	2189.79
718.242	2202.08
718.43	2150.88
718.617	2165.21
718.804	2146.78
718.991	2148.83
719.179	2306.52
719.366	2128.35
719.553	2230.75
719.74	2138.59
719.927	2222.56
720.114	2193.89
720.301	2243.04
720.488	2187.74
720.676	2259.42
720.863	2154.98
721.05	2152.93
721.237	2234.85
721.424	2148.83
721.611	2138.59
721.798	2111.97
721.985	2116.06
722.172	2050.53
722.358	2025.95
722.545	2236.89
722.732	2128.35
722.919	2116.06
723.106	2132.45
723.293	2062.82
723.48	2064.86
723.667	2226.65
723.853	2146.78
724.04	2200.03
724.227	2185.69
724.414	2128.35
724.6	2187.74
724.787	2267.61
724.974	2095.58
725.161	2116.06
725.347	2181.6
725.534	2167.26
725.72	2111.97
725.907	2253.28
726.094	2185.69
726.28	2234.85
726.467	2251.23
726.653	2122.21
726.84	2122.21
727.027	2154.98
727.213	2154.98
727.4	2075.1
727.586	2245.09
727.773	2036.19
727.959	2111.97
728.145	2144.74
728.332	2058.72
728.518	2152.93
728.705	2111.97
728.891	2124.26
729.077	2189.79
729.264	2259.42
729.45	2091.49
729.636	2146.78
729.823	2089.44
730.009	2179.55
730.195	2152.93
730.382	2136.54
730.568	2034.14
730.754	2124.26
730.94	2142.69
731.126	2058.72
731.313	2132.45
731.499	2167.26
731.685	2193.89
731.871	2124.26
732.057	2210.27
732.243	2202.08
732.429	1993.19
732.615	2103.78
732.801	2163.17
732.987	2183.65
733.173	2089.44
733.359	2054.62
733.545	2177.5
733.731	2093.54
733.917	2177.5
734.103	2097.63
734.289	2111.97
734.475	2042.34
734.661	2175.45
734.847	2071.01
735.033	2062.82
735.219	2111.97
735.404	2175.45
735.59	2173.41
735.776	2095.58
735.962	2189.79
736.148	2087.39
736.333	2066.91
736.519	2021.86
736.705	2161.12
736.89	2111.97
737.076	2005.47
737.262	2032.1
737.447	2187.74
737.633	1972.71
737.819	2085.34
738.004	1999.33
738.19	2075.1
738.375	2062.82
738.561	2122.21
738.747	2023.91
738.932	1997.28
739.118	2032.1
739.303	1962.47
739.489	1980.9
739.674	2056.67
739.859	1980.9
740.045	2091.49
740.23	1950.18
740.416	1978.85
740.601	1931.75
740.786	1921.51
740.972	1849.83
741.157	2028
741.342	1946.08
741.528	1870.31
741.713	1941.99
741.898	1989.09
742.084	1866.21
742.269	1974.75
742.454	1864.16
742.639	1962.47
742.824	1878.5
743.01	1874.4
743.195	2013.67
743.38	1849.83
743.565	1694.18
743.75	1819.11
743.935	1866.21
744.12	1974.75
744.305	1808.87
744.49	1810.92
744.675	1948.13
744.86	1860.07
745.045	1831.4
745.23	1858.02
745.415	1792.48
745.6	1825.25
745.785	1833.44
745.97	1761.77
746.155	1808.87
746.34	1800.68
746.525	1681.89
746.71	1790.44
746.895	1714.66
747.079	1735.14
747.264	1737.19
747.449	1714.66
747.634	1753.57
747.819	1733.09
748.003	1733.09
748.188	1634.79
748.373	1694.18
748.557	1655.27
748.742	1540.58
748.927	1556.97
749.111	1554.92
749.296	1653.22
749.481	1622.5
749.665	1614.31
749.85	1653.22
750.034	1577.45
750.219	1532.39
750.404	1565.16
750.588	1661.41
750.773	1505.77
750.957	1589.74
751.141	1503.72
751.326	1491.43
751.51	1425.9
751.695	1507.82
751.879	1432.04
752.064	1587.69
752.248	1466.86
752.432	1475.05
752.617	1475.05
752.801	1497.58
752.985	1444.33
753.17	1421.8
753.354	1540.58
753.538	1382.89
753.722	1374.7
753.907	1370.6
754.091	1415.66
754.275	1382.89
754.459	1362.41
754.643	1366.51
754.828	1409.51
755.012	1366.51
755.196	1364.46
755.38	1239.53
755.564	1343.98
755.748	1305.07
755.932	1358.32
756.116	1268.2
756.3	1284.59
756.484	1163.76
756.668	1266.16
756.852	1231.34
757.036	1198.57
757.22	1120.75
757.404	1116.65
757.588	1284.59
757.772	1227.25
757.956	1161.71
758.14	1184.24
758.323	1143.28
758.507	1198.57
758.691	1161.71
758.875	1204.72
759.059	1280.49
759.242	1251.82
759.426	1128.94
759.61	1155.57
759.794	1161.71
759.977	1157.61
760.161	1202.67
760.345	1104.37
760.528	1163.76
760.712	1143.28
760.895	1087.98
761.079	1028.59
761.263	983.54
761.446	1022.45
761.63	1047.02
761.813	1122.8
761.997	1001.97
762.18	1137.13
762.364	1083.89
762.547	1077.74
762.731	1071.6
762.914	997.87
763.098	1057.26
763.281	1081.84
763.464	1006.06
763.648	940.53
763.831	954.87
764.015	1008.11
764.198	1104.37
764.381	1026.54
764.564	969.2
764.748	1090.03
764.931	967.15
765.114	991.73
765.297	975.35
765.481	942.58
765.664	920.05
765.847	981.49
766.03	881.14
766.213	954.87
766.397	950.77
766.58	885.23
766.763	971.25
766.946	928.24
767.129	928.24
767.312	944.63
767.495	965.11
767.678	887.28
767.861	924.15
768.044	862.71
768.227	924.15
768.41	870.9
768.593	911.86
768.776	860.66
768.959	877.04
769.142	838.13
769.324	854.51
769.507	852.47
769.69	973.3
769.873	952.82
770.056	977.39
770.239	948.72
770.421	852.47
770.604	829.94
770.787	793.08
770.97	883.19
771.152	881.14
771.335	909.81
771.518	801.27
771.7	852.47
771.883	895.47
772.066	801.27
772.248	817.65
772.431	813.56
772.613	803.32
772.796	842.23
772.978	813.56
773.161	858.61
773.343	872.95
773.526	727.54
773.708	770.55
773.891	711.16
774.073	803.32
774.256	762.36
774.438	842.23
774.621	702.97
774.803	762.36
774.985	721.4
775.168	723.44
775.35	737.78
775.532	727.54
775.715	655.86
775.897	729.59
776.079	801.27
776.261	670.2
776.444	768.5
776.626	735.73
776.808	668.15
776.99	690.68
777.173	768.5
777.355	748.02
777.537	717.3
777.719	715.25
777.901	713.21
778.083	672.25
778.265	643.57
778.447	647.67
778.629	633.33
778.811	690.68
778.993	629.24
779.175	662.01
779.357	555.51
779.539	670.2
779.721	608.76
779.903	623.09
780.085	643.57
780.267	549.37
780.449	645.62
780.631	655.86
780.812	541.18
780.994	600.57
781.176	641.53
781.358	631.29
781.54	518.65
781.721	543.22
781.903	563.7
782.085	592.37
782.267	549.37
782.448	526.84
782.63	641.53
782.812	623.09
782.993	551.42
783.175	580.09
783.357	535.03
783.538	662.01
783.72	442.87
783.901	508.41
784.083	541.18
784.264	547.32
784.446	457.21
784.627	348.67
784.809	496.12
784.99	565.75
785.172	446.97
785.353	436.73
785.535	510.46
785.716	481.78
785.897	424.44
786.079	479.74
786.26	481.78
786.441	530.94
786.623	428.54
786.804	473.59
786.985	449.02
787.167	465.4
787.348	414.2
787.529	403.96
787.71	451.07
787.891	387.58
788.073	467.45
788.254	385.53
788.435	434.68
788.616	467.45
788.797	412.15
788.978	365.05
789.159	424.44
789.34	420.35
789.522	344.57
789.703	424.44
789.884	295.42
790.065	444.92
790.246	459.26
790.427	418.3
790.607	444.92
790.788	354.81
790.969	305.66
791.15	379.39
791.331	330.23
791.512	424.44
791.693	360.95
791.874	442.87
792.054	354.81
792.235	348.67
792.416	338.43
792.597	399.87
792.778	375.29
792.958	360.95
793.139	395.77
793.32	395.77
793.5	338.43
793.681	272.89
793.862	324.09
794.042	326.14
794.223	311.8
794.404	330.23
794.584	258.56
794.765	332.28
794.945	326.14
795.126	395.77
795.306	389.63
795.487	346.62
795.667	326.14
795.848	317.95
796.028	350.71
796.209	295.42
796.389	358.91
796.57	330.23
796.75	190.97
796.93	293.37
797.111	305.66
797.291	276.99
797.471	295.42
797.652	238.08
797.832	211.45
798.012	322.04
798.192	262.65
798.373	274.94
798.553	242.17
798.733	281.08
798.913	297.47
799.093	270.84
799.274	324.09
799.454	375.29
799.634	363
799.814	229.88
799.994	252.41
800.174	360.95
800.354	227.84
800.534	258.56
800.714	221.69
800.894	289.28
801.074	213.5
801.254	221.69
801.434	283.13
801.614	287.23
801.794	184.83
801.974	877.04
802.154	262.65
802.334	305.66
802.514	203.26
802.693	231.93
802.873	227.84
803.053	256.51
803.233	342.52
803.413	260.6
803.592	221.69
803.772	252.41
803.952	203.26
804.131	213.5
804.311	188.93
804.491	276.99
804.67	158.21
804.85	178.69
805.03	299.52
805.209	231.93
805.389	260.6
805.568	260.6
805.748	276.99
805.928	219.64
806.107	211.45
806.287	227.84
806.466	252.41
806.646	164.35
806.825	219.64
807.004	190.97
807.184	233.98
807.363	244.22
807.543	203.26
807.722	184.83
807.901	229.88
808.081	236.03
808.26	164.35
808.439	178.69
808.619	190.97
808.798	236.03
808.977	170.49
809.156	217.6
809.336	203.26
809.515	256.51
809.694	242.17
809.873	233.98
810.052	207.36
810.231	215.55
810.411	162.3
810.59	178.69
810.769	147.97
810.948	190.97
811.127	139.77
811.306	129.53
811.485	170.49
811.664	184.83
811.843	152.06
812.022	168.45
812.201	154.11
812.38	178.69
812.559	219.64
812.737	178.69
812.916	182.78
813.095	166.4
813.274	229.88
813.453	215.55
813.632	174.59
813.811	174.59
813.989	145.92
814.168	121.34
814.347	154.11
814.526	168.45
814.704	156.16
814.883	311.8
815.062	104.96
815.24	145.92
815.419	125.44
815.598	180.73
815.776	188.93
815.955	129.53
816.133	76.29
816.312	154.11
816.49	127.49
816.669	125.44
816.847	86.53
817.026	178.69
817.204	174.59
817.383	186.88
817.561	121.34
817.74	158.21
817.918	229.88
818.097	156.16
818.275	88.57
818.453	141.82
818.632	154.11
818.81	66.05
818.988	64
819.167	150.01
819.345	164.35
819.523	197.12
819.701	203.26
819.879	143.87
820.058	137.73
820.236	113.15
820.414	98.81
820.592	139.77
820.77	96.77
820.948	154.11
821.127	154.11
821.305	133.63
821.483	147.97
821.661	121.34
821.839	72.19
822.017	143.87
822.195	115.2
822.373	154.11
822.551	39.42
822.729	115.2
822.907	154.11
823.085	141.82
823.262	121.34
823.44	90.62
823.618	72.19
823.796	147.97
823.974	80.38
824.152	121.34
824.329	154.11
824.507	164.35
824.685	125.44
824.863	66.05
825.04	111.1
825.218	156.16
825.396	100.86
825.574	70.14
825.751	123.39
825.929	102.91
826.107	18.94
826.284	186.88
826.462	123.39
826.639	107.01
826.817	31.23
826.994	104.96
827.172	29.18
827.349	172.54
827.527	84.48
827.704	147.97
827.882	104.96
828.059	86.53
828.237	31.23
828.414	145.92
828.591	70.14
828.769	107.01
828.946	45.57
829.124	154.11
829.301	145.92
829.478	80.38
829.655	84.48
829.833	107.01
830.01	31.23
830.187	88.57
830.364	186.88
830.542	121.34
830.719	119.29
830.896	121.34
831.073	102.91
831.25	113.15
831.427	104.96
831.604	80.38
831.782	2.56
831.959	164.35
832.136	104.96
832.313	145.92
832.49	31.23
832.667	104.96
832.844	102.91
833.021	94.72
833.198	14.85
833.374	123.39
833.551	55.81
833.728	23.04
833.905	121.34
834.082	72.19
834.259	80.38
834.436	113.15
834.612	107.01
834.789	80.38
834.966	49.66
835.143	100.86
835.319	18.94
835.496	100.86
835.673	127.49
835.85	133.63
836.026	96.77
836.203	121.34
836.38	133.63
836.556	96.77
836.733	109.05
836.909	166.4
837.086	98.81
837.262	98.81
837.439	-1.54
837.616	137.73
837.792	74.24
837.968	98.81
838.145	78.33
838.321	47.62
838.498	35.33
838.674	121.34
838.851	55.81
839.027	55.81
839.203	33.28
839.38	107.01
839.556	23.04
839.732	96.77
839.909	33.28
840.085	121.34
840.261	51.71
840.437	82.43
840.614	31.23
840.79	88.57
840.966	131.58
841.142	25.09
841.318	74.24
841.494	76.29
841.671	94.72
841.847	102.91
842.023	72.19
842.199	64
842.375	104.96
842.551	64
842.727	168.45
842.903	100.86
843.079	64
843.255	104.96
843.431	47.62
843.607	72.19
843.783	-26.11
843.959	47.62
844.134	35.33
844.31	57.86
844.486	16.9
844.662	78.33
844.838	98.81
845.013	64
845.189	57.86
845.365	47.62
845.541	18.94
845.716	39.42
845.892	98.81
846.068	4.61
846.244	23.04
846.419	61.95
846.595	14.85
846.77	25.09
846.946	90.62
847.122	70.14
847.297	72.19
847.473	80.38
847.648	-1.54
847.824	109.05
847.999	-32.26
848.175	16.9
848.35	123.39
848.526	66.05
848.701	16.9
848.876	74.24
849.052	96.77
849.227	55.81
849.403	121.34
849.578	39.42
849.753	72.19
849.929	64
850.104	80.38
850.279	31.23
850.454	27.14
850.63	2.56
850.805	104.96
850.98	90.62
851.155	-13.82
851.33	16.9
851.505	-32.26
851.681	88.57
851.856	10.75
852.031	121.34
852.206	23.04
852.381	18.94
852.556	55.81
852.731	90.62
852.906	31.23
853.081	74.24
853.256	41.47
853.431	6.66
853.606	10.75
853.781	55.81
853.956	33.28
854.131	96.77
854.305	-26.11
854.48	109.05
854.655	-34.3
854.83	72.19
855.005	10.75
855.18	72.19
855.354	27.14
855.529	47.62
855.704	-38.4
855.879	66.05
856.053	18.94
856.228	139.77
856.403	29.18
856.577	76.29
856.752	51.71
856.926	23.04
857.101	10.75
857.276	14.85
857.45	12.8
857.625	109.05
857.799	-62.98
857.974	57.86
858.148	-11.78
858.323	43.52
858.497	88.57
858.672	74.24
858.846	25.09
859.02	82.43
859.195	18.94
859.369	64
859.543	25.09
859.718	96.77
859.892	33.28
860.066	31.23
860.241	55.81
860.415	33.28
860.589	27.14
860.763	57.86
860.938	-5.63
861.112	72.19
861.286	39.42
861.46	-17.92
861.634	35.33
861.808	-13.82
861.982	51.71
862.157	2.56
862.331	47.62
862.505	-40.45
862.679	37.38
862.853	49.66
863.027	-19.97
863.201	39.42
863.375	-24.06
863.549	10.75
863.722	35.33
863.896	57.86
864.07	92.67
864.244	39.42
864.418	4.61
864.592	74.24
864.766	33.28
864.939	117.25
865.113	-5.63
865.287	39.42
865.461	104.96
865.634	18.94
865.808	18.94
865.982	-13.82
866.156	2.56
866.329	8.7
866.503	-71.17
866.676	43.52
866.85	55.81
867.024	2.56
867.197	6.66
867.371	72.19
867.544	-3.58
867.718	49.66
867.891	82.43
868.065	-40.45
868.238	8.7
868.412	49.66
868.585	-26.11
868.759	-71.17
868.932	14.85
869.105	59.9
869.279	64
869.452	6.66
869.625	90.62
869.799	23.04
869.972	10.75
870.145	55.81
870.319	68.09
870.492	-5.63
870.665	109.05
870.838	72.19
871.011	-32.26
871.185	23.04
871.358	16.9
871.531	2.56
871.704	51.71
871.877	16.9
872.05	41.47
872.223	96.77
872.396	80.38
872.569	23.04
872.742	61.95
872.915	18.94
873.088	-48.64
873.261	59.9
873.434	-19.97
873.607	25.09
873.78	111.1
873.953	98.81
874.126	82.43
874.299	80.38
874.471	35.33
874.644	43.52
874.817	92.67
874.99	23.04
875.163	41.47
875.335	23.04
875.508	14.85
875.681	31.23
875.853	18.94
876.026	51.71
876.199	117.25
876.371	39.42
876.544	8.7
876.717	-54.78
876.889	-34.3
877.062	92.67
877.234	-24.06
877.407	78.33
877.579	47.62
877.752	96.77
877.924	43.52
878.097	18.94
878.269	14.85
878.442	47.62
878.614	-19.97
878.786	51.71
878.959	92.67
879.131	16.9
879.303	49.66
879.476	0.51
879.648	64
879.82	41.47
879.993	18.94
880.165	-1.54
880.337	2.56
880.509	-1.54
880.681	10.75
880.854	-1.54
881.026	78.33
881.198	57.86
881.37	-26.11
881.542	29.18
881.714	8.7
881.886	27.14
882.058	23.04
882.23	12.8
882.402	33.28
882.574	92.67
882.746	43.52
882.918	90.62
883.09	8.7
883.262	39.42
883.434	39.42
883.606	6.66
883.778	47.62
883.95	113.15
884.122	-67.07
884.293	23.04
884.465	55.81
884.637	39.42
884.809	6.66
884.98	27.14
885.152	-1.54
885.324	49.66
885.496	-9.73
885.667	27.14
885.839	-1.54
886.011	51.71
886.182	57.86
886.354	96.77
886.525	59.9
886.697	72.19
886.869	2.56
887.04	16.9
887.212	72.19
887.383	39.42
887.555	115.2
887.726	39.42
887.897	39.42
888.069	107.01
888.24	86.53
888.412	88.57
888.583	53.76
888.754	2.56
888.926	8.7
889.097	31.23
889.268	39.42
889.44	14.85
889.611	-17.92
889.782	-40.45
889.953	-38.4
890.125	57.86
890.296	-13.82
890.467	74.24
890.638	-32.26
890.809	57.86
890.98	47.62
891.151	-1.54
891.323	16.9
891.494	-7.68
891.665	82.43
891.836	35.33
892.007	18.94
892.178	10.75
892.349	55.81
892.52	18.94
892.691	-1.54
892.862	-32.26
893.032	-99.84
893.203	-15.87
893.374	25.09
893.545	43.52
893.716	-1.54
893.887	57.86
894.057	-26.11
894.228	51.71
894.399	6.66
894.57	14.85
894.74	37.38
894.911	88.57
895.082	33.28
895.253	39.42
895.423	14.85
895.594	70.14
895.764	27.14
895.935	-38.4
896.106	39.42
896.276	-5.63
896.447	55.81
896.617	23.04
896.788	29.18
896.958	27.14
897.129	10.75
897.299	10.75
897.47	59.9
897.64	43.52
897.81	-5.63
897.981	72.19
898.151	14.85
898.322	49.66
898.492	-15.87
898.662	-15.87
898.832	31.23
899.003	47.62
899.173	59.9
899.343	-13.82
899.513	-9.73
