Data from USB4F104151__208__14-45-24-249.txt Node

Date: Thu Mar 13 14:45:24 EDT 2025
User: louis
Spectrometer: USB4F10415
Trigger mode: 4
Integration Time (sec): 2.000000E-2
Scans to average: 1
Electric dark correction enabled: true
Nonlinearity correction enabled: false
Boxcar width: 0
XAxis mode: Wavelengths
Number of Pixels in Spectrum: 3648
>>>>>Begin Spectral Data<<<<<
178.204	-113.15
178.424	-113.15
178.644	-113.15
178.864	-66.05
179.084	-109.05
179.304	-10.75
179.524	-86.53
179.744	24.06
179.964	48.64
180.184	-31.23
180.404	-20.99
180.624	34.3
180.844	71.17
181.064	30.21
181.283	-8.7
181.503	-49.66
181.723	-0.51
181.943	-66.05
182.163	140.8
182.383	-33.28
182.602	-16.9
182.822	19.97
183.042	103.93
183.262	-33.28
183.482	-29.18
183.701	52.74
183.921	13.82
184.141	-27.14
184.361	17.92
184.58	22.02
184.8	-33.28
185.02	46.59
185.239	40.45
185.459	-53.76
185.679	-8.7
185.898	65.02
186.118	52.74
186.338	44.54
186.557	28.16
186.777	-64
186.997	28.16
187.216	-27.14
187.436	85.5
187.655	13.82
187.875	38.4
188.095	-14.85
188.314	67.07
188.534	3.58
188.753	50.69
188.973	75.26
189.192	126.46
189.412	19.97
189.631	-18.94
189.851	24.06
190.07	48.64
190.29	-29.18
190.509	87.55
190.729	28.16
190.948	1.54
191.168	97.79
191.387	73.21
191.607	-49.66
191.826	108.03
192.045	26.11
192.265	9.73
192.484	-0.51
192.704	56.83
192.923	-33.28
193.142	58.88
193.362	48.64
193.581	146.94
193.8	89.6
194.02	93.69
194.239	44.54
194.458	89.6
194.678	-20.99
194.897	-59.9
195.116	97.79
195.335	48.64
195.555	-20.99
195.774	73.21
195.993	-0.51
196.212	26.11
196.432	-12.8
196.651	15.87
196.87	40.45
197.089	58.88
197.308	-35.33
197.528	48.64
197.747	15.87
197.966	15.87
198.185	85.5
198.404	58.88
198.623	75.26
198.842	-29.18
199.062	97.79
199.281	120.32
199.5	-33.28
199.719	91.65
199.938	40.45
200.157	17.92
200.376	69.12
200.595	85.5
200.814	-90.62
201.033	-6.66
201.252	50.69
201.471	17.92
201.69	32.26
201.909	89.6
202.128	-4.61
202.347	-0.51
202.566	32.26
202.785	15.87
203.004	-2.56
203.223	17.92
203.442	46.59
203.661	26.11
203.879	75.26
204.098	17.92
204.317	-57.86
204.536	44.54
204.755	101.89
204.974	62.98
205.193	34.3
205.411	58.88
205.63	22.02
205.849	42.5
206.068	42.5
206.287	19.97
206.505	77.31
206.724	28.16
206.943	24.06
207.162	-31.23
207.381	50.69
207.599	-64
207.818	1.54
208.037	56.83
208.255	38.4
208.474	65.02
208.693	44.54
208.911	48.64
209.13	60.93
209.349	-6.66
209.567	17.92
209.786	71.17
210.005	-25.09
210.223	-43.52
210.442	-35.33
210.661	-16.9
210.879	28.16
211.098	73.21
211.316	71.17
211.535	58.88
211.753	-0.51
211.972	-14.85
212.191	30.21
212.409	26.11
212.628	97.79
212.846	17.92
213.065	-8.7
213.283	42.5
213.502	42.5
213.72	-6.66
213.938	36.35
214.157	19.97
214.375	71.17
214.594	50.69
214.812	114.17
215.031	13.82
215.249	40.45
215.467	-31.23
215.686	-25.09
215.904	34.3
216.122	-6.66
216.341	34.3
216.559	71.17
216.778	50.69
216.996	28.16
217.214	24.06
217.432	30.21
217.651	26.11
217.869	15.87
218.087	17.92
218.306	50.69
218.524	24.06
218.742	73.21
218.96	32.26
219.179	32.26
219.397	15.87
219.615	67.07
219.833	-8.7
220.051	-49.66
220.27	7.68
220.488	-0.51
220.706	7.68
220.924	-33.28
221.142	19.97
221.36	83.45
221.578	81.41
221.796	-4.61
222.015	65.02
222.233	19.97
222.451	81.41
222.669	17.92
222.887	69.12
223.105	50.69
223.323	34.3
223.541	-41.47
223.759	81.41
223.977	34.3
224.195	77.31
224.413	3.58
224.631	19.97
224.849	24.06
225.067	-10.75
225.285	7.68
225.503	40.45
225.721	-12.8
225.939	44.54
226.157	75.26
226.375	81.41
226.592	-8.7
226.81	34.3
227.028	34.3
227.246	81.41
227.464	36.35
227.682	-37.38
227.9	101.89
228.117	-25.09
228.335	-2.56
228.553	19.97
228.771	44.54
228.989	11.78
229.206	50.69
229.424	48.64
229.642	-33.28
229.86	-31.23
230.077	75.26
230.295	-57.86
230.513	60.93
230.731	56.83
230.948	-47.62
231.166	26.11
231.384	32.26
231.601	7.68
231.819	19.97
232.037	-23.04
232.254	9.73
232.472	-14.85
232.689	32.26
232.907	5.63
233.125	11.78
233.342	7.68
233.56	-25.09
233.777	7.68
233.995	-49.66
234.213	73.21
234.43	40.45
234.648	50.69
234.865	-43.52
235.083	19.97
235.3	-0.51
235.518	32.26
235.735	73.21
235.953	-10.75
236.17	56.83
236.388	42.5
236.605	65.02
236.822	15.87
237.04	15.87
237.257	38.4
237.475	-12.8
237.692	89.6
237.909	-23.04
238.127	24.06
238.344	24.06
238.562	97.79
238.779	30.21
238.996	-25.09
239.214	56.83
239.431	7.68
239.648	-4.61
239.865	34.3
240.083	85.5
240.3	11.78
240.517	-18.94
240.735	48.64
240.952	-4.61
241.169	9.73
241.386	101.89
241.603	93.69
241.821	24.06
242.038	56.83
242.255	26.11
242.472	-0.51
242.689	108.03
242.907	79.36
243.124	46.59
243.341	65.02
243.558	26.11
243.775	-8.7
243.992	-53.76
244.209	19.97
244.426	77.31
244.643	-47.62
244.86	15.87
245.078	48.64
245.295	3.58
245.512	-4.61
245.729	5.63
245.946	85.5
246.163	3.58
246.38	32.26
246.597	26.11
246.814	19.97
247.031	17.92
247.248	34.3
247.464	73.21
247.681	-8.7
247.898	-0.51
248.115	42.5
248.332	-16.9
248.549	48.64
248.766	52.74
248.983	60.93
249.2	-12.8
249.417	54.78
249.633	-14.85
249.85	24.06
250.067	-23.04
250.284	13.82
250.501	1.54
250.717	36.35
250.934	46.59
251.151	17.92
251.368	15.87
251.585	79.36
251.801	58.88
252.018	-14.85
252.235	-6.66
252.451	48.64
252.668	-12.8
252.885	24.06
253.102	17.92
253.318	-4.61
253.535	9.73
253.752	36.35
253.968	-23.04
254.185	-10.75
254.401	-6.66
254.618	89.6
254.835	19.97
255.051	97.79
255.268	58.88
255.484	48.64
255.701	3.58
255.917	44.54
256.134	-57.86
256.351	32.26
256.567	-8.7
256.784	24.06
257	26.11
257.217	44.54
257.433	56.83
257.65	34.3
257.866	56.83
258.082	19.97
258.299	-10.75
258.515	93.69
258.732	-0.51
258.948	32.26
259.165	81.41
259.381	-25.09
259.597	75.26
259.814	15.87
260.03	15.87
260.246	-20.99
260.463	48.64
260.679	11.78
260.895	48.64
261.112	44.54
261.328	-0.51
261.544	85.5
261.761	138.75
261.977	-2.56
262.193	-29.18
262.409	40.45
262.626	69.12
262.842	-16.9
263.058	44.54
263.274	15.87
263.49	7.68
263.707	54.78
263.923	75.26
264.139	7.68
264.355	93.69
264.571	65.02
264.787	87.55
265.004	62.98
265.22	-0.51
265.436	81.41
265.652	32.26
265.868	60.93
266.084	-12.8
266.3	46.59
266.516	-8.7
266.732	-57.86
266.948	-33.28
267.164	7.68
267.38	9.73
267.596	85.5
267.812	114.17
268.028	60.93
268.244	65.02
268.46	65.02
268.676	-29.18
268.892	56.83
269.108	67.07
269.324	-35.33
269.54	-0.51
269.756	73.21
269.972	15.87
270.188	-4.61
270.403	15.87
270.619	32.26
270.835	44.54
271.051	15.87
271.267	-27.14
271.483	-43.52
271.698	-16.9
271.914	81.41
272.13	-18.94
272.346	110.08
272.562	-6.66
272.777	17.92
272.993	44.54
273.209	19.97
273.425	48.64
273.64	-37.38
273.856	19.97
274.072	73.21
274.287	11.78
274.503	11.78
274.719	48.64
274.934	13.82
275.15	71.17
275.366	58.88
275.581	-8.7
275.797	56.83
276.012	46.59
276.228	48.64
276.444	65.02
276.659	40.45
276.875	-8.7
277.09	1.54
277.306	1.54
277.521	28.16
277.737	-12.8
277.952	-8.7
278.168	40.45
278.383	67.07
278.599	-41.47
278.814	42.5
279.03	-0.51
279.245	48.64
279.461	38.4
279.676	130.56
279.892	54.78
280.107	-12.8
280.322	50.69
280.538	58.88
280.753	17.92
280.969	32.26
281.184	-10.75
281.399	58.88
281.615	-16.9
281.83	38.4
282.045	-6.66
282.26	73.21
282.476	-25.09
282.691	1.54
282.906	-14.85
283.122	67.07
283.337	44.54
283.552	42.5
283.767	-41.47
283.983	48.64
284.198	62.98
284.413	56.83
284.628	15.87
284.843	73.21
285.058	9.73
285.274	-4.61
285.489	11.78
285.704	24.06
285.919	-49.66
286.134	42.5
286.349	28.16
286.564	-10.75
286.779	65.02
286.995	48.64
287.21	32.26
287.425	-4.61
287.64	9.73
287.855	30.21
288.07	-27.14
288.285	34.3
288.5	42.5
288.715	56.83
288.93	108.03
289.145	44.54
289.36	105.98
289.575	-12.8
289.79	83.45
290.004	-25.09
290.219	-27.14
290.434	-41.47
290.649	32.26
290.864	1.54
291.079	-25.09
291.294	26.11
291.509	48.64
291.724	-49.66
291.938	28.16
292.153	5.63
292.368	26.11
292.583	108.03
292.798	91.65
293.012	28.16
293.227	-20.99
293.442	-25.09
293.657	19.97
293.871	126.46
294.086	3.58
294.301	83.45
294.516	-55.81
294.73	19.97
294.945	-20.99
295.16	-18.94
295.374	36.35
295.589	75.26
295.804	13.82
296.018	48.64
296.233	7.68
296.447	26.11
296.662	32.26
296.877	40.45
297.091	52.74
297.306	-18.94
297.52	-6.66
297.735	-12.8
297.949	58.88
298.164	89.6
298.378	13.82
298.593	32.26
298.807	5.63
299.022	26.11
299.236	56.83
299.451	40.45
299.665	60.93
299.88	128.51
300.094	-86.53
300.309	52.74
300.523	15.87
300.737	56.83
300.952	9.73
301.166	-0.51
301.381	-18.94
301.595	17.92
301.809	-14.85
302.024	15.87
302.238	34.3
302.452	114.17
302.667	-49.66
302.881	50.69
303.095	97.79
303.309	7.68
303.524	-20.99
303.738	34.3
303.952	-84.48
304.166	73.21
304.381	-43.52
304.595	-0.51
304.809	28.16
305.023	44.54
305.237	5.63
305.452	15.87
305.666	93.69
305.88	56.83
306.094	44.54
306.308	26.11
306.522	97.79
306.736	77.31
306.95	26.11
307.164	52.74
307.379	58.88
307.593	-25.09
307.807	-16.9
308.021	46.59
308.235	46.59
308.449	36.35
308.663	28.16
308.877	124.41
309.091	11.78
309.305	-4.61
309.519	3.58
309.733	54.78
309.947	7.68
310.161	62.98
310.374	73.21
310.588	81.41
310.802	32.26
311.016	19.97
311.23	-4.61
311.444	-49.66
311.658	34.3
311.872	65.02
312.085	-18.94
312.299	89.6
312.513	54.78
312.727	108.03
312.941	48.64
313.154	48.64
313.368	73.21
313.582	-12.8
313.796	97.79
314.009	5.63
314.223	15.87
314.437	40.45
314.651	56.83
314.864	40.45
315.078	19.97
315.292	26.11
315.505	24.06
315.719	24.06
315.933	-8.7
316.146	40.45
316.36	-29.18
316.573	56.83
316.787	24.06
317.001	56.83
317.214	-31.23
317.428	24.06
317.641	48.64
317.855	-16.9
318.068	19.97
318.282	1.54
318.495	79.36
318.709	42.5
318.922	42.5
319.136	81.41
319.349	3.58
319.563	24.06
319.776	19.97
319.99	54.78
320.203	15.87
320.417	22.02
320.63	15.87
320.843	69.12
321.057	11.78
321.27	40.45
321.483	44.54
321.697	42.5
321.91	52.74
322.124	24.06
322.337	-14.85
322.55	83.45
322.763	50.69
322.977	62.98
323.19	-35.33
323.403	44.54
323.617	-8.7
323.83	26.11
324.043	-20.99
324.256	42.5
324.469	-33.28
324.683	-16.9
324.896	17.92
325.109	-2.56
325.322	24.06
325.535	128.51
325.748	50.69
325.962	-12.8
326.175	32.26
326.388	75.26
326.601	58.88
326.814	-0.51
327.027	73.21
327.24	89.6
327.453	-0.51
327.666	75.26
327.879	48.64
328.092	-41.47
328.305	52.74
328.518	75.26
328.731	91.65
328.944	38.4
329.157	26.11
329.37	-37.38
329.583	56.83
329.796	126.46
330.009	9.73
330.222	26.11
330.435	48.64
330.648	-4.61
330.861	65.02
331.073	116.22
331.286	-0.51
331.499	75.26
331.712	19.97
331.925	-41.47
332.138	-14.85
332.35	93.69
332.563	-0.51
332.776	46.59
332.989	22.02
333.202	-25.09
333.414	-16.9
333.627	-35.33
333.84	-8.7
334.053	101.89
334.265	9.73
334.478	7.68
334.691	40.45
334.903	67.07
335.116	36.35
335.329	32.26
335.541	1.54
335.754	52.74
335.966	-14.85
336.179	7.68
336.392	-29.18
336.604	89.6
336.817	44.54
337.029	118.27
337.242	73.21
337.454	73.21
337.667	-0.51
337.88	-8.7
338.092	48.64
338.305	54.78
338.517	17.92
338.729	36.35
338.942	60.93
339.154	48.64
339.367	-33.28
339.579	87.55
339.792	-57.86
340.004	130.56
340.217	-10.75
340.429	40.45
340.641	24.06
340.854	3.58
341.066	24.06
341.278	73.21
341.491	91.65
341.703	-8.7
341.915	17.92
342.128	101.89
342.34	40.45
342.552	32.26
342.764	15.87
342.977	28.16
343.189	73.21
343.401	30.21
343.613	28.16
343.826	26.11
344.038	-39.42
344.25	54.78
344.462	-20.99
344.674	-51.71
344.886	7.68
345.099	105.98
345.311	67.07
345.523	-41.47
345.735	-74.24
345.947	-23.04
346.159	11.78
346.371	-49.66
346.583	1.54
346.795	85.5
347.007	-31.23
347.219	40.45
347.431	-2.56
347.643	83.45
347.855	24.06
348.067	58.88
348.279	46.59
348.491	-0.51
348.703	50.69
348.915	9.73
349.127	34.3
349.339	38.4
349.551	9.73
349.763	34.3
349.975	32.26
350.187	9.73
350.399	26.11
350.61	130.56
350.822	24.06
351.034	69.12
351.246	-6.66
351.458	11.78
351.669	48.64
351.881	17.92
352.093	40.45
352.305	91.65
352.517	7.68
352.728	56.83
352.94	22.02
353.152	50.69
353.363	11.78
353.575	15.87
353.787	97.79
353.999	48.64
354.21	140.8
354.422	-14.85
354.633	48.64
354.845	36.35
355.057	77.31
355.268	126.46
355.48	26.11
355.692	-16.9
355.903	9.73
356.115	-12.8
356.326	3.58
356.538	134.65
356.749	56.83
356.961	52.74
357.172	-0.51
357.384	-0.51
357.595	52.74
357.807	1.54
358.018	-35.33
358.23	124.41
358.441	101.89
358.653	9.73
358.864	52.74
359.075	24.06
359.287	60.93
359.498	65.02
359.709	56.83
359.921	36.35
360.132	73.21
360.344	32.26
360.555	7.68
360.766	146.94
360.977	38.4
361.189	81.41
361.4	24.06
361.611	50.69
361.823	24.06
362.034	81.41
362.245	38.4
362.456	7.68
362.667	3.58
362.879	32.26
363.09	9.73
363.301	30.21
363.512	-4.61
363.723	-0.51
363.935	91.65
364.146	81.41
364.357	69.12
364.568	73.21
364.779	7.68
364.99	-31.23
365.201	3.58
365.412	81.41
365.623	15.87
365.834	67.07
366.045	85.5
366.256	3.58
366.467	56.83
366.678	40.45
366.889	-29.18
367.1	73.21
367.311	24.06
367.522	65.02
367.733	34.3
367.944	-14.85
368.155	-23.04
368.366	-14.85
368.577	79.36
368.788	114.17
368.999	7.68
369.209	26.11
369.42	89.6
369.631	97.79
369.842	-33.28
370.053	7.68
370.264	40.45
370.474	1.54
370.685	26.11
370.896	19.97
371.107	120.32
371.317	40.45
371.528	97.79
371.739	34.3
371.95	89.6
372.16	89.6
372.371	69.12
372.582	91.65
372.792	34.3
373.003	122.37
373.214	26.11
373.424	56.83
373.635	26.11
373.846	83.45
374.056	65.02
374.267	75.26
374.477	87.55
374.688	105.98
374.898	36.35
375.109	34.3
375.319	46.59
375.53	146.94
375.74	40.45
375.951	32.26
376.161	-16.9
376.372	91.65
376.582	40.45
376.793	65.02
377.003	32.26
377.214	89.6
377.424	142.85
377.635	-29.18
377.845	-4.61
378.055	114.17
378.266	1.54
378.476	91.65
378.686	83.45
378.897	83.45
379.107	89.6
379.317	116.22
379.528	-14.85
379.738	89.6
379.948	5.63
380.158	7.68
380.369	-33.28
380.579	60.93
380.789	-16.9
380.999	93.69
381.21	1.54
381.42	114.17
381.63	22.02
381.84	26.11
382.05	56.83
382.261	81.41
382.471	52.74
382.681	32.26
382.891	99.84
383.101	26.11
383.311	48.64
383.521	-0.51
383.731	50.69
383.941	105.98
384.151	81.41
384.361	28.16
384.571	73.21
384.781	46.59
384.991	112.13
385.201	91.65
385.411	9.73
385.621	118.27
385.831	58.88
386.041	15.87
386.251	34.3
386.461	24.06
386.671	15.87
386.881	60.93
387.091	108.03
387.301	48.64
387.511	30.21
387.72	32.26
387.93	-2.56
388.14	24.06
388.35	52.74
388.56	89.6
388.769	69.12
388.979	36.35
389.189	60.93
389.399	73.21
389.609	26.11
389.818	85.5
390.028	32.26
390.238	26.11
390.447	56.83
390.657	81.41
390.867	56.83
391.076	155.13
391.286	34.3
391.496	50.69
391.705	32.26
391.915	60.93
392.125	159.23
392.334	48.64
392.544	130.56
392.753	32.26
392.963	15.87
393.172	97.79
393.382	-0.51
393.591	132.61
393.801	44.54
394.01	91.65
394.22	73.21
394.429	71.17
394.639	30.21
394.848	69.12
395.058	89.6
395.267	32.26
395.477	114.17
395.686	105.98
395.895	99.84
396.105	69.12
396.314	58.88
396.524	91.65
396.733	1.54
396.942	85.5
397.152	65.02
397.361	110.08
397.57	105.98
397.78	67.07
397.989	142.85
398.198	122.37
398.407	15.87
398.617	28.16
398.826	103.93
399.035	67.07
399.244	140.8
399.453	50.69
399.663	58.88
399.872	118.27
400.081	87.55
400.29	110.08
400.499	65.02
400.708	24.06
400.917	87.55
401.127	58.88
401.336	73.21
401.545	114.17
401.754	48.64
401.963	138.75
402.172	65.02
402.381	75.26
402.59	95.74
402.799	99.84
403.008	105.98
403.217	85.5
403.426	60.93
403.635	138.75
403.844	56.83
404.053	110.08
404.262	44.54
404.471	153.09
404.68	128.51
404.888	83.45
405.097	97.79
405.306	157.18
405.515	52.74
405.724	126.46
405.933	189.95
406.142	159.23
406.35	93.69
406.559	165.37
406.768	171.52
406.977	163.33
407.185	196.09
407.394	185.85
407.603	165.37
407.812	181.76
408.02	99.84
408.229	212.48
408.438	155.13
408.646	228.86
408.855	198.14
409.064	257.53
409.272	271.87
409.481	228.86
409.69	237.05
409.898	226.81
410.107	228.86
410.315	271.87
410.524	247.29
410.733	300.54
410.941	259.58
411.15	224.76
411.358	380.41
411.567	400.89
411.775	237.05
411.984	355.83
412.192	351.74
412.401	425.47
412.609	474.62
412.818	390.65
413.026	364.03
413.234	460.28
413.443	431.61
413.651	411.13
413.86	517.62
414.068	482.81
414.276	513.53
414.485	507.38
414.693	542.2
414.901	572.92
415.11	468.47
415.318	589.3
415.526	611.83
415.734	617.97
415.943	654.84
416.151	691.7
416.359	622.07
416.567	671.22
416.776	679.41
416.984	773.62
417.192	763.38
417.4	779.76
417.608	695.8
417.817	769.52
418.025	787.96
418.233	945.65
418.441	941.55
418.649	1005.04
418.857	1080.82
419.065	1035.76
419.273	1002.99
419.481	1140.21
419.689	1129.97
419.897	1236.46
420.105	1187.31
420.313	1224.17
420.521	1232.37
420.729	1148.4
420.937	1469.93
421.145	1373.68
421.353	1514.98
421.561	1568.23
421.769	1572.33
421.977	1555.94
422.185	1687.01
422.393	1629.67
422.601	1846.76
422.809	1793.51
423.017	1781.22
423.224	1842.66
423.432	1906.15
423.64	1789.41
423.848	2129.38
424.056	2065.89
424.263	2280.93
424.471	2260.45
424.679	2203.1
424.887	2473.43
425.094	2457.05
425.302	2518.49
425.51	2590.17
425.718	2631.13
425.925	2713.05
426.133	2711
426.341	3083.73
426.548	3065.3
426.756	3147.22
426.964	3089.87
427.171	3251.66
427.379	3309.01
427.586	3474.89
427.794	3612.1
428.001	3722.7
428.209	3980.74
428.417	3888.58
428.624	4249.02
428.832	4038.08
429.039	4163.01
429.247	4025.79
429.454	4341.18
429.662	4705.72
429.869	4318.65
430.076	4781.5
430.284	4677.05
430.491	4902.33
430.699	5148.08
430.906	5141.94
431.114	5014.96
431.321	5488.04
431.528	5498.28
431.736	5715.37
431.943	6149.54
432.15	5782.95
432.358	5971.36
432.565	6278.56
432.772	6286.75
432.979	6497.69
433.187	6682.01
433.394	6720.92
433.601	7339.41
433.808	7302.54
434.016	7267.73
434.223	7415.18
434.43	7890.31
434.637	7851.4
434.844	8244.61
435.052	8523.13
435.259	8406.4
435.466	8480.13
435.673	8283.52
435.88	8844.67
436.087	9309.55
436.294	9373.04
436.501	9067.89
436.708	9291.12
436.915	9600.37
437.122	9878.89
437.329	10052.97
437.537	10329.44
437.743	10610.01
437.95	10306.91
438.157	10956.12
438.364	11378
438.571	11124.05
438.778	11312.47
438.985	12332.36
439.192	11611.47
439.399	12123.46
439.606	11771.21
439.813	12592.45
440.02	13454.64
440.227	13188.41
440.433	12795.2
440.64	13348.15
440.847	13419.83
441.054	13673.78
441.261	14411.04
441.467	14331.17
441.674	14589.22
441.881	15162.65
442.088	15199.51
442.294	14914.84
442.501	15652.11
442.708	15742.22
442.914	16276.74
443.121	17118.46
443.328	16702.72
443.534	17595.64
443.741	17163.51
443.948	17052.92
444.154	18308.33
444.361	18443.49
444.568	18398.44
444.774	18291.94
444.981	18347.24
445.187	19051.74
445.394	19741.91
445.6	19623.12
445.807	21492.92
446.013	20698.31
446.22	20780.23
446.426	21798.07
446.633	21841.07
446.839	22582.44
447.046	21798.07
447.252	22926.5
447.459	23088.29
447.665	22617.25
447.871	23798.93
448.078	24804.49
448.284	23557.27
448.491	24560.78
448.697	25576.57
448.903	25789.56
449.11	25597.05
449.316	25611.39
449.522	25998.45
449.728	26588.27
449.935	26729.58
450.141	26922.09
450.347	27358.3
450.553	26510.44
450.76	26977.38
450.966	27759.7
451.172	27579.48
451.378	28144.72
451.584	27667.55
451.791	28251.22
451.997	28339.28
452.203	28578.89
452.409	28605.52
452.615	28742.73
452.821	27798.62
453.027	27184.23
453.233	28849.22
453.44	27769.94
453.646	28267.6
453.852	27878.49
454.058	28826.7
454.264	27815
454.47	28181.59
454.676	27489.37
454.882	28449.87
455.088	26233.97
455.294	26418.28
455.5	27192.42
455.705	27274.34
455.911	26170.48
456.117	25638.01
456.323	25189.5
456.529	23780.5
456.735	24843.4
456.941	24601.74
457.147	24534.15
457.352	23463.07
457.558	23026.85
457.764	23495.83
457.97	22932.64
458.176	22459.56
458.381	22420.65
458.587	21402.81
458.793	21226.68
458.999	20225.23
459.204	21900.47
459.41	20751.56
459.616	19647.7
459.821	19711.19
460.027	19496.15
460.233	19176.67
460.438	18117.87
460.644	18382.06
460.85	17517.81
461.055	17376.5
461.261	17317.11
461.466	16164.11
461.672	15633.68
461.878	16620.8
462.083	15703.31
462.289	15256.86
462.494	15105.31
462.7	14515.49
462.905	14052.65
463.111	14808.35
463.316	14318.89
463.522	14312.74
463.727	14353.7
463.932	14239.01
464.138	14112.04
464.343	14081.32
464.549	13651.25
464.754	14099.75
464.959	14146.86
465.165	13851.95
465.37	13346.1
465.575	13004.09
465.781	13581.62
465.986	13741.36
466.191	13081.91
466.397	13028.67
466.602	12291.4
466.807	12866.88
467.012	12842.3
467.218	12477.76
467.423	12377.41
467.628	12602.69
467.833	13065.53
468.038	12586.3
468.244	12033.35
468.449	12713.28
468.654	12500.29
468.859	12315.97
469.064	12117.32
469.269	11681.1
469.474	11873.61
469.679	12004.68
469.885	11705.68
470.09	12092.74
470.295	11648.33
470.5	11255.12
470.705	11732.3
470.91	11191.64
471.115	11191.64
471.32	11246.93
471.525	11246.93
471.73	10970.46
471.935	11074.9
472.139	10650.97
472.344	10788.19
472.549	10698.08
472.754	10585.44
472.959	10227.04
473.164	10165.6
473.369	9973.1
473.574	10206.56
473.778	10177.89
473.983	9973.1
474.188	10079.59
474.393	9692.52
474.598	9774.44
474.802	9760.11
475.007	9602.41
475.212	9663.85
475.417	9276.79
475.621	9256.31
475.826	9272.69
476.031	9076.09
476.235	8949.11
476.44	9141.62
476.645	9033.08
476.849	8760.7
477.054	8764.79
477.259	8699.26
477.463	8809.85
477.668	8379.78
477.872	8390.02
478.077	8258.95
478.282	8091.01
478.486	8113.54
478.691	8072.58
478.895	7890.31
479.1	7855.5
479.304	7896.46
479.509	7882.12
479.713	7904.65
479.918	7736.71
480.122	7626.12
480.326	7683.47
480.531	7914.89
480.735	7677.32
480.94	7841.16
481.144	7822.73
481.348	7513.49
481.553	7648.65
481.757	7304.59
481.961	7554.44
482.166	7667.08
482.37	7433.61
482.574	7196.05
482.778	7454.09
482.983	7585.16
483.187	7394.7
483.391	7609.74
483.595	7429.52
483.8	7191.95
484.004	7458.19
484.208	7570.83
484.412	7261.59
484.616	7583.12
484.821	7718.28
485.025	7286.16
485.229	7589.26
485.433	7359.89
485.637	7349.65
485.841	7157.14
486.045	7394.7
486.249	7576.97
486.453	7337.36
486.657	7406.99
486.861	7505.29
487.065	7183.76
487.269	7392.66
487.473	7267.73
487.677	7501.2
487.881	7431.57
488.085	7503.25
488.289	7366.03
488.493	7376.27
488.697	7568.78
488.901	7296.4
489.105	7536.01
489.309	7531.92
489.512	7439.76
489.716	7347.6
489.92	7456.14
490.124	7568.78
490.328	7437.71
490.531	7486.86
490.735	7761.29
490.939	7646.6
491.143	7585.16
491.346	7658.89
491.55	7708.04
491.754	7619.98
491.958	7857.54
492.161	7880.07
492.365	7779.72
492.569	7822.73
492.772	7691.66
492.976	7826.82
493.18	7906.7
493.383	7980.42
493.587	8041.86
493.79	8138.12
493.994	7996.81
494.197	8088.96
494.401	8027.53
494.605	8256.9
494.808	8394.11
495.012	8351.1
495.215	8322.43
495.419	8381.82
495.622	8306.05
495.825	8512.89
496.029	8598.91
496.232	8869.24
496.436	8652.16
496.639	8893.82
496.843	8891.77
497.046	8961.4
497.249	9106.81
497.453	9309.55
497.656	9231.73
497.859	9153.91
498.063	9215.35
498.266	9588.08
498.469	9477.49
498.673	9690.48
498.876	9762.16
499.079	9923.94
499.282	9739.63
499.485	9950.57
499.689	10132.84
499.892	10349.92
500.095	10327.39
500.298	10534.24
500.501	10374.5
500.705	10700.12
500.908	10804.57
501.111	10751.32
501.314	11132.25
501.517	10997.08
501.72	11349.33
501.923	11107.67
502.126	11476.3
502.329	11623.76
502.532	11734.35
502.735	11918.67
502.938	12252.49
503.141	12197.19
503.344	12463.43
503.547	12262.72
503.75	12418.37
503.953	12690.75
504.156	12672.32
504.359	12784.96
504.562	12995.9
504.765	13307.19
504.968	13294.9
505.17	13483.31
505.373	13546.8
505.576	13690.16
505.779	13849.9
505.982	14013.74
506.185	14417.19
506.387	14198.06
506.59	14558.5
506.793	14877.98
506.996	14773.53
507.198	15160.6
507.401	15025.43
507.604	15389.97
507.807	15371.54
508.009	15617.3
508.212	15672.59
508.415	15961.36
508.617	16125.19
508.82	16061.71
509.022	16280.84
509.225	16522.5
509.428	16727.3
509.63	16907.52
509.833	16833.79
510.035	17421.56
510.238	17231.1
510.44	17374.45
510.643	17679.6
510.845	17857.78
511.048	17734.9
511.25	17923.31
511.453	18662.63
511.655	19053.79
511.858	18656.48
512.06	18863.33
512.262	19029.21
512.465	19221.72
512.667	19403.99
512.87	19522.77
513.072	19533.01
513.274	19944.66
513.477	20219.08
513.679	20155.6
513.881	20774.08
514.084	20772.04
514.286	20819.14
514.488	20903.11
514.69	21658.81
514.893	21677.24
515.095	21585.08
515.297	21783.73
515.499	21710
515.701	22559.91
515.904	22680.74
516.106	22740.13
516.308	22916.26
516.51	23057.57
516.712	23256.22
516.914	23596.18
517.116	23788.69
517.318	23616.66
517.52	23987.35
517.722	24095.89
517.925	24433.8
518.127	24935.56
518.329	24667.27
518.531	24822.92
518.733	25138.3
518.935	25412.73
519.136	25539.71
519.338	25912.44
519.54	26168.43
519.742	26137.71
519.944	26307.69
520.146	26954.85
520.348	26584.17
520.55	26879.08
520.752	26977.38
520.954	27606.11
521.155	27157.6
521.357	27946.07
521.559	27982.93
521.761	28476.49
521.963	28019.8
522.164	28210.26
522.366	28589.13
522.568	28800.07
522.77	28867.66
522.971	29412.42
523.173	29224
523.375	29826.1
523.576	29510.72
523.778	29783.1
523.98	29967.41
524.181	30276.66
524.383	30032.95
524.584	30721.07
524.786	30506.03
524.988	30321.71
525.189	30938.15
525.391	31306.79
525.592	30944.3
525.794	31298.59
525.995	31423.52
526.197	31532.06
526.398	31665.18
526.6	31847.45
526.801	32019.48
527.003	32203.8
527.204	31833.11
527.406	32384.02
527.607	32529.42
527.808	32748.56
528.01	31955.99
528.211	31974.42
528.412	33360.9
528.614	33283.08
528.815	33041.42
529.016	32967.69
529.218	33074.18
529.419	32992.26
529.62	33133.57
529.822	33283.08
530.023	33281.03
530.224	33264.64
530.425	33321.99
530.626	33119.24
530.828	33123.33
531.029	33436.67
531.23	33620.99
531.431	33227.78
531.632	33623.04
531.833	33688.57
532.035	33881.08
532.236	33821.69
532.437	33833.98
532.638	33446.91
532.839	33965.05
533.04	34206.71
533.241	33831.93
533.442	34692.08
533.643	34110.46
533.844	34108.41
534.045	33958.91
534.246	33829.88
534.447	33979.39
534.648	33870.84
534.849	33975.29
535.05	34175.99
535.251	34149.37
535.451	34034.68
535.652	34270.2
535.853	33666.05
536.054	34337.78
536.255	34102.26
536.456	34075.64
536.657	34212.85
536.857	34161.65
537.058	34110.46
537.259	34204.66
537.46	34139.13
537.66	34020.34
537.861	34165.75
538.062	33952.76
538.263	34028.54
538.463	33919.99
538.664	34034.68
538.865	34178.04
539.065	34317.3
539.266	33696.77
539.466	34182.13
539.667	33641.47
539.868	34102.26
540.068	34073.59
540.269	34110.46
540.469	33657.85
540.67	33844.22
540.87	34079.74
541.071	33991.67
541.271	33911.8
541.472	33934.33
541.672	33979.39
541.873	33676.29
542.073	33600.51
542.274	34026.49
542.474	33864.7
542.675	33416.19
542.875	34194.42
543.075	34014.2
543.276	33387.52
543.476	33870.84
543.676	33723.39
543.877	34038.78
544.077	34030.58
544.277	33582.08
544.478	33750.01
544.678	33786.88
544.878	33758.2
545.078	34167.8
545.279	33549.31
545.479	34159.61
545.679	33911.8
545.879	33975.29
546.079	33549.31
546.28	33674.24
546.48	33608.7
546.68	33641.47
546.88	33973.24
547.08	33844.22
547.28	33580.03
547.48	33674.24
547.68	33991.67
547.88	33647.61
548.081	33637.37
548.281	33231.88
548.481	33250.31
548.681	33897.47
548.881	33612.8
549.081	33618.94
549.28	33258.5
549.48	33655.81
549.68	33195.01
549.88	33979.39
550.08	33414.15
550.28	33498.11
550.48	33704.96
550.68	33381.38
550.88	33256.45
551.08	33451.01
551.279	33563.65
551.479	33057.8
551.679	33344.52
551.879	33133.57
552.079	33416.19
552.278	33264.64
552.478	33375.23
552.678	33344.52
552.878	33625.09
553.077	33254.4
553.277	32982.02
553.477	33430.53
553.676	33074.18
553.876	33248.26
554.076	32689.17
554.275	32959.5
554.475	32832.52
554.674	33235.97
554.874	33463.3
555.074	33170.44
555.273	32850.95
555.473	32984.07
555.672	32750.6
555.872	33127.43
556.071	32838.67
556.271	32850.95
556.47	32689.17
556.67	32543.76
556.869	32513.04
557.068	32834.57
557.268	32291.86
557.467	32582.67
557.667	32441.36
557.866	32418.83
558.065	32705.55
558.265	32486.42
558.464	32408.59
558.663	32543.76
558.863	32097.3
559.062	32717.84
559.261	32033.82
559.461	32660.49
559.66	31794.2
559.859	32351.25
560.058	31665.18
560.258	32377.87
560.457	31947.8
560.656	32107.54
560.855	31931.42
561.054	32173.08
561.253	31654.94
561.453	31763.48
561.652	32109.59
561.851	31992.86
562.05	31812.63
562.249	31503.39
562.448	31818.78
562.647	31638.56
562.846	31484.96
563.045	31427.62
563.244	31151.14
563.443	31794.2
563.642	30895.14
563.841	31112.23
564.04	31253.54
564.239	31751.2
564.438	31046.69
564.637	31040.55
564.836	31142.95
565.035	31083.56
565.234	31118.37
565.432	30665.77
565.631	30657.58
565.83	30819.37
566.029	30796.84
566.228	30532.65
566.427	30286.9
566.625	30299.19
566.824	29850.68
567.023	30493.74
567.222	29891.64
567.42	30428.21
567.619	29971.51
567.818	29969.46
568.016	29815.87
568.215	30276.66
568.414	29930.55
568.612	29987.89
568.811	29580.35
569.01	29791.29
569.208	29242.43
569.407	29793.34
569.605	29060.16
569.804	29602.88
570.002	29109.32
570.201	29725.75
570.4	29355.07
570.598	28976.2
570.797	28677.19
570.995	28920.9
571.193	28634.19
571.392	29056.07
571.59	28636.24
571.789	28922.95
571.987	28798.02
572.186	28611.66
572.384	28601.42
572.582	28931.14
572.781	28370
572.979	28017.75
573.177	28509.26
573.376	28259.41
573.574	28011.6
573.772	28169.3
573.971	27946.07
574.169	27790.42
574.367	27741.27
574.565	28095.57
574.763	27677.79
574.962	27923.54
575.16	27561.05
575.358	27710.55
575.556	27409.5
575.754	27692.12
575.952	27128.93
576.151	27583.58
576.349	27216.99
576.547	27083.87
576.745	27260
576.943	26999.91
577.141	27042.92
577.339	26750.06
577.537	26881.13
577.735	27042.92
577.933	26844.26
578.131	26514.54
578.329	26356.85
578.527	26522.73
578.725	26244.21
578.923	26764.39
579.121	26342.51
579.319	26268.78
579.516	26408.05
579.714	26281.07
579.912	26143.86
580.11	26281.07
580.308	25867.38
580.506	25748.6
580.704	25435.26
580.901	25853.05
581.099	25984.12
581.297	25455.74
581.495	25691.26
581.692	25691.26
581.89	25304.19
582.088	25644.15
582.285	25173.12
582.483	25326.72
582.681	25160.83
582.878	25040
583.076	24882.31
583.274	25312.38
583.471	24816.77
583.669	24851.59
583.866	25015.43
584.064	24878.21
584.262	24376.46
584.459	24579.21
584.657	24394.89
584.854	24792.2
585.052	24261.77
585.249	24181.9
585.447	24458.38
585.644	24018.07
585.841	24140.94
586.039	24214.67
586.236	23878.8
586.434	23835.8
586.631	23514.27
586.828	23651.48
587.026	23721.11
587.223	23731.35
587.42	23878.8
587.618	23587.99
587.815	23522.46
588.012	23329.95
588.21	23157.92
588.407	23196.83
588.604	23282.84
588.801	22820
588.999	23049.38
589.196	22881.44
589.393	23092.38
589.59	23065.76
589.787	22703.27
589.984	22494.38
590.182	22371.5
590.379	22725.8
590.576	22703.27
590.773	22504.62
590.97	22240.43
591.167	22494.38
591.364	22209.71
591.561	22418.6
591.758	21798.07
591.955	22166.7
592.152	22181.04
592.349	22021.3
592.546	22068.4
592.743	21841.07
592.94	21716.15
593.137	21974.19
593.334	21812.4
593.531	21511.35
593.727	21427.39
593.924	21615.8
594.121	21572.79
594.318	21548.22
594.515	21109.95
594.712	21200.06
594.908	21054.65
595.105	21378.23
595.302	21021.89
595.499	20866.24
595.696	20946.11
595.892	20745.41
596.089	20978.88
596.286	20825.28
596.482	20991.17
596.679	20425.93
596.876	20344.01
597.072	20434.12
597.269	20341.96
597.466	20208.84
597.662	20403.4
597.859	20223.18
598.055	20397.26
598.252	20202.7
598.448	20180.17
598.645	19913.94
598.841	19770.58
599.038	20120.78
599.234	19657.94
599.431	19502.29
599.627	19553.49
599.824	19950.8
600.02	19389.66
600.217	19635.41
600.413	19354.84
600.609	19584.21
600.806	19336.41
601.002	19553.49
601.198	19100.89
601.395	19059.93
601.591	19129.56
601.787	19207.39
601.984	18873.57
602.18	19199.2
602.376	19092.7
602.572	18986.21
602.769	18762.98
602.965	18789.6
603.161	19008.73
603.357	18627.81
603.553	18509.03
603.75	18427.11
603.946	18519.27
604.142	18337
604.338	18097.39
604.534	18384.1
604.73	18134.25
604.926	18105.58
605.122	18291.94
605.318	17825.01
605.514	18003.18
605.71	18068.72
605.906	17843.44
606.102	17970.41
606.298	17726.71
606.494	18013.42
606.69	17845.49
606.886	17722.61
607.082	17288.44
607.278	17892.59
607.474	17409.27
607.67	17370.36
607.866	17253.62
608.062	17603.83
608.257	17208.57
608.453	17222.91
608.649	17372.41
608.845	17079.55
609.041	17366.26
609.236	17263.86
609.432	17272.06
609.628	17065.21
609.824	16923.9
610.019	16774.4
610.215	16958.72
610.411	16981.24
610.606	16911.61
610.802	16962.81
610.998	16792.83
611.193	16643.33
611.389	16850.17
611.584	16731.39
611.78	16823.55
611.976	16534.79
612.171	16932.09
612.367	16624.9
612.562	16211.21
612.758	16178.44
612.953	16483.59
613.149	16495.88
613.344	16477.44
613.539	16710.91
613.735	16157.96
613.93	16274.7
614.126	16301.32
614.321	16661.76
614.517	16268.55
614.712	16018.7
614.907	16346.37
615.103	16295.18
615.298	15918.35
615.493	16049.42
615.688	15967.5
615.884	16133.39
616.079	15748.37
616.274	16026.89
616.47	15932.68
616.665	15889.68
616.86	15779.09
617.055	15715.6
617.25	15699.22
617.445	15897.87
617.641	15490.32
617.836	15809.81
618.031	15260.95
618.226	15805.71
618.421	15658.26
618.616	15654.16
618.811	15293.72
619.006	15607.06
619.201	15111.45
619.396	15244.57
619.591	15072.54
619.786	15265.05
619.981	14982.43
620.176	15258.9
620.371	14787.87
620.566	14869.79
620.761	14929.18
620.956	14609.7
621.151	14593.31
621.346	14511.39
621.541	14378.28
621.735	14591.27
621.93	14247.21
622.125	14495.01
622.32	14142.76
622.515	14132.52
622.709	14140.71
622.904	14091.56
623.099	14109.99
623.294	14011.69
623.488	13843.76
623.683	13630.77
623.878	13618.48
624.072	13659.44
624.267	13321.52
624.462	13561.14
624.656	13348.15
624.851	13417.78
625.046	13157.69
625.24	13065.53
625.435	13102.39
625.629	13057.34
625.824	12932.41
626.018	12909.88
626.213	12582.21
626.407	12852.54
626.602	12590.4
626.796	12758.33
626.991	12619.07
627.185	12340.55
627.38	12563.78
627.574	12121.42
627.768	12184.9
627.963	12219.72
628.157	12184.9
628.352	12070.22
628.546	11818.32
628.74	11924.81
628.935	11861.32
629.129	11838.8
629.323	11500.88
629.517	11650.38
629.712	11803.98
629.906	11521.36
630.1	11427.15
630.294	11550.03
630.489	11228.5
630.683	11392.34
630.877	11205.97
631.071	11052.38
631.265	11316.56
631.459	11074.9
631.653	11038.04
631.848	11003.22
632.042	11025.75
632.236	10966.36
632.43	10796.38
632.624	10763.61
632.818	10763.61
633.012	10784.09
633.206	10790.24
633.4	10558.81
633.594	10403.17
633.788	10460.51
633.982	10380.64
634.176	10331.49
634.369	10280.29
634.563	10079.59
634.757	10114.41
634.951	10300.77
635.145	10212.71
635.339	10061.16
635.533	10077.54
635.726	9921.9
635.92	9874.79
636.114	9799.02
636.308	9925.99
636.501	9706.86
636.695	9731.44
636.889	9411.95
637.083	9551.21
637.276	9516.4
637.47	9297.27
637.664	9393.52
637.857	9414
638.051	9348.47
638.244	9319.79
638.438	9307.51
638.632	9381.23
638.825	9096.57
639.019	9129.33
639.212	9082.23
639.406	9016.69
639.599	8902.01
639.793	8887.67
639.986	8850.81
640.18	8789.37
640.373	8998.26
640.567	8615.29
640.76	8715.64
640.954	8570.24
641.147	8596.86
641.34	8428.93
641.534	8529.28
641.727	8519.04
641.92	8375.68
642.114	8351.1
642.307	8287.62
642.5	8211.84
642.694	8228.23
642.887	8226.18
643.08	8256.9
643.273	8142.21
643.467	8023.43
643.66	8109.44
643.853	7945.61
644.046	7904.65
644.239	7900.55
644.432	7658.89
644.626	7796.11
644.819	7871.88
645.012	7789.96
645.205	7773.58
645.398	7691.66
645.591	7554.44
645.784	7486.86
645.977	7482.77
646.17	7384.46
646.363	7404.94
646.556	7327.12
646.749	7396.75
646.942	7456.14
647.135	7204.24
647.328	7255.44
647.521	7077.27
647.714	7114.13
647.907	7255.44
648.099	6946.2
648.292	7261.59
648.485	6851.99
648.678	6933.91
648.871	6938.01
649.064	6888.85
649.256	6849.94
649.449	6784.41
649.642	6649.24
649.835	6718.87
650.027	6569.37
650.22	6503.84
650.413	6565.28
650.605	6684.06
650.798	6507.93
650.991	6546.84
651.183	6342.05
651.376	6321.57
651.568	6544.8
651.761	6383.01
651.954	6364.57
652.146	6407.58
652.339	6301.09
652.531	6176.16
652.724	6145.44
652.916	6129.06
653.109	6069.67
653.301	6165.92
653.494	6086.05
653.686	5817.77
653.879	6194.59
654.071	5957.03
654.263	6004.13
654.456	5887.4
654.648	5938.6
654.84	5905.83
655.033	5748.14
655.225	5922.21
655.417	5723.56
655.61	5684.65
655.802	5733.8
655.994	5647.79
656.186	5668.27
656.379	5703.08
656.571	5561.77
656.763	5488.04
656.955	5416.37
657.148	5596.59
657.34	5483.95
657.532	5344.69
657.724	5471.66
657.916	5434.8
658.108	5418.41
658.3	5316.01
658.492	5367.21
658.684	5115.31
658.876	5301.68
659.068	5234.1
659.26	5135.79
659.452	5088.69
659.644	5213.62
659.836	5103.03
660.028	5088.69
660.22	4914.61
660.412	5033.4
660.604	4947.38
660.796	5035.44
660.988	4861.37
661.18	4910.52
661.372	4873.65
661.563	5025.2
661.755	4718.01
661.947	4783.54
662.139	4699.58
662.331	4740.54
662.522	4787.64
662.714	4816.31
662.906	4681.14
663.097	4795.83
663.289	4818.36
663.481	4621.75
663.673	4562.36
663.864	4466.11
664.056	4615.61
664.247	4519.36
664.439	4459.96
664.631	4472.25
664.822	4414.91
665.014	4496.83
665.205	4410.81
665.397	4238.78
665.588	4257.22
665.78	4298.17
665.971	4257.22
666.163	4332.99
666.354	4212.16
666.546	4277.69
666.737	4103.62
666.929	4199.87
667.12	4251.07
667.311	4210.11
667.503	4150.72
667.694	4056.51
667.885	4115.91
668.077	4171.2
668.268	4111.81
668.459	3931.59
668.651	4105.67
668.842	4007.36
669.033	3915.2
669.224	3990.98
669.416	3915.2
669.607	3988.93
669.798	3800.52
669.989	4029.89
670.18	3978.69
670.371	4001.22
670.563	3808.71
670.754	3831.24
670.945	3767.75
671.136	3843.53
671.327	3728.84
671.518	3685.83
671.709	3761.61
671.9	3788.23
672.091	3745.22
672.282	3657.16
672.473	3648.97
672.664	3718.6
672.855	3665.35
673.046	3698.12
673.237	3722.7
673.428	3608.01
673.619	3677.64
673.809	3581.39
674	3530.19
674.191	3513.8
674.382	3612.1
674.573	3567.05
674.764	3526.09
674.954	3466.7
675.145	3532.23
675.336	3583.43
675.527	3456.46
675.717	3331.53
675.908	3417.55
676.099	3497.42
676.289	3337.68
676.48	3288.53
676.671	3409.36
676.861	3448.27
677.052	3255.76
677.243	3423.69
677.433	3263.95
677.624	3438.03
677.814	3212.75
678.005	3249.61
678.195	3317.2
678.386	3177.94
678.576	3214.8
678.767	3286.48
678.957	3378.64
679.148	3190.22
679.338	3347.92
679.529	3194.32
679.719	3362.25
679.909	3372.49
680.1	3284.43
680.29	3210.7
680.481	3079.63
680.671	3270.09
680.861	3075.54
681.052	3266
681.242	3218.89
681.432	3292.62
681.622	3096.02
681.813	3153.36
682.003	3063.25
682.193	3077.59
682.383	3128.78
682.573	2999.76
682.764	3100.11
682.954	3069.39
683.144	3104.21
683.334	3022.29
683.524	3001.81
683.714	3096.02
683.904	2997.71
684.094	3026.39
684.284	2940.37
684.474	2844.12
684.664	2983.38
684.854	3030.48
685.044	3034.58
685.234	3010
685.424	2934.23
685.614	2842.07
685.804	2981.33
685.994	2893.27
686.184	3014.1
686.374	2919.89
686.564	2737.62
686.753	2874.84
686.943	2680.28
687.133	2891.22
687.323	2754.01
687.513	2817.49
687.702	2782.68
687.892	2745.81
688.082	2751.96
688.272	2803.16
688.461	2682.33
688.651	2833.88
688.841	2717.14
689.03	2665.94
689.22	2530.78
689.41	2530.78
689.599	2655.7
689.789	2606.55
689.979	2694.61
690.168	2647.51
690.358	2581.98
690.547	2657.75
690.737	2475.48
690.926	2608.6
691.116	2522.59
691.305	2530.78
691.495	2563.54
691.684	2569.69
691.874	2481.63
692.063	2555.35
692.252	2518.49
692.442	2508.25
692.631	2522.59
692.82	2588.12
693.01	2364.89
693.199	2407.9
693.388	2383.32
693.578	2407.9
693.767	2368.99
693.956	2440.67
694.146	2426.33
694.335	2397.66
694.524	2268.64
694.713	2348.51
694.902	2260.45
695.092	2354.65
695.281	2305.5
695.47	2209.25
695.659	2278.88
695.848	2340.32
696.037	2258.4
696.226	2246.11
696.415	2418.14
696.604	2278.88
696.793	2239.97
696.982	2205.15
697.171	2295.26
697.36	2289.12
697.549	2141.66
697.738	2244.06
697.927	2246.11
698.116	2186.72
698.305	2178.53
698.494	2227.68
698.683	2237.92
698.872	2272.73
699.061	2215.39
699.25	2143.71
699.438	2252.25
699.627	2176.48
699.816	2260.45
700.005	2211.29
700.193	2061.79
700.382	2135.52
700.571	2235.87
700.76	2170.33
700.948	2145.76
701.137	2115.04
701.326	2184.67
701.514	2256.35
701.703	2149.86
701.892	2149.86
702.08	2162.14
702.269	1996.26
702.457	2063.84
702.646	2067.94
702.834	2139.62
703.023	2080.22
703.212	2104.8
703.4	2147.81
703.589	2108.9
703.777	2133.47
703.965	2078.18
704.154	2117.09
704.342	2104.8
704.531	2166.24
704.719	2112.99
704.907	2190.81
705.096	2055.65
705.284	2043.36
705.472	2080.22
705.661	2112.99
705.849	2147.81
706.037	2059.74
706.226	2194.91
706.414	2098.66
706.602	1973.73
706.79	2014.69
706.979	1983.97
707.167	2033.12
707.355	1961.44
707.543	2024.93
707.731	2000.35
707.919	2057.7
708.107	2004.45
708.296	2031.07
708.484	1920.48
708.672	2080.22
708.86	2033.12
709.048	2080.22
709.236	2082.27
709.424	2123.23
709.612	2024.93
709.8	1996.26
709.988	2096.61
710.176	1951.2
710.364	2086.37
710.551	2055.65
710.739	2039.26
710.927	1967.59
711.115	1986.02
711.303	1990.11
711.491	2084.32
711.679	1934.82
711.866	2008.55
712.054	2082.27
712.242	2039.26
712.43	2100.7
712.617	2055.65
712.805	1955.3
712.993	2006.5
713.181	1969.63
713.368	2031.07
713.556	2088.42
713.744	1949.15
713.931	2065.89
714.119	2000.35
714.306	1969.63
714.494	2022.88
714.682	2006.5
714.869	2047.46
715.057	2047.46
715.244	2059.74
715.432	2088.42
715.619	2018.79
715.807	2088.42
715.994	1992.16
716.182	2022.88
716.369	2016.74
716.556	2010.59
716.744	1918.43
716.931	2031.07
717.119	1949.15
717.306	1914.34
717.493	2002.4
717.681	2016.74
717.868	2096.61
718.055	2067.94
718.242	2012.64
718.43	2121.18
718.617	2088.42
718.804	1996.26
718.991	2080.22
719.179	2014.69
719.366	2039.26
719.553	2041.31
719.74	1981.92
719.927	1936.87
720.114	2031.07
720.301	1994.21
720.488	1908.19
720.676	2065.89
720.863	2039.26
721.05	1996.26
721.237	2031.07
721.424	1900
721.611	2000.35
721.798	1916.39
721.985	2026.98
722.172	2059.74
722.358	2041.31
722.545	2008.55
722.732	2043.36
722.919	2041.31
723.106	1990.11
723.293	2014.69
723.48	2022.88
723.667	2063.84
723.853	1938.91
724.04	2022.88
724.227	2031.07
724.414	2039.26
724.6	2123.23
724.787	2049.5
724.974	2031.07
725.161	2115.04
725.347	2000.35
725.534	1983.97
725.72	2006.5
725.907	1975.78
726.094	2018.79
726.28	1971.68
726.467	2022.88
726.653	2014.69
726.84	2031.07
727.027	2026.98
727.213	1965.54
727.4	1965.54
727.586	2072.03
727.773	1979.87
727.959	2022.88
728.145	2076.13
728.332	2084.32
728.518	2043.36
728.705	1998.31
728.891	2029.03
729.077	2022.88
729.264	1965.54
729.45	1883.62
729.636	2049.5
729.823	1887.72
730.009	2112.99
730.195	1977.83
730.382	2037.22
730.568	1918.43
730.754	2053.6
730.94	1957.35
731.126	2031.07
731.313	2084.32
731.499	1973.73
731.685	2033.12
731.871	1912.29
732.057	2014.69
732.243	2072.03
732.429	1940.96
732.615	1932.77
732.801	2057.7
732.987	2024.93
733.173	1969.63
733.359	1998.31
733.545	1983.97
733.731	1916.39
733.917	1963.49
734.103	2016.74
734.289	1924.58
734.475	1908.19
734.661	1998.31
734.847	1943.01
735.033	2012.64
735.219	2082.27
735.404	2055.65
735.59	1965.54
735.776	1854.95
735.962	1854.95
736.148	2082.27
736.333	1981.92
736.519	1986.02
736.705	1891.81
736.89	1920.48
737.076	2039.26
737.262	2033.12
737.447	1969.63
737.633	1885.67
737.819	1969.63
738.004	1887.72
738.19	1975.78
738.375	2008.55
738.561	1949.15
738.747	1871.33
738.932	1801.7
739.118	2055.65
739.303	1900
739.489	1893.86
739.674	1865.19
739.859	1924.58
740.045	1859.04
740.23	1861.09
740.416	1910.24
740.601	1908.19
740.786	1885.67
740.972	1924.58
741.157	1869.28
741.342	1871.33
741.528	1801.7
741.713	1926.63
741.898	1748.45
742.084	1762.79
742.269	1891.81
742.454	1836.52
742.639	1854.95
742.824	1795.56
743.01	1924.58
743.195	1916.39
743.38	1793.51
743.565	1801.7
743.75	1828.32
743.935	1813.99
744.12	1754.6
744.305	1713.64
744.49	1785.32
744.675	1734.12
744.86	1777.12
745.045	1764.84
745.23	1773.03
745.415	1787.36
745.6	1756.65
745.785	1596.9
745.97	1760.74
746.155	1768.93
746.34	1631.72
746.525	1596.9
746.71	1693.16
746.895	1529.32
747.079	1609.19
747.264	1734.12
747.449	1584.62
747.634	1596.9
747.819	1695.21
748.003	1723.88
748.188	1510.89
748.373	1537.51
748.557	1576.42
748.742	1641.96
748.927	1478.12
749.111	1551.85
749.296	1635.82
749.481	1590.76
749.665	1605.1
749.85	1500.65
750.034	1590.76
750.219	1482.22
750.404	1519.08
750.588	1613.29
750.773	1408.49
750.957	1482.22
751.141	1424.87
751.326	1467.88
751.51	1367.53
751.695	1428.97
751.879	1469.93
752.064	1424.87
752.248	1449.45
752.432	1500.65
752.617	1420.78
752.801	1488.36
752.985	1396.2
753.17	1310.19
753.354	1349.1
753.538	1400.3
753.722	1355.24
753.907	1365.48
754.091	1371.63
754.275	1355.24
754.459	1277.42
754.643	1302
754.828	1342.96
755.012	1349.1
755.196	1207.79
755.38	1236.46
755.564	1310.19
755.748	1256.94
755.932	1326.57
756.116	1252.84
756.3	1215.98
756.484	1326.57
756.668	1265.13
756.852	1211.89
757.036	1156.59
757.22	1220.08
757.404	1177.07
757.588	1132.01
757.772	1232.37
757.956	1109.49
758.14	1211.89
758.323	1046
758.507	1125.87
758.691	1060.34
758.875	1195.5
759.059	1117.68
759.242	1056.24
759.426	1103.34
759.61	1078.77
759.794	974.32
759.977	1105.39
760.161	1240.56
760.345	1095.15
760.528	1103.34
760.712	1025.52
760.895	1074.67
761.079	1107.44
761.263	1048.05
761.446	1048.05
761.63	1013.23
761.813	1175.02
761.997	1015.28
762.18	949.75
762.364	1091.06
762.547	1007.09
762.731	912.88
762.914	1015.28
763.098	1007.09
763.281	1099.25
763.464	949.75
763.648	947.7
763.831	933.36
764.015	974.32
764.198	900.59
764.381	966.13
764.564	900.59
764.748	943.6
764.931	894.45
765.114	908.79
765.297	968.18
765.481	906.74
765.664	884.21
765.847	865.78
766.03	876.02
766.213	822.77
766.397	1011.18
766.58	955.89
766.763	947.7
766.946	927.22
767.129	869.87
767.312	908.79
767.495	812.53
767.678	851.44
767.861	876.02
768.044	910.83
768.227	863.73
768.41	830.96
768.593	853.49
768.776	822.77
768.959	812.53
769.142	892.4
769.324	810.48
769.507	800.24
769.69	851.44
769.873	765.43
770.056	908.79
770.239	861.68
770.421	769.52
770.604	814.58
770.787	724.47
770.97	855.54
771.152	810.48
771.335	738.8
771.518	785.91
771.7	876.02
771.883	900.59
772.066	802.29
772.248	810.48
772.431	810.48
772.613	790
772.796	761.33
772.978	732.66
773.161	802.29
773.343	796.15
773.526	710.13
773.708	796.15
773.891	800.24
774.073	781.81
774.256	753.14
774.438	757.24
774.621	687.61
774.803	802.29
774.985	720.37
775.168	703.99
775.35	675.32
775.532	695.8
775.715	648.69
775.897	710.13
776.079	689.65
776.261	636.41
776.444	574.97
776.626	701.94
776.808	622.07
776.99	624.12
777.173	695.8
777.355	693.75
777.537	650.74
777.719	556.54
777.901	687.61
778.083	656.89
778.265	593.4
778.447	638.45
778.629	548.34
778.811	646.65
778.993	523.77
779.175	706.04
779.357	630.26
779.539	617.97
779.721	523.77
779.903	597.49
780.085	638.45
780.267	556.54
780.449	536.06
780.631	556.54
780.812	591.35
780.994	466.42
781.176	593.4
781.358	583.16
781.54	542.2
781.721	564.73
781.903	583.16
782.085	482.81
782.267	525.82
782.448	474.62
782.63	507.38
782.812	523.77
782.993	556.54
783.175	493.05
783.357	413.18
783.538	558.58
783.72	466.42
783.901	495.1
784.083	450.04
784.264	581.11
784.446	425.47
784.627	474.62
784.809	433.66
784.99	423.42
785.172	460.28
785.353	415.23
785.535	413.18
785.716	484.86
785.897	429.56
786.079	474.62
786.26	417.27
786.441	380.41
786.623	413.18
786.804	361.98
786.985	480.76
787.167	441.85
787.348	388.6
787.529	450.04
787.71	433.66
787.891	456.19
788.073	372.22
788.254	325.12
788.435	417.27
788.616	388.6
788.797	466.42
788.978	400.89
789.159	417.27
789.34	337.4
789.522	392.7
789.703	361.98
789.884	347.64
790.065	384.51
790.246	353.79
790.427	284.16
790.607	493.05
790.788	400.89
790.969	382.46
791.15	435.71
791.331	321.02
791.512	308.73
791.693	318.97
791.874	304.64
792.054	310.78
792.235	339.45
792.416	327.16
792.597	308.73
792.778	245.24
792.958	347.64
793.139	269.82
793.32	261.63
793.5	253.44
793.681	380.41
793.862	271.87
794.042	310.78
794.223	321.02
794.404	312.83
794.584	343.55
794.765	273.92
794.945	349.69
795.126	247.29
795.306	345.59
795.487	335.35
795.667	294.4
795.848	335.35
796.028	259.58
796.209	302.59
796.389	347.64
796.57	384.51
796.75	253.44
796.93	259.58
797.111	228.86
797.291	224.76
797.471	323.07
797.652	282.11
797.832	245.24
798.012	374.27
798.192	269.82
798.373	318.97
798.553	265.72
798.733	245.24
798.913	273.92
799.093	253.44
799.274	306.68
799.454	228.86
799.634	187.9
799.814	275.96
799.994	232.96
800.174	237.05
800.354	343.55
800.534	208.38
800.714	243.2
800.894	220.67
801.074	212.48
801.254	247.29
801.434	269.82
801.614	273.92
801.794	91.65
801.974	779.76
802.154	212.48
802.334	253.44
802.514	206.33
802.693	173.57
802.873	189.95
803.053	253.44
803.233	239.1
803.413	230.91
803.592	187.9
803.772	175.61
803.952	220.67
804.131	99.84
804.311	198.14
804.491	271.87
804.67	181.76
804.85	108.03
805.03	230.91
805.209	282.11
805.389	120.32
805.568	169.47
805.748	192
805.928	196.09
806.107	157.18
806.287	183.81
806.466	220.67
806.646	163.33
806.825	169.47
807.004	167.42
807.184	163.33
807.363	192
807.543	220.67
807.722	179.71
807.901	173.57
808.081	159.23
808.26	157.18
808.439	169.47
808.619	175.61
808.798	163.33
808.977	196.09
809.156	216.57
809.336	192
809.515	175.61
809.694	138.75
809.873	105.98
810.052	155.13
810.231	224.76
810.411	126.46
810.59	194.05
810.769	124.41
810.948	116.22
811.127	243.2
811.306	183.81
811.485	163.33
811.664	181.76
811.843	159.23
812.022	134.65
812.201	179.71
812.38	108.03
812.559	122.37
812.737	218.62
812.916	134.65
813.095	54.78
813.274	120.32
813.453	81.41
813.632	204.28
813.811	122.37
813.989	130.56
814.168	200.19
814.347	138.75
814.526	171.52
814.704	163.33
814.883	159.23
815.062	58.88
815.24	97.79
815.419	167.42
815.598	179.71
815.776	108.03
815.955	202.24
816.133	36.35
816.312	159.23
816.49	163.33
816.669	171.52
816.847	169.47
817.026	134.65
817.204	130.56
817.383	83.45
817.561	105.98
817.74	171.52
817.918	185.85
818.097	136.7
818.275	114.17
818.453	138.75
818.632	192
818.81	91.65
818.988	89.6
819.167	116.22
819.345	228.86
819.523	101.89
819.701	105.98
819.879	148.99
820.058	50.69
820.236	105.98
820.414	122.37
820.592	73.21
820.77	116.22
820.948	26.11
821.127	110.08
821.305	175.61
821.483	34.3
821.661	108.03
821.839	44.54
822.017	140.8
822.195	65.02
822.373	114.17
822.551	91.65
822.729	81.41
822.907	42.5
823.085	56.83
823.262	89.6
823.44	40.45
823.618	65.02
823.796	73.21
823.974	65.02
824.152	122.37
824.329	122.37
824.507	155.13
824.685	103.93
824.863	97.79
825.04	81.41
825.218	114.17
825.396	122.37
825.574	15.87
825.751	89.6
825.929	159.23
826.107	36.35
826.284	65.02
826.462	114.17
826.639	17.92
826.817	11.78
826.994	65.02
827.172	77.31
827.349	101.89
827.527	67.07
827.704	65.02
827.882	140.8
828.059	81.41
828.237	15.87
828.414	120.32
828.591	105.98
828.769	148.99
828.946	36.35
829.124	58.88
829.301	73.21
829.478	99.84
829.655	46.59
829.833	126.46
830.01	40.45
830.187	28.16
830.364	81.41
830.542	19.97
830.719	52.74
830.896	179.71
831.073	24.06
831.25	93.69
831.427	87.55
831.604	97.79
831.782	108.03
831.959	97.79
832.136	46.59
832.313	58.88
832.49	69.12
832.667	81.41
832.844	108.03
833.021	73.21
833.198	99.84
833.374	108.03
833.551	67.07
833.728	-20.99
833.905	85.5
834.082	15.87
834.259	85.5
834.436	91.65
834.612	24.06
834.789	67.07
834.966	17.92
835.143	58.88
835.319	13.82
835.496	38.4
835.673	77.31
835.85	58.88
836.026	97.79
836.203	56.83
836.38	67.07
836.556	48.64
836.733	-31.23
836.909	105.98
837.086	38.4
837.262	-10.75
837.439	24.06
837.616	65.02
837.792	-66.05
837.968	32.26
838.145	81.41
838.321	71.17
838.498	24.06
838.674	58.88
838.851	134.65
839.027	44.54
839.203	19.97
839.38	11.78
839.556	69.12
839.732	95.74
839.909	-0.51
840.085	38.4
840.261	42.5
840.437	-6.66
840.614	83.45
840.79	138.75
840.966	116.22
841.142	105.98
841.318	97.79
841.494	17.92
841.671	65.02
841.847	62.98
842.023	75.26
842.199	11.78
842.375	73.21
842.551	-0.51
842.727	-41.47
842.903	103.93
843.079	75.26
843.255	112.13
843.431	44.54
843.607	77.31
843.783	1.54
843.959	40.45
844.134	91.65
844.31	67.07
844.486	11.78
844.662	69.12
844.838	-0.51
845.013	73.21
845.189	38.4
845.365	85.5
845.541	26.11
845.716	44.54
845.892	44.54
846.068	-4.61
846.244	40.45
846.419	17.92
846.595	62.98
846.77	71.17
846.946	89.6
847.122	48.64
847.297	124.41
847.473	67.07
847.648	48.64
847.824	46.59
847.999	93.69
848.175	1.54
848.35	42.5
848.526	15.87
848.701	101.89
848.876	50.69
849.052	93.69
849.227	32.26
849.403	89.6
849.578	54.78
849.753	17.92
849.929	85.5
850.104	56.83
850.279	46.59
850.454	-18.94
850.63	81.41
850.805	17.92
850.98	99.84
851.155	5.63
851.33	67.07
851.505	44.54
851.681	73.21
851.856	-18.94
852.031	56.83
852.206	17.92
852.381	-29.18
852.556	44.54
852.731	95.74
852.906	50.69
853.081	36.35
853.256	54.78
853.431	24.06
853.606	-41.47
853.781	-41.47
853.956	48.64
854.131	89.6
854.305	-23.04
854.48	-41.47
854.655	99.84
854.83	7.68
855.005	56.83
855.18	13.82
855.354	11.78
855.529	89.6
855.704	-33.28
855.879	89.6
856.053	-45.57
856.228	15.87
856.403	1.54
856.577	56.83
856.752	40.45
856.926	11.78
857.101	101.89
857.276	15.87
857.45	30.21
857.625	-14.85
857.799	112.13
857.974	-14.85
858.148	5.63
858.323	69.12
858.497	24.06
858.672	22.02
858.846	-16.9
859.02	58.88
859.195	-10.75
859.369	65.02
859.543	65.02
859.718	-6.66
859.892	56.83
860.066	-8.7
860.241	-8.7
860.415	97.79
860.589	-10.75
860.763	87.55
860.938	9.73
861.112	56.83
861.286	1.54
861.46	81.41
861.634	34.3
861.808	15.87
861.982	-2.56
862.157	-10.75
862.331	1.54
862.505	11.78
862.679	-61.95
862.853	-39.42
863.027	-20.99
863.201	77.31
863.375	-16.9
863.549	40.45
863.722	73.21
863.896	19.97
864.07	24.06
864.244	-4.61
864.418	50.69
864.592	-14.85
864.766	-12.8
864.939	-12.8
865.113	-41.47
865.287	155.13
865.461	-25.09
865.634	26.11
865.808	56.83
865.982	24.06
866.156	-16.9
866.329	-20.99
866.503	-66.05
866.676	-8.7
866.85	-14.85
867.024	-23.04
867.197	73.21
867.371	32.26
867.544	19.97
867.718	9.73
867.891	128.51
868.065	-0.51
868.238	22.02
868.412	32.26
868.585	48.64
868.759	-98.81
868.932	-4.61
869.105	-20.99
869.279	-33.28
869.452	34.3
869.625	28.16
869.799	3.58
869.972	-33.28
870.145	-8.7
870.319	-0.51
870.492	15.87
870.665	3.58
870.838	-25.09
871.011	-84.48
871.185	24.06
871.358	-25.09
871.531	32.26
871.704	-49.66
871.877	52.74
872.05	7.68
872.223	-45.57
872.396	77.31
872.569	58.88
872.742	-8.7
872.915	-33.28
873.088	-14.85
873.261	38.4
873.434	73.21
873.607	50.69
873.78	103.93
873.953	-25.09
874.126	-41.47
874.299	44.54
874.471	60.93
874.644	73.21
874.817	24.06
874.99	97.79
875.163	11.78
875.335	65.02
875.508	13.82
875.681	32.26
875.853	22.02
876.026	34.3
876.199	-4.61
876.371	48.64
876.544	-2.56
876.717	95.74
876.889	60.93
877.062	40.45
877.234	-51.71
877.407	3.58
877.579	75.26
877.752	83.45
877.924	28.16
878.097	52.74
878.269	46.59
878.442	-16.9
878.614	-0.51
878.786	-18.94
878.959	-41.47
879.131	67.07
879.303	-64
879.476	-55.81
879.648	-35.33
879.82	-27.14
879.993	-14.85
880.165	42.5
880.337	-39.42
880.509	40.45
880.681	48.64
880.854	42.5
881.026	1.54
881.198	36.35
881.37	9.73
881.542	19.97
881.714	77.31
881.886	65.02
882.058	-23.04
882.23	40.45
882.402	-25.09
882.574	-25.09
882.746	56.83
882.918	50.69
883.09	1.54
883.262	-20.99
883.434	69.12
883.606	-31.23
883.778	-57.86
883.95	110.08
884.122	-41.47
884.293	89.6
884.465	-66.05
884.637	28.16
884.809	-41.47
884.98	19.97
885.152	26.11
885.324	56.83
885.496	30.21
885.667	-37.38
885.839	-0.51
886.011	73.21
886.182	-12.8
886.354	-12.8
886.525	58.88
886.697	9.73
886.869	3.58
887.04	7.68
887.212	105.98
887.383	114.17
887.555	-45.57
887.726	-33.28
887.897	-27.14
888.069	28.16
888.24	11.78
888.412	15.87
888.583	17.92
888.754	36.35
888.926	-41.47
889.097	75.26
889.268	-14.85
889.44	-23.04
889.611	-20.99
889.782	17.92
889.953	-8.7
890.125	36.35
890.296	-41.47
890.467	40.45
890.638	-86.53
890.809	-61.95
890.98	3.58
891.151	15.87
891.323	79.36
891.494	7.68
891.665	71.17
891.836	1.54
892.007	7.68
892.178	105.98
892.349	44.54
892.52	3.58
892.691	38.4
892.862	93.69
893.032	-47.62
893.203	3.58
893.374	-16.9
893.545	1.54
893.716	3.58
893.887	1.54
894.057	85.5
894.228	32.26
894.399	15.87
894.57	69.12
894.74	-53.76
894.911	7.68
895.082	-0.51
895.253	-18.94
895.423	-41.47
895.594	40.45
895.764	-0.51
895.935	48.64
896.106	110.08
896.276	34.3
896.447	15.87
896.617	-0.51
896.788	3.58
896.958	-41.47
897.129	3.58
897.299	5.63
897.47	-27.14
897.64	48.64
897.81	42.5
897.981	-0.51
898.151	-14.85
898.322	93.69
898.492	50.69
898.662	-14.85
898.832	-16.9
899.003	-29.18
899.173	-0.51
899.343	-35.33
899.513	-53.76
