Data from USB4F104151__298__14-46-32-472.txt Node

Date: Thu Mar 13 14:46:32 EDT 2025
User: louis
Spectrometer: USB4F10415
Trigger mode: 4
Integration Time (sec): 2.000000E-2
Scans to average: 1
Electric dark correction enabled: true
Nonlinearity correction enabled: false
Boxcar width: 0
XAxis mode: Wavelengths
Number of Pixels in Spectrum: 3648
>>>>>Begin Spectral Data<<<<<
178.204	-124.58
178.424	-124.58
178.644	-124.58
178.864	-81.58
179.084	-108.2
179.304	-54.95
179.524	12.63
179.744	53.59
179.964	-18.09
180.184	22.87
180.404	8.53
180.624	-16.04
180.844	8.53
181.064	-5.8
181.283	20.82
181.503	-63.15
181.723	31.06
181.943	20.82
182.163	131.41
182.383	67.92
182.602	119.12
182.822	4.44
183.042	-3.75
183.262	-9.9
183.482	29.01
183.701	8.53
183.921	61.78
184.141	-34.47
184.361	49.49
184.58	78.16
184.8	55.64
185.02	22.87
185.239	43.35
185.459	20.82
185.679	37.2
185.898	53.59
186.118	45.4
186.338	-42.67
186.557	61.78
186.777	55.64
186.997	53.59
187.216	20.82
187.436	57.68
187.655	-44.71
187.875	59.73
188.095	69.97
188.314	24.92
188.534	96.6
188.753	29.01
188.973	33.11
189.192	104.79
189.412	102.74
189.631	47.44
189.851	39.25
190.07	37.2
190.29	-22.19
190.509	16.73
190.729	6.49
190.948	63.83
191.168	108.88
191.387	55.64
191.607	-9.9
191.826	20.82
192.045	35.16
192.265	-34.47
192.484	69.97
192.704	20.82
192.923	74.07
193.142	92.5
193.362	8.53
193.581	65.88
193.8	59.73
194.02	45.4
194.239	69.97
194.458	94.55
194.678	41.3
194.897	8.53
195.116	53.59
195.335	2.39
195.555	24.92
195.774	63.83
195.993	69.97
196.212	29.01
196.432	-34.47
196.651	-7.85
196.87	-9.9
197.089	49.49
197.308	65.88
197.528	14.68
197.747	-54.95
197.966	37.2
198.185	102.74
198.404	67.92
198.623	80.21
198.842	69.97
199.062	57.68
199.281	37.2
199.5	61.78
199.719	37.2
199.938	-16.04
200.157	90.45
200.376	29.01
200.595	90.45
200.814	72.02
201.033	14.68
201.252	59.73
201.471	31.06
201.69	78.16
201.909	37.2
202.128	29.01
202.347	-7.85
202.566	-28.33
202.785	26.96
203.004	-28.33
203.223	31.06
203.442	45.4
203.661	4.44
203.879	-3.75
204.098	96.6
204.317	37.2
204.536	29.01
204.755	57.68
204.974	53.59
205.193	45.4
205.411	135.51
205.63	-61.1
205.849	90.45
206.068	45.4
206.287	-20.14
206.505	45.4
206.724	102.74
206.943	-20.14
207.162	31.06
207.381	55.64
207.599	55.64
207.818	-26.28
208.037	39.25
208.255	33.11
208.474	4.44
208.693	51.54
208.911	41.3
209.13	0.34
209.349	55.64
209.567	33.11
209.786	78.16
210.005	33.11
210.223	82.26
210.442	24.92
210.661	47.44
210.879	24.92
211.098	14.68
211.316	102.74
211.535	65.88
211.753	33.11
211.972	39.25
212.191	135.51
212.409	20.82
212.628	119.12
212.846	20.82
213.065	4.44
213.283	94.55
213.502	47.44
213.72	24.92
213.938	55.64
214.157	12.63
214.375	-26.28
214.594	82.26
214.812	10.58
215.031	0.34
215.249	53.59
215.467	74.07
215.686	4.44
215.904	115.03
216.122	31.06
216.341	20.82
216.559	90.45
216.778	24.92
216.996	12.63
217.214	59.73
217.432	20.82
217.651	-1.71
217.869	-48.81
218.087	86.36
218.306	119.12
218.524	37.2
218.742	8.53
218.96	55.64
219.179	43.35
219.397	98.64
219.615	102.74
219.833	49.49
220.051	22.87
220.27	43.35
220.488	117.08
220.706	37.2
220.924	43.35
221.142	45.4
221.36	53.59
221.578	80.21
221.796	37.2
222.015	45.4
222.233	41.3
222.451	26.96
222.669	37.2
222.887	115.03
223.105	63.83
223.323	35.16
223.541	-9.9
223.759	117.08
223.977	51.54
224.195	41.3
224.413	80.21
224.631	69.97
224.849	29.01
225.067	117.08
225.285	6.49
225.503	20.82
225.721	-20.14
225.939	59.73
226.157	-13.99
226.375	153.94
226.592	-16.04
226.81	104.79
227.028	86.36
227.246	12.63
227.464	51.54
227.682	61.78
227.9	51.54
228.117	86.36
228.335	10.58
228.553	86.36
228.771	4.44
228.989	24.92
229.206	0.34
229.424	-59.05
229.642	29.01
229.86	69.97
230.077	78.16
230.295	41.3
230.513	26.96
230.731	98.64
230.948	160.08
231.166	119.12
231.384	16.73
231.601	80.21
231.819	78.16
232.037	-26.28
232.254	8.53
232.472	12.63
232.689	33.11
232.907	47.44
233.125	-48.81
233.342	49.49
233.56	-42.67
233.777	20.82
233.995	145.75
234.213	158.03
234.43	94.55
234.648	-11.95
234.865	4.44
235.083	37.2
235.3	63.83
235.518	24.92
235.735	123.22
235.953	24.92
236.17	61.78
236.388	69.97
236.605	12.63
236.822	63.83
237.04	80.21
237.257	45.4
237.475	88.4
237.692	29.01
237.909	31.06
238.127	33.11
238.344	16.73
238.562	69.97
238.779	20.82
238.996	-18.09
239.214	8.53
239.431	6.49
239.648	6.49
239.865	4.44
240.083	-3.75
240.3	-11.95
240.517	-18.09
240.735	78.16
240.952	94.55
241.169	41.3
241.386	0.34
241.603	37.2
241.821	37.2
242.038	63.83
242.255	92.5
242.472	-9.9
242.689	88.4
242.907	96.6
243.124	98.64
243.341	14.68
243.558	-28.33
243.775	4.44
243.992	22.87
244.209	57.68
244.426	143.7
244.643	24.92
244.86	37.2
245.078	65.88
245.295	96.6
245.512	63.83
245.729	31.06
245.946	94.55
246.163	55.64
246.38	37.2
246.597	31.06
246.814	16.73
247.031	53.59
247.248	45.4
247.464	45.4
247.681	16.73
247.898	16.73
248.115	92.5
248.332	69.97
248.549	-24.23
248.766	119.12
248.983	45.4
249.2	20.82
249.417	69.97
249.633	29.01
249.85	106.84
250.067	-22.19
250.284	49.49
250.501	72.02
250.717	45.4
250.934	14.68
251.151	61.78
251.368	106.84
251.585	72.02
251.801	39.25
252.018	-7.85
252.235	57.68
252.451	41.3
252.668	-5.8
252.885	63.83
253.102	57.68
253.318	61.78
253.535	47.44
253.752	63.83
253.968	14.68
254.185	-59.05
254.401	102.74
254.618	86.36
254.835	49.49
255.051	102.74
255.268	37.2
255.484	78.16
255.701	4.44
255.917	84.31
256.134	10.58
256.351	69.97
256.567	-24.23
256.784	33.11
257	-36.52
257.217	12.63
257.433	0.34
257.65	55.64
257.866	12.63
258.082	-3.75
258.299	72.02
258.515	78.16
258.732	-32.43
258.948	37.2
259.165	-61.1
259.381	53.59
259.597	94.55
259.814	20.82
260.03	94.55
260.246	94.55
260.463	12.63
260.679	110.93
260.895	106.84
261.112	53.59
261.328	20.82
261.544	0.34
261.761	92.5
261.977	45.4
262.193	-16.04
262.409	57.68
262.626	90.45
262.842	57.68
263.058	-1.71
263.274	33.11
263.49	67.92
263.707	16.73
263.923	4.44
264.139	37.2
264.355	29.01
264.571	16.73
264.787	45.4
265.004	80.21
265.22	-24.23
265.436	37.2
265.652	102.74
265.868	53.59
266.084	-81.58
266.3	-36.52
266.516	0.34
266.732	61.78
266.948	26.96
267.164	55.64
267.38	33.11
267.596	33.11
267.812	86.36
268.028	39.25
268.244	-3.75
268.46	94.55
268.676	24.92
268.892	82.26
269.108	43.35
269.324	4.44
269.54	24.92
269.756	-26.28
269.972	45.4
270.188	86.36
270.403	4.44
270.619	123.22
270.835	29.01
271.051	65.88
271.267	12.63
271.483	61.78
271.698	117.08
271.914	74.07
272.13	45.4
272.346	16.73
272.562	39.25
272.777	45.4
272.993	57.68
273.209	51.54
273.425	33.11
273.64	47.44
273.856	16.73
274.072	-24.23
274.287	82.26
274.503	-5.8
274.719	39.25
274.934	55.64
275.15	-9.9
275.366	63.83
275.581	-20.14
275.797	145.75
276.012	43.35
276.228	39.25
276.444	6.49
276.659	135.51
276.875	-28.33
277.09	26.96
277.306	14.68
277.521	37.2
277.737	57.68
277.952	14.68
278.168	98.64
278.383	104.79
278.599	22.87
278.814	57.68
279.03	-5.8
279.245	129.36
279.461	61.78
279.676	55.64
279.892	-20.14
280.107	69.97
280.322	-13.99
280.538	-28.33
280.753	18.77
280.969	29.01
281.184	59.73
281.399	57.68
281.615	51.54
281.83	39.25
282.045	-28.33
282.26	41.3
282.476	4.44
282.691	88.4
282.906	43.35
283.122	72.02
283.337	22.87
283.552	92.5
283.767	80.21
283.983	76.12
284.198	-3.75
284.413	47.44
284.628	-16.04
284.843	-1.71
285.058	20.82
285.274	98.64
285.489	-85.67
285.704	78.16
285.919	14.68
286.134	78.16
286.349	-1.71
286.564	29.01
286.779	106.84
286.995	53.59
287.21	-5.8
287.425	65.88
287.64	72.02
287.855	-7.85
288.07	-52.91
288.285	102.74
288.5	74.07
288.715	45.4
288.93	16.73
289.145	8.53
289.36	100.69
289.575	-34.47
289.79	80.21
290.004	4.44
290.219	45.4
290.434	6.49
290.649	4.44
290.864	69.97
291.079	-40.62
291.294	59.73
291.509	-28.33
291.724	45.4
291.938	47.44
292.153	-1.71
292.368	84.31
292.583	49.49
292.798	39.25
293.012	102.74
293.227	94.55
293.442	-11.95
293.657	39.25
293.871	153.94
294.086	51.54
294.301	129.36
294.516	110.93
294.73	37.2
294.945	4.44
295.16	20.82
295.374	115.03
295.589	65.88
295.804	61.78
296.018	20.82
296.233	90.45
296.447	33.11
296.662	22.87
296.877	12.63
297.091	31.06
297.306	41.3
297.52	41.3
297.735	110.93
297.949	-40.62
298.164	55.64
298.378	-5.8
298.593	18.77
298.807	53.59
299.022	33.11
299.236	57.68
299.451	115.03
299.665	0.34
299.88	53.59
300.094	41.3
300.309	10.58
300.523	43.35
300.737	37.2
300.952	39.25
301.166	57.68
301.381	-3.75
301.595	76.12
301.809	45.4
302.024	-36.52
302.238	53.59
302.452	18.77
302.667	-18.09
302.881	49.49
303.095	98.64
303.309	20.82
303.524	14.68
303.738	47.44
303.952	-40.62
304.166	53.59
304.381	-30.38
304.595	41.3
304.809	61.78
305.023	20.82
305.237	39.25
305.452	31.06
305.666	108.88
305.88	94.55
306.094	160.08
306.308	16.73
306.522	37.2
306.736	29.01
306.95	-11.95
307.164	90.45
307.379	35.16
307.593	100.69
307.807	78.16
308.021	61.78
308.235	69.97
308.449	-11.95
308.663	72.02
308.877	39.25
309.091	61.78
309.305	61.78
309.519	4.44
309.733	92.5
309.947	4.44
310.161	33.11
310.374	82.26
310.588	29.01
310.802	12.63
311.016	45.4
311.23	-18.09
311.444	37.2
311.658	65.88
311.872	14.68
312.085	82.26
312.299	67.92
312.513	61.78
312.727	47.44
312.941	-34.47
313.154	53.59
313.368	31.06
313.582	86.36
313.796	-7.85
314.009	-1.71
314.223	45.4
314.437	61.78
314.651	90.45
314.864	31.06
315.078	-36.52
315.292	65.88
315.505	-7.85
315.719	43.35
315.933	-1.71
316.146	43.35
316.36	31.06
316.573	96.6
316.787	53.59
317.001	80.21
317.214	86.36
317.428	2.39
317.641	29.01
317.855	31.06
318.068	45.4
318.282	8.53
318.495	4.44
318.709	45.4
318.922	10.58
319.136	82.26
319.349	78.16
319.563	22.87
319.776	24.92
319.99	-3.75
320.203	4.44
320.417	41.3
320.63	82.26
320.843	153.94
321.057	-18.09
321.27	49.49
321.483	72.02
321.697	112.98
321.91	-18.09
322.124	78.16
322.337	106.84
322.55	37.2
322.763	86.36
322.977	-22.19
323.19	65.88
323.403	29.01
323.617	53.59
323.83	61.78
324.043	65.88
324.256	45.4
324.469	-18.09
324.683	45.4
324.896	4.44
325.109	12.63
325.322	-7.85
325.535	26.96
325.748	102.74
325.962	86.36
326.175	49.49
326.388	65.88
326.601	2.39
326.814	37.2
327.027	37.2
327.24	16.73
327.453	69.97
327.666	14.68
327.879	115.03
328.092	14.68
328.305	69.97
328.518	33.11
328.731	35.16
328.944	29.01
329.157	104.79
329.37	10.58
329.583	86.36
329.796	39.25
330.009	29.01
330.222	69.97
330.435	-36.52
330.648	31.06
330.861	61.78
331.073	55.64
331.286	98.64
331.499	-22.19
331.712	6.49
331.925	41.3
332.138	24.92
332.35	106.84
332.563	4.44
332.776	110.93
332.989	65.88
333.202	33.11
333.414	14.68
333.627	10.58
333.84	37.2
334.053	69.97
334.265	-20.14
334.478	14.68
334.691	16.73
334.903	24.92
335.116	94.55
335.329	145.75
335.541	35.16
335.754	98.64
335.966	94.55
336.179	12.63
336.392	29.01
336.604	41.3
336.817	49.49
337.029	45.4
337.242	80.21
337.454	94.55
337.667	0.34
337.88	88.4
338.092	98.64
338.305	78.16
338.517	51.54
338.729	80.21
338.942	69.97
339.154	55.64
339.367	-11.95
339.579	102.74
339.792	88.4
340.004	45.4
340.217	65.88
340.429	43.35
340.641	67.92
340.854	4.44
341.066	4.44
341.278	20.82
341.491	110.93
341.703	88.4
341.915	-3.75
342.128	53.59
342.34	20.82
342.552	35.16
342.764	16.73
342.977	-3.75
343.189	37.2
343.401	69.97
343.613	57.68
343.826	-7.85
344.038	20.82
344.25	63.83
344.462	143.7
344.674	49.49
344.886	31.06
345.099	90.45
345.311	-30.38
345.523	4.44
345.735	69.97
345.947	69.97
346.159	31.06
346.371	33.11
346.583	41.3
346.795	80.21
347.007	74.07
347.219	4.44
347.431	74.07
347.643	45.4
347.855	-65.19
348.067	29.01
348.279	-9.9
348.491	6.49
348.703	78.16
348.915	61.78
349.127	47.44
349.339	31.06
349.551	37.2
349.763	51.54
349.975	41.3
350.187	98.64
350.399	41.3
350.61	63.83
350.822	35.16
351.034	72.02
351.246	31.06
351.458	41.3
351.669	22.87
351.881	37.2
352.093	20.82
352.305	29.01
352.517	57.68
352.728	65.88
352.94	-38.57
353.152	74.07
353.363	4.44
353.575	4.44
353.787	88.4
353.999	78.16
354.21	82.26
354.422	45.4
354.633	119.12
354.845	29.01
355.057	47.44
355.268	37.2
355.48	-1.71
355.692	4.44
355.903	57.68
356.115	45.4
356.326	20.82
356.538	80.21
356.749	14.68
356.961	145.75
357.172	4.44
357.384	37.2
357.595	86.36
357.807	69.97
358.018	29.01
358.23	45.4
358.441	61.78
358.653	45.4
358.864	78.16
359.075	37.2
359.287	84.31
359.498	102.74
359.709	145.75
359.921	145.75
360.132	65.88
360.344	53.59
360.555	14.68
360.766	69.97
360.977	61.78
361.189	57.68
361.4	-5.8
361.611	61.78
361.823	37.2
362.034	86.36
362.245	-9.9
362.456	94.55
362.667	-11.95
362.879	33.11
363.09	12.63
363.301	53.59
363.512	82.26
363.723	8.53
363.935	-11.95
364.146	61.78
364.357	45.4
364.568	31.06
364.779	33.11
364.99	45.4
365.201	-30.38
365.412	78.16
365.623	-44.71
365.834	14.68
366.045	29.01
366.256	88.4
366.467	102.74
366.678	22.87
366.889	45.4
367.1	45.4
367.311	67.92
367.522	69.97
367.733	86.36
367.944	6.49
368.155	49.49
368.366	67.92
368.577	72.02
368.788	90.45
368.999	-1.71
369.209	80.21
369.42	102.74
369.631	182.61
369.842	16.73
370.053	63.83
370.264	78.16
370.474	0.34
370.685	31.06
370.896	49.49
371.107	10.58
371.317	69.97
371.528	57.68
371.739	94.55
371.95	55.64
372.16	57.68
372.371	47.44
372.582	115.03
372.792	-11.95
373.003	49.49
373.214	20.82
373.424	24.92
373.635	76.12
373.846	8.53
374.056	29.01
374.267	37.2
374.477	35.16
374.688	86.36
374.898	57.68
375.109	0.34
375.319	80.21
375.53	78.16
375.74	53.59
375.951	2.39
376.161	57.68
376.372	12.63
376.582	-3.75
376.793	123.22
377.003	22.87
377.214	20.82
377.424	69.97
377.635	45.4
377.845	53.59
378.055	98.64
378.266	26.96
378.476	43.35
378.686	78.16
378.897	55.64
379.107	61.78
379.317	-16.04
379.528	-40.62
379.738	98.64
379.948	31.06
380.158	49.49
380.369	8.53
380.579	135.51
380.789	24.92
380.999	20.82
381.21	61.78
381.42	110.93
381.63	-32.43
381.84	72.02
382.05	94.55
382.261	115.03
382.471	69.97
382.681	63.83
382.891	72.02
383.101	16.73
383.311	22.87
383.521	78.16
383.731	96.6
383.941	35.16
384.151	72.02
384.361	67.92
384.571	-28.33
384.781	45.4
384.991	78.16
385.201	37.2
385.411	102.74
385.621	57.68
385.831	61.78
386.041	31.06
386.251	-3.75
386.461	86.36
386.671	-24.23
386.881	51.54
387.091	69.97
387.301	84.31
387.511	26.96
387.72	100.69
387.93	22.87
388.14	43.35
388.35	129.36
388.56	-20.14
388.769	45.4
388.979	14.68
389.189	20.82
389.399	88.4
389.609	88.4
389.818	119.12
390.028	149.84
390.238	6.49
390.447	16.73
390.657	61.78
390.867	29.01
391.076	45.4
391.286	43.35
391.496	0.34
391.705	-9.9
391.915	86.36
392.125	76.12
392.334	14.68
392.544	106.84
392.753	172.37
392.963	24.92
393.172	80.21
393.382	12.63
393.591	160.08
393.801	41.3
394.01	65.88
394.22	63.83
394.429	20.82
394.639	12.63
394.848	131.41
395.058	31.06
395.267	59.73
395.477	92.5
395.686	65.88
395.895	90.45
396.105	117.08
396.314	94.55
396.524	-7.85
396.733	6.49
396.942	110.93
397.152	57.68
397.361	61.78
397.57	94.55
397.78	145.75
397.989	47.44
398.198	102.74
398.407	29.01
398.617	37.2
398.826	102.74
399.035	47.44
399.244	69.97
399.453	39.25
399.663	106.84
399.872	0.34
400.081	-18.09
400.29	110.93
400.499	90.45
400.708	45.4
400.917	94.55
401.127	49.49
401.336	104.79
401.545	72.02
401.754	117.08
401.963	47.44
402.172	125.27
402.381	139.6
402.59	72.02
402.799	55.64
403.008	94.55
403.217	131.41
403.426	119.12
403.635	86.36
403.844	45.4
404.053	47.44
404.262	31.06
404.471	110.93
404.68	119.12
404.888	139.6
405.097	112.98
405.306	108.88
405.515	104.79
405.724	86.36
405.933	176.47
406.142	94.55
406.35	143.7
406.559	63.83
406.768	22.87
406.977	205.14
407.185	143.7
407.394	180.56
407.603	125.27
407.812	176.47
408.02	172.37
408.229	110.93
408.438	145.75
408.646	155.99
408.855	110.93
409.064	147.8
409.272	86.36
409.481	209.23
409.69	131.41
409.898	112.98
410.107	178.51
410.315	190.8
410.524	164.18
410.733	194.9
410.941	135.51
411.15	227.67
411.358	217.43
411.567	260.43
411.775	229.71
411.984	186.71
412.192	334.16
412.401	266.58
412.609	201.04
412.818	221.52
413.026	274.77
413.234	250.19
413.443	258.39
413.651	303.44
413.86	276.82
414.068	393.55
414.276	393.55
414.485	315.73
414.693	364.88
414.901	430.41
415.11	375.12
415.318	366.93
415.526	444.75
415.734	401.74
415.943	354.64
416.151	414.03
416.359	397.65
416.567	414.03
416.776	567.63
416.984	487.76
417.192	508.24
417.4	498
417.608	479.57
417.817	512.33
418.025	545.1
418.233	667.98
418.441	629.07
418.649	571.72
418.857	717.13
419.065	696.65
419.273	620.88
419.481	751.95
419.689	663.88
419.897	725.32
420.105	807.24
420.313	811.34
420.521	848.2
420.729	866.63
420.937	880.97
421.145	917.83
421.353	956.74
421.561	989.51
421.769	1028.42
421.977	1040.71
422.185	1055.05
422.393	1143.11
422.601	1249.6
422.809	1272.13
423.017	1198.4
423.224	1208.64
423.432	1239.36
423.64	1335.62
423.848	1403.2
424.056	1261.89
424.263	1487.17
424.471	1519.93
424.679	1478.97
424.887	1567.04
425.094	1610.04
425.302	1464.64
425.51	1802.55
425.718	1749.31
425.925	1642.81
426.133	1775.93
426.341	1878.33
426.548	2003.25
426.756	2050.36
426.964	1976.63
427.171	2185.52
427.379	2027.83
427.586	2308.4
427.794	2105.65
428.001	2347.31
428.209	2496.82
428.417	2470.19
428.624	2527.53
428.832	2625.84
429.039	2580.78
429.247	2758.96
429.454	2887.98
429.662	3199.27
429.869	2826.54
430.076	3100.97
430.284	2941.22
430.491	3213.6
430.699	3227.94
430.906	3184.93
431.114	3268.9
431.321	3610.91
431.528	3485.98
431.736	3725.6
431.943	3858.71
432.15	3768.6
432.358	3774.75
432.565	3959.06
432.772	3977.5
432.979	4208.92
433.187	4307.22
433.394	4348.18
433.601	4727.05
433.808	4649.23
434.016	4481.3
434.223	4796.68
434.43	5107.98
434.637	5036.3
434.844	5304.58
435.052	5361.92
435.259	5386.5
435.466	5513.47
435.673	5208.33
435.88	5736.7
436.087	5888.25
436.294	6007.03
436.501	5892.35
436.708	5990.65
436.915	6115.58
437.122	6494.45
437.329	6535.41
437.537	6496.5
437.743	6709.49
437.95	6689.01
438.157	6957.29
438.364	7323.88
438.571	7317.73
438.778	7305.45
438.985	7862.49
439.192	7629.02
439.399	7966.94
439.606	7524.58
439.813	8212.7
440.02	8573.14
440.227	8292.57
440.433	8272.09
440.64	8691.92
440.847	8622.29
441.054	8626.39
441.261	9539.78
441.467	9326.79
441.674	9380.04
441.881	9664.71
442.088	9656.51
442.294	9588.93
442.501	9916.61
442.708	9994.43
442.914	10391.73
443.121	10893.49
443.328	10670.26
443.534	11514.02
443.741	11194.54
443.948	10690.74
444.154	11571.36
444.361	11643.04
444.568	11616.42
444.774	11765.92
444.981	11698.34
445.187	12124.32
445.394	12656.79
445.6	12540.05
445.807	13731.97
446.013	12902.54
446.22	13375.63
446.426	13789.31
446.633	14051.45
446.839	14708.85
447.046	13705.35
447.252	14616.69
447.459	14821.49
447.665	14764.15
447.871	15374.44
448.078	15857.76
448.284	15030.38
448.491	15622.25
448.697	16080.99
448.903	16420.95
449.11	16341.08
449.316	16527.45
449.522	16787.54
449.728	17143.89
449.935	17154.13
450.141	17166.42
450.347	17375.31
450.553	17031.25
450.76	17389.64
450.966	18010.18
451.172	17627.21
451.378	18020.42
451.584	17903.68
451.791	18333.76
451.997	18405.44
452.203	18559.03
452.409	18749.5
452.615	18456.64
452.821	17756.23
453.027	17428.56
453.233	18864.18
453.44	17850.44
453.646	18067.52
453.852	17956.93
454.058	18493.5
454.264	17535.05
454.47	18266.17
454.676	18006.08
454.882	18374.72
455.088	16941.14
455.294	17057.87
455.5	17596.49
455.705	17598.54
455.911	16930.9
456.117	16822.36
456.323	16373.85
456.529	15593.58
456.735	16171.1
456.941	16033.89
457.147	15528.04
457.352	14991.47
457.558	15108.21
457.764	15169.65
457.97	14676.09
458.176	14700.66
458.381	14438.52
458.587	13949.06
458.793	13840.51
458.999	13072.53
459.204	13983.87
459.41	13645.96
459.616	12718.23
459.821	12744.85
460.027	12738.71
460.233	12529.81
460.438	11983.01
460.644	12050.59
460.85	11446.44
461.055	11219.11
461.261	11212.97
461.466	10252.47
461.672	10473.65
461.878	11059.37
462.083	10160.31
462.289	9859.26
462.494	10000.57
462.7	9355.46
462.905	9107.66
463.111	9461.96
463.316	9547.97
463.522	9134.28
463.727	9165
463.932	9355.46
464.138	9171.15
464.343	9201.86
464.549	8730.83
464.754	9351.37
464.959	9107.66
465.165	8851.66
465.37	8632.53
465.575	8222.94
465.781	8837.33
465.986	8753.36
466.191	8370.39
466.397	8419.54
466.602	8118.49
466.807	8493.27
467.012	8265.94
467.218	8302.81
467.423	7983.32
467.628	8222.94
467.833	8261.85
468.038	7975.13
468.244	7815.39
468.449	8304.85
468.654	7983.32
468.859	7960.8
469.064	7731.42
469.269	7508.19
469.474	7569.63
469.679	7858.4
469.885	7626.98
470.09	7649.5
470.295	7829.73
470.5	7475.43
470.705	7686.37
470.91	7287.01
471.115	7223.53
471.32	7338.21
471.525	7375.08
471.73	7246.05
471.935	7164.14
472.139	6850.8
472.344	7006.44
472.549	7024.87
472.754	6689.01
472.959	6772.97
473.164	6508.79
473.369	6480.11
473.574	6652.14
473.778	6738.16
473.983	6582.51
474.188	6627.57
474.393	6402.29
474.598	6226.17
474.802	6326.52
475.007	6297.85
475.212	6191.35
475.417	6107.38
475.621	6058.23
475.826	6015.23
476.031	5988.6
476.235	5738.75
476.44	5861.63
476.645	5574.91
476.849	5779.71
477.054	5730.56
477.259	5617.92
477.463	5591.3
477.668	5624.06
477.872	5501.19
478.077	5601.54
478.282	5265.67
478.486	5339.4
478.691	5167.37
478.895	5304.58
479.1	5237
479.304	5169.41
479.509	4972.81
479.713	5107.98
479.918	5034.25
480.122	5001.48
480.326	4968.71
480.531	5062.92
480.735	4974.86
480.94	4983.05
481.144	4923.66
481.348	4866.32
481.553	4927.75
481.757	4792.59
481.961	5003.53
482.166	4954.38
482.37	4876.55
482.574	4796.68
482.778	5011.72
482.983	4880.65
483.187	4778.25
483.391	4829.45
483.595	4759.82
483.8	4624.65
484.004	4712.72
484.208	4862.22
484.412	4815.12
484.616	4841.74
484.821	4763.92
485.025	4600.08
485.229	4778.25
485.433	4823.31
485.637	4675.85
485.841	4630.8
486.045	4774.16
486.249	4968.71
486.453	4835.6
486.657	4778.25
486.861	4700.43
487.065	4731.15
487.269	4804.88
487.473	4755.72
487.677	4706.57
487.881	4899.08
488.085	4763.92
488.289	4825.36
488.493	4589.84
488.697	4878.6
488.901	4942.09
489.105	4802.83
489.309	4862.22
489.512	4772.11
489.716	4860.17
489.92	5009.67
490.124	4782.35
490.328	4933.9
490.531	4909.32
490.735	4983.05
490.939	5005.58
491.143	4854.03
491.346	4978.95
491.55	4993.29
491.754	4929.8
491.958	5001.48
492.161	4940.04
492.365	5052.68
492.569	4946.19
492.772	5159.17
492.976	5126.41
493.18	5030.15
493.383	5116.17
493.587	5212.42
493.79	5251.33
493.994	4960.52
494.197	5302.53
494.401	5308.68
494.605	5124.36
494.808	5161.22
495.012	5366.02
495.215	5398.79
495.419	5460.23
495.622	5265.67
495.825	5654.78
496.029	5671.17
496.232	5742.85
496.436	5593.34
496.639	5691.65
496.843	5755.13
497.046	5945.59
497.249	5984.51
497.453	6086.9
497.656	6084.86
497.859	5986.55
498.063	6072.57
498.266	6224.12
498.469	6273.27
498.673	6109.43
498.876	6181.11
499.079	6314.23
499.282	6299.89
499.485	6564.08
499.689	6482.16
499.892	6600.94
500.095	6639.86
500.298	6930.67
500.501	6672.62
500.705	6922.48
500.908	7147.75
501.111	7112.94
501.314	7067.88
501.517	7125.22
501.72	7395.56
501.923	7278.82
502.126	7428.32
502.329	7674.08
502.532	7753.95
502.735	7631.07
502.938	7770.33
503.141	7729.38
503.344	7915.74
503.547	7993.56
503.75	7942.36
503.953	8311
504.156	8175.83
504.359	8290.52
504.562	8278.23
504.765	8708.3
504.968	8566.99
505.17	8642.77
505.373	8802.51
505.576	8712.4
505.779	8945.87
505.982	9263.3
506.185	9427.14
506.387	9044.17
506.59	9527.49
506.793	9670.85
506.996	9638.08
507.198	9908.41
507.401	9676.99
507.604	9765.06
507.807	10139.83
508.009	10004.67
508.212	10354.87
508.415	10397.88
508.617	10348.73
508.82	10735.79
509.022	10606.77
509.225	10803.38
509.428	10985.65
509.63	11129
509.833	11032.75
510.035	11380.9
510.238	11245.74
510.44	11391.14
510.643	11720.87
510.845	11518.12
511.048	11595.94
511.25	11903.14
511.453	12040.35
511.655	12376.22
511.858	12390.55
512.06	12200.09
512.262	12570.77
512.465	12365.98
512.667	12726.42
512.87	12779.67
513.072	12880.02
513.274	13056.14
513.477	13138.06
513.679	13430.92
513.881	13484.17
514.084	13742.21
514.286	13648.01
514.488	14041.22
514.69	14387.32
514.893	14252.16
515.095	14469.24
515.297	14547.06
515.499	14602.36
515.701	14588.02
515.904	14841.97
516.106	14911.6
516.308	15130.73
516.51	15685.73
516.712	15175.79
516.914	15714.41
517.116	16070.75
517.318	15966.31
517.52	16183.39
517.722	16064.61
517.925	16306.27
518.127	16474.2
518.329	16453.72
518.531	16545.88
518.733	17277.01
518.935	17352.78
519.136	17156.18
519.338	17739.85
519.54	17494.09
519.742	17911.88
519.944	17819.72
520.146	18167.87
520.348	18200.64
520.55	18460.73
520.752	18544.7
520.954	18755.64
521.155	18968.63
521.357	19111.99
521.559	18962.48
521.761	19396.65
521.963	19472.43
522.164	19466.28
522.366	19839.01
522.568	20025.38
522.77	20135.97
522.971	20322.34
523.173	20267.04
523.375	20314.14
523.576	20607
523.778	20695.07
523.98	20707.35
524.181	21162
524.383	20944.92
524.584	21366.8
524.786	21041.17
524.988	21362.7
525.189	21772.3
525.391	21934.09
525.592	21925.89
525.794	21999.62
525.995	22329.34
526.197	22124.55
526.398	22269.95
526.6	22523.9
526.801	22558.72
527.003	22417.41
527.204	22657.02
527.406	22888.44
527.607	22970.36
527.808	23547.89
528.01	22812.67
528.211	23439.34
528.412	23580.65
528.614	23248.88
528.815	23404.53
529.016	23996.39
529.218	23635.95
529.419	23654.38
529.62	23470.06
529.822	23603.18
530.023	24020.97
530.224	23832.55
530.425	23666.67
530.626	23648.24
530.828	24025.06
531.029	24303.59
531.23	23818.22
531.431	24090.6
531.632	24246.24
531.833	24434.66
532.035	24352.74
532.236	24451.04
532.437	24532.96
532.638	24475.62
532.839	24578.01
533.04	24504.29
533.241	24242.15
533.442	24532.96
533.643	24487.9
533.844	24586.21
534.045	25016.28
534.246	24612.83
534.447	24938.46
534.648	24348.64
534.849	24653.79
535.05	24713.18
535.251	24852.44
535.451	24764.38
535.652	24666.08
535.853	24877.02
536.054	24979.42
536.255	24754.14
536.456	24666.08
536.657	25092.05
536.857	24793.05
537.058	24707.04
537.259	24672.22
537.46	24745.95
537.66	24934.36
537.861	24573.92
538.062	24856.54
538.263	24852.44
538.463	24541.15
538.664	24899.55
538.865	25108.44
539.065	24956.89
539.266	24719.32
539.466	24844.25
539.667	24735.71
539.868	24944.6
540.068	24795.1
540.269	24633.31
540.469	24899.55
540.67	24883.16
540.87	24950.74
541.071	24991.7
541.271	24930.26
541.472	24864.73
541.672	24797.15
541.873	24831.96
542.073	24598.49
542.274	24885.21
542.474	24520.67
542.675	24666.08
542.875	25110.49
543.075	24942.55
543.276	24700.89
543.476	25096.15
543.676	24598.49
543.877	24641.5
544.077	24784.86
544.277	24821.72
544.478	24659.93
544.678	24764.38
544.878	24864.73
545.078	24793.05
545.279	24582.11
545.479	24780.76
545.679	24743.9
545.879	24786.91
546.079	24745.95
546.28	24803.29
546.48	24635.36
546.68	24596.45
546.88	24506.34
547.08	24823.77
547.28	24680.41
547.48	24696.8
547.68	24827.87
547.88	24289.25
548.081	24795.1
548.281	24436.7
548.481	24676.32
548.681	24721.37
548.881	24825.82
549.081	24518.62
549.28	24870.87
549.48	24805.34
549.68	24412.13
549.88	24999.9
550.08	24711.13
550.28	24522.72
550.48	24510.43
550.68	24715.23
550.88	24551.39
551.08	24414.18
551.279	24907.74
551.479	24709.08
551.679	24623.07
551.879	24293.35
552.079	24846.3
552.278	24600.54
552.478	24768.48
552.678	24522.72
552.878	24680.41
553.077	24164.32
553.277	24379.36
553.477	24661.98
553.676	24307.68
553.876	24272.87
554.076	24661.98
554.275	24326.11
554.475	24076.26
554.674	24252.39
554.874	24293.35
555.074	24356.83
555.273	24541.15
555.473	24354.79
555.672	24219.62
555.872	24385.51
556.071	24231.91
556.271	24307.68
556.47	24285.15
556.67	23865.32
556.869	23945.19
557.068	24145.89
557.268	23881.7
557.467	23836.65
557.667	24088.55
557.866	24283.11
558.065	23984.1
558.265	23795.69
558.464	24127.46
558.663	23762.92
558.863	23642.09
559.062	24268.77
559.261	23711.72
559.461	23863.27
559.66	23425.01
559.859	23388.14
560.058	23633.9
560.258	23597.04
560.457	22996.98
560.656	23578.61
560.855	23334.9
561.054	23531.5
561.253	23160.82
561.453	23486.45
561.652	23332.85
561.851	23212.02
562.05	23181.3
562.249	23273.46
562.448	23238.64
562.647	22847.48
562.846	23152.63
563.045	23089.14
563.244	22824.95
563.443	22900.73
563.642	22685.69
563.841	22857.72
564.04	22534.14
564.239	22831.1
564.438	22714.36
564.637	22640.64
564.836	22390.78
565.035	22163.46
565.234	22452.22
565.432	22497.28
565.631	22142.98
565.83	22044.68
566.029	21862.41
566.228	22212.61
566.427	21848.07
566.625	21665.8
566.824	21805.06
567.023	21878.79
567.222	21782.54
567.42	21729.29
567.619	21717
567.818	21762.06
568.016	21606.41
568.215	21819.4
568.414	21250.07
568.612	21370.9
568.811	21379.09
569.01	21377.04
569.208	21299.22
569.407	21413.9
569.605	21037.08
569.804	21139.47
570.002	20979.73
570.201	21035.03
570.4	20764.7
570.598	20645.91
570.797	20537.37
570.995	20863
571.193	20709.4
571.392	20654.11
571.59	20105.25
571.789	20254.75
571.987	20475.93
572.186	20443.17
572.384	19898.41
572.582	20635.67
572.781	20178.98
572.979	20060.2
573.177	19939.37
573.376	20025.38
573.574	19939.37
573.772	19914.79
573.971	19826.73
574.169	19589.16
574.367	19591.21
574.565	19552.3
574.763	19451.95
574.962	19255.34
575.16	19251.25
575.358	19439.66
575.556	19255.34
575.754	19478.57
575.952	19251.25
576.151	19253.3
576.349	19404.85
576.547	18999.35
576.745	18980.92
576.943	18890.81
577.141	18894.9
577.339	18888.76
577.537	18737.21
577.735	18716.73
577.933	18581.56
578.131	18792.5
578.329	18624.57
578.527	18483.26
578.725	18231.36
578.923	18647.1
579.121	18485.31
579.319	18417.72
579.516	18274.37
579.714	18196.54
579.912	18202.69
580.11	18102.34
580.308	18028.61
580.506	17672.26
580.704	17625.16
580.901	17811.53
581.099	17946.69
581.297	17510.47
581.495	17743.94
581.692	18006.08
581.89	17674.31
582.088	17784.9
582.285	17727.56
582.483	17578.06
582.681	17330.25
582.878	17340.49
583.076	17043.54
583.274	17315.92
583.471	17133.65
583.669	17014.87
583.866	16906.32
584.064	17092.69
584.262	16805.97
584.459	16990.29
584.657	16836.69
584.854	16994.39
585.052	16480.35
585.249	16824.4
585.447	16566.36
585.644	16341.08
585.841	16560.22
586.039	16787.54
586.236	16228.45
586.434	16494.68
586.631	16480.35
586.828	16267.36
587.026	16285.79
587.223	16418.91
587.42	16220.25
587.618	16365.66
587.815	15929.44
588.012	16158.81
588.21	15925.35
588.407	16285.79
588.604	16160.86
588.801	15806.56
588.999	15632.49
589.196	15675.49
589.393	15480.94
589.59	15579.24
589.787	15480.94
589.984	15433.83
590.182	15306.86
590.379	15464.55
590.576	15308.91
590.773	15353.96
590.97	15218.8
591.167	15153.26
591.364	14964.85
591.561	15106.16
591.758	14995.57
591.955	15122.54
592.152	15126.64
592.349	14952.56
592.546	14786.68
592.743	14878.83
592.94	14776.44
593.137	14758
593.334	14981.23
593.531	14538.87
593.727	14776.44
593.924	14350.46
594.121	14676.09
594.318	14446.71
594.515	14485.62
594.712	14274.68
594.908	14522.49
595.105	14301.31
595.302	14203
595.499	14121.09
595.696	14104.7
595.892	14178.43
596.089	14313.59
596.286	14061.69
596.482	14000.26
596.679	14041.22
596.876	14049.41
597.072	13973.63
597.269	13836.42
597.466	13957.25
597.662	13605
597.859	13758.6
598.055	13605
598.252	13688.96
598.448	13666.44
598.645	13584.52
598.841	13316.23
599.038	13508.74
599.234	13451.4
599.431	13525.13
599.627	13138.06
599.824	13328.52
600.02	13185.16
600.217	13318.28
600.413	13176.97
600.609	13131.92
600.806	13312.14
601.002	13045.9
601.198	13240.46
601.395	12896.4
601.591	13113.49
601.787	13017.23
601.984	12873.87
602.18	12750.99
602.376	12900.5
602.572	12732.56
602.769	12619.92
602.965	12621.97
603.161	12681.36
603.357	12351.64
603.553	12634.26
603.75	12628.12
603.946	12345.5
604.142	12392.6
604.338	12230.81
604.534	12296.35
604.73	12284.06
604.926	12212.38
605.122	12232.86
605.318	12241.05
605.514	12021.92
605.71	11868.32
605.906	12077.21
606.102	11907.23
606.298	12019.87
606.494	12075.17
606.69	11966.62
606.886	12013.73
607.082	11821.22
607.278	11874.46
607.474	11808.93
607.67	11890.85
607.866	11561.12
608.062	11722.91
608.257	11919.52
608.453	11417.77
608.649	11421.86
608.845	11694.24
609.041	11452.58
609.236	11516.07
609.432	11587.75
609.628	11219.11
609.824	11514.02
610.019	11239.59
610.215	11147.44
610.411	11329.7
610.606	11323.56
610.802	11315.37
610.998	11172.01
611.193	11235.5
611.389	11348.14
611.584	11245.74
611.78	11071.66
611.976	11133.1
612.171	11124.91
612.367	11149.48
612.562	11032.75
612.758	10924.21
612.953	10928.3
613.149	11129
613.344	11030.7
613.539	11227.31
613.735	10903.73
613.93	10954.93
614.126	10913.97
614.321	10834.1
614.517	11028.65
614.712	10850.48
614.907	10873.01
615.103	10766.51
615.298	10727.6
615.493	10694.83
615.688	10651.83
615.884	10700.98
616.079	10621.11
616.274	10444.98
616.47	10461.37
616.665	10688.69
616.86	10496.18
617.055	10418.36
617.25	10533.04
617.445	10444.98
617.641	10268.86
617.836	10334.39
618.031	10330.3
618.226	10375.35
618.421	10223.8
618.616	10268.86
618.811	10023.1
619.006	10420.41
619.201	10143.93
619.396	10143.93
619.591	10010.81
619.786	10051.77
619.981	9986.24
620.176	9932.99
620.371	9943.23
620.566	9658.56
620.761	9988.28
620.956	9916.61
621.151	9681.09
621.346	9654.47
621.541	9580.74
621.735	9689.28
621.93	9466.05
622.125	9445.57
622.32	9515.2
622.515	9289.93
622.709	9468.1
622.904	9400.52
623.099	9480.39
623.294	9285.83
623.488	9144.52
623.683	9138.38
623.878	9130.19
624.072	9119.95
624.267	9031.88
624.462	8915.15
624.656	8751.31
624.851	8814.8
625.046	8843.47
625.24	8806.61
625.435	8536.28
625.629	8558.8
625.824	8630.48
626.018	8562.9
626.213	8585.43
626.407	8542.42
626.602	8399.06
626.796	8507.6
626.991	8403.16
627.185	8337.62
627.38	8212.7
627.574	8321.24
627.768	8265.94
627.963	8114.39
628.157	7977.18
628.352	8061.15
628.546	8016.09
628.74	8073.43
628.935	7786.72
629.129	7919.84
629.323	7794.91
629.517	7663.84
629.712	7688.42
629.906	7557.35
630.1	7594.21
630.294	7555.3
630.489	7608.55
630.683	7588.07
630.877	7485.67
631.071	7428.32
631.265	7385.32
631.459	7514.34
631.653	7352.55
631.848	7307.49
632.042	7338.21
632.236	7315.69
632.43	7065.83
632.624	7043.31
632.818	7059.69
633.012	7117.03
633.206	6813.93
633.4	6942.96
633.594	6961.39
633.788	6996.2
633.982	6979.82
634.176	6844.65
634.369	6641.9
634.563	6869.23
634.757	6697.2
634.951	6760.69
635.145	6754.54
635.339	6549.75
635.533	6623.47
635.726	6621.42
635.92	6404.34
636.114	6301.94
636.308	6494.45
636.501	6404.34
636.695	6523.12
636.889	6418.68
637.083	6437.11
637.276	6193.4
637.47	6351.09
637.664	6152.44
637.857	6326.52
638.051	6127.86
638.244	6047.99
638.438	6033.66
638.632	6172.92
638.825	5916.92
639.019	5904.64
639.212	5908.73
639.406	5943.55
639.599	5724.41
639.793	5796.09
639.986	5673.21
640.18	5779.71
640.373	5796.09
640.567	5689.6
640.76	5710.08
640.954	5601.54
641.147	5697.79
641.34	5640.45
641.534	5579.01
641.727	5558.53
641.92	5529.86
642.114	5505.28
642.307	5445.89
642.5	5396.74
642.694	5243.14
642.887	5183.75
643.08	5372.16
643.273	5323.01
643.467	5134.6
643.66	5245.19
643.853	5316.87
644.046	5077.26
644.239	5097.74
644.432	5062.92
644.626	5128.46
644.819	4993.29
645.012	5126.41
645.205	5040.39
645.398	5153.03
645.591	4837.64
645.784	4905.23
645.977	4731.15
646.17	4905.23
646.363	4716.81
646.556	4851.98
646.749	4813.07
646.942	4763.92
647.135	4770.06
647.328	4667.66
647.521	4694.29
647.714	4661.52
647.907	4575.5
648.099	4495.63
648.292	4600.08
648.485	4557.07
648.678	4428.05
648.871	4454.67
649.064	4610.32
649.256	4370.71
649.449	4362.51
649.642	4440.34
649.835	4368.66
650.027	4274.45
650.22	4229.4
650.413	4378.9
650.605	4274.45
650.798	4114.71
650.991	4081.94
651.183	4247.83
651.376	4098.33
651.568	4153.62
651.761	4010.26
651.954	4215.06
652.146	4081.94
652.339	4124.95
652.531	4167.96
652.724	3940.63
652.916	4092.18
653.109	3891.48
653.301	4100.37
653.494	3940.63
653.686	3905.82
653.879	3942.68
654.071	3903.77
654.263	3778.84
654.456	3752.22
654.648	3967.26
654.84	3866.91
655.033	3768.6
655.225	3840.28
655.417	3739.93
655.61	3655.97
655.802	3815.71
655.994	3690.78
656.186	3576.09
656.379	3668.25
656.571	3758.36
656.763	3584.29
656.955	3602.72
657.148	3471.65
657.34	3569.95
657.532	3434.78
657.724	3520.8
657.916	3428.64
658.108	3563.81
658.3	3428.64
658.492	3438.88
658.684	3397.92
658.876	3510.56
659.068	3379.49
659.26	3166.5
659.452	3393.83
659.644	3350.82
659.836	3301.67
660.028	3262.76
660.22	3322.15
660.412	3248.42
660.604	3266.85
660.796	3166.5
660.988	3285.28
661.18	3203.36
661.372	3084.58
661.563	3137.83
661.755	3023.14
661.947	3223.84
662.139	3109.16
662.331	3023.14
662.522	2955.56
662.714	3088.68
662.906	3002.66
663.097	2963.75
663.289	2933.03
663.481	2890.03
663.673	3051.81
663.864	3027.24
664.056	2928.94
664.247	2906.41
664.439	2920.74
664.631	2957.61
664.822	2965.8
665.014	2783.53
665.205	2898.22
665.397	2703.66
665.588	2752.81
665.78	2847.02
665.971	2799.91
666.163	2797.87
666.354	2748.72
666.546	2644.27
666.737	2666.8
666.929	2695.47
667.12	2838.83
667.311	2584.88
667.503	2715.95
667.694	2677.04
667.885	2664.75
668.077	2728.24
668.268	2552.11
668.459	2603.31
668.651	2617.65
668.842	2494.77
669.033	2556.21
669.224	2644.27
669.416	2562.35
669.607	2531.63
669.798	2541.87
669.989	2666.8
670.18	2545.97
670.371	2531.63
670.563	2494.77
670.754	2502.96
670.945	2447.66
671.136	2568.49
671.327	2423.09
671.518	2363.7
671.709	2494.77
671.9	2378.03
672.091	2437.42
672.282	2464.05
672.473	2355.51
672.664	2339.12
672.855	2363.7
673.046	2390.32
673.237	2310.45
673.428	2414.9
673.619	2367.79
673.809	2273.59
674	2365.75
674.191	2371.89
674.382	2154.8
674.573	2232.63
674.764	2183.48
674.954	2212.15
675.145	2257.2
675.336	2318.64
675.527	2175.28
675.717	2242.87
675.908	2246.96
676.099	2249.01
676.289	2392.37
676.48	2279.73
676.671	2240.82
676.861	2117.94
677.052	2240.82
677.243	2144.56
677.433	2300.21
677.624	2249.01
677.814	2158.9
678.005	2144.56
678.195	2163
678.386	2142.52
678.576	2113.85
678.767	2109.75
678.957	2111.8
679.148	2160.95
679.338	2160.95
679.529	2044.21
679.719	2103.61
679.909	2070.84
680.1	2134.32
680.29	1997.11
680.481	2128.18
680.671	2150.71
680.861	2154.8
681.052	2126.13
681.242	2140.47
681.432	2154.8
681.622	2060.6
681.813	1986.87
682.003	2013.49
682.193	2019.64
682.383	2130.23
682.573	2060.6
682.764	2062.65
682.954	2062.65
683.144	2093.37
683.334	1958.2
683.524	2076.98
683.714	2119.99
683.904	1925.43
684.094	2158.9
684.284	1995.06
684.474	2093.37
684.664	2046.26
684.854	2031.93
685.044	1947.96
685.234	1913.14
685.424	2011.45
685.614	1927.48
685.804	1890.62
685.994	1894.71
686.184	1941.82
686.374	1882.42
686.564	1966.39
686.753	1859.9
686.943	2003.25
687.133	1956.15
687.323	1839.42
687.513	1833.27
687.702	1900.86
687.892	1857.85
688.082	1825.08
688.272	1814.84
688.461	1863.99
688.651	1974.58
688.841	1798.46
689.03	1915.19
689.22	1929.53
689.41	1716.54
689.599	1872.18
689.789	1796.41
689.979	1872.18
690.168	1823.03
690.358	1823.03
690.547	1859.9
690.737	1823.03
690.926	1829.18
691.116	1720.64
691.305	1868.09
691.495	1835.32
691.684	1765.69
691.874	1757.5
692.063	1728.83
692.252	1708.35
692.442	1743.16
692.631	1759.55
692.82	1716.54
693.01	1694.01
693.199	1730.87
693.388	1546.56
693.578	1655.1
693.767	1802.55
693.956	1798.46
694.146	1683.77
694.335	1708.35
694.524	1634.62
694.713	1675.58
694.902	1702.2
695.092	1702.2
695.281	1638.72
695.47	1669.44
695.659	1716.54
695.848	1612.09
696.037	1704.25
696.226	1745.21
696.415	1587.52
696.604	1630.52
696.793	1622.33
696.982	1626.43
697.171	1700.16
697.36	1560.89
697.549	1659.2
697.738	1679.68
697.927	1612.09
698.116	1605.95
698.305	1675.58
698.494	1708.35
698.683	1671.48
698.872	1743.16
699.061	1722.68
699.25	1659.2
699.438	1630.52
699.627	1665.34
699.816	1564.99
700.005	1614.14
700.193	1601.85
700.382	1671.48
700.571	1685.82
700.76	1675.58
700.948	1683.77
701.137	1732.92
701.326	1614.14
701.514	1620.28
701.703	1769.79
701.892	1716.54
702.08	1726.78
702.269	1696.06
702.457	1614.14
702.646	1681.72
702.834	1642.81
703.023	1638.72
703.212	1753.4
703.4	1753.4
703.589	1683.77
703.777	1589.57
703.965	1716.54
704.154	1642.81
704.342	1614.14
704.531	1753.4
704.719	1575.23
704.907	1798.46
705.096	1743.16
705.284	1612.09
705.472	1737.02
705.661	1718.59
705.849	1691.96
706.037	1808.7
706.226	1734.97
706.414	1677.63
706.602	1726.78
706.79	1741.11
706.979	1659.2
707.167	1782.07
707.355	1708.35
707.543	1724.73
707.731	1671.48
707.919	1751.35
708.107	1792.31
708.296	1628.48
708.484	1642.81
708.672	1759.55
708.86	1718.59
709.048	1698.11
709.236	1726.78
709.424	1737.02
709.612	1675.58
709.8	1603.9
709.988	1626.43
710.176	1798.46
710.364	1755.45
710.551	1753.4
710.739	1700.16
710.927	1769.79
711.115	1694.01
711.303	1712.44
711.491	1808.7
711.679	1626.43
711.866	1685.82
712.054	1673.53
712.242	1712.44
712.43	1741.11
712.617	1773.88
712.805	1790.27
712.993	1773.88
713.181	1700.16
713.368	1726.78
713.556	1777.98
713.744	1769.79
713.931	1804.6
714.119	1724.73
714.306	1681.72
714.494	1724.73
714.682	1614.14
714.869	1714.49
715.057	1831.23
715.244	1708.35
715.432	1833.27
715.619	1743.16
715.807	1753.4
715.994	1728.83
716.182	1741.11
716.369	1761.59
716.556	1728.83
716.744	1773.88
716.931	1714.49
717.119	1775.93
717.306	1702.2
717.493	1849.66
717.681	1782.07
717.868	1694.01
718.055	1761.59
718.242	1728.83
718.43	1757.5
718.617	1679.68
718.804	1685.82
718.991	1718.59
719.179	1841.47
719.366	1784.12
719.553	1806.65
719.74	1716.54
719.927	1745.21
720.114	1704.25
720.301	1708.35
720.488	1687.87
720.676	1696.06
720.863	1753.4
721.05	1714.49
721.237	1718.59
721.424	1743.16
721.611	1786.17
721.798	1655.1
721.985	1612.09
722.172	1728.83
722.358	1696.06
722.545	1777.98
722.732	1651
722.919	1788.22
723.106	1751.35
723.293	1675.58
723.48	1825.08
723.667	1732.92
723.853	1741.11
724.04	1773.88
724.227	1700.16
724.414	1743.16
724.6	1734.97
724.787	1839.42
724.974	1659.2
725.161	1761.59
725.347	1642.81
725.534	1651
725.72	1716.54
725.907	1683.77
726.094	1814.84
726.28	1694.01
726.467	1704.25
726.653	1724.73
726.84	1773.88
727.027	1720.64
727.213	1661.24
727.4	1794.36
727.586	1745.21
727.773	1571.13
727.959	1691.96
728.145	1599.8
728.332	1806.65
728.518	1655.1
728.705	1638.72
728.891	1626.43
729.077	1782.07
729.264	1657.15
729.45	1661.24
729.636	1683.77
729.823	1765.69
730.009	1718.59
730.195	1642.81
730.382	1708.35
730.568	1698.11
730.754	1767.74
730.94	1687.87
731.126	1659.2
731.313	1700.16
731.499	1634.62
731.685	1663.29
731.871	1663.29
732.057	1769.79
732.243	1747.26
732.429	1698.11
732.615	1636.67
732.801	1597.76
732.987	1634.62
733.173	1556.8
733.359	1675.58
733.545	1651
733.731	1575.23
733.917	1655.1
734.103	1634.62
734.289	1677.63
734.475	1610.04
734.661	1651
734.847	1628.48
735.033	1683.77
735.219	1726.78
735.404	1636.67
735.59	1651
735.776	1577.28
735.962	1659.2
736.148	1669.44
736.333	1593.66
736.519	1659.2
736.705	1558.85
736.89	1562.94
737.076	1544.51
737.262	1636.67
737.447	1628.48
737.633	1634.62
737.819	1560.89
738.004	1544.51
738.19	1626.43
738.375	1569.09
738.561	1708.35
738.747	1503.55
738.932	1636.67
739.118	1595.71
739.303	1573.18
739.489	1548.61
739.674	1567.04
739.859	1550.65
740.045	1663.29
740.23	1571.13
740.416	1528.13
740.601	1454.4
740.786	1593.66
740.972	1462.59
741.157	1511.74
741.342	1435.97
741.528	1515.84
741.713	1532.22
741.898	1478.97
742.084	1491.26
742.269	1466.69
742.454	1519.93
742.639	1573.18
742.824	1448.26
743.01	1519.93
743.195	1552.7
743.38	1392.96
743.565	1495.36
743.75	1487.17
743.935	1472.83
744.12	1429.82
744.305	1433.92
744.49	1483.07
744.675	1503.55
744.86	1374.53
745.045	1421.63
745.23	1343.81
745.415	1423.68
745.6	1388.86
745.785	1376.58
745.97	1372.48
746.155	1395.01
746.34	1413.44
746.525	1290.56
746.71	1427.78
746.895	1298.75
747.079	1315.14
747.264	1388.86
747.449	1329.47
747.634	1347.9
747.819	1368.38
748.003	1343.81
748.188	1249.6
748.373	1290.56
748.557	1251.65
748.742	1225.03
748.927	1282.37
749.111	1288.51
749.296	1257.79
749.481	1120.58
749.665	1222.98
749.85	1151.3
750.034	1249.6
750.219	1102.15
750.404	1159.49
750.588	1167.68
750.773	1233.22
750.957	1190.21
751.141	1126.72
751.326	1093.96
751.51	1120.58
751.695	1036.61
751.879	1177.92
752.064	1110.34
752.248	1229.12
752.432	1014.09
752.617	1157.44
752.801	1153.35
752.985	1061.19
753.17	1122.63
753.354	1128.77
753.538	1036.61
753.722	1079.62
753.907	1130.82
754.091	993.61
754.275	1102.15
754.459	952.65
754.643	971.08
754.828	1063.24
755.012	1001.8
755.196	991.56
755.38	1057.09
755.564	1012.04
755.748	987.46
755.932	934.22
756.116	987.46
756.3	1001.8
756.484	952.65
756.668	1022.28
756.852	915.78
757.036	1044.81
757.22	979.27
757.404	827.72
757.588	969.03
757.772	1016.13
757.956	893.26
758.14	932.17
758.323	866.63
758.507	905.54
758.691	807.24
758.875	878.92
759.059	856.39
759.242	870.73
759.426	827.72
759.61	858.44
759.794	866.63
759.977	860.49
760.161	1016.13
760.345	874.82
760.528	842.06
760.712	823.62
760.895	811.34
761.079	811.34
761.263	803.15
761.446	848.2
761.63	803.15
761.813	848.2
761.997	819.53
762.18	700.75
762.364	774.47
762.547	717.13
762.731	766.28
762.914	766.28
763.098	811.34
763.281	768.33
763.464	807.24
763.648	725.32
763.831	835.91
764.015	721.23
764.198	813.38
764.381	768.33
764.564	784.71
764.748	729.42
764.931	799.05
765.114	799.05
765.297	801.1
765.481	708.94
765.664	708.94
765.847	680.27
766.03	643.4
766.213	667.98
766.397	729.42
766.58	651.6
766.763	801.1
766.946	713.03
767.129	688.46
767.312	700.75
767.495	663.88
767.678	635.21
767.861	684.36
768.044	655.69
768.227	696.65
768.41	694.6
768.593	719.18
768.776	735.56
768.959	594.25
769.142	700.75
769.324	670.03
769.507	622.92
769.69	690.51
769.873	645.45
770.056	700.75
770.239	653.64
770.421	637.26
770.604	635.21
770.787	622.92
770.97	637.26
771.152	620.88
771.335	581.96
771.518	553.29
771.7	692.55
771.883	645.45
772.066	592.2
772.248	508.24
772.431	592.2
772.613	667.98
772.796	610.64
772.978	612.68
773.161	639.31
773.343	563.53
773.526	504.14
773.708	569.68
773.891	508.24
774.073	528.72
774.256	561.48
774.438	526.67
774.621	571.72
774.803	522.57
774.985	553.29
775.168	500.05
775.35	536.91
775.532	524.62
775.715	657.74
775.897	584.01
776.079	579.92
776.261	538.96
776.444	516.43
776.626	579.92
776.808	520.53
776.99	438.61
777.173	481.61
777.355	424.27
777.537	528.72
777.719	538.96
777.901	442.7
778.083	473.42
778.265	393.55
778.447	475.47
778.629	467.28
778.811	436.56
778.993	475.47
779.175	547.15
779.357	457.04
779.539	475.47
779.721	381.26
779.903	465.23
780.085	414.03
780.267	481.61
780.449	422.22
780.631	473.42
780.812	475.47
780.994	354.64
781.176	448.85
781.358	442.7
781.54	459.09
781.721	416.08
781.903	397.65
782.085	457.04
782.267	434.51
782.448	366.93
782.63	481.61
782.812	448.85
782.993	459.09
783.175	377.17
783.357	393.55
783.538	434.51
783.72	317.78
783.901	399.7
784.083	364.88
784.264	348.5
784.446	399.7
784.627	321.87
784.809	356.69
784.99	297.3
785.172	371.02
785.353	325.97
785.535	395.6
785.716	323.92
785.897	391.5
786.079	385.36
786.26	325.97
786.441	291.15
786.623	356.69
786.804	334.16
786.985	348.5
787.167	325.97
787.348	338.26
787.529	381.26
787.71	397.65
787.891	285.01
788.073	264.53
788.254	287.06
788.435	348.5
788.616	342.35
788.797	371.02
788.978	250.19
789.159	307.54
789.34	272.72
789.522	268.63
789.703	248.15
789.884	330.06
790.065	315.73
790.246	332.11
790.427	270.67
790.607	328.02
790.788	299.34
790.969	229.71
791.15	258.39
791.331	237.91
791.512	266.58
791.693	332.11
791.874	252.24
792.054	307.54
792.235	315.73
792.416	164.18
792.597	229.71
792.778	225.62
792.958	307.54
793.139	250.19
793.32	235.86
793.5	323.92
793.681	299.34
793.862	282.96
794.042	233.81
794.223	225.62
794.404	250.19
794.584	221.52
794.765	291.15
794.945	221.52
795.126	289.1
795.306	250.19
795.487	209.23
795.667	151.89
795.848	233.81
796.028	262.48
796.209	254.29
796.389	160.08
796.57	268.63
796.75	184.66
796.93	285.01
797.111	137.56
797.291	278.87
797.471	250.19
797.652	217.43
797.832	213.33
798.012	217.43
798.192	176.47
798.373	174.42
798.553	147.8
798.733	203.09
798.913	184.66
799.093	192.85
799.274	178.51
799.454	268.63
799.634	164.18
799.814	184.66
799.994	233.81
800.174	155.99
800.354	188.75
800.534	196.95
800.714	205.14
800.894	153.94
801.074	162.13
801.254	176.47
801.434	139.6
801.614	233.81
801.794	207.19
801.974	743.75
802.154	135.51
802.334	172.37
802.514	184.66
802.693	112.98
802.873	176.47
803.053	135.51
803.233	266.58
803.413	233.81
803.592	151.89
803.772	153.94
803.952	203.09
804.131	147.8
804.311	207.19
804.491	205.14
804.67	164.18
804.85	141.65
805.03	211.28
805.209	139.6
805.389	180.56
805.568	104.79
805.748	184.66
805.928	131.41
806.107	186.71
806.287	131.41
806.466	137.56
806.646	149.84
806.825	143.7
807.004	147.8
807.184	112.98
807.363	213.33
807.543	184.66
807.722	69.97
807.901	112.98
808.081	186.71
808.26	94.55
808.439	123.22
808.619	176.47
808.798	188.75
808.977	231.76
809.156	184.66
809.336	182.61
809.515	172.37
809.694	55.64
809.873	160.08
810.052	158.03
810.231	205.14
810.411	174.42
810.59	102.74
810.769	112.98
810.948	135.51
811.127	135.51
811.306	192.85
811.485	119.12
811.664	215.38
811.843	119.12
812.022	127.32
812.201	143.7
812.38	184.66
812.559	176.47
812.737	139.6
812.916	117.08
813.095	137.56
813.274	108.88
813.453	115.03
813.632	141.65
813.811	119.12
813.989	127.32
814.168	162.13
814.347	102.74
814.526	84.31
814.704	155.99
814.883	184.66
815.062	51.54
815.24	119.12
815.419	61.78
815.598	51.54
815.776	125.27
815.955	80.21
816.133	69.97
816.312	53.59
816.49	90.45
816.669	153.94
816.847	94.55
817.026	117.08
817.204	123.22
817.383	96.6
817.561	143.7
817.74	160.08
817.918	18.77
818.097	63.83
818.275	78.16
818.453	135.51
818.632	141.65
818.81	72.02
818.988	102.74
819.167	22.87
819.345	86.36
819.523	100.69
819.701	115.03
819.879	153.94
820.058	123.22
820.236	127.32
820.414	88.4
820.592	37.2
820.77	69.97
820.948	-3.75
821.127	110.93
821.305	94.55
821.483	84.31
821.661	94.55
821.839	78.16
822.017	139.6
822.195	94.55
822.373	139.6
822.551	115.03
822.729	110.93
822.907	82.26
823.085	137.56
823.262	123.22
823.44	123.22
823.618	117.08
823.796	22.87
823.974	94.55
824.152	143.7
824.329	117.08
824.507	8.53
824.685	168.27
824.863	74.07
825.04	145.75
825.218	33.11
825.396	100.69
825.574	129.36
825.751	39.25
825.929	106.84
826.107	29.01
826.284	129.36
826.462	110.93
826.639	74.07
826.817	-3.75
826.994	96.6
827.172	47.44
827.349	115.03
827.527	127.32
827.704	104.79
827.882	127.32
828.059	153.94
828.237	121.17
828.414	145.75
828.591	29.01
828.769	110.93
828.946	115.03
829.124	78.16
829.301	110.93
829.478	26.96
829.655	37.2
829.833	86.36
830.01	47.44
830.187	172.37
830.364	16.73
830.542	121.17
830.719	88.4
830.896	67.92
831.073	57.68
831.25	20.82
831.427	139.6
831.604	55.64
831.782	98.64
831.959	123.22
832.136	33.11
832.313	102.74
832.49	63.83
832.667	88.4
832.844	88.4
833.021	57.68
833.198	102.74
833.374	53.59
833.551	61.78
833.728	37.2
833.905	53.59
834.082	-20.14
834.259	88.4
834.436	194.9
834.612	61.78
834.789	98.64
834.966	78.16
835.143	31.06
835.319	94.55
835.496	104.79
835.673	45.4
835.85	92.5
836.026	57.68
836.203	86.36
836.38	37.2
836.556	37.2
836.733	26.96
836.909	33.11
837.086	37.2
837.262	86.36
837.439	-11.95
837.616	2.39
837.792	31.06
837.968	121.17
838.145	-65.19
838.321	74.07
838.498	61.78
838.674	121.17
838.851	112.98
839.027	31.06
839.203	65.88
839.38	63.83
839.556	24.92
839.732	115.03
839.909	0.34
840.085	49.49
840.261	31.06
840.437	47.44
840.614	65.88
840.79	31.06
840.966	86.36
841.142	55.64
841.318	61.78
841.494	96.6
841.671	104.79
841.847	74.07
842.023	47.44
842.199	-36.52
842.375	88.4
842.551	8.53
842.727	-3.75
842.903	86.36
843.079	49.49
843.255	110.93
843.431	-11.95
843.607	102.74
843.783	-11.95
843.959	39.25
844.134	29.01
844.31	110.93
844.486	-1.71
844.662	86.36
844.838	18.77
845.013	33.11
845.189	61.78
845.365	43.35
845.541	102.74
845.716	-3.75
845.892	94.55
846.068	41.3
846.244	26.96
846.419	16.73
846.595	16.73
846.77	20.82
846.946	35.16
847.122	-26.28
847.297	31.06
847.473	92.5
847.648	80.21
847.824	61.78
847.999	55.64
848.175	10.58
848.35	-1.71
848.526	98.64
848.701	49.49
848.876	123.22
849.052	127.32
849.227	31.06
849.403	-1.71
849.578	4.44
849.753	20.82
849.929	31.06
850.104	-18.09
850.279	-61.1
850.454	39.25
850.63	55.64
850.805	24.92
850.98	57.68
851.155	22.87
851.33	86.36
851.505	51.54
851.681	63.83
851.856	0.34
852.031	12.63
852.206	112.98
852.381	80.21
852.556	53.59
852.731	53.59
852.906	61.78
853.081	22.87
853.256	63.83
853.431	22.87
853.606	-20.14
853.781	-30.38
853.956	8.53
854.131	86.36
854.305	12.63
854.48	53.59
854.655	4.44
854.83	-34.47
855.005	69.97
855.18	90.45
855.354	-3.75
855.529	55.64
855.704	18.77
855.879	123.22
856.053	-5.8
856.228	-9.9
856.403	80.21
856.577	72.02
856.752	29.01
856.926	69.97
857.101	65.88
857.276	-50.86
857.45	57.68
857.625	51.54
857.799	112.98
857.974	43.35
858.148	59.73
858.323	14.68
858.497	24.92
858.672	-13.99
858.846	29.01
859.02	82.26
859.195	-20.14
859.369	-61.1
859.543	119.12
859.718	69.97
859.892	2.39
860.066	35.16
860.241	-24.23
860.415	90.45
860.589	39.25
860.763	-1.71
860.938	41.3
861.112	88.4
861.286	51.54
861.46	37.2
861.634	96.6
861.808	61.78
861.982	33.11
862.157	18.77
862.331	110.93
862.505	-50.86
862.679	-1.71
862.853	45.4
863.027	12.63
863.201	59.73
863.375	-18.09
863.549	31.06
863.722	41.3
863.896	22.87
864.07	-11.95
864.244	47.44
864.418	45.4
864.592	98.64
864.766	6.49
864.939	20.82
865.113	-102.06
865.287	65.88
865.461	-50.86
865.634	20.82
865.808	84.31
865.982	-3.75
866.156	57.68
866.329	-3.75
866.503	-3.75
866.676	43.35
866.85	20.82
867.024	20.82
867.197	78.16
867.371	4.44
867.544	4.44
867.718	-48.81
867.891	102.74
868.065	31.06
868.238	49.49
868.412	4.44
868.585	-18.09
868.759	61.78
868.932	-5.8
869.105	0.34
869.279	-9.9
869.452	-5.8
869.625	-13.99
869.799	86.36
869.972	69.97
870.145	-1.71
870.319	55.64
870.492	14.68
870.665	2.39
870.838	8.53
871.011	22.87
871.185	90.45
871.358	45.4
871.531	76.12
871.704	-3.75
871.877	29.01
872.05	37.2
872.223	20.82
872.396	88.4
872.569	78.16
872.742	0.34
872.915	69.97
873.088	37.2
873.261	24.92
873.434	67.92
873.607	47.44
873.78	104.79
873.953	-28.33
874.126	-9.9
874.299	37.2
874.471	45.4
874.644	8.53
874.817	43.35
874.99	49.49
875.163	-28.33
875.335	65.88
875.508	-40.62
875.681	84.31
875.853	-59.05
876.026	-9.9
876.199	41.3
876.371	31.06
876.544	53.59
876.717	22.87
876.889	-3.75
877.062	18.77
877.234	-69.29
877.407	0.34
877.579	47.44
877.752	45.4
877.924	43.35
878.097	45.4
878.269	104.79
878.442	12.63
878.614	45.4
878.786	-28.33
878.959	37.2
879.131	69.97
879.303	-36.52
879.476	53.59
879.648	57.68
879.82	63.83
879.993	41.3
880.165	-3.75
880.337	51.54
880.509	49.49
880.681	-3.75
880.854	39.25
881.026	4.44
881.198	-11.95
881.37	12.63
881.542	26.96
881.714	8.53
881.886	49.49
882.058	31.06
882.23	74.07
882.402	6.49
882.574	-1.71
882.746	6.49
882.918	24.92
883.09	-1.71
883.262	6.49
883.434	24.92
883.606	-11.95
883.778	-65.19
883.95	94.55
884.122	-3.75
884.293	67.92
884.465	6.49
884.637	31.06
884.809	-52.91
884.98	-11.95
885.152	74.07
885.324	53.59
885.496	-59.05
885.667	72.02
885.839	90.45
886.011	-13.99
886.182	16.73
886.354	-5.8
886.525	10.58
886.697	-18.09
886.869	-59.05
887.04	8.53
887.212	55.64
887.383	31.06
887.555	-40.62
887.726	33.11
887.897	-1.71
888.069	47.44
888.24	53.59
888.412	47.44
888.583	-44.71
888.754	53.59
888.926	-108.2
889.097	0.34
889.268	6.49
889.44	2.39
889.611	12.63
889.782	20.82
889.953	-50.86
890.125	112.98
890.296	-11.95
890.467	-24.23
890.638	-38.57
890.809	22.87
890.98	-34.47
891.151	-11.95
891.323	33.11
891.494	102.74
891.665	-63.15
891.836	65.88
892.007	26.96
892.178	102.74
892.349	37.2
892.52	-46.76
892.691	26.96
892.862	-3.75
893.032	-59.05
893.203	29.01
893.374	41.3
893.545	86.36
893.716	-36.52
893.887	29.01
894.057	12.63
894.228	69.97
894.399	4.44
894.57	-9.9
894.74	20.82
894.911	37.2
895.082	8.53
895.253	47.44
895.423	-52.91
895.594	67.92
895.764	45.4
895.935	16.73
896.106	6.49
896.276	-44.71
896.447	-1.71
896.617	59.73
896.788	-52.91
896.958	-3.75
897.129	37.2
897.299	-16.04
897.47	20.82
897.64	12.63
897.81	-30.38
897.981	88.4
898.151	16.73
898.322	24.92
898.492	37.2
898.662	-28.33
898.832	-40.62
899.003	37.2
899.173	57.68
899.343	-44.71
899.513	-57
