Data from USB4F104151__120__14-43-56-769.txt Node

Date: Thu Mar 13 14:43:56 EDT 2025
User: louis
Spectrometer: USB4F10415
Trigger mode: 4
Integration Time (sec): 2.000000E-2
Scans to average: 1
Electric dark correction enabled: true
Nonlinearity correction enabled: false
Boxcar width: 0
XAxis mode: Wavelengths
Number of Pixels in Spectrum: 3648
>>>>>Begin Spectral Data<<<<<
178.204	-152.06
178.424	-152.06
178.644	-152.06
178.864	-154.11
179.084	-162.3
179.304	-90.62
179.524	17.92
179.744	-47.62
179.964	87.55
180.184	28.16
180.404	1.54
180.624	-4.61
180.844	40.45
181.064	-55.81
181.283	-20.99
181.503	-20.99
181.723	65.02
181.943	-45.57
182.163	28.16
182.383	-23.04
182.602	34.3
182.822	58.88
183.042	-14.85
183.262	36.35
183.482	19.97
183.701	-6.66
183.921	28.16
184.141	-41.47
184.361	-20.99
184.58	40.45
184.8	-14.85
185.02	50.69
185.239	75.26
185.459	3.58
185.679	-37.38
185.898	-72.19
186.118	19.97
186.338	36.35
186.557	46.59
186.777	34.3
186.997	26.11
187.216	19.97
187.436	13.82
187.655	36.35
187.875	81.41
188.095	-43.52
188.314	9.73
188.534	69.12
188.753	34.3
188.973	-14.85
189.192	52.74
189.412	-23.04
189.631	-14.85
189.851	13.82
190.07	71.17
190.29	-0.51
190.509	44.54
190.729	-4.61
190.948	34.3
191.168	122.37
191.387	50.69
191.607	-51.71
191.826	15.87
192.045	-6.66
192.265	-4.61
192.484	83.45
192.704	56.83
192.923	-53.76
193.142	67.07
193.362	91.65
193.581	75.26
193.8	26.11
194.02	1.54
194.239	-27.14
194.458	-0.51
194.678	-80.38
194.897	28.16
195.116	-14.85
195.335	50.69
195.555	26.11
195.774	5.63
195.993	-29.18
196.212	-72.19
196.432	-8.7
196.651	-4.61
196.87	50.69
197.089	91.65
197.308	42.5
197.528	11.78
197.747	-0.51
197.966	44.54
198.185	87.55
198.404	-14.85
198.623	-2.56
198.842	15.87
199.062	62.98
199.281	36.35
199.5	11.78
199.719	67.07
199.938	77.31
200.157	108.03
200.376	87.55
200.595	110.08
200.814	-2.56
201.033	19.97
201.252	73.21
201.471	50.69
201.69	36.35
201.909	69.12
202.128	7.68
202.347	7.68
202.566	34.3
202.785	-31.23
203.004	-23.04
203.223	67.07
203.442	13.82
203.661	26.11
203.879	48.64
204.098	28.16
204.317	85.5
204.536	91.65
204.755	5.63
204.974	58.88
205.193	46.59
205.411	71.17
205.63	46.59
205.849	99.84
206.068	1.54
206.287	-18.94
206.505	91.65
206.724	17.92
206.943	-59.9
207.162	-29.18
207.381	-61.95
207.599	-68.09
207.818	-6.66
208.037	71.17
208.255	-57.86
208.474	-31.23
208.693	-25.09
208.911	19.97
209.13	58.88
209.349	44.54
209.567	79.36
209.786	83.45
210.005	9.73
210.223	-80.38
210.442	-59.9
210.661	-12.8
210.879	91.65
211.098	89.6
211.316	36.35
211.535	87.55
211.753	-31.23
211.972	-27.14
212.191	22.02
212.409	28.16
212.628	44.54
212.846	19.97
213.065	-23.04
213.283	89.6
213.502	-6.66
213.72	34.3
213.938	62.98
214.157	26.11
214.375	9.73
214.594	17.92
214.812	67.07
215.031	1.54
215.249	-16.9
215.467	-6.66
215.686	50.69
215.904	42.5
216.122	-37.38
216.341	93.69
216.559	-0.51
216.778	13.82
216.996	-18.94
217.214	40.45
217.432	-16.9
217.651	34.3
217.869	9.73
218.087	34.3
218.306	62.98
218.524	17.92
218.742	-55.81
218.96	-6.66
219.179	-20.99
219.397	75.26
219.615	30.21
219.833	54.78
220.051	11.78
220.27	42.5
220.488	34.3
220.706	44.54
220.924	69.12
221.142	5.63
221.36	34.3
221.578	32.26
221.796	-41.47
222.015	50.69
222.233	30.21
222.451	-23.04
222.669	-41.47
222.887	42.5
223.105	-6.66
223.323	9.73
223.541	-25.09
223.759	52.74
223.977	-12.8
224.195	58.88
224.413	-14.85
224.631	60.93
224.849	65.02
225.067	60.93
225.285	-16.9
225.503	34.3
225.721	-64
225.939	-43.52
226.157	-23.04
226.375	159.23
226.592	-14.85
226.81	52.74
227.028	67.07
227.246	93.69
227.464	22.02
227.682	79.36
227.9	36.35
228.117	46.59
228.335	62.98
228.553	77.31
228.771	-18.94
228.989	26.11
229.206	-14.85
229.424	87.55
229.642	5.63
229.86	13.82
230.077	24.06
230.295	34.3
230.513	-18.94
230.731	-25.09
230.948	-25.09
231.166	126.46
231.384	-18.94
231.601	-14.85
231.819	42.5
232.037	-39.42
232.254	-37.38
232.472	32.26
232.689	3.58
232.907	34.3
233.125	50.69
233.342	22.02
233.56	17.92
233.777	46.59
233.995	-33.28
234.213	62.98
234.43	-4.61
234.648	28.16
234.865	11.78
235.083	-14.85
235.3	89.6
235.518	36.35
235.735	83.45
235.953	67.07
236.17	-16.9
236.388	-6.66
236.605	-31.23
236.822	60.93
237.04	58.88
237.257	-2.56
237.475	-12.8
237.692	38.4
237.909	3.58
238.127	34.3
238.344	-4.61
238.562	38.4
238.779	-45.57
238.996	-6.66
239.214	17.92
239.431	34.3
239.648	-39.42
239.865	-45.57
240.083	52.74
240.3	50.69
240.517	-27.14
240.735	22.02
240.952	38.4
241.169	5.63
241.386	-4.61
241.603	87.55
241.821	-51.71
242.038	-43.52
242.255	13.82
242.472	-88.57
242.689	93.69
242.907	-6.66
243.124	30.21
243.341	-20.99
243.558	-76.29
243.775	-0.51
243.992	-6.66
244.209	108.03
244.426	67.07
244.643	5.63
244.86	-10.75
245.078	17.92
245.295	22.02
245.512	7.68
245.729	17.92
245.946	-4.61
246.163	17.92
246.38	36.35
246.597	67.07
246.814	26.11
247.031	1.54
247.248	22.02
247.464	1.54
247.681	-53.76
247.898	28.16
248.115	3.58
248.332	-10.75
248.549	-31.23
248.766	58.88
248.983	-25.09
249.2	-31.23
249.417	103.93
249.633	5.63
249.85	42.5
250.067	5.63
250.284	9.73
250.501	13.82
250.717	1.54
250.934	22.02
251.151	22.02
251.368	13.82
251.585	56.83
251.801	79.36
252.018	-18.94
252.235	54.78
252.451	-2.56
252.668	7.68
252.885	19.97
253.102	22.02
253.318	1.54
253.535	-27.14
253.752	69.12
253.968	-59.9
254.185	26.11
254.401	17.92
254.618	60.93
254.835	-4.61
255.051	3.58
255.268	26.11
255.484	7.68
255.701	17.92
255.917	77.31
256.134	-86.53
256.351	-6.66
256.567	44.54
256.784	7.68
257	-18.94
257.217	124.41
257.433	38.4
257.65	1.54
257.866	-18.94
258.082	17.92
258.299	13.82
258.515	-20.99
258.732	-39.42
258.948	28.16
259.165	60.93
259.381	22.02
259.597	22.02
259.814	-0.51
260.03	-2.56
260.246	7.68
260.463	30.21
260.679	52.74
260.895	58.88
261.112	3.58
261.328	1.54
261.544	44.54
261.761	95.74
261.977	110.08
262.193	-64
262.409	-4.61
262.626	52.74
262.842	60.93
263.058	42.5
263.274	-6.66
263.49	28.16
263.707	112.13
263.923	32.26
264.139	-6.66
264.355	5.63
264.571	5.63
264.787	-14.85
265.004	26.11
265.22	9.73
265.436	50.69
265.652	40.45
265.868	19.97
266.084	-39.42
266.3	-18.94
266.516	9.73
266.732	71.17
266.948	44.54
267.164	-6.66
267.38	24.06
267.596	-12.8
267.812	108.03
268.028	-29.18
268.244	26.11
268.46	-2.56
268.676	17.92
268.892	32.26
269.108	42.5
269.324	-51.71
269.54	-6.66
269.756	83.45
269.972	5.63
270.188	22.02
270.403	-35.33
270.619	9.73
270.835	-23.04
271.051	-4.61
271.267	-27.14
271.483	38.4
271.698	91.65
271.914	71.17
272.13	-0.51
272.346	-47.62
272.562	-2.56
272.777	85.5
272.993	-31.23
273.209	67.07
273.425	36.35
273.64	-12.8
273.856	-2.56
274.072	5.63
274.287	46.59
274.503	-4.61
274.719	75.26
274.934	91.65
275.15	-43.52
275.366	75.26
275.581	-16.9
275.797	3.58
276.012	-39.42
276.228	9.73
276.444	-18.94
276.659	11.78
276.875	11.78
277.09	52.74
277.306	-14.85
277.521	1.54
277.737	1.54
277.952	42.5
278.168	40.45
278.383	1.54
278.599	56.83
278.814	67.07
279.03	77.31
279.245	42.5
279.461	36.35
279.676	34.3
279.892	-18.94
280.107	52.74
280.322	46.59
280.538	52.74
280.753	71.17
280.969	44.54
281.184	19.97
281.399	81.41
281.615	69.12
281.83	-4.61
282.045	9.73
282.26	67.07
282.476	34.3
282.691	128.51
282.906	13.82
283.122	5.63
283.337	103.93
283.552	26.11
283.767	54.78
283.983	24.06
284.198	17.92
284.413	26.11
284.628	42.5
284.843	-35.33
285.058	-20.99
285.274	-10.75
285.489	-29.18
285.704	58.88
285.919	-4.61
286.134	28.16
286.349	-12.8
286.564	28.16
286.779	42.5
286.995	75.26
287.21	36.35
287.425	13.82
287.64	1.54
287.855	77.31
288.07	17.92
288.285	75.26
288.5	54.78
288.715	15.87
288.93	-80.38
289.145	52.74
289.36	5.63
289.575	48.64
289.79	-10.75
290.004	77.31
290.219	108.03
290.434	67.07
290.649	60.93
290.864	38.4
291.079	-2.56
291.294	-12.8
291.509	44.54
291.724	11.78
291.938	9.73
292.153	87.55
292.368	-33.28
292.583	34.3
292.798	42.5
293.012	62.98
293.227	58.88
293.442	58.88
293.657	75.26
293.871	46.59
294.086	71.17
294.301	79.36
294.516	46.59
294.73	56.83
294.945	-12.8
295.16	-14.85
295.374	44.54
295.589	7.68
295.804	26.11
296.018	19.97
296.233	-29.18
296.447	108.03
296.662	-2.56
296.877	56.83
297.091	-4.61
297.306	36.35
297.52	-6.66
297.735	58.88
297.949	1.54
298.164	46.59
298.378	34.3
298.593	-53.76
298.807	-31.23
299.022	36.35
299.236	26.11
299.451	1.54
299.665	17.92
299.88	22.02
300.094	93.69
300.309	-27.14
300.523	34.3
300.737	24.06
300.952	46.59
301.166	67.07
301.381	32.26
301.595	15.87
301.809	17.92
302.024	19.97
302.238	-86.53
302.452	3.58
302.667	17.92
302.881	46.59
303.095	103.93
303.309	-2.56
303.524	-43.52
303.738	26.11
303.952	-61.95
304.166	42.5
304.381	-68.09
304.595	34.3
304.809	73.21
305.023	38.4
305.237	-18.94
305.452	73.21
305.666	-2.56
305.88	93.69
306.094	130.56
306.308	22.02
306.522	-39.42
306.736	5.63
306.95	-39.42
307.164	71.17
307.379	-20.99
307.593	93.69
307.807	-12.8
308.021	-18.94
308.235	17.92
308.449	-39.42
308.663	32.26
308.877	11.78
309.091	62.98
309.305	3.58
309.519	73.21
309.733	103.93
309.947	-20.99
310.161	91.65
310.374	67.07
310.588	1.54
310.802	-35.33
311.016	65.02
311.23	-2.56
311.444	19.97
311.658	-49.66
311.872	17.92
312.085	103.93
312.299	108.03
312.513	11.78
312.727	22.02
312.941	-18.94
313.154	69.12
313.368	110.08
313.582	26.11
313.796	32.26
314.009	58.88
314.223	36.35
314.437	46.59
314.651	58.88
314.864	-8.7
315.078	24.06
315.292	81.41
315.505	-14.85
315.719	50.69
315.933	30.21
316.146	9.73
316.36	-68.09
316.573	11.78
316.787	50.69
317.001	-6.66
317.214	-4.61
317.428	-6.66
317.641	-51.71
317.855	50.69
318.068	11.78
318.282	-12.8
318.495	65.02
318.709	24.06
318.922	22.02
319.136	91.65
319.349	-27.14
319.563	38.4
319.776	93.69
319.99	-27.14
320.203	40.45
320.417	56.83
320.63	62.98
320.843	71.17
321.057	34.3
321.27	-12.8
321.483	13.82
321.697	56.83
321.91	38.4
322.124	-10.75
322.337	-29.18
322.55	17.92
322.763	1.54
322.977	83.45
323.19	32.26
323.403	54.78
323.617	30.21
323.83	54.78
324.043	11.78
324.256	17.92
324.469	30.21
324.683	17.92
324.896	-2.56
325.109	60.93
325.322	-8.7
325.535	22.02
325.748	93.69
325.962	-14.85
326.175	1.54
326.388	26.11
326.601	3.58
326.814	-20.99
327.027	46.59
327.24	108.03
327.453	-6.66
327.666	-51.71
327.879	11.78
328.092	85.5
328.305	42.5
328.518	-53.76
328.731	-33.28
328.944	83.45
329.157	28.16
329.37	28.16
329.583	-10.75
329.796	-2.56
330.009	19.97
330.222	15.87
330.435	-31.23
330.648	-27.14
330.861	65.02
331.073	34.3
331.286	44.54
331.499	50.69
331.712	-20.99
331.925	34.3
332.138	28.16
332.35	54.78
332.563	-25.09
332.776	87.55
332.989	17.92
333.202	-31.23
333.414	5.63
333.627	-68.09
333.84	9.73
334.053	9.73
334.265	-25.09
334.478	128.51
334.691	1.54
334.903	83.45
335.116	71.17
335.329	52.74
335.541	24.06
335.754	83.45
335.966	-14.85
336.179	3.58
336.392	-18.94
336.604	-64
336.817	-37.38
337.029	103.93
337.242	5.63
337.454	50.69
337.667	42.5
337.88	73.21
338.092	62.98
338.305	15.87
338.517	-4.61
338.729	83.45
338.942	34.3
339.154	9.73
339.367	-10.75
339.579	11.78
339.792	17.92
340.004	50.69
340.217	-14.85
340.429	9.73
340.641	-51.71
340.854	-27.14
341.066	22.02
341.278	-2.56
341.491	42.5
341.703	1.54
341.915	58.88
342.128	48.64
342.34	81.41
342.552	28.16
342.764	34.3
342.977	26.11
343.189	46.59
343.401	101.89
343.613	58.88
343.826	30.21
344.038	-23.04
344.25	9.73
344.462	65.02
344.674	38.4
344.886	26.11
345.099	32.26
345.311	17.92
345.523	28.16
345.735	-31.23
345.947	50.69
346.159	-27.14
346.371	79.36
346.583	22.02
346.795	116.22
347.007	-6.66
347.219	73.21
347.431	-6.66
347.643	75.26
347.855	1.54
348.067	67.07
348.279	-25.09
348.491	24.06
348.703	50.69
348.915	-20.99
349.127	36.35
349.339	17.92
349.551	73.21
349.763	-23.04
349.975	-2.56
350.187	30.21
350.399	93.69
350.61	-20.99
350.822	17.92
351.034	83.45
351.246	-6.66
351.458	22.02
351.669	-14.85
351.881	75.26
352.093	34.3
352.305	46.59
352.517	-8.7
352.728	97.79
352.94	99.84
353.152	30.21
353.363	-4.61
353.575	83.45
353.787	87.55
353.999	30.21
354.21	26.11
354.422	-35.33
354.633	3.58
354.845	34.3
355.057	58.88
355.268	-31.23
355.48	85.5
355.692	17.92
355.903	32.26
356.115	13.82
356.326	22.02
356.538	132.61
356.749	54.78
356.961	-4.61
357.172	42.5
357.384	52.74
357.595	62.98
357.807	28.16
358.018	36.35
358.23	67.07
358.441	110.08
358.653	34.3
358.864	56.83
359.075	19.97
359.287	110.08
359.498	38.4
359.709	13.82
359.921	36.35
360.132	46.59
360.344	34.3
360.555	54.78
360.766	19.97
360.977	38.4
361.189	32.26
361.4	65.02
361.611	36.35
361.823	44.54
362.034	50.69
362.245	1.54
362.456	28.16
362.667	32.26
362.879	19.97
363.09	54.78
363.301	34.3
363.512	75.26
363.723	11.78
363.935	-2.56
364.146	62.98
364.357	11.78
364.568	67.07
364.779	-55.81
364.99	30.21
365.201	-53.76
365.412	67.07
365.623	-8.7
365.834	-33.28
366.045	-6.66
366.256	58.88
366.467	13.82
366.678	44.54
366.889	-18.94
367.1	22.02
367.311	-12.8
367.522	36.35
367.733	-12.8
367.944	93.69
368.155	-59.9
368.366	93.69
368.577	5.63
368.788	65.02
368.999	65.02
369.209	71.17
369.42	89.6
369.631	97.79
369.842	46.59
370.053	13.82
370.264	42.5
370.474	3.58
370.685	101.89
370.896	-20.99
371.107	163.33
371.317	28.16
371.528	17.92
371.739	91.65
371.95	67.07
372.16	-18.94
372.371	-2.56
372.582	62.98
372.792	26.11
373.003	15.87
373.214	50.69
373.424	40.45
373.635	26.11
373.846	50.69
374.056	46.59
374.267	3.58
374.477	77.31
374.688	13.82
374.898	5.63
375.109	24.06
375.319	36.35
375.53	19.97
375.74	87.55
375.951	34.3
376.161	44.54
376.372	-14.85
376.582	7.68
376.793	83.45
377.003	28.16
377.214	67.07
377.424	-57.86
377.635	60.93
377.845	-49.66
378.055	46.59
378.266	26.11
378.476	56.83
378.686	110.08
378.897	77.31
379.107	26.11
379.317	79.36
379.528	30.21
379.738	-12.8
379.948	-12.8
380.158	97.79
380.369	17.92
380.579	-12.8
380.789	91.65
380.999	58.88
381.21	36.35
381.42	83.45
381.63	73.21
381.84	42.5
382.05	17.92
382.261	99.84
382.471	50.69
382.681	67.07
382.891	30.21
383.101	103.93
383.311	9.73
383.521	65.02
383.731	108.03
383.941	87.55
384.151	9.73
384.361	26.11
384.571	69.12
384.781	26.11
384.991	67.07
385.201	58.88
385.411	60.93
385.621	22.02
385.831	9.73
386.041	50.69
386.251	56.83
386.461	81.41
386.671	28.16
386.881	116.22
387.091	132.61
387.301	19.97
387.511	19.97
387.72	42.5
387.93	-23.04
388.14	58.88
388.35	50.69
388.56	83.45
388.769	36.35
388.979	50.69
389.189	114.17
389.399	42.5
389.609	46.59
389.818	62.98
390.028	15.87
390.238	62.98
390.447	30.21
390.657	32.26
390.867	42.5
391.076	1.54
391.286	34.3
391.496	22.02
391.705	3.58
391.915	120.32
392.125	58.88
392.334	3.58
392.544	71.17
392.753	77.31
392.963	32.26
393.172	93.69
393.382	17.92
393.591	34.3
393.801	26.11
394.01	118.27
394.22	79.36
394.429	83.45
394.639	46.59
394.848	83.45
395.058	103.93
395.267	3.58
395.477	67.07
395.686	67.07
395.895	103.93
396.105	144.89
396.314	9.73
396.524	101.89
396.733	60.93
396.942	67.07
397.152	181.76
397.361	85.5
397.57	132.61
397.78	62.98
397.989	42.5
398.198	85.5
398.407	42.5
398.617	52.74
398.826	42.5
399.035	97.79
399.244	128.51
399.453	83.45
399.663	73.21
399.872	77.31
400.081	42.5
400.29	108.03
400.499	54.78
400.708	75.26
400.917	60.93
401.127	62.98
401.336	97.79
401.545	165.37
401.754	112.13
401.963	167.42
402.172	52.74
402.381	28.16
402.59	97.79
402.799	62.98
403.008	91.65
403.217	110.08
403.426	101.89
403.635	67.07
403.844	79.36
404.053	83.45
404.262	71.17
404.471	239.1
404.68	93.69
404.888	69.12
405.097	97.79
405.306	103.93
405.515	157.18
405.724	105.98
405.933	132.61
406.142	136.7
406.35	112.13
406.559	198.14
406.768	122.37
406.977	183.81
407.185	136.7
407.394	212.48
407.603	128.51
407.812	194.05
408.02	136.7
408.229	161.28
408.438	153.09
408.646	173.57
408.855	208.38
409.064	177.66
409.272	210.43
409.481	239.1
409.69	228.86
409.898	275.96
410.107	241.15
410.315	280.06
410.524	284.16
410.733	325.12
410.941	230.91
411.15	222.72
411.358	331.26
411.567	298.49
411.775	370.17
411.984	288.25
412.192	355.83
412.401	435.71
412.609	452.09
412.818	415.23
413.026	419.32
413.234	427.51
413.443	398.84
413.651	513.53
413.86	488.95
414.068	527.86
414.276	536.06
414.485	536.06
414.693	493.05
414.901	693.75
415.11	615.93
415.318	574.97
415.526	648.69
415.734	632.31
415.943	620.02
416.151	642.55
416.359	620.02
416.567	697.85
416.776	755.19
416.984	779.76
417.192	806.39
417.4	724.47
417.608	857.59
417.817	929.27
418.025	919.03
418.233	1064.43
418.441	880.11
418.649	998.9
418.857	1072.62
419.065	1068.53
419.273	1111.54
419.481	1226.22
419.689	1164.78
419.897	1181.17
420.105	1207.79
420.313	1248.75
420.521	1394.15
420.729	1353.2
420.937	1418.73
421.145	1474.03
421.353	1531.37
421.561	1500.65
421.769	1687.01
421.977	1670.63
422.185	1621.48
422.393	1826.28
422.601	1934.82
422.809	1947.11
423.017	1816.04
423.224	1910.24
423.432	2082.27
423.64	2018.79
423.848	2254.3
424.056	2098.66
424.263	2362.84
424.471	2313.69
424.679	2368.99
424.887	2409.95
425.094	2530.78
425.302	2674.14
425.51	2661.85
425.718	2926.04
425.925	2819.54
426.133	3012.05
426.341	3124.69
426.548	3247.57
426.756	3132.88
426.964	3247.57
427.171	3311.05
427.379	3521.99
427.586	3589.58
427.794	3808.71
428.001	3911.11
428.209	3982.79
428.417	4031.94
428.624	4206.02
428.832	4203.97
429.039	4187.58
429.247	4144.58
429.454	4556.22
429.662	5027.25
429.869	4527.55
430.076	5039.54
430.284	4761.02
430.491	5053.87
430.699	5414.32
430.906	5281.2
431.114	5393.84
431.321	5567.92
431.528	5582.25
431.736	6030.76
431.943	6344.1
432.15	6102.43
432.358	6180.26
432.565	6555.04
432.772	6364.57
432.979	6808.98
433.187	6884.76
433.394	6911.38
433.601	7423.37
433.808	7673.23
434.016	7251.35
434.223	7654.8
434.43	8324.48
434.637	8058.25
434.844	8676.73
435.052	8553.85
435.259	8492.41
435.466	8695.16
435.673	8512.89
435.88	9278.83
436.087	9768.3
436.294	9807.21
436.501	9446.77
436.708	9571.69
436.915	9823.59
437.122	10311.01
437.329	10450.27
437.537	10612.06
437.743	10853.72
437.95	10659.17
438.157	11316.56
438.364	11799.88
438.571	11855.18
438.778	11789.64
438.985	12946.75
439.192	12281.16
439.399	12508.48
439.606	12406.08
439.813	12922.17
440.02	13927.72
440.227	13612.34
440.433	13618.48
440.64	13976.87
440.847	14019.88
441.054	14300.45
441.261	15037.72
441.467	14947.61
441.674	15443.22
441.881	15861.01
442.088	15746.32
442.294	15664.4
442.501	15918.35
442.708	16329.99
442.914	16991.48
443.121	17933.55
443.328	17304.82
443.534	18509.03
443.741	17851.63
443.948	17509.62
444.154	18969.82
444.361	18988.25
444.568	19131.61
444.774	19082.46
444.981	19287.26
445.187	19559.64
445.394	20282.57
445.6	20329.67
445.807	22432.94
446.013	21486.78
446.22	21650.61
446.426	22539.43
446.633	22762.66
446.839	23342.24
447.046	22527.14
447.252	24042.64
447.459	23880.85
447.665	23710.87
447.871	24968.32
448.078	25875.57
448.284	24736.9
448.491	25527.42
448.697	26018.93
448.903	26762.34
449.11	27221.09
449.316	26651.75
449.522	26967.14
449.728	27651.16
449.935	27835.48
450.141	28077.14
450.347	28560.46
450.553	27810.9
450.76	28228.69
450.966	29013.06
451.172	28499.02
451.378	29604.92
451.584	28740.68
451.791	29688.89
451.997	29389.89
452.203	29883.45
452.409	29926.46
452.615	29639.74
452.821	28707.91
453.027	28658.76
453.233	29854.78
453.44	29047.88
453.646	29260.87
453.852	29324.35
454.058	29948.98
454.264	29117.51
454.47	29639.74
454.676	28828.74
454.882	29887.54
455.088	27264.1
455.294	27794.52
455.5	28464.21
455.705	28349.52
455.911	27450.46
456.117	26885.22
456.323	26336.37
456.529	25193.6
456.735	26596.46
456.941	25371.77
457.147	25334.91
457.352	24671.37
457.558	23958.67
457.764	24415.37
457.97	23544.98
458.176	23301.28
458.381	23323.8
458.587	22054.06
458.793	22070.45
458.999	21036.22
459.204	22498.47
459.41	21992.62
459.616	20405.45
459.821	20612.29
460.027	20593.86
460.233	20266.19
460.438	19248.35
460.644	19406.04
460.85	18476.26
461.055	18275.56
461.261	18134.25
461.466	16696.58
461.672	16164.11
461.878	17331.45
462.083	16090.38
462.289	16059.66
462.494	15678.74
462.7	15168.79
462.905	14658.85
463.111	15385.88
463.316	15394.07
463.522	15033.63
463.727	14923.04
463.932	15148.31
464.138	14824.73
464.343	14730.53
464.549	14515.49
464.754	14673.18
464.959	14662.94
465.165	14454.05
465.37	14028.07
465.575	13561.14
465.781	14116.14
465.986	14339.37
466.191	13903.15
466.397	13503.79
466.602	12696.89
466.807	13233.46
467.012	13313.33
467.218	13239.61
467.423	13307.19
467.628	13255.99
467.833	13491.51
468.038	13129.02
468.244	12897.6
468.449	13352.24
468.654	12844.35
468.859	12797.24
469.064	13057.34
469.269	12232.01
469.474	12612.93
469.679	12748.09
469.885	12152.13
470.09	12588.35
470.295	12401.99
470.5	12014.92
470.705	12143.94
470.91	11984.2
471.115	11785.55
471.32	11900.23
471.525	11926.86
471.73	11547.98
471.935	11568.46
472.139	11029.85
472.344	11478.35
472.549	11291.99
472.754	11208.02
472.959	10972.5
473.164	10628.45
473.369	10620.25
473.574	10913.11
473.778	10644.83
473.983	10790.24
474.188	10827.1
474.393	10261.86
474.598	10243.43
474.802	10233.19
475.007	10220.9
475.212	9948.52
475.417	9694.57
475.621	9876.84
475.826	9835.88
476.031	9569.65
476.235	9276.79
476.44	9522.54
476.645	9217.4
476.849	9180.53
477.054	9264.5
477.259	9084.28
477.463	9094.52
477.668	9000.31
477.872	9160.05
478.077	8873.34
478.282	8639.87
478.486	8562.05
478.691	8498.56
478.895	8586.62
479.1	8365.44
479.304	8414.59
479.509	8265.09
479.713	8324.48
479.918	8275.33
480.122	7933.32
480.326	8209.79
480.531	8113.54
480.735	8172.93
480.94	8136.07
481.144	8269.19
481.348	7804.3
481.553	8050.05
481.757	7718.28
481.961	7921.03
482.166	8011.14
482.37	7972.23
482.574	7662.99
482.778	7746.95
482.983	7896.46
483.187	7927.18
483.391	7861.64
483.595	7742.86
483.8	7787.91
484.004	7869.83
484.208	7980.42
484.412	7693.71
484.616	7951.75
484.821	7824.78
485.025	7720.33
485.229	7931.27
485.433	7654.8
485.637	7800.2
485.841	7632.27
486.045	7867.78
486.249	7912.84
486.453	7720.33
486.657	7816.58
486.861	7689.61
487.065	7701.9
487.269	7998.85
487.473	7695.75
487.677	7679.37
487.881	7949.7
488.085	7732.62
488.289	7890.31
488.493	7693.71
488.697	7853.45
488.901	7742.86
489.105	7734.67
489.309	8121.73
489.512	8029.57
489.716	7857.54
489.92	8011.14
490.124	7890.31
490.328	8068.48
490.531	7847.3
490.735	8045.96
490.939	8093.06
491.143	7906.7
491.346	8072.58
491.55	8152.45
491.754	8164.74
491.958	8193.41
492.161	8263.04
492.365	8373.63
492.569	8238.47
492.772	8271.23
492.976	8512.89
493.18	8359.3
493.383	8488.32
493.587	8539.52
493.79	8623.48
493.994	8613.24
494.197	8625.53
494.401	8772.99
494.605	8770.94
494.808	8785.27
495.012	8717.69
495.215	8766.84
495.419	8924.54
495.622	8934.78
495.825	9006.45
496.029	9022.84
496.232	9381.23
496.436	9252.21
496.639	9545.07
496.843	9526.64
497.046	9655.66
497.249	9799.02
497.453	9704.81
497.656	9651.56
497.859	9975.14
498.063	10184.04
498.266	10237.28
498.469	9973.1
498.673	10155.37
498.876	10573.15
499.079	10384.74
499.282	10562.91
499.485	11033.94
499.689	10888.54
499.892	10927.45
500.095	10786.14
500.298	11277.65
500.501	11011.42
500.705	11406.67
500.908	11695.44
501.111	11607.37
501.314	11818.32
501.517	11996.49
501.72	12240.2
501.923	12143.94
502.126	12494.15
502.329	12387.65
502.532	12723.52
502.735	12463.43
502.938	12821.82
503.141	12944.7
503.344	13352.24
503.547	13378.87
503.75	13411.64
503.953	13684.02
504.156	13823.28
504.359	14120.23
504.562	14093.61
504.765	14214.44
504.968	14447.91
505.17	14705.95
505.373	14726.43
505.576	14910.75
505.779	15025.43
505.982	15111.45
506.185	15285.53
506.387	15535.38
506.59	15596.82
506.793	15799.57
506.996	15641.87
507.198	16284.94
507.401	16342.28
507.604	16213.26
507.807	16471.3
508.009	16567.56
508.212	16721.15
508.415	17200.38
508.617	17368.31
508.82	17464.57
509.022	17345.78
509.225	17882.35
509.428	17945.84
509.63	18144.49
509.833	17872.11
510.035	18611.43
510.238	18773.22
510.44	18779.36
510.643	18883.81
510.845	19369.18
511.048	19113.18
511.25	19743.95
511.453	19522.77
511.655	20057.29
511.858	19958.99
512.06	20178.12
512.262	20448.46
512.465	20692.16
512.667	20993.22
512.87	20894.91
513.072	21093.57
513.274	21611.7
513.477	21800.12
513.679	21775.54
513.881	22097.07
514.084	22322.35
514.286	22543.53
514.488	22305.96
514.69	23260.32
514.893	22901.92
515.095	23110.82
515.297	23598.23
515.499	23577.75
515.701	24054.93
515.904	24087.7
516.106	24341.64
516.308	24507.53
516.51	25080.96
516.712	24700.04
516.914	25072.77
517.116	25631.86
517.318	25255.04
517.52	25631.86
517.722	25851
517.925	26201.2
518.127	26621.03
518.329	26602.6
518.531	26874.98
518.733	27411.55
518.935	27509.85
519.136	27389.02
519.338	27722.84
519.54	27728.98
519.742	28054.61
519.944	28410.96
520.146	28499.02
520.348	28853.32
520.55	28980.29
520.752	29011.01
520.954	29654.08
521.155	29488.19
521.357	30010.42
521.559	30061.62
521.761	30542.89
521.963	30319.67
522.164	30489.65
522.366	30815.27
522.568	31233.06
522.77	31239.2
522.971	31484.96
523.173	31089.7
523.375	31566.88
523.576	31921.18
523.778	31951.9
523.98	32314.39
524.181	32123.93
524.383	32672.78
524.584	32683.02
524.786	33221.64
524.988	32857.1
525.189	32926.73
525.391	33422.34
525.592	33293.32
525.794	33604.61
525.995	33608.7
526.197	33836.03
526.398	34063.35
526.6	33856.51
526.801	34012.15
527.003	34108.41
527.204	34450.42
527.406	34673.65
527.607	34749.42
527.808	34739.18
528.01	34569.2
528.211	34792.43
528.412	35505.12
528.614	35134.44
528.815	35310.57
529.016	35671.01
529.218	35070.95
529.419	35159.02
529.62	35664.86
529.822	35445.73
530.023	35615.71
530.224	35537.89
530.425	35582.95
530.626	35341.28
530.828	35574.75
531.029	36342.74
531.23	35771.36
531.431	36258.77
531.632	36135.9
531.833	36287.45
532.035	36340.69
532.236	36096.99
532.437	35963.87
532.638	36230.1
532.839	36721.62
533.04	36266.97
533.241	35982.3
533.442	36705.23
533.643	36398.04
533.844	36533.2
534.045	36076.51
534.246	35728.35
534.447	36400.08
534.648	36746.19
534.849	36402.13
535.05	35984.35
535.251	36570.07
535.451	36594.64
535.652	36834.25
535.853	36316.12
536.054	36457.43
536.255	36862.93
536.456	36377.56
536.657	36946.89
536.857	36410.32
537.058	36318.17
537.259	36596.69
537.46	36527.06
537.66	36271.06
537.861	36379.6
538.062	36439
538.263	36772.81
538.463	36518.87
538.664	36375.51
538.865	36172.76
539.065	36649.94
539.266	35974.11
539.466	36748.24
539.667	35697.63
539.868	37114.83
540.068	36322.26
540.269	36049.88
540.469	36580.31
540.67	36271.06
540.87	35994.59
541.071	36416.47
541.271	36553.68
541.472	36463.57
541.672	35943.39
541.873	35759.07
542.073	35924.96
542.274	36492.24
542.474	35951.58
542.675	36015.07
542.875	36424.66
543.075	35994.59
543.276	35730.4
543.476	36322.26
543.676	36076.51
543.877	36209.62
544.077	36066.27
544.277	35881.95
544.478	36037.59
544.678	36346.84
544.878	36324.31
545.078	35869.66
545.279	35861.47
545.479	35924.96
545.679	36322.26
545.879	35951.58
546.079	35933.15
546.28	35658.72
546.48	35539.94
546.68	36240.34
546.88	36226.01
547.08	35566.56
547.28	36060.12
547.48	35617.76
547.68	35728.35
547.88	35335.14
548.081	35746.78
548.281	36096.99
548.481	35621.86
548.681	35998.68
548.881	35853.28
549.081	36010.97
549.28	35613.66
549.48	36105.18
549.68	35625.95
549.88	36176.86
550.08	35957.72
550.28	35769.31
550.48	35613.66
550.68	35886.04
550.88	35591.14
551.08	35464.16
551.279	35767.26
551.479	35312.61
551.679	35496.93
551.879	35441.64
552.079	35857.37
552.278	35642.34
552.478	35275.75
552.678	35736.54
552.878	36113.37
553.077	35566.56
553.277	35302.37
553.477	36105.18
553.676	35757.02
553.876	35304.42
554.076	35220.45
554.275	35261.41
554.475	34888.68
554.674	35232.74
554.874	35572.71
555.074	35355.62
555.273	35261.41
555.473	35265.51
555.672	34743.28
555.872	35015.66
556.071	35173.35
556.271	35339.24
556.47	35154.92
556.67	34722.8
556.869	35048.43
557.068	35087.34
557.268	34739.18
557.467	34976.75
557.667	35159.02
557.866	34657.26
558.065	34663.41
558.265	34360.31
558.464	34673.65
558.663	34991.08
558.863	34513.91
559.062	35257.32
559.261	34954.22
559.461	34800.62
559.66	34046.97
559.859	34386.93
560.058	33870.84
560.258	34165.75
560.457	34075.64
560.656	34323.44
560.855	34059.26
561.054	34175.99
561.253	34003.96
561.453	33866.75
561.652	33995.77
561.851	34022.39
562.05	33983.48
562.249	33635.33
562.448	34100.22
562.647	33954.81
562.846	33938.43
563.045	33881.08
563.244	33268.74
563.443	34059.26
563.642	33211.4
563.841	33387.52
564.04	33238.02
564.239	33575.94
564.438	33344.52
564.637	33494.02
564.836	33424.39
565.035	33203.21
565.234	33467.39
565.432	32732.17
565.631	32916.49
565.83	33029.13
566.029	32672.78
566.228	32740.36
566.427	32785.42
566.625	32885.77
566.824	32248.85
567.023	33027.08
567.222	32476.18
567.42	32736.27
567.619	32541.71
567.818	32379.92
568.016	32316.43
568.215	32295.96
568.414	32263.19
568.612	32420.88
568.811	32447.5
569.01	32465.94
569.208	31640.61
569.407	32228.37
569.605	31714.33
569.804	32013.34
570.002	31487.01
570.201	31816.73
570.4	31212.58
570.598	31507.49
570.797	31425.57
570.995	31620.13
571.193	31235.11
571.392	31212.58
571.59	30663.72
571.789	31208.48
571.987	31022.12
572.186	31157.28
572.384	30997.54
572.582	30850.09
572.781	30743.59
572.979	30319.67
573.177	30645.29
573.376	30653.48
573.574	30223.41
573.772	30569.52
573.971	30147.64
574.169	30190.64
574.367	30139.44
574.565	30454.83
574.763	30153.78
574.962	30067.77
575.16	29934.65
575.358	30301.23
575.556	29615.16
575.754	29744.19
575.952	29774.91
576.151	29703.23
576.349	29561.92
576.547	29482.05
576.745	29557.82
576.943	29254.72
577.141	29305.92
577.339	29152.32
577.537	29039.68
577.735	29111.36
577.933	28767.31
578.131	28914.76
578.329	28800.07
578.527	28988.49
578.725	28965.96
578.923	28619.85
579.121	28413.01
579.319	28566.6
579.516	28474.45
579.714	28445.77
579.912	28109.91
580.11	28099.67
580.308	28271.7
580.506	28152.91
580.704	27851.86
580.901	27933.78
581.099	27792.47
581.297	27688.03
581.495	27655.26
581.692	27651.16
581.89	27241.57
582.088	28023.89
582.285	27346.01
582.483	27602.01
582.681	27305.06
582.878	27499.61
583.076	27024.48
583.274	27245.66
583.471	26805.35
583.669	27024.48
583.866	26674.28
584.064	26666.09
584.262	26586.22
584.459	26801.26
584.657	26317.93
584.854	26977.38
585.052	26168.43
585.249	26592.36
585.447	26567.79
585.644	25914.48
585.841	26455.15
586.039	26563.69
586.236	25828.47
586.434	26016.88
586.631	26047.6
586.828	25928.82
587.026	25676.92
587.223	25662.58
587.42	25717.88
587.618	25818.23
587.815	25361.53
588.012	25349.25
588.21	25128.06
588.407	25715.83
588.604	25375.87
588.801	24933.51
588.999	25209.98
589.196	25058.43
589.393	25146.5
589.59	24790.15
589.787	24880.26
589.984	25011.33
590.182	24671.37
590.379	24808.58
590.576	24667.27
590.773	24325.26
590.97	24442
591.167	24491.15
591.364	23944.34
591.561	24382.6
591.758	24028.31
591.955	24093.84
592.152	24267.92
592.349	23909.52
592.546	23762.07
592.743	23987.35
592.94	23221.41
593.137	23835.8
593.334	23800.98
593.531	23346.33
593.727	23610.52
593.924	23694.49
594.121	23315.61
594.318	23366.81
594.515	22799.52
594.712	23309.47
594.908	22725.8
595.105	23176.35
595.302	22899.87
595.499	23043.23
595.696	22707.37
595.892	22647.97
596.089	23020.7
596.286	22473.9
596.482	22527.14
596.679	22418.6
596.876	22629.54
597.072	22717.61
597.269	22455.47
597.466	22115.5
597.662	22285.48
597.859	22041.78
598.055	22017.2
598.252	21892.27
598.448	21867.7
598.645	21898.42
598.841	21789.88
599.038	21738.68
599.234	21724.34
599.431	21533.88
599.627	21228.73
599.824	21464.25
600.02	21275.84
600.217	21499.06
600.413	21243.07
600.609	21068.99
600.806	21140.67
601.002	21294.27
601.198	20960.45
601.395	20939.97
601.591	20905.15
601.787	20712.64
601.984	20653.25
602.18	20923.58
602.376	20624.58
602.572	20712.64
602.769	20751.56
602.965	20587.72
603.161	20321.48
603.357	20040.91
603.553	20393.16
603.75	20317.39
603.946	20249.8
604.142	20049.1
604.338	20006.09
604.534	20081.87
604.73	20004.05
604.926	20045.01
605.122	19778.77
605.318	19717.33
605.514	19887.31
605.71	19819.73
605.906	19664.08
606.102	19451.1
606.298	19688.66
606.494	19477.72
606.69	19426.52
606.886	19401.94
607.082	19137.76
607.278	19053.79
607.474	19113.18
607.67	19344.6
607.866	18949.34
608.062	19207.39
608.257	19033.31
608.453	18812.13
608.649	18908.38
608.845	19121.37
609.041	18769.12
609.236	18793.7
609.432	18638.05
609.628	18726.11
609.824	18699.49
610.019	18515.17
610.215	18709.73
610.411	18734.31
610.606	18453.73
610.802	18523.37
610.998	18472.17
611.193	18576.61
611.389	18478.31
611.584	18502.89
611.78	18425.06
611.976	18144.49
612.171	18539.75
612.367	18220.27
612.562	17968.37
612.758	17919.21
612.953	17939.69
613.149	18232.55
613.344	18019.57
613.539	18173.16
613.735	18246.89
613.93	17859.82
614.126	17980.65
614.321	17882.35
614.517	17876.21
614.712	17812.72
614.907	17630.45
615.103	17710.32
615.298	17718.51
615.493	17624.31
615.688	17560.82
615.884	17911.02
616.079	17517.81
616.274	17542.39
616.47	17562.87
616.665	17661.17
616.86	17376.5
617.055	17374.45
617.25	17190.14
617.445	17255.67
617.641	17134.84
617.836	17362.17
618.031	17026.3
618.226	17130.75
618.421	17022.2
618.616	16913.66
618.811	16807.17
619.006	17159.42
619.201	16493.83
619.396	16688.39
619.591	16381.19
619.786	16526.6
619.981	16612.61
620.176	16702.72
620.371	16237.83
620.566	16194.82
620.761	16377.09
620.956	16184.59
621.151	16125.19
621.346	16016.65
621.541	15631.63
621.735	16004.36
621.93	15656.21
622.125	15643.92
622.32	15449.36
622.515	15428.88
622.709	15568.15
622.904	15336.73
623.099	15250.71
623.294	15351.06
623.488	15215.9
623.683	15158.55
623.878	15099.16
624.072	14986.52
624.267	15043.87
624.462	14832.93
624.656	14322.98
624.851	14576.93
625.046	14615.84
625.24	14693.66
625.435	14533.92
625.629	14370.08
625.824	14204.2
626.018	14296.36
626.213	13837.61
626.407	13952.3
626.602	13810.99
626.796	13831.47
626.991	13821.23
627.185	13395.25
627.38	13817.13
627.574	13604.14
627.768	13534.51
627.963	13276.47
628.157	13485.36
628.352	13432.12
628.546	12977.47
628.74	13192.5
628.935	12959.03
629.129	13043
629.323	12942.65
629.517	12801.34
629.712	12952.89
629.906	12854.59
630.1	12561.73
630.294	12567.87
630.489	12551.49
630.683	12776.77
630.877	12488
631.071	12420.42
631.265	12397.89
631.459	12182.85
631.653	12074.31
631.848	12059.98
632.042	11896.14
632.236	11922.76
632.43	11922.76
632.624	12027.21
632.818	11814.22
633.012	11683.15
633.206	11638.09
633.4	11715.92
633.594	11459.92
633.788	11519.31
633.982	11564.37
634.176	11287.89
634.369	11406.67
634.563	11095.38
634.757	11220.31
634.951	11316.56
635.145	11130.2
635.339	11117.91
635.533	11011.42
635.726	11011.42
635.92	10712.41
636.114	10892.63
636.308	10947.93
636.501	10855.77
636.695	10726.75
636.889	10433.89
637.083	10712.41
637.276	10448.22
637.47	10470.75
637.664	10270.05
637.857	10429.79
638.051	10233.19
638.244	10095.97
638.438	10102.12
638.632	10261.86
638.825	9909.61
639.019	9964.9
639.212	9909.61
639.406	9835.88
639.599	9616.75
639.793	9868.65
639.986	9545.07
640.18	9799.02
640.373	9790.83
640.567	9502.06
640.76	9590.13
640.954	9356.66
641.147	9536.88
641.34	9340.27
641.534	9467.25
641.727	9323.89
641.92	9235.83
642.114	9201.01
642.307	9274.74
642.5	8969.59
642.694	8754.55
642.887	9057.65
643.08	8840.57
643.273	8981.88
643.467	9047.41
643.66	8965.5
643.853	8672.64
644.046	8580.48
644.239	8672.64
644.432	8744.31
644.626	8598.91
644.819	8398.21
645.012	8533.37
645.205	8480.13
645.398	8457.6
645.591	8422.78
645.784	8306.05
645.977	8224.13
646.17	8267.14
646.363	8142.21
646.556	7906.7
646.749	8064.39
646.942	8080.77
647.135	8105.35
647.328	7884.17
647.521	7896.46
647.714	7857.54
647.907	7804.3
648.099	7687.56
648.292	7792.01
648.485	7794.06
648.678	7581.07
648.871	7687.56
649.064	7460.24
649.256	7529.87
649.449	7382.42
649.642	7501.2
649.835	7497.1
650.027	7183.76
650.22	7433.61
650.413	7331.22
650.605	7411.09
650.798	7300.5
650.991	7089.56
651.183	7159.19
651.376	7034.26
651.568	7087.51
651.761	7046.55
651.954	7085.46
652.146	6935.96
652.339	6999.45
652.531	6813.08
652.724	6862.23
652.916	6686.11
653.109	6792.6
653.301	6657.43
653.494	6698.39
653.686	6458.78
653.879	6682.01
654.071	6704.54
654.263	6532.51
654.456	6458.78
654.648	6628.76
654.84	6264.22
655.033	6423.97
655.225	6292.9
655.417	6342.05
655.61	6288.8
655.802	6307.23
655.994	6260.13
656.186	6239.65
656.379	6247.84
656.571	6278.56
656.763	6100.39
656.955	6172.07
657.148	6116.77
657.34	5989.8
657.532	5809.58
657.724	6032.8
657.916	5989.8
658.108	5957.03
658.3	6038.95
658.492	5889.45
658.684	5703.08
658.876	5631.4
659.068	5739.94
659.26	5830.06
659.452	5660.07
659.644	5766.57
659.836	5662.12
660.028	5621.16
660.22	5559.72
660.412	5590.44
660.604	5422.51
660.796	5344.69
660.988	5522.86
661.18	5375.41
661.372	5344.69
661.563	5416.37
661.755	5236.14
661.947	5182.9
662.139	5316.01
662.331	5211.57
662.522	5127.6
662.714	5307.82
662.906	5178.8
663.097	5117.36
663.289	5074.35
663.481	5064.11
663.673	5019.06
663.864	4990.39
664.056	5014.96
664.247	5096.88
664.439	4769.21
664.631	5057.97
664.822	4806.07
665.014	4914.61
665.205	4916.66
665.397	4777.4
665.588	4851.13
665.78	4556.22
665.971	4754.87
666.163	4842.93
666.354	4582.84
666.546	4666.81
666.737	4652.47
666.929	4527.55
667.12	4537.79
667.311	4500.92
667.503	4400.57
667.694	4648.38
667.885	4703.67
668.077	4552.12
668.268	4427.2
668.459	4646.33
668.651	4292.03
668.842	4494.78
669.033	4388.29
669.224	4330.94
669.416	4396.48
669.607	4287.93
669.798	4287.93
669.989	4500.92
670.18	4105.67
670.371	4369.85
670.563	4197.82
670.754	4232.64
670.945	4222.4
671.136	4220.35
671.327	4214.21
671.518	4251.07
671.709	4122.05
671.9	4169.15
672.091	4111.81
672.282	4027.84
672.473	4214.21
672.664	4007.36
672.855	4007.36
673.046	4158.91
673.237	4138.43
673.428	3937.73
673.619	4195.78
673.809	4007.36
674	3921.35
674.191	3945.92
674.382	3913.16
674.573	3978.69
674.764	4021.7
674.954	4023.75
675.145	3943.88
675.336	3870.15
675.527	3868.1
675.717	3939.78
675.908	3794.37
676.099	3749.32
676.289	3823.05
676.48	3841.48
676.671	3728.84
676.861	3601.87
677.052	3818.95
677.243	3737.03
677.433	3835.33
677.624	3734.98
677.814	3638.73
678.005	3681.74
678.195	3585.48
678.386	3614.15
678.576	3630.54
678.767	3435.98
678.957	3708.36
679.148	3556.81
679.338	3687.88
679.529	3515.85
679.719	3532.23
679.909	3626.44
680.1	3667.4
680.29	3528.14
680.481	3671.5
680.671	3556.81
680.861	3429.84
681.052	3554.76
681.242	3532.23
681.432	3454.41
681.622	3438.03
681.813	3565
682.003	3515.85
682.193	3511.75
682.383	3540.43
682.573	3532.23
682.764	3483.08
682.954	3497.42
683.144	3624.39
683.334	3499.47
683.524	3419.6
683.714	3472.84
683.904	3505.61
684.094	3384.78
684.284	3370.44
684.474	3456.46
684.664	3565
684.854	3409.36
685.044	3481.03
685.234	3472.84
685.424	3442.12
685.614	3339.73
685.804	3327.44
685.994	3220.94
686.184	3266
686.374	3335.63
686.564	3296.72
686.753	3347.92
686.943	3206.61
687.133	3163.6
687.323	3167.7
687.513	3200.46
687.702	3147.22
687.892	3192.27
688.082	3216.85
688.272	3130.83
688.461	3114.45
688.651	3235.28
688.841	3100.11
689.03	3153.36
689.22	3106.26
689.41	3022.29
689.599	3059.15
689.789	3229.13
689.979	3089.87
690.168	3034.58
690.358	3136.98
690.547	3112.4
690.737	3003.86
690.926	2993.62
691.116	2919.89
691.305	2960.85
691.495	2946.52
691.684	2794.97
691.874	2969.04
692.063	2936.28
692.252	2936.28
692.442	2989.52
692.631	2770.39
692.82	2874.84
693.01	2797.01
693.199	2876.88
693.388	2770.39
693.578	2823.64
693.767	2840.02
693.956	2749.91
694.146	2780.63
694.335	2745.81
694.524	2807.25
694.713	2729.43
694.902	2561.5
695.092	2698.71
695.281	2756.05
695.47	2633.18
695.659	2629.08
695.848	2608.6
696.037	2528.73
696.226	2655.7
696.415	2674.14
696.604	2594.26
696.793	2784.73
696.982	2598.36
697.171	2737.62
697.36	2631.13
697.549	2649.56
697.738	2573.78
697.927	2569.69
698.116	2565.59
698.305	2547.16
698.494	2561.5
698.683	2561.5
698.872	2584.02
699.061	2467.29
699.25	2500.06
699.438	2477.53
699.627	2495.96
699.816	2481.63
700.005	2455
700.193	2575.83
700.382	2557.4
700.571	2481.63
700.76	2590.17
700.948	2450.91
701.137	2485.72
701.326	2371.04
701.514	2538.97
701.703	2487.77
701.892	2469.34
702.08	2557.4
702.269	2385.37
702.457	2475.48
702.646	2362.84
702.834	2407.9
703.023	2428.38
703.212	2500.06
703.4	2377.18
703.589	2352.6
703.777	2477.53
703.965	2289.12
704.154	2352.6
704.342	2387.42
704.531	2250.21
704.719	2311.64
704.907	2377.18
705.096	2313.69
705.284	2368.99
705.472	2254.3
705.661	2305.5
705.849	2448.86
706.037	2469.34
706.226	2424.28
706.414	2336.22
706.602	2362.84
706.79	2319.84
706.979	2368.99
707.167	2354.65
707.355	2336.22
707.543	2336.22
707.731	2274.78
707.919	2360.8
708.107	2297.31
708.296	2377.18
708.484	2354.65
708.672	2215.39
708.86	2371.04
709.048	2393.56
709.236	2295.26
709.424	2465.24
709.612	2315.74
709.8	2256.35
709.988	2242.01
710.176	2303.45
710.364	2340.32
710.551	2168.29
710.739	2209.25
710.927	2149.86
711.115	2307.55
711.303	2305.5
711.491	2328.03
711.679	2291.17
711.866	2176.48
712.054	2358.75
712.242	2303.45
712.43	2252.25
712.617	2135.52
712.805	2330.08
712.993	2258.4
713.181	2225.63
713.368	2276.83
713.556	2328.03
713.744	2242.01
713.931	2473.43
714.119	2371.04
714.306	2317.79
714.494	2237.92
714.682	2319.84
714.869	2295.26
715.057	2311.64
715.244	2205.15
715.432	2289.12
715.619	2258.4
715.807	2233.82
715.994	2221.53
716.182	2266.59
716.369	2280.93
716.556	2158.05
716.744	2239.97
716.931	2248.16
717.119	2311.64
717.306	2190.81
717.493	2246.11
717.681	2295.26
717.868	2098.66
718.055	2354.65
718.242	2246.11
718.43	2373.08
718.617	2147.81
718.804	2215.39
718.991	2244.06
719.179	2196.96
719.366	2272.73
719.553	2209.25
719.74	2168.29
719.927	2246.11
720.114	2160.1
720.301	2246.11
720.488	2209.25
720.676	2199.01
720.863	2168.29
721.05	2262.49
721.237	2133.47
721.424	2282.97
721.611	2180.57
721.798	2237.92
721.985	2209.25
722.172	2147.81
722.358	2182.62
722.545	2199.01
722.732	2278.88
722.919	2313.69
723.106	2268.64
723.293	2133.47
723.48	2186.72
723.667	2217.44
723.853	2205.15
724.04	2172.38
724.227	2272.73
724.414	2172.38
724.6	2366.94
724.787	2270.69
724.974	2319.84
725.161	2172.38
725.347	2221.53
725.534	2203.1
725.72	2205.15
725.907	2237.92
726.094	2233.82
726.28	2188.77
726.467	2328.03
726.653	2088.42
726.84	2321.88
727.027	2305.5
727.213	2184.67
727.4	2237.92
727.586	2242.01
727.773	2156
727.959	2139.62
728.145	2207.2
728.332	2239.97
728.518	2272.73
728.705	2156
728.891	2168.29
729.077	2252.25
729.264	2205.15
729.45	2274.78
729.636	2266.59
729.823	2178.53
730.009	2287.07
730.195	2237.92
730.382	2237.92
730.568	2196.96
730.754	2131.42
730.94	2102.75
731.126	2295.26
731.313	2258.4
731.499	2180.57
731.685	2280.93
731.871	2280.93
732.057	2164.19
732.243	2221.53
732.429	2315.74
732.615	2328.03
732.801	2299.36
732.987	2188.77
733.173	2315.74
733.359	2199.01
733.545	2272.73
733.731	2151.9
733.917	2213.34
734.103	2203.1
734.289	2332.12
734.475	2119.14
734.661	2330.08
734.847	2229.73
735.033	2139.62
735.219	2237.92
735.404	2172.38
735.59	2229.73
735.776	2205.15
735.962	2295.26
736.148	2264.54
736.333	2274.78
736.519	2123.23
736.705	2164.19
736.89	2188.77
737.076	2225.63
737.262	2106.85
737.447	2172.38
737.633	2180.57
737.819	2151.9
738.004	2108.9
738.19	2164.19
738.375	2149.86
738.561	2262.49
738.747	2221.53
738.932	2250.21
739.118	2108.9
739.303	2196.96
739.489	2229.73
739.674	2123.23
739.859	2143.71
740.045	2174.43
740.23	2088.42
740.416	2043.36
740.601	2188.77
740.786	2184.67
740.972	2172.38
741.157	2217.44
741.342	2102.75
741.528	2012.64
741.713	2180.57
741.898	2100.7
742.084	2076.13
742.269	2205.15
742.454	2016.74
742.639	2100.7
742.824	2018.79
743.01	2119.14
743.195	2239.97
743.38	2145.76
743.565	1959.39
743.75	2078.18
743.935	2008.55
744.12	2065.89
744.305	1981.92
744.49	1975.78
744.675	1951.2
744.86	1904.1
745.045	1983.97
745.23	2086.37
745.415	1990.11
745.6	2029.03
745.785	1926.63
745.97	1986.02
746.155	1959.39
746.34	1877.48
746.525	1924.58
746.71	2000.35
746.895	1994.21
747.079	1775.08
747.264	1969.63
747.449	1955.3
747.634	1873.38
747.819	1902.05
748.003	1881.57
748.188	1754.6
748.373	1902.05
748.557	1887.72
748.742	1805.8
748.927	1846.76
749.111	1813.99
749.296	1693.16
749.481	1750.5
749.665	1730.02
749.85	1693.16
750.034	1746.41
750.219	1785.32
750.404	1740.26
750.588	1699.3
750.773	1709.54
750.957	1689.06
751.141	1721.83
751.326	1508.84
751.51	1590.76
751.695	1555.94
751.879	1557.99
752.064	1727.97
752.248	1598.95
752.432	1623.53
752.617	1680.87
752.801	1586.66
752.985	1455.59
753.17	1557.99
753.354	1476.07
753.538	1496.55
753.722	1598.95
753.907	1564.14
754.091	1412.59
754.275	1484.27
754.459	1424.87
754.643	1340.91
754.828	1459.69
755.012	1404.39
755.196	1416.68
755.38	1336.81
755.564	1418.73
755.748	1410.54
755.932	1375.72
756.116	1383.91
756.3	1510.89
756.484	1457.64
756.668	1332.72
756.852	1340.91
757.036	1388.01
757.22	1394.15
757.404	1287.66
757.588	1369.58
757.772	1222.13
757.956	1248.75
758.14	1340.91
758.323	1271.28
758.507	1261.04
758.691	1224.17
758.875	1252.84
759.059	1291.76
759.242	1205.74
759.426	1164.78
759.61	1213.93
759.794	1138.16
759.977	1279.47
760.161	1336.81
760.345	1211.89
760.528	1201.65
760.712	1175.02
760.895	1164.78
761.079	1185.26
761.263	1078.77
761.446	1107.44
761.63	1125.87
761.813	1113.58
761.997	1222.13
762.18	1035.76
762.364	1185.26
762.547	1107.44
762.731	1156.59
762.914	1113.58
763.098	1043.95
763.281	1125.87
763.464	1046
763.648	1086.96
763.831	1039.86
764.015	1058.29
764.198	1054.19
764.381	1066.48
764.564	1068.53
764.748	1019.38
764.931	1084.91
765.114	1031.66
765.297	1062.38
765.481	970.23
765.664	947.7
765.847	1035.76
766.03	959.99
766.213	1052.14
766.397	972.27
766.58	1011.18
766.763	941.55
766.946	1033.71
767.129	923.12
767.312	984.56
767.495	921.07
767.678	894.45
767.861	980.47
768.044	955.89
768.227	968.18
768.41	925.17
768.593	1019.38
768.776	955.89
768.959	896.5
769.142	935.41
769.324	959.99
769.507	855.54
769.69	984.56
769.873	980.47
770.056	976.37
770.239	980.47
770.421	943.6
770.604	929.27
770.787	830.96
770.97	900.59
771.152	882.16
771.335	906.74
771.518	812.53
771.7	839.16
771.883	955.89
772.066	867.83
772.248	865.78
772.431	943.6
772.613	787.96
772.796	792.05
772.978	816.63
773.161	839.16
773.343	900.59
773.526	706.04
773.708	706.04
773.891	763.38
774.073	714.23
774.256	845.3
774.438	853.49
774.621	755.19
774.803	724.47
774.985	796.15
775.168	816.63
775.35	722.42
775.532	769.52
775.715	820.72
775.897	712.18
776.079	652.79
776.261	751.09
776.444	839.16
776.626	744.95
776.808	689.65
776.99	689.65
777.173	724.47
777.355	706.04
777.537	644.6
777.719	640.5
777.901	663.03
778.083	703.99
778.265	701.94
778.447	660.98
778.629	617.97
778.811	632.31
778.993	617.97
779.175	593.4
779.357	626.17
779.539	613.88
779.721	667.13
779.903	665.08
780.085	613.88
780.267	634.36
780.449	591.35
780.631	591.35
780.812	634.36
780.994	558.58
781.176	570.87
781.358	620.02
781.54	546.3
781.721	550.39
781.903	615.93
782.085	509.43
782.267	544.25
782.448	583.16
782.63	468.47
782.812	564.73
782.993	505.34
783.175	583.16
783.357	488.95
783.538	562.68
783.72	460.28
783.901	531.96
784.083	486.9
784.264	419.32
784.446	411.13
784.627	452.09
784.809	536.06
784.99	519.67
785.172	443.9
785.353	445.95
785.535	517.62
785.716	470.52
785.897	460.28
786.079	458.23
786.26	456.19
786.441	452.09
786.623	378.36
786.804	427.51
786.985	325.12
787.167	429.56
787.348	435.71
787.529	472.57
787.71	445.95
787.891	417.27
788.073	372.22
788.254	372.22
788.435	476.66
788.616	398.84
788.797	402.94
788.978	337.4
789.159	374.27
789.34	409.08
789.522	370.17
789.703	345.59
789.884	364.03
790.065	347.64
790.246	398.84
790.427	380.41
790.607	415.23
790.788	402.94
790.969	419.32
791.15	357.88
791.331	321.02
791.512	312.83
791.693	325.12
791.874	347.64
792.054	411.13
792.235	345.59
792.416	396.79
792.597	349.69
792.778	304.64
792.958	331.26
793.139	290.3
793.32	296.44
793.5	329.21
793.681	361.98
793.862	316.92
794.042	339.45
794.223	271.87
794.404	312.83
794.584	288.25
794.765	298.49
794.945	304.64
795.126	314.88
795.306	366.07
795.487	218.62
795.667	286.2
795.848	364.03
796.028	239.1
796.209	232.96
796.389	361.98
796.57	239.1
796.75	294.4
796.93	333.31
797.111	263.68
797.291	321.02
797.471	222.72
797.652	230.91
797.832	148.99
798.012	271.87
798.192	210.43
798.373	267.77
798.553	198.14
798.733	239.1
798.913	239.1
799.093	220.67
799.274	255.48
799.454	288.25
799.634	239.1
799.814	263.68
799.994	253.44
800.174	230.91
800.354	288.25
800.534	255.48
800.714	241.15
800.894	273.92
801.074	263.68
801.254	255.48
801.434	228.86
801.614	200.19
801.794	173.57
801.974	706.04
802.154	175.61
802.334	263.68
802.514	259.58
802.693	222.72
802.873	148.99
803.053	265.72
803.233	198.14
803.413	173.57
803.592	269.82
803.772	288.25
803.952	222.72
804.131	148.99
804.311	230.91
804.491	192
804.67	167.42
804.85	173.57
805.03	185.85
805.209	220.67
805.389	198.14
805.568	136.7
805.748	153.09
805.928	175.61
806.107	173.57
806.287	226.81
806.466	206.33
806.646	194.05
806.825	181.76
807.004	177.66
807.184	216.57
807.363	251.39
807.543	239.1
807.722	249.34
807.901	165.37
808.081	192
808.26	148.99
808.439	165.37
808.619	175.61
808.798	280.06
808.977	159.23
809.156	189.95
809.336	144.89
809.515	151.04
809.694	175.61
809.873	198.14
810.052	181.76
810.231	159.23
810.411	118.27
810.59	103.93
810.769	163.33
810.948	239.1
811.127	148.99
811.306	202.24
811.485	93.69
811.664	173.57
811.843	118.27
812.022	198.14
812.201	128.51
812.38	132.61
812.559	153.09
812.737	189.95
812.916	175.61
813.095	103.93
813.274	144.89
813.453	159.23
813.632	118.27
813.811	148.99
813.989	28.16
814.168	99.84
814.347	56.83
814.526	140.8
814.704	140.8
814.883	110.08
815.062	87.55
815.24	93.69
815.419	130.56
815.598	126.46
815.776	87.55
815.955	130.56
816.133	157.18
816.312	177.66
816.49	112.13
816.669	46.59
816.847	112.13
817.026	173.57
817.204	181.76
817.383	67.07
817.561	114.17
817.74	116.22
817.918	198.14
818.097	110.08
818.275	108.03
818.453	202.24
818.632	167.42
818.81	108.03
818.988	148.99
819.167	124.41
819.345	132.61
819.523	118.27
819.701	142.85
819.879	83.45
820.058	148.99
820.236	108.03
820.414	46.59
820.592	189.95
820.77	87.55
820.948	128.51
821.127	110.08
821.305	75.26
821.483	146.94
821.661	101.89
821.839	87.55
822.017	36.35
822.195	116.22
822.373	85.5
822.551	101.89
822.729	132.61
822.907	79.36
823.085	151.04
823.262	124.41
823.44	83.45
823.618	56.83
823.796	99.84
823.974	30.21
824.152	97.79
824.329	189.95
824.507	83.45
824.685	177.66
824.863	56.83
825.04	198.14
825.218	50.69
825.396	108.03
825.574	148.99
825.751	140.8
825.929	108.03
826.107	-14.85
826.284	95.74
826.462	36.35
826.639	116.22
826.817	17.92
826.994	128.51
827.172	42.5
827.349	112.13
827.527	54.78
827.704	124.41
827.882	132.61
828.059	126.46
828.237	95.74
828.414	114.17
828.591	52.74
828.769	87.55
828.946	54.78
829.124	99.84
829.301	85.5
829.478	108.03
829.655	42.5
829.833	79.36
830.01	34.3
830.187	75.26
830.364	40.45
830.542	75.26
830.719	67.07
830.896	142.85
831.073	71.17
831.25	97.79
831.427	132.61
831.604	26.11
831.782	52.74
831.959	91.65
832.136	50.69
832.313	73.21
832.49	24.06
832.667	124.41
832.844	67.07
833.021	110.08
833.198	52.74
833.374	108.03
833.551	140.8
833.728	77.31
833.905	48.64
834.082	42.5
834.259	124.41
834.436	17.92
834.612	3.58
834.789	54.78
834.966	116.22
835.143	91.65
835.319	42.5
835.496	50.69
835.673	13.82
835.85	124.41
836.026	34.3
836.203	167.42
836.38	67.07
836.556	1.54
836.733	5.63
836.909	198.14
837.086	79.36
837.262	79.36
837.439	62.98
837.616	-12.8
837.792	17.92
837.968	26.11
838.145	17.92
838.321	19.97
838.498	91.65
838.674	99.84
838.851	34.3
839.027	99.84
839.203	30.21
839.38	5.63
839.556	40.45
839.732	95.74
839.909	50.69
840.085	77.31
840.261	38.4
840.437	93.69
840.614	-0.51
840.79	108.03
840.966	38.4
841.142	-12.8
841.318	1.54
841.494	17.92
841.671	108.03
841.847	9.73
842.023	28.16
842.199	110.08
842.375	42.5
842.551	-29.18
842.727	-6.66
842.903	67.07
843.079	11.78
843.255	58.88
843.431	-4.61
843.607	-25.09
843.783	-10.75
843.959	103.93
844.134	52.74
844.31	71.17
844.486	54.78
844.662	75.26
844.838	28.16
845.013	93.69
845.189	13.82
845.365	30.21
845.541	19.97
845.716	-37.38
845.892	91.65
846.068	89.6
846.244	87.55
846.419	83.45
846.595	75.26
846.77	-31.23
846.946	101.89
847.122	-6.66
847.297	83.45
847.473	28.16
847.648	99.84
847.824	30.21
847.999	38.4
848.175	28.16
848.35	24.06
848.526	122.37
848.701	67.07
848.876	75.26
849.052	71.17
849.227	26.11
849.403	67.07
849.578	-0.51
849.753	30.21
849.929	28.16
850.104	87.55
850.279	-2.56
850.454	83.45
850.63	17.92
850.805	-107.01
850.98	17.92
851.155	89.6
851.33	60.93
851.505	-68.09
851.681	38.4
851.856	15.87
852.031	112.13
852.206	42.5
852.381	-6.66
852.556	3.58
852.731	22.02
852.906	93.69
853.081	-16.9
853.256	17.92
853.431	-6.66
853.606	-45.57
853.781	-10.75
853.956	-29.18
854.131	91.65
854.305	-18.94
854.48	112.13
854.655	-4.61
854.83	-2.56
855.005	34.3
855.18	-20.99
855.354	9.73
855.529	42.5
855.704	28.16
855.879	22.02
856.053	75.26
856.228	-10.75
856.403	-10.75
856.577	13.82
856.752	-35.33
856.926	36.35
857.101	-8.7
857.276	-20.99
857.45	22.02
857.625	36.35
857.799	44.54
857.974	-23.04
858.148	-64
858.323	34.3
858.497	-0.51
858.672	46.59
858.846	-31.23
859.02	69.12
859.195	44.54
859.369	-6.66
859.543	-10.75
859.718	-12.8
859.892	24.06
860.066	28.16
860.241	7.68
860.415	-35.33
860.589	-23.04
860.763	11.78
860.938	-10.75
861.112	112.13
861.286	-23.04
861.46	11.78
861.634	5.63
861.808	9.73
861.982	30.21
862.157	-23.04
862.331	54.78
862.505	13.82
862.679	-55.81
862.853	-47.62
863.027	26.11
863.201	-18.94
863.375	-37.38
863.549	9.73
863.722	44.54
863.896	69.12
864.07	48.64
864.244	26.11
864.418	-0.51
864.592	30.21
864.766	-14.85
864.939	26.11
865.113	38.4
865.287	58.88
865.461	-12.8
865.634	17.92
865.808	-55.81
865.982	-31.23
866.156	-39.42
866.329	-14.85
866.503	-31.23
866.676	87.55
866.85	-10.75
867.024	-47.62
867.197	-37.38
867.371	1.54
867.544	-0.51
867.718	-35.33
867.891	50.69
868.065	26.11
868.238	-31.23
868.412	-47.62
868.585	-4.61
868.759	-55.81
868.932	-35.33
869.105	1.54
869.279	-119.29
869.452	17.92
869.625	1.54
869.799	-88.57
869.972	-31.23
870.145	-12.8
870.319	-20.99
870.492	42.5
870.665	-31.23
870.838	42.5
871.011	-47.62
871.185	34.3
871.358	32.26
871.531	34.3
871.704	-29.18
871.877	54.78
872.05	-76.29
872.223	-6.66
872.396	69.12
872.569	-10.75
872.742	17.92
872.915	-27.14
873.088	3.58
873.261	-10.75
873.434	13.82
873.607	50.69
873.78	15.87
873.953	-51.71
874.126	-43.52
874.299	-49.66
874.471	-23.04
874.644	11.78
874.817	5.63
874.99	44.54
875.163	-39.42
875.335	-53.76
875.508	36.35
875.681	30.21
875.853	-76.29
876.026	-2.56
876.199	-0.51
876.371	58.88
876.544	19.97
876.717	108.03
876.889	-61.95
877.062	28.16
877.234	17.92
877.407	3.58
877.579	79.36
877.752	-8.7
877.924	-23.04
878.097	-20.99
878.269	-2.56
878.442	-12.8
878.614	-43.52
878.786	19.97
878.959	-80.38
879.131	3.58
879.303	-70.14
879.476	-27.14
879.648	38.4
879.82	-12.8
879.993	-6.66
880.165	-10.75
880.337	5.63
880.509	-6.66
880.681	-47.62
880.854	9.73
881.026	52.74
881.198	32.26
881.37	-29.18
881.542	22.02
881.714	36.35
881.886	-12.8
882.058	-29.18
882.23	28.16
882.402	-39.42
882.574	93.69
882.746	-37.38
882.918	-33.28
883.09	-16.9
883.262	-68.09
883.434	-23.04
883.606	46.59
883.778	22.02
883.95	50.69
884.122	-31.23
884.293	-6.66
884.465	28.16
884.637	9.73
884.809	13.82
884.98	-76.29
885.152	9.73
885.324	71.17
885.496	-59.9
885.667	-4.61
885.839	13.82
886.011	-29.18
886.182	40.45
886.354	77.31
886.525	19.97
886.697	17.92
886.869	-74.24
887.04	-47.62
887.212	-47.62
887.383	-10.75
887.555	42.5
887.726	3.58
887.897	-18.94
888.069	11.78
888.24	42.5
888.412	-39.42
888.583	42.5
888.754	-47.62
888.926	-8.7
889.097	-16.9
889.268	-31.23
889.44	34.3
889.611	-64
889.782	-29.18
889.953	-25.09
890.125	42.5
890.296	-14.85
890.467	-23.04
890.638	9.73
890.809	-12.8
890.98	-35.33
891.151	91.65
891.323	46.59
891.494	-123.39
891.665	42.5
891.836	19.97
892.007	-82.43
892.178	-10.75
892.349	5.63
892.52	-25.09
892.691	46.59
892.862	-23.04
893.032	3.58
893.203	-39.42
893.374	-61.95
893.545	9.73
893.716	-18.94
893.887	-14.85
894.057	13.82
894.228	34.3
894.399	-0.51
894.57	116.22
894.74	-14.85
894.911	30.21
895.082	-16.9
895.253	44.54
895.423	-6.66
895.594	-49.66
895.764	38.4
895.935	-12.8
896.106	56.83
896.276	-20.99
896.447	-64
896.617	46.59
896.788	-6.66
896.958	-31.23
897.129	15.87
897.299	-20.99
897.47	17.92
897.64	1.54
897.81	-33.28
897.981	-12.8
898.151	-12.8
898.322	58.88
898.492	42.5
898.662	-39.42
898.832	19.97
899.003	28.16
899.173	13.82
899.343	-14.85
899.513	-47.62
