Data from USB4F104151__227__14-45-36-486.txt Node

Date: Thu Mar 13 14:45:36 EDT 2025
User: louis
Spectrometer: USB4F10415
Trigger mode: 4
Integration Time (sec): 2.000000E-2
Scans to average: 1
Electric dark correction enabled: true
Nonlinearity correction enabled: false
Boxcar width: 0
XAxis mode: Wavelengths
Number of Pixels in Spectrum: 3648
>>>>>Begin Spectral Data<<<<<
178.204	-78.33
178.424	-78.33
178.644	-78.33
178.864	-76.29
179.084	-135.68
179.304	19.97
179.524	-53.76
179.744	7.68
179.964	95.74
180.184	-41.47
180.404	42.5
180.624	28.16
180.844	-86.53
181.064	-16.9
181.283	28.16
181.503	48.64
181.723	-72.19
181.943	-59.9
182.163	110.08
182.383	17.92
182.602	105.98
182.822	54.78
183.042	85.5
183.262	-25.09
183.482	91.65
183.701	-12.8
183.921	58.88
184.141	-10.75
184.361	15.87
184.58	81.41
184.8	73.21
185.02	67.07
185.239	130.56
185.459	108.03
185.679	7.68
185.898	-16.9
186.118	130.56
186.338	32.26
186.557	69.12
186.777	56.83
186.997	103.93
187.216	65.02
187.436	65.02
187.655	19.97
187.875	3.58
188.095	36.35
188.314	28.16
188.534	36.35
188.753	73.21
188.973	97.79
189.192	19.97
189.412	19.97
189.631	13.82
189.851	85.5
190.07	110.08
190.29	19.97
190.509	52.74
190.729	38.4
190.948	22.02
191.168	144.89
191.387	142.85
191.607	65.02
191.826	-8.7
192.045	48.64
192.265	-0.51
192.484	-8.7
192.704	48.64
192.923	-0.51
193.142	38.4
193.362	97.79
193.581	13.82
193.8	38.4
194.02	19.97
194.239	85.5
194.458	65.02
194.678	54.78
194.897	97.79
195.116	77.31
195.335	118.27
195.555	32.26
195.774	34.3
195.993	103.93
196.212	11.78
196.432	36.35
196.651	32.26
196.87	-20.99
197.089	60.93
197.308	48.64
197.528	-20.99
197.747	-35.33
197.966	54.78
198.185	75.26
198.404	7.68
198.623	71.17
198.842	48.64
199.062	52.74
199.281	-10.75
199.5	28.16
199.719	56.83
199.938	54.78
200.157	73.21
200.376	56.83
200.595	62.98
200.814	26.11
201.033	19.97
201.252	-4.61
201.471	58.88
201.69	71.17
201.909	52.74
202.128	71.17
202.347	24.06
202.566	-35.33
202.785	22.02
203.004	-14.85
203.223	79.36
203.442	15.87
203.661	60.93
203.879	44.54
204.098	77.31
204.317	28.16
204.536	46.59
204.755	-6.66
204.974	118.27
205.193	38.4
205.411	101.89
205.63	69.12
205.849	24.06
206.068	77.31
206.287	-16.9
206.505	11.78
206.724	56.83
206.943	44.54
207.162	71.17
207.381	30.21
207.599	28.16
207.818	7.68
208.037	32.26
208.255	62.98
208.474	42.5
208.693	40.45
208.911	48.64
209.13	71.17
209.349	46.59
209.567	19.97
209.786	30.21
210.005	30.21
210.223	-8.7
210.442	-0.51
210.661	11.78
210.879	69.12
211.098	28.16
211.316	-37.38
211.535	56.83
211.753	13.82
211.972	52.74
212.191	46.59
212.409	5.63
212.628	85.5
212.846	11.78
213.065	62.98
213.283	73.21
213.502	11.78
213.72	-12.8
213.938	1.54
214.157	19.97
214.375	87.55
214.594	120.32
214.812	48.64
215.031	110.08
215.249	60.93
215.467	58.88
215.686	56.83
215.904	44.54
216.122	40.45
216.341	71.17
216.559	30.21
216.778	85.5
216.996	3.58
217.214	69.12
217.432	93.69
217.651	79.36
217.869	79.36
218.087	-16.9
218.306	3.58
218.524	103.93
218.742	5.63
218.96	13.82
219.179	54.78
219.397	48.64
219.615	105.98
219.833	130.56
220.051	-16.9
220.27	87.55
220.488	-35.33
220.706	-25.09
220.924	11.78
221.142	-37.38
221.36	-16.9
221.578	28.16
221.796	42.5
222.015	48.64
222.233	5.63
222.451	38.4
222.669	17.92
222.887	34.3
223.105	28.16
223.323	34.3
223.541	-4.61
223.759	40.45
223.977	40.45
224.195	110.08
224.413	19.97
224.631	87.55
224.849	108.03
225.067	110.08
225.285	44.54
225.503	69.12
225.721	30.21
225.939	48.64
226.157	19.97
226.375	120.32
226.592	30.21
226.81	56.83
227.028	75.26
227.246	81.41
227.464	19.97
227.682	73.21
227.9	22.02
228.117	28.16
228.335	62.98
228.553	36.35
228.771	42.5
228.989	38.4
229.206	93.69
229.424	95.74
229.642	11.78
229.86	-4.61
230.077	44.54
230.295	42.5
230.513	26.11
230.731	69.12
230.948	46.59
231.166	83.45
231.384	-12.8
231.601	36.35
231.819	44.54
232.037	-0.51
232.254	24.06
232.472	110.08
232.689	15.87
232.907	126.46
233.125	105.98
233.342	36.35
233.56	-8.7
233.777	87.55
233.995	40.45
234.213	-2.56
234.43	52.74
234.648	-0.51
234.865	3.58
235.083	60.93
235.3	52.74
235.518	58.88
235.735	118.27
235.953	-16.9
236.17	36.35
236.388	97.79
236.605	5.63
236.822	38.4
237.04	71.17
237.257	60.93
237.475	-8.7
237.692	46.59
237.909	1.54
238.127	93.69
238.344	-10.75
238.562	79.36
238.779	17.92
238.996	32.26
239.214	-10.75
239.431	85.5
239.648	-33.28
239.865	60.93
240.083	42.5
240.3	19.97
240.517	22.02
240.735	-6.66
240.952	81.41
241.169	28.16
241.386	126.46
241.603	62.98
241.821	48.64
242.038	52.74
242.255	56.83
242.472	108.03
242.689	67.07
242.907	87.55
243.124	101.89
243.341	24.06
243.558	26.11
243.775	44.54
243.992	-16.9
244.209	40.45
244.426	101.89
244.643	28.16
244.86	19.97
245.078	110.08
245.295	-53.76
245.512	3.58
245.729	19.97
245.946	50.69
246.163	22.02
246.38	-10.75
246.597	118.27
246.814	71.17
247.031	60.93
247.248	7.68
247.464	65.02
247.681	56.83
247.898	22.02
248.115	91.65
248.332	36.35
248.549	95.74
248.766	52.74
248.983	7.68
249.2	28.16
249.417	95.74
249.633	75.26
249.85	-10.75
250.067	-37.38
250.284	91.65
250.501	42.5
250.717	93.69
250.934	56.83
251.151	32.26
251.368	32.26
251.585	30.21
251.801	114.17
252.018	-10.75
252.235	-6.66
252.451	60.93
252.668	24.06
252.885	99.84
253.102	52.74
253.318	-16.9
253.535	-0.51
253.752	101.89
253.968	3.58
254.185	-86.53
254.401	30.21
254.618	38.4
254.835	69.12
255.051	122.37
255.268	28.16
255.484	44.54
255.701	48.64
255.917	69.12
256.134	-4.61
256.351	60.93
256.567	87.55
256.784	77.31
257	19.97
257.217	42.5
257.433	28.16
257.65	36.35
257.866	93.69
258.082	44.54
258.299	62.98
258.515	-2.56
258.732	30.21
258.948	13.82
259.165	69.12
259.381	19.97
259.597	85.5
259.814	58.88
260.03	36.35
260.246	-20.99
260.463	54.78
260.679	134.65
260.895	69.12
261.112	40.45
261.328	71.17
261.544	-2.56
261.761	99.84
261.977	58.88
262.193	44.54
262.409	24.06
262.626	50.69
262.842	71.17
263.058	9.73
263.274	30.21
263.49	15.87
263.707	-12.8
263.923	101.89
264.139	42.5
264.355	54.78
264.571	177.66
264.787	50.69
265.004	67.07
265.22	36.35
265.436	62.98
265.652	15.87
265.868	44.54
266.084	19.97
266.3	28.16
266.516	54.78
266.732	103.93
266.948	15.87
267.164	95.74
267.38	62.98
267.596	36.35
267.812	97.79
268.028	95.74
268.244	-45.57
268.46	50.69
268.676	52.74
268.892	46.59
269.108	-0.51
269.324	-37.38
269.54	83.45
269.756	89.6
269.972	85.5
270.188	44.54
270.403	50.69
270.619	85.5
270.835	32.26
271.051	32.26
271.267	32.26
271.483	1.54
271.698	58.88
271.914	52.74
272.13	85.5
272.346	13.82
272.562	-12.8
272.777	-2.56
272.993	46.59
273.209	3.58
273.425	19.97
273.64	99.84
273.856	112.13
274.072	52.74
274.287	-18.94
274.503	62.98
274.719	26.11
274.934	62.98
275.15	-35.33
275.366	44.54
275.581	-2.56
275.797	3.58
276.012	9.73
276.228	-2.56
276.444	81.41
276.659	108.03
276.875	62.98
277.09	28.16
277.306	-18.94
277.521	56.83
277.737	-0.51
277.952	28.16
278.168	118.27
278.383	19.97
278.599	46.59
278.814	54.78
279.03	77.31
279.245	108.03
279.461	65.02
279.676	40.45
279.892	32.26
280.107	77.31
280.322	5.63
280.538	105.98
280.753	50.69
280.969	54.78
281.184	28.16
281.399	60.93
281.615	54.78
281.83	52.74
282.045	-37.38
282.26	-37.38
282.476	40.45
282.691	28.16
282.906	36.35
283.122	19.97
283.337	73.21
283.552	153.09
283.767	69.12
283.983	36.35
284.198	38.4
284.413	-10.75
284.628	62.98
284.843	118.27
285.058	17.92
285.274	105.98
285.489	77.31
285.704	101.89
285.919	9.73
286.134	-29.18
286.349	65.02
286.564	-18.94
286.779	85.5
286.995	69.12
287.21	-10.75
287.425	48.64
287.64	13.82
287.855	-8.7
288.07	22.02
288.285	36.35
288.5	69.12
288.715	62.98
288.93	-0.51
289.145	1.54
289.36	110.08
289.575	40.45
289.79	56.83
290.004	24.06
290.219	101.89
290.434	77.31
290.649	-2.56
290.864	19.97
291.079	50.69
291.294	52.74
291.509	48.64
291.724	62.98
291.938	-41.47
292.153	101.89
292.368	75.26
292.583	114.17
292.798	73.21
293.012	56.83
293.227	22.02
293.442	5.63
293.657	136.7
293.871	159.23
294.086	5.63
294.301	65.02
294.516	77.31
294.73	54.78
294.945	-2.56
295.16	126.46
295.374	58.88
295.589	77.31
295.804	-4.61
296.018	-41.47
296.233	26.11
296.447	13.82
296.662	44.54
296.877	24.06
297.091	46.59
297.306	56.83
297.52	-35.33
297.735	28.16
297.949	15.87
298.164	9.73
298.378	46.59
298.593	11.78
298.807	3.58
299.022	-12.8
299.236	118.27
299.451	52.74
299.665	44.54
299.88	-14.85
300.094	79.36
300.309	52.74
300.523	87.55
300.737	99.84
300.952	52.74
301.166	62.98
301.381	44.54
301.595	101.89
301.809	30.21
302.024	-27.14
302.238	36.35
302.452	11.78
302.667	81.41
302.881	126.46
303.095	19.97
303.309	30.21
303.524	11.78
303.738	26.11
303.952	34.3
304.166	134.65
304.381	-18.94
304.595	146.94
304.809	13.82
305.023	-29.18
305.237	-4.61
305.452	32.26
305.666	46.59
305.88	30.21
306.094	-16.9
306.308	89.6
306.522	114.17
306.736	60.93
306.95	11.78
307.164	65.02
307.379	101.89
307.593	44.54
307.807	52.74
308.021	101.89
308.235	56.83
308.449	38.4
308.663	-10.75
308.877	93.69
309.091	13.82
309.305	101.89
309.519	-41.47
309.733	101.89
309.947	-29.18
310.161	93.69
310.374	52.74
310.588	116.22
310.802	-27.14
311.016	28.16
311.23	114.17
311.444	62.98
311.658	30.21
311.872	7.68
312.085	-12.8
312.299	52.74
312.513	46.59
312.727	24.06
312.941	36.35
313.154	77.31
313.368	108.03
313.582	85.5
313.796	28.16
314.009	28.16
314.223	85.5
314.437	134.65
314.651	-20.99
314.864	69.12
315.078	7.68
315.292	-18.94
315.505	56.83
315.719	28.16
315.933	62.98
316.146	13.82
316.36	15.87
316.573	91.65
316.787	19.97
317.001	95.74
317.214	-45.57
317.428	38.4
317.641	19.97
317.855	60.93
318.068	56.83
318.282	28.16
318.495	93.69
318.709	71.17
318.922	44.54
319.136	71.17
319.349	56.83
319.563	22.02
319.776	-20.99
319.99	60.93
320.203	15.87
320.417	144.89
320.63	85.5
320.843	118.27
321.057	3.58
321.27	93.69
321.483	67.07
321.697	142.85
321.91	-4.61
322.124	48.64
322.337	58.88
322.55	36.35
322.763	-4.61
322.977	19.97
323.19	19.97
323.403	28.16
323.617	11.78
323.83	142.85
324.043	83.45
324.256	13.82
324.469	11.78
324.683	26.11
324.896	65.02
325.109	-0.51
325.322	103.93
325.535	79.36
325.748	54.78
325.962	60.93
326.175	-12.8
326.388	97.79
326.601	13.82
326.814	-25.09
327.027	19.97
327.24	26.11
327.453	-37.38
327.666	85.5
327.879	151.04
328.092	50.69
328.305	19.97
328.518	24.06
328.731	24.06
328.944	65.02
329.157	79.36
329.37	36.35
329.583	112.13
329.796	85.5
330.009	-45.57
330.222	99.84
330.435	58.88
330.648	3.58
330.861	36.35
331.073	122.37
331.286	93.69
331.499	48.64
331.712	-4.61
331.925	46.59
332.138	19.97
332.35	62.98
332.563	-2.56
332.776	5.63
332.989	48.64
333.202	-27.14
333.414	36.35
333.627	67.07
333.84	87.55
334.053	126.46
334.265	24.06
334.478	52.74
334.691	17.92
334.903	52.74
335.116	-8.7
335.329	15.87
335.541	56.83
335.754	165.37
335.966	28.16
336.179	60.93
336.392	99.84
336.604	85.5
336.817	11.78
337.029	28.16
337.242	36.35
337.454	103.93
337.667	40.45
337.88	71.17
338.092	48.64
338.305	126.46
338.517	-10.75
338.729	-2.56
338.942	93.69
339.154	1.54
339.367	44.54
339.579	54.78
339.792	77.31
340.004	108.03
340.217	118.27
340.429	3.58
340.641	60.93
340.854	95.74
341.066	44.54
341.278	108.03
341.491	75.26
341.703	69.12
341.915	52.74
342.128	50.69
342.34	65.02
342.552	-10.75
342.764	38.4
342.977	28.16
343.189	97.79
343.401	44.54
343.613	-10.75
343.826	22.02
344.038	42.5
344.25	-4.61
344.462	19.97
344.674	62.98
344.886	73.21
345.099	62.98
345.311	3.58
345.523	105.98
345.735	13.82
345.947	40.45
346.159	46.59
346.371	103.93
346.583	36.35
346.795	60.93
347.007	69.12
347.219	5.63
347.431	69.12
347.643	56.83
347.855	24.06
348.067	110.08
348.279	-4.61
348.491	24.06
348.703	1.54
348.915	69.12
349.127	11.78
349.339	110.08
349.551	28.16
349.763	44.54
349.975	19.97
350.187	-39.42
350.399	69.12
350.61	46.59
350.822	-10.75
351.034	40.45
351.246	24.06
351.458	44.54
351.669	44.54
351.881	44.54
352.093	89.6
352.305	42.5
352.517	118.27
352.728	77.31
352.94	44.54
353.152	85.5
353.363	54.78
353.575	122.37
353.787	85.5
353.999	-8.7
354.21	1.54
354.422	54.78
354.633	19.97
354.845	48.64
355.057	15.87
355.268	97.79
355.48	65.02
355.692	-20.99
355.903	3.58
356.115	58.88
356.326	34.3
356.538	93.69
356.749	97.79
356.961	130.56
357.172	44.54
357.384	83.45
357.595	118.27
357.807	1.54
358.018	-10.75
358.23	38.4
358.441	128.51
358.653	81.41
358.864	48.64
359.075	19.97
359.287	46.59
359.498	69.12
359.709	101.89
359.921	101.89
360.132	142.85
360.344	85.5
360.555	46.59
360.766	19.97
360.977	-57.86
361.189	-27.14
361.4	48.64
361.611	118.27
361.823	95.74
362.034	89.6
362.245	22.02
362.456	116.22
362.667	11.78
362.879	69.12
363.09	97.79
363.301	56.83
363.512	73.21
363.723	13.82
363.935	19.97
364.146	5.63
364.357	91.65
364.568	22.02
364.779	-20.99
364.99	69.12
365.201	128.51
365.412	60.93
365.623	-10.75
365.834	65.02
366.045	-16.9
366.256	97.79
366.467	46.59
366.678	77.31
366.889	22.02
367.1	-14.85
367.311	36.35
367.522	116.22
367.733	56.83
367.944	134.65
368.155	-10.75
368.366	26.11
368.577	118.27
368.788	38.4
368.999	62.98
369.209	52.74
369.42	56.83
369.631	120.32
369.842	11.78
370.053	19.97
370.264	30.21
370.474	95.74
370.685	112.13
370.896	15.87
371.107	62.98
371.317	81.41
371.528	44.54
371.739	85.5
371.95	44.54
372.16	65.02
372.371	13.82
372.582	75.26
372.792	75.26
373.003	52.74
373.214	-23.04
373.424	44.54
373.635	11.78
373.846	85.5
374.056	65.02
374.267	7.68
374.477	101.89
374.688	52.74
374.898	77.31
375.109	38.4
375.319	52.74
375.53	60.93
375.74	81.41
375.951	103.93
376.161	134.65
376.372	52.74
376.582	-0.51
376.793	77.31
377.003	52.74
377.214	-12.8
377.424	60.93
377.635	40.45
377.845	32.26
378.055	65.02
378.266	7.68
378.476	28.16
378.686	38.4
378.897	38.4
379.107	103.93
379.317	22.02
379.528	1.54
379.738	15.87
379.948	24.06
380.158	77.31
380.369	-4.61
380.579	132.61
380.789	-2.56
380.999	38.4
381.21	38.4
381.42	105.98
381.63	-14.85
381.84	52.74
382.05	56.83
382.261	28.16
382.471	85.5
382.681	-41.47
382.891	177.66
383.101	65.02
383.311	19.97
383.521	-4.61
383.731	69.12
383.941	142.85
384.151	-29.18
384.361	30.21
384.571	24.06
384.781	-4.61
384.991	81.41
385.201	134.65
385.411	56.83
385.621	112.13
385.831	40.45
386.041	85.5
386.251	65.02
386.461	95.74
386.671	11.78
386.881	54.78
387.091	83.45
387.301	60.93
387.511	36.35
387.72	13.82
387.93	85.5
388.14	58.88
388.35	77.31
388.56	52.74
388.769	36.35
388.979	83.45
389.189	26.11
389.399	134.65
389.609	79.36
389.818	126.46
390.028	67.07
390.238	65.02
390.447	-43.52
390.657	112.13
390.867	40.45
391.076	44.54
391.286	83.45
391.496	15.87
391.705	-12.8
391.915	114.17
392.125	118.27
392.334	15.87
392.544	42.5
392.753	128.51
392.963	36.35
393.172	60.93
393.382	110.08
393.591	183.81
393.801	30.21
394.01	128.51
394.22	52.74
394.429	85.5
394.639	44.54
394.848	142.85
395.058	75.26
395.267	159.23
395.477	60.93
395.686	44.54
395.895	110.08
396.105	151.04
396.314	77.31
396.524	112.13
396.733	60.93
396.942	77.31
397.152	95.74
397.361	28.16
397.57	118.27
397.78	85.5
397.989	-12.8
398.198	183.81
398.407	54.78
398.617	101.89
398.826	77.31
399.035	163.33
399.244	38.4
399.453	110.08
399.663	155.13
399.872	44.54
400.081	60.93
400.29	93.69
400.499	30.21
400.708	122.37
400.917	-20.99
401.127	101.89
401.336	44.54
401.545	151.04
401.754	153.09
401.963	110.08
402.172	114.17
402.381	89.6
402.59	87.55
402.799	118.27
403.008	110.08
403.217	138.75
403.426	126.46
403.635	85.5
403.844	124.41
404.053	116.22
404.262	77.31
404.471	208.38
404.68	126.46
404.888	101.89
405.097	101.89
405.306	93.69
405.515	185.85
405.724	105.98
405.933	95.74
406.142	136.7
406.35	177.66
406.559	134.65
406.768	99.84
406.977	185.85
407.185	142.85
407.394	177.66
407.603	130.56
407.812	157.18
408.02	185.85
408.229	257.53
408.438	171.52
408.646	161.28
408.855	189.95
409.064	206.33
409.272	208.38
409.481	194.05
409.69	192
409.898	112.13
410.107	306.68
410.315	218.62
410.524	177.66
410.733	257.53
410.941	249.34
411.15	267.77
411.358	316.92
411.567	280.06
411.775	286.2
411.984	290.3
412.192	298.49
412.401	259.58
412.609	355.83
412.818	290.3
413.026	364.03
413.234	265.72
413.443	355.83
413.651	388.6
413.86	376.31
414.068	347.64
414.276	425.47
414.485	361.98
414.693	445.95
414.901	454.14
415.11	429.56
415.318	470.52
415.526	445.95
415.734	495.1
415.943	589.3
416.151	566.78
416.359	556.54
416.567	568.82
416.776	581.11
416.984	654.84
417.192	650.74
417.4	695.8
417.608	589.3
417.817	695.8
418.025	732.66
418.233	777.72
418.441	669.17
418.649	816.63
418.857	775.67
419.065	802.29
419.273	800.24
419.481	820.72
419.689	939.51
419.897	859.63
420.105	896.5
420.313	1048.05
420.521	937.46
420.729	982.51
420.937	1013.23
421.145	1043.95
421.353	1203.69
421.561	1211.89
421.769	1207.79
421.977	1275.37
422.185	1330.67
422.393	1367.53
422.601	1529.32
422.809	1371.63
423.017	1416.68
423.224	1478.12
423.432	1572.33
423.64	1572.33
423.848	1867.24
424.056	1750.5
424.263	1732.07
424.471	1857
424.679	1936.87
424.887	1857
425.094	1977.83
425.302	2059.74
425.51	2014.69
425.718	1994.21
425.925	2100.7
426.133	2182.62
426.341	2452.95
426.548	2438.62
426.756	2446.81
426.964	2426.33
427.171	2586.07
427.379	2584.02
427.586	2766.29
427.794	2766.29
428.001	2977.23
428.209	3069.39
428.417	3087.82
428.624	3200.46
428.832	3339.73
429.039	3206.61
429.247	3255.76
429.454	3542.47
429.662	3634.63
429.869	3501.51
430.076	3814.85
430.284	3575.24
430.491	3839.43
430.699	3995.08
430.906	4042.18
431.114	4072.9
431.321	4107.71
431.528	4210.11
431.736	4478.4
431.943	4873.65
432.15	4636.09
432.358	4656.57
432.565	5064.11
432.772	4877.75
432.979	5211.57
433.187	5195.18
433.394	5201.33
433.601	5500.33
433.808	5623.21
434.016	5715.37
434.223	5918.12
434.43	6143.39
434.637	6012.32
434.844	6493.6
435.052	6452.64
435.259	6475.17
435.466	6532.51
435.673	6616.48
435.88	6993.3
436.087	7327.12
436.294	7200.15
436.501	7171.47
436.708	7284.11
436.915	7419.28
437.122	7826.82
437.329	8023.43
437.537	8033.67
437.743	8007.05
437.95	8174.98
438.157	8682.88
438.364	8859
438.571	8717.69
438.778	8850.81
438.985	9866.6
439.192	9344.37
439.399	9528.69
439.606	9207.16
439.813	9991.53
440.02	10587.49
440.227	10302.82
440.433	10141.03
440.64	10538.34
440.847	10480.99
441.054	10644.83
441.261	11345.23
441.467	11408.72
441.674	11455.83
441.881	11943.24
442.088	11894.09
442.294	11814.22
442.501	12203.33
442.708	12375.36
442.914	13071.67
443.121	13393.2
443.328	12940.6
443.534	13753.65
443.741	13528.37
443.948	13374.77
444.154	14335.27
444.361	14165.29
444.568	14447.91
444.774	14269.73
444.981	14533.92
445.187	14953.76
445.394	15664.4
445.6	15379.73
445.807	16903.42
446.013	15930.64
446.22	16246.02
446.426	16813.31
446.633	17001.72
446.839	17784.05
447.046	17059.07
447.252	17835.25
447.459	17771.76
447.665	17964.27
447.871	18832.61
448.078	19451.1
448.284	18347.24
448.491	19119.32
448.697	19920.08
448.903	20067.53
449.11	20456.65
449.316	19797.2
449.522	20280.52
449.728	20927.68
449.935	21173.44
450.141	21193.92
450.347	21589.17
450.553	20952.26
450.76	21193.92
450.966	21830.83
451.172	21623.99
451.378	22222
451.584	21693.62
451.791	22281.39
451.997	22305.96
452.203	22617.25
452.409	22602.92
452.615	22471.85
452.821	21986.48
453.027	21597.37
453.233	22488.23
453.44	21707.96
453.646	22205.61
453.852	22162.61
454.058	22678.69
454.264	21843.12
454.47	22516.9
454.676	21687.48
454.882	22535.34
455.088	20475.08
455.294	20907.2
455.5	21212.35
455.705	21578.93
455.911	20479.18
456.117	20339.91
456.323	19864.78
456.529	18963.68
456.735	19600.6
456.941	19469.53
457.147	18943.2
457.352	18332.9
457.558	18357.48
457.764	18656.48
457.97	18031.85
458.176	17534.2
458.381	17509.62
458.587	16647.43
458.793	16798.98
458.999	15822.09
459.204	17108.22
459.41	16612.61
459.616	15494.42
459.821	15559.95
460.027	15402.26
460.233	15013.15
460.438	14306.6
460.644	14708
460.85	13815.09
461.055	13606.19
461.261	13675.82
461.466	12705.09
461.672	12299.59
461.878	13143.35
462.083	12311.88
462.289	11937.1
462.494	11820.36
462.7	11246.93
462.905	10933.59
463.111	11361.62
463.316	11400.53
463.522	11287.89
463.727	11373.91
463.932	11253.08
464.138	11169.11
464.343	11064.66
464.549	10730.84
464.754	11302.23
464.959	11025.75
465.165	10890.59
465.37	10472.8
465.575	10257.76
465.781	10607.97
465.986	10810.72
466.191	10360.16
466.397	10149.22
466.602	9674.09
466.807	9917.8
467.012	10089.83
467.218	9934.18
467.423	10014.06
467.628	10087.78
467.833	10429.79
468.038	10087.78
468.244	9583.98
468.449	10034.53
468.654	9622.89
468.859	9426.29
469.064	9395.57
469.269	9235.83
469.474	9321.84
469.679	9481.58
469.885	9153.91
470.09	9391.47
470.295	9327.99
470.5	9155.96
470.705	8942.97
470.91	8762.75
471.115	8877.43
471.32	9016.69
471.525	9018.74
471.73	8758.65
471.935	8686.97
472.139	8357.25
472.344	8467.84
472.549	8338.82
472.754	8449.41
472.959	8025.48
473.164	7742.86
473.369	7998.85
473.574	8066.44
473.778	7910.79
473.983	8023.43
474.188	7861.64
474.393	7628.17
474.598	7644.56
474.802	7632.27
475.007	7425.42
475.212	7804.3
475.417	7280.02
475.621	7320.98
475.826	7306.64
476.031	7194
476.235	7069.08
476.44	7216.53
476.645	6890.9
476.849	7263.63
477.054	7034.26
477.259	6796.7
477.463	6727.07
477.668	6692.25
477.872	6704.54
478.077	6477.21
478.282	6442.4
478.486	6462.88
478.691	6600.09
478.895	6450.59
479.1	6262.18
479.304	6348.19
479.509	6081.96
479.713	6288.8
479.918	6057.38
480.122	5965.22
480.326	6219.17
480.531	6237.6
480.735	5985.7
480.94	5977.51
481.144	6180.26
481.348	5987.75
481.553	5965.22
481.757	5846.44
481.961	5961.13
482.166	5938.6
482.37	5983.65
482.574	5778.86
482.778	5926.31
482.983	5815.72
483.187	6010.28
483.391	5858.73
483.595	5922.21
483.8	5748.14
484.004	5828.01
484.208	5780.9
484.412	5705.13
484.616	5883.3
484.821	5811.62
485.025	5844.39
485.229	5803.43
485.433	5780.9
485.637	5871.01
485.841	5664.17
486.045	5846.44
486.249	5903.78
486.453	5729.7
486.657	5787.05
486.861	5709.22
487.065	5653.93
487.269	5860.77
487.473	5729.7
487.677	5739.94
487.881	5918.12
488.085	5836.2
488.289	5836.2
488.493	5895.59
488.697	5959.08
488.901	5799.34
489.105	5868.97
489.309	5858.73
489.512	5959.08
489.716	5899.69
489.92	5797.29
490.124	5856.68
490.328	5995.94
490.531	5881.25
490.735	5914.02
490.939	6077.86
491.143	5987.75
491.346	5985.7
491.55	6106.53
491.754	6116.77
491.958	6092.2
492.161	6141.35
492.365	6196.64
492.569	5879.21
492.772	6172.07
492.976	6186.4
493.18	6444.45
493.383	6260.13
493.587	6380.96
493.79	6350.24
493.994	6421.92
494.197	6446.49
494.401	6483.36
494.605	6477.21
494.808	6671.77
495.012	6643.1
495.215	6632.86
495.419	6722.97
495.622	6684.06
495.825	6835.61
496.029	6849.94
496.232	6835.61
496.436	6731.16
496.639	7085.46
496.843	6851.99
497.046	7146.9
497.249	7116.18
497.453	7259.54
497.656	7376.27
497.859	7380.37
498.063	7470.48
498.266	7642.51
498.469	7488.91
498.673	7439.76
498.876	7589.26
499.079	7624.08
499.282	7679.37
499.485	8179.08
499.689	7875.98
499.892	8097.16
500.095	8181.12
500.298	8293.76
500.501	8121.73
500.705	8611.2
500.908	8697.21
501.111	8715.64
501.314	8613.24
501.517	9010.55
501.72	8975.74
501.923	8942.97
502.126	9268.59
502.329	9409.9
502.532	9295.22
502.735	9246.07
502.938	9852.27
503.141	9608.56
503.344	9844.07
503.547	9753.96
503.75	9909.61
503.953	10155.37
504.156	10222.95
504.359	10364.26
504.562	10210.66
504.765	10532.19
504.968	10630.49
505.17	10693.98
505.373	10874.2
505.576	10829.15
505.779	11226.45
505.982	11242.84
506.185	11025.75
506.387	11335
506.59	11631.95
506.793	11889.99
506.996	11590.99
507.198	12080.46
507.401	11889.99
507.604	12109.13
507.807	12293.44
508.009	12268.87
508.212	12105.03
508.415	12700.99
508.617	12739.9
508.82	12877.12
509.022	12797.24
509.225	13139.26
509.428	13622.58
509.63	13299
509.833	13382.96
510.035	13897
510.238	13540.66
510.44	13886.76
510.643	13993.26
510.845	14185.77
511.048	14122.28
511.25	14355.75
511.453	14505.25
511.655	15027.48
511.858	14871.84
512.06	14976.28
512.262	15164.7
512.465	15256.86
512.667	15398.17
512.87	15764.75
513.072	15801.61
513.274	16061.71
513.477	16145.67
513.679	16342.28
513.881	16444.68
514.084	16475.4
514.286	16403.72
514.488	16432.39
514.69	17122.55
514.893	17100.03
515.095	17429.75
515.297	17296.63
515.499	17579.25
515.701	17665.27
515.904	17960.17
516.106	17730.8
516.308	18162.92
516.51	18177.26
516.712	18578.66
516.914	18640.1
517.116	19160.28
517.318	18941.15
517.52	19240.15
517.722	19262.68
517.925	19899.6
518.127	19805.39
518.329	19993.81
518.531	20081.87
518.733	20085.97
518.935	20335.82
519.136	20382.92
519.338	20790.47
519.54	20872.39
519.742	21042.37
519.944	21028.03
520.146	21251.26
520.348	21671.09
520.55	21902.51
520.752	21785.78
520.954	22185.13
521.155	22052.02
521.357	22518.95
521.559	22721.7
521.761	22654.12
521.963	23020.7
522.164	23086.24
522.366	23309.47
522.568	23209.12
522.77	23530.65
522.971	23872.66
523.173	23475.35
523.375	24179.86
523.576	24216.72
523.778	24007.83
523.98	24423.56
524.181	24689.8
524.383	24282.25
524.584	24865.92
524.786	24745.09
524.988	24958.08
525.189	25005.19
525.391	25564.28
525.592	25605.24
525.794	25721.98
525.995	25554.04
526.197	25611.39
526.398	25586.81
526.6	25902.2
526.801	26014.84
527.003	26059.89
527.204	26084.47
527.406	26352.75
527.607	26606.7
527.808	26676.33
528.01	26242.16
528.211	26649.71
528.412	27112.55
528.614	26840.17
528.815	26514.54
529.016	27286.62
529.218	26987.62
529.419	27085.92
529.62	27221.09
529.822	27169.89
530.023	27257.95
530.224	27368.54
530.425	27374.69
530.626	27245.66
530.828	27247.71
531.029	27548.76
531.23	27581.53
531.431	27497.56
531.632	27878.49
531.833	27673.69
532.035	27735.13
532.236	28036.18
532.437	27534.43
532.638	27763.8
532.839	27972.69
533.04	27561.05
533.241	27569.24
533.442	28333.14
533.643	28027.99
533.844	27927.64
534.045	28445.77
534.246	27771.99
534.447	27878.49
534.648	28019.8
534.849	28212.31
535.05	27741.27
535.251	28169.3
535.451	28183.63
535.652	28396.62
535.853	27812.95
536.054	28087.38
536.255	28333.14
536.456	27784.28
536.657	28189.78
536.857	28048.47
537.058	27874.39
537.259	28367.95
537.46	28071
537.66	27878.49
537.861	28038.23
538.062	28220.5
538.263	28388.43
538.463	28087.38
538.664	28093.52
538.865	27763.8
539.065	28628.04
539.266	28042.32
539.466	28296.27
539.667	27868.25
539.868	28185.68
540.068	28036.18
540.269	28068.95
540.469	28398.67
540.67	28003.41
540.87	28179.54
541.071	28136.53
541.271	28109.91
541.472	28238.93
541.672	28171.35
541.873	27991.12
542.073	27573.34
542.274	28236.88
542.474	28089.43
542.675	27868.25
542.875	28359.76
543.075	27937.88
543.276	27604.06
543.476	27794.52
543.676	28068.95
543.877	28060.76
544.077	28154.96
544.277	27917.4
544.478	27972.69
544.678	27935.83
544.878	28087.38
545.078	27991.12
545.279	27475.04
545.479	27460.7
545.679	27896.92
545.879	28091.48
546.079	27872.34
546.28	27718.75
546.48	27690.07
546.68	27892.82
546.88	27948.12
547.08	27796.57
547.28	27894.87
547.48	27411.55
547.68	28036.18
547.88	27776.09
548.081	27841.62
548.281	27602.01
548.481	27628.63
548.681	27939.93
548.881	27774.04
549.081	27878.49
549.28	27444.32
549.48	27817.05
549.68	27982.93
549.88	28169.3
550.08	27702.36
550.28	27569.24
550.48	27634.78
550.68	27495.52
550.88	27507.8
551.08	27485.28
551.279	27993.17
551.479	27460.7
551.679	27593.82
551.879	27210.85
552.079	27493.47
552.278	27751.51
552.478	27843.67
552.678	27407.45
552.878	27833.43
553.077	27411.55
553.277	27362.4
553.477	27847.77
553.676	27642.97
553.876	27389.02
554.076	27212.9
554.275	27444.32
554.475	27149.41
554.674	27190.37
554.874	27221.09
555.074	27149.41
555.273	27251.81
555.473	27501.66
555.672	27087.97
555.872	27151.46
556.071	27321.44
556.271	27321.44
556.47	27325.54
556.67	27004
556.869	27030.63
557.068	27360.35
557.268	26868.84
557.467	26874.98
557.667	26922.09
557.866	26928.23
558.065	26485.87
558.265	26696.81
558.464	26549.35
558.663	26997.86
558.863	26580.07
559.062	27092.07
559.261	26614.89
559.461	27173.99
559.66	26473.58
559.859	26618.99
560.058	26653.8
560.258	26309.74
560.457	26457.2
560.656	26877.03
560.855	26111.09
561.054	26782.82
561.253	26340.46
561.453	26227.82
561.652	26406
561.851	26391.66
562.05	26037.36
562.249	26086.51
562.448	26522.73
562.647	26080.37
562.846	26229.87
563.045	25949.3
563.244	25633.91
563.443	25859.19
563.642	25420.92
563.841	25586.81
564.04	25785.46
564.239	25783.41
564.438	25396.35
564.637	25496.7
564.836	25306.24
565.035	25085.06
565.234	25379.96
565.432	24996.99
565.631	25293.95
565.83	25261.18
566.029	24988.8
566.228	25060.48
566.427	24915.08
566.625	24595.59
566.824	24741
567.023	24994.95
567.222	24667.27
567.42	25017.47
567.619	24859.78
567.818	24728.71
568.016	24618.12
568.215	24695.94
568.414	24253.58
568.612	24755.33
568.811	24601.74
569.01	24661.13
569.208	23946.39
569.407	24413.32
569.605	23856.28
569.804	24267.92
570.002	23714.97
570.201	23897.24
570.4	23964.82
570.598	23645.34
570.797	23680.15
570.995	23887
571.193	23309.47
571.392	23788.69
571.59	23295.13
571.789	23508.12
571.987	23409.82
572.186	23383.2
572.384	23454.87
572.582	23497.88
572.781	23295.13
572.979	22932.64
573.177	23051.42
573.376	23092.38
573.574	23014.56
573.772	22906.02
573.971	22885.54
574.169	22850.72
574.367	22564.01
574.565	22899.87
574.763	22885.54
574.962	22402.22
575.16	22267.05
575.358	22387.88
575.556	22369.45
575.754	22799.52
575.952	22097.07
576.151	22318.25
576.349	21916.85
576.547	21988.53
576.745	22101.17
576.943	21902.51
577.141	21847.22
577.339	21761.2
577.537	21898.42
577.735	21470.39
577.933	21464.25
578.131	21771.44
578.329	21601.46
578.527	21411
578.725	21662.9
578.923	21583.03
579.121	21140.67
579.319	21306.55
579.516	21284.03
579.714	21353.66
579.912	20960.45
580.11	21038.27
580.308	21101.76
580.506	20899.01
580.704	20425.93
580.901	20960.45
581.099	20901.06
581.297	20585.67
581.495	20692.16
581.692	20628.68
581.89	20679.88
582.088	20724.93
582.285	20485.32
582.483	20516.04
582.681	20509.9
582.878	20366.54
583.076	20053.2
583.274	20143.31
583.471	20065.49
583.669	19979.47
583.866	19903.7
584.064	19848.4
584.262	19760.34
584.459	19842.26
584.657	19866.83
584.854	19657.94
585.052	19518.68
585.249	19891.41
585.447	19797.2
585.644	19436.76
585.841	19217.63
586.039	19750.1
586.236	19307.74
586.434	19309.79
586.631	19352.79
586.828	19027.17
587.026	19156.19
587.223	19012.83
587.42	19031.26
587.618	19109.08
587.815	18961.63
588.012	18918.62
588.21	18857.18
588.407	18922.72
588.604	18769.12
588.801	18523.37
588.999	18724.07
589.196	18423.01
589.393	18545.89
589.59	18386.15
589.787	18416.87
589.984	18087.15
590.182	18078.96
590.379	18388.2
590.576	18124.01
590.773	17951.98
590.97	17706.23
591.167	18300.14
591.364	17935.6
591.561	18031.85
591.758	18058.48
591.955	17767.66
592.152	18177.26
592.349	17741.04
592.546	17876.21
592.743	17702.13
592.94	17378.55
593.137	17499.38
593.334	17470.71
593.531	17394.93
593.727	17519.86
593.924	17476.85
594.121	17243.38
594.318	17216.76
594.515	16846.08
594.712	17202.43
594.908	17057.02
595.105	17179.9
595.302	16856.32
595.499	17081.6
595.696	16723.2
595.892	16856.32
596.089	16733.44
596.286	16811.26
596.482	16504.07
596.679	16452.87
596.876	16547.08
597.072	16643.33
597.269	16338.18
597.466	16362.76
597.662	16268.55
597.859	16264.46
598.055	16313.61
598.252	16059.66
598.448	16354.57
598.645	15912.21
598.841	15844.62
599.038	16127.24
599.234	16037.13
599.431	15641.87
599.627	15588.63
599.824	15959.31
600.02	15559.95
600.217	15637.78
600.413	15486.23
600.609	15654.16
600.806	15543.57
601.002	15379.73
601.198	15441.17
601.395	15340.82
601.591	15346.97
601.787	15387.93
601.984	15230.23
602.18	15375.64
602.376	14988.57
602.572	15205.66
602.769	15078.68
602.965	14953.76
603.161	14912.8
603.357	14830.88
603.553	14882.08
603.75	14691.62
603.946	14734.62
604.142	14642.46
604.338	14345.51
604.534	14839.07
604.73	14570.79
604.926	14380.32
605.122	14574.88
605.318	14413.09
605.514	14390.56
605.71	14322.98
605.906	14437.67
606.102	14464.29
606.298	14183.72
606.494	14423.33
606.69	14318.89
606.886	14431.52
607.082	14081.32
607.278	13956.4
607.474	14021.93
607.67	14316.84
607.866	13663.54
608.062	14044.46
608.257	13868.33
608.453	13886.76
608.649	14042.41
608.845	13745.45
609.041	13985.07
609.236	13737.26
609.432	13782.32
609.628	13638.96
609.824	13618.48
610.019	13667.63
610.215	13684.02
610.411	13696.3
610.606	13356.34
610.802	13464.88
610.998	13503.79
611.193	13458.74
611.389	13264.18
611.584	13511.99
611.78	13337.91
611.976	13350.2
612.171	13249.85
612.367	13061.43
612.562	13290.81
612.758	13006.14
612.953	12950.84
613.149	12864.83
613.344	12881.21
613.539	13024.57
613.735	12954.94
613.93	13241.65
614.126	13061.43
614.321	13176.12
614.517	13063.48
614.712	12963.13
614.907	12989.75
615.103	13053.24
615.298	12889.4
615.493	12838.2
615.688	12825.92
615.884	13022.52
616.079	12647.74
616.274	12664.13
616.47	12752.19
616.665	12649.79
616.86	12942.65
617.055	12678.46
617.25	12717.37
617.445	12737.85
617.641	12473.67
617.836	12524.86
618.031	12371.27
618.226	12397.89
618.421	12189
618.616	12412.23
618.811	12000.58
619.006	12180.81
619.201	12033.35
619.396	12332.36
619.591	11894.09
619.786	12070.22
619.981	12285.25
620.176	12068.17
620.371	11855.18
620.566	11623.76
620.761	12031.3
620.956	11711.82
621.151	11818.32
621.346	11935.05
621.541	11455.83
621.735	11742.54
621.93	11361.62
622.125	11484.5
622.32	10956.12
622.515	11279.7
622.709	11111.77
622.904	11320.66
623.099	11058.52
623.294	11119.96
623.488	10853.72
623.683	11079
623.878	10657.12
624.072	10804.57
624.267	10780
624.462	10900.83
624.656	10605.92
624.851	10771.8
625.046	10392.93
625.24	10323.3
625.435	10311.01
625.629	10483.04
625.824	10204.52
626.018	10282.34
626.213	9981.29
626.407	10222.95
626.602	9973.1
626.796	9903.46
626.991	10141.03
627.185	9893.23
627.38	9858.41
627.574	9950.57
627.768	9801.07
627.963	9581.93
628.157	9700.72
628.352	9758.06
628.546	9383.28
628.74	9448.82
628.935	9545.07
629.129	9579.89
629.323	9424.24
629.517	9399.66
629.712	9256.31
629.906	9391.47
630.1	9153.91
630.294	9096.57
630.489	8994.17
630.683	8838.52
630.877	8889.72
631.071	8957.3
631.265	9112.95
631.459	8719.74
631.653	8932.73
631.848	8662.4
632.042	8756.6
632.236	8736.12
632.43	8457.6
632.624	8664.44
632.818	8508.8
633.012	8588.67
633.206	8396.16
633.4	8476.03
633.594	8349.06
633.788	8312.19
633.982	8271.23
634.176	8213.89
634.369	8248.71
634.563	8029.57
634.757	8007.05
634.951	8084.87
635.145	7986.57
635.339	8035.72
635.533	7869.83
635.726	7990.66
635.92	7916.94
636.114	7779.72
636.308	7830.92
636.501	7652.75
636.695	7759.24
636.889	7753.1
637.083	7576.97
637.276	7359.89
637.47	7556.49
637.664	7456.14
637.857	7380.37
638.051	7361.94
638.244	7359.89
638.438	7282.06
638.632	7413.13
638.825	7243.15
639.019	7179.67
639.212	7112.08
639.406	7255.44
639.599	7050.64
639.793	7005.59
639.986	6927.77
640.18	7054.74
640.373	7038.36
640.567	6886.81
640.76	6733.21
640.954	6684.06
641.147	6776.22
641.34	6829.46
641.534	6706.59
641.727	6614.43
641.92	6682.01
642.114	6483.36
642.307	6507.93
642.5	6589.85
642.694	6393.25
642.887	6532.51
643.08	6591.9
643.273	6456.73
643.467	6286.75
643.66	6280.61
643.853	6215.07
644.046	6251.94
644.239	6450.59
644.432	6004.13
644.626	6067.62
644.819	6200.74
645.012	6086.05
645.205	6145.44
645.398	6086.05
645.591	6026.66
645.784	5971.36
645.977	5817.77
646.17	6020.52
646.363	5840.29
646.556	5639.59
646.749	5799.34
646.942	5770.66
647.135	5637.55
647.328	5844.39
647.521	5672.36
647.714	5588.39
647.907	5664.17
648.099	5596.59
648.292	5574.06
648.485	5668.27
648.678	5463.47
648.871	5502.38
649.064	5393.84
649.256	5381.55
649.449	5430.7
649.642	5436.85
649.835	5172.66
650.027	5213.62
650.22	5117.36
650.413	5201.33
650.605	5350.83
650.798	5035.44
650.991	5180.85
651.183	5182.9
651.376	5066.16
651.568	5025.2
651.761	5037.49
651.954	5025.2
652.146	4943.28
652.339	4951.48
652.531	5012.92
652.724	4955.57
652.916	4738.49
653.109	4789.69
653.301	4797.88
653.494	4875.7
653.686	4724.15
653.879	4844.98
654.071	4799.93
654.263	4601.27
654.456	4707.77
654.648	4593.08
654.84	4652.47
655.033	4502.97
655.225	4631.99
655.417	4517.31
655.61	4447.68
655.802	4523.45
655.994	4558.27
656.186	4451.77
656.379	4480.44
656.571	4339.13
656.763	4312.51
656.955	4416.96
657.148	4470.2
657.34	4349.37
657.532	4265.41
657.724	4197.82
657.916	4357.57
658.108	4230.59
658.3	4130.24
658.492	4068.8
658.684	4128.19
658.876	4197.82
659.068	4158.91
659.26	4255.17
659.452	4033.99
659.644	3907.01
659.836	4165.06
660.028	3986.88
660.22	3939.78
660.412	3943.88
660.604	3864.01
660.796	4033.99
660.988	3870.15
661.18	3911.11
661.372	3859.91
661.563	3937.73
661.755	3771.85
661.947	3802.57
662.139	3775.94
662.331	3773.89
662.522	3691.98
662.714	3851.72
662.906	3706.31
663.097	3648.97
663.289	3640.78
663.481	3603.91
663.673	3550.67
663.864	3603.91
664.056	3552.71
664.247	3569.1
664.439	3550.67
664.631	3417.55
664.822	3499.47
665.014	3450.32
665.205	3651.02
665.397	3364.3
665.588	3501.51
665.78	3405.26
665.971	3403.21
666.163	3409.36
666.354	3306.96
666.546	3268.05
666.737	3300.81
666.929	3333.58
667.12	3296.72
667.311	3382.73
667.503	3347.92
667.694	3325.39
667.885	3182.03
668.077	3159.5
668.268	3134.93
668.459	3182.03
668.651	3182.03
668.842	3190.22
669.033	3048.91
669.224	3104.21
669.416	3192.27
669.607	3079.63
669.798	3020.24
669.989	3059.15
670.18	3061.2
670.371	3003.86
670.563	3020.24
670.754	3059.15
670.945	3073.49
671.136	3053.01
671.327	2911.7
671.518	2993.62
671.709	2960.85
671.9	2897.36
672.091	3141.07
672.282	2874.84
672.473	2905.56
672.664	2842.07
672.855	2891.22
673.046	2940.37
673.237	2930.13
673.428	2749.91
673.619	2774.49
673.809	2799.06
674	2913.75
674.191	2741.72
674.382	2776.53
674.573	2719.19
674.764	2792.92
674.954	2782.68
675.145	2700.76
675.336	2831.83
675.527	2774.49
675.717	2811.35
675.908	2633.18
676.099	2747.86
676.289	2747.86
676.48	2739.67
676.671	2637.27
676.861	2797.01
677.052	2643.42
677.243	2756.05
677.433	2692.57
677.624	2674.14
677.814	2649.56
678.005	2690.52
678.195	2772.44
678.386	2608.6
678.576	2635.22
678.767	2512.35
678.957	2575.83
679.148	2684.38
679.338	2633.18
679.529	2622.94
679.719	2526.68
679.909	2672.09
680.1	2547.16
680.29	2598.36
680.481	2461.15
680.671	2674.14
680.861	2534.87
681.052	2588.12
681.242	2561.5
681.432	2573.78
681.622	2414.04
681.813	2452.95
682.003	2534.87
682.193	2395.61
682.383	2510.3
682.573	2434.52
682.764	2530.78
682.954	2477.53
683.144	2358.75
683.334	2541.02
683.524	2412
683.714	2461.15
683.904	2584.02
684.094	2438.62
684.284	2446.81
684.474	2518.49
684.664	2368.99
684.854	2457.05
685.044	2440.67
685.234	2473.43
685.424	2385.37
685.614	2354.65
685.804	2340.32
685.994	2366.94
686.184	2364.89
686.374	2305.5
686.564	2338.27
686.753	2371.04
686.943	2272.73
687.133	2338.27
687.323	2231.77
687.513	2334.17
687.702	2219.49
687.892	2272.73
688.082	2201.05
688.272	2227.68
688.461	2217.44
688.651	2229.73
688.841	2129.38
689.03	2182.62
689.22	2203.1
689.41	2182.62
689.599	2158.05
689.789	2153.95
689.979	2115.04
690.168	2160.1
690.358	2141.66
690.547	2231.77
690.737	2086.37
690.926	2108.9
691.116	2108.9
691.305	2168.29
691.495	2014.69
691.684	2125.28
691.874	2088.42
692.063	2051.55
692.252	2067.94
692.442	2129.38
692.631	2045.41
692.82	2026.98
693.01	2035.17
693.199	1924.58
693.388	2037.22
693.578	1936.87
693.767	1928.67
693.956	1949.15
694.146	1957.35
694.335	1936.87
694.524	1900
694.713	1953.25
694.902	1922.53
695.092	1963.49
695.281	1861.09
695.47	1971.68
695.659	1897.96
695.848	1969.63
696.037	1934.82
696.226	1904.1
696.415	1859.04
696.604	1897.96
696.793	1857
696.982	1818.08
697.171	1947.11
697.36	1859.04
697.549	1773.03
697.738	1824.23
697.927	1854.95
698.116	1895.91
698.305	1949.15
698.494	1779.17
698.683	1824.23
698.872	1773.03
699.061	1873.38
699.25	1801.7
699.438	1889.76
699.627	1773.03
699.816	1840.61
700.005	1818.08
700.193	1807.84
700.382	1832.42
700.571	1920.48
700.76	1789.41
700.948	1900
701.137	1777.12
701.326	1842.66
701.514	1809.89
701.703	1824.23
701.892	1764.84
702.08	1809.89
702.269	1732.07
702.457	1809.89
702.646	1834.47
702.834	1736.17
703.023	1822.18
703.212	1732.07
703.4	1752.55
703.589	1781.22
703.777	1799.65
703.965	1799.65
704.154	1816.04
704.342	1715.69
704.531	1744.36
704.719	1789.41
704.907	1828.32
705.096	1740.26
705.284	1777.12
705.472	1781.22
705.661	1766.89
705.849	1813.99
706.037	1799.65
706.226	1684.97
706.414	1756.65
706.602	1801.7
706.79	1799.65
706.979	1781.22
707.167	1715.69
707.355	1666.53
707.543	1750.5
707.731	1783.27
707.919	1736.17
708.107	1715.69
708.296	1781.22
708.484	1822.18
708.672	1836.52
708.86	1834.47
709.048	1766.89
709.236	1713.64
709.424	1775.08
709.612	1773.03
709.8	1748.45
709.988	1750.5
710.176	1760.74
710.364	1834.47
710.551	1789.41
710.739	1830.37
710.927	1777.12
711.115	1727.97
711.303	1770.98
711.491	1818.08
711.679	1730.02
711.866	1848.8
712.054	1859.04
712.242	1711.59
712.43	1854.95
712.617	1805.8
712.805	1850.85
712.993	1904.1
713.181	1750.5
713.368	1838.56
713.556	1699.3
713.744	1809.89
713.931	1754.6
714.119	1723.88
714.306	1781.22
714.494	1828.32
714.682	1717.73
714.869	1674.73
715.057	1830.37
715.244	1748.45
715.432	1816.04
715.619	1832.42
715.807	1742.31
715.994	1816.04
716.182	1672.68
716.369	1863.14
716.556	1842.66
716.744	1717.73
716.931	1752.55
717.119	1803.75
717.306	1822.18
717.493	1936.87
717.681	1793.51
717.868	1871.33
718.055	1857
718.242	1809.89
718.43	1873.38
718.617	1813.99
718.804	1781.22
718.991	1783.27
719.179	1818.08
719.366	1801.7
719.553	1822.18
719.74	1895.91
719.927	1832.42
720.114	1834.47
720.301	1785.32
720.488	1707.49
720.676	1750.5
720.863	1797.6
721.05	1920.48
721.237	1813.99
721.424	1764.84
721.611	1807.84
721.798	1795.56
721.985	1789.41
722.172	1650.15
722.358	1740.26
722.545	1897.96
722.732	1742.31
722.919	1865.19
723.106	1797.6
723.293	1748.45
723.48	1756.65
723.667	1799.65
723.853	1775.08
724.04	1766.89
724.227	1807.84
724.414	1818.08
724.6	1768.93
724.787	1793.51
724.974	1986.02
725.161	1840.61
725.347	1773.03
725.534	1863.14
725.72	1834.47
725.907	1879.52
726.094	1881.57
726.28	1842.66
726.467	1768.93
726.653	1840.61
726.84	1895.91
727.027	1912.29
727.213	1705.45
727.4	1824.23
727.586	1936.87
727.773	1740.26
727.959	1830.37
728.145	1904.1
728.332	1830.37
728.518	1809.89
728.705	1748.45
728.891	1770.98
729.077	1748.45
729.264	1881.57
729.45	1893.86
729.636	1813.99
729.823	1719.78
730.009	1859.04
730.195	1809.89
730.382	1908.19
730.568	1768.93
730.754	1805.8
730.94	1766.89
731.126	1846.76
731.313	1916.39
731.499	1793.51
731.685	1824.23
731.871	1785.32
732.057	1871.33
732.243	1826.28
732.429	1789.41
732.615	1830.37
732.801	1773.03
732.987	1762.79
733.173	1805.8
733.359	1838.56
733.545	1895.91
733.731	1719.78
733.917	1867.24
734.103	1777.12
734.289	1842.66
734.475	1758.69
734.661	1877.48
734.847	1955.3
735.033	1895.91
735.219	1789.41
735.404	1766.89
735.59	1850.85
735.776	1768.93
735.962	1756.65
736.148	1875.43
736.333	1715.69
736.519	1859.04
736.705	1760.74
736.89	1682.92
737.076	1805.8
737.262	1787.36
737.447	1670.63
737.633	1801.7
737.819	1871.33
738.004	1811.94
738.19	1813.99
738.375	1789.41
738.561	1797.6
738.747	1678.82
738.932	1756.65
739.118	1785.32
739.303	1803.75
739.489	1748.45
739.674	1756.65
739.859	1701.35
740.045	1897.96
740.23	1719.78
740.416	1633.77
740.601	1762.79
740.786	1703.4
740.972	1709.54
741.157	1693.16
741.342	1580.52
741.528	1715.69
741.713	1695.21
741.898	1635.82
742.084	1682.92
742.269	1603.05
742.454	1713.64
742.639	1691.11
742.824	1691.11
743.01	1736.17
743.195	1658.34
743.38	1551.85
743.565	1703.4
743.75	1646.05
743.935	1699.3
744.12	1637.86
744.305	1601
744.49	1572.33
744.675	1605.1
744.86	1592.81
745.045	1584.62
745.23	1545.7
745.415	1598.95
745.6	1650.15
745.785	1578.47
745.97	1652.2
746.155	1545.7
746.34	1568.23
746.525	1533.42
746.71	1609.19
746.895	1396.2
747.079	1431.02
747.264	1510.89
747.449	1463.79
747.634	1488.36
747.819	1488.36
748.003	1359.34
748.188	1414.63
748.373	1308.14
748.557	1478.12
748.742	1404.39
748.927	1455.59
749.111	1467.88
749.296	1420.78
749.481	1412.59
749.665	1381.87
749.85	1416.68
750.034	1375.72
750.219	1453.55
750.404	1373.68
750.588	1363.44
750.773	1297.9
750.957	1455.59
751.141	1345
751.326	1357.29
751.51	1240.56
751.695	1271.28
751.879	1340.91
752.064	1418.73
752.248	1304.04
752.432	1365.48
752.617	1398.25
752.801	1342.96
752.985	1314.28
753.17	1308.14
753.354	1248.75
753.538	1191.41
753.722	1258.99
753.907	1170.93
754.091	1215.98
754.275	1136.11
754.459	1199.6
754.643	1146.35
754.828	1355.24
755.012	1127.92
755.196	1076.72
755.38	1119.73
755.564	1091.06
755.748	1056.24
755.932	1095.15
756.116	1187.31
756.3	1144.3
756.484	1086.96
756.668	1052.14
756.852	998.9
757.036	1070.58
757.22	1011.18
757.404	1048.05
757.588	1084.91
757.772	1011.18
757.956	1039.86
758.14	1097.2
758.323	1002.99
758.507	1127.92
758.691	1074.67
758.875	1046
759.059	1076.72
759.242	923.12
759.426	972.27
759.61	996.85
759.794	1046
759.977	851.44
760.161	1019.38
760.345	880.11
760.528	984.56
760.712	894.45
760.895	914.93
761.079	896.5
761.263	929.27
761.446	929.27
761.63	1027.57
761.813	953.84
761.997	947.7
762.18	939.51
762.364	945.65
762.547	820.72
762.731	896.5
762.914	873.97
763.098	859.63
763.281	876.02
763.464	867.83
763.648	906.74
763.831	890.35
764.015	871.92
764.198	912.88
764.381	890.35
764.564	970.23
764.748	869.87
764.931	884.21
765.114	833.01
765.297	843.25
765.481	759.28
765.664	914.93
765.847	816.63
766.03	847.35
766.213	812.53
766.397	712.18
766.58	769.52
766.763	933.36
766.946	804.34
767.129	882.16
767.312	806.39
767.495	855.54
767.678	767.48
767.861	718.33
768.044	865.78
768.227	781.81
768.41	794.1
768.593	822.77
768.776	790
768.959	728.56
769.142	757.24
769.324	781.81
769.507	724.47
769.69	792.05
769.873	802.29
770.056	781.81
770.239	794.1
770.421	822.77
770.604	808.44
770.787	751.09
770.97	667.13
771.152	630.26
771.335	701.94
771.518	740.85
771.7	761.33
771.883	736.76
772.066	742.9
772.248	708.09
772.431	761.33
772.613	691.7
772.796	669.17
772.978	800.24
773.161	822.77
773.343	738.8
773.526	712.18
773.708	634.36
773.891	650.74
774.073	622.07
774.256	667.13
774.438	634.36
774.621	654.84
774.803	691.7
774.985	683.51
775.168	693.75
775.35	658.93
775.532	650.74
775.715	658.93
775.897	675.32
776.079	570.87
776.261	650.74
776.444	642.55
776.626	601.59
776.808	585.21
776.99	673.27
777.173	587.26
777.355	587.26
777.537	599.54
777.719	634.36
777.901	550.39
778.083	595.45
778.265	548.34
778.447	611.83
778.629	527.86
778.811	558.58
778.993	560.63
779.175	597.49
779.357	644.6
779.539	552.44
779.721	513.53
779.903	564.73
780.085	447.99
780.267	566.78
780.449	538.1
780.631	615.93
780.812	519.67
780.994	554.49
781.176	507.38
781.358	503.29
781.54	460.28
781.721	515.58
781.903	493.05
782.085	474.62
782.267	491
782.448	415.23
782.63	431.61
782.812	497.14
782.993	538.1
783.175	503.29
783.357	511.48
783.538	464.38
783.72	458.23
783.901	445.95
784.083	400.89
784.264	409.08
784.446	415.23
784.627	435.71
784.809	472.57
784.99	445.95
785.172	466.42
785.353	456.19
785.535	429.56
785.716	345.59
785.897	372.22
786.079	435.71
786.26	431.61
786.441	443.9
786.623	347.64
786.804	388.6
786.985	355.83
787.167	390.65
787.348	413.18
787.529	398.84
787.71	396.79
787.891	404.99
788.073	339.45
788.254	437.75
788.435	413.18
788.616	343.55
788.797	353.79
788.978	347.64
789.159	321.02
789.34	364.03
789.522	323.07
789.703	298.49
789.884	333.31
790.065	339.45
790.246	390.65
790.427	325.12
790.607	275.96
790.788	374.27
790.969	310.78
791.15	243.2
791.331	271.87
791.512	327.16
791.693	269.82
791.874	282.11
792.054	351.74
792.235	273.92
792.416	374.27
792.597	265.72
792.778	310.78
792.958	290.3
793.139	298.49
793.32	353.79
793.5	306.68
793.681	327.16
793.862	232.96
794.042	341.5
794.223	259.58
794.404	273.92
794.584	292.35
794.765	210.43
794.945	290.3
795.126	325.12
795.306	282.11
795.487	179.71
795.667	275.96
795.848	284.16
796.028	249.34
796.209	314.88
796.389	278.01
796.57	249.34
796.75	224.76
796.93	220.67
797.111	210.43
797.291	251.39
797.471	282.11
797.652	261.63
797.832	273.92
798.012	286.2
798.192	189.95
798.373	200.19
798.553	265.72
798.733	259.58
798.913	300.54
799.093	245.24
799.274	218.62
799.454	259.58
799.634	257.53
799.814	235
799.994	237.05
800.174	216.57
800.354	189.95
800.534	187.9
800.714	239.1
800.894	194.05
801.074	206.33
801.254	206.33
801.434	159.23
801.614	126.46
801.794	210.43
801.974	808.44
802.154	224.76
802.334	200.19
802.514	249.34
802.693	185.85
802.873	200.19
803.053	302.59
803.233	171.52
803.413	200.19
803.592	196.09
803.772	177.66
803.952	235
804.131	87.55
804.311	175.61
804.491	325.12
804.67	105.98
804.85	159.23
805.03	212.48
805.209	347.64
805.389	136.7
805.568	183.81
805.748	189.95
805.928	177.66
806.107	167.42
806.287	175.61
806.466	151.04
806.646	226.81
806.825	185.85
807.004	216.57
807.184	153.09
807.363	249.34
807.543	183.81
807.722	171.52
807.901	155.13
808.081	218.62
808.26	114.17
808.439	171.52
808.619	189.95
808.798	183.81
808.977	136.7
809.156	192
809.336	110.08
809.515	130.56
809.694	167.42
809.873	142.85
810.052	214.52
810.231	165.37
810.411	130.56
810.59	185.85
810.769	192
810.948	187.9
811.127	71.17
811.306	155.13
811.485	204.28
811.664	214.52
811.843	202.24
812.022	151.04
812.201	194.05
812.38	134.65
812.559	118.27
812.737	171.52
812.916	189.95
813.095	146.94
813.274	136.7
813.453	130.56
813.632	208.38
813.811	161.28
813.989	151.04
814.168	171.52
814.347	71.17
814.526	151.04
814.704	130.56
814.883	183.81
815.062	89.6
815.24	222.72
815.419	79.36
815.598	177.66
815.776	103.93
815.955	179.71
816.133	50.69
816.312	151.04
816.49	85.5
816.669	153.09
816.847	136.7
817.026	122.37
817.204	151.04
817.383	85.5
817.561	56.83
817.74	161.28
817.918	151.04
818.097	134.65
818.275	60.93
818.453	148.99
818.632	159.23
818.81	120.32
818.988	120.32
819.167	89.6
819.345	122.37
819.523	167.42
819.701	79.36
819.879	134.65
820.058	167.42
820.236	114.17
820.414	69.12
820.592	62.98
820.77	110.08
820.948	118.27
821.127	112.13
821.305	77.31
821.483	99.84
821.661	192
821.839	71.17
822.017	120.32
822.195	155.13
822.373	118.27
822.551	95.74
822.729	167.42
822.907	116.22
823.085	50.69
823.262	161.28
823.44	112.13
823.618	177.66
823.796	118.27
823.974	122.37
824.152	50.69
824.329	89.6
824.507	103.93
824.685	120.32
824.863	62.98
825.04	79.36
825.218	126.46
825.396	15.87
825.574	101.89
825.751	118.27
825.929	71.17
826.107	48.64
826.284	85.5
826.462	62.98
826.639	151.04
826.817	19.97
826.994	177.66
827.172	19.97
827.349	161.28
827.527	81.41
827.704	159.23
827.882	134.65
828.059	134.65
828.237	79.36
828.414	130.56
828.591	44.54
828.769	132.61
828.946	67.07
829.124	126.46
829.301	128.51
829.478	116.22
829.655	130.56
829.833	77.31
830.01	-12.8
830.187	140.8
830.364	81.41
830.542	138.75
830.719	130.56
830.896	65.02
831.073	95.74
831.25	52.74
831.427	118.27
831.604	62.98
831.782	44.54
831.959	99.84
832.136	75.26
832.313	167.42
832.49	120.32
832.667	71.17
832.844	79.36
833.021	77.31
833.198	97.79
833.374	7.68
833.551	32.26
833.728	151.04
833.905	-16.9
834.082	26.11
834.259	42.5
834.436	60.93
834.612	69.12
834.789	110.08
834.966	17.92
835.143	69.12
835.319	105.98
835.496	69.12
835.673	95.74
835.85	87.55
836.026	79.36
836.203	87.55
836.38	65.02
836.556	85.5
836.733	48.64
836.909	101.89
837.086	28.16
837.262	97.79
837.439	87.55
837.616	85.5
837.792	15.87
837.968	11.78
838.145	46.59
838.321	26.11
838.498	81.41
838.674	89.6
838.851	151.04
839.027	-18.94
839.203	3.58
839.38	110.08
839.556	-72.19
839.732	148.99
839.909	153.09
840.085	44.54
840.261	24.06
840.437	105.98
840.614	110.08
840.79	52.74
840.966	99.84
841.142	73.21
841.318	52.74
841.494	110.08
841.671	130.56
841.847	77.31
842.023	52.74
842.199	87.55
842.375	112.13
842.551	93.69
842.727	46.59
842.903	153.09
843.079	44.54
843.255	144.89
843.431	-16.9
843.607	91.65
843.783	-14.85
843.959	87.55
844.134	46.59
844.31	114.17
844.486	-41.47
844.662	-8.7
844.838	62.98
845.013	56.83
845.189	73.21
845.365	103.93
845.541	28.16
845.716	44.54
845.892	71.17
846.068	11.78
846.244	83.45
846.419	44.54
846.595	46.59
846.77	42.5
846.946	52.74
847.122	19.97
847.297	-0.51
847.473	56.83
847.648	77.31
847.824	46.59
847.999	44.54
848.175	67.07
848.35	46.59
848.526	77.31
848.701	65.02
848.876	48.64
849.052	75.26
849.227	42.5
849.403	38.4
849.578	28.16
849.753	-41.47
849.929	95.74
850.104	17.92
850.279	118.27
850.454	108.03
850.63	79.36
850.805	24.06
850.98	44.54
851.155	28.16
851.33	54.78
851.505	-18.94
851.681	110.08
851.856	36.35
852.031	73.21
852.206	65.02
852.381	56.83
852.556	110.08
852.731	50.69
852.906	15.87
853.081	130.56
853.256	73.21
853.431	71.17
853.606	3.58
853.781	52.74
853.956	19.97
854.131	58.88
854.305	15.87
854.48	79.36
854.655	-20.99
854.83	44.54
855.005	60.93
855.18	15.87
855.354	22.02
855.529	-12.8
855.704	97.79
855.879	60.93
856.053	28.16
856.228	60.93
856.403	-12.8
856.577	34.3
856.752	-0.51
856.926	112.13
857.101	32.26
857.276	110.08
857.45	42.5
857.625	60.93
857.799	155.13
857.974	46.59
858.148	15.87
858.323	15.87
858.497	83.45
858.672	24.06
858.846	44.54
859.02	38.4
859.195	77.31
859.369	30.21
859.543	77.31
859.718	40.45
859.892	22.02
860.066	83.45
860.241	-0.51
860.415	34.3
860.589	-45.57
860.763	-12.8
860.938	38.4
861.112	44.54
861.286	3.58
861.46	52.74
861.634	30.21
861.808	93.69
861.982	46.59
862.157	19.97
862.331	34.3
862.505	38.4
862.679	-2.56
862.853	60.93
863.027	-45.57
863.201	89.6
863.375	71.17
863.549	36.35
863.722	1.54
863.896	101.89
864.07	34.3
864.244	105.98
864.418	26.11
864.592	122.37
864.766	-35.33
864.939	79.36
865.113	-37.38
865.287	44.54
865.461	40.45
865.634	60.93
865.808	15.87
865.982	30.21
866.156	26.11
866.329	77.31
866.503	11.78
866.676	99.84
866.85	87.55
867.024	-41.47
867.197	79.36
867.371	85.5
867.544	22.02
867.718	-39.42
867.891	103.93
868.065	-4.61
868.238	48.64
868.412	77.31
868.585	81.41
868.759	105.98
868.932	40.45
869.105	22.02
869.279	69.12
869.452	22.02
869.625	1.54
869.799	85.5
869.972	65.02
870.145	3.58
870.319	97.79
870.492	54.78
870.665	-23.04
870.838	19.97
871.011	-29.18
871.185	-0.51
871.358	11.78
871.531	32.26
871.704	103.93
871.877	17.92
872.05	77.31
872.223	17.92
872.396	38.4
872.569	60.93
872.742	-57.86
872.915	32.26
873.088	5.63
873.261	-41.47
873.434	-10.75
873.607	-0.51
873.78	60.93
873.953	7.68
874.126	28.16
874.299	17.92
874.471	-37.38
874.644	3.58
874.817	11.78
874.99	85.5
875.163	71.17
875.335	19.97
875.508	40.45
875.681	13.82
875.853	28.16
876.026	-20.99
876.199	19.97
876.371	77.31
876.544	-16.9
876.717	-37.38
876.889	56.83
877.062	7.68
877.234	30.21
877.407	1.54
877.579	81.41
877.752	17.92
877.924	95.74
878.097	112.13
878.269	3.58
878.442	7.68
878.614	28.16
878.786	65.02
878.959	26.11
879.131	54.78
879.303	-70.14
879.476	38.4
879.648	-12.8
879.82	69.12
879.993	44.54
880.165	36.35
880.337	7.68
880.509	54.78
880.681	-10.75
880.854	-4.61
881.026	-37.38
881.198	60.93
881.37	73.21
881.542	30.21
881.714	24.06
881.886	3.58
882.058	81.41
882.23	56.83
882.402	52.74
882.574	15.87
882.746	40.45
882.918	79.36
883.09	58.88
883.262	36.35
883.434	81.41
883.606	-39.42
883.778	110.08
883.95	-35.33
884.122	28.16
884.293	101.89
884.465	5.63
884.637	62.98
884.809	54.78
884.98	83.45
885.152	19.97
885.324	60.93
885.496	-59.9
885.667	-41.47
885.839	40.45
886.011	44.54
886.182	19.97
886.354	-20.99
886.525	19.97
886.697	83.45
886.869	32.26
887.04	13.82
887.212	77.31
887.383	3.58
887.555	15.87
887.726	52.74
887.897	40.45
888.069	36.35
888.24	120.32
888.412	-78.33
888.583	97.79
888.754	101.89
888.926	95.74
889.097	-12.8
889.268	1.54
889.44	19.97
889.611	-45.57
889.782	19.97
889.953	3.58
890.125	1.54
890.296	-61.95
890.467	95.74
890.638	42.5
890.809	60.93
890.98	30.21
891.151	46.59
891.323	48.64
891.494	-8.7
891.665	36.35
891.836	-12.8
892.007	60.93
892.178	3.58
892.349	13.82
892.52	-12.8
892.691	-31.23
892.862	-43.52
893.032	15.87
893.203	40.45
893.374	3.58
893.545	124.41
893.716	73.21
893.887	56.83
894.057	19.97
894.228	19.97
894.399	44.54
894.57	77.31
894.74	32.26
894.911	28.16
895.082	11.78
895.253	-6.66
895.423	44.54
895.594	32.26
895.764	38.4
895.935	-61.95
896.106	9.73
896.276	38.4
896.447	1.54
896.617	-33.28
896.788	17.92
896.958	-33.28
897.129	-20.99
897.299	-16.9
897.47	103.93
897.64	30.21
897.81	40.45
897.981	73.21
898.151	24.06
898.322	11.78
898.492	11.78
898.662	36.35
898.832	24.06
899.003	44.54
899.173	36.35
899.343	67.07
899.513	54.78
