Data from USB4F104151__221__14-45-32-507.txt Node

Date: Thu Mar 13 14:45:32 EDT 2025
User: louis
Spectrometer: USB4F10415
Trigger mode: 4
Integration Time (sec): 2.000000E-2
Scans to average: 1
Electric dark correction enabled: true
Nonlinearity correction enabled: false
Boxcar width: 0
XAxis mode: Wavelengths
Number of Pixels in Spectrum: 3648
>>>>>Begin Spectral Data<<<<<
178.204	-171.69
178.424	-171.69
178.644	-171.69
178.864	-120.49
179.084	-169.64
179.304	61.78
179.524	-32.43
179.744	-5.8
179.964	29.01
180.184	-9.9
180.404	-22.19
180.624	-11.95
180.844	69.97
181.064	-38.57
181.283	-54.95
181.503	18.77
181.723	-3.75
181.943	-85.67
182.163	149.84
182.383	-61.1
182.602	61.78
182.822	100.69
183.042	65.88
183.262	2.39
183.482	10.58
183.701	-18.09
183.921	-7.85
184.141	-22.19
184.361	20.82
184.58	24.92
184.8	-20.14
185.02	12.63
185.239	51.54
185.459	59.73
185.679	59.73
185.898	-3.75
186.118	53.59
186.338	12.63
186.557	35.16
186.777	-65.19
186.997	35.16
187.216	-54.95
187.436	137.56
187.655	51.54
187.875	51.54
188.095	-22.19
188.314	59.73
188.534	51.54
188.753	18.77
188.973	35.16
189.192	51.54
189.412	67.92
189.631	69.97
189.851	43.35
190.07	92.5
190.29	31.06
190.509	-38.57
190.729	33.11
190.948	26.96
191.168	145.75
191.387	69.97
191.607	-1.71
191.826	-5.8
192.045	18.77
192.265	18.77
192.484	-13.99
192.704	78.16
192.923	4.44
193.142	74.07
193.362	43.35
193.581	92.5
193.8	72.02
194.02	59.73
194.239	67.92
194.458	8.53
194.678	-20.14
194.897	39.25
195.116	49.49
195.335	51.54
195.555	10.58
195.774	22.87
195.993	2.39
196.212	110.93
196.432	20.82
196.651	2.39
196.87	6.49
197.089	67.92
197.308	31.06
197.528	51.54
197.747	26.96
197.966	26.96
198.185	102.74
198.404	-46.76
198.623	43.35
198.842	121.17
199.062	43.35
199.281	4.44
199.5	35.16
199.719	35.16
199.938	47.44
200.157	18.77
200.376	51.54
200.595	115.03
200.814	2.39
201.033	63.83
201.252	16.73
201.471	55.64
201.69	100.69
201.909	-7.85
202.128	72.02
202.347	72.02
202.566	-30.38
202.785	12.63
203.004	31.06
203.223	84.31
203.442	47.44
203.661	-36.52
203.879	20.82
204.098	53.59
204.317	45.4
204.536	86.36
204.755	57.68
204.974	51.54
205.193	63.83
205.411	76.12
205.63	10.58
205.849	31.06
206.068	112.98
206.287	-30.38
206.505	47.44
206.724	63.83
206.943	-3.75
207.162	47.44
207.381	10.58
207.599	69.97
207.818	112.98
208.037	10.58
208.255	24.92
208.474	104.79
208.693	2.39
208.911	-13.99
209.13	18.77
209.349	55.64
209.567	-5.8
209.786	47.44
210.005	102.74
210.223	47.44
210.442	78.16
210.661	43.35
210.879	55.64
211.098	31.06
211.316	67.92
211.535	63.83
211.753	76.12
211.972	72.02
212.191	76.12
212.409	-3.75
212.628	51.54
212.846	35.16
213.065	-9.9
213.283	69.97
213.502	-3.75
213.72	-9.9
213.938	59.73
214.157	98.64
214.375	59.73
214.594	6.49
214.812	98.64
215.031	0.34
215.249	12.63
215.467	57.68
215.686	-50.86
215.904	59.73
216.122	-42.67
216.341	74.07
216.559	80.21
216.778	59.73
216.996	67.92
217.214	43.35
217.432	-50.86
217.651	47.44
217.869	45.4
218.087	37.2
218.306	47.44
218.524	39.25
218.742	53.59
218.96	84.31
219.179	49.49
219.397	22.87
219.615	121.17
219.833	31.06
220.051	-20.14
220.27	76.12
220.488	67.92
220.706	18.77
220.924	55.64
221.142	35.16
221.36	76.12
221.578	-40.62
221.796	-32.43
222.015	43.35
222.233	14.68
222.451	51.54
222.669	35.16
222.887	84.31
223.105	29.01
223.323	76.12
223.541	-1.71
223.759	72.02
223.977	43.35
224.195	102.74
224.413	100.69
224.631	49.49
224.849	0.34
225.067	51.54
225.285	-30.38
225.503	4.44
225.721	-9.9
225.939	20.82
226.157	59.73
226.375	63.83
226.592	31.06
226.81	-3.75
227.028	35.16
227.246	94.55
227.464	29.01
227.682	20.82
227.9	92.5
228.117	43.35
228.335	53.59
228.553	59.73
228.771	35.16
228.989	51.54
229.206	94.55
229.424	8.53
229.642	31.06
229.86	76.12
230.077	45.4
230.295	51.54
230.513	76.12
230.731	106.84
230.948	67.92
231.166	80.21
231.384	51.54
231.601	18.77
231.819	18.77
232.037	-1.71
232.254	-7.85
232.472	102.74
232.689	-59.05
232.907	59.73
233.125	-1.71
233.342	35.16
233.56	37.2
233.777	-7.85
233.995	-13.99
234.213	18.77
234.43	76.12
234.648	-32.43
234.865	-22.19
235.083	143.7
235.3	63.83
235.518	98.64
235.735	104.79
235.953	12.63
236.17	31.06
236.388	39.25
236.605	102.74
236.822	153.94
237.04	69.97
237.257	10.58
237.475	6.49
237.692	2.39
237.909	45.4
238.127	26.96
238.344	84.31
238.562	84.31
238.779	35.16
238.996	16.73
239.214	-54.95
239.431	53.59
239.648	37.2
239.865	76.12
240.083	12.63
240.3	59.73
240.517	59.73
240.735	55.64
240.952	72.02
241.169	45.4
241.386	14.68
241.603	108.88
241.821	-38.57
242.038	43.35
242.255	72.02
242.472	-30.38
242.689	18.77
242.907	94.55
243.124	59.73
243.341	110.93
243.558	-26.28
243.775	-5.8
243.992	-18.09
244.209	45.4
244.426	53.59
244.643	31.06
244.86	20.82
245.078	39.25
245.295	43.35
245.512	20.82
245.729	6.49
245.946	59.73
246.163	51.54
246.38	47.44
246.597	106.84
246.814	92.5
247.031	39.25
247.248	18.77
247.464	84.31
247.681	45.4
247.898	22.87
248.115	94.55
248.332	65.88
248.549	131.41
248.766	69.97
248.983	26.96
249.2	72.02
249.417	67.92
249.633	-48.81
249.85	35.16
250.067	4.44
250.284	4.44
250.501	-20.14
250.717	35.16
250.934	84.31
251.151	22.87
251.368	-30.38
251.585	84.31
251.801	10.58
252.018	35.16
252.235	43.35
252.451	4.44
252.668	59.73
252.885	88.4
253.102	53.59
253.318	92.5
253.535	53.59
253.752	-9.9
253.968	47.44
254.185	61.78
254.401	-9.9
254.618	12.63
254.835	18.77
255.051	88.4
255.268	59.73
255.484	88.4
255.701	55.64
255.917	96.6
256.134	-36.52
256.351	117.08
256.567	-5.8
256.784	2.39
257	22.87
257.217	43.35
257.433	-5.8
257.65	63.83
257.866	59.73
258.082	74.07
258.299	-36.52
258.515	55.64
258.732	33.11
258.948	51.54
259.165	8.53
259.381	26.96
259.597	-44.71
259.814	41.3
260.03	22.87
260.246	-11.95
260.463	12.63
260.679	20.82
260.895	90.45
261.112	90.45
261.328	43.35
261.544	-3.75
261.761	117.08
261.977	-16.04
262.193	90.45
262.409	53.59
262.626	100.69
262.842	0.34
263.058	26.96
263.274	92.5
263.49	67.92
263.707	65.88
263.923	39.25
264.139	35.16
264.355	20.82
264.571	121.17
264.787	6.49
265.004	59.73
265.22	43.35
265.436	67.92
265.652	51.54
265.868	12.63
266.084	45.4
266.3	29.01
266.516	22.87
266.732	72.02
266.948	-61.1
267.164	18.77
267.38	43.35
267.596	39.25
267.812	82.26
268.028	110.93
268.244	29.01
268.46	33.11
268.676	18.77
268.892	10.58
269.108	90.45
269.324	37.2
269.54	67.92
269.756	0.34
269.972	-9.9
270.188	88.4
270.403	39.25
270.619	65.88
270.835	102.74
271.051	131.41
271.267	-91.82
271.483	18.77
271.698	59.73
271.914	-5.8
272.13	-1.71
272.346	47.44
272.562	0.34
272.777	31.06
272.993	57.68
273.209	29.01
273.425	53.59
273.64	18.77
273.856	121.17
274.072	55.64
274.287	59.73
274.503	108.88
274.719	39.25
274.934	57.68
275.15	-61.1
275.366	67.92
275.581	65.88
275.797	67.92
276.012	100.69
276.228	67.92
276.444	84.31
276.659	78.16
276.875	20.82
277.09	10.58
277.306	41.3
277.521	31.06
277.737	29.01
277.952	59.73
278.168	20.82
278.383	43.35
278.599	-7.85
278.814	35.16
279.03	100.69
279.245	145.75
279.461	108.88
279.676	67.92
279.892	6.49
280.107	24.92
280.322	67.92
280.538	43.35
280.753	14.68
280.969	-34.47
281.184	-9.9
281.399	55.64
281.615	84.31
281.83	10.58
282.045	-20.14
282.26	59.73
282.476	-34.47
282.691	26.96
282.906	24.92
283.122	45.4
283.337	-11.95
283.552	129.36
283.767	47.44
283.983	6.49
284.198	47.44
284.413	86.36
284.628	43.35
284.843	37.2
285.058	98.64
285.274	57.68
285.489	59.73
285.704	96.6
285.919	39.25
286.134	43.35
286.349	33.11
286.564	12.63
286.779	108.88
286.995	35.16
287.21	-67.24
287.425	43.35
287.64	72.02
287.855	98.64
288.07	57.68
288.285	74.07
288.5	55.64
288.715	61.78
288.93	-20.14
289.145	84.31
289.36	49.49
289.575	-13.99
289.79	35.16
290.004	45.4
290.219	49.49
290.434	10.58
290.649	37.2
290.864	-9.9
291.079	96.6
291.294	6.49
291.509	47.44
291.724	31.06
291.938	-38.57
292.153	102.74
292.368	18.77
292.583	14.68
292.798	8.53
293.012	49.49
293.227	96.6
293.442	29.01
293.657	-50.86
293.871	69.97
294.086	35.16
294.301	108.88
294.516	53.59
294.73	86.36
294.945	47.44
295.16	67.92
295.374	88.4
295.589	67.92
295.804	76.12
296.018	37.2
296.233	26.96
296.447	-3.75
296.662	65.88
296.877	20.82
297.091	35.16
297.306	43.35
297.52	-38.57
297.735	59.73
297.949	72.02
298.164	45.4
298.378	26.96
298.593	22.87
298.807	10.58
299.022	43.35
299.236	80.21
299.451	65.88
299.665	4.44
299.88	67.92
300.094	18.77
300.309	-38.57
300.523	-50.86
300.737	47.44
300.952	-11.95
301.166	14.68
301.381	10.58
301.595	-18.09
301.809	69.97
302.024	16.73
302.238	22.87
302.452	106.84
302.667	39.25
302.881	88.4
303.095	33.11
303.309	59.73
303.524	80.21
303.738	94.55
303.952	53.59
304.166	90.45
304.381	-13.99
304.595	59.73
304.809	53.59
305.023	-34.47
305.237	80.21
305.452	26.96
305.666	29.01
305.88	94.55
306.094	14.68
306.308	35.16
306.522	100.69
306.736	26.96
306.95	6.49
307.164	80.21
307.379	59.73
307.593	94.55
307.807	59.73
308.021	78.16
308.235	67.92
308.449	-1.71
308.663	31.06
308.877	47.44
309.091	31.06
309.305	-3.75
309.519	4.44
309.733	84.31
309.947	-3.75
310.161	112.98
310.374	29.01
310.588	76.12
310.802	-28.33
311.016	22.87
311.23	63.83
311.444	-9.9
311.658	43.35
311.872	12.63
312.085	-65.19
312.299	119.12
312.513	110.93
312.727	45.4
312.941	-11.95
313.154	45.4
313.368	72.02
313.582	102.74
313.796	90.45
314.009	35.16
314.223	67.92
314.437	37.2
314.651	65.88
314.864	59.73
315.078	61.78
315.292	45.4
315.505	2.39
315.719	125.27
315.933	102.74
316.146	10.58
316.36	-9.9
316.573	96.6
316.787	20.82
317.001	10.58
317.214	92.5
317.428	29.01
317.641	-9.9
317.855	72.02
318.068	59.73
318.282	86.36
318.495	92.5
318.709	59.73
318.922	41.3
319.136	35.16
319.349	37.2
319.563	53.59
319.776	59.73
319.99	45.4
320.203	104.79
320.417	47.44
320.63	41.3
320.843	51.54
321.057	26.96
321.27	86.36
321.483	127.32
321.697	37.2
321.91	84.31
322.124	131.41
322.337	39.25
322.55	67.92
322.763	84.31
322.977	43.35
323.19	69.97
323.403	96.6
323.617	26.96
323.83	37.2
324.043	61.78
324.256	59.73
324.469	39.25
324.683	125.27
324.896	-16.04
325.109	145.75
325.322	8.53
325.535	80.21
325.748	98.64
325.962	20.82
326.175	26.96
326.388	92.5
326.601	63.83
326.814	18.77
327.027	51.54
327.24	190.8
327.453	-36.52
327.666	76.12
327.879	2.39
328.092	26.96
328.305	53.59
328.518	0.34
328.731	47.44
328.944	10.58
329.157	63.83
329.37	98.64
329.583	155.99
329.796	49.49
330.009	6.49
330.222	-5.8
330.435	-18.09
330.648	65.88
330.861	45.4
331.073	94.55
331.286	102.74
331.499	53.59
331.712	-13.99
331.925	49.49
332.138	80.21
332.35	2.39
332.563	43.35
332.776	84.31
332.989	63.83
333.202	45.4
333.414	-22.19
333.627	90.45
333.84	39.25
334.053	117.08
334.265	-5.8
334.478	35.16
334.691	39.25
334.903	53.59
335.116	76.12
335.329	18.77
335.541	18.77
335.754	82.26
335.966	26.96
336.179	22.87
336.392	80.21
336.604	61.78
336.817	43.35
337.029	84.31
337.242	47.44
337.454	59.73
337.667	43.35
337.88	106.84
338.092	67.92
338.305	12.63
338.517	24.92
338.729	35.16
338.942	29.01
339.154	88.4
339.367	67.92
339.579	59.73
339.792	112.98
340.004	67.92
340.217	20.82
340.429	104.79
340.641	14.68
340.854	72.02
341.066	24.92
341.278	108.88
341.491	43.35
341.703	108.88
341.915	61.78
342.128	29.01
342.34	31.06
342.552	-30.38
342.764	76.12
342.977	10.58
343.189	45.4
343.401	43.35
343.613	80.21
343.826	59.73
344.038	0.34
344.25	45.4
344.462	96.6
344.674	84.31
344.886	-13.99
345.099	51.54
345.311	82.26
345.523	-5.8
345.735	-11.95
345.947	47.44
346.159	51.54
346.371	20.82
346.583	67.92
346.795	51.54
347.007	63.83
347.219	4.44
347.431	84.31
347.643	100.69
347.855	2.39
348.067	166.23
348.279	26.96
348.491	45.4
348.703	51.54
348.915	104.79
349.127	-22.19
349.339	92.5
349.551	24.92
349.763	125.27
349.975	76.12
350.187	108.88
350.399	61.78
350.61	102.74
350.822	18.77
351.034	106.84
351.246	55.64
351.458	80.21
351.669	35.16
351.881	110.93
352.093	104.79
352.305	102.74
352.517	67.92
352.728	102.74
352.94	47.44
353.152	43.35
353.363	8.53
353.575	69.97
353.787	61.78
353.999	106.84
354.21	84.31
354.422	10.58
354.633	102.74
354.845	35.16
355.057	33.11
355.268	45.4
355.48	143.7
355.692	41.3
355.903	-30.38
356.115	-13.99
356.326	102.74
356.538	72.02
356.749	67.92
356.961	98.64
357.172	72.02
357.384	43.35
357.595	151.89
357.807	12.63
358.018	102.74
358.23	26.96
358.441	108.88
358.653	-11.95
358.864	-20.14
359.075	2.39
359.287	20.82
359.498	37.2
359.709	100.69
359.921	110.93
360.132	35.16
360.344	26.96
360.555	4.44
360.766	69.97
360.977	51.54
361.189	88.4
361.4	14.68
361.611	166.23
361.823	112.98
362.034	-5.8
362.245	-16.04
362.456	26.96
362.667	61.78
362.879	51.54
363.09	43.35
363.301	-50.86
363.512	16.73
363.723	41.3
363.935	39.25
364.146	104.79
364.357	37.2
364.568	117.08
364.779	-5.8
364.99	86.36
365.201	-5.8
365.412	96.6
365.623	-1.71
365.834	76.12
366.045	37.2
366.256	90.45
366.467	108.88
366.678	72.02
366.889	2.39
367.1	16.73
367.311	110.93
367.522	26.96
367.733	-1.71
367.944	-9.9
368.155	-3.75
368.366	135.51
368.577	92.5
368.788	133.46
368.999	117.08
369.209	24.92
369.42	166.23
369.631	102.74
369.842	125.27
370.053	16.73
370.264	-5.8
370.474	67.92
370.685	84.31
370.896	43.35
371.107	74.07
371.317	82.26
371.528	51.54
371.739	43.35
371.95	43.35
372.16	14.68
372.371	-28.33
372.582	55.64
372.792	80.21
373.003	26.96
373.214	80.21
373.424	53.59
373.635	12.63
373.846	108.88
374.056	104.79
374.267	160.08
374.477	31.06
374.688	18.77
374.898	26.96
375.109	18.77
375.319	84.31
375.53	51.54
375.74	35.16
375.951	59.73
376.161	106.84
376.372	86.36
376.582	4.44
376.793	18.77
377.003	69.97
377.214	57.68
377.424	51.54
377.635	-9.9
377.845	2.39
378.055	82.26
378.266	31.06
378.476	135.51
378.686	31.06
378.897	67.92
379.107	2.39
379.317	112.98
379.528	-16.04
379.738	92.5
379.948	-46.76
380.158	110.93
380.369	0.34
380.579	110.93
380.789	92.5
380.999	31.06
381.21	59.73
381.42	141.65
381.63	100.69
381.84	84.31
382.05	59.73
382.261	78.16
382.471	51.54
382.681	63.83
382.891	80.21
383.101	43.35
383.311	76.12
383.521	86.36
383.731	35.16
383.941	166.23
384.151	110.93
384.361	125.27
384.571	92.5
384.781	69.97
384.991	117.08
385.201	51.54
385.411	129.36
385.621	18.77
385.831	112.98
386.041	29.01
386.251	43.35
386.461	92.5
386.671	78.16
386.881	67.92
387.091	-3.75
387.301	100.69
387.511	26.96
387.72	139.6
387.93	145.75
388.14	45.4
388.35	133.46
388.56	151.89
388.769	147.8
388.979	78.16
389.189	29.01
389.399	170.32
389.609	102.74
389.818	100.69
390.028	2.39
390.238	137.56
390.447	43.35
390.657	108.88
390.867	74.07
391.076	78.16
391.286	67.92
391.496	88.4
391.705	80.21
391.915	149.84
392.125	110.93
392.334	63.83
392.544	184.66
392.753	84.31
392.963	20.82
393.172	69.97
393.382	-22.19
393.591	74.07
393.801	4.44
394.01	53.59
394.22	112.98
394.429	100.69
394.639	153.94
394.848	127.32
395.058	94.55
395.267	108.88
395.477	127.32
395.686	35.16
395.895	188.75
396.105	119.12
396.314	131.41
396.524	80.21
396.733	84.31
396.942	94.55
397.152	129.36
397.361	147.8
397.57	96.6
397.78	110.93
397.989	182.61
398.198	147.8
398.407	72.02
398.617	110.93
398.826	131.41
399.035	119.12
399.244	164.18
399.453	112.98
399.663	162.13
399.872	104.79
400.081	61.78
400.29	117.08
400.499	141.65
400.708	147.8
400.917	100.69
401.127	166.23
401.336	137.56
401.545	84.31
401.754	211.28
401.963	125.27
402.172	84.31
402.381	129.36
402.59	90.45
402.799	205.14
403.008	168.27
403.217	145.75
403.426	160.08
403.635	182.61
403.844	127.32
404.053	174.42
404.262	119.12
404.471	151.89
404.68	141.65
404.888	121.17
405.097	153.94
405.306	117.08
405.515	186.71
405.724	176.47
405.933	225.62
406.142	160.08
406.35	137.56
406.559	233.81
406.768	211.28
406.977	239.95
407.185	252.24
407.394	223.57
407.603	164.18
407.812	209.23
408.02	264.53
408.229	145.75
408.438	246.1
408.646	289.1
408.855	237.91
409.064	356.69
409.272	289.1
409.481	385.36
409.69	297.3
409.898	285.01
410.107	344.4
410.315	340.3
410.524	330.06
410.733	309.58
410.941	373.07
411.15	407.89
411.358	389.46
411.567	483.66
411.775	387.41
411.984	448.85
412.192	493.9
412.401	473.42
412.609	608.59
412.818	530.77
413.026	616.78
413.234	526.67
413.443	508.24
413.651	649.55
413.86	629.07
414.068	577.87
414.276	633.16
414.485	676.17
414.693	833.86
414.901	829.77
415.11	764.23
415.318	774.47
415.526	862.54
415.734	817.48
415.943	850.25
416.151	1018.18
416.359	917.83
416.567	928.07
416.776	1007.94
416.984	995.65
417.192	1132.87
417.4	1108.29
417.608	1038.66
417.817	1173.83
418.025	1206.59
418.233	1395.01
418.441	1182.02
418.649	1331.52
418.857	1321.28
419.065	1452.35
419.273	1433.92
419.481	1501.5
419.689	1583.42
419.897	1614.14
420.105	1714.49
420.313	1726.78
420.521	1790.27
420.729	1943.86
420.937	1847.61
421.145	1847.61
421.353	1988.92
421.561	2142.52
421.769	2208.05
421.977	2230.58
422.185	2126.13
422.393	2388.27
422.601	2484.53
422.809	2648.36
423.017	2595.12
423.224	2685.23
423.432	2820.39
423.64	2783.53
423.848	2959.66
424.056	3098.92
424.263	3121.45
424.471	3217.7
424.679	3311.91
424.887	3432.74
425.094	3586.33
425.302	3576.09
425.51	3705.12
425.718	3793.18
425.925	3868.95
426.133	3858.71
426.341	4030.74
426.548	4294.93
426.756	4487.44
426.964	4426
427.171	4655.37
427.379	4864.27
427.586	4917.51
427.794	5044.49
428.001	5159.17
428.209	5523.71
428.417	5372.16
428.624	5691.65
428.832	5794.04
429.039	5851.39
429.247	5855.48
429.454	6363.38
429.662	6940.91
429.869	6273.27
430.076	6877.42
430.284	6504.69
430.491	6858.99
430.699	7123.18
430.906	7256.29
431.114	7547.11
431.321	7561.44
431.528	7696.61
431.736	8366.29
431.943	8638.67
432.15	8638.67
432.358	8648.91
432.565	9203.91
432.772	8997.07
432.979	9593.03
433.187	9738.43
433.394	9662.66
433.601	10408.12
433.808	10373.3
434.016	10105.02
434.223	10498.23
434.43	11477.16
434.637	11301.03
434.844	11810.98
435.052	12093.6
435.259	12044.45
435.466	12079.26
435.673	12056.73
435.88	12794
436.087	13527.17
436.294	13496.46
436.501	13164.68
436.708	13199.5
436.915	13881.47
437.122	14585.97
437.329	14383.23
437.537	15036.53
437.743	15095.92
437.95	14815.35
438.157	15659.11
438.364	16445.53
438.571	16402.52
438.778	16361.56
438.985	18044.99
439.192	17403.98
439.399	17958.98
439.606	17510.47
439.813	18497.6
440.02	19601.45
440.227	19132.47
440.433	19185.71
440.64	19587.11
440.847	19580.97
441.054	20015.14
441.261	21360.66
441.467	21121.04
441.674	21442.57
441.881	22130.69
442.088	22272
442.294	22075.4
442.501	22845.43
442.708	23250.93
442.914	23980.01
443.121	25247.7
443.328	24375.27
443.534	25819.08
443.741	25141.21
443.948	24745.95
444.154	27164.6
444.361	26650.56
444.568	26742.72
444.774	26736.57
444.981	27271.09
445.187	28010.41
445.394	29022.11
445.6	28708.77
445.807	31498.1
446.013	30154.63
446.22	30713.73
446.426	32061.29
446.633	32188.27
446.839	33294.17
447.046	31891.31
447.252	33783.63
447.459	33961.81
447.665	33587.03
447.871	35004.22
448.078	36278.06
448.284	34813.76
448.491	35796.79
448.697	37044
448.903	37840.66
449.11	37758.74
449.316	37320.48
449.522	37936.91
449.728	39339.77
449.935	39511.8
450.141	39542.52
450.347	40247.02
450.553	39280.38
450.76	39591.67
450.966	40953.57
451.172	40642.28
451.378	41617.11
451.584	40744.68
451.791	41500.38
451.997	41871.06
452.203	42153.68
452.409	42249.94
452.615	41828.06
452.821	40793.83
453.027	40173.3
453.233	42620.62
453.44	40640.23
453.646	41074.4
453.852	41381.6
454.058	41950.93
454.264	40763.11
454.47	41570.01
454.676	41021.16
454.882	42518.22
455.088	38682.38
455.294	39177.98
455.5	39649.02
455.705	40367.85
455.911	38604.55
456.117	37865.24
456.323	37410.59
456.529	35827.51
456.735	36937.51
456.941	36206.38
457.147	35512.12
457.352	34717.51
457.558	34129.74
457.764	34303.82
457.97	33584.98
458.176	33214.3
458.381	32925.53
458.587	31315.83
458.793	31684.47
458.999	29982.6
459.204	32026.48
459.41	31203.19
459.616	29331.35
459.821	29253.53
460.027	29423.51
460.233	28585.89
460.438	27473.84
460.644	27328.44
460.85	26318.79
461.055	25792.46
461.261	25919.43
461.466	23939.05
461.672	23412.72
461.878	24819.67
462.083	23142.39
462.289	22691.84
462.494	22491.13
462.7	21504.01
462.905	20891.67
463.111	21809.16
463.316	21719.05
463.522	21334.03
463.727	21620.75
463.932	21264.4
464.138	21284.88
464.343	21286.93
464.549	20707.35
464.754	21430.29
464.959	21266.45
465.165	21149.71
465.37	20232.22
465.575	19769.38
465.781	20631.58
465.986	20666.39
466.191	19912.74
466.397	19355.69
466.602	18339.9
466.807	19302.45
467.012	19355.69
467.218	19447.85
467.423	18892.85
467.628	18925.62
467.833	19791.91
468.038	19052.59
468.244	18319.42
468.449	19447.85
468.654	18575.42
468.859	18554.94
469.064	18501.69
469.269	17672.26
469.474	18106.43
469.679	18124.86
469.885	17850.44
470.09	18040.9
470.295	18057.28
470.5	17422.41
470.705	17635.4
470.91	17369.16
471.115	16971.86
471.32	17451.08
471.525	17313.87
471.73	16758.87
471.935	16730.2
472.139	16255.07
472.344	16373.85
472.549	16130.14
472.754	16060.51
472.959	15681.64
473.164	15581.29
473.369	15257.71
473.574	15861.86
473.778	15689.83
473.983	15437.93
474.188	15267.95
474.393	14798.96
474.598	14956.66
474.802	14674.04
475.007	14526.58
475.212	14872.69
475.417	14180.48
475.621	14250.11
475.826	14278.78
476.031	13918.34
476.235	13678.72
476.44	13912.19
476.645	13527.17
476.849	13672.58
477.054	13234.32
477.259	13207.69
477.463	13398.15
477.668	13050
477.872	13123.73
478.077	12581.01
478.282	12650.64
478.486	12404.89
478.691	12355.74
478.895	12222.62
479.1	12486.81
479.304	12343.45
479.509	11858.08
479.713	12288.15
479.918	11780.26
480.122	11727.01
480.326	11724.96
480.531	11919.52
480.735	11839.65
480.94	11604.13
481.144	11972.77
481.348	11552.93
481.553	11634.85
481.757	11176.11
481.961	11493.54
482.166	11620.52
482.37	11604.13
482.574	11344.04
482.778	11321.51
482.983	11589.8
483.187	11360.42
483.391	11509.93
483.595	11176.11
483.8	11430.05
484.004	11423.91
484.208	11475.11
484.412	11311.27
484.616	11454.63
484.821	11612.32
485.025	11262.12
485.229	11645.09
485.433	11442.34
485.637	11436.2
485.841	11423.91
486.045	11313.32
486.249	11518.12
486.453	11282.6
486.657	11610.28
486.861	11610.28
487.065	11098.28
487.269	11485.35
487.473	11374.76
487.677	11776.16
487.881	11675.81
488.085	11460.77
488.289	11729.06
488.493	11653.28
488.697	11724.96
488.901	11657.38
489.105	11643.04
489.309	11778.21
489.512	11628.71
489.716	11673.76
489.92	11802.79
490.124	11905.18
490.328	12034.21
490.531	11675.81
490.735	12028.06
490.939	11940
491.143	12034.21
491.346	11880.61
491.55	12185.76
491.754	12144.8
491.958	12365.98
492.161	12163.23
492.365	12279.96
492.569	12257.43
492.772	12333.21
492.976	12257.43
493.18	12429.46
493.383	12642.45
493.587	12714.13
493.79	12777.62
493.994	12650.64
494.197	12806.29
494.401	12957.84
494.605	12918.93
494.808	13371.53
495.012	13084.81
495.215	13217.93
495.419	13465.74
495.622	13416.58
495.825	13486.22
496.029	13621.38
496.232	13920.38
496.436	13871.23
496.639	14321.79
496.843	14153.85
497.046	14479.48
497.249	14528.63
497.453	14633.08
497.656	14934.13
497.859	14895.22
498.063	15364.2
498.266	15302.76
498.469	15282.28
498.673	15460.46
498.876	15693.93
499.079	15960.16
499.282	15833.19
499.485	16265.31
499.689	16466.01
499.892	16566.36
500.095	16588.89
500.298	17270.86
500.501	16967.76
500.705	17406.03
500.908	17705.03
501.111	17838.15
501.314	17756.23
501.517	17975.36
501.72	18405.44
501.923	18624.57
502.126	18769.97
502.329	19456.04
502.532	19085.36
502.735	19216.43
502.938	19468.33
503.141	19793.96
503.344	20418.59
503.547	20480.03
503.75	20557.85
503.953	20957.21
504.156	21022.74
504.359	20969.49
504.562	21260.3
504.765	21680.14
504.968	22077.44
505.17	22308.86
505.373	22339.58
505.576	22611.96
505.779	23121.91
505.982	23083
506.185	23392.24
506.387	23543.79
506.59	23726.06
506.793	24655.84
506.996	24299.49
507.198	24973.27
507.401	24633.31
507.604	25053.14
507.807	25886.67
508.009	26013.64
508.212	26050.5
508.415	26527.68
508.617	26662.85
508.82	26841.02
509.022	26773.44
509.225	27400.12
509.428	27809.71
509.63	27959.21
509.833	28000.17
510.035	28796.83
510.238	28671.9
510.44	29261.72
510.643	29577.11
510.845	29814.67
511.048	29704.08
511.25	30244.74
511.453	30457.73
511.655	31448.95
511.858	30840.7
512.06	31590.26
512.262	31543.16
512.465	31700.85
512.667	31981.42
512.87	32339.82
513.072	32587.62
513.274	33384.28
513.477	33879.89
513.679	33851.22
513.881	34400.07
514.084	34299.72
514.286	34735.94
514.488	34844.48
514.69	36017.97
514.893	35987.25
515.095	36149.04
515.297	36732.71
515.499	36458.28
515.701	37361.44
515.904	37467.93
516.106	37762.84
516.308	38108.94
516.51	38586.12
516.712	38500.11
516.914	38946.56
517.116	39571.19
517.318	39730.94
517.52	40046.32
517.722	39837.43
517.925	40693.48
518.127	41148.13
518.329	41049.83
518.531	41221.86
518.733	41959.13
518.935	42454.73
519.136	42208.98
519.338	43159.23
519.54	42772.17
519.742	43497.15
519.944	43894.46
520.146	44388.02
520.348	44402.35
520.55	44822.19
520.752	44973.74
520.954	45928.09
521.155	45455.01
521.357	46417.55
521.559	46536.34
521.761	46950.02
521.963	46878.35
522.164	47199.88
522.366	47480.45
522.568	47896.19
522.77	48236.15
522.971	48873.07
523.173	48371.32
523.375	48559.73
523.576	49221.22
523.778	49036.91
523.98	49796.7
524.181	49866.33
524.383	50267.73
524.584	50488.91
524.786	50646.61
524.988	50353.75
525.189	51127.88
525.391	51099.21
525.592	51584.58
525.794	51846.72
525.995	51664.45
526.197	51598.91
526.398	51938.88
526.6	52776.5
526.801	52248.12
527.003	53085.74
527.204	52491.83
527.406	53048.88
527.607	52993.58
527.808	53278.25
528.01	52864.56
528.211	53014.06
528.412	54079
528.614	53816.86
528.815	53861.92
529.016	54552.08
529.218	53980.7
529.419	54353.43
529.62	54558.23
529.822	54552.08
530.023	53812.77
530.224	54189.59
530.425	54443.54
530.626	54097.44
530.828	54097.44
531.029	55238.15
531.23	54480.41
531.431	54758.93
531.632	54640.15
531.833	55311.88
532.035	55051.79
532.236	55332.36
532.437	55275.02
532.638	54568.47
532.839	55387.66
533.04	55320.07
533.241	54851.09
533.442	55936.51
533.643	55725.57
533.844	54957.58
534.045	55561.73
534.246	55492.1
534.447	55918.08
534.648	55811.59
534.849	55361.03
535.05	55301.64
535.251	55498.25
535.451	55234.06
535.652	55787.01
535.853	55717.38
536.054	55713.28
536.255	56049.15
536.456	55348.74
536.657	56350.2
536.857	55655.94
537.058	55047.69
537.259	55934.46
537.46	55567.88
537.66	55277.07
537.861	55799.3
538.062	55123.47
538.263	55950.85
538.463	55344.65
538.664	55614.98
538.865	55905.79
539.065	55885.31
539.266	55393.8
539.466	55946.75
539.667	55129.61
539.868	55991.81
540.068	55762.43
540.269	55582.21
540.469	55875.07
540.67	55803.39
540.87	55496.2
541.071	55549.45
541.271	55614.98
541.472	55549.45
541.672	55285.26
541.873	55254.54
542.073	54613.52
542.274	55891.46
542.474	55336.46
542.675	55365.13
542.875	55557.64
543.075	54803.99
543.276	54801.94
543.476	55803.39
543.676	54937.1
543.877	55381.51
544.077	55148.04
544.277	55223.82
544.478	55465.48
544.678	55621.12
544.878	55356.94
545.078	55172.62
545.279	55043.6
545.479	55485.96
545.679	55533.06
545.879	55088.65
546.079	55492.1
546.28	55176.72
546.48	54629.91
546.68	55391.75
546.88	55285.26
547.08	55008.78
547.28	54963.73
547.48	54621.72
547.68	55250.44
547.88	54877.71
548.081	55096.84
548.281	55229.96
548.481	55078.41
548.681	55399.94
548.881	54959.63
549.081	54709.78
549.28	54971.92
549.48	54892.05
549.68	54189.59
549.88	55326.22
550.08	54500.89
550.28	54824.46
550.48	54910.48
550.68	55256.59
550.88	54652.44
551.08	54836.75
551.279	55148.04
551.479	54650.39
551.679	54638.1
551.879	54763.03
552.079	55520.77
552.278	54799.89
552.478	54754.83
552.678	54730.26
552.878	54973.97
553.077	54478.36
553.277	54283.8
553.477	55332.36
553.676	54822.42
553.876	54251.03
554.076	54466.07
554.275	54195.74
554.475	53726.75
554.674	54457.88
554.874	54695.44
555.074	54193.69
555.273	54500.89
555.473	54488.6
555.672	54081.05
555.872	54162.97
556.071	54562.32
556.271	54527.51
556.47	54552.08
556.67	53960.22
556.869	53661.22
557.068	54318.62
557.268	53747.23
557.467	53952.03
557.667	53990.94
557.866	54044.19
558.065	53718.56
558.265	53644.83
558.464	53487.14
558.663	54126.11
558.863	53204.52
559.062	54621.72
559.261	52889.13
559.461	53796.38
559.66	52993.58
559.859	53159.47
560.058	53108.27
560.258	53374.5
560.457	53087.79
560.656	53161.51
560.855	52956.72
561.054	53227.05
561.253	52854.32
561.453	53198.38
561.652	53212.71
561.851	53356.07
562.05	52897.33
562.249	52477.49
562.448	52723.25
562.647	52633.14
562.846	52872.75
563.045	52794.93
563.244	52430.39
563.443	52735.54
563.642	52125.24
563.841	52043.32
564.04	52362.81
564.239	52450.87
564.438	52059.71
564.637	52409.91
564.836	51975.74
565.035	51889.73
565.234	52049.47
565.432	51592.77
565.631	51584.58
565.83	52262.46
566.029	51600.96
566.228	51185.22
566.427	51412.55
566.625	50937.42
566.824	50886.22
567.023	51517
567.222	50744.91
567.42	51582.53
567.619	51217.99
567.818	51269.19
568.016	50818.64
568.215	50912.84
568.414	50822.73
568.612	51215.94
568.811	50728.53
569.01	50771.53
569.208	50257.49
569.407	50906.7
569.605	49983.07
569.804	50445.91
570.002	50077.27
570.201	50206.3
570.4	49690.21
570.598	49794.65
570.797	49487.46
570.995	49708.64
571.193	49149.54
571.392	50060.89
571.59	49063.53
571.789	49124.97
571.987	49149.54
572.186	49684.06
572.384	48993.9
572.582	49274.47
572.781	48987.75
572.979	48426.61
573.177	48698.99
573.376	49159.78
573.574	48422.51
573.772	48879.21
573.971	48379.51
574.169	47912.57
574.367	48068.22
574.565	48647.79
574.763	48119.42
574.962	47689.34
575.16	47367.81
575.358	47738.49
575.556	46618.25
575.754	47738.49
575.952	47068.81
576.151	47728.25
576.349	46929.55
576.547	46880.39
576.745	47099.53
576.943	46882.44
577.141	46685.84
577.339	47294.08
577.537	46689.93
577.735	46737.04
577.933	45872.79
578.131	46464.66
578.329	45979.29
578.527	45469.34
578.725	46161.56
578.923	45942.42
579.121	46141.08
579.319	45516.45
579.516	45743.77
579.714	45557.41
579.912	45346.47
580.11	45031.08
580.308	45026.98
580.506	45033.13
580.704	44388.02
580.901	44826.28
581.099	45010.6
581.297	44703.4
581.495	44580.53
581.692	44310.19
581.89	44502.7
582.088	44459.69
582.285	44125.88
582.483	44400.3
582.681	44007.09
582.878	44201.65
583.076	43501.25
583.274	43622.08
583.471	42831.56
583.669	43493.05
583.866	42933.96
584.064	43366.08
584.262	42587.85
584.459	43314.88
584.657	42936.01
584.854	42954.44
585.052	42399.44
585.249	42559.18
585.447	42661.58
585.644	42149.59
585.841	42462.93
586.039	42178.26
586.236	42061.52
586.434	41447.13
586.631	41524.96
586.828	41752.28
587.026	41484
587.223	41430.75
587.42	41397.98
587.618	41680.6
587.815	40586.99
588.012	40980.2
588.21	41076.45
588.407	41297.63
588.604	40695.53
588.801	40136.43
588.999	40795.88
589.196	40320.75
589.393	40324.85
589.59	40124.15
589.787	39735.03
589.984	39988.98
590.182	39571.19
590.379	40099.57
590.576	39560.95
590.773	39436.03
590.97	39567.1
591.167	39290.62
591.364	39229.18
591.561	39196.42
591.758	38991.62
591.955	38592.26
592.152	39018.24
592.349	38893.32
592.546	38584.07
592.743	38575.88
592.94	38151.95
593.137	38328.08
593.334	38696.71
593.531	38315.79
593.727	38211.34
593.924	38057.74
594.121	37531.42
594.318	38180.62
594.515	37492.51
594.712	37664.53
594.908	37142.3
595.105	37408.54
595.302	37328.67
595.499	36927.27
595.696	36658.98
595.892	36640.55
596.089	36933.41
596.286	37027.62
596.482	36792.1
596.679	36450.09
596.876	36538.15
597.072	36063.02
597.269	36570.92
597.466	36151.09
597.662	35727.16
597.859	35587.89
598.055	36144.94
598.252	35741.49
598.448	35825.46
598.645	35356.47
598.841	35204.92
599.038	35413.82
599.234	34905.92
599.431	34727.75
599.627	34836.29
599.824	35082.05
600.02	34477.9
600.217	34576.2
600.413	34475.85
600.609	34559.81
600.806	34232.14
601.002	34735.94
601.198	34326.35
601.395	33861.46
601.591	33529.69
601.787	33664.85
601.984	33505.11
602.18	33945.42
602.376	33652.56
602.572	33384.28
602.769	33224.54
602.965	32937.82
603.161	33582.93
603.357	32857.95
603.553	33107.8
603.75	32771.94
603.946	32657.25
604.142	32708.45
604.338	32513.89
604.534	32675.68
604.73	31850.35
604.926	32116.59
605.122	32466.79
605.318	31997.81
605.514	31760.24
605.71	32073.58
605.906	31928.17
606.102	31811.44
606.298	31872.88
606.494	31389.56
606.69	31766.38
606.886	31635.31
607.082	30920.57
607.278	31469.43
607.474	30838.65
607.67	31301.5
607.866	30734.21
608.062	30992.25
608.257	31104.89
608.453	30676.87
608.649	30777.22
608.845	30658.43
609.041	30707.58
609.236	30474.12
609.432	30207.88
609.628	30310.28
609.824	30361.48
610.019	30203.78
610.215	30250.89
610.411	30361.48
610.606	29884.3
610.802	30318.47
610.998	29722.51
611.193	29872.01
611.389	29779.85
611.584	29587.35
611.78	29394.84
611.976	29589.39
612.171	29849.49
612.367	29382.55
612.562	29429.65
612.758	29024.15
612.953	29159.32
613.149	29345.69
613.344	29259.67
613.539	29497.24
613.735	29114.27
613.93	28905.37
614.126	28942.24
614.321	29460.37
614.517	28893.08
614.712	28999.58
614.907	28637.09
615.103	28589.99
615.298	28569.51
615.493	29032.35
615.688	28450.72
615.884	29321.11
616.079	28346.28
616.274	28456.87
616.47	28282.79
616.665	27965.35
616.86	28116.9
617.055	28166.06
617.25	27748.27
617.445	28188.58
617.641	27840.43
617.836	27684.78
618.031	27488.18
618.226	27897.77
618.421	27641.78
618.616	27746.22
618.811	27271.09
619.006	27615.15
619.201	26982.33
619.396	27158.45
619.591	26873.79
619.786	27054.01
619.981	26644.41
620.176	27094.97
620.371	26462.15
620.566	26357.7
620.761	26070.98
620.956	26216.39
621.151	26179.53
621.346	26058.7
621.541	25706.45
621.735	25978.82
621.93	25497.55
622.125	25569.23
622.32	25022.42
622.515	25372.63
622.709	25241.56
622.904	25243.6
623.099	24915.93
623.294	24643.55
623.488	24575.97
623.683	24858.59
623.878	24250.34
624.072	24061.93
624.267	24205.28
624.462	23740.4
624.656	23529.45
624.851	23975.91
625.046	23664.62
625.24	23633.9
625.435	23232.5
625.629	23175.16
625.824	23177.2
626.018	22949.88
626.213	22552.57
626.407	22814.71
626.602	22532.09
626.796	22396.93
626.991	22364.16
627.185	22312.96
627.38	22089.73
627.574	22036.49
627.768	21651.47
627.963	21538.83
628.157	21444.62
628.352	21653.51
628.546	21245.97
628.74	21305.36
628.935	21176.34
629.129	21307.41
629.323	20801.56
629.517	21004.31
629.712	20901.91
629.906	20770.84
630.1	20305.95
630.294	20551.71
630.489	20647.96
630.683	20443.17
630.877	20015.14
631.071	19812.39
631.265	20140.07
631.459	19568.68
631.653	19660.84
631.848	19740.71
632.042	19382.32
632.236	19738.66
632.43	19124.27
632.624	19089.46
632.818	19234.86
633.012	18696.25
633.206	18880.57
633.4	18774.07
633.594	18536.51
633.788	18675.77
633.982	18636.86
634.176	18526.27
634.369	18274.37
634.563	18083.91
634.757	18108.48
634.951	18030.66
635.145	17979.46
635.339	17887.3
635.533	17621.06
635.726	17668.17
635.92	17285.2
636.114	17453.13
636.308	17330.25
636.501	17471.56
636.695	17332.3
636.889	16984.15
637.083	17059.92
637.276	17006.67
637.47	16842.84
637.664	16947.28
637.857	16713.81
638.051	16240.73
638.244	16388.19
638.438	16404.57
638.632	16404.57
638.825	16087.14
639.019	16167.01
639.212	15988.83
639.406	16097.38
639.599	15900.77
639.793	15861.86
639.986	15755.36
640.18	15591.53
640.373	15564.9
640.567	15251.56
640.76	15624.29
640.954	15284.33
641.147	15247.47
641.34	15042.67
641.534	15048.82
641.727	14899.31
641.92	14925.94
642.114	14942.32
642.307	14717.04
642.5	14678.13
642.694	14395.51
642.887	14557.3
643.08	14415.99
643.273	14526.58
643.467	14305.4
643.66	14127.23
643.853	14145.66
644.046	13807.75
644.239	13957.25
644.432	13865.09
644.626	13748.36
644.819	13641.86
645.012	13332.62
645.205	13539.46
645.398	13320.33
645.591	13070.48
645.784	13334.67
645.977	13029.52
646.17	13170.83
646.363	13043.85
646.556	12963.98
646.749	13056.14
646.942	12916.88
647.135	12873.87
647.328	12748.95
647.521	12578.97
647.714	12499.09
647.907	12290.2
648.099	12423.32
648.292	12404.89
648.485	12134.56
648.678	12103.84
648.871	11896.99
649.064	12087.45
649.256	12118.17
649.449	12040.35
649.642	11798.69
649.835	11497.64
650.027	11716.77
650.22	11643.04
650.413	11626.66
650.605	11552.93
650.798	11387.05
650.991	11348.14
651.183	11448.49
651.376	11223.21
651.568	11165.87
651.761	11253.93
651.954	11061.42
652.146	10987.69
652.339	10907.82
652.531	11077.8
652.724	10660.02
652.916	10647.73
653.109	10766.51
653.301	10627.25
653.494	10567.86
653.686	10318.01
653.879	10487.99
654.071	10657.97
654.263	10313.91
654.456	10215.61
654.648	10287.29
654.84	10244.28
655.033	10148.03
655.225	10041.53
655.417	10105.02
655.61	10170.55
655.802	9908.41
655.994	9943.23
656.186	9832.64
656.379	9779.39
656.571	9832.64
656.763	9595.07
656.955	9515.2
657.148	9687.23
657.34	9500.87
657.532	9244.87
657.724	9285.83
657.916	9377.99
658.108	9431.24
658.3	8943.82
658.492	9251.02
658.684	9076.94
658.876	9050.32
659.068	9015.5
659.26	8997.07
659.452	8923.34
659.644	8980.68
659.836	8827.09
660.028	8921.29
660.22	8653.01
660.412	8663.25
660.604	8462.55
660.796	8417.49
660.988	8325.33
661.18	8327.38
661.372	8401.11
661.563	8325.33
661.755	8186.07
661.947	8302.81
662.139	8128.73
662.331	8055
662.522	8052.95
662.714	8081.63
662.906	7854.3
663.097	8038.62
663.289	7985.37
663.481	7782.62
663.673	7721.18
663.864	7710.94
664.056	7588.07
664.247	7747.81
664.439	7661.79
664.631	7620.83
664.822	7596.26
665.014	7463.14
665.205	7479.52
665.397	7352.55
665.588	7399.65
665.78	7223.53
665.971	7190.76
666.163	7213.29
666.354	7145.7
666.546	7119.08
666.737	7192.81
666.929	7346.41
667.12	7047.4
667.311	7047.4
667.503	6936.81
667.694	6826.22
667.885	6746.35
668.077	6818.03
668.268	6719.73
668.459	6793.45
668.651	6779.12
668.842	6600.94
669.033	6621.42
669.224	6609.14
669.416	6506.74
669.607	6686.96
669.798	6400.24
669.989	6521.07
670.18	6488.31
670.371	6361.33
670.563	6281.46
670.754	6269.17
670.945	6301.94
671.136	6146.3
671.327	6152.44
671.518	6195.45
671.709	6146.3
671.9	6154.49
672.091	6101.24
672.282	6091
672.473	5929.21
672.664	6068.47
672.855	6101.24
673.046	5998.84
673.237	5974.27
673.428	5792
673.619	5933.31
673.809	5812.48
674	5705.98
674.191	5779.71
674.382	5748.99
674.573	5677.31
674.764	5632.26
674.954	5798.14
675.145	5679.36
675.336	5490.95
675.527	5449.99
675.717	5699.84
675.908	5499.14
676.099	5564.67
676.289	5398.79
676.48	5511.43
676.671	5359.88
676.861	5490.95
677.052	5388.55
677.243	5237
677.433	5153.03
677.624	5329.16
677.814	5112.07
678.005	5097.74
678.195	5302.53
678.386	5165.32
678.576	5159.17
678.767	5142.79
678.957	4999.43
679.148	5124.36
679.338	5071.11
679.529	5204.23
679.719	4882.7
679.909	5046.54
680.1	5099.78
680.29	5101.83
680.481	4983.05
680.671	4931.85
680.861	4864.27
681.052	4974.86
681.242	4759.82
681.432	4899.08
681.622	4858.12
681.813	4725.01
682.003	4696.33
682.193	4710.67
682.383	4778.25
682.573	4786.44
682.764	4720.91
682.954	4735.25
683.144	4768.01
683.334	4700.43
683.524	4618.51
683.714	4774.16
683.904	4380.95
684.094	4624.65
684.284	4509.97
684.474	4733.2
684.664	4663.57
684.854	4690.19
685.044	4421.91
685.234	4407.57
685.424	4442.39
685.614	4430.1
685.804	4526.35
685.994	4452.63
686.184	4507.92
686.374	4188.44
686.564	4479.25
686.753	4387.09
686.943	4284.69
687.133	4313.36
687.323	4362.51
687.513	4311.32
687.702	4335.89
687.892	4256.02
688.082	4315.41
688.272	4397.33
688.461	4155.67
688.651	4223.25
688.841	4155.67
689.03	4241.68
689.22	4098.33
689.41	4190.49
689.599	4184.34
689.789	4167.96
689.979	4069.66
690.168	4249.88
690.358	4122.9
690.547	4038.94
690.737	4034.84
690.926	4073.75
691.116	3963.16
691.305	4024.6
691.495	4106.52
691.684	3991.83
691.874	4000.02
692.063	3987.74
692.252	4036.89
692.442	3856.67
692.631	3819.8
692.82	3895.58
693.01	3819.8
693.199	3871
693.388	3830.04
693.578	3840.28
693.767	3797.28
693.956	3901.72
694.146	3819.8
694.335	3795.23
694.524	3774.75
694.713	3891.48
694.902	3889.43
695.092	3776.8
695.281	3805.47
695.47	3672.35
695.659	3746.08
695.848	3684.64
696.037	3631.39
696.226	3586.33
696.415	3496.22
696.604	3731.74
696.793	3498.27
696.982	3715.36
697.171	3641.63
697.36	3547.42
697.549	3485.98
697.738	3520.8
697.927	3526.94
698.116	3602.72
698.305	3451.17
698.494	3533.09
698.683	3520.8
698.872	3576.09
699.061	3445.02
699.25	3436.83
699.438	3449.12
699.627	3483.94
699.816	3445.02
700.005	3404.07
700.193	3455.26
700.382	3381.54
700.571	3295.52
700.76	3367.2
700.948	3477.79
701.137	3395.87
701.326	3369.25
701.514	3264.8
701.703	3428.64
701.892	3340.58
702.08	3283.24
702.269	3340.58
702.457	3250.47
702.646	3246.37
702.834	3191.08
703.023	3189.03
703.212	3219.75
703.4	3164.45
703.589	3117.35
703.777	3148.07
703.965	3164.45
704.154	3164.45
704.342	3172.64
704.531	3158.31
704.719	3172.64
704.907	3211.56
705.096	3055.91
705.284	3000.62
705.472	3199.27
705.661	3135.78
705.849	3103.01
706.037	3148.07
706.226	3180.84
706.414	2943.27
706.602	3010.86
706.79	3152.17
706.979	2910.5
707.167	2844.97
707.355	2943.27
707.543	3045.67
707.731	2967.85
707.919	2928.94
708.107	2801.96
708.296	2992.42
708.484	2935.08
708.672	3051.81
708.86	2953.51
709.048	3000.62
709.236	2928.94
709.424	2838.83
709.612	2908.46
709.8	2820.39
709.988	2861.35
710.176	2801.96
710.364	2799.91
710.551	2742.57
710.739	2849.07
710.927	2734.38
711.115	2746.67
711.303	2789.67
711.491	2773.29
711.679	2724.14
711.866	2767.15
712.054	2695.47
712.242	2701.61
712.43	2808.11
712.617	2742.57
712.805	2623.79
712.993	2724.14
713.181	2668.84
713.368	2615.6
713.556	2502.96
713.744	2588.97
713.931	2609.45
714.119	2519.34
714.306	2545.97
714.494	2607.41
714.682	2582.83
714.869	2580.78
715.057	2566.45
715.244	2677.04
715.432	2558.25
715.619	2578.73
715.807	2414.9
715.994	2418.99
716.182	2533.68
716.369	2558.25
716.556	2492.72
716.744	2357.55
716.931	2447.66
717.119	2423.09
717.306	2398.51
717.493	2439.47
717.681	2513.2
717.868	2439.47
718.055	2318.64
718.242	2304.31
718.43	2427.18
718.617	2380.08
718.804	2361.65
718.991	2373.94
719.179	2388.27
719.366	2281.78
719.553	2230.58
719.74	2275.63
719.927	2289.97
720.114	2318.64
720.301	2249.01
720.488	2226.48
720.676	2328.88
720.863	2150.71
721.05	2296.11
721.237	2285.87
721.424	2189.62
721.611	2390.32
721.798	2187.57
721.985	2246.96
722.172	2232.63
722.358	2126.13
722.545	1995.06
722.732	2181.43
722.919	2181.43
723.106	2171.19
723.293	2138.42
723.48	2085.17
723.667	2066.74
723.853	2068.79
724.04	2050.36
724.227	2087.22
724.414	2101.56
724.6	2029.88
724.787	2070.84
724.974	2152.76
725.161	2107.7
725.347	1968.44
725.534	2001.21
725.72	2042.17
725.907	2132.28
726.094	1999.16
726.28	2087.22
726.467	1976.63
726.653	2003.25
726.84	1962.3
727.027	1976.63
727.213	2046.26
727.4	1952.06
727.586	1927.48
727.773	1962.3
727.959	1976.63
728.145	2009.4
728.332	1861.94
728.518	1993.01
728.705	1980.73
728.891	1878.33
729.077	1968.44
729.264	1784.12
729.45	1825.08
729.636	1915.19
729.823	1804.6
730.009	1872.18
730.195	1911.1
730.382	1851.71
730.568	1943.86
730.754	1839.42
730.94	1870.14
731.126	1747.26
731.313	1782.07
731.499	1782.07
731.685	1837.37
731.871	1765.69
732.057	1726.78
732.243	1837.37
732.429	1714.49
732.615	1874.23
732.801	1771.83
732.987	1698.11
733.173	1847.61
733.359	1593.66
733.545	1626.43
733.731	1739.07
733.917	1780.03
734.103	1700.16
734.289	1704.25
734.475	1673.53
734.661	1804.6
734.847	1790.27
735.033	1716.54
735.219	1694.01
735.404	1616.19
735.59	1741.11
735.776	1618.24
735.962	1638.72
736.148	1724.73
736.333	1687.87
736.519	1716.54
736.705	1542.46
736.89	1610.04
737.076	1734.97
737.262	1567.04
737.447	1634.62
737.633	1526.08
737.819	1579.33
738.004	1544.51
738.19	1478.97
738.375	1505.6
738.561	1519.93
738.747	1521.98
738.932	1487.17
739.118	1659.2
739.303	1495.36
739.489	1562.94
739.674	1399.1
739.859	1452.35
740.045	1521.98
740.23	1499.45
740.416	1446.21
740.601	1546.56
740.786	1468.73
740.972	1544.51
741.157	1519.93
741.342	1444.16
741.528	1503.55
741.713	1558.85
741.898	1503.55
742.084	1366.34
742.269	1448.26
742.454	1536.32
742.639	1481.02
742.824	1405.25
743.01	1442.11
743.195	1503.55
743.38	1382.72
743.565	1345.86
743.75	1362.24
743.935	1444.16
744.12	1372.48
744.305	1386.82
744.49	1362.24
744.675	1308.99
744.86	1263.94
745.045	1374.53
745.23	1341.76
745.415	1249.6
745.6	1431.87
745.785	1290.56
745.97	1321.28
746.155	1413.44
746.34	1478.97
746.525	1296.71
746.71	1354.05
746.895	1274.18
747.079	1251.65
747.264	1280.32
747.449	1272.13
747.634	1200.45
747.819	1313.09
748.003	1165.64
748.188	1151.3
748.373	1216.83
748.557	1233.22
748.742	1151.3
748.927	1100.1
749.111	1190.21
749.296	1153.35
749.481	1243.46
749.665	1145.16
749.85	1145.16
750.034	1173.83
750.219	1214.79
750.404	1071.43
750.588	1175.88
750.773	1153.35
750.957	1089.86
751.141	1018.18
751.326	1061.19
751.51	1046.85
751.695	1108.29
751.879	1059.14
752.064	1100.1
752.248	989.51
752.432	1153.35
752.617	1042.76
752.801	1034.57
752.985	1071.43
753.17	1044.81
753.354	1108.29
753.538	1093.96
753.722	1050.95
753.907	1012.04
754.091	1005.89
754.275	1038.66
754.459	911.69
754.643	956.74
754.828	930.12
755.012	964.93
755.196	932.17
755.38	889.16
755.564	893.26
755.748	1009.99
755.932	880.97
756.116	915.78
756.3	952.65
756.484	915.78
756.668	895.3
756.852	901.45
757.036	862.54
757.22	899.4
757.404	784.71
757.588	876.87
757.772	813.38
757.956	874.82
758.14	880.97
758.323	837.96
758.507	895.3
758.691	858.44
758.875	751.95
759.059	854.34
759.242	809.29
759.426	799.05
759.61	821.58
759.794	749.9
759.977	774.47
760.161	876.87
760.345	811.34
760.528	801.1
760.712	756.04
760.895	788.81
761.079	710.99
761.263	727.37
761.446	807.24
761.63	797
761.813	735.56
761.997	661.84
762.18	764.23
762.364	753.99
762.547	727.37
762.731	747.85
762.914	688.46
763.098	766.28
763.281	692.55
763.464	737.61
763.648	790.86
763.831	602.44
764.015	690.51
764.198	815.43
764.381	706.89
764.564	708.94
764.748	653.64
764.931	776.52
765.114	776.52
765.297	670.03
765.481	643.4
765.664	772.43
765.847	657.74
766.03	768.33
766.213	760.14
766.397	747.85
766.58	690.51
766.763	700.75
766.946	727.37
767.129	665.93
767.312	637.26
767.495	760.14
767.678	680.27
767.861	637.26
768.044	657.74
768.227	692.55
768.41	682.31
768.593	670.03
768.776	690.51
768.959	710.99
769.142	770.38
769.324	686.41
769.507	610.64
769.69	624.97
769.873	559.44
770.056	682.31
770.239	665.93
770.421	672.08
770.604	686.41
770.787	602.44
770.97	690.51
771.152	584.01
771.335	559.44
771.518	620.88
771.7	661.84
771.883	682.31
772.066	604.49
772.248	637.26
772.431	764.23
772.613	651.6
772.796	618.83
772.978	661.84
773.161	596.3
773.343	575.82
773.526	586.06
773.708	555.34
773.891	510.29
774.073	620.88
774.256	569.68
774.438	655.69
774.621	551.24
774.803	528.72
774.985	547.15
775.168	592.2
775.35	551.24
775.532	543.05
775.715	436.56
775.897	584.01
776.079	586.06
776.261	624.97
776.444	516.43
776.626	524.62
776.808	561.48
776.99	473.42
777.173	584.01
777.355	454.99
777.537	551.24
777.719	571.72
777.901	584.01
778.083	471.37
778.265	420.17
778.447	561.48
778.629	469.33
778.811	450.89
778.993	485.71
779.175	463.18
779.357	432.46
779.539	420.17
779.721	375.12
779.903	526.67
780.085	440.65
780.267	450.89
780.449	387.41
780.631	500.05
780.812	512.33
780.994	502.09
781.176	411.98
781.358	559.44
781.54	395.6
781.721	346.45
781.903	424.27
782.085	452.94
782.267	485.71
782.448	332.11
782.63	395.6
782.812	387.41
782.993	414.03
783.175	430.41
783.357	420.17
783.538	428.37
783.72	373.07
783.901	422.22
784.083	356.69
784.264	395.6
784.446	338.26
784.627	334.16
784.809	399.7
784.99	364.88
785.172	373.07
785.353	338.26
785.535	366.93
785.716	354.64
785.897	352.59
786.079	362.83
786.26	291.15
786.441	291.15
786.623	328.02
786.804	342.35
786.985	368.98
787.167	391.5
787.348	313.68
787.529	309.58
787.71	346.45
787.891	307.54
788.073	280.91
788.254	207.19
788.435	289.1
788.616	385.36
788.797	289.1
788.978	266.58
789.159	278.87
789.34	371.02
789.522	248.15
789.703	332.11
789.884	264.53
790.065	287.06
790.246	338.26
790.427	282.96
790.607	282.96
790.788	379.22
790.969	250.19
791.15	356.69
791.331	262.48
791.512	268.63
791.693	291.15
791.874	268.63
792.054	356.69
792.235	321.87
792.416	256.34
792.597	289.1
792.778	268.63
792.958	285.01
793.139	248.15
793.32	248.15
793.5	153.94
793.681	289.1
793.862	196.95
794.042	231.76
794.223	184.66
794.404	268.63
794.584	231.76
794.765	276.82
794.945	225.62
795.126	248.15
795.306	209.23
795.487	287.06
795.667	235.86
795.848	268.63
796.028	184.66
796.209	231.76
796.389	215.38
796.57	184.66
796.75	184.66
796.93	227.67
797.111	207.19
797.291	198.99
797.471	174.42
797.652	151.89
797.832	180.56
798.012	192.85
798.192	270.67
798.373	276.82
798.553	174.42
798.733	272.72
798.913	215.38
799.093	231.76
799.274	225.62
799.454	143.7
799.634	248.15
799.814	319.82
799.994	250.19
800.174	196.95
800.354	252.24
800.534	164.18
800.714	235.86
800.894	164.18
801.074	198.99
801.254	166.23
801.434	194.9
801.614	190.8
801.794	186.71
801.974	710.99
802.154	198.99
802.334	211.28
802.514	217.43
802.693	217.43
802.873	203.09
803.053	198.99
803.233	166.23
803.413	153.94
803.592	158.03
803.772	207.19
803.952	158.03
804.131	125.27
804.311	188.75
804.491	182.61
804.67	84.31
804.85	194.9
805.03	182.61
805.209	227.67
805.389	160.08
805.568	123.22
805.748	166.23
805.928	102.74
806.107	139.6
806.287	129.36
806.466	176.47
806.646	168.27
806.825	112.98
807.004	67.92
807.184	160.08
807.363	147.8
807.543	119.12
807.722	182.61
807.901	158.03
808.081	256.34
808.26	102.74
808.439	127.32
808.619	143.7
808.798	182.61
808.977	88.4
809.156	117.08
809.336	129.36
809.515	145.75
809.694	108.88
809.873	143.7
810.052	108.88
810.231	147.8
810.411	39.25
810.59	239.95
810.769	147.8
810.948	166.23
811.127	174.42
811.306	110.93
811.485	133.46
811.664	198.99
811.843	96.6
812.022	178.51
812.201	160.08
812.38	94.55
812.559	104.79
812.737	108.88
812.916	121.17
813.095	149.84
813.274	69.97
813.453	102.74
813.632	244.05
813.811	158.03
813.989	131.41
814.168	182.61
814.347	96.6
814.526	121.17
814.704	88.4
814.883	160.08
815.062	129.36
815.24	207.19
815.419	59.73
815.598	72.02
815.776	47.44
815.955	119.12
816.133	29.01
816.312	96.6
816.49	117.08
816.669	112.98
816.847	86.36
817.026	-1.71
817.204	125.27
817.383	104.79
817.561	72.02
817.74	151.89
817.918	82.26
818.097	67.92
818.275	121.17
818.453	110.93
818.632	168.27
818.81	72.02
818.988	149.84
819.167	80.21
819.345	149.84
819.523	80.21
819.701	84.31
819.879	112.98
820.058	129.36
820.236	94.55
820.414	117.08
820.592	110.93
820.77	151.89
820.948	26.96
821.127	80.21
821.305	37.2
821.483	37.2
821.661	102.74
821.839	110.93
822.017	112.98
822.195	115.03
822.373	92.5
822.551	65.88
822.729	147.8
822.907	100.69
823.085	131.41
823.262	59.73
823.44	110.93
823.618	67.92
823.796	104.79
823.974	59.73
824.152	59.73
824.329	53.59
824.507	100.69
824.685	51.54
824.863	158.03
825.04	61.78
825.218	186.71
825.396	84.31
825.574	78.16
825.751	20.82
825.929	133.46
826.107	26.96
826.284	102.74
826.462	125.27
826.639	102.74
826.817	100.69
826.994	131.41
827.172	59.73
827.349	49.49
827.527	-20.14
827.704	78.16
827.882	6.49
828.059	51.54
828.237	117.08
828.414	80.21
828.591	74.07
828.769	94.55
828.946	90.45
829.124	86.36
829.301	127.32
829.478	92.5
829.655	-30.38
829.833	76.12
830.01	100.69
830.187	92.5
830.364	88.4
830.542	110.93
830.719	117.08
830.896	125.27
831.073	121.17
831.25	162.13
831.427	117.08
831.604	12.63
831.782	53.59
831.959	53.59
832.136	14.68
832.313	102.74
832.49	43.35
832.667	117.08
832.844	51.54
833.021	59.73
833.198	59.73
833.374	51.54
833.551	80.21
833.728	35.16
833.905	102.74
834.082	-7.85
834.259	61.78
834.436	92.5
834.612	47.44
834.789	94.55
834.966	59.73
835.143	22.87
835.319	-11.95
835.496	88.4
835.673	76.12
835.85	61.78
836.026	67.92
836.203	160.08
836.38	39.25
836.556	-5.8
836.733	2.39
836.909	94.55
837.086	72.02
837.262	24.92
837.439	18.77
837.616	119.12
837.792	51.54
837.968	45.4
838.145	33.11
838.321	-9.9
838.498	117.08
838.674	121.17
838.851	20.82
839.027	72.02
839.203	63.83
839.38	102.74
839.556	35.16
839.732	74.07
839.909	59.73
840.085	59.73
840.261	-13.99
840.437	67.92
840.614	110.93
840.79	59.73
840.966	67.92
841.142	59.73
841.318	65.88
841.494	88.4
841.671	92.5
841.847	61.78
842.023	-22.19
842.199	72.02
842.375	117.08
842.551	-9.9
842.727	108.88
842.903	72.02
843.079	29.01
843.255	74.07
843.431	18.77
843.607	35.16
843.783	-22.19
843.959	94.55
844.134	47.44
844.31	55.64
844.486	-5.8
844.662	61.78
844.838	61.78
845.013	100.69
845.189	63.83
845.365	35.16
845.541	35.16
845.716	74.07
845.892	49.49
846.068	2.39
846.244	26.96
846.419	14.68
846.595	-40.62
846.77	-9.9
846.946	39.25
847.122	-7.85
847.297	67.92
847.473	65.88
847.648	-13.99
847.824	37.2
847.999	2.39
848.175	59.73
848.35	92.5
848.526	72.02
848.701	51.54
848.876	29.01
849.052	26.96
849.227	49.49
849.403	51.54
849.578	57.68
849.753	12.63
849.929	37.2
850.104	-30.38
850.279	74.07
850.454	20.82
850.63	-5.8
850.805	47.44
850.98	51.54
851.155	43.35
851.33	84.31
851.505	35.16
851.681	86.36
851.856	61.78
852.031	35.16
852.206	18.77
852.381	-26.28
852.556	14.68
852.731	92.5
852.906	12.63
853.081	20.82
853.256	43.35
853.431	-9.9
853.606	31.06
853.781	-13.99
853.956	0.34
854.131	43.35
854.305	63.83
854.48	76.12
854.655	-9.9
854.83	0.34
855.005	-1.71
855.18	18.77
855.354	-18.09
855.529	18.77
855.704	18.77
855.879	80.21
856.053	49.49
856.228	72.02
856.403	98.64
856.577	4.44
856.752	45.4
856.926	39.25
857.101	61.78
857.276	-11.95
857.45	53.59
857.625	92.5
857.799	51.54
857.974	47.44
858.148	0.34
858.323	51.54
858.497	2.39
858.672	47.44
858.846	-42.67
859.02	18.77
859.195	39.25
859.369	29.01
859.543	51.54
859.718	22.87
859.892	18.77
860.066	92.5
860.241	24.92
860.415	2.39
860.589	39.25
860.763	45.4
860.938	67.92
861.112	37.2
861.286	-26.28
861.46	51.54
861.634	47.44
861.808	117.08
861.982	-5.8
862.157	26.96
862.331	-13.99
862.505	4.44
862.679	-30.38
862.853	26.96
863.027	-54.95
863.201	100.69
863.375	76.12
863.549	2.39
863.722	55.64
863.896	2.39
864.07	-20.14
864.244	78.16
864.418	-22.19
864.592	-9.9
864.766	16.73
864.939	108.88
865.113	-57
865.287	88.4
865.461	-93.87
865.634	76.12
865.808	31.06
865.982	-9.9
866.156	-20.14
866.329	-46.76
866.503	-75.43
866.676	4.44
866.85	-9.9
867.024	-3.75
867.197	-26.28
867.371	26.96
867.544	-44.71
867.718	-3.75
867.891	45.4
868.065	29.01
868.238	-1.71
868.412	76.12
868.585	18.77
868.759	-7.85
868.932	-38.57
869.105	-50.86
869.279	-7.85
869.452	51.54
869.625	67.92
869.799	22.87
869.972	-38.57
870.145	-9.9
870.319	0.34
870.492	39.25
870.665	55.64
870.838	26.96
871.011	-40.62
871.185	-34.47
871.358	8.53
871.531	-54.95
871.704	-13.99
871.877	-5.8
872.05	35.16
872.223	45.4
872.396	35.16
872.569	8.53
872.742	-30.38
872.915	51.54
873.088	-22.19
873.261	104.79
873.434	2.39
873.607	-18.09
873.78	26.96
873.953	18.77
874.126	-11.95
874.299	-9.9
874.471	-20.14
874.644	92.5
874.817	12.63
874.99	55.64
875.163	65.88
875.335	-13.99
875.508	100.69
875.681	-18.09
875.853	67.92
876.026	-1.71
876.199	6.49
876.371	37.2
876.544	67.92
876.717	18.77
876.889	-22.19
877.062	76.12
877.234	-36.52
877.407	-42.67
877.579	-44.71
877.752	18.77
877.924	45.4
878.097	-5.8
878.269	-3.75
878.442	2.39
878.614	4.44
878.786	31.06
878.959	-9.9
879.131	51.54
879.303	-13.99
879.476	78.16
879.648	43.35
879.82	-13.99
879.993	-61.1
880.165	59.73
880.337	-11.95
880.509	10.58
880.681	-13.99
880.854	39.25
881.026	22.87
881.198	74.07
881.37	-24.23
881.542	-7.85
881.714	10.58
881.886	-9.9
882.058	65.88
882.23	2.39
882.402	12.63
882.574	61.78
882.746	131.41
882.918	47.44
883.09	2.39
883.262	-46.76
883.434	2.39
883.606	74.07
883.778	6.49
883.95	4.44
884.122	-26.28
884.293	61.78
884.465	31.06
884.637	22.87
884.809	20.82
884.98	61.78
885.152	22.87
885.324	-30.38
885.496	-38.57
885.667	8.53
885.839	2.39
886.011	39.25
886.182	4.44
886.354	29.01
886.525	45.4
886.697	20.82
886.869	33.11
887.04	10.58
887.212	76.12
887.383	106.84
887.555	78.16
887.726	24.92
887.897	20.82
888.069	-28.33
888.24	92.5
888.412	10.58
888.583	22.87
888.754	-52.91
888.926	-67.24
889.097	92.5
889.268	-5.8
889.44	24.92
889.611	-48.81
889.782	-30.38
889.953	-28.33
890.125	90.45
890.296	72.02
890.467	20.82
890.638	-85.67
890.809	24.92
890.98	-9.9
891.151	-3.75
891.323	51.54
891.494	-26.28
891.665	4.44
891.836	-13.99
892.007	-32.43
892.178	26.96
892.349	26.96
892.52	35.16
892.691	37.2
892.862	35.16
893.032	-63.15
893.203	51.54
893.374	43.35
893.545	53.59
893.716	14.68
893.887	2.39
894.057	24.92
894.228	51.54
894.399	-1.71
894.57	-11.95
894.74	18.77
894.911	4.44
895.082	-18.09
895.253	20.82
895.423	-9.9
895.594	2.39
895.764	-22.19
895.935	-13.99
896.106	-18.09
896.276	-50.86
896.447	-9.9
896.617	-18.09
896.788	-42.67
896.958	20.82
897.129	-7.85
897.299	18.77
897.47	63.83
897.64	20.82
897.81	-34.47
897.981	-5.8
898.151	-30.38
898.322	43.35
898.492	6.49
898.662	-13.99
898.832	2.39
899.003	-61.1
899.173	12.63
899.343	39.25
899.513	-63.15
