Data from USB4F104151__131__14-44-04-507.txt Node

Date: Thu Mar 13 14:44:04 EDT 2025
User: louis
Spectrometer: USB4F10415
Trigger mode: 4
Integration Time (sec): 2.000000E-2
Scans to average: 1
Electric dark correction enabled: true
Nonlinearity correction enabled: false
Boxcar width: 0
XAxis mode: Wavelengths
Number of Pixels in Spectrum: 3648
>>>>>Begin Spectral Data<<<<<
178.204	-170.32
178.424	-170.32
178.644	-170.32
178.864	-110.93
179.084	-125.27
179.304	-10.58
179.524	-29.01
179.744	91.82
179.964	1.71
180.184	-57.68
180.404	-16.73
180.624	5.8
180.844	26.28
181.064	-80.21
181.283	42.67
181.503	16.04
181.723	9.9
181.943	-55.64
182.163	52.91
182.383	16.04
182.602	9.9
182.822	-20.82
183.042	30.38
183.262	-55.64
183.482	-86.36
183.701	52.91
183.921	42.67
184.141	-72.02
184.361	63.15
184.58	42.67
184.8	-6.49
185.02	20.14
185.239	22.19
185.459	59.05
185.679	36.52
185.898	-8.53
186.118	-12.63
186.338	67.24
186.557	91.82
186.777	-39.25
186.997	-2.39
187.216	13.99
187.436	38.57
187.655	18.09
187.875	13.99
188.095	-22.87
188.314	95.91
188.534	59.05
188.753	-12.63
188.973	42.67
189.192	65.19
189.412	5.8
189.631	1.71
189.851	-22.87
190.07	-22.87
190.29	-26.96
190.509	-18.77
190.729	24.23
190.948	71.34
191.168	40.62
191.387	50.86
191.607	-69.97
191.826	5.8
192.045	-4.44
192.265	-4.44
192.484	-90.45
192.704	-6.49
192.923	-4.44
193.142	5.8
193.362	48.81
193.581	85.67
193.8	44.71
194.02	13.99
194.239	-16.73
194.458	40.62
194.678	-14.68
194.897	-2.39
195.116	34.47
195.335	13.99
195.555	-14.68
195.774	26.28
195.993	-2.39
196.212	-4.44
196.432	38.57
196.651	-22.87
196.87	13.99
197.089	36.52
197.308	24.23
197.528	50.86
197.747	9.9
197.966	30.38
198.185	18.09
198.404	-29.01
198.623	108.2
198.842	46.76
199.062	-26.96
199.281	61.1
199.5	-72.02
199.719	1.71
199.938	36.52
200.157	75.43
200.376	-10.58
200.595	36.52
200.814	-22.87
201.033	-22.87
201.252	36.52
201.471	42.67
201.69	63.15
201.909	34.47
202.128	42.67
202.347	-22.87
202.566	-57.68
202.785	28.33
203.004	-6.49
203.223	61.1
203.442	-24.92
203.661	-92.5
203.879	-26.96
204.098	67.24
204.317	-31.06
204.536	-4.44
204.755	26.28
204.974	36.52
205.193	5.8
205.411	44.71
205.63	-0.34
205.849	13.99
206.068	-20.82
206.287	34.47
206.505	40.62
206.724	3.75
206.943	16.04
207.162	11.95
207.381	11.95
207.599	1.71
207.818	11.95
208.037	3.75
208.255	-26.96
208.474	22.19
208.693	9.9
208.911	-20.82
209.13	13.99
209.349	18.09
209.567	-6.49
209.786	71.34
210.005	48.81
210.223	-67.92
210.442	-14.68
210.661	79.53
210.879	9.9
211.098	-0.34
211.316	-20.82
211.535	52.91
211.753	22.19
211.972	7.85
212.191	34.47
212.409	9.9
212.628	-22.87
212.846	-24.92
213.065	24.23
213.283	46.76
213.502	-55.64
213.72	-4.44
213.938	104.11
214.157	-45.4
214.375	-33.11
214.594	1.71
214.812	34.47
215.031	9.9
215.249	3.75
215.467	9.9
215.686	-8.53
215.904	38.57
216.122	-43.35
216.341	-37.2
216.559	-67.92
216.778	46.76
216.996	79.53
217.214	81.58
217.432	-96.6
217.651	9.9
217.869	-47.44
218.087	-22.87
218.306	-4.44
218.524	26.28
218.742	28.33
218.96	9.9
219.179	3.75
219.397	9.9
219.615	42.67
219.833	1.71
220.051	-37.2
220.27	5.8
220.488	63.15
220.706	124.58
220.924	1.71
221.142	42.67
221.36	42.67
221.578	38.57
221.796	13.99
222.015	36.52
222.233	34.47
222.451	26.28
222.669	-6.49
222.887	-51.54
223.105	-110.93
223.323	-6.49
223.541	-2.39
223.759	34.47
223.977	34.47
224.195	85.67
224.413	-35.16
224.631	73.39
224.849	108.2
225.067	44.71
225.285	-41.3
225.503	18.09
225.721	9.9
225.939	-45.4
226.157	-14.68
226.375	102.06
226.592	-31.06
226.81	36.52
227.028	26.28
227.246	30.38
227.464	32.43
227.682	50.86
227.9	50.86
228.117	34.47
228.335	-22.87
228.553	34.47
228.771	40.62
228.989	28.33
229.206	83.63
229.424	-12.63
229.642	-55.64
229.86	1.71
230.077	63.15
230.295	30.38
230.513	75.43
230.731	42.67
230.948	59.05
231.166	44.71
231.384	-18.77
231.601	9.9
231.819	42.67
232.037	-4.44
232.254	-69.97
232.472	59.05
232.689	-80.21
232.907	52.91
233.125	-4.44
233.342	-29.01
233.56	11.95
233.777	-35.16
233.995	59.05
234.213	11.95
234.43	-22.87
234.648	-31.06
234.865	-53.59
235.083	100.01
235.3	1.71
235.518	-6.49
235.735	100.01
235.953	-0.34
236.17	-8.53
236.388	-45.4
236.605	-22.87
236.822	59.05
237.04	63.15
237.257	36.52
237.475	-0.34
237.692	30.38
237.909	79.53
238.127	63.15
238.344	-14.68
238.562	-31.06
238.779	-33.11
238.996	54.95
239.214	-59.73
239.431	67.24
239.648	46.76
239.865	11.95
240.083	9.9
240.3	-4.44
240.517	34.47
240.735	7.85
240.952	54.95
241.169	38.57
241.386	16.04
241.603	9.9
241.821	11.95
242.038	63.15
242.255	-22.87
242.472	-84.31
242.689	20.14
242.907	32.43
243.124	9.9
243.341	22.19
243.558	-45.4
243.775	50.86
243.992	-39.25
244.209	-10.58
244.426	50.86
244.643	-24.92
244.86	16.04
245.078	46.76
245.295	26.28
245.512	9.9
245.729	-33.11
245.946	-33.11
246.163	13.99
246.38	-6.49
246.597	34.47
246.814	75.43
247.031	-51.54
247.248	38.57
247.464	7.85
247.681	67.24
247.898	42.67
248.115	11.95
248.332	-2.39
248.549	38.57
248.766	-12.63
248.983	13.99
249.2	22.19
249.417	-12.63
249.633	-4.44
249.85	59.05
250.067	26.28
250.284	3.75
250.501	13.99
250.717	22.19
250.934	-0.34
251.151	30.38
251.368	11.95
251.585	34.47
251.801	-24.92
252.018	-43.35
252.235	36.52
252.451	-31.06
252.668	5.8
252.885	69.29
253.102	-12.63
253.318	-51.54
253.535	5.8
253.752	18.09
253.968	18.09
254.185	-31.06
254.401	-35.16
254.618	-2.39
254.835	-18.77
255.051	67.24
255.268	22.19
255.484	63.15
255.701	-37.2
255.917	11.95
256.134	-39.25
256.351	-51.54
256.567	-6.49
256.784	-6.49
257	-61.78
257.217	-6.49
257.433	75.43
257.65	69.29
257.866	59.05
258.082	-6.49
258.299	-35.16
258.515	-4.44
258.732	1.71
258.948	-78.16
259.165	79.53
259.381	5.8
259.597	11.95
259.814	-22.87
260.03	5.8
260.246	20.14
260.463	30.38
260.679	34.47
260.895	-12.63
261.112	26.28
261.328	28.33
261.544	-29.01
261.761	38.57
261.977	-14.68
262.193	-20.82
262.409	77.48
262.626	32.43
262.842	-20.82
263.058	71.34
263.274	-35.16
263.49	5.8
263.707	-6.49
263.923	52.91
264.139	-12.63
264.355	-39.25
264.571	42.67
264.787	36.52
265.004	85.67
265.22	89.77
265.436	57
265.652	30.38
265.868	-2.39
266.084	-47.44
266.3	-0.34
266.516	-47.44
266.732	9.9
266.948	32.43
267.164	-20.82
267.38	-22.87
267.596	42.67
267.812	59.05
268.028	-6.49
268.244	-45.4
268.46	34.47
268.676	-6.49
268.892	-18.77
269.108	-22.87
269.324	3.75
269.54	-57.68
269.756	9.9
269.972	-18.77
270.188	13.99
270.403	-4.44
270.619	9.9
270.835	71.34
271.051	-14.68
271.267	34.47
271.483	-63.83
271.698	26.28
271.914	-14.68
272.13	9.9
272.346	-12.63
272.562	-29.01
272.777	-4.44
272.993	-37.2
273.209	-61.78
273.425	79.53
273.64	5.8
273.856	-4.44
274.072	13.99
274.287	-45.4
274.503	61.1
274.719	9.9
274.934	-22.87
275.15	-20.82
275.366	9.9
275.581	57
275.797	28.33
276.012	91.82
276.228	50.86
276.444	-10.58
276.659	-35.16
276.875	-53.59
277.09	36.52
277.306	-26.96
277.521	18.09
277.737	44.71
277.952	-29.01
278.168	52.91
278.383	44.71
278.599	1.71
278.814	38.57
279.03	-26.96
279.245	30.38
279.461	-39.25
279.676	40.62
279.892	-57.68
280.107	-88.4
280.322	18.09
280.538	3.75
280.753	-37.2
280.969	63.15
281.184	5.8
281.399	-8.53
281.615	-22.87
281.83	54.95
282.045	-20.82
282.26	34.47
282.476	-29.01
282.691	18.09
282.906	9.9
283.122	9.9
283.337	20.14
283.552	38.57
283.767	34.47
283.983	-12.63
284.198	26.28
284.413	18.09
284.628	-6.49
284.843	32.43
285.058	1.71
285.274	50.86
285.489	-26.96
285.704	-29.01
285.919	-14.68
286.134	63.15
286.349	50.86
286.564	-63.83
286.779	54.95
286.995	75.43
287.21	34.47
287.425	-8.53
287.64	-35.16
287.855	87.72
288.07	-14.68
288.285	57
288.5	28.33
288.715	93.87
288.93	-47.44
289.145	-29.01
289.36	-69.97
289.575	26.28
289.79	5.8
290.004	-45.4
290.219	52.91
290.434	28.33
290.649	-8.53
290.864	-12.63
291.079	69.29
291.294	18.09
291.509	59.05
291.724	77.48
291.938	-29.01
292.153	11.95
292.368	-45.4
292.583	-22.87
292.798	46.76
293.012	26.28
293.227	71.34
293.442	-6.49
293.657	9.9
293.871	30.38
294.086	-22.87
294.301	30.38
294.516	48.81
294.73	44.71
294.945	26.28
295.16	1.71
295.374	9.9
295.589	-2.39
295.804	38.57
296.018	44.71
296.233	38.57
296.447	-14.68
296.662	-47.44
296.877	-6.49
297.091	50.86
297.306	20.14
297.52	-6.49
297.735	42.67
297.949	18.09
298.164	-20.82
298.378	77.48
298.593	-29.01
298.807	-26.96
299.022	-47.44
299.236	-10.58
299.451	-45.4
299.665	18.09
299.88	3.75
300.094	-41.3
300.309	42.67
300.523	-10.58
300.737	5.8
300.952	-18.77
301.166	28.33
301.381	59.05
301.595	13.99
301.809	-41.3
302.024	38.57
302.238	9.9
302.452	34.47
302.667	11.95
302.881	69.29
303.095	48.81
303.309	-37.2
303.524	-45.4
303.738	44.71
303.952	-26.96
304.166	-2.39
304.381	-88.4
304.595	11.95
304.809	38.57
305.023	116.39
305.237	9.9
305.452	-12.63
305.666	-4.44
305.88	-20.82
306.094	30.38
306.308	-26.96
306.522	61.1
306.736	-57.68
306.95	-4.44
307.164	1.71
307.379	26.28
307.593	1.71
307.807	13.99
308.021	36.52
308.235	-39.25
308.449	28.33
308.663	13.99
308.877	73.39
309.091	-31.06
309.305	22.19
309.519	-39.25
309.733	1.71
309.947	-2.39
310.161	34.47
310.374	65.19
310.588	52.91
310.802	-10.58
311.016	1.71
311.23	20.14
311.444	3.75
311.658	-35.16
311.872	40.62
312.085	-4.44
312.299	26.28
312.513	-31.06
312.727	11.95
312.941	26.28
313.154	77.48
313.368	11.95
313.582	3.75
313.796	50.86
314.009	-31.06
314.223	1.71
314.437	18.09
314.651	28.33
314.864	-37.2
315.078	40.62
315.292	-26.96
315.505	-63.83
315.719	3.75
315.933	65.19
316.146	22.19
316.36	-41.3
316.573	-24.92
316.787	67.24
317.001	-22.87
317.214	-67.92
317.428	30.38
317.641	36.52
317.855	18.09
318.068	-20.82
318.282	-6.49
318.495	46.76
318.709	46.76
318.922	48.81
319.136	44.71
319.349	28.33
319.563	-6.49
319.776	67.24
319.99	3.75
320.203	-10.58
320.417	59.05
320.63	34.47
320.843	42.67
321.057	13.99
321.27	50.86
321.483	-72.02
321.697	61.1
321.91	85.67
322.124	61.1
322.337	42.67
322.55	9.9
322.763	-26.96
322.977	11.95
323.19	-4.44
323.403	-82.26
323.617	-39.25
323.83	22.19
324.043	-59.73
324.256	-22.87
324.469	-45.4
324.683	128.68
324.896	-31.06
325.109	38.57
325.322	-37.2
325.535	13.99
325.748	26.28
325.962	34.47
326.175	34.47
326.388	-12.63
326.601	-29.01
326.814	-18.77
327.027	9.9
327.24	91.82
327.453	-12.63
327.666	7.85
327.879	32.43
328.092	-4.44
328.305	44.71
328.518	-14.68
328.731	9.9
328.944	34.47
329.157	59.05
329.37	20.14
329.583	1.71
329.796	34.47
330.009	-39.25
330.222	-47.44
330.435	-12.63
330.648	42.67
330.861	69.29
331.073	26.28
331.286	71.34
331.499	-2.39
331.712	-37.2
331.925	7.85
332.138	-45.4
332.35	91.82
332.563	-31.06
332.776	50.86
332.989	-39.25
333.202	-2.39
333.414	24.23
333.627	13.99
333.84	42.67
334.053	-14.68
334.265	59.05
334.478	-18.77
334.691	30.38
334.903	-12.63
335.116	9.9
335.329	1.71
335.541	91.82
335.754	130.73
335.966	-0.34
336.179	20.14
336.392	22.19
336.604	42.67
336.817	67.24
337.029	20.14
337.242	18.09
337.454	34.47
337.667	-14.68
337.88	30.38
338.092	-39.25
338.305	18.09
338.517	-24.92
338.729	-47.44
338.942	9.9
339.154	-22.87
339.367	-45.4
339.579	3.75
339.792	3.75
340.004	16.04
340.217	-0.34
340.429	50.86
340.641	38.57
340.854	11.95
341.066	50.86
341.278	77.48
341.491	36.52
341.703	65.19
341.915	-31.06
342.128	1.71
342.34	-20.82
342.552	3.75
342.764	22.19
342.977	34.47
343.189	42.67
343.401	1.71
343.613	9.9
343.826	18.09
344.038	-12.63
344.25	44.71
344.462	-2.39
344.674	38.57
344.886	57
345.099	-6.49
345.311	-4.44
345.523	-18.77
345.735	9.9
345.947	26.28
346.159	63.15
346.371	26.28
346.583	-69.97
346.795	34.47
347.007	-6.49
347.219	11.95
347.431	-10.58
347.643	18.09
347.855	-12.63
348.067	61.1
348.279	-20.82
348.491	13.99
348.703	-14.68
348.915	5.8
349.127	-12.63
349.339	-14.68
349.551	11.95
349.763	140.97
349.975	28.33
350.187	24.23
350.399	28.33
350.61	26.28
350.822	-61.78
351.034	-22.87
351.246	13.99
351.458	26.28
351.669	38.57
351.881	59.05
352.093	-26.96
352.305	48.81
352.517	-2.39
352.728	-14.68
352.94	26.28
353.152	-8.53
353.363	-55.64
353.575	28.33
353.787	1.71
353.999	75.43
354.21	36.52
354.422	9.9
354.633	-10.58
354.845	-31.06
355.057	-22.87
355.268	18.09
355.48	11.95
355.692	-51.54
355.903	75.43
356.115	91.82
356.326	3.75
356.538	42.67
356.749	-12.63
356.961	26.28
357.172	26.28
357.384	-2.39
357.595	63.15
357.807	18.09
358.018	73.39
358.23	20.14
358.441	77.48
358.653	28.33
358.864	52.91
359.075	-2.39
359.287	42.67
359.498	128.68
359.709	46.76
359.921	-31.06
360.132	85.67
360.344	22.19
360.555	67.24
360.766	7.85
360.977	-22.87
361.189	50.86
361.4	32.43
361.611	122.54
361.823	87.72
362.034	24.23
362.245	-31.06
362.456	1.71
362.667	-12.63
362.879	9.9
363.09	34.47
363.301	20.14
363.512	18.09
363.723	7.85
363.935	67.24
364.146	79.53
364.357	18.09
364.568	-0.34
364.779	-76.12
364.99	75.43
365.201	13.99
365.412	11.95
365.623	54.95
365.834	57
366.045	63.15
366.256	83.63
366.467	46.76
366.678	-39.25
366.889	67.24
367.1	61.1
367.311	83.63
367.522	26.28
367.733	24.23
367.944	46.76
368.155	18.09
368.366	50.86
368.577	61.1
368.788	28.33
368.999	-61.78
369.209	7.85
369.42	36.52
369.631	24.23
369.842	52.91
370.053	-12.63
370.264	26.28
370.474	24.23
370.685	-24.92
370.896	9.9
371.107	54.95
371.317	83.63
371.528	30.38
371.739	83.63
371.95	1.71
372.16	36.52
372.371	-59.73
372.582	38.57
372.792	77.48
373.003	50.86
373.214	36.52
373.424	26.28
373.635	-22.87
373.846	50.86
374.056	67.24
374.267	18.09
374.477	-14.68
374.688	-37.2
374.898	28.33
375.109	-6.49
375.319	-31.06
375.53	30.38
375.74	42.67
375.951	5.8
376.161	-67.92
376.372	50.86
376.582	63.15
376.793	118.44
377.003	-26.96
377.214	44.71
377.424	13.99
377.635	-8.53
377.845	-0.34
378.055	91.82
378.266	-35.16
378.476	42.67
378.686	9.9
378.897	59.05
379.107	59.05
379.317	-20.82
379.528	-29.01
379.738	52.91
379.948	59.05
380.158	50.86
380.369	30.38
380.579	3.75
380.789	-39.25
380.999	20.14
381.21	42.67
381.42	61.1
381.63	-72.02
381.84	5.8
382.05	18.09
382.261	34.47
382.471	75.43
382.681	26.28
382.891	87.72
383.101	30.38
383.311	-18.77
383.521	-29.01
383.731	-41.3
383.941	-10.58
384.151	42.67
384.361	-26.96
384.571	28.33
384.781	59.05
384.991	46.76
385.201	75.43
385.411	1.71
385.621	46.76
385.831	-47.44
386.041	-4.44
386.251	69.29
386.461	-37.2
386.671	-55.64
386.881	67.24
387.091	50.86
387.301	30.38
387.511	1.71
387.72	28.33
387.93	38.57
388.14	44.71
388.35	-18.77
388.56	-20.82
388.769	48.81
388.979	83.63
389.189	-0.34
389.399	-14.68
389.609	95.91
389.818	26.28
390.028	-20.82
390.238	22.19
390.447	-41.3
390.657	36.52
390.867	-39.25
391.076	-24.92
391.286	13.99
391.496	67.24
391.705	85.67
391.915	124.58
392.125	28.33
392.334	44.71
392.544	36.52
392.753	54.95
392.963	-6.49
393.172	50.86
393.382	36.52
393.591	91.82
393.801	40.62
394.01	102.06
394.22	52.91
394.429	54.95
394.639	-22.87
394.848	9.9
395.058	-4.44
395.267	28.33
395.477	-18.77
395.686	22.19
395.895	87.72
396.105	108.2
396.314	147.11
396.524	106.15
396.733	48.81
396.942	116.39
397.152	34.47
397.361	34.47
397.57	50.86
397.78	75.43
397.989	-6.49
398.198	95.91
398.407	13.99
398.617	91.82
398.826	26.28
399.035	110.25
399.244	36.52
399.453	81.58
399.663	89.77
399.872	120.49
400.081	-12.63
400.29	52.91
400.499	73.39
400.708	65.19
400.917	120.49
401.127	71.34
401.336	50.86
401.545	67.24
401.754	104.11
401.963	140.97
402.172	79.53
402.381	100.01
402.59	132.78
402.799	54.95
403.008	54.95
403.217	110.25
403.426	54.95
403.635	124.58
403.844	83.63
404.053	108.2
404.262	97.96
404.471	145.06
404.68	77.48
404.888	50.86
405.097	91.82
405.306	77.48
405.515	100.01
405.724	65.19
405.933	110.25
406.142	128.68
406.35	110.25
406.559	46.76
406.768	77.48
406.977	206.5
407.185	104.11
407.394	110.25
407.603	108.2
407.812	91.82
408.02	186.02
408.229	153.26
408.438	169.64
408.646	100.01
408.855	190.12
409.064	157.35
409.272	140.97
409.481	192.17
409.69	75.43
409.898	196.26
410.107	233.13
410.315	231.08
410.524	212.65
410.733	130.73
410.941	181.93
411.15	265.89
411.358	190.12
411.567	370.34
411.775	368.29
411.984	310.95
412.192	274.09
412.401	296.61
412.609	304.81
412.818	315.05
413.026	370.34
413.234	380.58
413.443	319.14
413.651	370.34
413.86	435.88
414.068	476.84
414.276	429.73
414.485	427.68
414.693	495.27
414.901	589.47
415.11	534.18
415.318	435.88
415.526	468.64
415.734	538.27
415.943	571.04
416.151	534.18
416.359	640.67
416.567	642.72
416.776	622.24
416.984	638.62
417.192	655.01
417.4	755.36
417.608	675.49
417.817	734.88
418.025	839.33
418.233	847.52
418.441	765.6
418.649	810.65
418.857	855.71
419.065	904.86
419.273	923.29
419.481	980.64
419.689	988.83
419.897	1074.84
420.105	1123.99
420.313	1158.81
420.521	1074.84
420.729	1109.66
420.937	1250.97
421.145	1230.49
421.353	1347.22
421.561	1394.33
421.769	1470.1
421.977	1443.48
422.185	1506.96
422.393	1560.21
422.601	1552.02
422.809	1646.23
423.017	1625.75
423.224	1697.42
423.432	1758.86
423.64	1777.3
423.848	1934.99
424.056	1928.85
424.263	2070.16
424.471	2029.2
424.679	2070.16
424.887	2209.42
425.094	2254.47
425.302	2281.1
425.51	2270.86
425.718	2528.9
425.925	2440.84
426.133	2492.04
426.341	2713.22
426.548	2664.07
426.756	2795.14
426.964	2797.18
427.171	2920.06
427.379	3028.6
427.586	3012.22
427.794	3264.12
428.001	3387
428.209	3425.91
428.417	3366.52
428.624	3706.48
428.832	3747.44
429.039	3704.43
429.247	3780.21
429.454	4073.07
429.662	4224.62
429.869	3921.52
430.076	4255.34
430.284	4124.27
430.491	4271.72
430.699	4675.17
430.906	4550.25
431.114	4599.4
431.321	4761.19
431.528	5027.42
431.736	5320.28
431.943	5355.1
432.15	5154.4
432.358	5367.38
432.565	5754.45
432.772	5650
432.979	5969.49
433.187	5965.39
433.394	6069.84
433.601	6504.01
433.808	6532.68
434.016	6397.51
434.223	6749.76
434.43	7202.36
434.637	6940.22
434.844	7501.37
435.052	7468.6
435.259	7241.28
435.466	7468.6
435.673	7413.31
435.88	8029.74
436.087	8384.04
436.294	8472.11
436.501	8255.02
436.708	8308.27
436.915	8832.55
437.122	8920.61
437.329	9068.06
437.537	9223.71
437.743	9324.06
437.95	9408.03
438.157	10049.04
438.364	10298.89
438.571	10182.16
438.778	10196.5
438.985	11240.96
439.192	10690.06
439.399	10995.2
439.606	11064.83
439.813	11382.27
440.02	11884.02
440.227	11838.97
440.433	11695.61
440.64	12043.76
440.847	12013.04
441.054	12322.29
441.261	12920.29
441.467	12903.91
441.674	13231.58
441.881	13919.7
442.088	13805.02
442.294	13780.44
442.501	13770.2
442.708	14284.24
442.914	14941.64
443.121	15394.24
443.328	14978.5
443.534	16098.74
443.741	15594.94
443.948	15041.99
444.154	16704.94
444.361	16584.11
444.568	16469.42
444.774	16459.18
444.981	16600.49
445.187	17313.19
445.394	17882.52
445.6	17671.58
445.807	19428.74
446.013	18566.54
446.22	18875.79
446.426	19672.45
446.633	19703.17
446.839	20370.8
447.046	19680.64
447.252	20624.75
447.459	20696.43
447.665	20770.16
447.871	21427.56
448.078	22353.24
448.284	21427.56
448.491	21814.62
448.697	22453.59
448.903	23133.51
449.11	23362.89
449.316	22715.73
449.522	23528.77
449.728	24003.9
449.935	23940.41
450.141	24237.37
450.347	24796.46
450.553	23921.98
450.76	24231.22
450.966	24948.01
451.172	24763.7
451.378	25586.98
451.584	24980.78
451.791	25554.21
451.997	25648.42
452.203	25623.84
452.409	26098.97
452.615	25738.53
452.821	24552.76
453.027	24573.24
453.233	26080.54
453.44	24749.36
453.646	25386.28
453.852	25496.87
454.058	25808.16
454.264	24765.74
454.47	25754.91
454.676	24700.21
454.882	25642.28
455.088	23389.51
455.294	23803.2
455.5	24167.74
455.705	24452.41
455.911	23504.2
456.117	23053.64
456.323	22857.04
456.529	21505.38
456.735	22752.59
456.941	22160.73
457.147	21407.08
457.352	20979.05
457.558	20886.89
457.764	20694.38
457.97	20614.51
458.176	20088.18
458.381	19756.41
458.587	19246.47
458.793	19107.21
458.999	18126.23
459.204	19498.37
459.41	18668.94
459.616	17620.38
459.821	17659.29
460.027	17429.92
460.233	17175.97
460.438	16422.32
460.644	16387.5
460.85	15470.01
461.055	15609.28
461.261	15658.43
461.466	14255.57
461.672	13927.89
461.878	15056.32
462.083	14026.2
462.289	13678.04
462.494	13594.08
462.7	13008.36
462.905	12824.04
463.111	13137.38
463.316	13082.08
463.522	12889.57
463.727	12711.4
463.932	12797.42
464.138	12840.42
464.343	12711.4
464.549	12238.32
464.754	12811.75
464.959	12678.63
465.165	12488.17
465.37	11941.36
465.575	11845.11
465.781	12223.98
465.986	12217.84
466.191	11822.58
466.397	11636.22
466.602	11066.88
466.807	11537.91
467.012	11474.43
467.218	11335.17
467.423	11331.07
467.628	11109.89
467.833	11681.27
468.038	11300.35
468.244	10970.63
468.449	11421.18
468.654	10939.91
468.859	10870.28
469.064	11038.21
469.269	10608.14
469.474	10712.58
469.679	10884.61
469.885	10497.55
470.09	10657.29
470.295	10421.77
470.5	10329.61
470.705	10548.75
470.91	10278.41
471.115	10184.21
471.32	10266.13
471.525	10057.23
471.73	9913.88
471.935	9858.58
472.139	9621.02
472.344	9997.84
472.549	9496.09
472.754	9563.67
472.959	9358.88
473.164	9014.82
473.369	9008.67
473.574	9442.84
473.778	9201.18
473.983	9389.6
474.188	9164.32
474.393	8549.93
474.598	8740.39
474.802	8781.35
475.007	8588.84
475.212	8648.23
475.417	8330.8
475.621	8242.73
475.826	8412.71
476.031	8300.08
476.235	7970.35
476.44	8080.94
476.645	8025.65
476.849	8058.42
477.054	8082.99
477.259	7833.14
477.463	7714.36
477.668	7491.13
477.872	7800.37
478.077	7484.98
478.282	7226.94
478.486	7329.34
478.691	7214.65
478.895	7106.11
479.1	7325.24
479.304	7317.05
479.509	6981.18
479.713	7294.52
479.918	6952.51
480.122	6981.18
480.326	7132.73
480.531	6964.8
480.735	6866.5
480.94	6876.74
481.144	6993.47
481.348	6694.47
481.553	6979.14
481.757	6598.21
481.961	6712.9
482.166	6782.53
482.37	6927.94
482.574	6538.82
482.778	6694.47
482.983	6841.92
483.187	6841.92
483.391	6817.35
483.595	6757.96
483.8	6596.17
484.004	6762.05
484.208	6706.76
484.412	6768.2
484.616	6579.78
484.821	6669.89
485.025	6399.56
485.229	6786.63
485.433	6614.6
485.637	6489.67
485.841	6538.82
486.045	6630.98
486.249	6714.95
486.453	6690.37
486.657	6669.89
486.861	6835.78
487.065	6508.1
487.269	6461
487.473	6518.34
487.677	6710.85
487.881	6792.77
488.085	6727.24
488.289	6710.85
488.493	6676.04
488.697	6753.86
488.901	6841.92
489.105	6669.89
489.309	6778.44
489.512	6743.62
489.716	6854.21
489.92	6760
490.124	6784.58
490.328	6872.64
490.531	6688.32
490.735	6981.18
490.939	6817.35
491.143	6893.12
491.346	6727.24
491.55	6940.22
491.754	7110.21
491.958	6970.94
492.161	7034.43
492.365	7013.95
492.569	6790.72
492.772	7089.73
492.976	7198.27
493.18	6999.62
493.383	7278.14
493.587	7161.41
493.79	7276.09
493.994	7425.59
494.197	7366.2
494.401	7374.39
494.605	7247.42
494.808	7566.9
495.012	7448.12
495.215	7497.27
495.419	7614.01
495.622	7530.04
495.825	7765.56
496.029	7714.36
496.232	7800.37
496.436	7964.21
496.639	8119.85
496.843	7888.43
497.046	8181.29
497.249	8136.24
497.453	8316.46
497.656	8545.83
497.859	8594.98
498.063	8603.18
498.266	8699.43
498.469	8617.51
498.673	8914.47
498.876	8926.75
499.079	8932.9
499.282	8891.94
499.485	9276.96
499.689	9154.08
499.892	9350.68
500.095	9365.02
500.298	9610.78
500.501	9446.94
500.705	9766.42
500.908	9915.92
501.111	10010.13
501.314	10147.34
501.517	10100.24
501.72	10558.99
501.923	10339.85
502.126	10501.64
502.329	10792.45
502.532	10749.45
502.735	10751.49
502.938	10952.2
503.141	11097.6
503.344	11257.34
503.547	11275.77
503.75	11478.52
503.953	11693.56
504.156	11728.38
504.359	11683.32
504.562	11765.24
504.765	12006.9
504.968	12135.92
505.17	12402.16
505.373	12383.73
505.576	12570.09
505.779	12705.26
505.982	12525.04
506.185	13178.34
506.387	13032.93
506.59	13370.85
506.793	13389.28
506.996	13600.22
507.198	13835.74
507.401	13919.7
507.604	13944.28
507.807	14288.34
508.009	14347.73
508.212	14407.12
508.415	14532.04
508.617	14536.14
508.82	14890.44
509.022	14716.36
509.225	15148.48
509.428	15236.55
509.63	15506.88
509.833	15441.34
510.035	15900.09
510.238	15762.87
510.44	15977.91
510.643	16223.67
510.845	16424.37
511.048	16264.63
511.25	16356.79
511.453	16573.87
511.655	17245.6
511.858	17223.08
512.06	17233.32
512.262	17458.59
512.465	17304.99
512.667	17737.12
512.87	17663.39
513.072	17984.92
513.274	18220.44
513.477	18486.67
513.679	18521.49
513.881	18951.56
514.084	19064.2
514.286	19133.83
514.488	19309.96
514.69	19774.84
514.893	19774.84
515.095	19725.69
515.297	19924.35
515.499	20198.77
515.701	20198.77
515.904	20604.27
516.106	20704.62
516.308	20714.86
516.51	21241.19
516.712	21415.27
516.914	21386.6
517.116	21788
517.318	21779.81
517.52	21892.44
517.722	22179.16
517.925	22594.9
518.127	22803.79
518.329	22824.27
518.531	22873.42
518.733	23192.9
518.935	23323.97
519.136	23409.99
519.338	23637.31
519.54	23950.65
519.742	24333.62
519.944	24116.54
520.146	24507.7
520.348	24687.92
520.55	24775.98
520.752	24816.94
520.954	25339.18
521.155	25333.03
521.357	25605.41
521.559	25885.98
521.761	26123.55
521.963	25845.02
522.164	26258.71
522.366	26451.22
522.568	26776.85
522.77	26985.74
522.971	27014.41
523.173	26832.15
523.375	27368.71
523.576	27346.19
523.778	27401.48
523.98	28054.78
524.181	28081.41
524.383	28015.87
524.584	28509.43
524.786	28366.07
524.988	28517.62
525.189	28863.73
525.391	28892.4
525.592	28429.56
525.794	29213.93
525.995	29566.18
526.197	29265.13
526.398	29351.15
526.6	29623.53
526.801	29822.18
527.003	29838.56
527.204	29596.9
527.406	29777.12
527.607	29801.7
527.808	30428.38
528.01	29785.32
528.211	30246.11
528.412	31239.37
528.614	30592.22
528.815	31061.2
529.016	30895.32
529.218	30684.37
529.419	30661.85
529.62	31014.1
529.822	30799.06
530.023	30905.56
530.224	31155.41
530.425	31222.99
530.626	30837.97
530.828	30897.36
531.029	31868.1
531.23	30966.99
531.431	31364.3
531.632	31464.65
531.833	31446.22
532.035	31321.29
532.236	31665.35
532.437	31540.43
532.638	31478.99
532.839	31587.53
533.04	31669.45
533.241	31458.51
533.442	32304.32
533.643	31388.88
533.844	32050.37
534.045	31902.92
534.246	31663.3
534.447	31833.28
534.648	31765.7
534.849	31892.68
535.05	31577.29
535.251	32130.24
535.451	31710.41
535.652	32199.87
535.853	31722.69
536.054	31823.05
536.255	32036.03
536.456	31409.36
536.657	31907.01
536.857	31812.81
537.058	31636.68
537.259	32085.19
537.46	32122.05
537.66	31743.17
537.861	32054.47
538.062	32003.27
538.263	31847.62
538.463	31923.4
538.664	31456.46
538.865	32169.15
539.065	32300.22
539.266	31640.78
539.466	32203.97
539.667	31763.65
539.868	31974.59
540.068	31478.99
540.269	31753.41
540.469	31909.06
540.67	31931.59
540.87	31843.52
541.071	31536.33
541.271	31788.23
541.472	31792.33
541.672	31843.52
541.873	31843.52
542.073	31268.05
542.274	31802.57
542.474	31741.13
542.675	31630.54
542.875	32357.56
543.075	31726.79
543.276	31315.15
543.476	31990.98
543.676	31618.25
543.877	31687.88
544.077	31759.56
544.277	31704.26
544.478	31599.82
544.678	32001.22
544.878	31540.43
545.078	31726.79
545.279	31653.06
545.479	31444.17
545.679	31642.82
545.879	31620.3
546.079	31503.56
546.28	31653.06
546.48	31225.04
546.68	31571.14
546.88	31857.86
547.08	31710.41
547.28	31743.17
547.48	31065.3
547.68	31524.04
547.88	31227.09
548.081	31986.88
548.281	31540.43
548.481	31212.75
548.681	31630.54
548.881	31491.27
549.081	31517.9
549.28	31028.43
549.48	31757.51
549.68	31382.73
549.88	32087.23
550.08	31702.21
550.28	31818.95
550.48	31491.27
550.68	31368.4
550.88	31294.67
551.08	31550.67
551.279	31589.58
551.479	31251.66
551.679	31257.81
551.879	31417.55
552.079	31366.35
552.278	30993.62
552.478	31435.98
552.678	31266
552.878	31790.28
553.077	31311.05
553.277	31163.6
553.477	31356.11
553.676	31024.34
553.876	31200.46
554.076	31130.83
554.275	31304.91
554.475	30891.22
554.674	31249.61
554.874	31255.76
555.074	30964.95
555.273	30895.32
555.473	30962.9
555.672	30614.74
555.872	31155.41
556.071	31018.19
556.271	31089.87
556.47	31028.43
556.67	30586.07
556.869	30674.13
557.068	31089.87
557.268	30602.46
557.467	30815.44
557.667	30713.05
557.866	30547.16
558.065	30559.45
558.265	30397.66
558.464	30559.45
558.663	30831.83
558.863	30172.38
559.062	31087.82
559.261	30444.76
559.461	30366.94
559.66	30139.61
559.859	30301.4
560.058	30149.85
560.258	30293.21
560.457	29844.71
560.656	30133.47
560.855	29953.25
561.054	30082.27
561.253	29676.77
561.453	30356.7
561.652	30133.47
561.851	30037.22
562.05	29691.11
562.249	29730.02
562.448	29885.67
562.647	29744.36
562.846	29730.02
563.045	29656.29
563.244	29240.56
563.443	29580.52
563.642	29271.28
563.841	29383.91
564.04	28939.51
564.239	29439.21
564.438	29025.52
564.637	29117.68
564.836	29254.89
565.035	28742.9
565.234	29232.36
565.432	28771.57
565.631	28902.64
565.83	28525.82
566.029	28525.82
566.228	28861.68
566.427	28554.49
566.625	28527.86
566.824	28404.99
567.023	28347.64
567.222	27852.03
567.42	28351.74
567.619	28136.7
567.818	28177.66
568.016	28105.98
568.215	28112.13
568.414	27942.14
568.612	28126.46
568.811	27786.5
569.01	28087.55
569.208	27667.72
569.407	27854.08
569.605	27172.11
569.804	27657.48
570.002	27395.34
570.201	27446.54
570.4	27190.54
570.598	27018.51
570.797	27348.23
570.995	27213.07
571.193	27137.29
571.392	27274.51
571.59	26938.64
571.789	26821.91
571.987	26686.74
572.186	26811.67
572.384	26787.09
572.582	26832.15
572.781	26854.67
572.979	26180.89
573.177	26488.09
573.376	26586.39
573.574	26137.88
573.772	26330.39
573.971	26084.64
574.169	25974.05
574.367	25789.73
574.565	26340.63
574.763	25836.83
574.962	25865.5
575.16	25468.2
575.358	25517.35
575.556	25486.63
575.754	25586.98
575.952	25259.31
576.151	25738.53
576.349	24888.62
576.547	25376.04
576.745	25701.67
576.943	25523.49
577.141	24896.81
577.339	25118
577.537	25079.08
577.735	24843.57
577.933	24782.13
578.131	24816.94
578.329	24646.96
578.527	24724.79
578.725	24628.53
578.923	24919.34
579.121	24245.56
579.319	24223.03
579.516	24454.45
579.714	24628.53
579.912	24519.99
580.11	24120.63
580.308	24104.25
580.506	24177.98
580.704	23573.83
580.901	23811.39
581.099	24165.69
581.297	23676.23
581.495	23682.37
581.692	24001.85
581.89	23618.88
582.088	23854.4
582.285	23309.64
582.483	23919.93
582.681	23547.2
582.878	23461.19
583.076	23133.51
583.274	23434.57
583.471	23149.9
583.669	23246.15
583.866	23012.68
584.064	23280.97
584.262	22676.82
584.459	22752.59
584.657	22898
584.854	22869.33
585.052	22502.74
585.249	22531.41
585.447	22588.75
585.644	22320.47
585.841	22250.84
586.039	22498.64
586.236	22179.16
586.434	22232.41
586.631	22074.71
586.828	22183.26
587.026	22087
587.223	21861.73
587.42	21695.84
587.618	21861.73
587.815	21742.94
588.012	21677.41
588.21	21409.12
588.407	22054.23
588.604	21548.39
588.801	21368.16
588.999	21355.88
589.196	21439.84
589.393	21394.79
589.59	21140.84
589.787	21261.67
589.984	21040.49
590.182	20821.36
590.379	21228.9
590.576	20764.01
590.773	20987.24
590.97	20694.38
591.167	20723.05
591.364	20483.44
591.561	20725.1
591.758	20368.76
591.955	20522.35
592.152	20604.27
592.349	20426.1
592.546	20221.3
592.743	20583.79
592.94	20041.08
593.137	20114.81
593.334	20297.08
593.531	19998.07
593.727	19916.15
593.924	19948.92
594.121	20057.46
594.318	19920.25
594.515	19543.42
594.712	19936.63
594.908	19733.89
595.105	19578.24
595.302	19342.72
595.499	19662.21
595.696	19428.74
595.892	19240.33
596.089	19221.89
596.286	19410.31
596.482	19139.97
596.679	19131.78
596.876	19041.67
597.072	19256.71
597.269	18988.42
597.466	18941.32
597.662	18867.59
597.859	18912.65
598.055	18564.5
598.252	18605.45
598.448	18718.09
598.645	18554.26
598.841	18339.22
599.038	18539.92
599.234	18525.58
599.431	18482.58
599.627	18351.51
599.824	18412.95
600.02	18267.54
600.217	18527.63
600.413	17907.1
600.609	17976.73
600.806	17982.87
601.002	18003.35
601.198	18025.88
601.395	17948.06
601.591	17417.63
601.787	17673.63
601.984	17558.94
602.18	17862.04
602.376	17630.62
602.572	17651.1
602.769	17663.39
602.965	17212.84
603.161	17315.23
603.357	17216.93
603.553	17188.26
603.75	17247.65
603.946	16897.45
604.142	17061.29
604.338	17063.33
604.534	16899.5
604.73	16694.7
604.926	16897.45
605.122	16598.45
605.318	16627.12
605.514	16704.94
605.71	16647.6
605.906	16737.71
606.102	16684.46
606.298	16549.29
606.494	16682.41
606.69	16725.42
606.886	16498.09
607.082	16051.64
607.278	16358.83
607.474	16072.12
607.67	16227.76
607.866	16035.25
608.062	16266.67
608.257	16211.38
608.453	16018.87
608.649	16043.45
608.845	15830.46
609.041	16061.88
609.236	16160.18
609.432	15979.96
609.628	16029.11
609.824	15861.18
610.019	15654.33
610.215	15807.93
610.411	15742.39
610.606	15443.39
610.802	15705.53
610.998	15480.25
611.193	15715.77
611.389	15357.38
611.584	15596.99
611.78	15347.14
611.976	15322.56
612.171	15472.06
612.367	15424.96
612.562	15363.52
612.758	15183.3
612.953	15248.83
613.149	15431.1
613.344	15080.9
613.539	15029.7
613.735	15162.82
613.93	15150.53
614.126	14915.02
614.321	15279.55
614.517	15013.32
614.712	15025.61
614.907	14998.98
615.103	15357.38
615.298	15015.37
615.493	15099.33
615.688	14718.41
615.884	15199.68
616.079	14773.71
616.274	14695.88
616.47	14636.49
616.665	14931.4
616.86	14626.25
617.055	14765.51
617.25	14495.18
617.445	14788.04
617.641	14384.59
617.836	14484.94
618.031	14366.16
618.226	14468.56
618.421	14149.07
618.616	14486.99
618.811	14024.15
619.006	14253.52
619.201	13913.56
619.396	14110.16
619.591	13811.16
619.786	14200.27
619.981	13602.27
620.176	14020.05
620.371	13841.88
620.566	13796.82
620.761	13577.69
620.956	13620.7
621.151	13497.82
621.346	13614.55
621.541	13305.31
621.735	13546.97
621.93	13129.19
622.125	13293.02
622.32	13157.86
622.515	13407.71
622.709	12865
622.904	13051.36
623.099	12789.22
623.294	12991.97
623.488	12557.8
623.683	12844.52
623.878	12471.79
624.072	12600.81
624.267	12498.41
624.462	12641.77
624.656	12469.74
624.851	12365.29
625.046	12086.77
625.24	12367.34
625.435	11881.97
625.629	11996.66
625.824	12078.58
626.018	11955.7
626.213	11802.1
626.407	11986.42
626.602	11566.59
626.796	11761.14
626.991	11630.07
627.185	11548.15
627.38	11478.52
627.574	11494.91
627.768	11195.9
627.963	11265.53
628.157	11054.59
628.352	11421.18
628.546	11279.87
628.74	11120.13
628.935	11003.39
629.129	10898.95
629.323	11003.39
629.517	10847.75
629.712	10749.45
629.906	10880.52
630.1	10700.3
630.294	10524.17
630.489	10497.55
630.683	10397.2
630.877	10259.98
631.071	10077.71
631.265	10339.85
631.459	10147.34
631.653	10225.17
631.848	10346
632.042	10298.89
632.236	10046.99
632.43	10016.27
632.624	9889.3
632.818	9999.89
633.012	9881.11
633.206	9623.06
633.4	9922.07
633.594	9694.74
633.788	9852.44
633.982	9602.58
634.176	9481.75
634.369	9494.04
634.563	9356.83
634.757	9334.3
634.951	9223.71
635.145	9340.44
635.339	9233.95
635.533	9242.14
635.726	9141.79
635.92	9176.61
636.114	9090.59
636.308	9170.46
636.501	8949.28
636.695	9127.46
636.889	8939.04
637.083	8939.04
637.276	8537.64
637.47	8523.3
637.664	8627.75
637.857	8693.29
638.051	8785.44
638.244	8590.89
638.438	8642.09
638.632	8537.64
638.825	8406.57
639.019	8410.67
639.212	8218.16
639.406	8242.73
639.599	8408.62
639.793	8384.04
639.986	8150.57
640.18	8103.47
640.373	8203.82
640.567	7994.93
640.76	8105.52
640.954	7818.8
641.147	7941.68
641.34	7849.52
641.534	7915.06
641.727	7734.84
641.92	7685.69
642.114	7695.93
642.307	7800.37
642.5	7540.28
642.694	7427.64
642.887	7499.32
643.08	7503.42
643.273	7530.04
643.467	7343.67
643.66	7415.35
643.853	7247.42
644.046	7286.33
644.239	7202.36
644.432	7112.25
644.626	7030.34
644.819	7038.53
645.012	7128.64
645.205	7075.39
645.398	7112.25
645.591	7046.72
645.784	6903.36
645.977	6831.68
646.17	7020.1
646.363	6854.21
646.556	6710.85
646.749	6807.11
646.942	6850.11
647.135	6579.78
647.328	6577.73
647.521	6684.23
647.714	6475.34
647.907	6446.66
648.099	6575.69
648.292	6587.97
648.485	6401.61
648.678	6362.7
648.871	6405.7
649.064	6344.27
649.256	6303.31
649.449	6346.31
649.642	6227.53
649.835	6067.79
650.027	6164.04
650.22	6035.02
650.413	6188.62
650.605	6035.02
650.798	5908.05
650.991	6028.88
651.183	6104.65
651.376	5957.2
651.568	6080.08
651.761	5860.95
651.954	5873.23
652.146	5838.42
652.339	5875.28
652.531	5795.41
652.724	5668.44
652.916	5686.87
653.109	5686.87
653.301	5727.83
653.494	5656.15
653.686	5658.2
653.879	5596.76
654.071	5486.17
654.263	5449.3
654.456	5592.66
654.648	5572.18
654.84	5285.47
655.033	5461.59
655.225	5512.79
655.417	5326.43
655.61	5480.02
655.802	5316.19
655.994	5183.07
656.186	5129.82
656.379	5129.82
656.571	5334.62
656.763	5123.68
656.955	5164.64
657.148	5070.43
657.34	5080.67
657.532	5086.81
657.724	4998.75
657.916	5125.72
658.108	4994.65
658.3	4855.39
658.492	4884.06
658.684	4875.87
658.876	4900.45
659.068	4755.04
659.26	4902.5
659.452	4691.56
659.644	4714.08
659.836	4722.27
660.028	4769.38
660.22	4589.16
660.412	4601.44
660.604	4521.57
660.796	4626.02
660.988	4591.2
661.18	4611.68
661.372	4511.33
661.563	4636.26
661.755	4433.51
661.947	4507.24
662.139	4398.7
662.331	4419.18
662.522	4425.32
662.714	4435.56
662.906	4292.2
663.097	4363.88
663.289	4458.09
663.481	4275.82
663.673	4294.25
663.864	4294.25
664.056	3950.19
664.247	4220.52
664.439	4284.01
664.631	4288.11
664.822	4189.8
665.014	4134.51
665.205	3935.85
665.397	4048.49
665.588	3950.19
665.78	3970.67
665.971	3978.86
666.163	4081.26
666.354	3898.99
666.546	3982.96
666.737	3845.74
666.929	3743.35
667.12	3962.48
667.311	3935.85
667.503	3761.78
667.694	3847.79
667.885	3778.16
668.077	3663.47
668.268	3737.2
668.459	3913.33
668.651	3630.71
668.842	3769.97
669.033	3690.1
669.224	3679.86
669.416	3743.35
669.607	3624.56
669.798	3679.86
669.989	3645.04
670.18	3540.6
670.371	3583.6
670.563	3681.91
670.754	3495.54
670.945	3624.56
671.136	3491.45
671.327	3556.98
671.518	3573.36
671.709	3679.86
671.9	3442.29
672.091	3489.4
672.282	3430.01
672.473	3507.83
672.664	3339.9
672.855	3374.71
673.046	3513.97
673.237	3485.3
673.428	3313.27
673.619	3454.58
673.809	3397.24
674	3489.4
674.191	3239.55
674.382	3489.4
674.573	3487.35
674.764	3387
674.954	3352.18
675.145	3092.09
675.336	3253.88
675.527	3200.63
675.717	3053.18
675.908	3235.45
676.099	3229.31
676.289	3217.02
676.48	3303.03
676.671	3221.11
676.861	3182.2
677.052	3237.5
677.243	3059.32
677.433	3028.6
677.624	3303.03
677.814	3151.48
678.005	3176.06
678.195	3188.35
678.386	3198.59
678.576	3122.81
678.767	3004.03
678.957	3079.8
679.148	3139.19
679.338	3106.43
679.529	3092.09
679.719	3200.63
679.909	3122.81
680.1	3057.28
680.29	3229.31
680.481	3073.66
680.671	3122.81
680.861	3094.14
681.052	3006.08
681.242	2979.45
681.432	3114.62
681.622	2836.1
681.813	3139.19
682.003	3034.75
682.193	2877.05
682.383	3016.32
682.573	2936.45
682.764	3061.37
682.954	2934.4
683.144	3016.32
683.334	2868.86
683.524	2893.44
683.714	2815.62
683.904	3057.28
684.094	2928.25
684.284	2913.92
684.474	3077.76
684.664	2926.21
684.854	2975.36
685.044	2918.01
685.234	2834.05
685.424	2950.78
685.614	2815.62
685.804	2924.16
685.994	2909.82
686.184	2926.21
686.374	2848.38
686.564	2811.52
686.753	2883.2
686.943	2852.48
687.133	2770.56
687.323	2731.65
687.513	2877.05
687.702	2799.23
687.892	2731.65
688.082	2788.99
688.272	2795.14
688.461	2815.62
688.651	2729.6
688.841	2698.88
689.03	2743.94
689.22	2655.87
689.41	2803.33
689.599	2754.18
689.789	2682.5
689.979	2647.68
690.168	2762.37
690.358	2561.67
690.547	2614.91
690.737	2680.45
690.926	2561.67
691.116	2600.58
691.305	2576
691.495	2623.11
691.684	2571.91
691.874	2537.09
692.063	2442.89
692.252	2533
692.442	2590.34
692.631	2469.51
692.82	2614.91
693.01	2492.04
693.199	2512.52
693.388	2535.04
693.578	2436.74
693.767	2455.17
693.956	2506.37
694.146	2381.45
694.335	2365.06
694.524	2401.93
694.713	2395.78
694.902	2348.68
695.092	2277
695.281	2438.79
695.47	2451.08
695.659	2436.74
695.848	2332.3
696.037	2328.2
696.226	2254.47
696.415	2311.82
696.604	2363.01
696.793	2307.72
696.982	2242.18
697.171	2467.46
697.36	2360.97
697.549	2459.27
697.738	2254.47
697.927	2293.38
698.116	2391.69
698.305	2358.92
698.494	2422.41
698.683	2326.15
698.872	2311.82
699.061	2385.54
699.25	2279.05
699.438	2190.99
699.627	2340.49
699.816	2309.77
700.005	2365.06
700.193	2371.21
700.382	2307.72
700.571	2289.29
700.76	2320.01
700.948	2307.72
701.137	2217.61
701.326	2217.61
701.514	2299.53
701.703	2346.63
701.892	2160.27
702.08	2205.32
702.269	2244.23
702.457	2320.01
702.646	2170.51
702.834	2320.01
703.023	2279.05
703.212	2270.86
703.4	2352.77
703.589	2211.46
703.777	2305.67
703.965	2240.14
704.154	2254.47
704.342	2336.39
704.531	2203.27
704.719	2242.18
704.907	2162.31
705.096	2326.15
705.284	2205.32
705.472	2279.05
705.661	2283.14
705.849	2221.7
706.037	2311.82
706.226	2229.9
706.414	2283.14
706.602	2180.75
706.79	2264.71
706.979	2176.65
707.167	2176.65
707.355	2147.98
707.543	2199.18
707.731	2168.46
707.919	2233.99
708.107	2205.32
708.296	2082.44
708.484	2139.79
708.672	2172.55
708.86	2233.99
709.048	2197.13
709.236	2086.54
709.424	2182.79
709.612	2387.59
709.8	2164.36
709.988	2229.9
710.176	2139.79
710.364	2213.51
710.551	2205.32
710.739	2307.72
710.927	2311.82
711.115	2156.17
711.303	2246.28
711.491	2266.76
711.679	2147.98
711.866	2211.46
712.054	2268.81
712.242	2115.21
712.43	2358.92
712.617	2184.84
712.805	2156.17
712.993	2174.6
713.181	2127.5
713.368	2266.76
713.556	2158.22
713.744	2231.94
713.931	2287.24
714.119	2158.22
714.306	2147.98
714.494	2272.9
714.682	2260.62
714.869	2201.23
715.057	2231.94
715.244	2193.03
715.432	2252.42
715.619	2238.09
715.807	2125.45
715.994	2219.66
716.182	2125.45
716.369	2246.28
716.556	2158.22
716.744	2213.51
716.931	2104.97
717.119	2289.29
717.306	2285.19
717.493	2205.32
717.681	2147.98
717.868	2100.87
718.055	2221.7
718.242	2217.61
718.43	2141.83
718.617	2074.25
718.804	2147.98
718.991	2223.75
719.179	2172.55
719.366	2111.11
719.553	2113.16
719.74	2240.14
719.927	2207.37
720.114	2156.17
720.301	2205.32
720.488	2082.44
720.676	2156.17
720.863	2186.89
721.05	2260.62
721.237	2252.42
721.424	2172.55
721.611	2207.37
721.798	2141.83
721.985	2172.55
722.172	2184.84
722.358	2158.22
722.545	2156.17
722.732	2270.86
722.919	2184.84
723.106	2033.29
723.293	2129.55
723.48	2197.13
723.667	2152.07
723.853	2049.68
724.04	2299.53
724.227	2246.28
724.414	2197.13
724.6	2174.6
724.787	2092.68
724.974	2219.66
725.161	2117.26
725.347	2145.93
725.534	2115.21
725.72	2115.21
725.907	2143.88
726.094	2209.42
726.28	2125.45
726.467	2203.27
726.653	2080.39
726.84	2190.99
727.027	2305.67
727.213	2139.79
727.4	2197.13
727.586	2213.51
727.773	2188.94
727.959	2094.73
728.145	2188.94
728.332	2168.46
728.518	2215.56
728.705	2254.47
728.891	2147.98
729.077	2201.23
729.264	2178.7
729.45	2242.18
729.636	2254.47
729.823	2264.71
730.009	2246.28
730.195	2258.57
730.382	2272.9
730.568	2125.45
730.754	2277
730.94	2094.73
731.126	2047.63
731.313	2219.66
731.499	2168.46
731.685	2129.55
731.871	2240.14
732.057	2215.56
732.243	2209.42
732.429	2209.42
732.615	2197.13
732.801	2131.59
732.987	2100.87
733.173	2033.29
733.359	2088.59
733.545	2233.99
733.731	2166.41
733.917	2096.78
734.103	2238.09
734.289	2158.22
734.475	2166.41
734.661	2221.7
734.847	2084.49
735.033	2117.26
735.219	2102.92
735.404	2123.4
735.59	2156.17
735.776	2152.07
735.962	2127.5
736.148	2098.83
736.333	2307.72
736.519	2033.29
736.705	2066.06
736.89	2113.16
737.076	2158.22
737.262	2111.11
737.447	2150.03
737.633	2012.81
737.819	2201.23
738.004	2025.1
738.19	2053.77
738.375	2117.26
738.561	2123.4
738.747	2129.55
738.932	2082.44
739.118	2041.48
739.303	1992.33
739.489	2045.58
739.674	2100.87
739.859	2143.88
740.045	2109.07
740.23	1916.56
740.416	2078.35
740.601	2084.49
740.786	2090.63
740.972	1867.41
741.157	2021
741.342	2094.73
741.528	1951.37
741.713	1973.9
741.898	1998.48
742.084	2004.62
742.269	2027.15
742.454	2055.82
742.639	2041.48
742.824	1896.08
743.01	1920.65
743.195	1971.85
743.38	1953.42
743.565	1896.08
743.75	1891.98
743.935	1877.65
744.12	1988.24
744.305	1869.45
744.49	1836.69
744.675	1955.47
744.86	1859.21
745.045	1853.07
745.23	1894.03
745.415	1932.94
745.6	1902.22
745.785	1842.83
745.97	1803.92
746.155	1746.58
746.34	1904.27
746.525	1877.65
746.71	1814.16
746.895	1787.54
747.079	1781.39
747.264	1750.67
747.449	1738.38
747.634	1846.93
747.819	1681.04
748.003	1642.13
748.188	1754.77
748.373	1767.06
748.557	1732.24
748.742	1658.51
748.927	1582.74
749.111	1619.6
749.296	1580.69
749.481	1660.56
749.665	1633.94
749.85	1648.27
750.034	1676.95
750.219	1738.38
750.404	1656.47
750.588	1609.36
750.773	1633.94
750.957	1631.89
751.141	1650.32
751.326	1599.12
751.51	1607.31
751.695	1568.4
751.879	1558.16
752.064	1584.79
752.248	1509.01
752.432	1500.82
752.617	1480.34
752.801	1484.44
752.985	1459.86
753.17	1521.3
753.354	1382.04
753.538	1414.81
753.722	1392.28
753.907	1318.55
754.091	1345.17
754.275	1412.76
754.459	1423
754.643	1334.93
754.828	1345.17
755.012	1328.79
755.196	1377.94
755.38	1328.79
755.564	1339.03
755.748	1330.84
755.932	1312.41
756.116	1316.5
756.3	1169.05
756.484	1328.79
756.668	1201.82
756.852	1228.44
757.036	1214.1
757.22	1191.58
757.404	1250.97
757.588	1191.58
757.772	1164.95
757.956	1232.54
758.14	1207.96
758.323	1199.77
758.507	1183.38
758.691	1126.04
758.875	1142.43
759.059	1146.52
759.242	1062.55
759.426	1267.35
759.61	1091.23
759.794	1091.23
759.977	1181.34
760.161	1017.5
760.345	1142.43
760.528	1074.84
760.712	1009.31
760.895	1152.67
761.079	1083.03
761.263	1005.21
761.446	1064.6
761.63	1083.03
761.813	1021.6
761.997	902.81
762.18	1029.79
762.364	988.83
762.547	956.06
762.731	1009.31
762.914	978.59
763.098	970.4
763.281	984.73
763.464	943.77
763.648	1007.26
763.831	966.3
764.015	990.88
764.198	1072.79
764.381	966.3
764.564	943.77
764.748	1083.03
764.931	986.78
765.114	970.4
765.297	913.05
765.481	923.29
765.664	880.29
765.847	896.67
766.03	839.33
766.213	906.91
766.397	921.24
766.58	902.81
766.763	954.01
766.946	870.05
767.129	929.44
767.312	966.3
767.495	853.66
767.678	927.39
767.861	878.24
768.044	923.29
768.227	845.47
768.41	847.52
768.593	779.93
768.776	980.64
768.959	872.09
769.142	816.8
769.324	884.38
769.507	865.95
769.69	839.33
769.873	831.13
770.056	880.29
770.239	878.24
770.421	915.1
770.604	894.62
770.787	845.47
770.97	763.55
771.152	781.98
771.335	749.22
771.518	816.8
771.7	810.65
771.883	771.74
772.066	771.74
772.248	757.41
772.431	724.64
772.613	747.17
772.796	759.46
772.978	722.59
773.161	855.71
773.343	894.62
773.526	738.98
773.708	644.77
773.891	648.86
774.073	642.72
774.256	698.02
774.438	736.93
774.621	751.26
774.803	710.3
774.985	784.03
775.168	755.36
775.35	681.63
775.532	751.26
775.715	665.25
775.897	681.63
776.079	667.3
776.261	691.87
776.444	659.1
776.626	689.82
776.808	673.44
776.99	599.71
777.173	710.3
777.355	640.67
777.537	640.67
777.719	618.15
777.901	575.14
778.083	630.43
778.265	575.14
778.447	632.48
778.629	579.23
778.811	665.25
778.993	599.71
779.175	538.27
779.357	560.8
779.539	568.99
779.721	501.41
779.903	593.57
780.085	501.41
780.267	564.9
780.449	595.62
780.631	571.04
780.812	507.55
780.994	478.88
781.176	566.95
781.358	530.08
781.54	470.69
781.721	575.14
781.903	497.32
782.085	439.97
782.267	417.44
782.448	482.98
782.63	435.88
782.812	470.69
782.993	446.12
783.175	485.03
783.357	491.17
783.538	491.17
783.72	466.6
783.901	444.07
784.083	431.78
784.264	562.85
784.446	419.49
784.627	446.12
784.809	489.12
784.99	403.11
785.172	511.65
785.353	419.49
785.535	429.73
785.716	415.4
785.897	476.84
786.079	333.48
786.26	464.55
786.441	347.81
786.623	413.35
786.804	468.64
786.985	409.25
787.167	413.35
787.348	362.15
787.529	337.57
787.71	419.49
787.891	386.72
788.073	304.81
788.254	263.85
788.435	421.54
788.616	399.01
788.797	345.77
788.978	370.34
789.159	347.81
789.34	306.85
789.522	327.33
789.703	349.86
789.884	315.05
790.065	394.92
790.246	403.11
790.427	265.89
790.607	341.67
790.788	337.57
790.969	259.75
791.15	396.96
791.331	327.33
791.512	288.42
791.693	284.33
791.874	290.47
792.054	386.72
792.235	353.96
792.416	282.28
792.597	247.46
792.778	292.52
792.958	313
793.139	306.85
793.32	298.66
793.5	259.75
793.681	321.19
793.862	288.42
794.042	265.89
794.223	202.41
794.404	263.85
794.584	145.06
794.765	274.09
794.945	356.01
795.126	282.28
795.306	302.76
795.487	282.28
795.667	317.09
795.848	296.61
796.028	224.94
796.209	267.94
796.389	231.08
796.57	247.46
796.75	272.04
796.93	241.32
797.111	288.42
797.291	214.7
797.471	173.74
797.652	257.7
797.832	257.7
798.012	241.32
798.192	239.27
798.373	202.41
798.553	276.13
798.733	282.28
798.913	229.03
799.093	241.32
799.274	181.93
799.454	239.27
799.634	241.32
799.814	259.75
799.994	210.6
800.174	226.98
800.354	159.4
800.534	167.59
800.714	210.6
800.894	220.84
801.074	157.35
801.254	249.51
801.434	290.47
801.614	224.94
801.794	140.97
801.974	652.96
802.154	173.74
802.334	194.22
802.514	196.26
802.693	214.7
802.873	198.31
803.053	267.94
803.233	239.27
803.413	194.22
803.592	202.41
803.772	198.31
803.952	296.61
804.131	157.35
804.311	181.93
804.491	226.98
804.67	151.21
804.85	143.02
805.03	300.71
805.209	194.22
805.389	218.79
805.568	140.97
805.748	194.22
805.928	163.5
806.107	167.59
806.287	222.89
806.466	124.58
806.646	208.55
806.825	161.45
807.004	171.69
807.184	183.98
807.363	188.07
807.543	181.93
807.722	157.35
807.901	224.94
808.081	216.74
808.26	157.35
808.439	143.02
808.619	134.82
808.798	233.13
808.977	145.06
809.156	269.99
809.336	204.46
809.515	194.22
809.694	249.51
809.873	140.97
810.052	202.41
810.231	190.12
810.411	122.54
810.59	134.82
810.769	79.53
810.948	161.45
811.127	175.78
811.306	112.3
811.485	102.06
811.664	181.93
811.843	124.58
812.022	210.6
812.201	116.39
812.38	216.74
812.559	112.3
812.737	126.63
812.916	63.15
813.095	87.72
813.274	143.02
813.453	85.67
813.632	118.44
813.811	183.98
813.989	149.16
814.168	89.77
814.347	69.29
814.526	177.83
814.704	124.58
814.883	65.19
815.062	89.77
815.24	145.06
815.419	108.2
815.598	157.35
815.776	75.43
815.955	116.39
816.133	28.33
816.312	140.97
816.49	79.53
816.669	118.44
816.847	151.21
817.026	153.26
817.204	100.01
817.383	95.91
817.561	100.01
817.74	200.36
817.918	110.25
818.097	116.39
818.275	65.19
818.453	147.11
818.632	159.4
818.81	110.25
818.988	77.48
819.167	36.52
819.345	102.06
819.523	9.9
819.701	63.15
819.879	186.02
820.058	110.25
820.236	75.43
820.414	145.06
820.592	85.67
820.77	132.78
820.948	38.57
821.127	169.64
821.305	147.11
821.483	32.43
821.661	69.29
821.839	108.2
822.017	28.33
822.195	57
822.373	186.02
822.551	75.43
822.729	106.15
822.907	132.78
823.085	143.02
823.262	44.71
823.44	118.44
823.618	79.53
823.796	69.29
823.974	42.67
824.152	124.58
824.329	48.81
824.507	112.3
824.685	87.72
824.863	61.1
825.04	100.01
825.218	181.93
825.396	71.34
825.574	79.53
825.751	83.63
825.929	222.89
826.107	46.76
826.284	91.82
826.462	59.05
826.639	36.52
826.817	61.1
826.994	36.52
827.172	20.14
827.349	95.91
827.527	132.78
827.704	149.16
827.882	91.82
828.059	116.39
828.237	83.63
828.414	50.86
828.591	75.43
828.769	83.63
828.946	20.14
829.124	132.78
829.301	20.14
829.478	61.1
829.655	71.34
829.833	42.67
830.01	143.02
830.187	136.87
830.364	93.87
830.542	85.67
830.719	120.49
830.896	50.86
831.073	71.34
831.25	143.02
831.427	50.86
831.604	-18.77
831.782	1.71
831.959	50.86
832.136	77.48
832.313	73.39
832.49	63.15
832.667	110.25
832.844	26.28
833.021	20.14
833.198	11.95
833.374	36.52
833.551	61.1
833.728	24.23
833.905	22.19
834.082	9.9
834.259	102.06
834.436	63.15
834.612	-4.44
834.789	140.97
834.966	50.86
835.143	28.33
835.319	26.28
835.496	95.91
835.673	11.95
835.85	75.43
836.026	44.71
836.203	67.24
836.38	13.99
836.556	28.33
836.733	100.01
836.909	91.82
837.086	22.19
837.262	50.86
837.439	73.39
837.616	89.77
837.792	54.95
837.968	91.82
838.145	-29.01
838.321	9.9
838.498	100.01
838.674	28.33
838.851	69.29
839.027	71.34
839.203	71.34
839.38	3.75
839.556	34.47
839.732	85.67
839.909	16.04
840.085	30.38
840.261	-26.96
840.437	44.71
840.614	50.86
840.79	102.06
840.966	13.99
841.142	26.28
841.318	83.63
841.494	50.86
841.671	65.19
841.847	97.96
842.023	65.19
842.199	3.75
842.375	5.8
842.551	44.71
842.727	59.05
842.903	22.19
843.079	9.9
843.255	-4.44
843.431	50.86
843.607	36.52
843.783	-12.63
843.959	54.95
844.134	22.19
844.31	-18.77
844.486	63.15
844.662	34.47
844.838	61.1
845.013	69.29
845.189	65.19
845.365	42.67
845.541	-16.73
845.716	34.47
845.892	42.67
846.068	34.47
846.244	11.95
846.419	24.23
846.595	38.57
846.77	46.76
846.946	-16.73
847.122	-6.49
847.297	-14.68
847.473	-18.77
847.648	1.71
847.824	-47.44
847.999	-84.31
848.175	7.85
848.35	38.57
848.526	18.09
848.701	30.38
848.876	9.9
849.052	-39.25
849.227	9.9
849.403	-14.68
849.578	1.71
849.753	-10.58
849.929	11.95
850.104	-96.6
850.279	69.29
850.454	104.11
850.63	108.2
850.805	20.14
850.98	81.58
851.155	5.8
851.33	-12.63
851.505	-59.73
851.681	83.63
851.856	73.39
852.031	59.05
852.206	34.47
852.381	59.05
852.556	13.99
852.731	42.67
852.906	1.71
853.081	18.09
853.256	54.95
853.431	52.91
853.606	20.14
853.781	50.86
853.956	-59.73
854.131	1.71
854.305	-6.49
854.48	-55.64
854.655	118.44
854.83	11.95
855.005	-2.39
855.18	50.86
855.354	22.19
855.529	26.28
855.704	-0.34
855.879	50.86
856.053	67.24
856.228	22.19
856.403	-14.68
856.577	91.82
856.752	-26.96
856.926	-22.87
857.101	34.47
857.276	-24.92
857.45	-29.01
857.625	30.38
857.799	-53.59
857.974	-4.44
858.148	-22.87
858.323	-14.68
858.497	-14.68
858.672	85.67
858.846	-49.49
859.02	116.39
859.195	26.28
859.369	26.28
859.543	34.47
859.718	42.67
859.892	-18.77
860.066	59.05
860.241	-4.44
860.415	-22.87
860.589	-39.25
860.763	-53.59
860.938	-4.44
861.112	-45.4
861.286	-37.2
861.46	-59.73
861.634	1.71
861.808	-31.06
861.982	-4.44
862.157	22.19
862.331	-14.68
862.505	-14.68
862.679	13.99
862.853	-10.58
863.027	-12.63
863.201	75.43
863.375	-16.73
863.549	9.9
863.722	-39.25
863.896	65.19
864.07	-31.06
864.244	67.24
864.418	75.43
864.592	-45.4
864.766	20.14
864.939	42.67
865.113	-39.25
865.287	3.75
865.461	-12.63
865.634	75.43
865.808	3.75
865.982	59.05
866.156	-26.96
866.329	28.33
866.503	-88.4
866.676	108.2
866.85	20.14
867.024	-43.35
867.197	-22.87
867.371	44.71
867.544	30.38
867.718	-22.87
867.891	16.04
868.065	3.75
868.238	-51.54
868.412	34.47
868.585	52.91
868.759	3.75
868.932	-43.35
869.105	18.09
869.279	13.99
869.452	-37.2
869.625	11.95
869.799	67.24
869.972	-20.82
870.145	-4.44
870.319	36.52
870.492	-16.73
870.665	11.95
870.838	-6.49
871.011	-55.64
871.185	1.71
871.358	-0.34
871.531	-14.68
871.704	9.9
871.877	42.67
872.05	-39.25
872.223	22.19
872.396	30.38
872.569	40.62
872.742	-31.06
872.915	5.8
873.088	-94.55
873.261	-31.06
873.434	46.76
873.607	-51.54
873.78	26.28
873.953	18.09
874.126	-61.78
874.299	42.67
874.471	-61.78
874.644	18.09
874.817	-51.54
874.99	57
875.163	-26.96
875.335	-22.87
875.508	-18.77
875.681	42.67
875.853	-20.82
876.026	-35.16
876.199	5.8
876.371	-8.53
876.544	-10.58
876.717	-8.53
876.889	-2.39
877.062	-14.68
877.234	-41.3
877.407	54.95
877.579	-22.87
877.752	5.8
877.924	34.47
878.097	-37.2
878.269	3.75
878.442	30.38
878.614	18.09
878.786	-2.39
878.959	-18.77
879.131	-39.25
879.303	-51.54
879.476	26.28
879.648	52.91
879.82	9.9
879.993	11.95
880.165	-39.25
880.337	-100.69
880.509	24.23
880.681	-47.44
880.854	-59.73
881.026	-31.06
881.198	83.63
881.37	34.47
881.542	59.05
881.714	-53.59
881.886	-39.25
882.058	42.67
882.23	34.47
882.402	16.04
882.574	-47.44
882.746	18.09
882.918	-67.92
883.09	16.04
883.262	52.91
883.434	-39.25
883.606	-88.4
883.778	-45.4
883.95	16.04
884.122	-39.25
884.293	-22.87
884.465	1.71
884.637	20.14
884.809	-2.39
884.98	-2.39
885.152	-29.01
885.324	42.67
885.496	-29.01
885.667	52.91
885.839	-4.44
886.011	-22.87
886.182	-6.49
886.354	-14.68
886.525	-18.77
886.697	-43.35
886.869	-18.77
887.04	-20.82
887.212	-14.68
887.383	-14.68
887.555	1.71
887.726	22.19
887.897	-47.44
888.069	-14.68
888.24	40.62
888.412	16.04
888.583	-29.01
888.754	-31.06
888.926	-22.87
889.097	-94.55
889.268	-14.68
889.44	-6.49
889.611	-51.54
889.782	26.28
889.953	-94.55
890.125	-14.68
890.296	-31.06
890.467	5.8
890.638	50.86
890.809	44.71
890.98	-72.02
891.151	-45.4
891.323	28.33
891.494	-39.25
891.665	-6.49
891.836	-61.78
892.007	-12.63
892.178	20.14
892.349	1.71
892.52	-18.77
892.691	-67.92
892.862	-6.49
893.032	-92.5
893.203	-61.78
893.374	26.28
893.545	-72.02
893.716	-8.53
893.887	9.9
894.057	-12.63
894.228	-20.82
894.399	-102.74
894.57	28.33
894.74	-14.68
894.911	28.33
895.082	38.57
895.253	-8.53
895.423	11.95
895.594	-10.58
895.764	-6.49
895.935	-20.82
896.106	-4.44
896.276	61.1
896.447	34.47
896.617	9.9
896.788	38.57
896.958	3.75
897.129	5.8
897.299	-94.55
897.47	40.62
897.64	36.52
897.81	-4.44
897.981	22.19
898.151	-12.63
898.322	59.05
898.492	-39.25
898.662	-51.54
898.832	-55.64
899.003	28.33
899.173	44.71
899.343	-61.78
899.513	-12.63
