Data from USB4F104151__105__14-43-43-932.txt Node

Date: Thu Mar 13 14:43:43 EDT 2025
User: louis
Spectrometer: USB4F10415
Trigger mode: 4
Integration Time (sec): 2.000000E-2
Scans to average: 1
Electric dark correction enabled: true
Nonlinearity correction enabled: false
Boxcar width: 0
XAxis mode: Wavelengths
Number of Pixels in Spectrum: 3648
>>>>>Begin Spectral Data<<<<<
178.204	-148.99
178.424	-148.99
178.644	-148.99
178.864	-91.65
179.084	-83.45
179.304	-75.26
179.524	39.42
179.744	-38.4
179.964	27.14
180.184	-1.54
180.404	-34.3
180.624	6.66
180.844	37.38
181.064	-38.4
181.283	-30.21
181.503	27.14
181.723	80.38
181.943	-5.63
182.163	-1.54
182.383	27.14
182.602	-24.06
182.822	80.38
183.042	47.62
183.262	100.86
183.482	55.81
183.701	27.14
183.921	23.04
184.141	-17.92
184.361	43.52
184.58	-7.68
184.8	66.05
185.02	53.76
185.239	72.19
185.459	47.62
185.679	98.81
185.898	-5.63
186.118	74.24
186.338	-62.98
186.557	51.71
186.777	49.66
186.997	-13.82
187.216	6.66
187.436	74.24
187.655	16.9
187.875	66.05
188.095	-19.97
188.314	2.56
188.534	88.57
188.753	115.2
188.973	66.05
189.192	49.66
189.412	104.96
189.631	29.18
189.851	45.57
190.07	80.38
190.29	31.23
190.509	-34.3
190.729	-9.73
190.948	74.24
191.168	137.73
191.387	61.95
191.607	41.47
191.826	84.48
192.045	31.23
192.265	-17.92
192.484	-26.11
192.704	53.76
192.923	-19.97
193.142	162.3
193.362	27.14
193.581	25.09
193.8	-9.73
194.02	33.28
194.239	35.33
194.458	84.48
194.678	14.85
194.897	74.24
195.116	51.71
195.335	64
195.555	8.7
195.774	-9.73
195.993	18.94
196.212	39.42
196.432	-28.16
196.651	43.52
196.87	-1.54
197.089	111.1
197.308	-30.21
197.528	78.33
197.747	23.04
197.966	47.62
198.185	80.38
198.404	98.81
198.623	43.52
198.842	49.66
199.062	39.42
199.281	47.62
199.5	96.77
199.719	-15.87
199.938	39.42
200.157	49.66
200.376	57.86
200.595	-1.54
200.814	68.09
201.033	23.04
201.252	18.94
201.471	92.67
201.69	104.96
201.909	90.62
202.128	27.14
202.347	39.42
202.566	55.81
202.785	51.71
203.004	14.85
203.223	129.53
203.442	31.23
203.661	88.57
203.879	25.09
204.098	121.34
204.317	27.14
204.536	31.23
204.755	90.62
204.974	47.62
205.193	137.73
205.411	156.16
205.63	23.04
205.849	57.86
206.068	33.28
206.287	96.77
206.505	47.62
206.724	59.9
206.943	-26.11
207.162	104.96
207.381	-24.06
207.599	6.66
207.818	18.94
208.037	29.18
208.255	-3.58
208.474	68.09
208.693	80.38
208.911	31.23
209.13	23.04
209.349	82.43
209.567	92.67
209.786	61.95
210.005	25.09
210.223	25.09
210.442	43.52
210.661	96.77
210.879	-17.92
211.098	39.42
211.316	64
211.535	74.24
211.753	37.38
211.972	-7.68
212.191	31.23
212.409	88.57
212.628	64
212.846	27.14
213.065	51.71
213.283	180.73
213.502	27.14
213.72	37.38
213.938	23.04
214.157	57.86
214.375	92.67
214.594	47.62
214.812	27.14
215.031	39.42
215.249	14.85
215.467	14.85
215.686	53.76
215.904	139.77
216.122	119.29
216.341	29.18
216.559	147.97
216.778	113.15
216.996	100.86
217.214	51.71
217.432	-38.4
217.651	27.14
217.869	74.24
218.087	6.66
218.306	2.56
218.524	-22.02
218.742	74.24
218.96	0.51
219.179	35.33
219.397	-30.21
219.615	43.52
219.833	-46.59
220.051	27.14
220.27	121.34
220.488	121.34
220.706	-44.54
220.924	84.48
221.142	51.71
221.36	57.86
221.578	16.9
221.796	14.85
222.015	84.48
222.233	41.47
222.451	43.52
222.669	64
222.887	64
223.105	41.47
223.323	0.51
223.541	25.09
223.759	18.94
223.977	-5.63
224.195	47.62
224.413	14.85
224.631	14.85
224.849	2.56
225.067	186.88
225.285	59.9
225.503	72.19
225.721	-62.98
225.939	51.71
226.157	4.61
226.375	123.39
226.592	10.75
226.81	117.25
227.028	94.72
227.246	14.85
227.464	61.95
227.682	23.04
227.9	16.9
228.117	33.28
228.335	96.77
228.553	35.33
228.771	39.42
228.989	66.05
229.206	55.81
229.424	41.47
229.642	31.23
229.86	-34.3
230.077	20.99
230.295	16.9
230.513	74.24
230.731	35.33
230.948	78.33
231.166	104.96
231.384	35.33
231.601	6.66
231.819	104.96
232.037	66.05
232.254	51.71
232.472	47.62
232.689	-24.06
232.907	66.05
233.125	2.56
233.342	-1.54
233.56	6.66
233.777	23.04
233.995	53.76
234.213	39.42
234.43	61.95
234.648	49.66
234.865	-5.63
235.083	55.81
235.3	82.43
235.518	76.29
235.735	104.96
235.953	125.44
236.17	31.23
236.388	102.91
236.605	57.86
236.822	43.52
237.04	55.81
237.257	92.67
237.475	6.66
237.692	154.11
237.909	-9.73
238.127	49.66
238.344	31.23
238.562	80.38
238.779	6.66
238.996	-34.3
239.214	-3.58
239.431	59.9
239.648	14.85
239.865	-7.68
240.083	33.28
240.3	55.81
240.517	76.29
240.735	14.85
240.952	29.18
241.169	88.57
241.386	4.61
241.603	47.62
241.821	23.04
242.038	0.51
242.255	16.9
242.472	80.38
242.689	39.42
242.907	43.52
243.124	49.66
243.341	76.29
243.558	2.56
243.775	-26.11
243.992	-13.82
244.209	57.86
244.426	88.57
244.643	76.29
244.86	64
245.078	-13.82
245.295	98.81
245.512	94.72
245.729	74.24
245.946	74.24
246.163	53.76
246.38	-11.78
246.597	8.7
246.814	96.77
247.031	47.62
247.248	-5.63
247.464	6.66
247.681	111.1
247.898	39.42
248.115	-24.06
248.332	47.62
248.549	104.96
248.766	35.33
248.983	107.01
249.2	59.9
249.417	6.66
249.633	18.94
249.85	72.19
250.067	-48.64
250.284	39.42
250.501	-1.54
250.717	74.24
250.934	12.8
251.151	33.28
251.368	55.81
251.585	57.86
251.801	-17.92
252.018	76.29
252.235	145.92
252.451	0.51
252.668	68.09
252.885	39.42
253.102	117.25
253.318	39.42
253.535	18.94
253.752	-13.82
253.968	115.2
254.185	109.05
254.401	0.51
254.618	23.04
254.835	57.86
255.051	150.01
255.268	-1.54
255.484	129.53
255.701	14.85
255.917	64
256.134	-32.26
256.351	-34.3
256.567	-32.26
256.784	143.87
257	0.51
257.217	88.57
257.433	80.38
257.65	66.05
257.866	72.19
258.082	47.62
258.299	131.58
258.515	113.15
258.732	27.14
258.948	72.19
259.165	6.66
259.381	47.62
259.597	57.86
259.814	64
260.03	72.19
260.246	-50.69
260.463	4.61
260.679	86.53
260.895	25.09
261.112	55.81
261.328	31.23
261.544	35.33
261.761	82.43
261.977	107.01
262.193	16.9
262.409	6.66
262.626	-1.54
262.842	80.38
263.058	0.51
263.274	141.82
263.49	2.56
263.707	16.9
263.923	98.81
264.139	23.04
264.355	23.04
264.571	88.57
264.787	43.52
265.004	84.48
265.22	10.75
265.436	47.62
265.652	25.09
265.868	16.9
266.084	-26.11
266.3	39.42
266.516	39.42
266.732	49.66
266.948	12.8
267.164	14.85
267.38	51.71
267.596	49.66
267.812	10.75
268.028	14.85
268.244	96.77
268.46	88.57
268.676	68.09
268.892	66.05
269.108	131.58
269.324	0.51
269.54	-13.82
269.756	94.72
269.972	39.42
270.188	2.56
270.403	8.7
270.619	-17.92
270.835	20.99
271.051	-1.54
271.267	16.9
271.483	-13.82
271.698	6.66
271.914	10.75
272.13	14.85
272.346	23.04
272.562	68.09
272.777	49.66
272.993	-40.45
273.209	35.33
273.425	96.77
273.64	-22.02
273.856	53.76
274.072	14.85
274.287	25.09
274.503	59.9
274.719	57.86
274.934	8.7
275.15	39.42
275.366	74.24
275.581	-24.06
275.797	14.85
276.012	129.53
276.228	107.01
276.444	55.81
276.659	115.2
276.875	61.95
277.09	80.38
277.306	88.57
277.521	31.23
277.737	-17.92
277.952	66.05
278.168	27.14
278.383	51.71
278.599	55.81
278.814	33.28
279.03	-13.82
279.245	74.24
279.461	16.9
279.676	-89.6
279.892	-9.73
280.107	31.23
280.322	-15.87
280.538	88.57
280.753	-42.5
280.969	41.47
281.184	82.43
281.399	72.19
281.615	-7.68
281.83	76.29
282.045	35.33
282.26	-5.63
282.476	74.24
282.691	84.48
282.906	84.48
283.122	55.81
283.337	78.33
283.552	57.86
283.767	51.71
283.983	162.3
284.198	-40.45
284.413	27.14
284.628	23.04
284.843	92.67
285.058	107.01
285.274	47.62
285.489	25.09
285.704	53.76
285.919	2.56
286.134	43.52
286.349	-67.07
286.564	39.42
286.779	29.18
286.995	-3.58
287.21	-42.5
287.425	55.81
287.64	-17.92
287.855	29.18
288.07	-1.54
288.285	31.23
288.5	8.7
288.715	39.42
288.93	53.76
289.145	8.7
289.36	139.77
289.575	47.62
289.79	55.81
290.004	8.7
290.219	72.19
290.434	55.81
290.649	10.75
290.864	41.47
291.079	33.28
291.294	102.91
291.509	-22.02
291.724	68.09
291.938	23.04
292.153	49.66
292.368	129.53
292.583	-13.82
292.798	84.48
293.012	55.81
293.227	20.99
293.442	43.52
293.657	80.38
293.871	-1.54
294.086	47.62
294.301	84.48
294.516	37.38
294.73	88.57
294.945	31.23
295.16	33.28
295.374	31.23
295.589	72.19
295.804	-26.11
296.018	39.42
296.233	107.01
296.447	88.57
296.662	-26.11
296.877	141.82
297.091	47.62
297.306	84.48
297.52	41.47
297.735	14.85
297.949	35.33
298.164	59.9
298.378	16.9
298.593	-26.11
298.807	45.57
299.022	61.95
299.236	33.28
299.451	102.91
299.665	25.09
299.88	68.09
300.094	29.18
300.309	37.38
300.523	35.33
300.737	74.24
300.952	47.62
301.166	23.04
301.381	59.9
301.595	35.33
301.809	96.77
302.024	66.05
302.238	43.52
302.452	10.75
302.667	88.57
302.881	100.86
303.095	74.24
303.309	64
303.524	76.29
303.738	39.42
303.952	88.57
304.166	31.23
304.381	57.86
304.595	47.62
304.809	68.09
305.023	88.57
305.237	-32.26
305.452	43.52
305.666	127.49
305.88	55.81
306.094	47.62
306.308	68.09
306.522	98.81
306.736	27.14
306.95	76.29
307.164	14.85
307.379	-58.88
307.593	74.24
307.807	25.09
308.021	57.86
308.235	23.04
308.449	35.33
308.663	74.24
308.877	59.9
309.091	-54.78
309.305	104.96
309.519	-26.11
309.733	66.05
309.947	84.48
310.161	96.77
310.374	92.67
310.588	82.43
310.802	61.95
311.016	76.29
311.23	55.81
311.444	0.51
311.658	31.23
311.872	41.47
312.085	57.86
312.299	47.62
312.513	39.42
312.727	47.62
312.941	31.23
313.154	10.75
313.368	90.62
313.582	104.96
313.796	18.94
314.009	39.42
314.223	68.09
314.437	59.9
314.651	92.67
314.864	76.29
315.078	2.56
315.292	64
315.505	64
315.719	39.42
315.933	72.19
316.146	72.19
316.36	-58.88
316.573	27.14
316.787	39.42
317.001	45.57
317.214	41.47
317.428	80.38
317.641	35.33
317.855	-38.4
318.068	61.95
318.282	59.9
318.495	70.14
318.709	47.62
318.922	10.75
319.136	31.23
319.349	39.42
319.563	41.47
319.776	57.86
319.99	-1.54
320.203	43.52
320.417	76.29
320.63	98.81
320.843	18.94
321.057	57.86
321.27	33.28
321.483	64
321.697	129.53
321.91	18.94
322.124	49.66
322.337	47.62
322.55	18.94
322.763	43.52
322.977	12.8
323.19	61.95
323.403	39.42
323.617	10.75
323.83	43.52
324.043	18.94
324.256	78.33
324.469	-19.97
324.683	39.42
324.896	92.67
325.109	14.85
325.322	61.95
325.535	76.29
325.748	72.19
325.962	49.66
326.175	39.42
326.388	47.62
326.601	47.62
326.814	31.23
327.027	113.15
327.24	139.77
327.453	-17.92
327.666	76.29
327.879	59.9
328.092	90.62
328.305	2.56
328.518	-56.83
328.731	104.96
328.944	0.51
329.157	35.33
329.37	61.95
329.583	74.24
329.796	6.66
330.009	33.28
330.222	82.43
330.435	35.33
330.648	-24.06
330.861	-50.69
331.073	2.56
331.286	82.43
331.499	33.28
331.712	-36.35
331.925	80.38
332.138	-50.69
332.35	6.66
332.563	18.94
332.776	139.77
332.989	14.85
333.202	31.23
333.414	6.66
333.627	68.09
333.84	-3.58
334.053	39.42
334.265	64
334.478	70.14
334.691	55.81
334.903	102.91
335.116	107.01
335.329	39.42
335.541	96.77
335.754	145.92
335.966	-24.06
336.179	39.42
336.392	-5.63
336.604	25.09
336.817	10.75
337.029	14.85
337.242	8.7
337.454	92.67
337.667	-22.02
337.88	-1.54
338.092	47.62
338.305	86.53
338.517	23.04
338.729	80.38
338.942	64
339.154	64
339.367	31.23
339.579	31.23
339.792	55.81
340.004	-3.58
340.217	84.48
340.429	104.96
340.641	-15.87
340.854	-42.5
341.066	70.14
341.278	107.01
341.491	137.73
341.703	55.81
341.915	43.52
342.128	41.47
342.34	64
342.552	45.57
342.764	41.47
342.977	82.43
343.189	88.57
343.401	80.38
343.613	23.04
343.826	20.99
344.038	-15.87
344.25	39.42
344.462	94.72
344.674	41.47
344.886	72.19
345.099	80.38
345.311	64
345.523	76.29
345.735	-34.3
345.947	64
346.159	45.57
346.371	25.09
346.583	45.57
346.795	66.05
347.007	51.71
347.219	74.24
347.431	100.86
347.643	92.67
347.855	10.75
348.067	88.57
348.279	-7.68
348.491	-1.54
348.703	76.29
348.915	57.86
349.127	0.51
349.339	88.57
349.551	96.77
349.763	33.28
349.975	12.8
350.187	90.62
350.399	125.44
350.61	141.82
350.822	-50.69
351.034	49.66
351.246	29.18
351.458	39.42
351.669	31.23
351.881	145.92
352.093	104.96
352.305	2.56
352.517	31.23
352.728	68.09
352.94	16.9
353.152	-1.54
353.363	-7.68
353.575	31.23
353.787	68.09
353.999	57.86
354.21	43.52
354.422	47.62
354.633	10.75
354.845	55.81
355.057	74.24
355.268	156.16
355.48	90.62
355.692	80.38
355.903	41.47
356.115	94.72
356.326	18.94
356.538	125.44
356.749	49.66
356.961	129.53
357.172	55.81
357.384	88.57
357.595	131.58
357.807	0.51
358.018	43.52
358.23	-54.78
358.441	88.57
358.653	57.86
358.864	72.19
359.075	47.62
359.287	47.62
359.498	49.66
359.709	66.05
359.921	76.29
360.132	98.81
360.344	64
360.555	10.75
360.766	96.77
360.977	14.85
361.189	74.24
361.4	68.09
361.611	68.09
361.823	55.81
362.034	39.42
362.245	35.33
362.456	53.76
362.667	-5.63
362.879	14.85
363.09	51.71
363.301	8.7
363.512	-22.02
363.723	8.7
363.935	49.66
364.146	59.9
364.357	47.62
364.568	27.14
364.779	-17.92
364.99	74.24
365.201	31.23
365.412	84.48
365.623	-9.73
365.834	68.09
366.045	64
366.256	59.9
366.467	100.86
366.678	0.51
366.889	94.72
367.1	55.81
367.311	98.81
367.522	-1.54
367.733	66.05
367.944	59.9
368.155	-26.11
368.366	-15.87
368.577	45.57
368.788	74.24
368.999	66.05
369.209	129.53
369.42	104.96
369.631	86.53
369.842	-26.11
370.053	59.9
370.264	96.77
370.474	23.04
370.685	57.86
370.896	31.23
371.107	80.38
371.317	113.15
371.528	6.66
371.739	98.81
371.95	25.09
372.16	82.43
372.371	-1.54
372.582	57.86
372.792	41.47
373.003	74.24
373.214	49.66
373.424	41.47
373.635	6.66
373.846	162.3
374.056	0.51
374.267	104.96
374.477	-13.82
374.688	74.24
374.898	107.01
375.109	16.9
375.319	29.18
375.53	41.47
375.74	61.95
375.951	74.24
376.161	80.38
376.372	14.85
376.582	10.75
376.793	96.77
377.003	39.42
377.214	10.75
377.424	23.04
377.635	18.94
377.845	94.72
378.055	86.53
378.266	35.33
378.476	64
378.686	90.62
378.897	76.29
379.107	43.52
379.317	29.18
379.528	31.23
379.738	145.92
379.948	43.52
380.158	31.23
380.369	47.62
380.579	68.09
380.789	23.04
380.999	14.85
381.21	57.86
381.42	154.11
381.63	92.67
381.84	72.19
382.05	84.48
382.261	55.81
382.471	43.52
382.681	96.77
382.891	90.62
383.101	37.38
383.311	119.29
383.521	164.35
383.731	68.09
383.941	74.24
384.151	80.38
384.361	29.18
384.571	41.47
384.781	145.92
384.991	119.29
385.201	80.38
385.411	8.7
385.621	92.67
385.831	33.28
386.041	70.14
386.251	37.38
386.461	121.34
386.671	0.51
386.881	96.77
387.091	6.66
387.301	33.28
387.511	-28.16
387.72	88.57
387.93	72.19
388.14	-54.78
388.35	107.01
388.56	96.77
388.769	45.57
388.979	88.57
389.189	-19.97
389.399	121.34
389.609	61.95
389.818	39.42
390.028	35.33
390.238	133.63
390.447	80.38
390.657	33.28
390.867	23.04
391.076	80.38
391.286	121.34
391.496	113.15
391.705	29.18
391.915	64
392.125	47.62
392.334	39.42
392.544	121.34
392.753	53.76
392.963	43.52
393.172	88.57
393.382	90.62
393.591	49.66
393.801	43.52
394.01	133.63
394.22	143.87
394.429	80.38
394.639	47.62
394.848	133.63
395.058	47.62
395.267	59.9
395.477	39.42
395.686	94.72
395.895	76.29
396.105	98.81
396.314	59.9
396.524	72.19
396.733	86.53
396.942	133.63
397.152	115.2
397.361	88.57
397.57	31.23
397.78	125.44
397.989	39.42
398.198	115.2
398.407	18.94
398.617	98.81
398.826	57.86
399.035	147.97
399.244	115.2
399.453	107.01
399.663	129.53
399.872	80.38
400.081	55.81
400.29	121.34
400.499	18.94
400.708	123.39
400.917	115.2
401.127	80.38
401.336	47.62
401.545	190.97
401.754	100.86
401.963	158.21
402.172	88.57
402.381	27.14
402.59	61.95
402.799	172.54
403.008	109.05
403.217	107.01
403.426	125.44
403.635	64
403.844	137.73
404.053	98.81
404.262	76.29
404.471	133.63
404.68	121.34
404.888	45.57
405.097	113.15
405.306	115.2
405.515	129.53
405.724	137.73
405.933	113.15
406.142	186.88
406.35	174.59
406.559	188.93
406.768	186.88
406.977	131.58
407.185	139.77
407.394	158.21
407.603	158.21
407.812	188.93
408.02	178.69
408.229	262.65
408.438	227.84
408.646	64
408.855	201.21
409.064	252.41
409.272	246.27
409.481	236.03
409.69	217.6
409.898	123.39
410.107	254.46
410.315	283.13
410.524	213.5
410.733	293.37
410.941	283.13
411.15	313.85
411.358	256.51
411.567	276.99
411.775	303.61
411.984	274.94
412.192	342.52
412.401	262.65
412.609	440.83
412.818	358.91
413.026	352.76
413.234	344.57
413.443	385.53
413.651	440.83
413.86	367.1
414.068	422.39
414.276	438.78
414.485	457.21
414.693	588.28
414.901	584.18
415.11	539.13
415.318	473.59
415.526	518.65
415.734	596.47
415.943	500.22
416.151	563.7
416.359	694.77
416.567	584.18
416.776	666.1
416.984	731.64
417.192	709.11
417.4	788.98
417.608	723.44
417.817	815.6
418.025	805.36
418.233	899.57
418.441	770.55
418.649	926.19
418.857	973.3
419.065	969.2
419.273	965.11
419.481	1049.07
419.689	991.73
419.897	1124.85
420.105	1153.52
420.313	1145.33
420.521	1186.29
420.729	1253.87
420.937	1178.09
421.145	1237.49
421.353	1360.36
421.561	1366.51
421.769	1423.85
421.977	1505.77
422.185	1458.67
422.393	1542.63
422.601	1724.9
422.809	1683.94
423.017	1661.41
423.224	1833.44
423.432	1866.21
423.64	1739.24
423.848	2021.86
424.056	1956.32
424.263	2079.2
424.471	2056.67
424.679	2120.16
424.887	2185.69
425.094	2226.65
425.302	2284
425.51	2382.3
425.718	2370.01
425.925	2544.09
426.133	2578.9
426.341	2738.65
426.548	2798.04
426.756	2828.76
426.964	2890.2
427.171	3015.12
427.379	3135.95
427.586	3156.43
427.794	3140.05
428.001	3307.98
428.209	3441.1
428.417	3488.2
428.624	3717.58
428.832	3701.19
429.039	3801.54
429.247	3758.53
429.454	4159.94
429.662	4254.14
429.869	4151.74
430.076	4301.25
430.284	4299.2
430.491	4553.15
430.699	4673.98
430.906	4608.44
431.114	4700.6
431.321	4835.77
431.528	4950.45
431.736	5224.88
431.943	5579.18
432.15	5347.76
432.358	5437.87
432.565	5704.1
432.772	5689.77
432.979	5994.92
433.187	5849.51
433.394	6191.52
433.601	6431.13
433.808	6740.38
434.016	6482.33
434.223	6738.33
434.43	7344.53
434.637	7250.32
434.844	7360.91
435.052	7403.92
435.259	7391.63
435.466	7485.84
435.673	7393.68
435.88	7856.52
436.087	8571.26
436.294	8569.21
436.501	8153.48
436.708	8419.71
436.915	8706.43
437.122	9150.84
437.329	9081.21
437.537	9480.56
437.743	9525.61
437.95	9505.13
438.157	9929.06
438.364	10250.6
438.571	10140.01
438.778	10242.4
438.985	11514.19
439.192	10836.31
439.399	11090.26
439.606	10746.2
439.813	11622.73
440.02	12325.19
440.227	12052.81
440.433	11809.1
440.64	12142.92
440.847	12192.07
441.054	12679.49
441.261	13306.16
441.467	13326.64
441.674	13416.76
441.881	13867.31
442.088	13967.66
442.294	13519.15
442.501	14266.66
442.708	14326.05
442.914	15089.95
443.121	15567.12
443.328	15137.05
443.534	16130.31
443.741	15868.17
443.948	15487.25
444.154	16474.37
444.361	16556.29
444.568	16791.81
444.774	16787.71
444.981	16779.52
445.187	17510.64
445.394	18026.73
445.6	18045.16
445.807	19849.43
446.013	18716.9
446.22	19034.33
446.426	19929.3
446.633	20103.37
446.839	20783.3
447.046	19781.84
447.252	21082.3
447.459	21274.81
447.665	20725.96
447.871	21911.73
448.078	22792.36
448.284	21921.97
448.491	22356.14
448.697	23339.16
448.903	23890.07
449.11	24144.02
449.316	23503
449.522	23967.89
449.728	24473.74
449.935	24950.92
450.141	24862.85
450.347	25653.37
450.553	24838.28
450.76	25002.11
450.966	25749.62
451.172	25469.05
451.378	26300.53
451.584	25798.77
451.791	26347.63
451.997	26314.86
452.203	26697.83
452.409	27123.81
452.615	26941.54
452.821	25503.87
453.027	25794.68
453.233	26904.68
453.44	25905.27
453.646	26087.54
453.852	26300.53
454.058	26959.97
454.264	26126.45
454.47	26470.51
454.676	25837.69
454.882	26992.74
455.088	24524.94
455.294	25022.59
455.5	25569.4
455.705	25686.14
455.911	24340.62
456.117	24082.58
456.323	23828.63
456.529	22466.73
456.735	23656.6
456.941	23019.68
457.147	22610.09
457.352	21930.16
457.558	21586.1
457.764	21751.99
457.97	21448.89
458.176	20840.64
458.381	21018.82
458.587	20173
458.793	20189.39
458.999	18882.78
459.204	20412.62
459.41	19951.82
459.616	18465
459.821	18313.45
460.027	18348.26
460.233	18077.93
460.438	17086.72
460.644	17367.29
460.85	16711.94
461.055	16417.03
461.261	16408.84
461.466	14987.55
461.672	14717.22
461.878	15743.25
462.083	14678.3
462.289	14309.67
462.494	14151.98
462.7	13678.9
462.905	13152.57
463.111	13867.31
463.316	13822.25
463.522	13609.26
463.727	13631.79
463.932	13637.94
464.138	13302.07
464.343	13486.39
464.549	13066.55
464.754	13410.61
464.959	13449.52
465.165	13209.91
465.37	12728.64
465.575	12271.94
465.781	12796.22
465.986	12863.8
466.191	12271.94
466.397	12253.51
466.602	11602.25
466.807	12159.3
467.012	12020.04
467.218	11934.03
467.423	12017.99
467.628	11860.3
467.833	12329.28
468.038	11884.87
468.244	11675.98
468.449	12157.25
468.654	11712.85
468.859	11581.78
469.064	11362.64
469.269	11125.08
469.474	11194.71
469.679	11372.88
469.885	11139.41
470.09	11196.76
470.295	11198.81
470.5	10975.58
470.705	11215.19
470.91	10746.2
471.115	10824.03
471.32	10781.02
471.525	10701.15
471.73	10416.48
471.935	10254.69
472.139	10082.66
472.344	10275.17
472.549	10217.83
472.754	10148.2
472.959	9935.21
473.164	9638.25
473.369	9619.82
473.574	9937.26
473.778	9578.86
473.983	9630.06
474.188	9595.25
474.393	9294.19
474.598	9068.92
474.802	9294.19
475.007	9226.61
475.212	9255.28
475.417	8919.42
475.621	8896.89
475.826	9021.81
476.031	8595.84
476.235	8386.94
476.44	8913.27
476.645	8460.67
476.849	8565.12
477.054	8528.25
477.259	8231.3
477.463	8268.16
477.668	8108.42
477.872	8171.91
478.077	8028.55
478.282	7776.65
478.486	7960.97
478.691	7774.6
478.895	7854.47
479.1	7584.14
479.304	7735.69
479.509	7416.21
479.713	7602.57
479.918	7348.62
480.122	7209.36
480.326	7403.92
480.531	7510.41
480.735	7291.28
480.94	7287.18
481.144	7461.26
481.348	7125.4
481.553	7223.7
481.757	7033.24
481.961	7385.49
482.166	7223.7
482.37	6920.6
482.574	6982.04
482.778	7190.93
482.983	7100.82
483.187	7176.59
483.391	7289.23
483.595	7174.55
483.8	7027.09
484.004	6918.55
484.208	7098.77
484.412	7233.94
484.616	7215.51
484.821	7078.29
485.025	7035.28
485.229	7164.31
485.433	7092.63
485.637	7074.2
485.841	7113.11
486.045	7020.95
486.249	7109.01
486.453	7031.19
486.657	6900.12
486.861	7047.57
487.065	6947.22
487.269	7086.48
487.473	6906.26
487.677	7070.1
487.881	7293.33
488.085	7051.67
488.289	7338.38
488.493	7133.59
488.697	7168.4
488.901	7121.3
489.105	7252.37
489.309	7387.54
489.512	7166.35
489.716	7223.7
489.92	7149.97
490.124	7158.16
490.328	7367.06
490.531	7354.77
490.735	7276.94
490.939	7420.3
491.143	7338.38
491.346	7403.92
491.55	7530.89
491.754	7379.34
491.958	7526.8
492.161	7510.41
492.365	7641.48
492.569	7383.44
492.772	7481.74
492.976	7487.89
493.18	7741.83
493.383	7831.94
493.587	7772.55
493.79	7831.94
493.994	7674.25
494.197	7842.18
494.401	7995.78
494.605	8067.46
494.808	8245.63
495.012	8110.47
495.215	8348.03
495.419	8358.27
495.622	8141.19
495.825	8307.07
496.029	8456.57
496.232	8610.17
496.436	8573.31
496.639	8968.57
496.843	8683.9
497.046	8835.45
497.249	9030.01
497.453	8948.09
497.656	9193.84
497.859	9093.49
498.063	9304.43
498.266	9496.94
498.469	9437.55
498.673	9613.68
498.876	9650.54
499.079	9705.84
499.282	9773.42
499.485	10140.01
499.689	10090.85
499.892	10211.68
500.095	10205.54
500.298	10772.83
500.501	10385.76
500.705	10606.94
500.908	10926.43
501.111	11032.92
501.314	11155.8
501.517	11139.41
501.72	11288.92
501.923	11336.02
502.126	11755.85
502.329	11870.54
502.532	11802.96
502.735	12093.77
502.938	12265.8
503.141	12106.06
503.344	12452.16
503.547	12439.87
503.75	12515.65
503.953	13027.64
504.156	12865.85
504.359	13113.66
504.562	13484.34
504.765	13527.35
504.968	13738.29
505.17	13756.72
505.373	13867.31
505.576	14281
505.779	14002.47
505.982	14274.85
506.185	14461.22
506.387	14770.46
506.59	14784.8
506.793	15259.93
506.996	15161.62
507.198	15427.86
507.401	15450.39
507.604	15681.81
507.807	15900.94
508.009	16261.38
508.212	16326.92
508.415	16400.65
508.617	16453.89
508.82	16728.32
509.022	16728.32
509.225	17369.33
509.428	17455.35
509.63	17322.23
509.833	17570.04
510.035	18088.17
510.238	17936.62
510.44	18254.06
510.643	18557.16
510.845	18737.38
511.048	18577.64
511.25	18991.33
511.453	18903.26
511.655	19624.15
511.858	19781.84
512.06	19431.64
512.262	19906.77
512.465	19871.95
512.667	20314.31
512.87	20404.42
513.072	20701.38
513.274	21098.69
513.477	21125.31
513.679	21178.56
513.881	21405.88
514.084	21881.01
514.286	21903.54
514.488	22046.9
514.69	22943.91
514.893	22479.02
515.095	22784.16
515.297	23079.07
515.499	22986.91
515.701	23376.03
515.904	23814.29
516.106	23781.53
516.308	24270.99
516.51	24404.11
516.712	24465.55
516.914	24623.24
517.116	25190.53
517.318	24785.03
517.52	25321.6
517.722	25413.76
517.925	25888.88
518.127	25995.38
518.329	26097.78
518.531	26126.45
518.733	26671.21
518.935	26814.57
519.136	27056.23
519.338	27519.07
519.54	27529.31
519.742	27773.02
519.944	27930.71
520.146	28422.22
520.348	28401.74
520.55	28876.87
520.752	28600.4
520.954	29487.17
521.155	29206.59
521.357	29648.96
521.559	29638.72
521.761	30208.05
521.963	30119.99
522.164	30341.17
522.366	30750.76
522.568	30701.61
522.77	30969.9
522.971	31170.6
523.173	31154.21
523.375	31475.74
523.576	31506.46
523.778	31725.6
523.98	31983.64
524.181	32555.02
524.383	32362.51
524.584	32794.64
524.786	32632.85
524.988	32532.5
525.189	33040.39
525.391	33579.01
525.592	33536
525.794	33515.52
525.995	33691.65
526.197	33581.06
526.398	33753.08
526.6	34101.24
526.801	34283.51
527.003	34543.6
527.204	34263.03
527.406	34238.45
527.607	34990.06
527.808	34848.75
528.01	34303.99
528.211	34480.11
528.412	35303.4
528.614	34842.6
528.815	35311.59
529.016	35284.97
529.218	35405.8
529.419	35198.95
529.62	35442.66
529.822	35784.67
530.023	35850.2
530.224	35778.53
530.425	35684.32
530.626	35760.09
530.828	35530.72
531.029	36282.33
531.23	35786.72
531.431	36073.43
531.632	36071.39
531.833	36218.84
532.035	36089.82
532.236	36196.31
532.437	35854.3
532.638	36296.66
532.839	36196.31
533.04	36460.5
533.241	36112.34
533.442	36761.55
533.643	36378.58
533.844	36337.62
534.045	36900.81
534.246	36239.32
534.447	36669.39
534.648	36366.29
534.849	36470.74
535.05	36315.09
535.251	36296.66
535.451	36308.95
535.652	36388.82
535.853	36397.01
536.054	36646.86
536.255	36034.52
536.456	36478.93
536.657	36898.76
536.857	36243.41
537.058	36622.29
537.259	36413.4
537.46	36773.84
537.66	36413.4
537.861	36892.62
538.062	36743.12
538.263	36536.27
538.463	36356.05
538.664	36548.56
538.865	36483.03
539.065	36378.58
539.266	36505.55
539.466	36792.27
539.667	36427.73
539.868	36761.55
540.068	35966.94
540.269	36208.6
540.469	36677.58
540.67	36169.69
540.87	36294.61
541.071	36534.23
541.271	36423.64
541.472	36288.47
541.672	36368.34
541.873	36388.82
542.073	36016.09
542.274	36706.26
542.474	36478.93
542.675	35942.36
542.875	36913.1
543.075	36495.32
543.276	36038.62
543.476	36421.59
543.676	36255.7
543.877	36360.15
544.077	36362.2
544.277	36249.56
544.478	36247.51
544.678	36210.65
544.878	36337.62
545.078	36272.09
545.279	35854.3
545.479	35991.51
545.679	36104.15
545.879	36388.82
546.079	36046.81
546.28	36116.44
546.48	35819.49
546.68	36048.86
546.88	36210.65
547.08	36257.75
547.28	36212.7
547.48	35907.55
547.68	36280.28
547.88	36075.48
548.081	36364.25
548.281	35868.64
548.481	36024.28
548.681	36093.91
548.881	35993.56
549.081	36016.09
549.28	35563.49
549.48	35850.2
549.68	35825.63
549.88	36464.6
550.08	35577.83
550.28	35897.31
550.48	36079.58
550.68	36276.18
550.88	35790.81
551.08	35586.02
551.279	36014.04
551.479	35874.78
551.679	36106.2
551.879	35792.86
552.079	35913.69
552.278	35563.49
552.478	35981.27
552.678	35508.19
552.878	36143.06
553.077	35516.39
553.277	35553.25
553.477	36077.53
553.676	35491.81
553.876	35577.83
554.076	35622.88
554.275	35565.54
554.475	35022.83
554.674	35569.63
554.874	35657.7
555.074	35178.47
555.273	35368.93
555.473	35796.96
555.672	35325.92
555.872	35387.36
556.071	35614.69
556.271	35817.44
556.47	35344.36
556.67	35092.46
556.869	35284.97
557.068	35375.08
557.268	35014.63
557.467	35237.86
557.667	35151.85
557.866	35313.64
558.065	35078.12
558.265	35069.93
558.464	34873.32
558.663	35117.03
558.863	34670.57
559.062	35645.41
559.261	34891.76
559.461	35516.39
559.66	34449.39
559.859	34355.19
560.058	34592.75
560.258	34547.7
560.457	34521.07
560.656	34592.75
560.855	34486.26
561.054	34754.54
561.253	34562.03
561.453	34318.32
561.652	34596.85
561.851	34418.67
562.05	34265.08
562.249	34160.63
562.448	34478.07
562.647	34111.48
562.846	33869.82
563.045	34424.82
563.244	33906.68
563.443	34105.34
563.642	33167.37
563.841	33906.68
564.04	33503.23
564.239	34101.24
564.438	33431.55
564.637	34031.61
564.836	33437.7
565.035	33120.26
565.234	33353.73
565.432	33396.74
565.631	32958.47
565.83	33388.55
566.029	33161.22
566.228	33529.86
566.427	33112.07
566.625	32907.27
566.824	32512.02
567.023	33263.62
567.222	32374.8
567.42	32997.38
567.619	32749.58
567.818	32407.57
568.016	32530.45
568.215	32497.68
568.414	32458.77
568.612	32995.34
568.811	32075.8
569.01	32024.6
569.208	31707.16
569.407	32163.86
569.605	31778.84
569.804	32245.78
570.002	31651.87
570.201	32163.86
570.4	31633.44
570.598	31934.49
570.797	31770.65
570.995	31649.82
571.193	31303.71
571.392	31283.23
571.59	30910.5
571.789	31174.69
571.987	31199.27
572.186	31004.71
572.384	30908.46
572.582	31277.09
572.781	31281.19
572.979	30541.87
573.177	30863.4
573.376	30779.43
573.574	30281.78
573.772	30683.18
573.971	30525.49
574.169	30224.43
574.367	30361.65
574.565	30146.61
574.763	29945.91
574.962	29880.38
575.16	29753.4
575.358	30197.81
575.556	29802.55
575.754	30163
575.952	29827.13
576.151	30042.17
576.349	29487.17
576.547	29517.89
576.745	29476.93
576.943	29460.54
577.141	28995.65
577.339	29231.17
577.537	29075.52
577.735	29130.82
577.933	28977.22
578.131	29235.27
578.329	28692.55
578.527	28557.39
578.725	28860.49
578.923	28833.86
579.121	28862.54
579.319	28518.48
579.516	28778.57
579.714	28254.29
579.912	28354.64
580.11	28395.6
580.308	28399.69
580.506	28072.02
580.704	27983.96
580.901	27926.61
581.099	27854.93
581.297	27689.05
581.495	27719.77
581.692	27705.43
581.89	27543.64
582.088	27709.53
582.285	27314.27
582.483	27488.35
582.681	27412.57
582.878	27119.71
583.076	26974.31
583.274	27220.06
583.471	27039.84
583.669	26908.77
583.866	27170.91
584.064	27181.15
584.262	26644.59
584.459	26978.4
584.657	26695.78
584.854	26927.21
585.052	26292.33
585.249	26654.83
585.447	26331.25
585.644	26005.62
585.841	26251.38
586.039	26531.95
586.236	25825.4
586.434	25913.46
586.631	25743.48
586.828	25987.19
587.026	25948.28
587.223	25548.92
587.42	25612.41
587.618	25471.1
587.815	25464.96
588.012	25272.45
588.21	25251.97
588.407	25532.54
588.604	25391.23
588.801	25045.12
588.999	25428.09
589.196	24737.93
589.393	25122.94
589.59	24887.43
589.787	24619.14
589.984	24664.2
590.182	24561.8
590.379	24699.02
590.576	24553.61
590.773	24273.04
590.97	24084.62
591.167	24387.72
591.364	24154.26
591.561	24254.61
591.758	23724.18
591.955	23806.1
592.152	24107.15
592.349	23769.24
592.546	23840.92
592.743	23816.34
592.94	23642.26
593.137	23562.39
593.334	23535.77
593.531	23216.29
593.727	23503
593.924	23423.13
594.121	23072.93
594.318	23330.97
594.515	22931.62
594.712	23251.1
594.908	22909.09
595.105	22911.14
595.302	22675.62
595.499	22497.45
595.696	22663.33
595.892	22616.23
596.089	22808.74
596.286	22544.55
596.482	22595.75
596.679	22597.8
596.876	22423.72
597.072	22206.64
597.269	22188.21
597.466	21915.83
597.662	21989.55
597.859	21924.02
598.055	22229.16
598.252	21960.88
598.448	21883.06
598.645	21780.66
598.841	21645.49
599.038	21592.25
599.234	21721.27
599.431	21205.18
599.627	21274.81
599.824	21495.99
600.02	21139.65
600.217	21600.44
600.413	21108.93
600.609	20914.37
600.806	21291.2
601.002	21080.25
601.198	20953.28
601.395	20742.34
601.591	20867.27
601.787	20760.77
601.984	20586.69
602.18	20719.81
602.376	20498.63
602.572	20510.92
602.769	20691.14
602.965	20259.02
603.161	20385.99
603.357	20222.16
603.553	19923.15
603.75	20097.23
603.946	19730.64
604.142	20136.14
604.338	19740.88
604.534	19855.57
604.73	19642.58
604.926	19566.81
605.122	20035.79
605.318	19450.07
605.514	19433.69
605.71	19695.83
605.906	19273.95
606.102	19286.23
606.298	19368.15
606.494	19300.57
606.69	19091.68
606.886	19200.22
607.082	18807.01
607.278	19140.83
607.474	18858.21
607.67	19077.34
607.866	18739.43
608.062	19089.63
608.257	18946.27
608.453	18823.39
608.649	18858.21
608.845	18465
609.041	18651.36
609.236	18362.6
609.432	18747.62
609.628	18653.41
609.824	18458.85
610.019	18479.33
610.215	18376.94
610.411	18446.57
610.606	17993.97
610.802	18278.63
610.998	18594.02
611.193	18288.87
611.389	18096.36
611.584	18071.79
611.78	17963.25
611.976	17778.93
612.171	17811.7
612.367	17709.3
612.562	17690.87
612.758	17676.53
612.953	17422.58
613.149	17832.18
613.344	17823.98
613.539	17897.71
613.735	17703.15
613.93	17623.28
614.126	17791.22
614.321	17654
614.517	17441.01
614.712	17430.77
614.907	17363.19
615.103	17457.4
615.298	17187.07
615.493	17500.4
615.688	17256.7
615.884	17572.08
616.079	17033.47
616.274	17144.06
616.47	16943.36
616.665	17039.61
616.86	16603.39
617.055	16838.91
617.25	16763.14
617.445	16726.27
617.641	16697.6
617.836	17029.37
618.031	16552.2
618.226	16591.11
618.421	16752.9
618.616	16636.16
618.811	16371.97
619.006	16742.66
619.201	16242.95
619.396	16398.6
619.591	16218.38
619.786	16435.46
619.981	16105.74
620.176	15980.81
620.371	15941.9
620.566	15939.85
620.761	15704.34
620.956	15993.1
621.151	15700.24
621.346	15790.35
621.541	15337.75
621.735	15505.68
621.93	15434
622.125	15286.55
622.32	15386.9
622.515	15188.25
622.709	15079.71
622.904	15294.74
623.099	14973.21
623.294	15098.14
623.488	14805.28
623.683	14692.64
623.878	14586.15
624.072	14633.25
624.267	14532.9
624.462	14502.18
624.656	14215.46
624.851	14367.01
625.046	14184.74
625.24	14246.18
625.435	14199.08
625.629	13891.88
625.824	14018.86
626.018	13809.97
626.213	13803.82
626.407	13678.9
626.602	13525.3
626.796	13494.58
626.991	13492.53
627.185	13510.96
627.38	13388.08
627.574	13386.04
627.768	13439.28
627.963	12986.68
628.157	13078.84
628.352	13052.22
628.546	12747.07
628.74	12900.67
628.935	12513.6
629.129	12638.53
629.323	12470.59
629.517	12392.77
629.712	12466.5
629.906	12347.72
630.1	12190.02
630.294	12310.85
630.489	12153.16
630.683	12235.08
630.877	12056.9
631.071	12185.93
631.265	12020.04
631.459	11987.27
631.653	11764.04
631.848	11819.34
632.042	11620.69
632.236	11815.24
632.43	11682.13
632.624	11520.34
632.818	11295.06
633.012	11432.27
633.206	11376.98
633.4	11350.35
633.594	11176.28
633.788	11270.48
633.982	11307.35
634.176	11198.81
634.369	11000.15
634.563	10940.76
634.757	10836.31
634.951	10922.33
635.145	10844.51
635.339	10836.31
635.533	10705.24
635.726	10621.28
635.92	10486.11
636.114	10500.45
636.308	10477.92
636.501	10484.06
636.695	10496.35
636.889	10248.55
637.083	10344.8
637.276	10049.89
637.47	10017.13
637.664	10027.37
637.857	10352.99
638.051	10103.14
638.244	9986.41
638.438	9709.93
638.632	10008.94
638.825	9884.01
639.019	9818.47
639.212	9714.03
639.406	9697.64
639.599	9425.26
639.793	9529.71
639.986	9460.08
640.18	9329.01
640.373	9257.33
640.567	9263.47
640.76	9150.84
640.954	8960.38
641.147	9148.79
641.34	9021.81
641.534	9019.77
641.727	9253.23
641.92	8966.52
642.114	8802.68
642.307	8714.62
642.5	8780.15
642.694	8755.58
642.887	8587.64
643.08	8870.26
643.273	8513.92
643.467	8606.08
643.66	8610.17
643.853	8300.93
644.046	8352.13
644.239	8227.2
644.432	8155.52
644.626	8159.62
644.819	8075.65
645.012	8065.41
645.205	8206.72
645.398	8198.53
645.591	8069.51
645.784	7960.97
645.977	7870.86
646.17	7725.45
646.363	7797.13
646.556	7666.06
646.749	7534.99
646.942	7870.86
647.135	7659.92
647.328	7707.02
647.521	7696.78
647.714	7575.95
647.907	7655.82
648.099	7600.52
648.292	7690.63
648.485	7440.78
648.678	7379.34
648.871	7209.36
649.064	7291.28
649.256	7250.32
649.449	7192.98
649.642	7154.07
649.835	7086.48
650.027	7035.28
650.22	6986.13
650.413	6762.9
650.605	6928.79
650.798	6793.62
650.991	6744.47
651.183	6754.71
651.376	6723.99
651.568	6740.38
651.761	6416.8
651.954	6623.64
652.146	6709.66
652.339	6422.94
652.531	6642.07
652.724	6529.44
652.916	6441.37
653.109	6465.95
653.301	6300.06
653.494	6322.59
653.686	6113.7
653.879	6410.65
654.071	6054.31
654.263	6193.57
654.456	6029.73
654.648	6281.63
654.84	6121.89
655.033	6138.27
655.225	5953.96
655.417	5945.77
655.61	5953.96
655.802	5974.44
655.994	5931.43
656.186	5906.85
656.379	5757.35
656.571	5792.17
656.763	5802.41
656.955	5659.05
657.148	5722.54
657.34	5667.24
657.532	5597.61
657.724	5566.89
657.916	5650.86
658.108	5552.56
658.3	5489.07
658.492	5355.95
658.684	5278.13
658.876	5198.26
659.068	5200.3
659.26	5290.42
659.452	5433.77
659.644	5446.06
659.836	5243.31
660.028	5292.46
660.22	5212.59
660.412	5044.66
660.604	4995.51
660.796	5224.88
660.988	5102
661.18	5013.94
661.372	5167.54
661.563	4981.17
661.755	4850.1
661.947	4831.67
662.139	4819.38
662.331	4792.76
662.522	4733.37
662.714	4858.29
662.906	4790.71
663.097	4702.65
663.289	4776.38
663.481	4688.31
663.673	4585.91
663.864	4577.72
664.056	4553.15
664.247	4422.08
664.439	4553.15
664.631	4413.88
664.822	4454.84
665.014	4514.24
665.205	4422.08
665.397	4299.2
665.588	4366.78
665.78	4368.83
665.971	4350.4
666.163	4299.2
666.354	4192.7
666.546	4299.2
666.737	4204.99
666.929	4219.33
667.12	4252.1
667.311	4217.28
667.503	4184.51
667.694	4106.69
667.885	4088.26
668.077	4164.03
668.268	4131.26
668.459	4180.42
668.651	3799.49
668.842	3905.99
669.033	3754.44
669.224	3946.95
669.416	3959.24
669.607	3881.41
669.798	3791.3
669.989	3910.08
670.18	3850.69
670.371	3860.93
670.563	3905.99
670.754	3731.91
670.945	3811.78
671.136	3738.05
671.327	3701.19
671.518	3811.78
671.709	3713.48
671.9	3883.46
672.091	3596.75
672.282	3621.32
672.473	3578.31
672.664	3713.48
672.855	3510.73
673.046	3709.38
673.237	3492.3
673.428	3504.59
673.619	3596.75
673.809	3418.57
674	3572.17
674.191	3480.01
674.382	3416.52
674.573	3504.59
674.764	3467.72
674.954	3389.9
675.145	3414.48
675.336	3312.08
675.527	3389.9
675.717	3389.9
675.908	3508.68
676.099	3318.22
676.289	3258.83
676.48	3242.45
676.671	3238.35
676.861	3269.07
677.052	3189.2
677.243	3441.1
677.433	3334.61
677.624	3262.93
677.814	3209.68
678.005	3316.17
678.195	3234.25
678.386	3310.03
678.576	3162.58
678.767	3336.65
678.957	3332.56
679.148	3236.3
679.338	3361.23
679.529	3262.93
679.719	3070.42
679.909	3277.26
680.1	3289.55
680.29	3283.41
680.481	3217.87
680.671	3236.3
680.861	3123.66
681.052	3187.15
681.242	3205.58
681.432	3207.63
681.622	3195.34
681.813	3232.21
682.003	3283.41
682.193	3258.83
682.383	3199.44
682.573	3082.7
682.764	3023.31
682.954	3119.57
683.144	3129.81
683.334	3111.38
683.524	3142.1
683.714	3146.19
683.904	2982.35
684.094	2939.35
684.284	3006.93
684.474	3058.13
684.664	3082.7
684.854	3215.82
685.044	3047.89
685.234	2996.69
685.424	2996.69
685.614	2988.5
685.804	3031.51
685.994	3029.46
686.184	3033.55
686.374	3041.75
686.564	3060.18
686.753	2947.54
686.943	3076.56
687.133	2861.52
687.323	3086.8
687.513	2976.21
687.702	2939.35
687.892	2892.24
688.082	2859.48
688.272	2908.63
688.461	2865.62
688.651	2884.05
688.841	2843.09
689.03	2884.05
689.22	2759.13
689.41	2865.62
689.599	2836.95
689.789	2800.09
689.979	2851.28
690.168	2839
690.358	2691.54
690.547	2826.71
690.737	2836.95
690.926	2832.85
691.116	2718.17
691.305	2644.44
691.495	2795.99
691.684	2742.74
691.874	2775.51
692.063	2632.15
692.252	2603.48
692.442	2757.08
692.631	2675.16
692.82	2816.47
693.01	2632.15
693.199	2742.74
693.388	2523.61
693.578	2576.86
693.767	2548.19
693.956	2658.78
694.146	2597.34
694.335	2550.23
694.524	2480.6
694.713	2613.72
694.902	2662.87
695.092	2638.3
695.281	2683.35
695.47	2630.1
695.659	2537.95
695.848	2562.52
696.037	2480.6
696.226	2501.08
696.415	2521.56
696.604	2554.33
696.793	2611.67
696.982	2466.27
697.171	2470.36
697.36	2546.14
697.549	2474.46
697.738	2390.49
697.927	2505.18
698.116	2492.89
698.305	2429.4
698.494	2433.5
698.683	2449.88
698.872	2374.11
699.061	2359.77
699.25	2388.44
699.438	2464.22
699.627	2390.49
699.816	2496.99
700.005	2277.85
700.193	2492.89
700.382	2542.04
700.571	2308.57
700.76	2324.96
700.948	2361.82
701.137	2390.49
701.326	2345.44
701.514	2286.05
701.703	2398.68
701.892	2251.23
702.08	2398.68
702.269	2327
702.457	2324.96
702.646	2376.16
702.834	2243.04
703.023	2226.65
703.212	2238.94
703.4	2230.75
703.589	2345.44
703.777	2240.99
703.965	2245.09
704.154	2292.19
704.342	2187.74
704.531	2292.19
704.719	2179.55
704.907	2341.34
705.096	2261.47
705.284	2310.62
705.472	2216.41
705.661	2122.21
705.849	2327
706.037	2263.52
706.226	2116.06
706.414	2161.12
706.602	2224.61
706.79	2218.46
706.979	2157.02
707.167	2210.27
707.355	1993.19
707.543	2273.76
707.731	2253.28
707.919	2251.23
708.107	2157.02
708.296	2052.58
708.484	2124.26
708.672	2263.52
708.86	2181.6
709.048	2099.68
709.236	2105.82
709.424	2066.91
709.612	2261.47
709.8	2234.85
709.988	2154.98
710.176	2202.08
710.364	2144.74
710.551	2171.36
710.739	2195.93
710.927	1989.09
711.115	2116.06
711.303	2206.17
711.491	2050.53
711.679	2148.83
711.866	2136.54
712.054	2138.59
712.242	2081.25
712.43	2161.12
712.617	2144.74
712.805	2046.43
712.993	2169.31
713.181	2007.52
713.368	2068.96
713.556	2163.17
713.744	2064.86
713.931	2226.65
714.119	2017.76
714.306	2058.72
714.494	2034.14
714.682	1941.99
714.869	2023.91
715.057	2107.87
715.244	2089.44
715.432	2169.31
715.619	2087.39
715.807	2179.55
715.994	1997.28
716.182	1987.04
716.369	2068.96
716.556	2013.67
716.744	2038.24
716.931	2003.43
717.119	2148.83
717.306	2091.49
717.493	2040.29
717.681	2062.82
717.868	2095.58
718.055	2046.43
718.242	1972.71
718.43	2099.68
718.617	2017.76
718.804	2064.86
718.991	1925.6
719.179	2120.16
719.366	2050.53
719.553	2132.45
719.74	1982.95
719.927	2128.35
720.114	2003.43
720.301	2046.43
720.488	2032.1
720.676	1948.13
720.863	2021.86
721.05	2023.91
721.237	2009.57
721.424	2032.1
721.611	1999.33
721.798	2064.86
721.985	2015.71
722.172	1976.8
722.358	2032.1
722.545	2021.86
722.732	2122.21
722.919	2060.77
723.106	2054.62
723.293	2005.47
723.48	2021.86
723.667	1921.51
723.853	2023.91
724.04	2071.01
724.227	2030.05
724.414	2038.24
724.6	1980.9
724.787	1935.84
724.974	1987.04
725.161	1917.41
725.347	1974.75
725.534	2013.67
725.72	2021.86
725.907	2009.57
726.094	2001.38
726.28	2032.1
726.467	1984.99
726.653	1948.13
726.84	1876.45
727.027	1980.9
727.213	1964.51
727.4	1909.22
727.586	1941.99
727.773	1925.6
727.959	1964.51
728.145	1866.21
728.332	1860.07
728.518	1849.83
728.705	1989.09
728.891	1882.6
729.077	2030.05
729.264	1878.5
729.45	1925.6
729.636	1888.74
729.823	1892.84
730.009	1964.51
730.195	1864.16
730.382	2030.05
730.568	1866.21
730.754	1911.27
730.94	1866.21
731.126	1958.37
731.313	1923.55
731.499	2083.3
731.685	1989.09
731.871	1903.07
732.057	1927.65
732.243	1987.04
732.429	1894.88
732.615	1964.51
732.801	2103.78
732.987	1923.55
733.173	2021.86
733.359	1878.5
733.545	2013.67
733.731	1984.99
733.917	1898.98
734.103	1898.98
734.289	1950.18
734.475	1948.13
734.661	1898.98
734.847	1966.56
735.033	1944.03
735.219	1907.17
735.404	1923.55
735.59	1917.41
735.776	1925.6
735.962	1939.94
736.148	1907.17
736.333	1882.6
736.519	1972.71
736.705	1802.72
736.89	1925.6
737.076	1862.12
737.262	1804.77
737.447	1894.88
737.633	1868.26
737.819	1851.88
738.004	1980.9
738.19	1819.11
738.375	1898.98
738.561	1907.17
738.747	1974.75
738.932	1874.4
739.118	1845.73
739.303	1937.89
739.489	1821.16
739.674	1866.21
739.859	1800.68
740.045	1821.16
740.23	1784.29
740.416	1737.19
740.601	1858.02
740.786	1794.53
740.972	1759.72
741.157	1853.92
741.342	1747.43
741.528	1845.73
741.713	1743.33
741.898	1706.47
742.084	1704.42
742.269	1788.39
742.454	1745.38
742.639	1710.57
742.824	1765.86
743.01	1718.76
743.195	1694.18
743.38	1669.61
743.565	1700.33
743.75	1710.57
743.935	1649.13
744.12	1739.24
744.305	1763.81
744.49	1729
744.675	1702.37
744.86	1636.84
745.045	1595.88
745.23	1659.37
745.415	1685.99
745.6	1595.88
745.785	1579.5
745.97	1712.61
746.155	1561.06
746.34	1559.02
746.525	1538.54
746.71	1630.7
746.895	1520.1
747.079	1550.82
747.264	1548.78
747.449	1475.05
747.634	1513.96
747.819	1513.96
748.003	1526.25
748.188	1540.58
748.373	1491.43
748.557	1485.29
748.742	1511.91
748.927	1456.62
749.111	1522.15
749.296	1522.15
749.481	1495.53
749.665	1487.34
749.85	1380.84
750.034	1479.15
750.219	1434.09
750.404	1460.71
750.588	1530.34
750.773	1407.47
750.957	1370.6
751.141	1366.51
751.326	1489.39
751.51	1401.32
751.695	1382.89
751.879	1280.49
752.064	1415.66
752.248	1366.51
752.432	1446.38
752.617	1337.84
752.801	1294.83
752.985	1311.21
753.17	1333.74
753.354	1300.97
753.538	1376.75
753.722	1270.25
753.907	1214.96
754.091	1288.68
754.275	1292.78
754.459	1247.72
754.643	1219.05
754.828	1180.14
755.012	1251.82
755.196	1112.56
755.38	1153.52
755.564	1243.63
755.748	1139.18
755.932	1208.81
756.116	1102.32
756.3	1159.66
756.484	1163.76
756.668	1153.52
756.852	1092.08
757.036	1053.17
757.22	1094.13
757.404	1098.22
757.588	1075.7
757.772	1057.26
757.956	1075.7
758.14	1145.33
758.323	1014.26
758.507	1120.75
758.691	1016.3
758.875	1018.35
759.059	1110.51
759.242	983.54
759.426	983.54
759.61	1026.54
759.794	1036.78
759.977	997.87
760.161	1094.13
760.345	1020.4
760.528	969.2
760.712	1063.41
760.895	991.73
761.079	967.15
761.263	971.25
761.446	1030.64
761.63	995.82
761.813	965.11
761.997	934.39
762.18	907.76
762.364	975.35
762.547	975.35
762.731	979.44
762.914	1022.45
763.098	991.73
763.281	1006.06
763.464	1006.06
763.648	840.18
763.831	901.62
764.015	967.15
764.198	899.57
764.381	909.81
764.564	858.61
764.748	874.99
764.931	920.05
765.114	897.52
765.297	809.46
765.481	911.86
765.664	934.39
765.847	956.91
766.03	893.43
766.213	838.13
766.397	874.99
766.58	850.42
766.763	889.33
766.946	850.42
767.129	713.21
767.312	793.08
767.495	823.8
767.678	788.98
767.861	838.13
768.044	782.84
768.227	868.85
768.41	782.84
768.593	895.47
768.776	784.88
768.959	807.41
769.142	754.16
769.324	768.5
769.507	793.08
769.69	825.84
769.873	768.5
770.056	926.19
770.239	801.27
770.421	762.36
770.604	825.84
770.787	678.39
770.97	784.88
771.152	752.12
771.335	786.93
771.518	741.88
771.7	813.56
771.883	772.6
772.066	745.97
772.248	821.75
772.431	768.5
772.613	825.84
772.796	731.64
772.978	739.83
773.161	723.44
773.343	768.5
773.526	688.63
773.708	682.49
773.891	668.15
774.073	682.49
774.256	719.35
774.438	772.6
774.621	633.33
774.803	670.2
774.985	543.22
775.168	621.05
775.35	639.48
775.532	700.92
775.715	600.57
775.897	633.33
776.079	690.68
776.261	666.1
776.444	598.52
776.626	694.77
776.808	600.57
776.99	580.09
777.173	621.05
777.355	573.94
777.537	612.85
777.719	569.85
777.901	600.57
778.083	588.28
778.265	524.79
778.447	659.96
778.629	539.13
778.811	662.01
778.993	555.51
779.175	596.47
779.357	571.9
779.539	539.13
779.721	471.54
779.903	555.51
780.085	539.13
780.267	559.61
780.449	547.32
780.631	555.51
780.812	549.37
780.994	514.55
781.176	530.94
781.358	514.55
781.54	500.22
781.721	555.51
781.903	483.83
782.085	469.5
782.267	539.13
782.448	449.02
782.63	473.59
782.812	477.69
782.993	440.83
783.175	481.78
783.357	391.67
783.538	508.41
783.72	461.3
783.901	453.11
784.083	442.87
784.264	481.78
784.446	457.21
784.627	393.72
784.809	485.88
784.99	451.07
785.172	432.63
785.353	457.21
785.535	369.15
785.716	416.25
785.897	432.63
786.079	494.07
786.26	461.3
786.441	369.15
786.623	342.52
786.804	383.48
786.985	426.49
787.167	446.97
787.348	395.77
787.529	336.38
787.71	449.02
787.891	375.29
788.073	401.91
788.254	401.91
788.435	336.38
788.616	408.06
788.797	317.95
788.978	358.91
789.159	391.67
789.34	383.48
789.522	379.39
789.703	330.23
789.884	324.09
790.065	309.76
790.246	377.34
790.427	344.57
790.607	373.24
790.788	481.78
790.969	293.37
791.15	360.95
791.331	315.9
791.512	324.09
791.693	317.95
791.874	379.39
792.054	326.14
792.235	330.23
792.416	301.56
792.597	342.52
792.778	328.19
792.958	295.42
793.139	225.79
793.32	242.17
793.5	285.18
793.681	367.1
793.862	264.7
794.042	295.42
794.223	219.64
794.404	285.18
794.584	250.36
794.765	276.99
794.945	236.03
795.126	289.28
795.306	229.88
795.487	262.65
795.667	260.6
795.848	283.13
796.028	258.56
796.209	256.51
796.389	373.24
796.57	281.08
796.75	254.46
796.93	270.84
797.111	252.41
797.291	225.79
797.471	264.7
797.652	260.6
797.832	246.27
798.012	276.99
798.192	201.21
798.373	233.98
798.553	342.52
798.733	236.03
798.913	266.75
799.093	203.26
799.274	211.45
799.454	197.12
799.634	225.79
799.814	182.78
799.994	260.6
800.174	244.22
800.354	266.75
800.534	250.36
800.714	285.18
800.894	221.69
801.074	217.6
801.254	268.8
801.434	266.75
801.614	240.12
801.794	190.97
801.974	891.38
802.154	213.5
802.334	236.03
802.514	170.49
802.693	240.12
802.873	158.21
803.053	236.03
803.233	248.32
803.413	184.83
803.592	240.12
803.772	152.06
803.952	199.16
804.131	158.21
804.311	190.97
804.491	246.27
804.67	170.49
804.85	213.5
805.03	154.11
805.209	295.42
805.389	195.07
805.568	211.45
805.748	207.36
805.928	180.73
806.107	197.12
806.287	190.97
806.466	178.69
806.646	213.5
806.825	162.3
807.004	113.15
807.184	162.3
807.363	178.69
807.543	162.3
807.722	188.93
807.901	186.88
808.081	147.97
808.26	100.86
808.439	104.96
808.619	156.16
808.798	264.7
808.977	188.93
809.156	166.4
809.336	199.16
809.515	317.95
809.694	141.82
809.873	199.16
810.052	64
810.231	188.93
810.411	107.01
810.59	223.74
810.769	141.82
810.948	229.88
811.127	135.68
811.306	170.49
811.485	160.25
811.664	201.21
811.843	203.26
812.022	84.48
812.201	139.77
812.38	145.92
812.559	152.06
812.737	131.58
812.916	131.58
813.095	121.34
813.274	178.69
813.453	115.2
813.632	219.64
813.811	233.98
813.989	57.86
814.168	152.06
814.347	141.82
814.526	172.54
814.704	195.07
814.883	133.63
815.062	113.15
815.24	168.45
815.419	137.73
815.598	113.15
815.776	115.2
815.955	64
816.133	123.39
816.312	109.05
816.49	195.07
816.669	178.69
816.847	154.11
817.026	133.63
817.204	158.21
817.383	166.4
817.561	121.34
817.74	129.53
817.918	170.49
818.097	141.82
818.275	115.2
818.453	98.81
818.632	141.82
818.81	82.43
818.988	131.58
819.167	90.62
819.345	162.3
819.523	100.86
819.701	129.53
819.879	90.62
820.058	80.38
820.236	96.77
820.414	100.86
820.592	115.2
820.77	139.77
820.948	80.38
821.127	31.23
821.305	201.21
821.483	47.62
821.661	129.53
821.839	170.49
822.017	156.16
822.195	127.49
822.373	162.3
822.551	164.35
822.729	176.64
822.907	72.19
823.085	145.92
823.262	113.15
823.44	88.57
823.618	100.86
823.796	121.34
823.974	141.82
824.152	55.81
824.329	84.48
824.507	139.77
824.685	88.57
824.863	64
825.04	84.48
825.218	168.45
825.396	64
825.574	150.01
825.751	33.28
825.929	90.62
826.107	104.96
826.284	64
826.462	113.15
826.639	47.62
826.817	84.48
826.994	139.77
827.172	121.34
827.349	74.24
827.527	121.34
827.704	55.81
827.882	104.96
828.059	102.91
828.237	49.66
828.414	68.09
828.591	0.51
828.769	109.05
828.946	84.48
829.124	88.57
829.301	107.01
829.478	72.19
829.655	64
829.833	51.71
830.01	80.38
830.187	64
830.364	68.09
830.542	174.59
830.719	107.01
830.896	68.09
831.073	-9.73
831.25	102.91
831.427	84.48
831.604	90.62
831.782	107.01
831.959	129.53
832.136	121.34
832.313	141.82
832.49	90.62
832.667	133.63
832.844	8.7
833.021	107.01
833.198	43.52
833.374	43.52
833.551	125.44
833.728	64
833.905	133.63
834.082	29.18
834.259	66.05
834.436	96.77
834.612	96.77
834.789	55.81
834.966	184.83
835.143	170.49
835.319	64
835.496	25.09
835.673	29.18
835.85	133.63
836.026	16.9
836.203	160.25
836.38	68.09
836.556	66.05
836.733	6.66
836.909	47.62
837.086	90.62
837.262	43.52
837.439	6.66
837.616	68.09
837.792	117.25
837.968	31.23
838.145	55.81
838.321	10.75
838.498	80.38
838.674	80.38
838.851	61.95
839.027	72.19
839.203	51.71
839.38	23.04
839.556	47.62
839.732	64
839.909	90.62
840.085	96.77
840.261	-38.4
840.437	47.62
840.614	33.28
840.79	135.68
840.966	121.34
841.142	88.57
841.318	23.04
841.494	113.15
841.671	76.29
841.847	39.42
842.023	88.57
842.199	23.04
842.375	80.38
842.551	18.94
842.727	-9.73
842.903	100.86
843.079	-5.63
843.255	137.73
843.431	20.99
843.607	31.23
843.783	25.09
843.959	131.58
844.134	53.76
844.31	96.77
844.486	47.62
844.662	31.23
844.838	0.51
845.013	66.05
845.189	16.9
845.365	43.52
845.541	6.66
845.716	47.62
845.892	92.67
846.068	10.75
846.244	14.85
846.419	78.33
846.595	27.14
846.77	23.04
846.946	143.87
847.122	92.67
847.297	43.52
847.473	72.19
847.648	-38.4
847.824	88.57
847.999	10.75
848.175	80.38
848.35	35.33
848.526	119.29
848.701	94.72
848.876	82.43
849.052	100.86
849.227	92.67
849.403	-26.11
849.578	35.33
849.753	98.81
849.929	80.38
850.104	-28.16
850.279	76.29
850.454	35.33
850.63	57.86
850.805	0.51
850.98	100.86
851.155	37.38
851.33	33.28
851.505	107.01
851.681	64
851.856	39.42
852.031	10.75
852.206	80.38
852.381	25.09
852.556	25.09
852.731	135.68
852.906	10.75
853.081	113.15
853.256	31.23
853.431	49.66
853.606	-3.58
853.781	10.75
853.956	66.05
854.131	25.09
854.305	-5.63
854.48	27.14
854.655	25.09
854.83	125.44
855.005	37.38
855.18	39.42
855.354	84.48
855.529	39.42
855.704	16.9
855.879	80.38
856.053	33.28
856.228	51.71
856.403	31.23
856.577	6.66
856.752	72.19
856.926	76.29
857.101	61.95
857.276	104.96
857.45	-7.68
857.625	-3.58
857.799	25.09
857.974	88.57
858.148	47.62
858.323	31.23
858.497	76.29
858.672	6.66
858.846	18.94
859.02	18.94
859.195	-67.07
859.369	43.52
859.543	-7.68
859.718	27.14
859.892	37.38
860.066	27.14
860.241	35.33
860.415	16.9
860.589	-9.73
860.763	8.7
860.938	-77.31
861.112	82.43
861.286	18.94
861.46	-5.63
861.634	117.25
861.808	43.52
861.982	-13.82
862.157	-32.26
862.331	66.05
862.505	-26.11
862.679	43.52
862.853	92.67
863.027	10.75
863.201	16.9
863.375	33.28
863.549	68.09
863.722	29.18
863.896	33.28
864.07	80.38
864.244	-22.02
864.418	57.86
864.592	70.14
864.766	39.42
864.939	72.19
865.113	-3.58
865.287	80.38
865.461	41.47
865.634	74.24
865.808	88.57
865.982	6.66
866.156	72.19
866.329	16.9
866.503	66.05
866.676	82.43
866.85	33.28
867.024	25.09
867.197	33.28
867.371	39.42
867.544	47.62
867.718	-46.59
867.891	35.33
868.065	41.47
868.238	8.7
868.412	90.62
868.585	-28.16
868.759	-34.3
868.932	-17.92
869.105	-44.54
869.279	80.38
869.452	10.75
869.625	66.05
869.799	80.38
869.972	49.66
870.145	84.48
870.319	51.71
870.492	31.23
870.665	53.76
870.838	76.29
871.011	43.52
871.185	41.47
871.358	35.33
871.531	94.72
871.704	6.66
871.877	39.42
872.05	-34.3
872.223	117.25
872.396	47.62
872.569	23.04
872.742	-7.68
872.915	129.53
873.088	43.52
873.261	0.51
873.434	6.66
873.607	68.09
873.78	39.42
873.953	39.42
874.126	14.85
874.299	-1.54
874.471	14.85
874.644	-1.54
874.817	35.33
874.99	86.53
875.163	-9.73
875.335	72.19
875.508	-34.3
875.681	66.05
875.853	-1.54
876.026	6.66
876.199	-3.58
876.371	-19.97
876.544	57.86
876.717	35.33
876.889	23.04
877.062	10.75
877.234	-42.5
877.407	10.75
877.579	-34.3
877.752	27.14
877.924	8.7
878.097	64
878.269	18.94
878.442	10.75
878.614	-24.06
878.786	39.42
878.959	72.19
879.131	68.09
879.303	0.51
879.476	96.77
879.648	66.05
879.82	39.42
879.993	-30.21
880.165	64
880.337	27.14
880.509	23.04
880.681	6.66
880.854	102.91
881.026	47.62
881.198	47.62
881.37	-22.02
881.542	6.66
881.714	10.75
881.886	31.23
882.058	27.14
882.23	72.19
882.402	-30.21
882.574	-26.11
882.746	6.66
882.918	66.05
883.09	35.33
883.262	23.04
883.434	16.9
883.606	6.66
883.778	31.23
883.95	82.43
884.122	55.81
884.293	-17.92
884.465	59.9
884.637	18.94
884.809	80.38
884.98	-50.69
885.152	25.09
885.324	47.62
885.496	4.61
885.667	10.75
885.839	-9.73
886.011	98.81
886.182	10.75
886.354	39.42
886.525	39.42
886.697	82.43
886.869	23.04
887.04	31.23
887.212	-3.58
887.383	43.52
887.555	104.96
887.726	55.81
887.897	-26.11
888.069	14.85
888.24	23.04
888.412	-40.45
888.583	55.81
888.754	55.81
888.926	-1.54
889.097	-24.06
889.268	31.23
889.44	47.62
889.611	-52.74
889.782	-17.92
889.953	18.94
890.125	64
890.296	-19.97
890.467	10.75
890.638	-26.11
890.809	-50.69
890.98	-52.74
891.151	8.7
891.323	82.43
891.494	0.51
891.665	-17.92
891.836	88.57
892.007	18.94
892.178	82.43
892.349	10.75
892.52	-1.54
892.691	-22.02
892.862	6.66
893.032	-75.26
893.203	49.66
893.374	31.23
893.545	33.28
893.716	8.7
893.887	53.76
894.057	109.05
894.228	39.42
894.399	41.47
894.57	27.14
894.74	0.51
894.911	-9.73
895.082	-28.16
895.253	-9.73
895.423	53.76
895.594	88.57
895.764	14.85
895.935	-13.82
896.106	10.75
896.276	64
896.447	6.66
896.617	-1.54
896.788	-67.07
896.958	-1.54
897.129	10.75
897.299	72.19
897.47	64
897.64	111.1
897.81	57.86
897.981	59.9
898.151	-9.73
898.322	100.86
898.492	-17.92
898.662	-1.54
898.832	-11.78
899.003	-44.54
899.173	12.8
899.343	-9.73
899.513	-40.45
