Data from USB4F104151__45__14-43-00-702.txt Node

Date: Thu Mar 13 14:43:00 EDT 2025
User: louis
Spectrometer: USB4F10415
Trigger mode: 4
Integration Time (sec): 2.000000E-2
Scans to average: 1
Electric dark correction enabled: true
Nonlinearity correction enabled: false
Boxcar width: 0
XAxis mode: Wavelengths
Number of Pixels in Spectrum: 3648
>>>>>Begin Spectral Data<<<<<
178.204	-67.41
178.424	-67.41
178.644	-67.41
178.864	-112.47
179.084	-145.24
179.304	-44.88
179.524	-12.12
179.744	-22.36
179.964	-1.88
180.184	61.61
180.404	37.03
180.624	-22.36
180.844	-18.26
181.064	-22.36
181.283	22.7
181.503	6.31
181.723	16.55
181.943	-14.17
182.163	20.65
182.383	37.03
182.602	75.95
182.822	-10.07
183.042	121
183.262	49.32
183.482	67.75
183.701	26.79
183.921	53.42
184.141	-14.17
184.361	26.79
184.58	18.6
184.8	69.8
185.02	-14.17
185.239	141.48
185.459	24.75
185.679	26.79
185.898	-46.93
186.118	59.56
186.338	61.61
186.557	116.9
186.777	-38.74
186.997	22.7
187.216	30.89
187.436	116.9
187.655	55.47
187.875	2.22
188.095	43.18
188.314	30.89
188.534	-5.97
188.753	39.08
188.973	43.18
189.192	51.37
189.412	18.6
189.631	125.1
189.851	18.6
190.07	96.43
190.29	12.46
190.509	45.23
190.729	45.23
190.948	43.18
191.168	123.05
191.387	125.1
191.607	26.79
191.826	43.18
192.045	110.76
192.265	51.37
192.484	12.46
192.704	77.99
192.923	51.37
193.142	86.19
193.362	61.61
193.581	61.61
193.8	92.33
194.02	51.37
194.239	90.28
194.458	102.57
194.678	-22.36
194.897	51.37
195.116	59.56
195.335	6.31
195.555	100.52
195.774	12.46
195.993	18.6
196.212	67.75
196.432	-20.31
196.651	28.84
196.87	63.66
197.089	55.47
197.308	2.22
197.528	61.61
197.747	2.22
197.966	10.41
198.185	80.04
198.404	2.22
198.623	80.04
198.842	71.85
199.062	43.18
199.281	14.51
199.5	-26.45
199.719	141.48
199.938	118.95
200.157	43.18
200.376	67.75
200.595	63.66
200.814	75.95
201.033	-20.31
201.252	47.27
201.471	47.27
201.69	51.37
201.909	77.99
202.128	43.18
202.347	4.27
202.566	-51.03
202.785	84.14
203.004	45.23
203.223	98.47
203.442	-10.07
203.661	34.99
203.879	80.04
204.098	151.72
204.317	-22.36
204.536	51.37
204.755	-3.93
204.974	108.71
205.193	-44.88
205.411	118.95
205.63	57.51
205.849	28.84
206.068	39.08
206.287	43.18
206.505	71.85
206.724	47.27
206.943	53.42
207.162	18.6
207.381	6.31
207.599	67.75
207.818	86.19
208.037	-18.26
208.255	12.46
208.474	100.52
208.693	96.43
208.911	67.75
209.13	61.61
209.349	96.43
209.567	-5.97
209.786	69.8
210.005	45.23
210.223	34.99
210.442	41.13
210.661	96.43
210.879	55.47
211.098	20.65
211.316	39.08
211.535	61.61
211.753	39.08
211.972	10.41
212.191	-16.21
212.409	102.57
212.628	51.37
212.846	34.99
213.065	4.27
213.283	121
213.502	-5.97
213.72	28.84
213.938	37.03
214.157	69.8
214.375	32.94
214.594	-10.07
214.812	-20.31
215.031	-20.31
215.249	16.55
215.467	116.9
215.686	32.94
215.904	77.99
216.122	24.75
216.341	116.9
216.559	20.65
216.778	51.37
216.996	39.08
217.214	2.22
217.432	26.79
217.651	22.7
217.869	47.27
218.087	10.41
218.306	116.9
218.524	108.71
218.742	20.65
218.96	67.75
219.179	2.22
219.397	53.42
219.615	47.27
219.833	28.84
220.051	108.71
220.27	100.52
220.488	75.95
220.706	178.34
220.924	32.94
221.142	4.27
221.36	10.41
221.578	84.14
221.796	12.46
222.015	61.61
222.233	53.42
222.451	59.56
222.669	51.37
222.887	94.38
223.105	-38.74
223.323	127.14
223.541	14.51
223.759	77.99
223.977	-16.21
224.195	32.94
224.413	71.85
224.631	8.36
224.849	51.37
225.067	94.38
225.285	22.7
225.503	59.56
225.721	-3.93
225.939	-14.17
226.157	84.14
226.375	100.52
226.592	-24.4
226.81	-30.55
227.028	100.52
227.246	114.86
227.464	90.28
227.682	67.75
227.9	20.65
228.117	80.04
228.335	39.08
228.553	-3.93
228.771	43.18
228.989	125.1
229.206	86.19
229.424	-53.08
229.642	14.51
229.86	-22.36
230.077	96.43
230.295	32.94
230.513	22.7
230.731	61.61
230.948	34.99
231.166	67.75
231.384	39.08
231.601	-46.93
231.819	127.14
232.037	67.75
232.254	-61.27
232.472	67.75
232.689	-30.55
232.907	-59.22
233.125	34.99
233.342	20.65
233.56	28.84
233.777	-3.93
233.995	37.03
234.213	86.19
234.43	26.79
234.648	10.41
234.865	-18.26
235.083	84.14
235.3	-3.93
235.518	32.94
235.735	116.9
235.953	37.03
236.17	67.75
236.388	127.14
236.605	59.56
236.822	77.99
237.04	30.89
237.257	43.18
237.475	92.33
237.692	75.95
237.909	6.31
238.127	10.41
238.344	34.99
238.562	67.75
238.779	34.99
238.996	37.03
239.214	75.95
239.431	-38.74
239.648	-34.64
239.865	22.7
240.083	30.89
240.3	39.08
240.517	26.79
240.735	34.99
240.952	77.99
241.169	69.8
241.386	10.41
241.603	43.18
241.821	47.27
242.038	53.42
242.255	53.42
242.472	-57.17
242.689	6.31
242.907	12.46
243.124	55.47
243.341	-38.74
243.558	24.75
243.775	22.7
243.992	30.89
244.209	84.14
244.426	65.71
244.643	77.99
244.86	55.47
245.078	18.6
245.295	96.43
245.512	114.86
245.729	-3.93
245.946	10.41
246.163	69.8
246.38	75.95
246.597	30.89
246.814	18.6
247.031	39.08
247.248	-20.31
247.464	71.85
247.681	20.65
247.898	39.08
248.115	67.75
248.332	28.84
248.549	4.27
248.766	112.81
248.983	26.79
249.2	6.31
249.417	12.46
249.633	12.46
249.85	45.23
250.067	67.75
250.284	30.89
250.501	67.75
250.717	45.23
250.934	-22.36
251.151	100.52
251.368	37.03
251.585	22.7
251.801	82.09
252.018	43.18
252.235	28.84
252.451	4.27
252.668	14.51
252.885	53.42
253.102	75.95
253.318	51.37
253.535	8.36
253.752	-40.79
253.968	73.9
254.185	34.99
254.401	6.31
254.618	51.37
254.835	43.18
255.051	102.57
255.268	39.08
255.484	75.95
255.701	34.99
255.917	18.6
256.134	-26.45
256.351	43.18
256.567	92.33
256.784	65.71
257	-3.93
257.217	37.03
257.433	-14.17
257.65	61.61
257.866	67.75
258.082	59.56
258.299	-38.74
258.515	94.38
258.732	75.95
258.948	45.23
259.165	100.52
259.381	20.65
259.597	67.75
259.814	-30.55
260.03	14.51
260.246	51.37
260.463	45.23
260.679	59.56
260.895	30.89
261.112	26.79
261.328	43.18
261.544	77.99
261.761	116.9
261.977	125.1
262.193	32.94
262.409	110.76
262.626	32.94
262.842	47.27
263.058	-14.17
263.274	43.18
263.49	-38.74
263.707	84.14
263.923	12.46
264.139	61.61
264.355	6.31
264.571	59.56
264.787	100.52
265.004	61.61
265.22	84.14
265.436	2.22
265.652	-30.55
265.868	22.7
266.084	65.71
266.3	26.79
266.516	53.42
266.732	118.95
266.948	55.47
267.164	51.37
267.38	77.99
267.596	59.56
267.812	43.18
268.028	63.66
268.244	18.6
268.46	51.37
268.676	37.03
268.892	-42.84
269.108	86.19
269.324	20.65
269.54	121
269.756	90.28
269.972	28.84
270.188	75.95
270.403	0.17
270.619	-14.17
270.835	45.23
271.051	26.79
271.267	-24.4
271.483	32.94
271.698	47.27
271.914	24.75
272.13	8.36
272.346	12.46
272.562	-3.93
272.777	61.61
272.993	14.51
273.209	125.1
273.425	65.71
273.64	49.32
273.856	61.61
274.072	67.75
274.287	26.79
274.503	104.62
274.719	77.99
274.934	-34.64
275.15	37.03
275.366	18.6
275.581	-26.45
275.797	43.18
276.012	10.41
276.228	-12.12
276.444	47.27
276.659	104.62
276.875	32.94
277.09	34.99
277.306	106.67
277.521	51.37
277.737	-10.07
277.952	43.18
278.168	104.62
278.383	41.13
278.599	-8.02
278.814	71.85
279.03	80.04
279.245	75.95
279.461	10.41
279.676	53.42
279.892	8.36
280.107	43.18
280.322	26.79
280.538	43.18
280.753	53.42
280.969	61.61
281.184	34.99
281.399	26.79
281.615	34.99
281.83	39.08
282.045	10.41
282.26	51.37
282.476	2.22
282.691	28.84
282.906	53.42
283.122	4.27
283.337	55.47
283.552	51.37
283.767	39.08
283.983	67.75
284.198	0.17
284.413	51.37
284.628	12.46
284.843	-12.12
285.058	86.19
285.274	116.9
285.489	-42.84
285.704	75.95
285.919	43.18
286.134	116.9
286.349	4.27
286.564	20.65
286.779	39.08
286.995	-3.93
287.21	-20.31
287.425	43.18
287.64	75.95
287.855	94.38
288.07	30.89
288.285	10.41
288.5	145.58
288.715	53.42
288.93	67.75
289.145	-73.56
289.36	43.18
289.575	18.6
289.79	61.61
290.004	34.99
290.219	2.22
290.434	10.41
290.649	-18.26
290.864	-12.12
291.079	57.51
291.294	135.34
291.509	59.56
291.724	59.56
291.938	-5.97
292.153	75.95
292.368	86.19
292.583	12.46
292.798	34.99
293.012	37.03
293.227	67.75
293.442	51.37
293.657	108.71
293.871	125.1
294.086	26.79
294.301	143.53
294.516	10.41
294.73	61.61
294.945	49.32
295.16	100.52
295.374	88.23
295.589	24.75
295.804	37.03
296.018	102.57
296.233	80.04
296.447	67.75
296.662	43.18
296.877	53.42
297.091	75.95
297.306	18.6
297.52	10.41
297.735	88.23
297.949	77.99
298.164	77.99
298.378	32.94
298.593	12.46
298.807	55.47
299.022	98.47
299.236	51.37
299.451	71.85
299.665	100.52
299.88	30.89
300.094	108.71
300.309	-5.97
300.523	-1.88
300.737	0.17
300.952	49.32
301.166	80.04
301.381	14.51
301.595	10.41
301.809	133.29
302.024	53.42
302.238	10.41
302.452	110.76
302.667	45.23
302.881	82.09
303.095	55.47
303.309	16.55
303.524	39.08
303.738	4.27
303.952	34.99
304.166	59.56
304.381	37.03
304.595	129.19
304.809	55.47
305.023	69.8
305.237	77.99
305.452	2.22
305.666	67.75
305.88	20.65
306.094	59.56
306.308	34.99
306.522	67.75
306.736	51.37
306.95	20.65
307.164	67.75
307.379	39.08
307.593	110.76
307.807	51.37
308.021	100.52
308.235	26.79
308.449	6.31
308.663	24.75
308.877	133.29
309.091	10.41
309.305	51.37
309.519	55.47
309.733	18.6
309.947	-5.97
310.161	37.03
310.374	82.09
310.588	100.52
310.802	20.65
311.016	63.66
311.23	-14.17
311.444	-55.12
311.658	37.03
311.872	26.79
312.085	104.62
312.299	100.52
312.513	28.84
312.727	125.1
312.941	37.03
313.154	45.23
313.368	26.79
313.582	57.51
313.796	2.22
314.009	43.18
314.223	59.56
314.437	-22.36
314.651	28.84
314.864	51.37
315.078	26.79
315.292	4.27
315.505	34.99
315.719	34.99
315.933	57.51
316.146	80.04
316.36	12.46
316.573	121
316.787	77.99
317.001	94.38
317.214	-12.12
317.428	67.75
317.641	14.51
317.855	43.18
318.068	51.37
318.282	92.33
318.495	39.08
318.709	77.99
318.922	34.99
319.136	92.33
319.349	10.41
319.563	49.32
319.776	67.75
319.99	18.6
320.203	84.14
320.417	47.27
320.63	-14.17
320.843	123.05
321.057	-10.07
321.27	112.81
321.483	41.13
321.697	131.24
321.91	45.23
322.124	34.99
322.337	43.18
322.55	10.41
322.763	82.09
322.977	71.85
323.19	92.33
323.403	45.23
323.617	34.99
323.83	65.71
324.043	51.37
324.256	18.6
324.469	18.6
324.683	41.13
324.896	96.43
325.109	18.6
325.322	-14.17
325.535	37.03
325.748	53.42
325.962	67.75
326.175	73.9
326.388	80.04
326.601	39.08
326.814	43.18
327.027	4.27
327.24	118.95
327.453	-18.26
327.666	-1.88
327.879	69.8
328.092	121
328.305	34.99
328.518	84.14
328.731	-26.45
328.944	-14.17
329.157	43.18
329.37	92.33
329.583	102.57
329.796	77.99
330.009	-5.97
330.222	67.75
330.435	6.31
330.648	26.79
330.861	47.27
331.073	59.56
331.286	100.52
331.499	67.75
331.712	-10.07
331.925	28.84
332.138	63.66
332.35	84.14
332.563	75.95
332.776	112.81
332.989	22.7
333.202	-26.45
333.414	-3.93
333.627	26.79
333.84	53.42
334.053	59.56
334.265	-30.55
334.478	69.8
334.691	18.6
334.903	-22.36
335.116	43.18
335.329	59.56
335.541	67.75
335.754	20.65
335.966	16.55
336.179	69.8
336.392	12.46
336.604	41.13
336.817	-1.88
337.029	110.76
337.242	47.27
337.454	69.8
337.667	59.56
337.88	147.62
338.092	77.99
338.305	108.71
338.517	16.55
338.729	92.33
338.942	106.67
339.154	30.89
339.367	-22.36
339.579	61.61
339.792	22.7
340.004	96.43
340.217	80.04
340.429	57.51
340.641	18.6
340.854	39.08
341.066	-36.69
341.278	96.43
341.491	125.1
341.703	94.38
341.915	-55.12
342.128	112.81
342.34	88.23
342.552	61.61
342.764	37.03
342.977	37.03
343.189	75.95
343.401	37.03
343.613	10.41
343.826	-1.88
344.038	108.71
344.25	59.56
344.462	63.66
344.674	18.6
344.886	61.61
345.099	71.85
345.311	24.75
345.523	20.65
345.735	12.46
345.947	77.99
346.159	53.42
346.371	100.52
346.583	30.89
346.795	121
347.007	43.18
347.219	22.7
347.431	39.08
347.643	55.47
347.855	73.9
348.067	90.28
348.279	-26.45
348.491	45.23
348.703	45.23
348.915	77.99
349.127	39.08
349.339	-8.02
349.551	47.27
349.763	86.19
349.975	133.29
350.187	121
350.399	94.38
350.61	59.56
350.822	-36.69
351.034	47.27
351.246	26.79
351.458	55.47
351.669	-12.12
351.881	77.99
352.093	92.33
352.305	106.67
352.517	84.14
352.728	94.38
352.94	65.71
353.152	71.85
353.363	34.99
353.575	112.81
353.787	30.89
353.999	-3.93
354.21	102.57
354.422	34.99
354.633	-1.88
354.845	80.04
355.057	34.99
355.268	59.56
355.48	34.99
355.692	77.99
355.903	2.22
356.115	77.99
356.326	10.41
356.538	135.34
356.749	-3.93
356.961	118.95
357.172	80.04
357.384	86.19
357.595	59.56
357.807	86.19
358.018	18.6
358.23	61.61
358.441	118.95
358.653	102.57
358.864	49.32
359.075	2.22
359.287	12.46
359.498	127.14
359.709	112.81
359.921	127.14
360.132	65.71
360.344	53.42
360.555	86.19
360.766	34.99
360.977	43.18
361.189	92.33
361.4	10.41
361.611	28.84
361.823	34.99
362.034	34.99
362.245	-5.97
362.456	-5.97
362.667	-16.21
362.879	88.23
363.09	104.62
363.301	77.99
363.512	45.23
363.723	37.03
363.935	37.03
364.146	100.52
364.357	28.84
364.568	61.61
364.779	84.14
364.99	104.62
365.201	82.09
365.412	90.28
365.623	-30.55
365.834	121
366.045	24.75
366.256	28.84
366.467	45.23
366.678	32.94
366.889	4.27
367.1	80.04
367.311	59.56
367.522	-3.93
367.733	86.19
367.944	166.06
368.155	67.75
368.366	51.37
368.577	55.47
368.788	88.23
368.999	16.55
369.209	26.79
369.42	143.53
369.631	123.05
369.842	110.76
370.053	-10.07
370.264	51.37
370.474	16.55
370.685	98.47
370.896	-5.97
371.107	77.99
371.317	69.8
371.528	45.23
371.739	96.43
371.95	67.75
372.16	114.86
372.371	10.41
372.582	69.8
372.792	94.38
373.003	80.04
373.214	59.56
373.424	84.14
373.635	102.57
373.846	90.28
374.056	75.95
374.267	43.18
374.477	104.62
374.688	92.33
374.898	86.19
375.109	57.51
375.319	45.23
375.53	57.51
375.74	26.79
375.951	34.99
376.161	28.84
376.372	59.56
376.582	100.52
376.793	118.95
377.003	10.41
377.214	2.22
377.424	28.84
377.635	63.66
377.845	-12.12
378.055	133.29
378.266	20.65
378.476	61.61
378.686	12.46
378.897	47.27
379.107	65.71
379.317	100.52
379.528	18.6
379.738	69.8
379.948	26.79
380.158	63.66
380.369	-28.5
380.579	47.27
380.789	4.27
380.999	94.38
381.21	84.14
381.42	141.48
381.63	57.51
381.84	133.29
382.05	75.95
382.261	125.1
382.471	39.08
382.681	51.37
382.891	141.48
383.101	30.89
383.311	67.75
383.521	86.19
383.731	12.46
383.941	37.03
384.151	116.9
384.361	159.91
384.571	94.38
384.781	141.48
384.991	104.62
385.201	63.66
385.411	141.48
385.621	92.33
385.831	34.99
386.041	59.56
386.251	59.56
386.461	143.53
386.671	57.51
386.881	26.79
387.091	43.18
387.301	123.05
387.511	69.8
387.72	102.57
387.93	92.33
388.14	4.27
388.35	57.51
388.56	112.81
388.769	168.1
388.979	92.33
389.189	69.8
389.399	108.71
389.609	59.56
389.818	63.66
390.028	75.95
390.238	96.43
390.447	61.61
390.657	67.75
390.867	75.95
391.076	73.9
391.286	135.34
391.496	69.8
391.705	-10.07
391.915	92.33
392.125	55.47
392.334	10.41
392.544	121
392.753	18.6
392.963	47.27
393.172	61.61
393.382	102.57
393.591	123.05
393.801	116.9
394.01	184.49
394.22	61.61
394.429	73.9
394.639	100.52
394.848	34.99
395.058	67.75
395.267	75.95
395.477	75.95
395.686	51.37
395.895	149.67
396.105	127.14
396.314	77.99
396.524	125.1
396.733	116.9
396.942	61.61
397.152	82.09
397.361	168.1
397.57	92.33
397.78	84.14
397.989	98.47
398.198	112.81
398.407	102.57
398.617	53.42
398.826	116.9
399.035	67.75
399.244	121
399.453	137.38
399.663	61.61
399.872	18.6
400.081	67.75
400.29	116.9
400.499	125.1
400.708	190.63
400.917	143.53
401.127	75.95
401.336	75.95
401.545	106.67
401.754	250.02
401.963	141.48
402.172	98.47
402.381	10.41
402.59	96.43
402.799	182.44
403.008	55.47
403.217	192.68
403.426	129.19
403.635	73.9
403.844	118.95
404.053	145.58
404.262	121
404.471	178.34
404.68	149.67
404.888	116.9
405.097	133.29
405.306	125.1
405.515	215.21
405.724	139.43
405.933	192.68
406.142	231.59
406.35	202.92
406.559	135.34
406.768	145.58
406.977	194.73
407.185	133.29
407.394	211.11
407.603	192.68
407.812	301.22
408.02	202.92
408.229	168.1
408.438	231.59
408.646	252.07
408.855	213.16
409.064	211.11
409.272	274.6
409.481	272.55
409.69	237.74
409.898	321.7
410.107	295.08
410.315	323.75
410.524	329.89
410.733	342.18
410.941	329.89
411.15	387.24
411.358	426.15
411.567	413.86
411.775	399.52
411.984	383.14
412.192	350.37
412.401	499.88
412.609	454.82
412.818	448.68
413.026	471.2
413.234	362.66
413.443	444.58
413.651	413.86
413.86	493.73
414.068	583.84
414.276	540.83
414.485	544.93
414.693	649.38
414.901	653.47
415.11	559.27
415.318	657.57
415.526	641.18
415.734	790.69
415.943	790.69
416.151	757.92
416.359	745.63
416.567	739.49
416.776	843.93
416.984	839.84
417.192	929.95
417.4	862.37
417.608	872.61
417.817	987.29
418.025	995.48
418.233	1075.35
418.441	1013.92
418.649	1165.46
418.857	1165.46
419.065	1218.71
419.273	1185.94
419.481	1302.68
419.689	1370.26
419.897	1347.73
420.105	1349.78
420.313	1353.88
420.521	1564.82
420.729	1542.29
420.937	1536.15
421.145	1622.16
421.353	1656.98
421.561	1738.9
421.769	1710.22
421.977	1841.29
422.185	1841.29
422.393	2027.66
422.601	1964.17
422.809	2062.48
423.017	2105.48
423.224	2164.87
423.432	2279.56
423.64	2287.75
423.848	2613.38
424.056	2427.01
424.263	2601.09
424.471	2525.32
424.679	2633.86
424.887	2738.3
425.094	2824.32
425.302	2943.1
425.51	2979.97
425.718	3106.94
425.925	3053.69
426.133	3231.87
426.341	3256.44
426.548	3410.04
426.756	3428.47
426.964	3557.49
427.171	3852.4
427.379	4016.24
427.586	3924.08
427.794	4108.4
428.001	4223.08
428.209	4495.46
428.417	4399.21
428.624	4640.87
428.832	4651.11
429.039	4671.59
429.247	4628.58
429.454	5206.11
429.662	5363.8
429.869	5036.13
430.076	5419.1
430.284	5251.16
430.491	5517.4
430.699	5777.49
430.906	5744.72
431.114	6051.92
431.321	6043.73
431.528	6205.52
431.736	6596.68
431.943	6936.64
432.15	6844.48
432.358	6787.14
432.565	7235.64
432.772	7194.68
432.979	7702.58
433.187	7684.15
433.394	7403.58
433.601	8241.2
433.808	8286.25
434.016	8212.53
434.223	8587.3
434.43	9099.3
434.637	8853.54
434.844	9439.26
435.052	9639.96
435.259	9515.03
435.466	9621.53
435.673	9560.09
435.88	9988.11
436.087	10592.27
436.294	10668.04
436.501	10410
436.708	10522.63
436.915	11143.17
437.122	11286.53
437.329	11472.89
437.537	11837.43
437.743	11835.38
437.95	11784.18
438.157	12474.35
438.364	12908.52
438.571	12896.23
438.778	12820.46
438.985	14022.61
439.192	13518.81
439.399	13871.06
439.606	13592.54
439.813	14385.1
440.02	15267.78
440.227	14913.48
440.433	14899.14
440.64	15613.88
440.847	15067.08
441.054	15742.91
441.261	16713.64
441.467	16320.43
441.674	16732.08
441.881	17403.81
442.088	17217.44
442.294	16959.4
442.501	17637.28
442.708	18177.94
442.914	18673.55
443.121	19206.02
443.328	19046.28
443.534	20350.84
443.741	19806.08
443.948	19500.93
444.154	20694.89
444.361	20641.65
444.568	20850.54
444.774	21020.52
444.981	21147.5
445.187	21813.09
445.394	22781.78
445.6	22421.33
445.807	24588.08
446.013	23261
446.22	23961.41
446.426	24756.02
446.633	24778.54
446.839	25790.24
447.046	24618.8
447.252	26404.63
447.459	26056.48
447.665	25974.56
447.871	27582.21
448.078	28413.69
448.284	26908.43
448.491	28059.39
448.697	28919.54
448.903	29007.6
449.11	29591.27
449.316	28804.85
449.522	29748.96
449.728	30467.8
449.935	30330.59
450.141	30320.35
450.347	31344.33
450.553	30367.45
450.76	30887.64
450.966	31971.01
451.172	31149.78
451.378	32460.48
451.584	31631.05
451.791	32380.6
451.997	32222.91
452.203	32507.58
452.409	32745.14
452.615	32556.73
452.821	31538.89
453.027	30940.88
453.233	32509.63
453.44	31432.4
453.646	31762.12
453.852	32298.69
454.058	32456.38
454.264	31499.98
454.47	32566.97
454.676	31559.37
454.882	32595.64
455.088	29527.78
455.294	30377.69
455.5	30883.54
455.705	31162.06
455.911	29505.26
456.117	29187.82
456.323	28706.55
456.529	27354.89
456.735	28346.11
456.941	27891.46
457.147	27545.35
457.352	26371.86
457.558	26607.38
457.764	26429.21
457.97	25769.76
458.176	25147.18
458.381	25550.63
458.587	24139.58
458.793	24145.72
458.999	22880.08
459.204	24266.55
459.41	24059.71
459.616	22198.1
459.821	22396.76
460.027	22253.4
460.233	21821.28
460.438	20854.64
460.644	20975.47
460.85	19857.28
461.055	19533.7
461.261	19523.46
461.466	17997.72
461.672	17692.57
461.878	18802.57
462.083	17643.42
462.289	17446.82
462.494	17166.24
462.7	16142.26
462.905	16048.05
463.111	16426.93
463.316	16654.25
463.522	16070.58
463.727	16097.21
463.932	16514.99
464.138	16172.98
464.343	16011.19
464.549	15861.69
464.754	16017.33
464.959	16115.64
465.165	15814.59
465.37	15370.18
465.575	14725.07
465.781	15468.48
465.986	15361.98
466.191	14829.51
466.397	14440.4
466.602	13893.59
466.807	14317.52
467.012	14522.32
467.218	14276.56
467.423	14241.75
467.628	14288.85
467.833	14886.86
468.038	14260.18
468.244	14036.95
468.449	14301.14
468.654	14149.59
468.859	13846.49
469.064	13826.01
469.269	13201.38
469.474	13346.78
469.679	13795.29
469.885	13209.57
470.09	13621.21
470.295	13268.96
470.5	13117.41
470.705	13094.88
470.91	12716.01
471.115	12777.45
471.32	12912.61
471.525	12767.21
471.73	12707.82
471.935	12396.53
472.139	12214.26
472.344	12050.42
472.549	12189.68
472.754	11814.9
472.959	11603.96
473.164	11384.83
473.369	11354.11
473.574	11732.98
473.778	11591.67
473.983	11577.34
474.188	11552.76
474.393	10768.39
474.598	11081.73
474.802	10899.46
475.007	10774.53
475.212	10913.8
475.417	10510.35
475.621	10512.39
475.826	10516.49
476.031	10401.8
476.235	10123.28
476.44	10254.35
476.645	9918.48
476.849	10063.89
477.054	9941.01
477.259	9799.7
477.463	9879.57
477.668	9547.8
477.872	9695.25
478.077	9400.35
478.282	9238.56
478.486	9078.82
478.691	9125.92
478.895	9312.28
479.1	8976.42
479.304	9007.14
479.509	8554.54
479.713	8914.98
479.918	8792.1
480.122	8714.28
480.326	8699.94
480.531	8712.23
480.735	8783.91
480.94	8710.18
481.144	8874.02
481.348	8491.05
481.553	8341.55
481.757	8456.23
481.961	8376.36
482.166	8568.87
482.37	8423.47
482.574	8337.45
482.778	8253.48
482.983	8579.11
483.187	8427.56
483.391	8409.13
483.595	8337.45
483.8	8349.74
484.004	8409.13
484.208	8392.75
484.412	8456.23
484.616	8673.32
484.821	8435.75
485.025	8308.78
485.229	8489
485.433	8374.31
485.637	8443.95
485.841	8353.84
486.045	8308.78
486.249	8501.29
486.453	8245.29
486.657	8382.51
486.861	8484.91
487.065	8333.36
487.269	8255.53
487.473	8341.55
487.677	8384.55
487.881	8355.88
488.085	8439.85
488.289	8540.2
488.493	8489
488.697	8427.56
488.901	8304.68
489.105	8278.06
489.309	8503.34
489.512	8548.39
489.716	8499.24
489.92	8542.25
490.124	8235.05
490.328	8704.04
490.531	8648.74
490.735	8695.85
490.939	8548.39
491.143	8546.34
491.346	8460.33
491.55	8669.22
491.754	8656.93
491.958	8857.64
492.161	8648.74
492.365	8890.4
492.569	8745
492.772	8917.03
492.976	9078.82
493.18	8957.99
493.383	9168.93
493.587	9082.91
493.79	9074.72
493.994	8974.37
494.197	9402.4
494.401	9396.25
494.605	9267.23
494.808	9416.73
495.012	9424.92
495.215	9711.64
495.419	9607.19
495.622	9539.61
495.825	9506.84
496.029	9758.74
496.232	9826.32
496.436	9859.09
496.639	10086.42
496.843	10106.9
497.046	10334.22
497.249	10285.07
497.453	10311.69
497.656	10344.46
497.859	10532.87
498.063	10655.75
498.266	10825.73
498.469	10930.18
498.673	11083.78
498.876	11030.53
499.079	11180.03
499.282	11374.59
499.485	11550.71
499.689	11368.45
499.892	11511.8
500.095	11458.56
500.298	12007.41
500.501	11884.53
500.705	12232.69
500.908	12165.11
501.111	12251.12
501.314	12668.91
501.517	12744.68
501.72	12699.62
501.923	12795.88
502.126	13029.35
502.329	13334.5
502.532	13400.03
502.735	13596.64
502.938	13692.89
503.141	13817.82
503.344	13977.56
503.547	13924.31
503.75	14110.68
503.953	14491.6
504.156	14630.86
504.359	14806.98
504.562	14845.9
504.765	15275.97
504.968	15108.04
505.17	15429.57
505.373	15488.96
505.576	15730.62
505.779	15849.4
505.982	16193.46
506.185	16240.56
506.387	16230.32
506.59	16375.73
506.793	16730.03
506.996	16869.29
507.198	17131.43
507.401	17098.66
507.604	17174.44
507.807	17516.45
508.009	17799.07
508.212	18007.96
508.415	18147.22
508.617	18261.91
508.82	18173.85
509.022	18368.4
509.225	18739.08
509.428	18667.41
509.63	18904.97
509.833	19298.18
510.035	19529.6
510.238	19378.05
510.44	19683.2
510.643	20207.48
510.845	20281.21
511.048	20242.29
511.25	20572.02
511.453	20424.56
511.655	21239.65
511.858	21041
512.06	21118.82
512.262	21522.27
512.465	21667.68
512.667	21976.92
512.87	22531.92
513.072	22245.21
513.274	22589.27
513.477	23021.39
513.679	22796.11
513.881	23355.21
514.084	23246.66
514.286	23355.21
514.488	23699.27
514.69	24416.05
514.893	24428.34
515.095	24221.5
515.297	24586.04
515.499	25085.74
515.701	25235.24
515.904	25272.11
516.106	25556.77
516.308	25765.67
516.51	25952.03
516.712	26193.69
516.914	26320.67
517.116	26578.71
517.318	26851.09
517.52	27041.55
517.722	27080.46
517.925	27522.82
518.127	27895.55
518.329	27952.9
518.531	27854.59
518.733	28454.65
518.935	28804.85
519.136	28542.71
519.338	29148.91
519.54	28989.17
519.742	29365.99
519.944	29630.18
520.146	30340.83
520.348	30017.25
520.55	30312.16
520.752	30650.07
520.954	31045.33
521.155	31045.33
521.357	31166.16
521.559	31542.99
521.761	31645.38
521.963	31987.39
522.164	32077.51
522.366	31841.99
522.568	32765.62
522.77	32661.18
522.971	33273.52
523.173	32769.72
523.375	33156.78
523.576	33449.64
523.778	33281.71
523.98	33676.97
524.181	33728.17
524.383	34078.37
524.584	34629.27
524.786	34557.6
524.988	34164.39
525.189	34686.62
525.391	34846.36
525.592	35321.49
525.794	35174.03
525.995	35047.06
526.197	35296.91
526.398	35321.49
526.6	35679.88
526.801	35835.53
527.003	35712.65
527.204	36296.32
527.406	36011.65
527.607	36060.8
527.808	36619.9
528.01	35710.6
528.211	36232.83
528.412	37125.75
528.614	36978.29
528.815	36656.76
529.016	37461.62
529.218	36871.8
529.419	37039.73
529.62	37240.43
529.822	36849.27
530.023	37379.7
530.224	36984.44
530.425	37439.09
530.626	37174.9
530.828	36966.01
531.029	37770.86
531.23	37183.09
531.431	37113.46
531.632	37502.57
531.833	37820.01
532.035	37666.41
532.236	37766.76
532.437	38141.54
532.638	37387.89
532.839	38067.81
533.04	37758.57
533.241	37875.3
533.442	38418.02
533.643	37844.59
533.844	38084.2
534.045	38135.4
534.246	37799.53
534.447	38377.06
534.648	37987.94
534.849	38008.42
535.05	37793.39
535.251	37891.69
535.451	38067.81
535.652	38215.27
535.853	37666.41
536.054	37953.13
536.255	38065.77
536.456	37752.43
536.657	38346.34
536.857	38270.56
537.058	37643.88
537.259	37983.85
537.46	38534.75
537.66	37920.36
537.861	38282.85
538.062	37865.06
538.263	37889.64
538.463	38188.64
538.664	38014.57
538.865	38194.79
539.065	37774.95
539.266	37404.27
539.466	38215.27
539.667	37572.21
539.868	38006.37
540.068	37809.77
540.269	37811.82
540.469	38043.24
540.67	37924.46
540.87	37957.22
541.071	37836.39
541.271	37934.7
541.472	38286.95
541.672	37936.74
541.873	37701.23
542.073	37615.21
542.274	38239.84
542.474	37809.77
542.675	37439.09
542.875	38063.72
543.075	37666.41
543.276	37514.86
543.476	37863.02
543.676	37523.05
543.877	38018.66
544.077	38057.57
544.277	37762.67
544.478	37740.14
544.678	37686.89
544.878	37557.87
545.078	37746.28
545.279	37699.18
545.479	37635.69
545.679	37641.84
545.879	37566.06
546.079	37527.15
546.28	37643.88
546.48	37369.46
546.68	37529.2
546.88	37664.36
547.08	37748.33
547.28	37191.28
547.48	37183.09
547.68	37471.85
547.88	37381.74
548.081	37963.37
548.281	37629.55
548.481	37473.9
548.681	37713.52
548.881	37688.94
549.081	37326.45
549.28	37254.77
549.48	37547.63
549.68	37328.5
549.88	37815.91
550.08	37336.69
550.28	37314.16
550.48	37269.11
550.68	37426.8
550.88	37326.45
551.08	37273.2
551.279	37293.68
551.479	37047.93
551.679	37314.16
551.879	37301.87
552.079	37297.78
552.278	37099.12
552.478	36847.22
552.678	36920.95
552.878	37453.42
553.077	36912.76
553.277	36560.51
553.477	37344.88
553.676	37246.58
553.876	37097.08
554.076	37017.21
554.275	37328.5
554.475	36662.91
554.674	37275.25
554.874	36910.71
555.074	36908.66
555.273	37004.92
555.473	37088.88
555.672	37152.37
555.872	36523.65
556.071	36957.81
556.271	36783.74
556.47	36466.3
556.67	36488.83
556.869	36236.93
557.068	36755.07
557.268	36298.37
557.467	36699.77
557.667	36550.27
557.866	36679.29
558.065	36290.18
558.265	36224.64
558.464	36159.11
558.663	36626.04
558.863	36021.89
559.062	36226.69
559.261	35913.35
559.461	36284.03
559.66	35882.63
559.859	35950.21
560.058	35774.09
560.258	36234.88
560.457	35362.45
560.656	36208.26
560.855	35514
561.054	35604.11
561.253	35358.35
561.453	35927.69
561.652	35823.24
561.851	35589.77
562.05	35315.34
562.249	35051.16
562.448	35724.94
562.647	34846.36
562.846	35085.97
563.045	35231.38
563.244	34983.57
563.443	35516.04
563.642	34326.17
563.841	35145.36
564.04	34623.13
564.239	35190.42
564.438	34627.23
564.637	34754.2
564.836	34590.36
565.035	34270.88
565.234	34467.48
565.432	34272.93
565.631	34172.58
565.83	34512.54
566.029	34088.61
566.228	33904.29
566.427	34508.44
566.625	33726.12
566.824	33855.14
567.023	34281.12
567.222	33705.64
567.42	33973.92
567.619	33679.02
567.818	33738.41
568.016	33887.91
568.215	33578.67
568.414	33502.89
568.612	33746.6
568.811	33480.36
569.01	33343.15
569.208	32722.62
569.407	33433.26
569.605	32583.35
569.804	33296.05
570.002	32919.22
570.201	33142.45
570.4	32624.31
570.598	32462.52
570.797	32587.45
570.995	32591.55
571.193	32366.27
571.392	32560.83
571.59	32253.63
571.789	32489.15
571.987	32184
572.186	31878.85
572.384	32085.7
572.582	32349.89
572.781	32147.14
572.979	31356.62
573.177	31690.44
573.376	31858.37
573.574	31733.45
573.772	31602.38
573.971	31086.29
574.169	31059.66
574.367	31174.35
574.565	31309.52
574.763	31534.79
574.962	31262.41
575.16	30715.61
575.358	31088.34
575.556	30715.61
575.754	31344.33
575.952	30480.09
576.151	30877.4
576.349	30318.3
576.547	30506.71
576.745	30549.72
576.943	30672.6
577.141	30893.78
577.339	30674.65
577.537	30187.23
577.735	30035.68
577.933	30025.44
578.131	30162.65
578.329	30007.01
578.527	29566.7
578.725	29789.92
578.923	29814.5
579.121	29581.03
579.319	29646.57
579.516	29906.66
579.714	29433.58
579.912	29263.6
580.11	29191.92
580.308	29359.85
580.506	29220.59
580.704	28845.81
580.901	29228.78
581.099	29007.6
581.297	28796.66
581.495	28819.19
581.692	28780.28
581.89	28651.25
582.088	28841.71
582.285	28579.57
582.483	28753.65
582.681	28706.55
582.878	28194.56
583.076	28260.09
583.274	28526.33
583.471	27936.51
583.669	27819.78
583.866	28008.19
584.064	27895.55
584.262	27258.63
584.459	27672.32
584.657	27506.44
584.854	27805.44
585.052	27088.65
585.249	27936.51
585.447	27553.54
585.644	27166.48
585.841	27475.72
586.039	27510.53
586.236	27178.76
586.434	26963.73
586.631	26912.53
586.828	26945.3
587.026	26849.04
587.223	26631.96
587.42	26574.61
587.618	26570.52
587.815	26607.38
588.012	26515.22
588.21	26140.44
588.407	26597.14
588.604	25964.32
588.801	25997.09
588.999	26162.97
589.196	25732.9
589.393	25829.15
589.59	25595.68
589.787	25626.4
589.984	25923.36
590.182	25462.57
590.379	25487.14
590.576	25270.06
590.773	25388.84
590.97	25403.18
591.167	25419.56
591.364	25089.84
591.561	25263.91
591.758	24887.09
591.955	24917.81
592.152	25024.3
592.349	24661.81
592.546	24760.11
592.743	24799.02
592.94	24368.95
593.137	24915.76
593.334	24416.05
593.531	24170.3
593.727	24569.65
593.924	24164.15
594.121	24039.23
594.318	24399.67
594.515	23840.57
594.712	24108.86
594.908	23977.79
595.105	23809.86
595.302	23934.78
595.499	23740.22
595.696	23721.79
595.892	23682.88
596.089	23766.85
596.286	23611.2
596.482	23555.91
596.679	23357.25
596.876	23289.67
597.072	23185.22
597.269	23234.38
597.466	23355.21
597.662	22744.91
597.859	22945.61
598.055	22929.23
598.252	22939.47
598.448	22871.89
598.645	22601.55
598.841	22325.08
599.038	22363.99
599.234	22429.52
599.431	22153.05
599.627	22255.45
599.824	22165.34
600.02	22146.9
600.217	22275.93
600.413	21974.88
600.609	21983.07
600.806	21770.08
601.002	22028.12
601.198	21964.64
601.395	21624.67
601.591	21688.16
601.787	21612.38
601.984	21340.01
602.18	21651.3
602.376	21350.24
602.572	21163.88
602.769	21159.78
602.965	21208.94
603.161	21174.12
603.357	21282.66
603.553	20891.5
603.75	21028.71
603.946	21092.2
604.142	20909.93
604.338	20760.43
604.534	20862.83
604.73	20658.03
604.926	20522.87
605.122	20539.25
605.318	20330.36
605.514	20387.7
605.71	20287.35
605.906	20316.02
606.102	20498.29
606.298	20211.57
606.494	20000.63
606.69	20105.08
606.886	20182.9
607.082	19914.62
607.278	20227.96
607.474	19812.22
607.67	20014.97
607.866	19791.74
608.062	19793.79
608.257	19761.02
608.453	19627.9
608.649	19875.71
608.845	19629.95
609.041	19478.4
609.236	19650.43
609.432	19359.62
609.628	19421.06
609.824	19402.63
610.019	19273.6
610.215	19437.44
610.411	19359.62
610.606	19179.4
610.802	19333
610.998	19156.87
611.193	19255.17
611.389	19011.46
611.584	18943.88
611.78	18687.89
611.976	19146.63
612.171	18995.08
612.367	18638.73
612.562	18874.25
612.758	18503.57
612.953	18673.55
613.149	19056.52
613.344	18435.99
613.539	18993.03
613.735	18517.9
613.93	18778
614.126	18362.26
614.321	18522
614.517	18511.76
614.712	18503.57
614.907	18425.75
615.103	18196.37
615.298	18276.24
615.493	18569.1
615.688	17917.85
615.884	18511.76
616.079	17893.27
616.274	17952.66
616.47	18128.79
616.665	17870.75
616.86	18036.63
617.055	17967
617.25	17952.66
617.445	17733.53
617.641	17635.23
617.836	17856.41
618.031	17584.03
618.226	17643.42
618.421	17565.6
618.616	17639.33
618.811	17434.53
619.006	17655.71
619.201	17260.45
619.396	17489.82
619.591	17024.93
619.786	17473.44
619.981	16990.12
620.176	16994.22
620.371	16773.03
620.566	17029.03
620.761	16852.91
620.956	17084.33
621.151	16521.13
621.346	16879.53
621.541	16541.61
621.735	16603.05
621.93	16416.69
622.125	16365.49
622.32	15990.71
622.515	16248.75
622.709	16170.93
622.904	15783.87
623.099	15804.35
623.294	15904.7
623.488	15435.71
623.683	15730.62
623.878	15484.86
624.072	15605.69
624.267	15544.25
624.462	15257.54
624.656	15468.48
624.851	15271.87
625.046	15282.11
625.24	14923.72
625.435	14684.11
625.629	14733.26
625.824	14768.07
626.018	14706.63
626.213	14528.46
626.407	14485.45
626.602	14454.73
626.796	14378.96
626.991	14569.42
627.185	14335.95
627.38	14219.22
627.574	14122.96
627.768	14030.8
627.963	14096.34
628.157	13909.97
628.352	13944.79
628.546	13449.18
628.74	13797.34
628.935	13512.67
629.129	13676.51
629.323	13449.18
629.517	13234.14
629.712	13436.89
629.906	13236.19
630.1	12998.63
630.294	13043.68
630.489	12746.73
630.683	12894.18
630.877	12806.12
631.071	12779.5
631.265	12625.9
631.459	12658.67
631.653	12484.59
631.848	12572.65
632.042	12543.98
632.236	12691.43
632.43	12355.57
632.624	12380.14
632.818	12220.4
633.012	11882.49
633.206	11954.16
633.4	12091.38
633.594	12074.99
633.788	11993.08
633.982	11814.9
634.176	11827.19
634.369	11769.85
634.563	11628.54
634.757	11433.98
634.951	11620.35
635.145	11442.17
635.339	11378.69
635.533	11208.7
635.726	11454.46
635.92	11081.73
636.114	11257.85
636.308	11315.2
636.501	11198.46
636.695	11274.24
636.889	10831.88
637.083	10893.32
637.276	10721.29
637.47	10758.15
637.664	10768.39
637.857	10690.57
638.051	10678.28
638.244	10475.53
638.438	10340.36
638.632	10555.4
638.825	10328.08
639.019	10434.57
639.212	10364.94
639.406	10291.21
639.599	10106.9
639.793	10283.02
639.986	9904.15
640.18	9965.59
640.373	9992.21
640.567	9852.95
640.76	9889.81
640.954	10024.98
641.147	9754.65
641.34	9811.99
641.534	9781.27
641.727	9736.21
641.92	9771.03
642.114	9455.64
642.307	9402.4
642.5	9177.12
642.694	9394.2
642.887	9238.56
643.08	9097.25
643.273	9246.75
643.467	9125.92
643.66	8996.9
643.853	9103.39
644.046	8976.42
644.239	8949.79
644.432	8863.78
644.626	8865.83
644.819	8794.15
645.012	8859.68
645.205	8751.14
645.398	8734.76
645.591	8628.26
645.784	8630.31
645.977	8349.74
646.17	8542.25
646.363	8427.56
646.556	8187.95
646.749	8415.27
646.942	8308.78
647.135	8233.01
647.328	8292.4
647.521	8218.67
647.714	8206.38
647.907	7970.87
648.099	8046.64
648.292	8212.53
648.485	8063.02
648.678	8103.98
648.871	7866.42
649.064	7776.31
649.256	7850.03
649.449	7708.73
649.642	7686.2
649.835	7508.02
650.027	7591.99
650.22	7639.09
650.413	7534.65
650.605	7571.51
650.798	7581.75
650.991	7475.26
651.183	7395.39
651.376	7321.66
651.568	7442.49
651.761	7346.23
651.954	7215.16
652.146	7110.72
652.339	7133.25
652.531	7116.86
652.724	7100.48
652.916	7057.47
653.109	7006.27
653.301	6977.6
653.494	7016.51
653.686	6905.92
653.879	6785.09
654.071	6885.44
654.263	6813.76
654.456	6701.12
654.648	6787.14
654.84	6705.22
655.033	6727.75
655.225	6619.21
655.417	6826.05
655.61	6547.53
655.802	6545.48
655.994	6438.98
656.186	6408.26
656.379	6477.9
656.571	6305.87
656.763	6336.59
656.955	6314.06
657.148	6346.83
657.34	6178.89
657.532	6213.71
657.724	6254.67
657.916	6137.93
658.108	6195.28
658.3	6230.09
658.492	6207.56
658.684	5871.7
658.876	5877.84
659.068	5855.31
659.26	5847.12
659.452	5834.83
659.644	5750.87
659.836	5924.94
660.028	5754.96
660.22	5654.61
660.412	5787.73
660.604	5623.89
660.796	5771.35
660.988	5748.82
661.18	5785.68
661.372	5597.27
661.563	5492.82
661.755	5580.89
661.947	5361.75
662.139	5546.07
662.331	5441.62
662.522	5283.93
662.714	5197.92
662.906	5331.03
663.097	5367.9
663.289	5191.77
663.481	5124.19
663.673	5150.81
663.864	5224.54
664.056	5224.54
664.247	5337.18
664.439	5116
664.631	5163.1
664.822	5167.2
665.014	5136.48
665.205	5023.84
665.397	4952.16
665.588	4956.26
665.78	4960.35
665.971	4917.34
666.163	4950.11
666.354	4792.42
666.546	4880.48
666.737	4925.54
666.929	4712.55
667.12	4868.19
667.311	4782.18
667.503	4753.51
667.694	4663.4
667.885	4591.72
668.077	4681.83
668.268	4567.14
668.459	4659.3
668.651	4536.42
668.842	4606.05
669.033	4524.13
669.224	4515.94
669.416	4581.48
669.607	4548.71
669.798	4409.45
669.989	4581.48
670.18	4450.41
670.371	4415.59
670.563	4364.39
670.754	4307.05
670.945	4325.48
671.136	4417.64
671.327	4270.19
671.518	4218.99
671.709	4378.73
671.9	4401.26
672.091	4163.69
672.282	4184.17
672.473	4151.4
672.664	4135.02
672.855	4200.55
673.046	4141.16
673.237	4214.89
673.428	4132.97
673.619	4139.12
673.809	3954.8
674	4059.24
674.191	4040.81
674.382	4020.33
674.573	4006
674.764	3975.28
674.954	4059.24
675.145	3860.59
675.336	3893.36
675.527	3891.31
675.717	3829.87
675.908	3969.13
676.099	3756.15
676.289	3932.27
676.48	3756.15
676.671	3852.4
676.861	3684.47
677.052	3819.63
677.243	3645.56
677.433	3741.81
677.624	3780.72
677.814	3684.47
678.005	3688.56
678.195	3838.06
678.386	3717.23
678.576	3588.21
678.767	3704.95
678.957	3631.22
679.148	3688.56
679.338	3590.26
679.529	3750
679.719	3573.88
679.909	3631.22
680.1	3561.59
680.29	3604.6
680.481	3608.69
680.671	3573.88
680.861	3616.88
681.052	3432.57
681.242	3614.84
681.432	3479.67
681.622	3534.96
681.813	3459.19
682.003	3475.57
682.193	3354.74
682.383	3487.86
682.573	3430.52
682.764	3442.81
682.954	3311.74
683.144	3555.44
683.334	3453.05
683.524	3438.71
683.714	3344.5
683.904	3385.46
684.094	3352.7
684.284	3295.35
684.474	3338.36
684.664	3321.98
684.854	3428.47
685.044	3321.98
685.234	3264.63
685.424	3231.87
685.614	3162.23
685.804	3287.16
685.994	3217.53
686.184	3180.67
686.374	3307.64
686.564	3197.05
686.753	3309.69
686.943	3164.28
687.133	3242.11
687.323	3207.29
687.513	3221.63
687.702	3158.14
687.892	3043.45
688.082	3065.98
688.272	3010.68
688.461	3008.64
688.651	2934.91
688.841	3047.55
689.03	3217.53
689.22	2889.85
689.41	3012.73
689.599	2971.77
689.789	2984.06
689.979	3008.64
690.168	2885.76
690.358	2994.3
690.547	2975.87
690.737	2920.57
690.926	2848.9
691.116	2787.46
691.305	2992.25
691.495	2918.53
691.684	2779.26
691.874	2926.72
692.063	2822.27
692.252	2840.7
692.442	2861.18
692.631	2670.72
692.82	2771.07
693.01	2656.39
693.199	2846.85
693.388	2723.97
693.578	2795.65
693.767	2738.3
693.956	2783.36
694.146	2558.08
694.335	2599.04
694.524	2580.61
694.713	2635.91
694.902	2619.52
695.092	2705.54
695.281	2582.66
695.47	2578.56
695.659	2582.66
695.848	2627.71
696.037	2566.28
696.226	2650.24
696.415	2574.47
696.604	2603.14
696.793	2556.04
696.982	2453.64
697.171	2642.05
697.36	2562.18
697.549	2467.97
697.738	2472.07
697.927	2531.46
698.116	2582.66
698.305	2470.02
698.494	2562.18
698.683	2556.04
698.872	2672.77
699.061	2410.63
699.25	2439.3
699.438	2541.7
699.627	2463.88
699.816	2445.45
700.005	2435.21
700.193	2412.68
700.382	2482.31
700.571	2455.69
700.76	2476.16
700.948	2398.34
701.137	2377.86
701.326	2449.54
701.514	2345.09
701.703	2398.34
701.892	2510.98
702.08	2521.22
702.269	2418.82
702.457	2197.64
702.646	2496.64
702.834	2365.57
703.023	2476.16
703.212	2427.01
703.4	2338.95
703.589	2361.48
703.777	2351.24
703.965	2384.01
704.154	2324.62
704.342	2396.29
704.531	2279.56
704.719	2328.71
704.907	2388.1
705.096	2254.98
705.284	2277.51
705.472	2234.5
705.661	2328.71
705.849	2435.21
706.037	2267.27
706.226	2308.23
706.414	2420.87
706.602	2302.09
706.79	2238.6
706.979	2228.36
707.167	2357.38
707.355	2265.22
707.543	2332.81
707.731	2410.63
707.919	2289.8
708.107	2289.8
708.296	2271.37
708.484	2230.41
708.672	2263.18
708.86	2318.47
709.048	2207.88
709.236	2312.33
709.424	2283.66
709.612	2328.71
709.8	2330.76
709.988	2277.51
710.176	2273.42
710.364	2404.49
710.551	2242.7
710.739	2330.76
710.927	2265.22
711.115	2312.33
711.303	2304.14
711.491	2302.09
711.679	2283.66
711.866	2273.42
712.054	2171.02
712.242	2300.04
712.43	2293.9
712.617	2263.18
712.805	2300.04
712.993	2230.41
713.181	2205.83
713.368	2312.33
713.556	2371.72
713.744	2214.02
713.931	2341
714.119	2250.89
714.306	2199.69
714.494	2160.78
714.682	2263.18
714.869	2156.68
715.057	2197.64
715.244	2224.26
715.432	2429.06
715.619	2136.2
715.807	2295.94
715.994	2152.59
716.182	2269.32
716.369	2338.95
716.556	2304.14
716.744	2273.42
716.931	2240.65
717.119	2293.9
717.306	2404.49
717.493	2261.13
717.681	2359.43
717.868	2183.31
718.055	2252.94
718.242	2199.69
718.43	2273.42
718.617	2189.45
718.804	2216.07
718.991	2267.27
719.179	2193.55
719.366	2271.37
719.553	2224.26
719.74	2111.63
719.927	2250.89
720.114	2371.72
720.301	2136.2
720.488	2273.42
720.676	2214.02
720.863	2236.55
721.05	2244.74
721.237	2142.35
721.424	2271.37
721.611	2336.9
721.798	2230.41
721.985	2156.68
722.172	2273.42
722.358	2191.5
722.545	2201.74
722.732	2205.83
722.919	2347.14
723.106	2168.97
723.293	2197.64
723.48	2259.08
723.667	2240.65
723.853	2246.79
724.04	2246.79
724.227	2279.56
724.414	2201.74
724.6	2201.74
724.787	2257.03
724.974	2199.69
725.161	2238.6
725.347	2205.83
725.534	2271.37
725.72	2148.49
725.907	2263.18
726.094	2224.26
726.28	2236.55
726.467	2265.22
726.653	2181.26
726.84	2312.33
727.027	2285.7
727.213	2197.64
727.4	2185.35
727.586	2164.87
727.773	2191.5
727.959	2173.07
728.145	2193.55
728.332	2291.85
728.518	2222.22
728.705	2308.23
728.891	2119.82
729.077	2230.41
729.264	2275.46
729.45	2230.41
729.636	2214.02
729.823	2197.64
730.009	2273.42
730.195	2275.46
730.382	2349.19
730.568	2166.92
730.754	2230.41
730.94	2293.9
731.126	2064.52
731.313	2263.18
731.499	2199.69
731.685	2343.05
731.871	2291.85
732.057	2287.75
732.243	2318.47
732.429	2138.25
732.615	2209.93
732.801	2224.26
732.987	2144.39
733.173	2207.88
733.359	2230.41
733.545	2283.66
733.731	2209.93
733.917	2285.7
734.103	2128.01
734.289	2291.85
734.475	2162.83
734.661	2295.94
734.847	2175.11
735.033	2263.18
735.219	2234.5
735.404	2222.22
735.59	2197.64
735.776	2168.97
735.962	2214.02
736.148	2361.48
736.333	2158.73
736.519	2107.53
736.705	2125.96
736.89	2191.5
737.076	2134.15
737.262	2230.41
737.447	2130.06
737.633	2156.68
737.819	2232.46
738.004	2177.16
738.19	2189.45
738.375	2191.5
738.561	2148.49
738.747	2166.92
738.932	2150.54
739.118	2146.44
739.303	2103.43
739.489	2111.63
739.674	2136.2
739.859	2029.71
740.045	2117.77
740.23	2226.31
740.416	1992.84
740.601	2207.88
740.786	1994.89
740.972	2044.04
741.157	1964.17
741.342	1994.89
741.528	2091.15
741.713	2060.43
741.898	1904.78
742.084	1984.65
742.269	2095.24
742.454	2050.19
742.639	2099.34
742.824	1976.46
743.01	1974.41
743.195	2019.47
743.38	1968.27
743.565	2107.53
743.75	2054.28
743.935	2091.15
744.12	2160.78
744.305	1929.36
744.49	1960.08
744.675	2031.76
744.86	1976.46
745.045	2134.15
745.23	1927.31
745.415	1955.98
745.6	1921.17
745.785	1906.83
745.97	1947.79
746.155	2019.47
746.34	1921.17
746.525	1831.05
746.71	1917.07
746.895	1919.12
747.079	1847.44
747.264	1876.11
747.449	1783.95
747.634	1835.15
747.819	1757.33
748.003	1738.9
748.188	1853.58
748.373	1859.73
748.557	1763.47
748.742	1841.29
748.927	1781.9
749.111	1747.09
749.296	1685.65
749.481	1810.58
749.665	1779.86
749.85	1607.83
750.034	1747.09
750.219	1689.74
750.404	1591.44
750.588	1626.26
750.773	1609.87
750.957	1702.03
751.141	1632.4
751.326	1624.21
751.51	1630.35
751.695	1562.77
751.879	1714.32
752.064	1624.21
752.248	1616.02
752.432	1593.49
752.617	1673.36
752.801	1628.31
752.985	1593.49
753.17	1527.96
753.354	1525.91
753.538	1570.96
753.722	1525.91
753.907	1493.14
754.091	1519.76
754.275	1427.6
754.459	1429.65
754.643	1435.8
754.828	1388.69
755.012	1480.85
755.196	1386.65
755.38	1472.66
755.564	1415.32
755.748	1446.04
755.932	1380.5
756.116	1351.83
756.3	1362.07
756.484	1288.34
756.668	1376.41
756.852	1355.93
757.036	1249.43
757.22	1386.65
757.404	1282.2
757.588	1282.2
757.772	1222.81
757.956	1267.86
758.14	1321.11
758.323	1153.18
758.507	1284.25
758.691	1255.58
758.875	1392.79
759.059	1151.13
759.242	1271.96
759.426	1329.3
759.61	1183.9
759.794	1190.04
759.977	1255.58
760.161	1271.96
760.345	1208.47
760.528	1214.62
760.712	1241.24
760.895	1181.85
761.079	1110.17
761.263	1159.32
761.446	1097.88
761.63	1243.29
761.813	1091.74
761.997	1265.82
762.18	1208.47
762.364	1112.22
762.547	1018.01
762.731	1058.97
762.914	981.15
763.098	1177.75
763.281	1081.5
763.464	1101.98
763.648	1091.74
763.831	1038.49
764.015	1046.68
764.198	1091.74
764.381	1073.31
764.564	1134.75
764.748	1032.35
764.931	1036.44
765.114	983.2
765.297	1061.02
765.481	1032.35
765.664	1034.39
765.847	1026.2
766.03	1034.39
766.213	1089.69
766.397	1013.92
766.58	1026.2
766.763	1044.63
766.946	1001.63
767.129	1044.63
767.312	897.18
767.495	993.44
767.678	936.09
767.861	1085.59
768.044	1005.72
768.227	997.53
768.41	891.04
768.593	970.91
768.776	929.95
768.959	962.72
769.142	911.52
769.324	829.6
769.507	923.8
769.69	940.19
769.873	921.76
770.056	1046.68
770.239	927.9
770.421	985.24
770.604	932
770.787	862.37
770.97	866.46
771.152	952.48
771.335	886.94
771.518	944.28
771.7	858.27
771.883	915.61
772.066	899.23
772.248	831.65
772.431	954.52
772.613	850.08
772.796	796.83
772.978	852.13
773.161	850.08
773.343	776.35
773.526	815.26
773.708	807.07
773.891	813.21
774.073	888.99
774.256	782.49
774.438	829.6
774.621	784.54
774.803	802.97
774.985	794.78
775.168	735.39
775.35	700.58
775.532	805.02
775.715	870.56
775.897	755.87
776.079	862.37
776.261	739.49
776.444	706.72
776.626	784.54
776.808	753.82
776.99	686.24
777.173	823.45
777.355	735.39
777.537	716.96
777.719	755.87
777.901	706.72
778.083	682.14
778.265	665.76
778.447	684.19
778.629	659.62
778.811	702.62
778.993	665.76
779.175	669.86
779.357	641.18
779.539	649.38
779.721	653.47
779.903	663.71
780.085	569.51
780.267	676
780.449	649.38
780.631	706.72
780.812	612.51
780.994	661.66
781.176	649.38
781.358	649.38
781.54	497.83
781.721	649.38
781.903	587.94
782.085	602.27
782.267	628.9
782.448	610.47
782.63	522.4
782.812	559.27
782.993	551.07
783.175	571.55
783.357	489.64
783.538	581.79
783.72	530.59
783.901	544.93
784.083	532.64
784.264	485.54
784.446	530.59
784.627	473.25
784.809	518.31
784.99	518.31
785.172	546.98
785.353	534.69
785.535	508.07
785.716	479.4
785.897	489.64
786.079	520.35
786.26	446.63
786.441	493.73
786.623	465.06
786.804	393.38
786.985	448.68
787.167	483.49
787.348	407.72
787.529	471.2
787.71	536.74
787.891	477.35
788.073	438.44
788.254	452.77
788.435	506.02
788.616	428.2
788.797	463.01
788.978	397.48
789.159	454.82
789.34	456.87
789.522	420
789.703	413.86
789.884	438.44
790.065	362.66
790.246	428.2
790.427	395.43
790.607	446.63
790.788	395.43
790.969	315.56
791.15	426.15
791.331	391.33
791.512	389.28
791.693	420
791.874	362.66
792.054	362.66
792.235	452.77
792.416	307.37
792.597	338.09
792.778	381.09
792.958	387.24
793.139	325.8
793.32	364.71
793.5	309.41
793.681	401.57
793.862	366.76
794.042	422.05
794.223	350.37
794.404	272.55
794.584	317.61
794.765	333.99
794.945	307.37
795.126	338.09
795.306	356.52
795.487	374.95
795.667	260.26
795.848	366.76
796.028	274.6
796.209	374.95
796.389	420
796.57	333.99
796.75	305.32
796.93	305.32
797.111	282.79
797.291	329.89
797.471	362.66
797.652	389.28
797.832	274.6
798.012	293.03
798.192	346.28
798.373	293.03
798.553	260.26
798.733	284.84
798.913	293.03
799.093	235.69
799.274	307.37
799.454	317.61
799.634	272.55
799.814	229.54
799.994	307.37
800.174	377
800.354	309.41
800.534	268.45
800.714	329.89
800.894	250.02
801.074	235.69
801.254	225.45
801.434	311.46
801.614	305.32
801.794	217.26
801.974	833.69
802.154	166.06
802.334	252.07
802.514	178.34
802.693	221.35
802.873	176.3
803.053	274.6
803.233	293.03
803.413	209.06
803.592	223.4
803.772	194.73
803.952	278.69
804.131	223.4
804.311	264.36
804.491	260.26
804.67	129.19
804.85	227.5
805.03	245.93
805.209	233.64
805.389	239.78
805.568	159.91
805.748	129.19
805.928	225.45
806.107	258.21
806.287	284.84
806.466	276.65
806.646	166.06
806.825	184.49
807.004	266.41
807.184	250.02
807.363	166.06
807.543	211.11
807.722	207.02
807.901	118.95
808.081	231.59
808.26	37.03
808.439	256.17
808.619	268.45
808.798	186.54
808.977	223.4
809.156	170.15
809.336	174.25
809.515	190.63
809.694	166.06
809.873	202.92
810.052	233.64
810.231	159.91
810.411	188.58
810.59	149.67
810.769	176.3
810.948	161.96
811.127	141.48
811.306	110.76
811.485	84.14
811.664	213.16
811.843	200.87
812.022	108.71
812.201	186.54
812.38	182.44
812.559	184.49
812.737	149.67
812.916	151.72
813.095	133.29
813.274	149.67
813.453	182.44
813.632	200.87
813.811	192.68
813.989	145.58
814.168	198.82
814.347	135.34
814.526	149.67
814.704	190.63
814.883	213.16
815.062	118.95
815.24	133.29
815.419	121
815.598	172.2
815.776	94.38
815.955	157.86
816.133	190.63
816.312	168.1
816.49	133.29
816.669	110.76
816.847	108.71
817.026	190.63
817.204	108.71
817.383	190.63
817.561	149.67
817.74	174.25
817.918	108.71
818.097	188.58
818.275	129.19
818.453	108.71
818.632	168.1
818.81	164.01
818.988	166.06
819.167	133.29
819.345	190.63
819.523	112.81
819.701	123.05
819.879	190.63
820.058	108.71
820.236	110.76
820.414	202.92
820.592	75.95
820.77	75.95
820.948	133.29
821.127	125.1
821.305	32.94
821.483	116.9
821.661	170.15
821.839	116.9
822.017	147.62
822.195	157.86
822.373	174.25
822.551	84.14
822.729	116.9
822.907	96.43
823.085	166.06
823.262	166.06
823.44	149.67
823.618	125.1
823.796	121
823.974	137.38
824.152	86.19
824.329	110.76
824.507	155.82
824.685	137.38
824.863	80.04
825.04	112.81
825.218	121
825.396	133.29
825.574	92.33
825.751	149.67
825.929	114.86
826.107	100.52
826.284	94.38
826.462	137.38
826.639	57.51
826.817	49.32
826.994	116.9
827.172	80.04
827.349	194.73
827.527	102.57
827.704	92.33
827.882	123.05
828.059	116.9
828.237	143.53
828.414	125.1
828.591	51.37
828.769	51.37
828.946	100.52
829.124	127.14
829.301	108.71
829.478	129.19
829.655	90.28
829.833	127.14
830.01	77.99
830.187	129.19
830.364	96.43
830.542	67.75
830.719	100.52
830.896	2.22
831.073	131.24
831.25	125.1
831.427	157.86
831.604	102.57
831.782	121
831.959	149.67
832.136	59.56
832.313	147.62
832.49	24.75
832.667	32.94
832.844	96.43
833.021	157.86
833.198	104.62
833.374	75.95
833.551	102.57
833.728	67.75
833.905	80.04
834.082	94.38
834.259	86.19
834.436	166.06
834.612	102.57
834.789	141.48
834.966	92.33
835.143	108.71
835.319	-5.97
835.496	26.79
835.673	118.95
835.85	141.48
836.026	96.43
836.203	30.89
836.38	43.18
836.556	137.38
836.733	88.23
836.909	75.95
837.086	125.1
837.262	159.91
837.439	112.81
837.616	118.95
837.792	57.51
837.968	131.24
838.145	45.23
838.321	77.99
838.498	59.56
838.674	43.18
838.851	145.58
839.027	43.18
839.203	63.66
839.38	53.42
839.556	104.62
839.732	92.33
839.909	51.37
840.085	86.19
840.261	12.46
840.437	51.37
840.614	2.22
840.79	149.67
840.966	69.8
841.142	104.62
841.318	61.61
841.494	100.52
841.671	43.18
841.847	108.71
842.023	30.89
842.199	67.75
842.375	108.71
842.551	2.22
842.727	92.33
842.903	110.76
843.079	77.99
843.255	92.33
843.431	61.61
843.607	12.46
843.783	-20.31
843.959	43.18
844.134	143.53
844.31	96.43
844.486	47.27
844.662	61.61
844.838	53.42
845.013	174.25
845.189	14.51
845.365	133.29
845.541	10.41
845.716	73.9
845.892	125.1
846.068	51.37
846.244	75.95
846.419	37.03
846.595	67.75
846.77	20.65
846.946	45.23
847.122	45.23
847.297	118.95
847.473	116.9
847.648	-1.88
847.824	84.14
847.999	59.56
848.175	34.99
848.35	65.71
848.526	-10.07
848.701	61.61
848.876	69.8
849.052	28.84
849.227	88.23
849.403	102.57
849.578	86.19
849.753	47.27
849.929	34.99
850.104	34.99
850.279	34.99
850.454	51.37
850.63	18.6
850.805	69.8
850.98	92.33
851.155	18.6
851.33	51.37
851.505	116.9
851.681	22.7
851.856	-5.97
852.031	34.99
852.206	59.56
852.381	10.41
852.556	59.56
852.731	51.37
852.906	41.13
853.081	32.94
853.256	26.79
853.431	98.47
853.606	18.6
853.781	45.23
853.956	-1.88
854.131	4.27
854.305	30.89
854.48	43.18
854.655	53.42
854.83	43.18
855.005	-46.93
855.18	57.51
855.354	6.31
855.529	80.04
855.704	-1.88
855.879	75.95
856.053	18.6
856.228	88.23
856.403	20.65
856.577	34.99
856.752	8.36
856.926	61.61
857.101	-16.21
857.276	18.6
857.45	123.05
857.625	125.1
857.799	-28.5
857.974	129.19
858.148	37.03
858.323	39.08
858.497	10.41
858.672	67.75
858.846	84.14
859.02	2.22
859.195	34.99
859.369	51.37
859.543	34.99
859.718	26.79
859.892	106.67
860.066	84.14
860.241	51.37
860.415	-38.74
860.589	6.31
860.763	108.71
860.938	4.27
861.112	34.99
861.286	18.6
861.46	77.99
861.634	57.51
861.808	43.18
861.982	59.56
862.157	2.22
862.331	63.66
862.505	110.76
862.679	28.84
862.853	24.75
863.027	73.9
863.201	141.48
863.375	16.55
863.549	14.51
863.722	51.37
863.896	34.99
864.07	61.61
864.244	75.95
864.418	10.41
864.592	-5.97
864.766	86.19
864.939	39.08
865.113	24.75
865.287	65.71
865.461	59.56
865.634	67.75
865.808	41.13
865.982	51.37
866.156	6.31
866.329	34.99
866.503	-5.97
866.676	57.51
866.85	30.89
867.024	6.31
867.197	-14.17
867.371	-1.88
867.544	51.37
867.718	-28.5
867.891	24.75
868.065	24.75
868.238	30.89
868.412	51.37
868.585	34.99
868.759	-18.26
868.932	90.28
869.105	63.66
869.279	-22.36
869.452	53.42
869.625	67.75
869.799	-22.36
869.972	26.79
870.145	34.99
870.319	96.43
870.492	59.56
870.665	34.99
870.838	28.84
871.011	12.46
871.185	100.52
871.358	43.18
871.531	2.22
871.704	-3.93
871.877	118.95
872.05	41.13
872.223	-12.12
872.396	116.9
872.569	69.8
872.742	34.99
872.915	100.52
873.088	26.79
873.261	-71.51
873.434	10.41
873.607	-5.97
873.78	14.51
873.953	43.18
874.126	-3.93
874.299	20.65
874.471	34.99
874.644	71.85
874.817	82.09
874.99	22.7
875.163	16.55
875.335	39.08
875.508	104.62
875.681	34.99
875.853	26.79
876.026	12.46
876.199	84.14
876.371	34.99
876.544	-46.93
876.717	-22.36
876.889	26.79
877.062	127.14
877.234	-10.07
877.407	10.41
877.579	71.85
877.752	37.03
877.924	-5.97
878.097	26.79
878.269	-55.12
878.442	45.23
878.614	-32.6
878.786	-14.17
878.959	22.7
879.131	63.66
879.303	-77.65
879.476	43.18
879.648	34.99
879.82	16.55
879.993	-5.97
880.165	-55.12
880.337	-5.97
880.509	141.48
880.681	-20.31
880.854	30.89
881.026	75.95
881.198	51.37
881.37	59.56
881.542	34.99
881.714	94.38
881.886	59.56
882.058	10.41
882.23	12.46
882.402	59.56
882.574	34.99
882.746	10.41
882.918	75.95
883.09	-28.5
883.262	84.14
883.434	-67.41
883.606	18.6
883.778	-10.07
883.95	53.42
884.122	8.36
884.293	16.55
884.465	22.7
884.637	12.46
884.809	84.14
884.98	34.99
885.152	10.41
885.324	18.6
885.496	-5.97
885.667	-20.31
885.839	-46.93
886.011	100.52
886.182	98.47
886.354	-3.93
886.525	69.8
886.697	-71.51
886.869	-26.45
887.04	-20.31
887.212	34.99
887.383	94.38
887.555	6.31
887.726	10.41
887.897	-3.93
888.069	34.99
888.24	26.79
888.412	34.99
888.583	10.41
888.754	4.27
888.926	-22.36
889.097	41.13
889.268	2.22
889.44	96.43
889.611	-3.93
889.782	-10.07
889.953	-55.12
890.125	127.14
890.296	10.41
890.467	26.79
890.638	10.41
890.809	28.84
890.98	43.18
891.151	34.99
891.323	4.27
891.494	16.55
891.665	61.61
891.836	20.65
892.007	30.89
892.178	84.14
892.349	53.42
892.52	2.22
892.691	-30.55
892.862	14.51
893.032	-14.17
893.203	77.99
893.374	-16.21
893.545	110.76
893.716	-44.88
893.887	39.08
894.057	6.31
894.228	43.18
894.399	-46.93
894.57	51.37
894.74	45.23
894.911	133.29
895.082	32.94
895.253	-46.93
895.423	104.62
895.594	84.14
895.764	28.84
895.935	18.6
896.106	45.23
896.276	45.23
896.447	26.79
896.617	20.65
896.788	-5.97
896.958	26.79
897.129	69.8
897.299	12.46
897.47	2.22
897.64	-14.17
897.81	18.6
897.981	-26.45
898.151	2.22
898.322	96.43
898.492	47.27
898.662	-12.12
898.832	2.22
899.003	82.09
899.173	10.41
899.343	-55.12
899.513	-18.26
