Data from USB4F104151__267__14-46-05-879.txt Node

Date: Thu Mar 13 14:46:05 EDT 2025
User: louis
Spectrometer: USB4F10415
Trigger mode: 4
Integration Time (sec): 2.000000E-2
Scans to average: 1
Electric dark correction enabled: true
Nonlinearity correction enabled: false
Boxcar width: 0
XAxis mode: Wavelengths
Number of Pixels in Spectrum: 3648
>>>>>Begin Spectral Data<<<<<
178.204	-62.63
178.424	-62.63
178.644	-62.63
178.864	-111.78
179.084	-134.31
179.304	15.19
179.524	25.43
179.744	11.09
179.964	23.38
180.184	-42.15
180.404	23.38
180.624	39.76
180.844	47.96
181.064	-60.59
181.283	-15.53
181.503	-62.63
181.723	-5.29
181.943	13.14
182.163	52.05
182.383	0.85
182.602	-1.19
182.822	7
183.042	52.05
183.262	-25.77
183.482	27.48
183.701	9.05
183.921	7
184.141	2.9
184.361	2.9
184.58	-17.58
184.8	-29.87
185.02	27.48
185.239	47.96
185.459	37.72
185.679	60.24
185.898	7
186.118	35.67
186.338	47.96
186.557	97.11
186.777	19.29
186.997	0.85
187.216	21.33
187.436	39.76
187.655	-17.58
187.875	93.01
188.095	58.2
188.314	27.48
188.534	41.81
188.753	74.58
188.973	17.24
189.192	-9.39
189.412	11.09
189.631	72.53
189.851	19.29
190.07	76.63
190.29	25.43
190.509	45.91
190.729	-1.19
190.948	50
191.168	150.36
191.387	56.15
191.607	17.24
191.826	15.19
192.045	19.29
192.265	80.72
192.484	-17.58
192.704	-9.39
192.923	-36.01
193.142	95.06
193.362	31.57
193.581	45.91
193.8	-72.87
194.02	19.29
194.239	7
194.458	-74.92
194.678	33.62
194.897	33.62
195.116	39.76
195.335	-5.29
195.555	35.67
195.774	58.2
195.993	15.19
196.212	23.38
196.432	68.44
196.651	17.24
196.87	41.81
197.089	144.21
197.308	-1.19
197.528	33.62
197.747	-27.82
197.966	19.29
198.185	-1.19
198.404	47.96
198.623	15.19
198.842	-25.77
199.062	31.57
199.281	58.2
199.5	21.33
199.719	31.57
199.938	11.09
200.157	88.92
200.376	19.29
200.595	54.1
200.814	17.24
201.033	29.52
201.252	15.19
201.471	95.06
201.69	129.88
201.909	45.91
202.128	56.15
202.347	7
202.566	35.67
202.785	-52.39
203.004	111.44
203.223	88.92
203.442	25.43
203.661	-33.96
203.879	90.96
204.098	35.67
204.317	-1.19
204.536	-15.53
204.755	43.86
204.974	131.92
205.193	31.57
205.411	146.26
205.63	127.83
205.849	115.54
206.068	78.68
206.287	-21.67
206.505	15.19
206.724	66.39
206.943	15.19
207.162	15.19
207.381	107.35
207.599	39.76
207.818	-3.24
208.037	35.67
208.255	-33.96
208.474	47.96
208.693	7
208.911	52.05
209.13	0.85
209.349	64.34
209.567	58.2
209.786	-9.39
210.005	47.96
210.223	72.53
210.442	45.91
210.661	86.87
210.879	33.62
211.098	4.95
211.316	60.24
211.535	39.76
211.753	-7.34
211.972	82.77
212.191	47.96
212.409	7
212.628	52.05
212.846	-31.91
213.065	31.57
213.283	-31.91
213.502	23.38
213.72	35.67
213.938	-3.24
214.157	58.2
214.375	31.57
214.594	74.58
214.812	50
215.031	97.11
215.249	66.39
215.467	9.05
215.686	64.34
215.904	41.81
216.122	-19.63
216.341	0.85
216.559	15.19
216.778	105.3
216.996	72.53
217.214	33.62
217.432	-1.19
217.651	41.81
217.869	19.29
218.087	31.57
218.306	56.15
218.524	90.96
218.742	-31.91
218.96	60.24
219.179	31.57
219.397	31.57
219.615	68.44
219.833	27.48
220.051	-23.72
220.27	33.62
220.488	23.38
220.706	56.15
220.924	33.62
221.142	9.05
221.36	7
221.578	9.05
221.796	13.14
222.015	39.76
222.233	27.48
222.451	68.44
222.669	74.58
222.887	-42.15
223.105	-21.67
223.323	82.77
223.541	-5.29
223.759	-21.67
223.977	-60.59
224.195	39.76
224.413	90.96
224.631	27.48
224.849	101.2
225.067	19.29
225.285	7
225.503	45.91
225.721	-1.19
225.939	64.34
226.157	2.9
226.375	101.2
226.592	47.96
226.81	82.77
227.028	15.19
227.246	88.92
227.464	47.96
227.682	-7.34
227.9	-11.43
228.117	35.67
228.335	43.86
228.553	31.57
228.771	50
228.989	97.11
229.206	99.16
229.424	9.05
229.642	-19.63
229.86	-1.19
230.077	72.53
230.295	58.2
230.513	58.2
230.731	25.43
230.948	101.2
231.166	39.76
231.384	-15.53
231.601	15.19
231.819	13.14
232.037	56.15
232.254	-29.87
232.472	58.2
232.689	25.43
232.907	56.15
233.125	47.96
233.342	15.19
233.56	58.2
233.777	-33.96
233.995	64.34
234.213	105.3
234.43	-3.24
234.648	29.52
234.865	-46.25
235.083	25.43
235.3	56.15
235.518	45.91
235.735	39.76
235.953	113.49
236.17	52.05
236.388	-1.19
236.605	15.19
236.822	-13.48
237.04	2.9
237.257	47.96
237.475	39.76
237.692	19.29
237.909	29.52
238.127	7
238.344	17.24
238.562	-11.43
238.779	-25.77
238.996	-9.39
239.214	60.24
239.431	56.15
239.648	41.81
239.865	95.06
240.083	-5.29
240.3	7
240.517	9.05
240.735	11.09
240.952	66.39
241.169	72.53
241.386	88.92
241.603	90.96
241.821	45.91
242.038	31.57
242.255	74.58
242.472	-19.63
242.689	47.96
242.907	66.39
243.124	21.33
243.341	4.95
243.558	-48.3
243.775	-5.29
243.992	7
244.209	15.19
244.426	47.96
244.643	52.05
244.86	-21.67
245.078	64.34
245.295	88.92
245.512	-64.68
245.729	-62.63
245.946	-5.29
246.163	13.14
246.38	56.15
246.597	-13.48
246.814	29.52
247.031	50
247.248	93.01
247.464	-31.91
247.681	90.96
247.898	-1.19
248.115	56.15
248.332	13.14
248.549	58.2
248.766	43.86
248.983	146.26
249.2	47.96
249.417	25.43
249.633	0.85
249.85	25.43
250.067	41.81
250.284	41.81
250.501	84.82
250.717	66.39
250.934	35.67
251.151	9.05
251.368	-15.53
251.585	29.52
251.801	-44.2
252.018	-54.44
252.235	119.64
252.451	-25.77
252.668	47.96
252.885	129.88
253.102	84.82
253.318	39.76
253.535	64.34
253.752	-38.06
253.968	9.05
254.185	-21.67
254.401	39.76
254.618	-25.77
254.835	-27.82
255.051	60.24
255.268	43.86
255.484	-13.48
255.701	-9.39
255.917	72.53
256.134	35.67
256.351	84.82
256.567	31.57
256.784	23.38
257	-25.77
257.217	68.44
257.433	43.86
257.65	-33.96
257.866	80.72
258.082	-17.58
258.299	17.24
258.515	11.09
258.732	-21.67
258.948	-74.92
259.165	-7.34
259.381	17.24
259.597	29.52
259.814	41.81
260.03	41.81
260.246	-15.53
260.463	-25.77
260.679	64.34
260.895	0.85
261.112	80.72
261.328	-36.01
261.544	-7.34
261.761	58.2
261.977	2.9
262.193	-31.91
262.409	76.63
262.626	-62.63
262.842	-25.77
263.058	-89.26
263.274	9.05
263.49	0.85
263.707	56.15
263.923	15.19
264.139	-56.49
264.355	-3.24
264.571	31.57
264.787	11.09
265.004	93.01
265.22	2.9
265.436	-1.19
265.652	84.82
265.868	84.82
266.084	-15.53
266.3	25.43
266.516	-42.15
266.732	37.72
266.948	7
267.164	-52.39
267.38	23.38
267.596	23.38
267.812	72.53
268.028	99.16
268.244	-5.29
268.46	-42.15
268.676	50
268.892	27.48
269.108	27.48
269.324	35.67
269.54	9.05
269.756	66.39
269.972	54.1
270.188	68.44
270.403	-19.63
270.619	74.58
270.835	-40.11
271.051	80.72
271.267	39.76
271.483	60.24
271.698	9.05
271.914	-5.29
272.13	-58.54
272.346	47.96
272.562	33.62
272.777	39.76
272.993	-17.58
273.209	17.24
273.425	25.43
273.64	-33.96
273.856	68.44
274.072	19.29
274.287	47.96
274.503	117.59
274.719	45.91
274.934	80.72
275.15	-17.58
275.366	-31.91
275.581	7
275.797	72.53
276.012	7
276.228	2.9
276.444	23.38
276.659	-1.19
276.875	-50.35
277.09	33.62
277.306	29.52
277.521	-5.29
277.737	-25.77
277.952	64.34
278.168	-1.19
278.383	74.58
278.599	-7.34
278.814	64.34
279.03	50
279.245	23.38
279.461	11.09
279.676	47.96
279.892	17.24
280.107	37.72
280.322	-3.24
280.538	-9.39
280.753	41.81
280.969	64.34
281.184	-1.19
281.399	47.96
281.615	31.57
281.83	109.4
282.045	-15.53
282.26	-46.25
282.476	37.72
282.691	39.76
282.906	97.11
283.122	7
283.337	68.44
283.552	15.19
283.767	64.34
283.983	105.3
284.198	-17.58
284.413	33.62
284.628	15.19
284.843	58.2
285.058	64.34
285.274	52.05
285.489	-79.02
285.704	97.11
285.919	-29.87
286.134	17.24
286.349	27.48
286.564	64.34
286.779	90.96
286.995	47.96
287.21	43.86
287.425	15.19
287.64	23.38
287.855	45.91
288.07	97.11
288.285	39.76
288.5	88.92
288.715	25.43
288.93	7
289.145	70.48
289.36	58.2
289.575	56.15
289.79	11.09
290.004	97.11
290.219	70.48
290.434	-21.67
290.649	31.57
290.864	0.85
291.079	39.76
291.294	33.62
291.509	99.16
291.724	11.09
291.938	64.34
292.153	64.34
292.368	39.76
292.583	47.96
292.798	19.29
293.012	56.15
293.227	-21.67
293.442	31.57
293.657	60.24
293.871	72.53
294.086	35.67
294.301	115.54
294.516	60.24
294.73	-9.39
294.945	11.09
295.16	35.67
295.374	123.73
295.589	0.85
295.804	-29.87
296.018	66.39
296.233	41.81
296.447	25.43
296.662	35.67
296.877	2.9
297.091	105.3
297.306	11.09
297.52	35.67
297.735	41.81
297.949	72.53
298.164	105.3
298.378	70.48
298.593	-9.39
298.807	-50.35
299.022	15.19
299.236	56.15
299.451	27.48
299.665	0.85
299.88	47.96
300.094	2.9
300.309	39.76
300.523	-5.29
300.737	2.9
300.952	-42.15
301.166	39.76
301.381	-21.67
301.595	-50.35
301.809	-5.29
302.024	23.38
302.238	-9.39
302.452	60.24
302.667	-33.96
302.881	11.09
303.095	56.15
303.309	105.3
303.524	-29.87
303.738	2.9
303.952	43.86
304.166	74.58
304.381	33.62
304.595	37.72
304.809	-50.35
305.023	56.15
305.237	7
305.452	76.63
305.666	17.24
305.88	72.53
306.094	23.38
306.308	41.81
306.522	7
306.736	15.19
306.95	56.15
307.164	64.34
307.379	15.19
307.593	60.24
307.807	41.81
308.021	125.78
308.235	15.19
308.449	15.19
308.663	17.24
308.877	56.15
309.091	78.68
309.305	9.05
309.519	-33.96
309.733	11.09
309.947	-42.15
310.161	25.43
310.374	90.96
310.588	33.62
310.802	105.3
311.016	-64.68
311.23	25.43
311.444	58.2
311.658	78.68
311.872	50
312.085	-38.06
312.299	54.1
312.513	90.96
312.727	-9.39
312.941	-15.53
313.154	50
313.368	25.43
313.582	166.74
313.796	13.14
314.009	72.53
314.223	33.62
314.437	-33.96
314.651	117.59
314.864	31.57
315.078	-33.96
315.292	58.2
315.505	7
315.719	56.15
315.933	93.01
316.146	23.38
316.36	-74.92
316.573	31.57
316.787	-66.73
317.001	50
317.214	47.96
317.428	0.85
317.641	0.85
317.855	-1.19
318.068	27.48
318.282	56.15
318.495	68.44
318.709	39.76
318.922	76.63
319.136	74.58
319.349	47.96
319.563	72.53
319.776	25.43
319.99	31.57
320.203	78.68
320.417	7
320.63	99.16
320.843	41.81
321.057	35.67
321.27	56.15
321.483	86.87
321.697	117.59
321.91	27.48
322.124	150.36
322.337	88.92
322.55	-5.29
322.763	72.53
322.977	37.72
323.19	23.38
323.403	25.43
323.617	15.19
323.83	72.53
324.043	-15.53
324.256	-5.29
324.469	-17.58
324.683	-23.72
324.896	39.76
325.109	68.44
325.322	35.67
325.535	58.2
325.748	31.57
325.962	76.63
326.175	99.16
326.388	60.24
326.601	15.19
326.814	27.48
327.027	105.3
327.24	109.4
327.453	17.24
327.666	27.48
327.879	13.14
328.092	7
328.305	-13.48
328.518	-21.67
328.731	-42.15
328.944	35.67
329.157	35.67
329.37	19.29
329.583	80.72
329.796	103.25
330.009	52.05
330.222	7
330.435	-9.39
330.648	84.82
330.861	80.72
331.073	74.58
331.286	82.77
331.499	23.38
331.712	17.24
331.925	-23.72
332.138	47.96
332.35	-9.39
332.563	-25.77
332.776	33.62
332.989	25.43
333.202	97.11
333.414	19.29
333.627	7
333.84	41.81
334.053	7
334.265	58.2
334.478	-9.39
334.691	-1.19
334.903	64.34
335.116	27.48
335.329	-9.39
335.541	17.24
335.754	105.3
335.966	-44.2
336.179	82.77
336.392	-58.54
336.604	41.81
336.817	33.62
337.029	7
337.242	80.72
337.454	82.77
337.667	56.15
337.88	47.96
338.092	105.3
338.305	64.34
338.517	80.72
338.729	72.53
338.942	29.52
339.154	17.24
339.367	41.81
339.579	80.72
339.792	-60.59
340.004	64.34
340.217	37.72
340.429	60.24
340.641	-1.19
340.854	11.09
341.066	35.67
341.278	-5.29
341.491	64.34
341.703	29.52
341.915	37.72
342.128	101.2
342.34	31.57
342.552	33.62
342.764	15.19
342.977	50
343.189	50
343.401	47.96
343.613	7
343.826	86.87
344.038	-99.5
344.25	43.86
344.462	-72.87
344.674	11.09
344.886	60.24
345.099	2.9
345.311	43.86
345.523	50
345.735	7
345.947	52.05
346.159	52.05
346.371	93.01
346.583	58.2
346.795	99.16
347.007	19.29
347.219	101.2
347.431	0.85
347.643	129.88
347.855	-13.48
348.067	70.48
348.279	66.39
348.491	39.76
348.703	125.78
348.915	4.95
349.127	-9.39
349.339	-1.19
349.551	17.24
349.763	64.34
349.975	62.29
350.187	35.67
350.399	90.96
350.61	68.44
350.822	35.67
351.034	0.85
351.246	13.14
351.458	62.29
351.669	127.83
351.881	62.29
352.093	31.57
352.305	31.57
352.517	43.86
352.728	105.3
352.94	80.72
353.152	72.53
353.363	-13.48
353.575	60.24
353.787	13.14
353.999	64.34
354.21	88.92
354.422	56.15
354.633	80.72
354.845	93.01
355.057	21.33
355.268	58.2
355.48	25.43
355.692	27.48
355.903	52.05
356.115	-58.54
356.326	-5.29
356.538	56.15
356.749	29.52
356.961	156.5
357.172	17.24
357.384	50
357.595	140.12
357.807	31.57
358.018	-5.29
358.23	76.63
358.441	47.96
358.653	31.57
358.864	-11.43
359.075	29.52
359.287	35.67
359.498	27.48
359.709	39.76
359.921	27.48
360.132	80.72
360.344	-1.19
360.555	37.72
360.766	105.3
360.977	-17.58
361.189	17.24
361.4	105.3
361.611	99.16
361.823	58.2
362.034	99.16
362.245	47.96
362.456	37.72
362.667	62.29
362.879	35.67
363.09	47.96
363.301	72.53
363.512	-7.34
363.723	72.53
363.935	41.81
364.146	146.26
364.357	74.58
364.568	56.15
364.779	64.34
364.99	27.48
365.201	56.15
365.412	47.96
365.623	35.67
365.834	64.34
366.045	11.09
366.256	105.3
366.467	113.49
366.678	-9.39
366.889	39.76
367.1	9.05
367.311	68.44
367.522	0.85
367.733	45.91
367.944	43.86
368.155	-23.72
368.366	25.43
368.577	37.72
368.788	72.53
368.999	13.14
369.209	-7.34
369.42	195.41
369.631	90.96
369.842	-3.24
370.053	60.24
370.264	52.05
370.474	27.48
370.685	50
370.896	60.24
371.107	66.39
371.317	25.43
371.528	70.48
371.739	56.15
371.95	76.63
372.16	-15.53
372.371	45.91
372.582	47.96
372.792	-42.15
373.003	39.76
373.214	33.62
373.424	47.96
373.635	43.86
373.846	107.35
374.056	11.09
374.267	7
374.477	115.54
374.688	-33.96
374.898	88.92
375.109	35.67
375.319	4.95
375.53	35.67
375.74	9.05
375.951	39.76
376.161	72.53
376.372	64.34
376.582	64.34
376.793	-25.77
377.003	-21.67
377.214	58.2
377.424	47.96
377.635	47.96
377.845	17.24
378.055	68.44
378.266	-3.24
378.476	62.29
378.686	88.92
378.897	60.24
379.107	21.33
379.317	90.96
379.528	23.38
379.738	15.19
379.948	15.19
380.158	88.92
380.369	74.58
380.579	80.72
380.789	146.26
380.999	31.57
381.21	-29.87
381.42	166.74
381.63	52.05
381.84	39.76
382.05	27.48
382.261	19.29
382.471	72.53
382.681	82.77
382.891	80.72
383.101	113.49
383.311	23.38
383.521	56.15
383.731	82.77
383.941	107.35
384.151	39.76
384.361	60.24
384.571	52.05
384.781	74.58
384.991	113.49
385.201	113.49
385.411	11.09
385.621	76.63
385.831	68.44
386.041	105.3
386.251	47.96
386.461	121.68
386.671	23.38
386.881	86.87
387.091	68.44
387.301	58.2
387.511	47.96
387.72	56.15
387.93	64.34
388.14	-50.35
388.35	-11.43
388.56	72.53
388.769	93.01
388.979	23.38
389.189	54.1
389.399	80.72
389.609	52.05
389.818	66.39
390.028	43.86
390.238	58.2
390.447	33.62
390.657	60.24
390.867	17.24
391.076	-50.35
391.286	54.1
391.496	97.11
391.705	68.44
391.915	66.39
392.125	88.92
392.334	27.48
392.544	39.76
392.753	103.25
392.963	15.19
393.172	-25.77
393.382	37.72
393.591	23.38
393.801	93.01
394.01	41.81
394.22	72.53
394.429	50
394.639	64.34
394.848	111.44
395.058	-21.67
395.267	60.24
395.477	52.05
395.686	23.38
395.895	105.3
396.105	117.59
396.314	107.35
396.524	41.81
396.733	43.86
396.942	68.44
397.152	121.68
397.361	125.78
397.57	125.78
397.78	74.58
397.989	95.06
398.198	121.68
398.407	88.92
398.617	66.39
398.826	115.54
399.035	68.44
399.244	68.44
399.453	80.72
399.663	45.91
399.872	105.3
400.081	119.64
400.29	131.92
400.499	172.88
400.708	140.12
400.917	90.96
401.127	68.44
401.336	113.49
401.545	162.64
401.754	138.07
401.963	136.02
402.172	95.06
402.381	80.72
402.59	121.68
402.799	56.15
403.008	154.45
403.217	93.01
403.426	80.72
403.635	121.68
403.844	172.88
404.053	41.81
404.262	23.38
404.471	80.72
404.68	107.35
404.888	107.35
405.097	66.39
405.306	93.01
405.515	181.07
405.724	148.31
405.933	248.66
406.142	125.78
406.35	158.55
406.559	222.03
406.768	123.73
406.977	197.46
407.185	74.58
407.394	269.14
407.603	150.36
407.812	170.83
408.02	226.13
408.229	158.55
408.438	238.42
408.646	228.18
408.855	179.03
409.064	254.8
409.272	187.22
409.481	285.52
409.69	142.16
409.898	211.79
410.107	301.9
410.315	289.62
410.524	297.81
410.733	232.27
410.941	277.33
411.15	318.29
411.358	346.96
411.567	334.67
411.775	330.58
411.984	383.82
412.192	381.78
412.401	342.86
412.609	297.81
412.818	416.59
413.026	355.15
413.234	482.13
413.443	318.29
413.651	387.92
413.86	430.93
414.068	518.99
414.276	432.97
414.485	504.65
414.693	553.8
414.901	607.05
415.11	510.8
415.318	564.04
415.526	471.89
415.734	641.87
415.943	523.09
416.151	746.31
416.359	529.23
416.567	668.49
416.776	674.64
416.984	809.8
417.192	867.14
417.4	764.75
417.608	744.27
417.817	830.28
418.025	836.42
418.233	916.3
418.441	852.81
418.649	990.02
418.857	1014.6
419.065	973.64
419.273	996.17
419.481	1012.55
419.689	1112.9
419.897	1110.85
420.105	1076.04
420.313	1178.44
420.521	1217.35
420.729	1194.82
420.937	1309.51
421.145	1289.03
421.353	1372.99
421.561	1459.01
421.769	1569.6
421.977	1532.73
422.185	1663.8
422.393	1622.84
422.601	1768.25
422.809	1715
423.017	1729.34
423.224	1839.93
423.432	1993.53
423.64	1841.98
423.848	2073.4
424.056	2046.77
424.263	2179.89
424.471	2186.04
424.679	2267.95
424.887	2251.57
425.094	2345.78
425.302	2487.09
425.51	2446.13
425.718	2612.01
425.925	2667.31
426.133	2659.12
426.341	2859.82
426.548	3021.61
426.756	2962.22
426.964	2956.07
427.171	3173.16
427.379	3234.6
427.586	3402.53
427.794	3339.04
428.001	3633.95
428.209	3597.09
428.417	3558.18
428.624	3963.67
428.832	3955.48
429.039	3744.54
429.247	3914.52
429.454	4291.35
429.662	4586.26
429.869	4301.59
430.076	4541.2
430.284	4246.29
430.491	4662.03
430.699	4909.83
430.906	4754.19
431.114	4856.59
431.321	5145.35
431.528	5176.07
431.736	5528.32
431.943	5776.13
432.15	5516.03
432.358	5524.23
432.565	5995.26
432.772	5849.85
432.979	6177.53
433.187	6339.32
433.394	6406.9
433.601	6855.4
433.808	6855.4
434.016	6882.03
434.223	7047.91
434.43	7564
434.637	7555.81
434.844	7793.37
435.052	7944.92
435.259	7854.81
435.466	8137.43
435.673	8067.8
435.88	8313.56
436.087	8983.24
436.294	8821.45
436.501	8579.79
436.708	8805.07
436.915	9106.12
437.122	9464.52
437.329	9464.52
437.537	9546.44
437.743	10009.28
437.95	9931.45
438.157	10339
438.364	10885.81
438.571	10697.39
438.778	10787.5
438.985	11762.34
439.192	11279.02
439.399	11850.4
439.606	11377.32
439.813	12255.9
440.02	12872.34
440.227	12655.25
440.433	12538.52
440.64	12925.58
440.847	12675.73
441.054	13146.76
441.261	14060.16
441.467	13795.97
441.674	14033.54
441.881	14350.97
442.088	14445.18
442.294	14334.59
442.501	14692.98
442.708	15065.71
442.914	15567.46
443.121	16224.86
443.328	15643.24
443.534	16992.85
443.741	16550.49
443.948	16132.7
444.154	17404.49
444.361	17338.96
444.568	17615.43
444.774	17392.2
444.981	17615.43
445.187	17984.07
445.394	19100.21
445.6	18774.58
445.807	20460.06
446.013	19653.16
446.22	19515.95
446.426	20822.55
446.633	20744.73
446.839	21576.2
447.046	20425.25
447.252	21973.51
447.459	22149.64
447.665	22055.43
447.871	22741.5
448.078	23779.82
448.284	22567.42
448.491	23368.18
448.697	24519.14
448.903	24658.4
449.11	24807.9
449.316	24558.05
449.522	25072.09
449.728	25405.91
449.935	25739.72
450.141	25620.94
450.347	26139.08
450.553	25573.84
450.76	25995.72
450.966	26933.69
451.172	26558.91
451.378	26900.92
451.584	26847.68
451.791	27431.35
451.997	27081.14
452.203	27513.27
452.409	27627.95
452.615	27496.88
452.821	26767.8
453.027	26319.3
453.233	27967.91
453.44	26870.2
453.646	27113.91
453.852	27126.2
454.058	27578.8
454.264	26988.99
454.47	27597.23
454.676	26743.23
454.882	27562.42
455.088	25493.97
455.294	25346.51
455.5	26024.39
455.705	26759.61
455.911	25194.96
456.117	25043.42
456.323	24748.51
456.529	23314.93
456.735	24410.59
456.941	23859.69
457.147	23323.12
457.352	22772.22
457.558	22592
457.764	22583.8
457.97	22178.31
458.176	21580.3
458.381	21942.79
458.587	20460.06
458.793	20802.07
458.999	19745.32
459.204	21090.84
459.41	20038.18
459.616	18987.57
459.821	18938.42
460.027	18942.52
460.233	18571.83
460.438	17760.84
460.644	17941.06
460.85	17293.9
461.055	16829.01
461.261	16853.59
461.466	15491.69
461.672	15096.43
461.878	16040.54
462.083	15129.2
462.289	14967.41
462.494	14744.18
462.7	14269.05
462.905	13943.42
463.111	14234.24
463.316	14129.79
463.522	13814.4
463.727	13918.85
463.932	13992.58
464.138	13732.48
464.343	13730.44
464.549	13417.1
464.754	13740.68
464.959	13757.06
465.165	13769.35
465.37	12999.31
465.575	12649.11
465.781	13140.62
465.986	13257.36
466.191	12651.16
466.397	12495.51
466.602	11856.54
466.807	12358.3
467.012	12561.05
467.218	12253.85
467.423	12173.98
467.628	12305.05
467.833	12741.27
468.038	12311.19
468.244	11772.58
468.449	12659.35
468.654	12239.51
468.859	12032.67
469.064	12057.25
469.269	11532.97
469.474	11397.8
469.679	11905.7
469.885	11567.78
470.09	11578.02
470.295	11350.7
470.5	11424.42
470.705	11299.5
470.91	11090.6
471.115	11027.12
471.32	11086.51
471.525	11090.6
471.73	10828.46
471.935	10830.51
472.139	10631.86
472.344	10713.78
472.549	10371.77
472.754	10314.42
472.959	10193.59
473.164	9939.65
473.369	9855.68
473.574	10422.97
473.778	10054.33
473.983	9882.3
474.188	10046.14
474.393	9573.06
474.598	9362.12
474.802	9501.38
475.007	9317.06
475.212	9550.53
475.417	9120.46
475.621	9069.26
475.826	9165.51
476.031	9024.2
476.235	8866.51
476.44	9085.64
476.645	8755.92
476.849	8731.34
477.054	8790.74
477.259	8485.59
477.463	8641.23
477.668	8174.3
477.872	8538.84
478.077	8272.6
478.282	8067.8
478.486	8217.3
478.691	7981.79
478.895	8032.99
479.1	7916.25
479.304	7654.11
479.509	7686.88
479.713	7906.01
479.918	7570.15
480.122	7535.33
480.326	7604.96
480.531	7551.71
480.735	7707.36
480.94	7430.88
481.144	7641.82
481.348	7332.58
481.553	7396.07
481.757	7351.01
481.961	7367.4
482.166	7633.63
482.37	7224.04
482.574	7381.73
482.778	7346.92
482.983	7412.45
483.187	7422.69
483.391	7338.73
483.595	7412.45
483.8	7232.23
484.004	7412.45
484.208	7480.04
484.412	7437.03
484.616	7215.85
484.821	7289.57
485.025	7150.31
485.229	7346.92
485.433	7301.86
485.637	7162.6
485.841	7160.55
486.045	7174.89
486.249	7265
486.453	7195.37
486.657	7408.36
486.861	7279.33
487.065	7215.85
487.269	7305.96
487.473	7129.83
487.677	7342.82
487.881	7330.53
488.085	7203.56
488.289	7383.78
488.493	7379.68
488.697	7277.29
488.901	7297.77
489.105	7469.8
489.309	7396.07
489.512	7377.64
489.716	7518.95
489.92	7258.85
490.124	7430.88
490.328	7533.28
490.531	7457.51
490.735	7514.85
490.939	7590.63
491.143	7416.55
491.346	7455.46
491.55	7873.25
491.754	7568.1
491.958	7820
492.161	7633.63
492.365	7709.41
492.569	7645.92
492.772	7781.09
492.976	7899.87
493.18	7822.05
493.383	7969.5
493.587	8022.75
493.79	7910.11
493.994	8061.66
494.197	8010.46
494.401	8133.34
494.605	8254.17
494.808	8430.29
495.012	8149.72
495.215	8428.24
495.419	8223.45
495.622	8389.33
495.825	8561.36
496.029	8501.97
496.232	8708.82
496.436	8456.92
496.639	8805.07
496.843	8790.74
497.046	8925.9
497.249	9157.32
497.453	9065.16
497.656	9241.29
497.859	9259.72
498.063	9405.13
498.266	9657.03
498.469	9503.43
498.673	9685.7
498.876	9784
499.079	9843.39
499.282	9923.26
499.485	10246.84
499.689	10371.77
499.892	10128.06
500.095	10390.2
500.298	10656.43
500.501	10445.49
500.705	10807.98
500.908	10975.92
501.111	10889.9
501.314	11184.81
501.517	11387.56
501.72	11291.31
501.923	11489.96
502.126	11780.77
502.329	11877.02
502.532	11811.49
502.735	11887.26
502.938	12251.8
503.141	12337.82
503.344	12427.93
503.547	12511.89
503.75	12714.64
503.953	12765.84
504.156	13007.5
504.359	13091.47
504.562	13230.73
504.765	13392.52
504.968	13640.33
505.17	13730.44
505.373	13757.06
505.576	14137.98
505.779	14060.16
505.982	14228.09
506.185	14541.43
506.387	14527.1
506.59	14592.63
506.793	14957.17
506.996	14981.74
507.198	15610.47
507.401	15424.11
507.604	15559.27
507.807	15991.39
508.009	15821.41
508.212	16173.66
508.415	16431.71
508.617	16364.12
508.82	16521.82
509.022	16534.11
509.225	17218.13
509.428	17123.92
509.63	17214.03
509.833	17412.68
510.035	17814.09
510.238	17791.56
510.44	17988.16
510.643	18184.77
510.845	18299.45
511.048	18049.6
511.25	18459.2
511.453	18776.63
511.655	19487.28
511.858	19374.64
512.06	19532.33
512.262	19644.97
512.465	19663.4
512.667	19626.54
512.87	20073
513.072	20343.33
513.274	20507.16
513.477	20605.47
513.679	20847.13
513.881	21213.71
514.084	21516.81
514.286	21445.13
514.488	21504.53
514.69	22014.47
514.893	22153.73
515.095	22286.85
515.297	22700.54
515.499	22700.54
515.701	23087.61
515.904	23075.32
516.106	23271.92
516.308	23450.1
516.51	23828.97
516.712	23888.36
516.914	24465.89
517.116	24269.28
517.318	24809.95
517.52	24791.52
517.722	25008.6
517.925	25321.94
518.127	25938.38
518.329	25561.55
518.531	25590.22
518.733	26053.06
518.935	26495.43
519.136	26431.94
519.338	26669.5
519.54	26958.27
519.742	26962.36
519.944	27331
520.146	27664.82
520.348	27806.13
520.55	27910.57
520.752	27775.41
520.954	28438.95
521.155	28221.86
521.357	29122.97
521.559	29176.22
521.761	29286.81
521.963	29354.39
522.164	29645.2
522.366	29565.33
522.568	29880.72
522.77	29948.3
522.971	30673.28
523.173	30329.22
523.375	30714.24
523.576	30433.67
523.778	30751.1
523.98	30859.65
524.181	31474.04
524.383	31859.06
524.584	31900.01
524.786	31795.57
524.988	31975.79
525.189	32125.29
525.391	32229.74
525.592	32635.24
525.794	32668
525.995	32807.26
526.197	32919.9
526.398	32751.97
526.6	33581.4
526.801	33067.36
527.003	33237.34
527.204	33640.79
527.406	33730.9
527.607	33839.44
527.808	34091.34
528.01	33565.01
528.211	33843.54
528.412	34455.88
528.614	34316.62
528.815	34099.53
529.016	34449.74
529.218	34195.79
529.419	34494.79
529.62	34816.32
529.822	34384.2
530.023	34453.83
530.224	34597.19
530.425	34738.5
530.626	34466.12
530.828	34670.92
531.029	35244.35
531.23	34963.78
531.431	35070.27
531.632	35072.32
531.833	34601.29
532.035	34931.01
532.236	35246.4
532.437	35268.92
532.638	34980.16
532.839	35205.44
533.04	35576.12
533.241	35080.51
533.442	35565.88
533.643	35309.88
533.844	35383.61
534.045	35326.27
534.246	35033.41
534.447	35565.88
534.648	35234.11
534.849	35733.81
535.05	35148.09
535.251	35522.87
535.451	35463.48
535.652	35713.33
535.853	35830.07
536.054	35514.68
536.255	35668.28
536.456	35332.41
536.657	35719.48
536.857	35283.26
537.058	35498.3
537.259	35742
537.46	35856.69
537.66	35752.24
537.861	35426.62
538.062	35582.26
538.263	35860.79
538.463	35371.32
538.664	35746.1
538.865	35733.81
539.065	35727.67
539.266	35207.48
539.466	35934.51
539.667	35449.14
539.868	35678.52
540.068	35213.63
540.269	35815.73
540.469	35868.98
540.67	35895.6
540.87	35424.57
541.071	35197.24
541.271	35764.53
541.472	35801.4
541.672	35395.9
541.873	35133.76
542.073	35180.86
542.274	35686.71
542.474	35508.54
542.675	35354.94
542.875	35406.14
543.075	35359.03
543.276	35426.62
543.476	35805.49
543.676	35346.75
543.877	35297.59
544.077	35647.8
544.277	35369.27
544.478	35467.58
544.678	35512.63
544.878	35273.02
545.078	35344.7
545.279	35328.31
545.479	35262.78
545.679	35068.22
545.879	35006.78
546.079	35531.06
546.28	35111.23
546.48	34994.5
546.68	35240.25
546.88	35295.55
547.08	35291.45
547.28	34879.81
547.48	34945.34
547.68	35199.29
547.88	34890.05
548.081	35283.26
548.281	35014.98
548.481	34801.99
548.681	35301.69
548.881	34830.66
549.081	35377.47
549.28	34920.77
549.48	35252.54
549.68	35115.33
549.88	35443
550.08	34990.4
550.28	35232.06
550.48	35055.93
550.68	35344.7
550.88	35217.72
551.08	35096.89
551.279	35195.2
551.479	34844.99
551.679	35268.92
551.879	34685.25
552.079	34912.58
552.278	34922.82
552.478	35109.18
552.678	35152.19
552.878	35230.01
553.077	34974.02
553.277	34683.2
553.477	35137.85
553.676	34826.56
553.876	34658.63
554.076	34771.27
554.275	34462.02
554.475	34566.47
554.674	34804.03
554.874	34724.16
555.074	34869.57
555.273	34668.87
555.473	34623.81
555.672	34664.77
555.872	34427.21
556.071	34543.94
556.271	34654.53
556.47	34289.99
556.67	34404.68
556.869	34240.84
557.068	34543.94
557.268	34144.59
557.467	34181.45
557.667	34333
557.866	34697.54
558.065	34222.41
558.265	34154.83
558.464	33599.83
558.663	34619.72
558.863	33474.9
559.062	34077.01
559.261	33702.23
559.461	34371.91
559.66	33714.51
559.859	34017.61
560.058	33722.71
560.258	34148.68
560.457	33276.25
560.656	33630.55
560.855	33610.07
561.054	33591.64
561.253	33100.12
561.453	33339.74
561.652	33319.26
561.851	33640.79
562.05	33227.1
562.249	32985.44
562.448	33184.09
562.647	33218.91
562.846	33505.62
563.045	33075.55
563.244	32622.95
563.443	33323.35
563.642	32299.37
563.841	32778.59
564.04	32749.92
564.239	33083.74
564.438	32541.03
564.637	32913.76
564.836	32639.33
565.035	32651.62
565.234	32919.9
565.432	32510.31
565.631	32119.15
565.83	32602.47
566.029	32334.18
566.228	32264.55
566.427	32041.32
566.625	32051.56
566.824	32061.8
567.023	32237.93
567.222	31531.38
567.42	32389.48
567.619	31818.1
567.818	31795.57
568.016	31732.08
568.215	31934.83
568.414	31750.51
568.612	31611.25
568.811	31523.19
569.01	31766.9
569.208	31107.45
569.407	31730.03
569.605	30988.67
569.804	31361.4
570.002	30943.61
570.201	30763.39
570.4	31193.47
570.598	30677.38
570.797	30697.86
570.995	30888.32
571.193	30462.34
571.392	30794.11
571.59	30298.5
571.789	30208.39
571.987	30220.68
572.186	30255.5
572.384	30058.89
572.582	30278.02
572.781	30149
572.979	29495.7
573.177	29989.26
573.376	30132.62
573.574	29589.91
573.772	30044.55
573.971	29614.48
574.169	29522.32
574.367	29401.49
574.565	29677.97
574.763	29505.94
574.962	29493.65
575.16	29211.03
575.358	29139.35
575.556	28916.12
575.754	29135.26
575.952	28592.55
576.151	28918.17
576.349	28744.09
576.547	29075.87
576.745	28934.56
576.943	28733.85
577.141	28602.78
577.339	28281.25
577.537	28273.06
577.735	28373.41
577.933	28297.64
578.131	28430.76
578.329	28078.5
578.527	27926.96
578.725	28076.46
578.923	28012.97
579.121	27965.87
579.319	27673.01
579.516	27812.27
579.714	27732.4
579.912	27857.32
580.11	27496.88
580.308	27548.08
580.506	27593.14
580.704	26812.86
580.901	27220.41
581.099	27447.73
581.297	27161.01
581.495	27247.03
581.692	26896.83
581.89	27060.66
582.088	26927.55
582.285	26763.71
582.483	26995.13
582.681	26710.46
582.878	26554.82
583.076	26159.56
583.274	26491.33
583.471	26323.4
583.669	26452.42
583.866	26249.67
584.064	26352.07
584.262	26221
584.459	25969.1
584.657	25758.16
584.854	25903.56
585.052	25471.44
585.249	25860.55
585.447	25549.26
585.644	25678.29
585.841	25504.21
586.039	25811.4
586.236	25276.88
586.434	25072.09
586.631	25283.03
586.828	25481.68
587.026	25090.52
587.223	25244.12
587.42	24791.52
587.618	24893.91
587.815	24525.28
588.012	25172.44
588.21	24809.95
588.407	24938.97
588.604	24713.69
588.801	24410.59
588.999	24580.57
589.196	24478.18
589.393	24623.58
589.59	24203.75
589.787	24074.73
589.984	24267.24
590.182	23955.94
590.379	24107.49
590.576	23882.22
590.773	24127.97
590.97	24119.78
591.167	23839.21
591.364	23470.58
591.561	23554.54
591.758	23345.65
591.955	23683.56
592.152	23570.93
592.349	23212.53
592.546	23509.49
592.743	23233.01
592.94	22956.54
593.137	23138.8
593.334	23446
593.531	23067.13
593.727	22837.75
593.924	22905.34
594.121	22458.88
594.318	22733.31
594.515	22381.06
594.712	23003.64
594.908	22395.39
595.105	22561.28
595.302	22157.83
595.499	22469.12
595.696	22102.53
595.892	22129.16
596.089	22544.89
596.286	22239.75
596.482	21854.73
596.679	21977.61
596.876	21797.38
597.072	21981.7
597.269	21721.61
597.466	21713.42
597.662	21641.74
597.859	21893.64
598.055	21570.06
598.252	21379.6
598.448	21318.16
598.645	21256.72
598.841	21084.69
599.038	21185.04
599.234	21301.78
599.431	21070.36
599.627	20931.09
599.824	20947.48
600.02	20781.59
600.217	20795.93
600.413	20732.44
600.609	20607.51
600.806	20484.64
601.002	20886.04
601.198	20410.91
601.395	20230.69
601.591	20247.07
601.787	20494.88
601.984	20197.92
602.18	20535.84
602.376	20128.29
602.572	19884.58
602.769	20085.28
602.965	19958.31
603.161	19931.69
603.357	19714.6
603.553	19655.21
603.75	19530.28
603.946	19423.79
604.142	19644.97
604.338	19403.31
604.534	19540.52
604.73	19272.24
604.926	19286.58
605.122	19274.29
605.318	19182.13
605.514	19184.18
605.71	18819.64
605.906	19290.67
606.102	19038.77
606.298	19112.5
606.494	18960.95
606.69	19096.11
606.886	18922.04
607.082	18889.27
607.278	18790.97
607.474	18756.15
607.67	18833.97
607.866	18451
608.062	18526.78
608.257	18362.94
608.453	18270.78
608.649	18727.48
608.845	18350.65
609.041	18332.22
609.236	18348.61
609.432	18172.48
609.628	18229.82
609.824	18180.67
610.019	17971.78
610.215	17881.67
610.411	18168.38
610.606	17992.26
610.802	17779.27
610.998	17965.64
611.193	17857.09
611.389	17828.42
611.584	17693.26
611.78	17848.9
611.976	17621.58
612.171	17750.6
612.367	17324.62
612.562	17355.34
612.758	17394.25
612.953	17377.87
613.149	17613.38
613.344	17302.09
613.539	17646.15
613.735	17539.66
613.93	17539.66
614.126	17343.05
614.321	17478.22
614.517	17422.92
614.712	17275.47
614.907	17234.51
615.103	17168.98
615.298	17371.72
615.493	17506.89
615.688	16923.22
615.884	17486.41
616.079	16988.75
616.274	17097.3
616.47	17066.58
616.665	16890.45
616.86	16921.17
617.055	16783.96
617.25	16689.75
617.445	16714.33
617.641	16695.89
617.836	16814.68
618.031	16562.78
618.226	16781.91
618.421	16443.99
618.616	16476.76
618.811	16337.5
619.006	16546.39
619.201	16202.33
619.396	16372.32
619.591	15956.58
619.786	15925.86
619.981	15882.85
620.176	16122.46
620.371	15667.81
620.566	15886.95
620.761	15721.06
620.956	15983.2
621.151	15696.49
621.346	15544.94
621.541	15377
621.735	15483.5
621.93	15139.44
622.125	15200.88
622.32	15086.19
622.515	14871.15
622.709	15129.2
622.904	14985.84
623.099	14942.83
623.294	14977.65
623.488	14645.88
623.683	14699.13
623.878	14723.7
624.072	14441.08
624.267	14406.27
624.462	14490.23
624.656	14303.87
624.851	14209.66
625.046	14205.56
625.24	14191.23
625.435	13920.9
625.629	13822.59
625.824	13857.41
626.018	13777.54
626.213	13714.05
626.407	13564.55
626.602	13404.81
626.796	13441.67
626.991	13595.27
627.185	13376.14
627.38	13204.11
627.574	12925.58
627.768	12984.98
627.963	12968.59
628.157	12849.81
628.352	13056.65
628.546	12685.97
628.74	12833.43
628.935	12370.58
629.129	12597.91
629.323	12368.54
629.517	12548.76
629.712	12409.5
629.906	12135.07
630.1	12145.31
630.294	12284.57
630.489	11963.04
630.683	12069.53
630.877	11805.35
631.071	11793.06
631.265	12004
631.459	11780.77
631.653	11659.94
631.848	11741.86
632.042	11731.62
632.236	11711.14
632.43	11547.3
632.624	11436.71
632.818	11420.33
633.012	11319.98
633.206	11397.8
633.4	11479.72
633.594	11209.39
633.788	11240.11
633.982	11264.68
634.176	10918.57
634.369	10971.82
634.563	10908.33
634.757	10797.74
634.951	10820.27
635.145	10656.43
635.339	10797.74
635.533	10402.49
635.726	10480.31
635.92	10578.61
636.114	10541.75
636.308	10267.32
636.501	10355.38
636.695	10425.01
636.889	10207.93
637.083	10250.94
637.276	9984.7
637.47	9915.07
637.664	9898.69
637.857	9984.7
638.051	9896.64
638.244	9837.25
638.438	9779.9
638.632	9759.42
638.825	9718.47
639.019	9577.16
639.212	9521.86
639.406	9525.96
639.599	9458.37
639.793	9433.8
639.986	9329.35
640.18	9284.3
640.373	9374.41
640.567	9190.09
640.76	9018.06
640.954	9159.37
641.147	8735.44
641.34	8932.05
641.534	9210.57
641.727	8774.35
641.92	8889.04
642.114	8807.12
642.307	8956.62
642.5	8921.81
642.694	8506.07
642.887	8407.77
643.08	8727.25
643.273	8585.94
643.467	8428.24
643.66	8305.37
643.853	8379.09
644.046	8403.67
644.239	8278.74
644.432	8233.69
644.626	8397.53
644.819	8086.23
645.012	8235.74
645.205	7981.79
645.398	7994.08
645.591	8088.28
645.784	8121.05
645.977	7918.3
646.17	8041.18
646.363	7717.6
646.556	7803.61
646.749	7725.79
646.942	7846.62
647.135	7733.98
647.328	7527.14
647.521	7488.23
647.714	7631.58
647.907	7486.18
648.099	7348.97
648.292	7469.8
648.485	7570.15
648.678	7318.25
648.871	7265
649.064	7219.94
649.256	7277.29
649.449	6996.71
649.642	7035.63
649.835	6882.03
650.027	7084.78
650.22	7011.05
650.413	7054.06
650.605	7011.05
650.798	6849.26
650.991	6822.64
651.183	6933.23
651.376	6683.38
651.568	6902.51
651.761	6777.58
651.954	6767.34
652.146	6550.26
652.339	6820.59
652.531	6666.99
652.724	6494.96
652.916	6546.16
653.109	6466.29
653.301	6566.64
653.494	6374.13
653.686	6394.61
653.879	6257.4
654.071	6339.32
654.263	6341.36
654.456	6150.9
654.648	6253.3
654.84	6232.82
655.033	5958.39
655.225	6019.83
655.417	6036.22
655.61	6011.64
655.802	6066.94
655.994	6087.42
656.186	6036.22
656.379	5804.8
656.571	5753.6
656.763	5884.67
656.955	5724.93
657.148	5667.58
657.34	5790.46
657.532	5632.77
657.724	5651.2
657.916	5718.78
658.108	5561.09
658.3	5565.18
658.492	5458.69
658.684	5450.5
658.876	5561.09
659.068	5339.91
659.26	5360.39
659.452	5315.33
659.644	5475.07
659.836	5372.68
660.028	5354.24
660.22	5128.97
660.412	5178.12
660.604	5180.17
660.796	5143.3
660.988	5247.75
661.18	5112.58
661.372	5069.58
661.563	5057.29
661.755	5020.42
661.947	5004.04
662.139	4934.41
662.331	4913.93
662.522	4825.87
662.714	4905.74
662.906	4991.75
663.097	4858.64
663.289	4717.33
663.481	4668.17
663.673	4825.87
663.864	4621.07
664.056	4653.84
664.247	4657.93
664.439	4610.83
664.631	4535.06
664.822	4596.5
665.014	4545.3
665.205	4389.65
665.397	4440.85
665.588	4434.71
665.78	4492.05
665.971	4487.95
666.163	4512.53
666.354	4393.75
666.546	4399.89
666.737	4258.58
666.929	4330.26
667.12	4297.49
667.311	4182.81
667.503	4209.43
667.694	4221.72
667.885	4109.08
668.077	4150.04
668.268	4215.57
668.459	4045.59
668.651	3996.44
668.842	4023.06
669.033	4139.8
669.224	3879.71
669.416	4090.65
669.607	3889.95
669.798	3947.29
669.989	4053.78
670.18	4072.22
670.371	3965.72
670.563	3771.16
670.754	3996.44
670.945	3889.95
671.136	3795.74
671.327	3777.31
671.518	3777.31
671.709	3898.14
671.9	3832.6
672.091	3699.48
672.282	3664.67
672.473	3762.97
672.664	3881.75
672.855	3693.34
673.046	3781.4
673.237	3642.14
673.428	3642.14
673.619	3638.05
673.809	3681.05
674	3676.96
674.191	3656.48
674.382	3564.32
674.573	3531.55
674.764	3504.93
674.954	3568.41
675.145	3486.5
675.336	3427.11
675.527	3363.62
675.717	3488.54
675.908	3382.05
676.099	3484.45
676.289	3408.67
676.48	3455.78
676.671	3498.78
676.861	3398.43
677.052	3244.84
677.243	3363.62
677.433	3306.27
677.624	3300.13
677.814	3420.96
678.005	3353.38
678.195	3351.33
678.386	3218.21
678.576	3394.34
678.767	3185.44
678.957	3384.1
679.148	3293.99
679.338	3226.4
679.529	3103.53
679.719	3142.44
679.909	3250.98
680.1	3341.09
680.29	3214.12
680.481	3187.49
680.671	3289.89
680.861	3115.81
681.052	3124.01
681.242	3124.01
681.432	3179.3
681.622	3087.14
681.813	3132.2
682.003	3115.81
682.193	3148.58
682.383	3175.2
682.573	3162.92
682.764	3058.47
682.954	3093.29
683.144	3087.14
683.334	3021.61
683.524	3062.57
683.714	2984.74
683.904	3091.24
684.094	3023.66
684.284	3013.42
684.474	3154.73
684.664	3023.66
684.854	3031.85
685.044	3046.18
685.234	2931.5
685.424	3103.53
685.614	3093.29
685.804	2904.87
685.994	2927.4
686.184	2990.89
686.374	3058.47
686.564	2812.71
686.753	2921.26
686.943	2917.16
687.133	2800.43
687.323	2833.19
687.513	2882.35
687.702	2829.1
687.892	2702.12
688.082	2786.09
688.272	2767.66
688.461	2818.86
688.651	2779.95
688.841	2722.6
689.03	2771.76
689.22	2695.98
689.41	2718.51
689.599	2677.55
689.789	2677.55
689.979	2714.41
690.168	2736.94
690.358	2644.78
690.547	2607.92
690.737	2712.36
690.926	2669.36
691.116	2509.62
691.305	2673.45
691.495	2620.21
691.684	2618.16
691.874	2679.6
692.063	2622.25
692.252	2587.44
692.442	2626.35
692.631	2489.14
692.82	2624.3
693.01	2439.98
693.199	2612.01
693.388	2439.98
693.578	2419.5
693.767	2487.09
693.956	2487.09
694.146	2415.41
694.335	2399.02
694.524	2507.57
694.713	2474.8
694.902	2433.84
695.092	2403.12
695.281	2415.41
695.47	2489.14
695.659	2349.87
695.848	2347.83
696.037	2372.4
696.226	2392.88
696.415	2251.57
696.604	2366.26
696.793	2403.12
696.982	2423.6
697.171	2429.74
697.36	2276.15
697.549	2417.46
697.738	2390.83
697.927	2302.77
698.116	2327.35
698.305	2351.92
698.494	2401.07
698.683	2308.91
698.872	2388.78
699.061	2231.09
699.25	2407.22
699.438	2304.82
699.627	2229.04
699.816	2349.87
700.005	2335.54
700.193	2360.11
700.382	2278.19
700.571	2290.48
700.76	2253.62
700.948	2161.46
701.137	2261.81
701.326	2239.28
701.514	2284.34
701.703	2171.7
701.892	2233.14
702.08	2247.48
702.269	2341.68
702.457	2194.23
702.646	2179.89
702.834	2081.59
703.023	2169.65
703.212	2280.24
703.4	2120.5
703.589	2194.23
703.777	2290.48
703.965	2202.42
704.154	2210.61
704.342	2202.42
704.531	2106.17
704.719	2083.64
704.907	2198.32
705.096	2083.64
705.284	2044.73
705.472	2134.84
705.661	2075.45
705.849	2087.73
706.037	2040.63
706.226	2030.39
706.414	2145.08
706.602	2112.31
706.79	2169.65
706.979	2198.32
707.167	2024.25
707.355	2032.44
707.543	2071.35
707.731	2136.88
707.919	2100.02
708.107	2097.97
708.296	2091.83
708.484	2059.06
708.672	2169.65
708.86	2095.93
709.048	2149.17
709.236	2028.34
709.424	2003.77
709.612	2190.13
709.8	2016.05
709.988	2046.77
710.176	1991.48
710.364	2044.73
710.551	2014.01
710.739	2005.81
710.927	2026.29
711.115	1991.48
711.303	2050.87
711.491	2071.35
711.679	1971
711.866	2112.31
712.054	2046.77
712.242	1964.86
712.43	2075.45
712.617	1987.38
712.805	2145.08
712.993	2130.74
713.181	1868.6
713.368	2155.32
713.556	1940.28
713.744	1977.14
713.931	2077.49
714.119	2030.39
714.306	2042.68
714.494	1948.47
714.682	1909.56
714.869	1819.45
715.057	2083.64
715.244	1868.6
715.432	2190.13
715.619	1915.7
715.807	2046.77
715.994	2018.1
716.182	1956.66
716.369	1964.86
716.556	1973.05
716.744	1999.67
716.931	1862.46
717.119	2046.77
717.306	2001.72
717.493	2040.63
717.681	2009.91
717.868	2038.58
718.055	1903.42
718.242	1948.47
718.43	1852.22
718.617	1913.66
718.804	1956.66
718.991	2009.91
719.179	1936.18
719.366	2057.01
719.553	1948.47
719.74	1895.22
719.927	1950.52
720.114	1921.85
720.301	1960.76
720.488	1911.61
720.676	1868.6
720.863	2042.68
721.05	1966.9
721.237	1964.86
721.424	2054.97
721.611	2040.63
721.798	1964.86
721.985	1827.64
722.172	1846.07
722.358	1989.43
722.545	2034.49
722.732	1975.1
722.919	1940.28
723.106	1925.94
723.293	1813.31
723.48	1942.33
723.667	1936.18
723.853	1893.18
724.04	1934.14
724.227	1821.5
724.414	1852.22
724.6	1884.98
724.787	1858.36
724.974	1909.56
725.161	1944.38
725.347	1850.17
725.534	1954.62
725.72	1930.04
725.907	1792.83
726.094	1850.17
726.28	1801.02
726.467	1968.95
726.653	1878.84
726.84	1927.99
727.027	1923.9
727.213	1833.79
727.4	1729.34
727.586	1813.31
727.773	1973.05
727.959	1833.79
728.145	1796.92
728.332	1909.56
728.518	1788.73
728.705	1837.88
728.891	1878.84
729.077	1844.03
729.264	1809.21
729.45	1794.87
729.636	1983.29
729.823	1852.22
730.009	1850.17
730.195	1770.3
730.382	1884.98
730.568	1940.28
730.754	1948.47
730.94	1899.32
731.126	1788.73
731.313	1841.98
731.499	1882.94
731.685	1905.46
731.871	1772.35
732.057	1899.32
732.243	1858.36
732.429	1870.65
732.615	1870.65
732.801	1889.08
732.987	1829.69
733.173	1710.91
733.359	1768.25
733.545	1721.15
733.731	1825.59
733.917	1964.86
734.103	1801.02
734.289	1786.68
734.475	1790.78
734.661	1860.41
734.847	1794.87
735.033	1760.06
735.219	1700.67
735.404	1846.07
735.59	1719.1
735.776	1786.68
735.962	1760.06
736.148	1729.34
736.333	1809.21
736.519	1755.96
736.705	1825.59
736.89	1932.09
737.076	1821.5
737.262	1743.67
737.447	1766.2
737.633	1706.81
737.819	1776.44
738.004	1743.67
738.19	1741.63
738.375	1817.4
738.561	1725.24
738.747	1760.06
738.932	1751.87
739.118	1753.91
739.303	1794.87
739.489	1710.91
739.674	1696.57
739.859	1674.04
740.045	1760.06
740.23	1612.6
740.416	1624.89
740.601	1661.76
740.786	1682.24
740.972	1706.81
741.157	1725.24
741.342	1588.03
741.528	1661.76
741.713	1706.81
741.898	1647.42
742.084	1508.16
742.269	1628.99
742.454	1637.18
742.639	1731.39
742.824	1518.4
743.01	1608.51
743.195	1717.05
743.38	1547.07
743.565	1645.37
743.75	1620.8
743.935	1499.97
744.12	1575.74
744.305	1592.13
744.49	1495.87
744.675	1530.69
744.86	1604.41
745.045	1485.63
745.23	1616.7
745.415	1600.32
745.6	1618.75
745.785	1411.9
745.97	1631.04
746.155	1581.89
746.34	1510.21
746.525	1590.08
746.71	1532.73
746.895	1506.11
747.079	1424.19
747.264	1475.39
747.449	1442.62
747.634	1506.11
747.819	1497.92
748.003	1401.66
748.188	1395.52
748.373	1442.62
748.557	1399.62
748.742	1450.82
748.927	1481.53
749.111	1428.29
749.296	1393.47
749.481	1436.48
749.665	1340.22
749.85	1368.9
750.034	1405.76
750.219	1309.51
750.404	1246.02
750.588	1403.71
750.773	1315.65
750.957	1317.7
751.141	1229.63
751.326	1342.27
751.51	1297.22
751.695	1276.74
751.879	1350.46
752.064	1270.59
752.248	1286.98
752.432	1268.55
752.617	1162.05
752.801	1278.79
752.985	1162.05
753.17	1262.4
753.354	1229.63
753.538	1207.11
753.722	1137.48
753.907	1186.63
754.091	1203.01
754.275	1207.11
754.459	1157.96
754.643	1022.79
754.828	1088.32
755.012	1231.68
755.196	1200.96
755.38	1078.08
755.564	1145.67
755.748	1086.28
755.932	1045.32
756.116	1080.13
756.3	1131.33
756.484	1022.79
756.668	1190.72
756.852	1051.46
757.036	1043.27
757.22	1129.28
757.404	1030.98
757.588	1000.26
757.772	990.02
757.956	1080.13
758.14	1028.93
758.323	1039.17
758.507	977.73
758.691	953.16
758.875	994.12
759.059	1104.71
759.242	983.88
759.426	1006.41
759.61	936.78
759.794	932.68
759.977	973.64
760.161	1035.08
760.345	1039.17
760.528	1092.42
760.712	910.15
760.895	916.3
761.079	908.1
761.263	908.1
761.446	854.86
761.63	842.57
761.813	877.38
761.997	947.01
762.18	928.58
762.364	809.8
762.547	813.9
762.731	861
762.914	910.15
763.098	887.62
763.281	854.86
763.464	836.42
763.648	885.58
763.831	850.76
764.015	801.61
764.198	811.85
764.381	785.23
764.564	805.71
764.748	861
764.931	838.47
765.114	838.47
765.297	834.38
765.481	861
765.664	834.38
765.847	811.85
766.03	879.43
766.213	801.61
766.397	793.42
766.58	838.47
766.763	787.27
766.946	844.62
767.129	861
767.312	717.64
767.495	795.47
767.678	752.46
767.861	822.09
768.044	734.03
768.227	846.66
768.41	744.27
768.593	752.46
768.776	656.2
768.959	772.94
769.142	744.27
769.324	686.92
769.507	758.6
769.69	791.37
769.873	801.61
770.056	801.61
770.239	820.04
770.421	750.41
770.604	729.93
770.787	752.46
770.97	672.59
771.152	723.79
771.335	695.11
771.518	719.69
771.7	697.16
771.883	752.46
772.066	805.71
772.248	834.38
772.431	781.13
772.613	691.02
772.796	713.55
772.978	709.45
773.161	682.83
773.343	574.28
773.526	668.49
773.708	711.5
773.891	633.68
774.073	701.26
774.256	674.64
774.438	688.97
774.621	662.35
774.803	596.81
774.985	629.58
775.168	609.1
775.35	623.44
775.532	572.24
775.715	613.2
775.897	588.62
776.079	617.29
776.261	656.2
776.444	566.09
776.626	650.06
776.808	578.38
776.99	535.37
777.173	607.05
777.355	598.86
777.537	594.76
777.719	543.57
777.901	525.13
778.083	662.35
778.265	607.05
778.447	531.28
778.629	559.95
778.811	559.95
778.993	637.77
779.175	576.33
779.357	596.81
779.539	482.13
779.721	492.37
779.903	580.43
780.085	443.21
780.267	512.85
780.449	455.5
780.631	545.61
780.812	539.47
780.994	549.71
781.176	555.85
781.358	506.7
781.54	473.93
781.721	490.32
781.903	566.09
782.085	459.6
782.267	424.78
782.448	484.17
782.63	453.45
782.812	383.82
782.993	408.4
783.175	457.55
783.357	449.36
783.538	461.65
783.72	342.86
783.901	441.17
784.083	453.45
784.264	377.68
784.446	424.78
784.627	451.41
784.809	457.55
784.99	392.02
785.172	418.64
785.353	361.3
785.535	365.39
785.716	377.68
785.897	346.96
786.079	412.5
786.26	451.41
786.441	437.07
786.623	449.36
786.804	322.38
786.985	357.2
787.167	408.4
787.348	355.15
787.529	408.4
787.71	363.34
787.891	301.9
788.073	387.92
788.254	432.97
788.435	353.1
788.616	359.25
788.797	326.48
788.978	299.86
789.159	314.19
789.34	342.86
789.522	320.34
789.703	346.96
789.884	336.72
790.065	385.87
790.246	424.78
790.427	326.48
790.607	301.9
790.788	279.38
790.969	262.99
791.15	299.86
791.331	289.62
791.512	312.14
791.693	297.81
791.874	240.47
792.054	346.96
792.235	287.57
792.416	260.95
792.597	293.71
792.778	273.23
792.958	236.37
793.139	361.3
793.32	312.14
793.5	236.37
793.681	314.19
793.862	269.14
794.042	336.72
794.223	269.14
794.404	289.62
794.584	222.03
794.765	250.71
794.945	269.14
795.126	346.96
795.306	285.52
795.487	260.95
795.667	310.1
795.848	293.71
796.028	195.41
796.209	260.95
796.389	295.76
796.57	215.89
796.75	219.99
796.93	260.95
797.111	248.66
797.291	207.7
797.471	310.1
797.652	244.56
797.832	207.7
798.012	262.99
798.192	215.89
798.373	148.31
798.553	293.71
798.733	256.85
798.913	252.75
799.093	279.38
799.274	236.37
799.454	230.23
799.634	326.48
799.814	252.75
799.994	224.08
800.174	160.59
800.354	254.8
800.534	197.46
800.714	310.1
800.894	185.17
801.074	269.14
801.254	162.64
801.434	252.75
801.614	164.69
801.794	199.51
801.974	826.18
802.154	187.22
802.334	236.37
802.514	154.45
802.693	275.28
802.873	156.5
803.053	326.48
803.233	207.7
803.413	213.84
803.592	205.65
803.772	201.55
803.952	215.89
804.131	179.03
804.311	285.52
804.491	156.5
804.67	148.31
804.85	211.79
805.03	207.7
805.209	238.42
805.389	109.4
805.568	176.98
805.748	103.25
805.928	232.27
806.107	142.16
806.287	213.84
806.466	131.92
806.646	140.12
806.825	146.26
807.004	133.97
807.184	164.69
807.363	181.07
807.543	97.11
807.722	88.92
807.901	219.99
808.081	209.75
808.26	181.07
808.439	213.84
808.619	170.83
808.798	117.59
808.977	142.16
809.156	146.26
809.336	133.97
809.515	191.31
809.694	232.27
809.873	168.79
810.052	109.4
810.231	209.75
810.411	113.49
810.59	164.69
810.769	133.97
810.948	123.73
811.127	99.16
811.306	166.74
811.485	162.64
811.664	224.08
811.843	148.31
812.022	107.35
812.201	113.49
812.38	127.83
812.559	166.74
812.737	105.3
812.916	183.12
813.095	191.31
813.274	123.73
813.453	140.12
813.632	121.68
813.811	187.22
813.989	80.72
814.168	254.8
814.347	39.76
814.526	133.97
814.704	205.65
814.883	142.16
815.062	133.97
815.24	162.64
815.419	133.97
815.598	123.73
815.776	17.24
815.955	187.22
816.133	103.25
816.312	17.24
816.49	113.49
816.669	187.22
816.847	88.92
817.026	121.68
817.204	90.96
817.383	109.4
817.561	109.4
817.74	80.72
817.918	101.2
818.097	133.97
818.275	113.49
818.453	148.31
818.632	93.01
818.81	142.16
818.988	95.06
819.167	84.82
819.345	111.44
819.523	125.78
819.701	125.78
819.879	138.07
820.058	185.17
820.236	115.54
820.414	80.72
820.592	121.68
820.77	68.44
820.948	140.12
821.127	88.92
821.305	97.11
821.483	107.35
821.661	123.73
821.839	205.65
822.017	19.29
822.195	90.96
822.373	123.73
822.551	111.44
822.729	162.64
822.907	84.82
823.085	99.16
823.262	131.92
823.44	64.34
823.618	43.86
823.796	179.03
823.974	123.73
824.152	109.4
824.329	27.48
824.507	150.36
824.685	119.64
824.863	52.05
825.04	68.44
825.218	125.78
825.396	64.34
825.574	68.44
825.751	68.44
825.929	105.3
826.107	58.2
826.284	64.34
826.462	146.26
826.639	39.76
826.817	-25.77
826.994	74.58
827.172	7
827.349	88.92
827.527	99.16
827.704	148.31
827.882	66.39
828.059	138.07
828.237	11.09
828.414	47.96
828.591	105.3
828.769	113.49
828.946	82.77
829.124	140.12
829.301	68.44
829.478	90.96
829.655	15.19
829.833	80.72
830.01	58.2
830.187	107.35
830.364	121.68
830.542	121.68
830.719	72.53
830.896	60.24
831.073	146.26
831.25	80.72
831.427	66.39
831.604	-25.77
831.782	82.77
831.959	88.92
832.136	72.53
832.313	86.87
832.49	41.81
832.667	191.31
832.844	64.34
833.021	109.4
833.198	107.35
833.374	74.58
833.551	82.77
833.728	50
833.905	76.63
834.082	105.3
834.259	62.29
834.436	113.49
834.612	64.34
834.789	82.77
834.966	43.86
835.143	74.58
835.319	45.91
835.496	56.15
835.673	115.54
835.85	109.4
836.026	0.85
836.203	123.73
836.38	72.53
836.556	45.91
836.733	35.67
836.909	156.5
837.086	23.38
837.262	107.35
837.439	27.48
837.616	76.63
837.792	74.58
837.968	9.05
838.145	-1.19
838.321	97.11
838.498	43.86
838.674	172.88
838.851	97.11
839.027	47.96
839.203	47.96
839.38	68.44
839.556	39.76
839.732	117.59
839.909	58.2
840.085	64.34
840.261	37.72
840.437	7
840.614	45.91
840.79	74.58
840.966	-23.72
841.142	33.62
841.318	72.53
841.494	47.96
841.671	74.58
841.847	41.81
842.023	-25.77
842.199	80.72
842.375	60.24
842.551	58.2
842.727	19.29
842.903	105.3
843.079	41.81
843.255	50
843.431	52.05
843.607	15.19
843.783	25.43
843.959	88.92
844.134	58.2
844.31	64.34
844.486	-21.67
844.662	113.49
844.838	39.76
845.013	105.3
845.189	64.34
845.365	7
845.541	64.34
845.716	133.97
845.892	70.48
846.068	-9.39
846.244	-9.39
846.419	113.49
846.595	-101.55
846.77	-13.48
846.946	97.11
847.122	33.62
847.297	78.68
847.473	56.15
847.648	-50.35
847.824	39.76
847.999	9.05
848.175	7
848.35	58.2
848.526	50
848.701	21.33
848.876	31.57
849.052	93.01
849.227	72.53
849.403	-1.19
849.578	50
849.753	76.63
849.929	60.24
850.104	-29.87
850.279	93.01
850.454	60.24
850.63	52.05
850.805	52.05
850.98	43.86
851.155	56.15
851.33	72.53
851.505	15.19
851.681	25.43
851.856	35.67
852.031	39.76
852.206	15.19
852.381	4.95
852.556	23.38
852.731	17.24
852.906	82.77
853.081	88.92
853.256	23.38
853.431	-48.3
853.606	-23.72
853.781	64.34
853.956	11.09
854.131	84.82
854.305	-1.19
854.48	74.58
854.655	88.92
854.83	-9.39
855.005	39.76
855.18	25.43
855.354	76.63
855.529	50
855.704	76.63
855.879	54.1
856.053	11.09
856.228	125.78
856.403	47.96
856.577	64.34
856.752	25.43
856.926	50
857.101	97.11
857.276	-25.77
857.45	70.48
857.625	80.72
857.799	54.1
857.974	39.76
858.148	-50.35
858.323	-27.82
858.497	-33.96
858.672	41.81
858.846	17.24
859.02	68.44
859.195	11.09
859.369	25.43
859.543	86.87
859.718	41.81
859.892	47.96
860.066	41.81
860.241	0.85
860.415	-31.91
860.589	88.92
860.763	125.78
860.938	58.2
861.112	13.14
861.286	-42.15
861.46	-21.67
861.634	-42.15
861.808	41.81
861.982	23.38
862.157	50
862.331	-13.48
862.505	-23.72
862.679	76.63
862.853	60.24
863.027	35.67
863.201	84.82
863.375	17.24
863.549	66.39
863.722	-33.96
863.896	25.43
864.07	50
864.244	17.24
864.418	39.76
864.592	33.62
864.766	52.05
864.939	56.15
865.113	47.96
865.287	64.34
865.461	15.19
865.634	47.96
865.808	39.76
865.982	47.96
866.156	-70.83
866.329	-15.53
866.503	39.76
866.676	7
866.85	52.05
867.024	-9.39
867.197	56.15
867.371	50
867.544	31.57
867.718	-13.48
867.891	56.15
868.065	-19.63
868.238	2.9
868.412	56.15
868.585	31.57
868.759	29.52
868.932	-81.07
869.105	82.77
869.279	58.2
869.452	97.11
869.625	41.81
869.799	-29.87
869.972	-46.25
870.145	23.38
870.319	74.58
870.492	62.29
870.665	7
870.838	-13.48
871.011	-1.19
871.185	35.67
871.358	-3.24
871.531	56.15
871.704	-17.58
871.877	0.85
872.05	11.09
872.223	-15.53
872.396	-5.29
872.569	41.81
872.742	56.15
872.915	47.96
873.088	-33.96
873.261	-17.58
873.434	11.09
873.607	23.38
873.78	-31.91
873.953	39.76
874.126	-42.15
874.299	105.3
874.471	9.05
874.644	-27.82
874.817	39.76
874.99	66.39
875.163	-54.44
875.335	45.91
875.508	15.19
875.681	-21.67
875.853	-38.06
876.026	50
876.199	97.11
876.371	-9.39
876.544	50
876.717	-7.34
876.889	43.86
877.062	43.86
877.234	0.85
877.407	15.19
877.579	-66.73
877.752	39.76
877.924	-25.77
878.097	105.3
878.269	39.76
878.442	4.95
878.614	52.05
878.786	19.29
878.959	-1.19
879.131	-15.53
879.303	-58.54
879.476	39.76
879.648	21.33
879.82	15.19
879.993	11.09
880.165	9.05
880.337	-48.3
880.509	21.33
880.681	31.57
880.854	7
881.026	27.48
881.198	31.57
881.37	-23.72
881.542	41.81
881.714	47.96
881.886	31.57
882.058	-19.63
882.23	29.52
882.402	-40.11
882.574	7
882.746	-38.06
882.918	70.48
883.09	35.67
883.262	-17.58
883.434	25.43
883.606	-17.58
883.778	-46.25
883.95	72.53
884.122	23.38
884.293	31.57
884.465	-1.19
884.637	-17.58
884.809	-17.58
884.98	17.24
885.152	58.2
885.324	21.33
885.496	-13.48
885.667	15.19
885.839	76.63
886.011	35.67
886.182	-17.58
886.354	25.43
886.525	35.67
886.697	56.15
886.869	-42.15
887.04	-46.25
887.212	66.39
887.383	105.3
887.555	58.2
887.726	2.9
887.897	-87.21
888.069	-66.73
888.24	13.14
888.412	-42.15
888.583	7
888.754	-33.96
888.926	-5.29
889.097	-17.58
889.268	-56.49
889.44	119.64
889.611	-66.73
889.782	31.57
889.953	-60.59
890.125	95.06
890.296	-25.77
890.467	-15.53
890.638	19.29
890.809	23.38
890.98	11.09
891.151	-1.19
891.323	76.63
891.494	11.09
891.665	-21.67
891.836	58.2
892.007	-25.77
892.178	9.05
892.349	23.38
892.52	43.86
892.691	-42.15
892.862	-60.59
893.032	-62.63
893.203	78.68
893.374	-29.87
893.545	31.57
893.716	2.9
893.887	11.09
894.057	-38.06
894.228	50
894.399	17.24
894.57	7
894.74	-58.54
894.911	-5.29
895.082	31.57
895.253	-1.19
895.423	41.81
895.594	127.83
895.764	41.81
895.935	-54.44
896.106	60.24
896.276	-25.77
896.447	11.09
896.617	76.63
896.788	-25.77
896.958	-23.72
897.129	27.48
897.299	-17.58
897.47	23.38
897.64	56.15
897.81	-1.19
897.981	19.29
898.151	-46.25
898.322	66.39
898.492	-25.77
898.662	64.34
898.832	-1.19
899.003	23.38
899.173	2.9
899.343	11.09
899.513	-74.92
