Data from USB4F104151__43__14-42-57-323.txt Node

Date: Thu Mar 13 14:42:57 EDT 2025
User: louis
Spectrometer: USB4F10415
Trigger mode: 4
Integration Time (sec): 2.000000E-2
Scans to average: 1
Electric dark correction enabled: true
Nonlinearity correction enabled: false
Boxcar width: 0
XAxis mode: Wavelengths
Number of Pixels in Spectrum: 3648
>>>>>Begin Spectral Data<<<<<
178.204	-116.05
178.424	-116.05
178.644	-116.05
178.864	-148.82
179.084	-99.67
179.304	0.68
179.524	23.21
179.744	33.45
179.964	-25.94
180.184	31.4
180.404	-25.94
180.624	-7.51
180.844	-17.75
181.064	-48.47
181.283	31.4
181.503	-1.37
181.723	6.83
181.943	6.83
182.163	131.75
182.383	88.75
182.602	41.64
182.822	25.26
183.042	119.46
183.262	60.07
183.482	35.5
183.701	-13.65
183.921	101.03
184.141	29.35
184.361	43.69
184.58	121.51
184.8	-23.89
185.02	-17.75
185.239	109.23
185.459	6.83
185.679	113.32
185.898	-3.41
186.118	23.21
186.338	103.08
186.557	68.27
186.777	74.41
186.997	101.03
187.216	60.07
187.436	125.61
187.655	49.83
187.875	103.08
188.095	47.79
188.314	66.22
188.534	105.13
188.753	51.88
188.973	60.07
189.192	25.26
189.412	70.31
189.631	8.87
189.851	84.65
190.07	125.61
190.29	4.78
190.509	60.07
190.729	10.92
190.948	80.55
191.168	187.05
191.387	84.65
191.607	107.18
191.826	129.7
192.045	-1.37
192.265	-9.56
192.484	64.17
192.704	92.84
192.923	27.31
193.142	88.75
193.362	92.84
193.581	80.55
193.8	37.55
194.02	117.42
194.239	-7.51
194.458	105.13
194.678	86.7
194.897	84.65
195.116	70.31
195.335	55.98
195.555	15.02
195.774	88.75
195.993	111.27
196.212	19.11
196.432	47.79
196.651	35.5
196.87	25.26
197.089	51.88
197.308	129.7
197.528	60.07
197.747	17.07
197.966	51.88
198.185	105.13
198.404	64.17
198.623	84.65
198.842	129.7
199.062	164.52
199.281	111.27
199.5	25.26
199.719	98.99
199.938	70.31
200.157	84.65
200.376	10.92
200.595	170.66
200.814	74.41
201.033	17.07
201.252	103.08
201.471	8.87
201.69	66.22
201.909	68.27
202.128	72.36
202.347	27.31
202.566	35.5
202.785	49.83
203.004	109.23
203.223	62.12
203.442	39.59
203.661	96.94
203.879	49.83
204.098	176.81
204.317	27.31
204.536	82.6
204.755	49.83
204.974	33.45
205.193	8.87
205.411	72.36
205.63	12.97
205.849	33.45
206.068	92.84
206.287	51.88
206.505	45.74
206.724	129.7
206.943	31.4
207.162	43.69
207.381	-1.37
207.599	43.69
207.818	25.26
208.037	64.17
208.255	66.22
208.474	133.8
208.693	15.02
208.911	58.03
209.13	39.59
209.349	129.7
209.567	72.36
209.786	111.27
210.005	92.84
210.223	15.02
210.442	25.26
210.661	27.31
210.879	43.69
211.098	33.45
211.316	90.79
211.535	137.9
211.753	25.26
211.972	8.87
212.191	47.79
212.409	17.07
212.628	58.03
212.846	-1.37
213.065	64.17
213.283	49.83
213.502	35.5
213.72	164.52
213.938	17.07
214.157	-1.37
214.375	-3.41
214.594	101.03
214.812	23.21
215.031	105.13
215.249	51.88
215.467	55.98
215.686	-1.37
215.904	115.37
216.122	19.11
216.341	70.31
216.559	68.27
216.778	80.55
216.996	90.79
217.214	82.6
217.432	88.75
217.651	47.79
217.869	23.21
218.087	19.11
218.306	76.46
218.524	15.02
218.742	74.41
218.96	86.7
219.179	74.41
219.397	107.18
219.615	0.68
219.833	-17.75
220.051	55.98
220.27	49.83
220.488	86.7
220.706	45.74
220.924	8.87
221.142	47.79
221.36	39.59
221.578	58.03
221.796	115.37
222.015	31.4
222.233	64.17
222.451	58.03
222.669	58.03
222.887	72.36
223.105	-9.56
223.323	39.59
223.541	51.88
223.759	82.6
223.977	60.07
224.195	113.32
224.413	121.51
224.631	47.79
224.849	80.55
225.067	107.18
225.285	39.59
225.503	10.92
225.721	10.92
225.939	64.17
226.157	49.83
226.375	164.52
226.592	64.17
226.81	43.69
227.028	98.99
227.246	146.09
227.464	72.36
227.682	70.31
227.9	92.84
228.117	64.17
228.335	88.75
228.553	25.26
228.771	31.4
228.989	76.46
229.206	68.27
229.424	76.46
229.642	72.36
229.86	80.55
230.077	154.28
230.295	6.83
230.513	60.07
230.731	86.7
230.948	176.81
231.166	133.8
231.384	21.16
231.601	-1.37
231.819	82.6
232.037	49.83
232.254	82.6
232.472	31.4
232.689	33.45
232.907	43.69
233.125	31.4
233.342	72.36
233.56	-21.84
233.777	88.75
233.995	60.07
234.213	127.66
234.43	74.41
234.648	80.55
234.865	58.03
235.083	88.75
235.3	109.23
235.518	55.98
235.735	58.03
235.953	72.36
236.17	35.5
236.388	137.9
236.605	72.36
236.822	66.22
237.04	21.16
237.257	25.26
237.475	76.46
237.692	123.56
237.909	88.75
238.127	80.55
238.344	19.11
238.562	72.36
238.779	35.5
238.996	55.98
239.214	45.74
239.431	72.36
239.648	47.79
239.865	107.18
240.083	72.36
240.3	6.83
240.517	39.59
240.735	41.64
240.952	55.98
241.169	76.46
241.386	74.41
241.603	101.03
241.821	68.27
242.038	154.28
242.255	23.21
242.472	43.69
242.689	92.84
242.907	76.46
243.124	35.5
243.341	47.79
243.558	8.87
243.775	-1.37
243.992	25.26
244.209	105.13
244.426	162.47
244.643	174.76
244.86	76.46
245.078	105.13
245.295	131.75
245.512	105.13
245.729	60.07
245.946	117.42
246.163	90.79
246.38	80.55
246.597	-5.46
246.814	113.32
247.031	121.51
247.248	0.68
247.464	37.55
247.681	84.65
247.898	72.36
248.115	27.31
248.332	45.74
248.549	109.23
248.766	92.84
248.983	51.88
249.2	55.98
249.417	131.75
249.633	39.59
249.85	43.69
250.067	68.27
250.284	94.89
250.501	90.79
250.717	66.22
250.934	113.32
251.151	-1.37
251.368	72.36
251.585	146.09
251.801	72.36
252.018	-7.51
252.235	113.32
252.451	-7.51
252.668	74.41
252.885	86.7
253.102	107.18
253.318	68.27
253.535	146.09
253.752	80.55
253.968	84.65
254.185	-5.46
254.401	43.69
254.618	72.36
254.835	98.99
255.051	148.14
255.268	51.88
255.484	21.16
255.701	66.22
255.917	74.41
256.134	70.31
256.351	23.21
256.567	68.27
256.784	68.27
257	19.11
257.217	10.92
257.433	158.38
257.65	31.4
257.866	129.7
258.082	60.07
258.299	23.21
258.515	86.7
258.732	64.17
258.948	23.21
259.165	-25.94
259.381	-1.37
259.597	64.17
259.814	51.88
260.03	68.27
260.246	96.94
260.463	113.32
260.679	72.36
260.895	6.83
261.112	74.41
261.328	12.97
261.544	-25.94
261.761	74.41
261.977	139.94
262.193	29.35
262.409	31.4
262.626	12.97
262.842	131.75
263.058	55.98
263.274	31.4
263.49	105.13
263.707	117.42
263.923	123.56
264.139	58.03
264.355	27.31
264.571	166.57
264.787	141.99
265.004	92.84
265.22	6.83
265.436	41.64
265.652	47.79
265.868	39.59
266.084	62.12
266.3	55.98
266.516	15.02
266.732	39.59
266.948	64.17
267.164	90.79
267.38	60.07
267.596	88.75
267.812	51.88
268.028	90.79
268.244	33.45
268.46	35.5
268.676	60.07
268.892	98.99
269.108	39.59
269.324	4.78
269.54	-25.94
269.756	8.87
269.972	55.98
270.188	66.22
270.403	47.79
270.619	47.79
270.835	15.02
271.051	66.22
271.267	58.03
271.483	82.6
271.698	74.41
271.914	162.47
272.13	23.21
272.346	64.17
272.562	27.31
272.777	123.56
272.993	23.21
273.209	31.4
273.425	80.55
273.64	43.69
273.856	47.79
274.072	80.55
274.287	72.36
274.503	137.9
274.719	27.31
274.934	96.94
275.15	0.68
275.366	154.28
275.581	-15.7
275.797	29.35
276.012	96.94
276.228	88.75
276.444	23.21
276.659	66.22
276.875	12.97
277.09	25.26
277.306	-13.65
277.521	121.51
277.737	72.36
277.952	90.79
278.168	60.07
278.383	47.79
278.599	55.98
278.814	55.98
279.03	33.45
279.245	129.7
279.461	-34.13
279.676	64.17
279.892	33.45
280.107	15.02
280.322	58.03
280.538	117.42
280.753	-1.37
280.969	72.36
281.184	35.5
281.399	117.42
281.615	35.5
281.83	113.32
282.045	-5.46
282.26	55.98
282.476	-17.75
282.691	158.38
282.906	64.17
283.122	23.21
283.337	72.36
283.552	68.27
283.767	101.03
283.983	113.32
284.198	80.55
284.413	33.45
284.628	-17.75
284.843	98.99
285.058	90.79
285.274	94.89
285.489	53.93
285.704	55.98
285.919	90.79
286.134	78.51
286.349	70.31
286.564	113.32
286.779	31.4
286.995	49.83
287.21	19.11
287.425	64.17
287.64	137.9
287.855	162.47
288.07	35.5
288.285	88.75
288.5	90.79
288.715	88.75
288.93	129.7
289.145	105.13
289.36	174.76
289.575	47.79
289.79	76.46
290.004	123.56
290.219	68.27
290.434	146.09
290.649	129.7
290.864	41.64
291.079	88.75
291.294	80.55
291.509	41.64
291.724	45.74
291.938	96.94
292.153	137.9
292.368	53.93
292.583	27.31
292.798	-13.65
293.012	90.79
293.227	47.79
293.442	146.09
293.657	125.61
293.871	141.99
294.086	15.02
294.301	139.94
294.516	98.99
294.73	64.17
294.945	15.02
295.16	21.16
295.374	23.21
295.589	55.98
295.804	41.64
296.018	33.45
296.233	66.22
296.447	121.51
296.662	-30.04
296.877	64.17
297.091	66.22
297.306	131.75
297.52	80.55
297.735	72.36
297.949	146.09
298.164	88.75
298.378	-9.56
298.593	17.07
298.807	129.7
299.022	88.75
299.236	139.94
299.451	101.03
299.665	17.07
299.88	101.03
300.094	88.75
300.309	66.22
300.523	47.79
300.737	29.35
300.952	88.75
301.166	2.73
301.381	-1.37
301.595	6.83
301.809	2.73
302.024	62.12
302.238	55.98
302.452	105.13
302.667	141.99
302.881	88.75
303.095	35.5
303.309	64.17
303.524	111.27
303.738	88.75
303.952	-25.94
304.166	121.51
304.381	4.78
304.595	80.55
304.809	96.94
305.023	115.37
305.237	72.36
305.452	49.83
305.666	105.13
305.88	131.75
306.094	129.7
306.308	88.75
306.522	-9.56
306.736	82.6
306.95	105.13
307.164	6.83
307.379	76.46
307.593	107.18
307.807	96.94
308.021	156.33
308.235	109.23
308.449	92.84
308.663	121.51
308.877	113.32
309.091	-9.56
309.305	76.46
309.519	-9.56
309.733	154.28
309.947	47.79
310.161	74.41
310.374	82.6
310.588	113.32
310.802	39.59
311.016	103.08
311.23	27.31
311.444	25.26
311.658	43.69
311.872	129.7
312.085	148.14
312.299	127.66
312.513	49.83
312.727	66.22
312.941	12.97
313.154	37.55
313.368	131.75
313.582	47.79
313.796	23.21
314.009	41.64
314.223	47.79
314.437	90.79
314.651	98.99
314.864	72.36
315.078	25.26
315.292	2.73
315.505	-13.65
315.719	113.32
315.933	105.13
316.146	66.22
316.36	6.83
316.573	158.38
316.787	74.41
317.001	96.94
317.214	17.07
317.428	150.18
317.641	6.83
317.855	29.35
318.068	-19.8
318.282	113.32
318.495	92.84
318.709	105.13
318.922	64.17
319.136	29.35
319.349	-3.41
319.563	92.84
319.776	66.22
319.99	6.83
320.203	131.75
320.417	10.92
320.63	55.98
320.843	76.46
321.057	47.79
321.27	49.83
321.483	60.07
321.697	41.64
321.91	72.36
322.124	74.41
322.337	49.83
322.55	-19.8
322.763	64.17
322.977	113.32
323.19	-5.46
323.403	105.13
323.617	115.37
323.83	123.56
324.043	66.22
324.256	80.55
324.469	84.65
324.683	72.36
324.896	92.84
325.109	98.99
325.322	55.98
325.535	80.55
325.748	68.27
325.962	43.69
326.175	58.03
326.388	121.51
326.601	105.13
326.814	84.65
327.027	55.98
327.24	162.47
327.453	92.84
327.666	80.55
327.879	15.02
328.092	53.93
328.305	133.8
328.518	74.41
328.731	72.36
328.944	72.36
329.157	76.46
329.37	-48.47
329.583	131.75
329.796	82.6
330.009	72.36
330.222	174.76
330.435	96.94
330.648	10.92
330.861	88.75
331.073	148.14
331.286	141.99
331.499	115.37
331.712	82.6
331.925	-15.7
332.138	137.9
332.35	96.94
332.563	66.22
332.776	119.46
332.989	12.97
333.202	88.75
333.414	107.18
333.627	86.7
333.84	43.69
334.053	6.83
334.265	74.41
334.478	82.6
334.691	74.41
334.903	64.17
335.116	27.31
335.329	12.97
335.541	55.98
335.754	47.79
335.966	6.83
336.179	58.03
336.392	58.03
336.604	105.13
336.817	31.4
337.029	162.47
337.242	23.21
337.454	80.55
337.667	82.6
337.88	146.09
338.092	133.8
338.305	55.98
338.517	35.5
338.729	90.79
338.942	88.75
339.154	66.22
339.367	37.55
339.579	70.31
339.792	88.75
340.004	80.55
340.217	98.99
340.429	64.17
340.641	17.07
340.854	96.94
341.066	29.35
341.278	162.47
341.491	164.52
341.703	90.79
341.915	25.26
342.128	78.51
342.34	86.7
342.552	123.56
342.764	53.93
342.977	103.08
343.189	119.46
343.401	80.55
343.613	55.98
343.826	115.37
344.038	21.16
344.25	51.88
344.462	109.23
344.674	72.36
344.886	53.93
345.099	90.79
345.311	98.99
345.523	8.87
345.735	88.75
345.947	72.36
346.159	31.4
346.371	15.02
346.583	47.79
346.795	150.18
347.007	17.07
347.219	150.18
347.431	31.4
347.643	154.28
347.855	25.26
348.067	141.99
348.279	92.84
348.491	105.13
348.703	129.7
348.915	23.21
349.127	55.98
349.339	109.23
349.551	31.4
349.763	43.69
349.975	64.17
350.187	154.28
350.399	109.23
350.61	68.27
350.822	49.83
351.034	72.36
351.246	172.71
351.458	33.45
351.669	96.94
351.881	25.26
352.093	96.94
352.305	172.71
352.517	92.84
352.728	72.36
352.94	74.41
353.152	123.56
353.363	53.93
353.575	88.75
353.787	55.98
353.999	76.46
354.21	121.51
354.422	90.79
354.633	45.74
354.845	90.79
355.057	33.45
355.268	58.03
355.48	39.59
355.692	39.59
355.903	96.94
356.115	76.46
356.326	101.03
356.538	115.37
356.749	78.51
356.961	154.28
357.172	96.94
357.384	105.13
357.595	139.94
357.807	33.45
358.018	15.02
358.23	90.79
358.441	197.29
358.653	64.17
358.864	29.35
359.075	88.75
359.287	96.94
359.498	68.27
359.709	105.13
359.921	60.07
360.132	64.17
360.344	84.65
360.555	49.83
360.766	154.28
360.977	25.26
361.189	150.18
361.4	129.7
361.611	72.36
361.823	115.37
362.034	111.27
362.245	-17.75
362.456	49.83
362.667	101.03
362.879	154.28
363.09	78.51
363.301	121.51
363.512	64.17
363.723	76.46
363.935	76.46
364.146	146.09
364.357	123.56
364.568	43.69
364.779	55.98
364.99	39.59
365.201	49.83
365.412	94.89
365.623	31.4
365.834	148.14
366.045	27.31
366.256	86.7
366.467	101.03
366.678	47.79
366.889	156.33
367.1	37.55
367.311	68.27
367.522	74.41
367.733	58.03
367.944	113.32
368.155	47.79
368.366	115.37
368.577	86.7
368.788	123.56
368.999	78.51
369.209	58.03
369.42	133.8
369.631	133.8
369.842	90.79
370.053	146.09
370.264	92.84
370.474	45.74
370.685	109.23
370.896	80.55
371.107	133.8
371.317	162.47
371.528	86.7
371.739	150.18
371.95	129.7
372.16	156.33
372.371	-30.04
372.582	2.73
372.792	170.66
373.003	162.47
373.214	144.04
373.424	72.36
373.635	78.51
373.846	80.55
374.056	80.55
374.267	133.8
374.477	144.04
374.688	-9.56
374.898	58.03
375.109	113.32
375.319	72.36
375.53	115.37
375.74	131.75
375.951	80.55
376.161	37.55
376.372	148.14
376.582	47.79
376.793	88.75
377.003	98.99
377.214	109.23
377.424	74.41
377.635	121.51
377.845	76.46
378.055	129.7
378.266	109.23
378.476	113.32
378.686	101.03
378.897	146.09
379.107	105.13
379.317	74.41
379.528	88.75
379.738	96.94
379.948	43.69
380.158	162.47
380.369	125.61
380.579	64.17
380.789	33.45
380.999	58.03
381.21	98.99
381.42	123.56
381.63	58.03
381.84	133.8
382.05	139.94
382.261	154.28
382.471	96.94
382.681	172.71
382.891	88.75
383.101	94.89
383.311	76.46
383.521	146.09
383.731	131.75
383.941	82.6
384.151	90.79
384.361	51.88
384.571	131.75
384.781	156.33
384.991	146.09
385.201	105.13
385.411	105.13
385.621	68.27
385.831	86.7
386.041	15.02
386.251	141.99
386.461	113.32
386.671	105.13
386.881	139.94
387.091	27.31
387.301	162.47
387.511	92.84
387.72	17.07
387.93	105.13
388.14	129.7
388.35	74.41
388.56	148.14
388.769	90.79
388.979	64.17
389.189	123.56
389.399	105.13
389.609	146.09
389.818	98.99
390.028	88.75
390.238	154.28
390.447	70.31
390.657	129.7
390.867	105.13
391.076	68.27
391.286	203.43
391.496	72.36
391.705	105.13
391.915	195.24
392.125	117.42
392.334	141.99
392.544	115.37
392.753	150.18
392.963	41.64
393.172	150.18
393.382	121.51
393.591	131.75
393.801	78.51
394.01	166.57
394.22	82.6
394.429	74.41
394.639	146.09
394.848	96.94
395.058	137.9
395.267	96.94
395.477	162.47
395.686	101.03
395.895	185
396.105	178.86
396.314	170.66
396.524	156.33
396.733	80.55
396.942	92.84
397.152	98.99
397.361	105.13
397.57	185
397.78	96.94
397.989	96.94
398.198	139.94
398.407	152.23
398.617	150.18
398.826	121.51
399.035	137.9
399.244	115.37
399.453	141.99
399.663	215.72
399.872	213.67
400.081	92.84
400.29	197.29
400.499	117.42
400.708	180.9
400.917	125.61
401.127	170.66
401.336	115.37
401.545	250.53
401.754	178.86
401.963	189.1
402.172	131.75
402.381	146.09
402.59	174.76
402.799	211.62
403.008	205.48
403.217	125.61
403.426	125.61
403.635	180.9
403.844	193.19
404.053	189.1
404.262	174.76
404.471	197.29
404.68	121.51
404.888	199.34
405.097	191.14
405.306	232.1
405.515	250.53
405.724	225.96
405.933	219.82
406.142	250.53
406.35	185
406.559	238.25
406.768	201.38
406.977	303.78
407.185	221.86
407.394	211.62
407.603	197.29
407.812	309.93
408.02	213.67
408.229	328.36
408.438	256.68
408.646	260.77
408.855	303.78
409.064	318.12
409.272	328.36
409.481	348.84
409.69	307.88
409.898	326.31
410.107	432.8
410.315	383.65
410.524	352.93
410.733	352.93
410.941	443.04
411.15	465.57
411.358	410.28
411.567	424.61
411.775	436.9
411.984	424.61
412.192	428.71
412.401	557.73
412.609	518.82
412.818	522.91
413.026	656.03
413.234	533.15
413.443	582.31
413.651	543.39
413.86	608.93
414.068	678.56
414.276	768.67
414.485	637.6
414.693	674.46
414.901	725.66
415.11	811.68
415.318	819.87
415.526	746.14
415.734	817.82
415.943	846.49
416.151	895.64
416.359	918.17
416.567	920.22
416.776	883.36
416.984	1071.77
417.192	1065.63
417.4	998.04
417.608	1055.39
417.817	1194.65
418.025	1186.46
418.233	1333.91
418.441	1215.13
418.649	1381.01
418.857	1428.12
419.065	1401.49
419.273	1311.38
419.481	1401.49
419.689	1544.85
419.897	1608.34
420.105	1540.76
420.313	1634.96
420.521	1708.69
420.729	1792.66
420.937	1817.23
421.145	1796.75
421.353	2017.93
421.561	2089.61
421.769	2128.52
421.977	2189.96
422.185	2245.26
422.393	2343.56
422.601	2390.66
422.809	2278.02
423.017	2366.09
423.224	2605.7
423.432	2669.19
423.64	2632.32
423.848	2808.45
424.056	2787.97
424.263	2894.46
424.471	2980.48
424.679	3086.97
424.887	3066.49
425.094	3359.35
425.302	3398.26
425.51	3390.07
425.718	3566.2
425.925	3582.58
426.133	3695.22
426.341	3961.45
426.548	3967.6
426.756	4141.68
426.964	4176.49
427.171	4369
427.379	4414.06
427.586	4477.54
427.794	4727.39
428.001	4883.04
428.209	5175.9
428.417	5112.41
428.624	5630.55
428.832	5456.47
429.039	5489.24
429.247	5438.04
429.454	5847.63
429.662	6287.95
429.869	5898.83
430.076	6494.79
430.284	6029.9
430.491	6412.87
430.699	6609.48
430.906	6746.69
431.114	6814.27
431.321	7170.62
431.528	7158.33
431.736	7748.15
431.943	7903.79
432.15	7776.82
432.358	7995.95
432.565	8352.3
432.772	8231.47
432.979	8817.19
433.187	8747.56
433.394	8915.49
433.601	9366.04
433.808	9609.75
434.016	9349.66
434.223	10058.26
434.43	10527.24
434.637	10213.9
434.844	10797.57
435.052	10795.53
435.259	11033.09
435.466	11158.02
435.673	11024.9
435.88	11889.14
436.087	12403.18
436.294	12259.82
436.501	12151.28
436.708	12339.69
436.915	12796.39
437.122	13359.58
437.329	13361.63
437.537	13744.6
437.743	14023.12
437.95	13896.15
438.157	14612.94
438.364	14854.6
438.571	15045.06
438.778	15079.88
438.985	16374.19
439.192	15815.1
439.399	16253.36
439.606	15864.25
439.813	16951.72
440.02	17789.34
440.227	17514.91
440.433	17150.37
440.64	18024.86
440.847	17959.32
441.054	18155.93
441.261	19374.47
441.467	19308.93
441.674	19534.21
441.881	20441.46
442.088	20388.21
442.294	20144.5
442.501	20875.63
442.708	21215.59
442.914	22049.11
443.121	22882.64
443.328	22018.39
443.534	23953.73
443.741	23191.88
443.948	23044.43
444.154	24754.48
444.361	24277.3
444.568	24363.32
444.774	24543.54
444.981	24848.69
445.187	25637.16
445.394	26632.47
445.6	26515.73
445.807	28993.78
446.013	27556.1
446.22	28098.81
446.426	29120.75
446.633	29552.87
446.839	30718.17
447.046	29022.45
447.252	30908.63
447.459	31129.81
447.665	30789.84
447.871	32116.93
448.078	33288.37
448.284	32360.64
448.491	32745.65
448.697	34277.54
448.903	35002.52
449.11	35129.49
449.316	34320.54
449.522	34949.27
449.728	36003.97
449.935	36292.74
450.141	36259.97
450.347	36880.5
450.553	36171.91
450.76	36659.32
450.966	37855.34
451.172	37148.79
451.378	38426.72
451.584	37607.53
451.791	38770.78
451.997	38621.28
452.203	38813.79
452.409	39065.69
452.615	38846.55
452.821	37367.92
453.027	37425.26
453.233	39297.11
453.44	37664.88
453.646	38029.41
453.852	38490.21
454.058	38883.42
454.264	37650.54
454.47	38565.98
454.676	37427.31
454.882	39114.84
455.088	35498.12
455.294	36194.43
455.5	37140.6
455.705	37238.9
455.911	35639.43
456.117	35158.16
456.323	34654.36
456.529	33079.47
456.735	34271.39
456.941	33396.91
457.147	32706.74
457.352	32346.3
457.558	31963.33
457.764	32020.67
457.97	31234.25
458.176	30894.29
458.381	30513.37
458.587	29122.8
458.793	29389.03
458.999	27887.87
459.204	29870.31
459.41	28895.47
459.616	26863.89
459.821	27056.4
460.027	26835.22
460.233	26519.83
460.438	25385.26
460.644	25555.24
460.85	24181.05
461.055	23982.4
461.261	23746.88
461.466	21993.82
461.672	21336.42
461.878	22946.12
462.083	21643.62
462.289	21154.15
462.494	20828.52
462.7	19949.95
462.905	19378.56
463.111	19831.16
463.316	20289.91
463.522	19712.38
463.727	19857.79
463.932	20017.53
464.138	19696
464.343	19571.07
464.549	18725.26
464.754	19825.02
464.959	19487.11
465.165	18913.67
465.37	18829.71
465.575	18190.74
465.781	19022.22
465.986	18964.87
466.191	18080.15
466.397	17889.69
466.602	16980.39
466.807	17770.91
467.012	17678.75
467.218	17756.57
467.423	17537.44
467.628	17758.62
467.833	18514.32
468.038	17889.69
468.244	17220
468.449	17981.85
468.654	17314.21
468.859	17453.47
469.064	17101.22
469.269	16474.54
469.474	16562.61
469.679	16935.34
469.885	16292.27
470.09	16396.72
470.295	16570.8
470.5	16046.52
470.705	16433.58
470.91	16226.74
471.115	15641.02
471.32	15950.26
471.525	15925.69
471.73	15385.02
471.935	15362.5
472.139	14928.33
472.344	15112.64
472.549	15032.77
472.754	14764.49
472.959	14610.89
473.164	14279.12
473.369	14135.76
473.574	14455.25
473.778	14246.35
473.983	14252.5
474.188	14115.28
474.393	13597.15
474.598	13564.38
474.802	13457.89
475.007	13359.58
475.212	13488.6
475.417	12978.66
475.621	13165.03
475.826	13156.83
476.031	12894.69
476.235	12423.66
476.44	12634.6
476.645	12270.06
476.849	12544.49
477.054	12509.68
477.259	12227.06
477.463	12067.31
477.668	11811.32
477.872	12028.4
478.077	11643.38
478.282	11526.65
478.486	11676.15
478.691	11510.27
478.895	11325.95
479.1	11450.88
479.304	11231.74
479.509	11016.71
479.713	11368.96
479.918	11010.56
480.122	10922.5
480.326	10838.53
480.531	10885.64
480.735	10799.62
480.94	10783.24
481.144	10834.44
481.348	10418.7
481.553	10594.83
481.757	10390.03
481.961	10629.64
482.166	10607.11
482.37	10574.35
482.574	10492.43
482.778	10426.89
482.983	10648.07
483.187	10502.67
483.391	10525.19
483.595	10607.11
483.8	10469.9
484.004	10535.43
484.208	10461.71
484.412	10539.53
484.616	10578.44
484.821	10334.73
485.025	10207.76
485.229	10541.58
485.433	10476.04
485.637	10504.71
485.841	10586.63
486.045	10320.4
486.249	10666.5
486.453	10361.36
486.657	10445.32
486.861	10568.2
487.065	10357.26
487.269	10549.77
487.473	10308.11
487.677	10619.4
487.881	10500.62
488.085	10467.85
488.289	10506.76
488.493	10484.23
488.697	10631.69
488.901	10646.02
489.105	10408.46
489.309	10527.24
489.512	10717.7
489.716	10676.74
489.92	10697.22
490.124	10619.4
490.328	10766.85
490.531	10756.61
490.735	10762.76
490.939	11014.66
491.143	10983.94
491.346	10861.06
491.55	10934.79
491.754	11028.99
491.958	10916.36
492.161	11082.24
492.365	11141.63
492.569	11219.46
492.772	11135.49
492.976	11352.57
493.18	11180.54
493.383	11461.12
493.587	11549.18
493.79	11837.94
493.994	11385.34
494.197	11514.36
494.401	11889.14
494.605	11655.67
494.808	12016.12
495.012	12018.16
495.215	12249.58
495.419	12253.68
495.622	12122.61
495.825	12575.21
496.029	12413.42
496.232	12839.4
496.436	12528.11
496.639	13165.03
496.843	12591.59
497.046	13351.39
497.249	13191.65
497.453	13277.66
497.656	13607.39
497.859	13588.96
498.063	13849.05
498.266	13980.12
498.469	14098.9
498.673	13949.4
498.876	14395.85
499.079	14479.82
499.282	14551.5
499.485	15165.89
499.689	15083.97
499.892	15243.71
500.095	15153.6
500.298	15626.68
500.501	15374.78
500.705	15804.86
500.908	16228.79
501.111	16236.98
501.314	16472.5
501.517	16667.05
501.72	16794.03
501.923	16824.75
502.126	17301.92
502.329	17519.01
502.532	17920.41
502.735	17557.92
502.938	18162.07
503.141	18157.97
503.344	18438.55
503.547	18534.8
503.75	18692.49
503.953	18839.95
504.156	19349.89
504.359	19087.75
504.562	19558.78
504.765	19999.1
504.968	20064.63
505.17	20410.74
505.373	20642.16
505.576	20830.57
505.779	21326.18
505.982	21039.47
506.185	21623.14
506.387	21655.9
506.59	21879.13
506.793	22153.56
506.996	22137.18
507.198	22749.52
507.401	22622.55
507.604	22925.64
507.807	23798.08
508.009	23814.46
508.212	24002.88
508.415	24490.29
508.617	24394.04
508.82	24594.74
509.022	24459.57
509.225	25188.65
509.428	25610.53
509.63	25450.79
509.833	26114.33
510.035	26640.66
510.238	26286.36
510.44	27040.01
510.643	27173.13
510.845	27515.14
511.048	27271.43
511.25	27926.78
511.453	28164.35
511.655	28717.3
511.858	28678.39
512.06	28676.34
512.262	29352.17
512.465	29417.71
512.667	29874.4
512.87	30142.69
513.072	30144.73
513.274	30777.56
513.477	30925.01
513.679	31056.08
513.881	31666.38
514.084	32346.3
514.286	31793.35
514.488	32149.7
514.69	33061.04
514.893	32983.22
515.095	33349.81
515.297	33474.73
515.499	33573.03
515.701	34009.25
515.904	34908.31
516.106	35211.41
516.308	35096.72
516.51	35870.86
516.712	35969.16
516.914	36319.36
517.116	36972.66
517.318	36823.16
517.52	36925.56
517.722	37593.2
517.925	37589.1
518.127	38006.89
518.329	38217.83
518.531	38580.32
518.733	39059.54
518.935	38938.71
519.136	39440.46
519.338	40276.04
519.54	40341.57
519.742	40568.9
519.944	40423.49
520.146	41250.87
520.348	41586.74
520.55	41422.9
520.752	42041.39
520.954	42774.56
521.155	42459.17
521.357	43053.08
521.559	43051.03
521.761	43749.39
521.963	43929.61
522.164	44019.72
522.366	44257.29
522.568	44496.9
522.77	44447.75
522.971	45510.64
523.173	44777.47
523.375	45676.53
523.576	45551.6
523.778	45567.99
523.98	46505.96
524.181	46534.63
524.383	46802.91
524.584	47325.14
524.786	47265.75
524.988	46972.89
525.189	48080.85
525.391	47665.11
525.592	48420.81
525.794	48275.4
525.995	48351.18
526.197	48082.89
526.398	48402.38
526.6	49317.82
526.801	49180.6
527.003	49326.01
527.204	49532.85
527.406	50147.25
527.607	50368.43
527.808	50311.08
528.01	49039.29
528.211	49770.42
528.412	50892.71
528.614	50577.32
528.815	50397.1
529.016	50982.82
529.218	50239.4
529.419	50933.67
529.62	50687.91
529.822	50638.76
530.023	51253.15
530.224	51163.04
530.425	51015.58
530.626	51187.61
530.828	50900.9
531.029	52058
531.23	51128.22
531.431	51271.58
531.632	51380.12
531.833	51632.02
532.035	51754.9
532.236	51808.15
532.437	52125.58
532.638	51777.43
532.839	51718.04
533.04	52268.94
533.241	51271.58
533.442	52535.18
533.643	52021.14
533.844	52088.72
534.045	52166.54
534.246	51816.34
534.447	52234.13
534.648	52060.05
534.849	52037.52
535.05	52117.39
535.251	52258.7
535.451	52223.89
535.652	52506.51
535.853	52234.13
536.054	52152.21
536.255	52252.56
536.456	52152.21
536.657	52850.56
536.857	52320.14
537.058	52062.1
537.259	52447.11
537.46	52670.34
537.66	52092.82
537.861	52244.37
538.062	52285.32
538.263	52213.65
538.463	52170.64
538.664	52031.38
538.865	51953.55
539.065	52889.48
539.266	51955.6
539.466	52486.03
539.667	51707.8
539.868	52834.18
540.068	52324.24
540.269	52273.04
540.469	52459.4
540.67	51867.54
540.87	51849.11
541.071	52076.43
541.271	52232.08
541.472	52150.16
541.672	52117.39
541.873	51836.82
542.073	51339.16
542.274	52576.14
542.474	51988.37
542.675	51842.96
542.875	52369.29
543.075	51941.27
543.276	51574.68
543.476	52746.12
543.676	51945.36
543.877	52301.71
544.077	52060.05
544.277	52066.19
544.478	51855.25
544.678	52209.55
544.878	51992.47
545.078	51736.47
545.279	51529.62
545.479	51709.85
545.679	51609.5
545.879	51922.83
546.079	52227.98
546.28	51439.51
546.48	51511.19
546.68	51849.11
546.88	52289.42
547.08	51662.74
547.28	51511.19
547.48	51341.21
547.68	51953.55
547.88	51431.32
548.081	52203.41
548.281	51759
548.481	51742.61
548.681	51734.42
548.881	51523.48
549.081	51650.45
549.28	51691.41
549.48	52062.1
549.68	51601.3
549.88	52359.05
550.08	51650.45
550.28	51521.43
550.48	51629.97
550.68	51795.86
550.88	51187.61
551.08	51580.82
551.279	51771.28
551.479	51400.6
551.679	51234.72
551.879	51048.35
552.079	51421.08
552.278	51269.53
552.478	51623.83
552.678	51365.79
552.878	51898.26
553.077	50948
553.277	50923.43
553.477	51498.9
553.676	51439.51
553.876	51179.42
554.076	51257.24
554.275	51066.78
554.475	50694.05
554.674	51261.34
554.874	51439.51
555.074	50845.6
555.273	51173.28
555.473	51212.19
555.672	51025.82
555.872	51150.75
556.071	51021.73
556.271	50726.82
556.47	50925.47
556.67	50649
556.869	50626.47
557.068	50790.31
557.268	50511.78
557.467	51013.54
557.667	50628.52
557.866	50775.97
558.065	50845.6
558.265	50438.06
558.464	50712.48
558.663	50790.31
558.863	49948.59
559.062	50612.13
559.261	50141.1
559.461	50538.41
559.66	49631.16
559.859	49776.56
560.058	49704.88
560.258	49997.74
560.457	49285.05
560.656	50554.79
560.855	49645.49
561.054	50071.47
561.253	49665.97
561.453	49698.74
561.652	49809.33
561.851	49985.46
562.05	49231.8
562.249	49303.48
562.448	49524.66
562.647	49176.51
562.846	49334.2
563.045	49450.94
563.244	48664.52
563.443	49213.37
563.642	48539.59
563.841	48795.59
564.04	48875.46
564.239	49311.67
564.438	48293.83
564.637	48963.52
564.836	48762.82
565.035	48197.58
565.234	48533.45
565.432	48469.96
565.631	48299.98
565.83	48213.96
566.029	48080.85
566.228	48082.89
566.427	48078.8
566.625	47470.55
566.824	47595.48
567.023	48398.28
567.222	47388.63
567.42	48005.07
567.619	47378.39
567.818	47603.67
568.016	47493.08
568.215	47443.93
568.414	47292.38
568.612	47466.45
568.811	47042.52
569.01	47757.27
569.208	46608.36
569.407	47421.4
569.605	46651.36
569.804	47333.34
570.002	46409.7
570.201	47116.25
570.4	46233.58
570.598	46483.43
570.797	46239.72
570.995	46329.83
571.193	45842.42
571.392	46737.38
571.59	45592.56
571.789	45860.85
571.987	46188.52
572.186	45670.39
572.384	45610.99
572.582	45875.18
572.781	45606.9
572.979	45039.61
573.177	45432.82
573.376	45647.86
573.574	44756.99
573.772	45142.01
573.971	44630.02
574.169	44447.75
574.367	44427.27
574.565	44879.87
574.763	44656.64
574.962	44232.71
575.16	43771.92
575.358	44156.94
575.556	43454.48
575.754	44830.72
575.952	43409.43
576.151	43671.57
576.349	43415.57
576.547	43489.3
576.745	43632.66
576.943	43880.46
577.141	43442.2
577.339	43669.52
577.537	43307.03
577.735	43214.87
577.933	43118.62
578.131	42829.85
578.329	42659.87
578.527	42510.37
578.725	42532.9
578.923	42530.85
579.121	42084.39
579.319	42240.04
579.516	42291.24
579.714	42100.78
579.912	42043.43
580.11	41588.78
580.308	42127.4
580.506	41734.19
580.704	41211.96
580.901	41658.42
581.099	41838.64
581.297	41222.2
581.495	41146.42
581.692	41457.71
581.89	40808.51
582.088	41140.28
582.285	40808.51
582.483	41064.5
582.681	40837.18
582.878	40597.57
583.076	40134.73
583.274	40810.56
583.471	40288.32
583.669	40208.45
583.866	39686.22
584.064	40239.17
584.262	39506
584.459	40130.63
584.657	39690.32
584.854	40042.57
585.052	39082.07
585.249	39516.24
585.447	39075.93
585.644	39143.51
585.841	39049.3
586.039	39039.06
586.236	38619.23
586.434	38520.93
586.631	38301.79
586.828	38598.75
587.026	38488.16
587.223	38723.68
587.42	38170.72
587.618	38201.44
587.815	38015.08
588.012	37574.77
588.21	37779.56
588.407	38236.26
588.604	37421.17
588.801	37494.89
588.999	37281.91
589.196	37253.23
589.393	37521.52
589.59	37240.95
589.787	36974.71
589.984	36722.81
590.182	36845.69
590.379	36663.42
590.576	36481.15
590.773	36595.84
590.97	36425.85
591.167	36333.7
591.364	36456.57
591.561	36393.09
591.758	35983.49
591.955	35782.79
592.152	36212.87
592.349	35571.85
592.546	36221.06
592.743	35840.14
592.94	35385.49
593.137	35471.5
593.334	35616.91
593.531	34842.78
593.727	34764.95
593.924	35111.06
594.121	34572.44
594.318	35207.31
594.515	34250.91
594.712	34625.69
594.908	34539.68
595.105	34578.59
595.302	34310.3
595.499	34009.25
595.696	34201.76
595.892	33790.12
596.089	33966.24
596.286	34168.99
596.482	34197.66
596.679	33900.71
596.876	33587.37
597.072	33470.64
597.269	33669.29
597.466	33380.53
597.662	33153.2
597.859	33253.55
598.055	33149.1
598.252	32667.83
598.448	32852.15
598.645	32563.39
598.841	32188.61
599.038	32698.55
599.234	32614.58
599.431	32424.12
599.627	32114.88
599.824	32315.58
600.02	32037.06
600.217	32229.57
600.413	31600.84
600.609	31678.66
600.806	31881.41
601.002	31760.58
601.198	31217.87
601.395	31178.96
601.591	31254.73
601.787	31273.17
601.984	30748.89
602.18	31076.56
602.376	30830.8
602.572	30679.25
602.769	30759.13
602.965	30193.89
603.161	30863.57
603.357	30398.68
603.553	30564.57
603.75	30724.31
603.946	30095.58
604.142	30306.52
604.338	29876.45
604.534	29948.13
604.73	29882.59
604.926	29567.21
605.122	29595.88
605.318	29378.79
605.514	29538.54
605.71	29276.4
605.906	29473
606.102	29329.64
606.298	29163.76
606.494	29559.02
606.69	28911.86
606.886	28858.61
607.082	28510.46
607.278	28854.51
607.474	28422.39
607.67	28723.44
607.866	28301.56
608.062	28889.33
608.257	28356.86
608.453	28504.31
608.649	28604.66
608.845	28475.64
609.041	28299.51
609.236	28432.63
609.432	27791.62
609.628	27898.11
609.824	27945.22
610.019	27521.29
610.215	27642.12
610.411	27986.18
610.606	27382.02
610.802	27570.44
610.998	27771.14
611.193	27394.31
611.389	27498.76
611.584	27543.81
611.78	27150.6
611.976	27138.32
612.171	27250.95
612.367	27379.98
612.562	26999.05
612.758	26839.31
612.953	26777.87
613.149	27193.61
613.344	26640.66
613.539	27144.46
613.735	26898.7
613.93	26659.09
614.126	26573.08
614.321	26964.24
614.517	26566.93
614.712	26362.14
614.907	26222.87
615.103	26485.01
615.298	26100
615.493	26394.9
615.688	26196.25
615.884	26392.86
616.079	25757.99
616.274	26161.44
616.47	25796.9
616.665	26145.05
616.86	25688.35
617.055	25737.51
617.25	25831.71
617.445	26018.08
617.641	25383.21
617.836	25362.73
618.031	25360.68
618.226	25493.8
618.421	25465.13
618.616	25362.73
618.811	25192.75
619.006	25301.29
619.201	24553.78
619.396	25028.91
619.591	24721.71
619.786	24795.44
619.981	24451.38
620.176	24621.36
620.371	24119.61
620.566	24101.18
620.761	24328.5
620.956	24348.98
621.151	23601.47
621.346	23982.4
621.541	23712.06
621.735	23914.81
621.93	23304.52
622.125	23554.37
622.32	22845.77
622.515	23304.52
622.709	22921.55
622.904	22749.52
623.099	22815.05
623.294	22589.78
623.488	22374.74
623.683	22395.22
623.878	22186.33
624.072	22049.11
624.267	22151.51
624.462	21997.92
624.656	21739.87
624.851	21797.21
625.046	21672.29
625.24	21520.74
625.435	21000.55
625.629	21236.07
625.824	20914.54
626.018	21068.14
626.213	20326.77
626.407	20986.22
626.602	20392.31
626.796	20746.61
626.991	20332.92
627.185	20500.85
627.38	20224.37
627.574	20193.65
627.768	19728.77
627.963	19827.07
628.157	19761.53
628.352	19878.27
628.546	19673.47
628.74	19513.73
628.935	19282.31
629.129	19540.35
629.323	19198.34
629.517	19046.79
629.712	19005.83
629.906	19173.77
630.1	18641.29
630.294	18672.01
630.489	18227.6
630.683	18743.69
630.877	18583.95
631.071	18362.77
631.265	18323.86
631.459	18065.81
631.653	17926.55
631.848	17906.07
632.042	17942.94
632.236	17875.35
632.43	17906.07
632.624	17709.47
632.818	17611.17
633.012	17500.58
633.206	17293.73
633.4	17166.76
633.594	16988.58
633.788	17213.86
633.982	17062.31
634.176	17027.49
634.369	16929.19
634.563	16757.16
634.757	16454.06
634.951	16886.19
635.145	16521.65
635.339	16169.4
635.533	16263.6
635.726	16386.48
635.92	16189.88
636.114	16050.61
636.308	16191.92
636.501	15890.87
636.695	15935.93
636.889	15837.62
637.083	15579.58
637.276	15487.42
637.47	15641.02
637.664	15260.1
637.857	15376.83
638.051	15475.13
638.244	15100.36
638.438	14907.85
638.632	15139.27
638.825	15024.58
639.019	14879.18
639.212	14909.9
639.406	14768.59
639.599	14645.71
639.793	14744.01
639.986	14334.42
640.18	14590.41
640.373	14293.46
640.567	14033.36
640.76	14076.37
640.954	14080.47
641.147	13947.35
641.34	13687.26
641.534	13836.76
641.727	13887.96
641.92	13470.17
642.114	13504.99
642.307	13646.3
642.5	13457.89
642.694	13257.18
642.887	13193.7
643.08	13234.66
643.273	13191.65
643.467	13042.15
643.66	12816.87
643.853	13025.76
644.046	12661.23
644.239	12814.82
644.432	12739.05
644.626	12675.56
644.819	12481
645.012	12452.33
645.205	12501.48
645.398	12425.71
645.591	12282.35
645.784	12179.95
645.977	11917.81
646.17	12061.17
646.363	12028.4
646.556	11987.44
646.749	11766.26
646.942	11966.96
647.135	11917.81
647.328	11753.98
647.521	11657.72
647.714	11655.67
647.907	11590.14
648.099	11504.12
648.292	11323.9
648.485	11319.81
648.678	11246.08
648.871	11147.78
649.064	10902.02
649.256	11115.01
649.449	11045.38
649.642	10959.36
649.835	10770.95
650.027	10865.16
650.22	10574.35
650.413	10517
650.605	10533.39
650.798	10656.26
650.991	10461.71
651.183	10385.93
651.376	10265.1
651.568	10215.95
651.761	10209.81
651.954	10330.64
652.146	10199.57
652.339	10240.53
652.531	9890.32
652.724	10041.87
652.916	9628.18
653.109	10048.02
653.301	9695.77
653.494	9697.81
653.686	9517.59
653.879	9542.17
654.071	9599.51
654.263	9544.22
654.456	9390.62
654.648	9452.06
654.84	9384.48
655.033	9386.52
655.225	9194.01
655.417	9122.34
655.61	9351.71
655.802	9108
655.994	9146.91
656.186	9144.86
656.379	8962.59
656.571	8849.96
656.763	9046.56
656.955	8788.52
657.148	8682.02
657.34	8823.33
657.532	8567.34
657.724	8579.62
657.916	8434.22
658.108	8421.93
658.3	8509.99
658.492	8444.46
658.684	8307.24
658.876	8198.7
659.068	8170.03
659.26	8174.13
659.452	7975.47
659.644	7998
659.836	8086.06
660.028	8131.12
660.22	7819.83
660.412	7846.45
660.604	7750.2
660.796	7813.68
660.988	7629.37
661.18	7813.68
661.372	7723.57
661.563	7637.56
661.755	7580.21
661.947	7561.78
662.139	7438.91
662.331	7326.27
662.522	7201.34
662.714	7397.95
662.906	7213.63
663.097	7285.31
663.289	7340.6
663.481	7131.71
663.673	7047.74
663.864	7006.78
664.056	6926.91
664.247	6838.85
664.439	6726.21
664.631	6879.81
664.822	6806.08
665.014	6871.62
665.205	6693.44
665.397	6810.18
665.588	6617.67
665.78	6619.72
665.971	6607.43
666.163	6625.86
666.354	6545.99
666.546	6560.33
666.737	6462.02
666.929	6279.75
667.12	6511.18
667.311	6365.77
667.503	6273.61
667.694	6257.23
667.885	6179.4
668.077	6117.97
668.268	6146.64
668.459	6187.6
668.651	6142.54
668.842	6183.5
669.033	6038.09
669.224	5855.83
669.416	5925.46
669.607	5888.59
669.798	5861.97
669.989	5982.8
670.18	5792.34
670.371	5757.52
670.563	5700.18
670.754	5835.35
670.945	5667.41
671.136	5642.84
671.327	5646.93
671.518	5526.1
671.709	5565.01
671.9	5616.21
672.091	5575.25
672.282	5421.66
672.473	5577.3
672.664	5464.66
672.855	5296.73
673.046	5433.94
673.237	5522.01
673.428	5231.19
673.619	5405.27
673.809	5241.43
674	5128.8
674.191	5263.96
674.382	5036.64
674.573	5223
674.764	5104.22
674.954	5139.04
675.145	5118.56
675.336	4999.77
675.527	5141.08
675.717	5106.27
675.908	4989.53
676.099	5085.79
676.289	4989.53
676.48	4942.43
676.671	4905.57
676.861	4880.99
677.052	4895.33
677.243	4885.09
677.433	4721.25
677.624	4729.44
677.814	4770.4
678.005	4921.95
678.195	4715.11
678.386	4694.63
678.576	4813.41
678.767	4762.21
678.957	4668
679.148	4889.18
679.338	4598.37
679.529	4692.58
679.719	4545.13
679.909	4698.72
680.1	4618.85
680.29	4635.24
680.481	4450.92
680.671	4661.86
680.861	4528.74
681.052	4602.47
681.242	4428.39
681.432	4719.2
681.622	4434.53
681.813	4299.37
682.003	4369
682.193	4532.84
682.383	4426.34
682.573	4477.54
682.764	4334.18
682.954	4405.86
683.144	4389.48
683.334	4387.43
683.524	4219.5
683.714	4325.99
683.904	4311.66
684.094	4397.67
684.284	4176.49
684.474	4319.85
684.664	4282.99
684.854	4295.27
685.044	4219.5
685.234	4233.83
685.424	4450.92
685.614	4182.63
685.804	4123.24
685.994	4260.46
686.184	4293.23
686.374	4219.5
686.564	4139.63
686.753	4014.7
686.943	4102.76
687.133	4160.11
687.323	4219.5
687.513	4088.43
687.702	4106.86
687.892	3908.21
688.082	4078.19
688.272	3981.93
688.461	4090.48
688.651	4006.51
688.841	3938.93
689.03	3848.82
689.22	4008.56
689.41	3885.68
689.599	4029.04
689.789	3943.02
689.979	3961.45
690.168	3799.66
690.358	3883.63
690.547	3869.3
690.737	3801.71
690.926	3838.58
691.116	3803.76
691.305	3873.39
691.495	3719.79
691.684	3844.72
691.874	3748.47
692.063	3805.81
692.252	3766.9
692.442	3830.38
692.631	3785.33
692.82	3750.51
693.01	3629.68
693.199	3750.51
693.388	3668.59
693.578	3676.79
693.767	3793.52
693.956	3629.68
694.146	3621.49
694.335	3676.79
694.524	3564.15
694.713	3705.46
694.902	3574.39
695.092	3660.4
695.281	3519.09
695.47	3594.87
695.659	3603.06
695.848	3580.53
696.037	3426.93
696.226	3574.39
696.415	3553.91
696.604	3400.31
696.793	3439.22
696.982	3533.43
697.171	3488.37
697.36	3355.26
697.549	3467.89
697.738	3381.88
697.927	3457.65
698.116	3408.5
698.305	3498.61
698.494	3385.98
698.683	3408.5
698.872	3482.23
699.061	3357.3
699.25	3371.64
699.438	3302.01
699.627	3332.73
699.816	3365.5
700.005	3306.1
700.193	3215.99
700.382	3314.3
700.571	3385.98
700.76	3187.32
700.948	3349.11
701.137	3203.71
701.326	3250.81
701.514	3334.78
701.703	3252.86
701.892	3175.03
702.08	3291.77
702.269	3187.32
702.457	3099.26
702.646	2966.14
702.834	3158.65
703.023	3138.17
703.212	3097.21
703.4	3207.8
703.589	3107.45
703.777	3162.75
703.965	3103.36
704.154	2998.91
704.342	3160.7
704.531	3046.01
704.719	3097.21
704.907	3041.92
705.096	3127.93
705.284	2978.43
705.472	3033.72
705.661	2939.52
705.849	3093.12
706.037	3037.82
706.226	3062.4
706.414	2939.52
706.602	3005.05
706.79	3121.79
706.979	2925.18
707.167	3025.53
707.355	2914.94
707.543	2923.13
707.731	2972.29
707.919	2833.02
708.107	3013.24
708.296	2890.37
708.484	3021.44
708.672	2941.57
708.86	2861.69
709.048	2800.26
709.236	2779.78
709.424	2937.47
709.612	2859.65
709.8	2916.99
709.988	2775.68
710.176	2814.59
710.364	2927.23
710.551	2744.96
710.739	2783.87
710.927	2685.57
711.115	2718.34
711.303	2677.38
711.491	2708.1
711.679	2802.3
711.866	2794.11
712.054	2777.73
712.242	2785.92
712.43	2742.91
712.617	2677.38
712.805	2675.33
712.993	2679.43
713.181	2706.05
713.368	2652.8
713.556	2804.35
713.744	2597.51
713.931	2681.47
714.119	2701.95
714.306	2652.8
714.494	2636.42
714.682	2714.24
714.869	2521.73
715.057	2681.47
715.244	2677.38
715.432	2701.95
715.619	2601.6
715.807	2550.4
715.994	2484.87
716.182	2577.03
716.369	2652.8
716.556	2685.57
716.744	2525.83
716.931	2558.6
717.119	2564.74
717.306	2513.54
717.493	2517.64
717.681	2458.25
717.868	2566.79
718.055	2448.01
718.242	2525.83
718.43	2448.01
718.617	2523.78
718.804	2583.17
718.991	2515.59
719.179	2470.53
719.366	2476.68
719.553	2501.25
719.74	2554.5
719.927	2546.31
720.114	2452.1
720.301	2321.03
720.488	2435.72
720.676	2357.89
720.863	2437.77
721.05	2384.52
721.237	2386.57
721.424	2292.36
721.611	2493.06
721.798	2308.74
721.985	2349.7
722.172	2366.09
722.358	2327.18
722.545	2435.72
722.732	2349.7
722.919	2345.61
723.106	2292.36
723.293	2366.09
723.48	2366.09
723.667	2249.35
723.853	2261.64
724.04	2310.79
724.227	2138.76
724.414	2300.55
724.6	2136.71
724.787	2169.48
724.974	2251.4
725.161	2251.4
725.347	2275.98
725.534	2323.08
725.72	2228.87
725.907	2261.64
726.094	2222.73
726.28	2185.87
726.467	2228.87
726.653	2249.35
726.84	2243.21
727.027	2136.71
727.213	2120.33
727.4	2245.26
727.586	2126.47
727.773	2155.15
727.959	2120.33
728.145	2046.6
728.332	2169.48
728.518	2128.52
728.705	2048.65
728.891	2042.51
729.077	2095.75
729.264	2210.44
729.45	2140.81
729.636	2185.87
729.823	2097.8
730.009	2103.95
730.195	2079.37
730.382	2097.8
730.568	2105.99
730.754	2161.29
730.94	2091.66
731.126	2071.18
731.313	2087.56
731.499	2120.33
731.685	1999.5
731.871	2042.51
732.057	2122.38
732.243	2056.84
732.429	2030.22
732.615	2134.67
732.801	1989.26
732.987	2075.28
733.173	1989.26
733.359	2065.04
733.545	2073.23
733.731	1972.88
733.917	2091.66
734.103	1995.4
734.289	2015.88
734.475	1972.88
734.661	2015.88
734.847	1956.49
735.033	2034.32
735.219	1917.58
735.404	1979.02
735.59	1979.02
735.776	1972.88
735.962	1895.05
736.148	2038.41
736.333	1942.16
736.519	1948.3
736.705	2007.69
736.89	1890.96
737.076	1800.85
737.262	1841.81
737.447	1796.75
737.633	1954.44
737.819	1751.7
738.004	1858.19
738.19	1794.7
738.375	1821.33
738.561	1837.71
738.747	1776.27
738.932	1759.89
739.118	1893.01
739.303	1870.48
739.489	1827.47
739.674	1647.25
739.859	1667.73
740.045	1759.89
740.23	1759.89
740.416	1690.26
740.601	1878.67
740.786	1735.31
740.972	1751.7
741.157	1821.33
741.342	1684.11
741.528	1694.35
741.713	1759.89
741.898	1653.39
742.084	1647.25
742.269	1700.5
742.454	1714.83
742.639	1690.26
742.824	1811.09
743.01	1714.83
743.195	1759.89
743.38	1772.18
743.565	1770.13
743.75	1596.05
743.935	1708.69
744.12	1755.79
744.305	1524.37
744.49	1565.33
744.675	1514.13
744.86	1540.76
745.045	1602.19
745.23	1579.67
745.415	1526.42
745.6	1692.3
745.785	1489.56
745.97	1540.76
746.155	1632.91
746.34	1530.52
746.525	1620.63
746.71	1604.24
746.895	1417.88
747.079	1555.09
747.264	1637.01
747.449	1534.61
747.634	1469.08
747.819	1526.42
748.003	1475.22
748.188	1417.88
748.373	1495.7
748.557	1460.88
748.742	1522.32
748.927	1374.87
749.111	1401.49
749.296	1401.49
749.481	1395.35
749.665	1385.11
749.85	1456.79
750.034	1391.25
750.219	1292.95
750.404	1438.36
750.588	1335.96
750.773	1385.11
750.957	1340.05
751.141	1358.49
751.326	1286.81
751.51	1254.04
751.695	1213.08
751.879	1311.38
752.064	1243.8
752.248	1344.15
752.432	1297.05
752.617	1264.28
752.801	1301.14
752.985	1170.07
753.17	1182.36
753.354	1219.22
753.538	1243.8
753.722	1163.93
753.907	1198.74
754.091	1141.4
754.275	1157.79
754.459	1159.83
754.643	1184.41
754.828	1122.97
755.012	1161.88
755.196	1168.02
755.38	1143.45
755.564	1192.6
755.748	1157.79
755.932	1125.02
756.116	1165.98
756.3	1092.25
756.484	1108.63
756.668	1108.63
756.852	1079.96
757.036	1034.91
757.22	1067.67
757.404	1034.91
757.588	1014.43
757.772	991.9
757.956	1022.62
758.14	1110.68
758.323	1030.81
758.507	1159.83
758.691	1000.09
758.875	1014.43
759.059	1102.49
759.242	955.04
759.426	985.76
759.61	1016.48
759.794	1032.86
759.977	948.89
760.161	1039
760.345	952.99
760.528	907.93
760.712	1004.19
760.895	930.46
761.079	875.17
761.263	983.71
761.446	858.78
761.63	940.7
761.813	920.22
761.997	905.88
762.18	850.59
762.364	957.08
762.547	924.32
762.731	879.26
762.914	932.51
763.098	961.18
763.281	936.6
763.464	920.22
763.648	912.03
763.831	924.32
764.015	760.48
764.198	877.21
764.381	834.21
764.564	823.97
764.748	885.41
764.931	893.6
765.114	899.74
765.297	850.59
765.481	748.19
765.664	850.59
765.847	860.83
766.03	780.96
766.213	858.78
766.397	852.64
766.58	744.1
766.763	842.4
766.946	877.21
767.129	791.2
767.312	778.91
767.495	787.1
767.678	805.53
767.861	854.69
768.044	801.44
768.227	838.3
768.41	936.6
768.593	787.1
768.776	776.86
768.959	826.01
769.142	871.07
769.324	803.49
769.507	807.58
769.69	768.67
769.873	854.69
770.056	871.07
770.239	795.29
770.421	858.78
770.604	776.86
770.787	803.49
770.97	793.25
771.152	696.99
771.335	846.49
771.518	764.58
771.7	797.34
771.883	793.25
772.066	785.05
772.248	752.29
772.431	780.96
772.613	719.52
772.796	705.18
772.978	731.81
773.161	744.1
773.343	703.14
773.526	678.56
773.708	572.07
773.891	641.7
774.073	684.7
774.256	684.7
774.438	719.52
774.621	672.42
774.803	656.03
774.985	682.66
775.168	709.28
775.35	594.59
775.532	737.95
775.715	752.29
775.897	641.7
776.079	656.03
776.261	670.37
776.444	547.49
776.626	637.6
776.808	670.37
776.99	662.18
777.173	600.74
777.355	656.03
777.537	615.07
777.719	623.27
777.901	588.45
778.083	508.58
778.265	576.16
778.447	662.18
778.629	522.91
778.811	604.83
778.993	531.11
779.175	668.32
779.357	604.83
779.539	596.64
779.721	549.54
779.903	631.46
780.085	576.16
780.267	522.91
780.449	531.11
780.631	522.91
780.812	506.53
780.994	590.5
781.176	473.76
781.358	574.11
781.54	508.58
781.721	551.59
781.903	559.78
782.085	475.81
782.267	553.63
782.448	481.96
782.63	522.91
782.812	496.29
782.993	479.91
783.175	545.44
783.357	502.43
783.538	535.2
783.72	508.58
783.901	453.28
784.083	455.33
784.264	441
784.446	383.65
784.627	402.08
784.809	475.81
784.99	477.86
785.172	447.14
785.353	449.19
785.535	516.77
785.716	420.52
785.897	357.03
786.079	451.24
786.26	432.8
786.441	447.14
786.623	322.21
786.804	428.71
786.985	412.32
787.167	381.6
787.348	457.38
787.529	410.28
787.71	422.56
787.891	418.47
788.073	371.37
788.254	371.37
788.435	434.85
788.616	377.51
788.797	311.97
788.978	336.55
789.159	404.13
789.34	418.47
789.522	336.55
789.703	342.69
789.884	389.8
790.065	334.5
790.246	443.04
790.427	357.03
790.607	387.75
790.788	465.57
790.969	322.21
791.15	303.78
791.331	334.5
791.512	350.89
791.693	326.31
791.874	359.08
792.054	359.08
792.235	367.27
792.416	354.98
792.597	252.58
792.778	371.37
792.958	367.27
793.139	338.6
793.32	293.54
793.5	303.78
793.681	354.98
793.862	320.17
794.042	336.55
794.223	211.62
794.404	311.97
794.584	320.17
794.765	330.41
794.945	363.17
795.126	328.36
795.306	385.7
795.487	252.58
795.667	350.89
795.848	268.97
796.028	367.27
796.209	295.59
796.389	264.87
796.57	246.44
796.75	230.06
796.93	232.1
797.111	256.68
797.291	305.83
797.471	193.19
797.652	291.49
797.832	281.25
798.012	250.53
798.192	246.44
798.373	318.12
798.553	240.3
798.733	256.68
798.913	301.73
799.093	230.06
799.274	230.06
799.454	254.63
799.634	264.87
799.814	262.82
799.994	230.06
800.174	307.88
800.354	285.35
800.534	252.58
800.714	309.93
800.894	320.17
801.074	309.93
801.254	240.3
801.434	258.73
801.614	223.91
801.794	199.34
801.974	793.25
802.154	277.16
802.334	209.58
802.514	252.58
802.693	285.35
802.873	246.44
803.053	328.36
803.233	305.83
803.413	309.93
803.592	209.58
803.772	287.4
803.952	266.92
804.131	211.62
804.311	279.21
804.491	205.48
804.67	170.66
804.85	203.43
805.03	201.38
805.209	174.76
805.389	271.01
805.568	211.62
805.748	131.75
805.928	236.2
806.107	223.91
806.287	203.43
806.466	201.38
806.646	209.58
806.825	225.96
807.004	170.66
807.184	203.43
807.363	203.43
807.543	166.57
807.722	139.94
807.901	211.62
808.081	211.62
808.26	189.1
808.439	164.52
808.619	141.99
808.798	197.29
808.977	260.77
809.156	172.71
809.336	96.94
809.515	205.48
809.694	209.58
809.873	109.23
810.052	174.76
810.231	246.44
810.411	176.81
810.59	158.38
810.769	176.81
810.948	266.92
811.127	187.05
811.306	203.43
811.485	129.7
811.664	301.73
811.843	230.06
812.022	156.33
812.201	209.58
812.38	207.53
812.559	174.76
812.737	123.56
812.916	96.94
813.095	119.46
813.274	162.47
813.453	131.75
813.632	121.51
813.811	221.86
813.989	168.62
814.168	146.09
814.347	74.41
814.526	180.9
814.704	211.62
814.883	185
815.062	203.43
815.24	158.38
815.419	195.24
815.598	139.94
815.776	113.32
815.955	64.17
816.133	103.08
816.312	178.86
816.49	213.67
816.669	180.9
816.847	144.04
817.026	156.33
817.204	53.93
817.383	150.18
817.561	125.61
817.74	80.55
817.918	191.14
818.097	123.56
818.275	193.19
818.453	199.34
818.632	199.34
818.81	49.83
818.988	141.99
819.167	141.99
819.345	150.18
819.523	111.27
819.701	148.14
819.879	121.51
820.058	160.42
820.236	156.33
820.414	146.09
820.592	78.51
820.77	121.51
820.948	131.75
821.127	115.37
821.305	139.94
821.483	88.75
821.661	139.94
821.839	166.57
822.017	80.55
822.195	96.94
822.373	203.43
822.551	203.43
822.729	150.18
822.907	137.9
823.085	150.18
823.262	88.75
823.44	201.38
823.618	88.75
823.796	154.28
823.974	172.71
824.152	115.37
824.329	66.22
824.507	170.66
824.685	86.7
824.863	152.23
825.04	101.03
825.218	187.05
825.396	107.18
825.574	178.86
825.751	76.46
825.929	64.17
826.107	113.32
826.284	96.94
826.462	170.66
826.639	109.23
826.817	119.46
826.994	105.13
827.172	105.13
827.349	160.42
827.527	154.28
827.704	64.17
827.882	98.99
828.059	115.37
828.237	113.32
828.414	162.47
828.591	96.94
828.769	113.32
828.946	164.52
829.124	170.66
829.301	109.23
829.478	80.55
829.655	129.7
829.833	92.84
830.01	129.7
830.187	137.9
830.364	129.7
830.542	168.62
830.719	133.8
830.896	121.51
831.073	146.09
831.25	189.1
831.427	60.07
831.604	88.75
831.782	96.94
831.959	107.18
832.136	117.42
832.313	105.13
832.49	76.46
832.667	129.7
832.844	80.55
833.021	115.37
833.198	90.79
833.374	154.28
833.551	158.38
833.728	123.56
833.905	70.31
834.082	27.31
834.259	105.13
834.436	96.94
834.612	109.23
834.789	148.14
834.966	80.55
835.143	72.36
835.319	29.35
835.496	6.83
835.673	92.84
835.85	170.66
836.026	55.98
836.203	129.7
836.38	72.36
836.556	109.23
836.733	96.94
836.909	211.62
837.086	111.27
837.262	101.03
837.439	131.75
837.616	103.08
837.792	111.27
837.968	94.89
838.145	51.88
838.321	64.17
838.498	137.9
838.674	90.79
838.851	88.75
839.027	92.84
839.203	113.32
839.38	123.56
839.556	98.99
839.732	74.41
839.909	88.75
840.085	105.13
840.261	131.75
840.437	154.28
840.614	131.75
840.79	17.07
840.966	96.94
841.142	64.17
841.318	113.32
841.494	68.27
841.671	117.42
841.847	156.33
842.023	43.69
842.199	74.41
842.375	115.37
842.551	64.17
842.727	-5.46
842.903	129.7
843.079	25.26
843.255	154.28
843.431	64.17
843.607	62.12
843.783	115.37
843.959	137.9
844.134	4.78
844.31	156.33
844.486	88.75
844.662	80.55
844.838	45.74
845.013	107.18
845.189	123.56
845.365	74.41
845.541	43.69
845.716	117.42
845.892	121.51
846.068	115.37
846.244	41.64
846.419	31.4
846.595	39.59
846.77	15.02
846.946	137.9
847.122	141.99
847.297	49.83
847.473	41.64
847.648	88.75
847.824	94.89
847.999	84.65
848.175	119.46
848.35	74.41
848.526	129.7
848.701	158.38
848.876	68.27
849.052	64.17
849.227	80.55
849.403	103.08
849.578	39.59
849.753	66.22
849.929	121.51
850.104	23.21
850.279	154.28
850.454	96.94
850.63	109.23
850.805	68.27
850.98	88.75
851.155	6.83
851.33	84.65
851.505	25.26
851.681	90.79
851.856	68.27
852.031	68.27
852.206	27.31
852.381	-15.7
852.556	-17.75
852.731	109.23
852.906	90.79
853.081	43.69
853.256	107.18
853.431	43.69
853.606	33.45
853.781	31.4
853.956	-25.94
854.131	80.55
854.305	62.12
854.48	55.98
854.655	55.98
854.83	25.26
855.005	64.17
855.18	80.55
855.354	68.27
855.529	78.51
855.704	2.73
855.879	64.17
856.053	72.36
856.228	37.55
856.403	2.73
856.577	166.57
856.752	70.31
856.926	115.37
857.101	15.02
857.276	6.83
857.45	10.92
857.625	64.17
857.799	72.36
857.974	35.5
858.148	96.94
858.323	55.98
858.497	27.31
858.672	23.21
858.846	-64.85
859.02	31.4
859.195	35.5
859.369	51.88
859.543	51.88
859.718	21.16
859.892	0.68
860.066	72.36
860.241	88.75
860.415	33.45
860.589	66.22
860.763	88.75
860.938	80.55
861.112	68.27
861.286	15.02
861.46	92.84
861.634	68.27
861.808	80.55
861.982	15.02
862.157	17.07
862.331	39.59
862.505	25.26
862.679	-1.37
862.853	15.02
863.027	53.93
863.201	90.79
863.375	15.02
863.549	96.94
863.722	25.26
863.896	76.46
864.07	47.79
864.244	47.79
864.418	15.02
864.592	92.84
864.766	88.75
864.939	76.46
865.113	35.5
865.287	105.13
865.461	-5.46
865.634	88.75
865.808	62.12
865.982	47.79
866.156	-38.23
866.329	-7.51
866.503	127.66
866.676	121.51
866.85	27.31
867.024	49.83
867.197	23.21
867.371	119.46
867.544	90.79
867.718	37.55
867.891	27.31
868.065	37.55
868.238	37.55
868.412	98.99
868.585	60.07
868.759	43.69
868.932	6.83
869.105	-5.46
869.279	60.07
869.452	23.21
869.625	-40.28
869.799	101.03
869.972	84.65
870.145	84.65
870.319	49.83
870.492	-1.37
870.665	64.17
870.838	-13.65
871.011	37.55
871.185	55.98
871.358	98.99
871.531	137.9
871.704	31.4
871.877	72.36
872.05	55.98
872.223	23.21
872.396	72.36
872.569	84.65
872.742	49.83
872.915	33.45
873.088	49.83
873.261	33.45
873.434	76.46
873.607	43.69
873.78	98.99
873.953	39.59
874.126	58.03
874.299	31.4
874.471	113.32
874.644	-42.32
874.817	19.11
874.99	76.46
875.163	47.79
875.335	33.45
875.508	90.79
875.681	84.65
875.853	39.59
876.026	90.79
876.199	23.21
876.371	53.93
876.544	64.17
876.717	80.55
876.889	64.17
877.062	47.79
877.234	-11.61
877.407	76.46
877.579	47.79
877.752	98.99
877.924	12.97
878.097	72.36
878.269	115.37
878.442	2.73
878.614	33.45
878.786	49.83
878.959	8.87
879.131	39.59
879.303	-32.08
879.476	39.59
879.648	33.45
879.82	10.92
879.993	86.7
880.165	19.11
880.337	2.73
880.509	113.32
880.681	-27.99
880.854	62.12
881.026	4.78
881.198	107.18
881.37	82.6
881.542	113.32
881.714	10.92
881.886	70.31
882.058	43.69
882.23	103.08
882.402	2.73
882.574	72.36
882.746	29.35
882.918	96.94
883.09	66.22
883.262	47.79
883.434	41.64
883.606	2.73
883.778	4.78
883.95	80.55
884.122	2.73
884.293	96.94
884.465	88.75
884.637	150.18
884.809	10.92
884.98	23.21
885.152	23.21
885.324	12.97
885.496	51.88
885.667	8.87
885.839	74.41
886.011	21.16
886.182	-25.94
886.354	47.79
886.525	39.59
886.697	-9.56
886.869	2.73
887.04	90.79
887.212	12.97
887.383	80.55
887.555	25.26
887.726	58.03
887.897	6.83
888.069	15.02
888.24	35.5
888.412	39.59
888.583	17.07
888.754	92.84
888.926	-32.08
889.097	-9.56
889.268	72.36
889.44	15.02
889.611	17.07
889.782	0.68
889.953	55.98
890.125	51.88
890.296	72.36
890.467	23.21
890.638	47.79
890.809	43.69
890.98	8.87
891.151	19.11
891.323	31.4
891.494	53.93
891.665	27.31
891.836	10.92
892.007	33.45
892.178	25.26
892.349	49.83
892.52	88.75
892.691	76.46
892.862	15.02
893.032	2.73
893.203	98.99
893.374	21.16
893.545	66.22
893.716	-75.09
893.887	96.94
894.057	15.02
894.228	72.36
894.399	2.73
894.57	-66.9
894.74	51.88
894.911	31.4
895.082	-25.94
895.253	17.07
895.423	25.26
895.594	125.61
895.764	74.41
895.935	80.55
896.106	-5.46
896.276	47.79
896.447	29.35
896.617	66.22
896.788	-3.41
896.958	6.83
897.129	19.11
897.299	53.93
897.47	58.03
897.64	-32.08
897.81	45.74
897.981	53.93
898.151	15.02
898.322	72.36
898.492	-83.28
898.662	80.55
898.832	39.59
899.003	27.31
899.173	80.55
899.343	60.07
899.513	-15.7
