Data from USB4F104151__119__14-43-54-030.txt Node

Date: Thu Mar 13 14:43:54 EDT 2025
User: louis
Spectrometer: USB4F10415
Trigger mode: 4
Integration Time (sec): 2.000000E-2
Scans to average: 1
Electric dark correction enabled: true
Nonlinearity correction enabled: false
Boxcar width: 0
XAxis mode: Wavelengths
Number of Pixels in Spectrum: 3648
>>>>>Begin Spectral Data<<<<<
178.204	-69.12
178.424	-69.12
178.644	-69.12
178.864	-128.51
179.084	-140.8
179.304	12.8
179.524	-34.3
179.744	-13.82
179.964	-1.54
180.184	55.81
180.404	41.47
180.624	-65.02
180.844	43.52
181.064	-24.06
181.283	-15.87
181.503	-1.54
181.723	2.56
181.943	-99.84
182.163	4.61
182.383	-30.21
182.602	23.04
182.822	41.47
183.042	23.04
183.262	-52.74
183.482	23.04
183.701	0.51
183.921	25.09
184.141	-38.4
184.361	39.42
184.58	47.62
184.8	55.81
185.02	0.51
185.239	141.82
185.459	-26.11
185.679	-3.58
185.898	6.66
186.118	78.33
186.338	16.9
186.557	-24.06
186.777	-1.54
186.997	-48.64
187.216	6.66
187.436	57.86
187.655	-15.87
187.875	27.14
188.095	39.42
188.314	47.62
188.534	35.33
188.753	72.19
188.973	39.42
189.192	70.14
189.412	8.7
189.631	6.66
189.851	27.14
190.07	72.19
190.29	29.18
190.509	-50.69
190.729	23.04
190.948	31.23
191.168	174.59
191.387	27.14
191.607	88.57
191.826	-48.64
192.045	33.28
192.265	88.57
192.484	61.95
192.704	35.33
192.923	-26.11
193.142	178.69
193.362	47.62
193.581	86.53
193.8	-77.31
194.02	31.23
194.239	43.52
194.458	45.57
194.678	-65.02
194.897	-58.88
195.116	-7.68
195.335	33.28
195.555	-71.17
195.774	23.04
195.993	55.81
196.212	49.66
196.432	12.8
196.651	-15.87
196.87	12.8
197.089	129.53
197.308	72.19
197.528	0.51
197.747	39.42
197.966	-34.3
198.185	82.43
198.404	-32.26
198.623	12.8
198.842	102.91
199.062	6.66
199.281	55.81
199.5	-9.73
199.719	82.43
199.938	88.57
200.157	205.31
200.376	-95.74
200.595	-17.92
200.814	27.14
201.033	-38.4
201.252	14.85
201.471	-42.5
201.69	-9.73
201.909	70.14
202.128	-5.63
202.347	29.18
202.566	-5.63
202.785	-48.64
203.004	-40.45
203.223	55.81
203.442	23.04
203.661	-5.63
203.879	-60.93
204.098	-17.92
204.317	0.51
204.536	16.9
204.755	20.99
204.974	43.52
205.193	61.95
205.411	72.19
205.63	39.42
205.849	33.28
206.068	88.57
206.287	41.47
206.505	104.96
206.724	-42.5
206.943	43.52
207.162	57.86
207.381	-13.82
207.599	-5.63
207.818	8.7
208.037	-58.88
208.255	-34.3
208.474	68.09
208.693	23.04
208.911	20.99
209.13	10.75
209.349	39.42
209.567	25.09
209.786	25.09
210.005	-28.16
210.223	47.62
210.442	-62.98
210.661	-1.54
210.879	-42.5
211.098	-5.63
211.316	39.42
211.535	78.33
211.753	0.51
211.972	102.91
212.191	27.14
212.409	64
212.628	27.14
212.846	64
213.065	51.71
213.283	-73.21
213.502	39.42
213.72	16.9
213.938	14.85
214.157	-42.5
214.375	100.86
214.594	25.09
214.812	76.29
215.031	82.43
215.249	6.66
215.467	-13.82
215.686	-28.16
215.904	66.05
216.122	-46.59
216.341	8.7
216.559	59.9
216.778	14.85
216.996	33.28
217.214	25.09
217.432	47.62
217.651	-30.21
217.869	41.47
218.087	-34.3
218.306	-40.45
218.524	23.04
218.742	-1.54
218.96	59.9
219.179	6.66
219.397	55.81
219.615	80.38
219.833	39.42
220.051	43.52
220.27	25.09
220.488	10.75
220.706	61.95
220.924	-1.54
221.142	57.86
221.36	49.66
221.578	16.9
221.796	43.52
222.015	-1.54
222.233	35.33
222.451	137.73
222.669	31.23
222.887	20.99
223.105	-19.97
223.323	-5.63
223.541	10.75
223.759	88.57
223.977	8.7
224.195	39.42
224.413	76.29
224.631	47.62
224.849	-36.35
225.067	39.42
225.285	72.19
225.503	84.48
225.721	31.23
225.939	31.23
226.157	14.85
226.375	131.58
226.592	-5.63
226.81	8.7
227.028	-17.92
227.246	-1.54
227.464	-5.63
227.682	14.85
227.9	23.04
228.117	72.19
228.335	55.81
228.553	43.52
228.771	-40.45
228.989	2.56
229.206	47.62
229.424	-50.69
229.642	43.52
229.86	18.94
230.077	-9.73
230.295	31.23
230.513	88.57
230.731	41.47
230.948	39.42
231.166	55.81
231.384	25.09
231.601	25.09
231.819	-46.59
232.037	4.61
232.254	51.71
232.472	-5.63
232.689	-19.97
232.907	6.66
233.125	-17.92
233.342	-48.64
233.56	0.51
233.777	-9.73
233.995	33.28
234.213	20.99
234.43	49.66
234.648	66.05
234.865	-34.3
235.083	25.09
235.3	29.18
235.518	6.66
235.735	102.91
235.953	45.57
236.17	-24.06
236.388	33.28
236.605	45.57
236.822	33.28
237.04	25.09
237.257	55.81
237.475	-1.54
237.692	-32.26
237.909	10.75
238.127	27.14
238.344	-19.97
238.562	66.05
238.779	33.28
238.996	33.28
239.214	-58.88
239.431	37.38
239.648	-42.5
239.865	33.28
240.083	-11.78
240.3	-30.21
240.517	-42.5
240.735	41.47
240.952	80.38
241.169	84.48
241.386	8.7
241.603	-7.68
241.821	-26.11
242.038	98.81
242.255	-1.54
242.472	-48.64
242.689	31.23
242.907	43.52
243.124	25.09
243.341	55.81
243.558	41.47
243.775	59.9
243.992	49.66
244.209	59.9
244.426	23.04
244.643	-42.5
244.86	-56.83
245.078	43.52
245.295	31.23
245.512	-9.73
245.729	-62.98
245.946	-50.69
246.163	4.61
246.38	-19.97
246.597	39.42
246.814	14.85
247.031	68.09
247.248	-26.11
247.464	-17.92
247.681	23.04
247.898	27.14
248.115	96.77
248.332	-48.64
248.549	55.81
248.766	14.85
248.983	14.85
249.2	64
249.417	88.57
249.633	-40.45
249.85	41.47
250.067	-13.82
250.284	57.86
250.501	82.43
250.717	78.33
250.934	47.62
251.151	31.23
251.368	23.04
251.585	-5.63
251.801	-15.87
252.018	31.23
252.235	29.18
252.451	12.8
252.668	27.14
252.885	-13.82
253.102	16.9
253.318	47.62
253.535	2.56
253.752	64
253.968	12.8
254.185	23.04
254.401	20.99
254.618	39.42
254.835	23.04
255.051	104.96
255.268	2.56
255.484	33.28
255.701	27.14
255.917	88.57
256.134	-67.07
256.351	23.04
256.567	-24.06
256.784	64
257	-65.02
257.217	10.75
257.433	100.86
257.65	29.18
257.866	39.42
258.082	-42.5
258.299	-1.54
258.515	20.99
258.732	-15.87
258.948	31.23
259.165	-11.78
259.381	55.81
259.597	23.04
259.814	-9.73
260.03	12.8
260.246	-17.92
260.463	-9.73
260.679	80.38
260.895	66.05
261.112	41.47
261.328	-26.11
261.544	-62.98
261.761	80.38
261.977	27.14
262.193	-24.06
262.409	55.81
262.626	23.04
262.842	8.7
263.058	23.04
263.274	-32.26
263.49	18.94
263.707	-7.68
263.923	2.56
264.139	76.29
264.355	-58.88
264.571	-1.54
264.787	31.23
265.004	53.76
265.22	-19.97
265.436	10.75
265.652	6.66
265.868	8.7
266.084	-26.11
266.3	-1.54
266.516	-3.58
266.732	-7.68
266.948	-1.54
267.164	-26.11
267.38	47.62
267.596	14.85
267.812	39.42
268.028	66.05
268.244	-19.97
268.46	33.28
268.676	25.09
268.892	64
269.108	18.94
269.324	-1.54
269.54	31.23
269.756	31.23
269.972	39.42
270.188	10.75
270.403	-17.92
270.619	-1.54
270.835	-17.92
271.051	25.09
271.267	2.56
271.483	-17.92
271.698	20.99
271.914	39.42
272.13	55.81
272.346	-1.54
272.562	23.04
272.777	90.62
272.993	39.42
273.209	45.57
273.425	74.24
273.64	33.28
273.856	51.71
274.072	-42.5
274.287	-81.41
274.503	57.86
274.719	37.38
274.934	55.81
275.15	-50.69
275.366	64
275.581	-1.54
275.797	0.51
276.012	-13.82
276.228	76.29
276.444	23.04
276.659	0.51
276.875	47.62
277.09	55.81
277.306	66.05
277.521	0.51
277.737	-9.73
277.952	6.66
278.168	64
278.383	35.33
278.599	80.38
278.814	25.09
279.03	27.14
279.245	23.04
279.461	33.28
279.676	55.81
279.892	-30.21
280.107	59.9
280.322	35.33
280.538	80.38
280.753	51.71
280.969	47.62
281.184	-32.26
281.399	80.38
281.615	-22.02
281.83	23.04
282.045	-30.21
282.26	4.61
282.476	31.23
282.691	43.52
282.906	-7.68
283.122	2.56
283.337	72.19
283.552	84.48
283.767	23.04
283.983	39.42
284.198	-22.02
284.413	35.33
284.628	23.04
284.843	-9.73
285.058	29.18
285.274	33.28
285.489	20.99
285.704	59.9
285.919	4.61
286.134	6.66
286.349	92.67
286.564	-32.26
286.779	72.19
286.995	33.28
287.21	-13.82
287.425	39.42
287.64	47.62
287.855	41.47
288.07	-9.73
288.285	29.18
288.5	84.48
288.715	31.23
288.93	-13.82
289.145	12.8
289.36	33.28
289.575	12.8
289.79	100.86
290.004	57.86
290.219	-30.21
290.434	-34.3
290.649	-65.02
290.864	-50.69
291.079	14.85
291.294	51.71
291.509	37.38
291.724	8.7
291.938	37.38
292.153	23.04
292.368	-50.69
292.583	10.75
292.798	-3.58
293.012	47.62
293.227	-13.82
293.442	47.62
293.657	-15.87
293.871	43.52
294.086	2.56
294.301	96.77
294.516	23.04
294.73	41.47
294.945	23.04
295.16	10.75
295.374	23.04
295.589	23.04
295.804	57.86
296.018	-1.54
296.233	41.47
296.447	10.75
296.662	-26.11
296.877	8.7
297.091	47.62
297.306	-13.82
297.52	10.75
297.735	-44.54
297.949	64
298.164	23.04
298.378	-9.73
298.593	23.04
298.807	2.56
299.022	-17.92
299.236	74.24
299.451	-50.69
299.665	-9.73
299.88	72.19
300.094	55.81
300.309	80.38
300.523	72.19
300.737	47.62
300.952	94.72
301.166	27.14
301.381	20.99
301.595	-3.58
301.809	-32.26
302.024	31.23
302.238	-13.82
302.452	43.52
302.667	14.85
302.881	72.19
303.095	43.52
303.309	29.18
303.524	39.42
303.738	14.85
303.952	-1.54
304.166	35.33
304.381	-71.17
304.595	57.86
304.809	16.9
305.023	0.51
305.237	35.33
305.452	-17.92
305.666	72.19
305.88	72.19
306.094	10.75
306.308	8.7
306.522	72.19
306.736	55.81
306.95	88.57
307.164	27.14
307.379	-32.26
307.593	100.86
307.807	47.62
308.021	25.09
308.235	86.53
308.449	2.56
308.663	23.04
308.877	92.67
309.091	-50.69
309.305	43.52
309.519	16.9
309.733	-13.82
309.947	33.28
310.161	8.7
310.374	49.66
310.588	66.05
310.802	-22.02
311.016	-30.21
311.23	23.04
311.444	-7.68
311.658	-5.63
311.872	74.24
312.085	47.62
312.299	102.91
312.513	55.81
312.727	39.42
312.941	41.47
313.154	80.38
313.368	16.9
313.582	41.47
313.796	41.47
314.009	96.77
314.223	68.09
314.437	72.19
314.651	0.51
314.864	-17.92
315.078	0.51
315.292	0.51
315.505	-22.02
315.719	41.47
315.933	-34.3
316.146	4.61
316.36	-9.73
316.573	33.28
316.787	33.28
317.001	82.43
317.214	121.34
317.428	33.28
317.641	47.62
317.855	-40.45
318.068	8.7
318.282	-9.73
318.495	31.23
318.709	33.28
318.922	33.28
319.136	10.75
319.349	27.14
319.563	2.56
319.776	-7.68
319.99	-13.82
320.203	6.66
320.417	72.19
320.63	72.19
320.843	68.09
321.057	80.38
321.27	6.66
321.483	55.81
321.697	131.58
321.91	41.47
322.124	55.81
322.337	92.67
322.55	39.42
322.763	18.94
322.977	14.85
323.19	14.85
323.403	4.61
323.617	90.62
323.83	43.52
324.043	61.95
324.256	74.24
324.469	-7.68
324.683	-40.45
324.896	-13.82
325.109	55.81
325.322	-26.11
325.535	66.05
325.748	23.04
325.962	-1.54
326.175	23.04
326.388	82.43
326.601	8.7
326.814	18.94
327.027	55.81
327.24	49.66
327.453	8.7
327.666	10.75
327.879	23.04
328.092	8.7
328.305	64
328.518	94.72
328.731	57.86
328.944	43.52
329.157	55.81
329.37	39.42
329.583	31.23
329.796	72.19
330.009	-5.63
330.222	25.09
330.435	-7.68
330.648	53.76
330.861	68.09
331.073	-3.58
331.286	80.38
331.499	10.75
331.712	41.47
331.925	-7.68
332.138	-30.21
332.35	-7.68
332.563	-1.54
332.776	123.39
332.989	25.09
333.202	64
333.414	78.33
333.627	14.85
333.84	33.28
334.053	10.75
334.265	31.23
334.478	31.23
334.691	55.81
334.903	39.42
335.116	31.23
335.329	18.94
335.541	27.14
335.754	96.77
335.966	-30.21
336.179	25.09
336.392	64
336.604	31.23
336.817	-50.69
337.029	-56.83
337.242	-13.82
337.454	8.7
337.667	0.51
337.88	76.29
338.092	49.66
338.305	-9.73
338.517	35.33
338.729	-9.73
338.942	39.42
339.154	-42.5
339.367	-40.45
339.579	2.56
339.792	-42.5
340.004	6.66
340.217	-40.45
340.429	94.72
340.641	-34.3
340.854	25.09
341.066	4.61
341.278	47.62
341.491	100.86
341.703	35.33
341.915	8.7
342.128	66.05
342.34	4.61
342.552	27.14
342.764	55.81
342.977	98.81
343.189	-24.06
343.401	33.28
343.613	-13.82
343.826	23.04
344.038	10.75
344.25	25.09
344.462	-9.73
344.674	10.75
344.886	27.14
345.099	53.76
345.311	-5.63
345.523	64
345.735	8.7
345.947	98.81
346.159	-13.82
346.371	80.38
346.583	88.57
346.795	66.05
347.007	10.75
347.219	35.33
347.431	-26.11
347.643	64
347.855	57.86
348.067	121.34
348.279	-1.54
348.491	-1.54
348.703	115.2
348.915	-7.68
349.127	-42.5
349.339	82.43
349.551	47.62
349.763	66.05
349.975	25.09
350.187	23.04
350.399	49.66
350.61	33.28
350.822	0.51
351.034	109.05
351.246	72.19
351.458	23.04
351.669	41.47
351.881	96.77
352.093	49.66
352.305	107.01
352.517	109.05
352.728	47.62
352.94	23.04
353.152	76.29
353.363	-7.68
353.575	-17.92
353.787	41.47
353.999	55.81
354.21	-17.92
354.422	16.9
354.633	0.51
354.845	64
355.057	-22.02
355.268	43.52
355.48	-5.63
355.692	4.61
355.903	-1.54
356.115	10.75
356.326	25.09
356.538	98.81
356.749	14.85
356.961	80.38
357.172	-40.45
357.384	-32.26
357.595	80.38
357.807	43.52
358.018	-17.92
358.23	47.62
358.441	-1.54
358.653	39.42
358.864	-17.92
359.075	-30.21
359.287	43.52
359.498	72.19
359.709	-24.06
359.921	57.86
360.132	39.42
360.344	31.23
360.555	-46.59
360.766	55.81
360.977	-65.02
361.189	133.63
361.4	6.66
361.611	88.57
361.823	39.42
362.034	-3.58
362.245	-7.68
362.456	8.7
362.667	55.81
362.879	-17.92
363.09	-22.02
363.301	-3.58
363.512	70.14
363.723	-48.64
363.935	49.66
364.146	96.77
364.357	76.29
364.568	76.29
364.779	-17.92
364.99	8.7
365.201	55.81
365.412	80.38
365.623	57.86
365.834	57.86
366.045	41.47
366.256	55.81
366.467	64
366.678	10.75
366.889	39.42
367.1	57.86
367.311	80.38
367.522	27.14
367.733	-7.68
367.944	55.81
368.155	98.81
368.366	59.9
368.577	0.51
368.788	23.04
368.999	-3.58
369.209	49.66
369.42	68.09
369.631	139.77
369.842	39.42
370.053	-15.87
370.264	16.9
370.474	-24.06
370.685	109.05
370.896	-7.68
371.107	98.81
371.317	96.77
371.528	0.51
371.739	133.63
371.95	107.01
372.16	-34.3
372.371	33.28
372.582	86.53
372.792	16.9
373.003	35.33
373.214	72.19
373.424	23.04
373.635	-77.31
373.846	53.76
374.056	-1.54
374.267	-7.68
374.477	27.14
374.688	31.23
374.898	8.7
375.109	16.9
375.319	55.81
375.53	-19.97
375.74	-13.82
375.951	-13.82
376.161	35.33
376.372	49.66
376.582	-9.73
376.793	-9.73
377.003	55.81
377.214	-9.73
377.424	66.05
377.635	-3.58
377.845	-50.69
378.055	-5.63
378.266	2.56
378.476	12.8
378.686	-22.02
378.897	0.51
379.107	55.81
379.317	78.33
379.528	80.38
379.738	68.09
379.948	-26.11
380.158	41.47
380.369	27.14
380.579	59.9
380.789	47.62
380.999	92.67
381.21	35.33
381.42	23.04
381.63	70.14
381.84	70.14
382.05	31.23
382.261	47.62
382.471	119.29
382.681	-42.5
382.891	72.19
383.101	-24.06
383.311	-7.68
383.521	-26.11
383.731	57.86
383.941	31.23
384.151	41.47
384.361	53.76
384.571	-1.54
384.781	80.38
384.991	64
385.201	39.42
385.411	113.15
385.621	84.48
385.831	76.29
386.041	51.71
386.251	33.28
386.461	55.81
386.671	-9.73
386.881	-40.45
387.091	-5.63
387.301	64
387.511	18.94
387.72	51.71
387.93	-5.63
388.14	-65.02
388.35	6.66
388.56	35.33
388.769	2.56
388.979	66.05
389.189	8.7
389.399	111.1
389.609	39.42
389.818	-1.54
390.028	45.57
390.238	35.33
390.447	14.85
390.657	53.76
390.867	92.67
391.076	39.42
391.286	2.56
391.496	59.9
391.705	88.57
391.915	12.8
392.125	154.11
392.334	0.51
392.544	57.86
392.753	6.66
392.963	47.62
393.172	72.19
393.382	0.51
393.591	66.05
393.801	31.23
394.01	64
394.22	80.38
394.429	61.95
394.639	47.62
394.848	49.66
395.058	-15.87
395.267	119.29
395.477	74.24
395.686	25.09
395.895	117.25
396.105	123.39
396.314	96.77
396.524	6.66
396.733	74.24
396.942	72.19
397.152	80.38
397.361	72.19
397.57	16.9
397.78	76.29
397.989	68.09
398.198	55.81
398.407	43.52
398.617	59.9
398.826	6.66
399.035	47.62
399.244	31.23
399.453	-13.82
399.663	66.05
399.872	76.29
400.081	72.19
400.29	41.47
400.499	66.05
400.708	49.66
400.917	25.09
401.127	66.05
401.336	82.43
401.545	102.91
401.754	100.86
401.963	96.77
402.172	80.38
402.381	47.62
402.59	14.85
402.799	74.24
403.008	76.29
403.217	39.42
403.426	123.39
403.635	72.19
403.844	156.16
404.053	47.62
404.262	64
404.471	123.39
404.68	102.91
404.888	78.33
405.097	115.2
405.306	98.81
405.515	123.39
405.724	102.91
405.933	131.58
406.142	109.05
406.35	172.54
406.559	82.43
406.768	104.96
406.977	152.06
407.185	201.21
407.394	168.45
407.603	82.43
407.812	147.97
408.02	119.29
408.229	213.5
408.438	131.58
408.646	141.82
408.855	195.07
409.064	190.97
409.272	166.4
409.481	199.16
409.69	172.54
409.898	203.26
410.107	121.34
410.315	231.93
410.524	276.99
410.733	213.5
410.941	182.78
411.15	231.93
411.358	238.08
411.567	328.19
411.775	244.22
411.984	334.33
412.192	371.19
412.401	276.99
412.609	233.98
412.818	371.19
413.026	412.15
413.234	322.04
413.443	293.37
413.651	365.05
413.86	428.54
414.068	440.83
414.276	383.48
414.485	313.85
414.693	428.54
414.901	475.64
415.11	457.21
415.318	432.63
415.526	430.59
415.734	565.75
415.943	575.99
416.151	543.22
416.359	524.79
416.567	631.29
416.776	588.28
416.984	590.33
417.192	614.9
417.4	629.24
417.608	702.97
417.817	606.71
418.025	727.54
418.233	793.08
418.441	694.77
418.649	834.04
418.857	842.23
419.065	897.52
419.273	799.22
419.481	858.61
419.689	944.63
419.897	999.92
420.105	981.49
420.313	1001.97
420.521	1055.22
420.729	1038.83
420.937	1130.99
421.145	1075.7
421.353	1145.33
421.561	1272.3
421.769	1309.16
421.977	1321.45
422.185	1288.68
422.393	1407.47
422.601	1481.19
422.809	1516.01
423.017	1454.57
423.224	1579.5
423.432	1628.65
423.64	1657.32
423.848	1661.41
424.056	1649.13
424.263	1894.88
424.471	1829.35
424.679	1886.69
424.887	1927.65
425.094	2044.38
425.302	2030.05
425.51	2152.93
425.718	2128.35
425.925	2212.32
426.133	2267.61
426.341	2445.79
426.548	2583
426.756	2546.14
426.964	2464.22
427.171	2826.71
427.379	2722.26
427.586	2804.18
427.794	2800.09
428.001	3078.61
428.209	3228.11
428.417	3066.32
428.624	3398.09
428.832	3340.75
429.039	3350.99
429.247	3299.79
429.454	3637.7
429.662	4045.25
429.869	3627.46
430.076	3852.74
430.284	3707.34
430.491	4086.21
430.699	4071.87
430.906	4194.75
431.114	4159.94
431.321	4389.31
431.528	4438.46
431.736	4835.77
431.943	4839.86
432.15	4940.21
432.358	4743.61
432.565	5157.3
432.772	5056.95
432.979	5525.93
433.187	5423.53
433.394	5527.98
433.601	5693.87
433.808	6056.36
434.016	5843.37
434.223	6021.54
434.43	6527.39
434.637	6240.67
434.844	6773.14
435.052	6824.34
435.259	6740.38
435.466	6838.68
435.673	6748.57
435.88	7180.69
436.087	7569.8
436.294	7569.8
436.501	7428.49
436.708	7647.63
436.915	7666.06
437.122	8180.1
437.329	7958.92
437.537	8434.05
437.743	8575.36
437.95	8520.06
438.157	9056.63
438.364	9148.79
438.571	9148.79
438.778	9218.42
438.985	9972.07
439.192	9691.5
439.399	10107.24
439.606	9574.77
439.813	10396
440.02	10903.9
440.227	10860.89
440.433	10516.83
440.64	10731.87
440.847	10873.18
441.054	11061.59
441.261	11946.31
441.467	11860.3
441.674	11821.39
441.881	12360
442.088	12317
442.294	12114.25
442.501	12556.61
442.708	12663.1
442.914	13201.72
443.121	13994.28
443.328	13615.41
443.534	14405.92
443.741	14049.58
443.948	13924.65
444.154	14831.9
444.361	14829.85
444.568	14799.13
444.774	14663.97
444.981	14803.23
445.187	15419.67
445.394	16034.06
445.6	15827.21
445.807	17148.15
446.013	16773.38
446.22	17031.42
446.426	17916.14
446.633	17602.8
446.839	18620.64
447.046	17668.34
447.252	18487.53
447.459	18561.25
447.665	18528.49
447.871	19538.13
448.078	20267.21
448.284	19366.1
448.491	19773.65
448.697	20545.73
448.903	20932.8
449.11	20822.21
449.316	20453.58
449.522	21272.76
449.728	21385.4
449.935	21971.12
450.141	21649.59
450.347	22466.73
450.553	21668.02
450.76	21840.05
450.966	22481.06
451.172	22233.26
451.378	22933.67
451.584	22417.58
451.791	23148.7
451.997	23113.89
452.203	23568.54
452.409	23761.05
452.615	23554.2
452.821	22388.91
453.027	22370.47
453.233	23455.9
453.44	22661.29
453.646	22548.65
453.852	22798.5
454.058	23347.36
454.264	22855.84
454.47	23136.41
454.676	22468.78
454.882	23304.35
455.088	21170.36
455.294	21637.3
455.5	21907.63
455.705	22366.38
455.911	21172.41
456.117	20744.39
456.323	20777.15
456.529	19790.03
456.735	20465.86
456.941	19912.91
457.147	19407.06
457.352	19226.84
457.558	19038.43
457.764	18974.94
457.97	18516.2
458.176	18219.24
458.381	18194.67
458.587	17182.97
458.793	17635.57
458.999	16378.12
459.204	17529.08
459.41	17043.71
459.616	15825.17
459.821	15888.65
460.027	15925.52
460.233	15868.17
460.438	14895.39
460.644	15065.37
460.85	14498.08
461.055	13910.32
461.261	14199.08
461.466	13162.81
461.672	12638.53
461.878	13345.08
462.083	12525.89
462.289	12568.9
462.494	12259.65
462.7	11772.24
462.905	11585.87
463.111	12026.18
463.316	11893.07
463.522	11542.86
463.727	11405.65
463.932	11614.54
464.138	11600.21
464.343	11616.59
464.549	11163.99
464.754	11608.4
464.959	11532.62
465.165	11512.14
465.37	10897.75
465.575	10848.6
465.781	10899.8
465.986	11221.33
466.191	10656.09
466.397	10582.37
466.602	9922.92
466.807	10484.06
467.012	10232.16
467.218	10174.82
467.423	9967.98
467.628	10162.53
467.833	10576.22
468.038	10293.6
468.244	9939.3
468.449	10459.49
468.654	9996.65
468.859	9877.87
469.064	9673.07
469.269	9382.26
469.474	9773.42
469.679	9683.31
469.885	9412.98
470.09	9470.32
470.295	9607.53
470.5	9345.39
470.705	9464.18
470.91	9116.02
471.115	9034.1
471.32	9261.43
471.525	9427.31
471.73	9066.87
471.935	8976.76
472.139	8620.41
472.344	8630.65
472.549	8595.84
472.754	8698.24
472.959	8366.46
473.164	8227.2
473.369	7963.01
473.574	8376.7
473.778	8309.12
473.983	8323.46
474.188	8251.78
474.393	7829.9
474.598	7956.87
474.802	7858.57
475.007	7766.41
475.212	7688.59
475.417	7506.32
475.621	7610.76
475.826	7608.72
476.031	7309.71
476.235	7405.97
476.44	7405.97
476.645	7111.06
476.849	7399.82
477.054	7049.62
477.259	6842.78
477.463	7063.96
477.668	6863.26
477.872	6906.26
478.077	6873.5
478.282	6599.07
478.486	6564.25
478.691	6588.83
478.895	6422.94
479.1	6422.94
479.304	6543.77
479.509	6273.44
479.713	6422.94
479.918	6341.02
480.122	6085.03
480.326	6257.06
480.531	6158.75
480.735	6070.69
480.94	6052.26
481.144	6379.93
481.348	6193.57
481.553	6046.12
481.757	5947.81
481.961	6154.66
482.166	6168.99
482.37	6148.51
482.574	6101.41
482.778	6117.79
482.983	6267.3
483.187	5972.39
483.391	6140.32
483.595	5970.34
483.8	5956.01
484.004	6125.99
484.208	6191.52
484.412	5767.59
484.616	6093.22
484.821	5937.57
485.025	5978.53
485.229	6060.45
485.433	5888.42
485.637	5896.61
485.841	6025.64
486.045	5982.63
486.249	5878.18
486.453	6007.2
486.657	5966.24
486.861	5925.29
487.065	5880.23
487.269	5949.86
487.473	5921.19
487.677	6060.45
487.881	6080.93
488.085	5878.18
488.289	5939.62
488.493	5978.53
488.697	5937.57
488.901	6078.88
489.105	6097.31
489.309	6019.49
489.512	6087.08
489.716	6080.93
489.92	6095.27
490.124	5937.57
490.328	6261.15
490.531	6113.7
490.735	6123.94
490.939	6119.84
491.143	6201.76
491.346	6189.47
491.55	6298.02
491.754	6205.86
491.958	6199.71
492.161	6183.33
492.365	6412.7
492.569	6273.44
492.772	6136.23
492.976	6476.19
493.18	6398.37
493.383	6511
493.587	6601.12
493.79	6472.09
493.994	6568.35
494.197	6582.68
494.401	6560.16
494.605	6683.03
494.808	6732.19
495.012	6668.7
495.215	6668.7
495.419	6986.13
495.622	6746.52
495.825	6922.65
496.029	7055.76
496.232	7055.76
496.436	6998.42
496.639	7029.14
496.843	7104.92
497.046	7461.26
497.249	7405.97
497.453	7432.59
497.656	7473.55
497.859	7436.69
498.063	7616.91
498.266	7694.73
498.469	7833.99
498.673	7766.41
498.876	8083.84
499.079	7969.16
499.282	7981.45
499.485	8202.63
499.689	8280.45
499.892	8341.89
500.095	8278.4
500.298	8550.78
500.501	8702.33
500.705	8794.49
500.908	8806.78
501.111	8968.57
501.314	9050.49
501.517	9048.44
501.72	9140.6
501.923	9230.71
502.126	9498.99
502.329	9515.37
502.532	9640.3
502.735	9666.92
502.938	9990.5
503.141	9955.69
503.344	9970.02
503.547	10195.3
503.75	10477.92
503.953	10414.43
504.156	10502.5
504.359	10504.54
504.562	10600.8
504.765	10801.5
504.968	10967.38
505.17	11002.2
505.373	11213.14
505.576	11213.14
505.779	11397.46
505.982	11462.99
506.185	11694.41
506.387	11864.39
506.59	11942.22
506.793	11821.39
506.996	11825.48
507.198	12384.58
507.401	12300.61
507.604	12519.74
507.807	12699.97
508.009	12822.84
508.212	13037.88
508.415	13171
508.617	13171
508.82	13240.63
509.022	13271.35
509.225	13427
509.428	13646.13
509.63	14057.77
509.833	13881.64
510.035	14291.24
510.238	14131.5
510.44	14192.94
510.643	14332.2
510.845	14510.37
511.048	14657.82
511.25	15022.36
511.453	14749.98
511.655	15395.09
511.858	15014.17
512.06	15450.39
512.262	15579.41
512.465	15550.74
512.667	15804.69
512.87	16064.78
513.072	16105.74
513.274	16363.78
513.477	16650.5
513.679	16537.86
513.881	16679.17
514.084	17060.09
514.286	16855.29
514.488	17213.69
514.69	17516.79
514.893	17602.8
515.095	17762.54
515.297	17856.75
515.499	17877.23
515.701	18108.65
515.904	18315.5
516.106	18424.04
516.308	18514.15
516.51	18659.56
516.712	18757.86
516.914	19151.07
517.116	19347.67
517.318	19464.41
517.52	19511.51
517.722	19751.12
517.925	20136.14
518.127	20252.87
518.329	20429
518.531	20299.98
518.733	20535.49
518.935	20854.98
519.136	20955.33
519.338	21184.7
519.54	21223.61
519.742	21842.1
519.944	21731.51
520.146	21924.02
520.348	22157.49
520.55	22005.94
520.752	22155.44
520.954	22431.91
521.155	22349.99
521.357	22696.1
521.559	23072.93
521.761	23302.3
521.963	23169.18
522.164	23371.93
522.366	23255.2
522.568	23640.22
522.77	23961.75
522.971	23955.6
523.173	23875.73
523.375	24314
523.576	24606.86
523.778	24428.68
523.98	24912
524.181	24903.81
524.383	24854.66
524.584	25217.15
524.786	25151.62
524.988	25108.61
525.189	25458.81
525.391	25469.05
525.592	25686.14
525.794	25690.23
525.995	25663.61
526.197	25700.47
526.398	25927.8
526.6	26474.6
526.801	26259.57
527.003	26515.56
527.204	26509.42
527.406	26841.19
527.607	26695.78
527.808	26769.51
528.01	26433.64
528.211	26638.44
528.412	27023.46
528.614	26937.44
528.815	27011.17
529.016	27738.2
529.218	27160.67
529.419	27035.75
529.62	27525.21
529.822	27172.96
530.023	27017.32
530.224	27316.32
530.425	27605.08
530.626	27271.26
530.828	27471.96
531.029	27680.86
531.23	27615.32
531.431	27754.58
531.632	27822.17
531.833	27746.39
532.035	27850.84
532.236	27832.41
532.437	28065.88
532.638	27887.7
532.839	28057.68
533.04	27965.53
533.241	27928.66
533.442	28692.55
533.643	27930.71
533.844	27912.28
534.045	27994.2
534.246	27875.41
534.447	28213.33
534.648	27750.49
534.849	28285.01
535.05	27773.02
535.251	27998.29
535.451	27949.14
535.652	28072.02
535.853	28010.58
536.054	28346.45
536.255	28297.3
536.456	27904.09
536.657	28190.8
536.857	27983.96
537.058	28315.73
537.259	28434.51
537.46	28031.06
537.66	28153.94
537.861	28117.07
538.062	28192.85
538.263	28090.45
538.463	28143.7
538.664	27910.23
538.865	28235.86
539.065	28239.95
539.266	28041.3
539.466	28405.84
539.667	27709.53
539.868	28227.67
540.068	27981.91
540.269	28285.01
540.469	28295.25
540.67	27830.36
540.87	27986
541.071	27891.8
541.271	27992.15
541.472	27945.05
541.672	27537.5
541.873	27869.27
542.073	27338.85
542.274	27975.77
542.474	28092.5
542.675	27721.82
542.875	28344.4
543.075	27852.89
543.276	27504.73
543.476	27998.29
543.676	27744.34
543.877	27953.24
544.077	27994.2
544.277	27836.5
544.478	27586.65
544.678	27973.72
544.878	27793.5
545.078	28172.37
545.279	27682.91
545.479	27719.77
545.679	27666.52
545.879	27764.82
546.079	27613.27
546.28	27488.35
546.48	27330.65
546.68	27881.56
546.88	27783.26
547.08	27670.62
547.28	27584.6
547.48	27355.23
547.68	27793.5
547.88	27693.15
548.081	27807.83
548.281	27627.61
548.481	27336.8
548.681	28092.5
548.881	27590.75
549.081	27682.91
549.28	27486.3
549.48	27445.34
549.68	27621.47
549.88	27557.98
550.08	27598.94
550.28	27754.58
550.48	27607.13
550.68	27725.91
550.88	27359.33
551.08	27461.72
551.279	27609.18
551.479	27166.82
551.679	27652.19
551.879	27519.07
552.079	27605.08
552.278	27533.4
552.478	27099.23
552.678	27336.8
552.878	27596.89
553.077	27646.04
553.277	27033.7
553.477	27781.21
553.676	27299.94
553.876	27289.7
554.076	27181.15
554.275	27093.09
554.475	26919.01
554.674	27154.53
554.874	27117.67
555.074	27011.17
555.273	27224.16
555.473	27412.57
555.672	27097.19
555.872	26947.68
556.071	27185.25
556.271	27224.16
556.47	26624.11
556.67	26601.58
556.869	26980.45
557.068	26990.69
557.268	27013.22
557.467	27035.75
557.667	26589.29
557.866	26583.15
558.065	26779.75
558.265	26654.83
558.464	26624.11
558.663	26718.31
558.863	26445.93
559.062	26806.37
559.261	26245.23
559.461	26511.47
559.66	26251.38
559.859	26343.53
560.058	26034.29
560.258	26292.33
560.457	26136.69
560.656	26603.63
560.855	26003.57
561.054	26304.62
561.253	26130.55
561.453	26234.99
561.652	26179.7
561.851	26173.55
562.05	25923.7
562.249	25796.73
562.448	26056.82
562.647	26028.15
562.846	25751.67
563.045	25679.99
563.244	25630.84
563.443	25768.05
563.642	25305.21
563.841	25589.88
564.04	25387.13
564.239	25794.68
564.438	25419.9
564.637	25458.81
564.836	25196.67
565.035	25274.49
565.234	25325.69
565.432	25059.46
565.631	24920.2
565.83	25241.73
566.029	24758.41
566.228	24721.54
566.427	24907.91
566.625	24750.21
566.824	24832.13
567.023	24950.92
567.222	24400.01
567.42	24758.41
567.619	24424.59
567.818	24625.29
568.016	24512.65
568.215	25075.84
568.414	24311.95
568.612	24543.37
568.811	24158.35
569.01	24072.34
569.208	23992.47
569.407	24320.14
569.605	24068.24
569.804	24045.71
570.002	23578.78
570.201	24180.88
570.4	23793.81
570.598	23525.53
570.797	23638.17
570.995	23869.59
571.193	23648.41
571.392	23926.93
571.59	23353.5
571.789	23400.6
571.987	23556.25
572.186	23373.98
572.384	23255.2
572.582	23292.06
572.781	23459.99
572.979	22866.08
573.177	23314.59
573.376	23060.64
573.574	22821.03
573.772	22952.1
573.971	22692.01
574.169	22685.86
574.367	22683.81
574.565	22814.88
574.763	22388.91
574.962	22714.53
575.16	22296.75
575.358	22567.08
575.556	22386.86
575.754	22507.69
575.952	22173.87
576.151	22444.2
576.349	22132.91
576.547	22010.03
576.745	22177.97
576.943	22241.45
577.141	21967.02
577.339	21651.64
577.537	21862.58
577.735	22014.13
577.933	21442.74
578.131	21721.27
578.329	21584.05
578.527	21313.72
578.725	21559.48
578.923	21516.47
579.121	21414.07
579.319	21270.72
579.516	21283
579.714	21426.36
579.912	20996.29
580.11	21219.52
580.308	21215.42
580.506	21059.77
580.704	20861.12
580.901	20943.04
581.099	20908.22
581.297	20807.87
581.495	20568.26
581.692	21084.35
581.89	20453.58
582.088	20572.36
582.285	20455.62
582.483	20740.29
582.681	20701.38
582.878	20121.8
583.076	20130
583.274	20248.78
583.471	20140.24
583.669	20068.56
583.866	20156.62
584.064	20117.71
584.262	19957.97
584.459	19822.8
584.657	19714.26
584.854	20015.31
585.052	19767.51
585.249	19785.94
585.447	19785.94
585.644	19425.5
585.841	19507.41
586.039	19701.97
586.236	19194.08
586.434	19480.79
586.631	19362.01
586.828	19118.3
587.026	19364.06
587.223	19253.47
587.42	18813.15
587.618	19103.96
587.815	18807.01
588.012	18694.37
588.21	18720.99
588.407	18993.37
588.604	19202.27
588.801	18798.82
588.999	18446.57
589.196	18596.07
589.393	18677.99
589.59	18516.2
589.787	18462.95
589.984	18628.84
590.182	18172.14
590.379	18374.89
590.576	18178.28
590.773	18397.42
590.97	18168.04
591.167	18159.85
591.364	18012.4
591.561	17842.42
591.758	17922.29
591.955	17352.95
592.152	17991.92
592.349	17766.64
592.546	17836.27
592.743	17774.83
592.94	17414.39
593.137	17613.04
593.334	17467.64
593.531	17504.5
593.727	17459.45
593.924	17377.53
594.121	17066.24
594.318	17299.7
594.515	16912.64
594.712	17438.97
594.908	17096.96
595.105	17363.19
595.302	16910.59
595.499	16853.25
595.696	16810.24
595.892	16797.95
596.089	16683.27
596.286	16812.29
596.482	16859.39
596.679	16673.03
596.876	16734.46
597.072	16404.74
597.269	16546.05
597.466	16550.15
597.662	16476.42
597.859	16349.45
598.055	16361.73
598.252	16294.15
598.448	16185.61
598.645	16300.3
598.841	16072.97
599.038	16111.88
599.234	15933.71
599.431	15870.22
599.627	15784.21
599.824	15851.79
600.02	15907.09
600.217	15948.04
600.413	15792.4
600.609	15896.85
600.806	15616.27
601.002	15706.38
601.198	15677.71
601.395	15343.89
601.591	15434
601.787	15515.92
601.984	15376.66
602.18	15479.06
602.376	15454.48
602.572	15251.74
602.769	15409.43
602.965	15067.42
603.161	15194.39
603.357	15010.07
603.553	14993.69
603.75	15016.22
603.946	15061.27
604.142	14883.1
604.338	14731.55
604.534	14717.22
604.73	14719.26
604.926	14797.09
605.122	14733.6
605.318	14438.69
605.514	14493.99
605.71	14481.7
605.906	14393.64
606.102	14395.68
606.298	14463.27
606.494	14557.47
606.69	14760.22
606.886	14354.72
607.082	14164.26
607.278	14403.88
607.474	14033.19
607.67	14156.07
607.866	13990.19
608.062	14260.52
608.257	14059.82
608.453	14016.81
608.649	14014.76
608.845	13785.39
609.041	13803.82
609.236	13945.13
609.432	13764.91
609.628	14096.68
609.824	13850.92
610.019	13850.92
610.215	13842.73
610.411	13766.96
610.606	13676.85
610.802	13613.36
610.998	13580.59
611.193	13605.17
611.389	13537.59
611.584	13467.95
611.78	13363.51
611.976	13373.75
612.171	13412.66
612.367	13470
612.562	13474.1
612.758	13220.15
612.953	13146.42
613.149	13310.26
613.344	13103.42
613.539	13273.4
613.735	13365.56
613.93	13056.31
614.126	13140.28
614.321	13396.28
614.517	13314.36
614.712	13230.39
614.907	13107.51
615.103	12947.77
615.298	13093.18
615.493	13035.83
615.688	12900.67
615.884	13046.07
616.079	12976.44
616.274	13125.94
616.47	12904.76
616.665	12921.15
616.86	12736.83
617.055	12720.45
617.25	12708.16
617.445	12570.94
617.641	12513.6
617.836	12785.98
618.031	12689.73
618.226	12544.32
618.421	12663.1
618.616	12826.94
618.811	12546.37
619.006	12511.55
619.201	12065.1
619.396	12493.12
619.591	12138.82
619.786	12400.96
619.981	12101.96
620.176	12159.3
620.371	12081.48
620.566	12165.45
620.761	11940.17
620.956	11878.73
621.151	11841.87
621.346	11921.74
621.541	11624.78
621.735	11843.92
621.93	11536.72
622.125	11589.97
622.32	11516.24
622.515	11549.01
622.709	11344.21
622.904	11190.61
623.099	11209.04
623.294	11417.94
623.488	10873.18
623.683	11211.09
623.878	10905.95
624.072	10893.66
624.267	10953.05
624.462	10838.36
624.656	10682.72
624.851	10701.15
625.046	10547.55
625.24	10500.45
625.435	10551.65
625.629	10389.86
625.824	10543.46
626.018	10461.54
626.213	10312.03
626.407	10508.64
626.602	10185.06
626.796	10328.42
626.991	10162.53
627.185	10010.98
627.38	10017.13
627.574	10084.71
627.768	10183.01
627.963	9783.66
628.157	9716.08
628.352	9808.23
628.546	9683.31
628.74	9544.05
628.935	9607.53
629.129	9585.01
629.323	9372.02
629.517	9296.24
629.712	9226.61
629.906	9277.81
630.1	9181.56
630.294	9347.44
630.489	9140.6
630.683	9238.9
630.877	9085.3
631.071	8976.76
631.265	8984.95
631.459	8987
631.653	8921.46
631.848	8929.66
632.042	8874.36
632.236	8905.08
632.43	8728.95
632.624	8761.72
632.818	8511.87
633.012	8409.47
633.206	8577.41
633.4	8638.84
633.594	8456.57
633.788	8372.61
633.982	8468.86
634.176	8321.41
634.369	8276.35
634.563	8257.92
634.757	8081.8
634.951	8165.76
635.145	8167.81
635.339	8161.67
635.533	8001.93
635.726	8079.75
635.92	7965.06
636.114	7922.06
636.308	7682.44
636.501	7782.79
636.695	7772.55
636.889	7754.12
637.083	7727.5
637.276	7524.75
637.47	7692.68
637.664	7537.04
637.857	7627.15
638.051	7371.15
638.244	7510.41
638.438	7362.96
638.632	7209.36
638.825	7328.14
639.019	7317.9
639.212	7289.23
639.406	7354.77
639.599	7223.7
639.793	7281.04
639.986	7283.09
640.18	6969.75
640.373	6984.09
640.567	6953.37
640.76	7186.83
640.954	7010.71
641.147	6842.78
641.34	6783.38
641.534	6855.06
641.727	6824.34
641.92	6625.69
642.114	6715.8
642.307	6687.13
642.5	6658.46
642.694	6394.27
642.887	6633.88
643.08	6451.61
643.273	6429.09
643.467	6556.06
643.66	6439.33
643.853	6453.66
644.046	6341.02
644.239	6351.26
644.432	6257.06
644.626	6300.06
644.819	6183.33
645.012	6257.06
645.205	6314.4
645.398	6193.57
645.591	6117.79
645.784	6080.93
645.977	5937.57
646.17	5986.72
646.363	5992.87
646.556	5939.62
646.749	5831.08
646.942	5982.63
647.135	5888.42
647.328	5654.95
647.521	5724.58
647.714	5771.69
647.907	5781.93
648.099	5757.35
648.292	5618.09
648.485	5622.19
648.678	5714.34
648.871	5450.16
649.064	5540.27
649.256	5470.64
649.449	5419.44
649.642	5239.22
649.835	5454.25
650.027	5446.06
650.22	5413.29
650.413	5351.85
650.605	5421.49
650.798	5333.42
650.991	5081.52
651.183	5073.33
651.376	5194.16
651.568	5188.02
651.761	5093.81
651.954	5167.54
652.146	5077.43
652.339	5116.34
652.531	5104.05
652.724	4987.32
652.916	4929.97
653.109	4938.16
653.301	5052.85
653.494	4897.21
653.686	4798.9
653.879	5054.9
654.071	4809.14
654.263	4735.42
654.456	4784.57
654.648	4891.06
654.84	4766.14
655.033	4719.03
655.225	4792.76
655.417	4688.31
655.61	4569.53
655.802	4762.04
655.994	4536.76
656.186	4587.96
656.379	4622.78
656.571	4467.13
656.763	4553.15
656.955	4374.97
657.148	4565.43
657.34	4432.32
657.532	4403.64
657.724	4344.25
657.916	4354.49
658.108	4454.84
658.3	4309.44
658.492	4340.16
658.684	4295.1
658.876	4331.97
659.068	4325.82
659.26	4200.9
659.452	4200.9
659.644	4161.98
659.836	4252.1
660.028	4161.98
660.22	4045.25
660.412	4018.63
660.604	3959.24
660.796	4028.87
660.988	4006.34
661.18	4020.67
661.372	4006.34
661.563	3940.8
661.755	3971.52
661.947	3897.8
662.139	3826.12
662.331	3727.82
662.522	3799.49
662.714	3885.51
662.906	3752.39
663.097	3690.95
663.289	3766.73
663.481	3652.04
663.673	3703.24
663.864	3649.99
664.056	3697.1
664.247	3709.38
664.439	3676.62
664.631	3717.58
664.822	3703.24
665.014	3641.8
665.205	3656.14
665.397	3529.16
665.588	3613.13
665.78	3506.63
665.971	3422.67
666.163	3586.51
666.354	3533.26
666.546	3473.87
666.737	3660.23
666.929	3455.44
667.12	3471.82
667.311	3389.9
667.503	3455.44
667.694	3363.28
667.885	3363.28
668.077	3350.99
668.268	3275.21
668.459	3496.39
668.651	3275.21
668.842	3299.79
669.033	3291.6
669.224	3254.73
669.416	3428.81
669.607	3334.61
669.798	3221.97
669.989	3275.21
670.18	3219.92
670.371	3191.25
670.563	3197.39
670.754	3170.77
670.945	3160.53
671.136	3283.41
671.327	3156.43
671.518	3162.58
671.709	3023.31
671.9	3217.87
672.091	3111.38
672.282	3230.16
672.473	3252.69
672.664	3094.99
672.855	3170.77
673.046	3078.61
673.237	3174.86
673.428	3074.51
673.619	3125.71
673.809	3025.36
674	3049.94
674.191	3037.65
674.382	3017.17
674.573	3146.19
674.764	2941.4
674.954	3127.76
675.145	3070.42
675.336	2961.87
675.527	2953.68
675.717	2939.35
675.908	3127.76
676.099	2976.21
676.289	3078.61
676.48	2922.96
676.671	2795.99
676.861	2939.35
677.052	2941.4
677.243	2912.72
677.433	3019.22
677.624	2959.83
677.814	2951.63
678.005	2998.74
678.195	3015.12
678.386	2996.69
678.576	2886.1
678.767	2982.35
678.957	3013.07
679.148	2908.63
679.338	2980.31
679.529	2914.77
679.719	2849.24
679.909	2910.68
680.1	2851.28
680.29	2916.82
680.481	2884.05
680.671	3013.07
680.861	2806.23
681.052	2939.35
681.242	2882
681.432	2857.43
681.622	2777.56
681.813	2679.26
682.003	2853.33
682.193	2841.04
682.383	2914.77
682.573	2789.85
682.764	2867.67
682.954	2914.77
683.144	2810.33
683.334	2990.55
683.524	2793.94
683.714	2851.28
683.904	2779.61
684.094	2845.14
684.284	2748.89
684.474	2714.07
684.664	2697.69
684.854	3019.22
685.044	2734.55
685.234	2697.69
685.424	2728.41
685.614	2722.26
685.804	2767.32
685.994	2695.64
686.184	2828.76
686.374	2812.37
686.564	2857.43
686.753	2814.42
686.943	2621.91
687.133	2716.12
687.323	2537.95
687.513	2730.45
687.702	2669.02
687.892	2658.78
688.082	2597.34
688.272	2644.44
688.461	2619.86
688.651	2597.34
688.841	2474.46
689.03	2523.61
689.22	2603.48
689.41	2687.45
689.599	2398.68
689.789	2488.79
689.979	2517.47
690.168	2501.08
690.358	2472.41
690.547	2521.56
690.737	2363.87
690.926	2492.89
691.116	2431.45
691.305	2554.33
691.495	2388.44
691.684	2525.66
691.874	2398.68
692.063	2423.26
692.252	2472.41
692.442	2443.74
692.631	2394.59
692.82	2318.81
693.01	2386.4
693.199	2437.59
693.388	2275.81
693.578	2308.57
693.767	2316.76
693.956	2308.57
694.146	2240.99
694.335	2261.47
694.524	2245.09
694.713	2240.99
694.902	2236.89
695.092	2212.32
695.281	2138.59
695.47	2327
695.659	2265.57
695.848	2105.82
696.037	2298.33
696.226	2154.98
696.415	2056.67
696.604	2185.69
696.793	2159.07
696.982	2165.21
697.171	2093.54
697.36	2120.16
697.549	2152.93
697.738	2003.43
697.927	2144.74
698.116	2099.68
698.305	2195.93
698.494	2169.31
698.683	2122.21
698.872	2087.39
699.061	2136.54
699.25	2140.64
699.438	2001.38
699.627	1964.51
699.816	2128.35
700.005	2052.58
700.193	2017.76
700.382	2120.16
700.571	1984.99
700.76	1978.85
700.948	2091.49
701.137	2116.06
701.326	2034.14
701.514	2015.71
701.703	2079.2
701.892	2050.53
702.08	2132.45
702.269	2038.24
702.457	1888.74
702.646	2056.67
702.834	2023.91
703.023	1958.37
703.212	2013.67
703.4	2064.86
703.589	2019.81
703.777	1989.09
703.965	2038.24
704.154	1964.51
704.342	1927.65
704.531	2054.62
704.719	2095.58
704.907	2054.62
705.096	1976.8
705.284	2032.1
705.472	2019.81
705.661	1980.9
705.849	2042.34
706.037	2007.52
706.226	1976.8
706.414	1978.85
706.602	1915.36
706.79	1978.85
706.979	2023.91
707.167	1980.9
707.355	1935.84
707.543	2001.38
707.731	2058.72
707.919	1944.03
708.107	1894.88
708.296	1984.99
708.484	1923.55
708.672	2036.19
708.86	1991.14
709.048	1964.51
709.236	1907.17
709.424	1982.95
709.612	2038.24
709.8	1974.75
709.988	1980.9
710.176	2013.67
710.364	1901.03
710.551	2060.77
710.739	1958.37
710.927	1972.71
711.115	1976.8
711.303	2107.87
711.491	2013.67
711.679	2034.14
711.866	1941.99
712.054	1919.46
712.242	2081.25
712.43	1976.8
712.617	1964.51
712.805	1933.79
712.993	1993.19
713.181	1933.79
713.368	2030.05
713.556	2017.76
713.744	1919.46
713.931	1997.28
714.119	1997.28
714.306	2021.86
714.494	1964.51
714.682	2099.68
714.869	1982.95
715.057	1950.18
715.244	1964.51
715.432	1976.8
715.619	1952.23
715.807	2075.1
715.994	1980.9
716.182	2060.77
716.369	2118.11
716.556	2005.47
716.744	2021.86
716.931	2050.53
717.119	2116.06
717.306	2030.05
717.493	2071.01
717.681	2152.93
717.868	1991.14
718.055	2046.43
718.242	2111.97
718.43	2124.26
718.617	1939.94
718.804	2001.38
718.991	2005.47
719.179	2030.05
719.366	2126.3
719.553	2122.21
719.74	2089.44
719.927	2054.62
720.114	2042.34
720.301	2103.78
720.488	2066.91
720.676	1954.27
720.863	2150.88
721.05	2222.56
721.237	2114.02
721.424	2105.82
721.611	2148.83
721.798	2116.06
721.985	2046.43
722.172	2017.76
722.358	2171.36
722.545	2109.92
722.732	2167.26
722.919	2040.29
723.106	2224.61
723.293	2169.31
723.48	2038.24
723.667	2169.31
723.853	2212.32
724.04	2232.8
724.227	2200.03
724.414	2144.74
724.6	2195.93
724.787	2195.93
724.974	2240.99
725.161	2249.18
725.347	2136.54
725.534	2284
725.72	2226.65
725.907	2183.65
726.094	2157.02
726.28	2171.36
726.467	2193.89
726.653	2208.22
726.84	2161.12
727.027	2230.75
727.213	2177.5
727.4	2140.64
727.586	2189.79
727.773	2148.83
727.959	2193.89
728.145	2185.69
728.332	2286.05
728.518	2275.81
728.705	2195.93
728.891	2118.11
729.077	2202.08
729.264	2146.78
729.45	2185.69
729.636	2257.37
729.823	2224.61
730.009	2210.27
730.195	2234.85
730.382	2286.05
730.568	2243.04
730.754	2212.32
730.94	2261.47
731.126	2200.03
731.313	2374.11
731.499	2230.75
731.685	2226.65
731.871	2251.23
732.057	2316.76
732.243	2361.82
732.429	2294.24
732.615	2261.47
732.801	2333.15
732.987	2259.42
733.173	2367.96
733.359	2275.81
733.545	2322.91
733.731	2238.94
733.917	2367.96
734.103	2351.58
734.289	2286.05
734.475	2238.94
734.661	2392.54
734.847	2327
735.033	2263.52
735.219	2296.28
735.404	2296.28
735.59	2259.42
735.776	2200.03
735.962	2425.31
736.148	2288.09
736.333	2216.41
736.519	2284
736.705	2269.66
736.89	2277.85
737.076	2316.76
737.262	2357.72
737.447	2316.76
737.633	2185.69
737.819	2365.92
738.004	2329.05
738.19	2234.85
738.375	2343.39
738.561	2374.11
738.747	2261.47
738.932	2271.71
739.118	2259.42
739.303	2353.63
739.489	2197.98
739.674	2271.71
739.859	2226.65
740.045	2226.65
740.23	2380.25
740.416	2238.94
740.601	2245.09
740.786	2290.14
740.972	2320.86
741.157	2232.8
741.342	2220.51
741.528	2288.09
741.713	2292.19
741.898	2230.75
742.084	2222.56
742.269	2152.93
742.454	2177.5
742.639	2253.28
742.824	2167.26
743.01	2216.41
743.195	2304.48
743.38	2210.27
743.565	2167.26
743.75	2202.08
743.935	2146.78
744.12	2163.17
744.305	1964.51
744.49	2109.92
744.675	2042.34
744.86	2048.48
745.045	2095.58
745.23	2105.82
745.415	2079.2
745.6	2087.39
745.785	2091.49
745.97	2079.2
746.155	2007.52
746.34	2038.24
746.525	1980.9
746.71	2097.63
746.895	1980.9
747.079	1982.95
747.264	2005.47
747.449	2095.58
747.634	1997.28
747.819	1991.14
748.003	1835.49
748.188	2007.52
748.373	2034.14
748.557	1884.64
748.742	1915.36
748.927	1847.78
749.111	1763.81
749.296	1841.64
749.481	1784.29
749.665	1903.07
749.85	1782.24
750.034	1849.83
750.219	1868.26
750.404	1788.39
750.588	1663.46
750.773	1712.61
750.957	1769.96
751.141	1763.81
751.326	1726.95
751.51	1780.2
751.695	1831.4
751.879	1720.81
752.064	1802.72
752.248	1696.23
752.432	1688.04
752.617	1735.14
752.801	1677.8
752.985	1636.84
753.17	1649.13
753.354	1628.65
753.538	1661.41
753.722	1630.7
753.907	1499.63
754.091	1540.58
754.275	1606.12
754.459	1473
754.643	1550.82
754.828	1530.34
755.012	1513.96
755.196	1534.44
755.38	1567.21
755.564	1419.75
755.748	1518.06
755.932	1425.9
756.116	1401.32
756.3	1554.92
756.484	1407.47
756.668	1432.04
756.852	1452.52
757.036	1415.66
757.22	1415.66
757.404	1415.66
757.588	1380.84
757.772	1382.89
757.956	1327.6
758.14	1333.74
758.323	1309.16
758.507	1466.86
758.691	1325.55
758.875	1341.93
759.059	1358.32
759.242	1337.84
759.426	1208.81
759.61	1313.26
759.794	1288.68
759.977	1337.84
760.161	1350.12
760.345	1247.72
760.528	1350.12
760.712	1280.49
760.895	1311.21
761.079	1251.82
761.263	1210.86
761.446	1157.61
761.63	1235.44
761.813	1266.16
761.997	1284.59
762.18	1038.83
762.364	1141.23
762.547	1124.85
762.731	1178.09
762.914	1102.32
763.098	1190.38
763.281	1239.53
763.464	1161.71
763.648	1120.75
763.831	1126.89
764.015	1106.42
764.198	1200.62
764.381	1151.47
764.564	1165.81
764.748	1116.65
764.931	1098.22
765.114	1116.65
765.297	1042.93
765.481	1020.4
765.664	1114.61
765.847	991.73
766.03	1092.08
766.213	1057.26
766.397	1098.22
766.58	1022.45
766.763	989.68
766.946	944.63
767.129	1051.12
767.312	958.96
767.495	1018.35
767.678	911.86
767.861	991.73
768.044	940.53
768.227	1044.98
768.41	907.76
768.593	1057.26
768.776	924.15
768.959	983.54
769.142	997.87
769.324	932.34
769.507	987.63
769.69	915.95
769.873	956.91
770.056	1038.83
770.239	956.91
770.421	946.67
770.604	926.19
770.787	924.15
770.97	870.9
771.152	883.19
771.335	975.35
771.518	940.53
771.7	942.58
771.883	965.11
772.066	881.14
772.248	936.43
772.431	854.51
772.613	868.85
772.796	836.08
772.978	948.72
773.161	907.76
773.343	850.42
773.526	831.99
773.708	793.08
773.891	842.23
774.073	768.5
774.256	813.56
774.438	915.95
774.621	731.64
774.803	848.37
774.985	815.6
775.168	874.99
775.35	743.92
775.532	854.51
775.715	870.9
775.897	778.74
776.079	748.02
776.261	743.92
776.444	696.82
776.626	705.01
776.808	737.78
776.99	760.31
777.173	797.17
777.355	696.82
777.537	645.62
777.719	752.12
777.901	713.21
778.083	670.2
778.265	705.01
778.447	745.97
778.629	702.97
778.811	676.34
778.993	715.25
779.175	748.02
779.357	631.29
779.539	555.51
779.721	670.2
779.903	662.01
780.085	578.04
780.267	649.72
780.449	621.05
780.631	629.24
780.812	725.49
780.994	678.39
781.176	629.24
781.358	571.9
781.54	578.04
781.721	549.37
781.903	555.51
782.085	541.18
782.267	629.24
782.448	573.94
782.63	489.98
782.812	557.56
782.993	553.46
783.175	535.03
783.357	539.13
783.538	582.14
783.72	473.59
783.901	532.98
784.083	559.61
784.264	494.07
784.446	449.02
784.627	465.4
784.809	520.7
784.99	489.98
785.172	492.02
785.353	535.03
785.535	377.34
785.716	508.41
785.897	455.16
786.079	494.07
786.26	485.88
786.441	518.65
786.623	436.73
786.804	408.06
786.985	455.16
787.167	518.65
787.348	430.59
787.529	358.91
787.71	463.35
787.891	432.63
788.073	403.96
788.254	354.81
788.435	463.35
788.616	418.3
788.797	459.26
788.978	408.06
789.159	426.49
789.34	352.76
789.522	387.58
789.703	457.21
789.884	432.63
790.065	446.97
790.246	315.9
790.427	375.29
790.607	457.21
790.788	369.15
790.969	301.56
791.15	389.63
791.331	336.38
791.512	336.38
791.693	383.48
791.874	307.71
792.054	430.59
792.235	360.95
792.416	387.58
792.597	311.8
792.778	399.87
792.958	420.35
793.139	350.71
793.32	348.67
793.5	252.41
793.681	358.91
793.862	383.48
794.042	336.38
794.223	268.8
794.404	334.33
794.584	256.51
794.765	313.85
794.945	299.52
795.126	309.76
795.306	369.15
795.487	334.33
795.667	203.26
795.848	338.43
796.028	346.62
796.209	320
796.389	279.04
796.57	281.08
796.75	322.04
796.93	213.5
797.111	322.04
797.291	334.33
797.471	418.3
797.652	301.56
797.832	270.84
798.012	287.23
798.192	246.27
798.373	236.03
798.553	190.97
798.733	279.04
798.913	246.27
799.093	162.3
799.274	303.61
799.454	344.57
799.634	260.6
799.814	342.52
799.994	328.19
800.174	344.57
800.354	320
800.534	262.65
800.714	252.41
800.894	147.97
801.074	240.12
801.254	207.36
801.434	330.23
801.614	252.41
801.794	178.69
801.974	793.08
802.154	203.26
802.334	227.84
802.514	254.46
802.693	238.08
802.873	195.07
803.053	236.03
803.233	283.13
803.413	178.69
803.592	219.64
803.772	205.31
803.952	276.99
804.131	164.35
804.311	250.36
804.491	205.31
804.67	166.4
804.85	197.12
805.03	268.8
805.209	231.93
805.389	96.77
805.568	211.45
805.748	190.97
805.928	229.88
806.107	188.93
806.287	201.21
806.466	199.16
806.646	252.41
806.825	236.03
807.004	174.59
807.184	207.36
807.363	178.69
807.543	137.73
807.722	236.03
807.901	199.16
808.081	162.3
808.26	164.35
808.439	186.88
808.619	221.69
808.798	205.31
808.977	193.02
809.156	219.64
809.336	231.93
809.515	229.88
809.694	129.53
809.873	178.69
810.052	211.45
810.231	154.11
810.411	117.25
810.59	154.11
810.769	139.77
810.948	170.49
811.127	162.3
811.306	162.3
811.485	174.59
811.664	199.16
811.843	107.01
812.022	164.35
812.201	195.07
812.38	78.33
812.559	205.31
812.737	252.41
812.916	158.21
813.095	113.15
813.274	174.59
813.453	219.64
813.632	129.53
813.811	137.73
813.989	137.73
814.168	236.03
814.347	201.21
814.526	80.38
814.704	207.36
814.883	178.69
815.062	135.68
815.24	164.35
815.419	129.53
815.598	154.11
815.776	88.57
815.955	145.92
816.133	84.48
816.312	113.15
816.49	84.48
816.669	139.77
816.847	115.2
817.026	154.11
817.204	139.77
817.383	117.25
817.561	88.57
817.74	190.97
817.918	190.97
818.097	164.35
818.275	104.96
818.453	119.29
818.632	125.44
818.81	90.62
818.988	96.77
819.167	55.81
819.345	133.63
819.523	66.05
819.701	104.96
819.879	193.02
820.058	147.97
820.236	137.73
820.414	135.68
820.592	131.58
820.77	121.34
820.948	119.29
821.127	49.66
821.305	123.39
821.483	39.42
821.661	143.87
821.839	154.11
822.017	129.53
822.195	82.43
822.373	90.62
822.551	158.21
822.729	162.3
822.907	72.19
823.085	221.69
823.262	80.38
823.44	113.15
823.618	80.38
823.796	66.05
823.974	23.04
824.152	66.05
824.329	82.43
824.507	68.09
824.685	121.34
824.863	94.72
825.04	113.15
825.218	98.81
825.396	104.96
825.574	51.71
825.751	205.31
825.929	113.15
826.107	80.38
826.284	145.92
826.462	88.57
826.639	145.92
826.817	72.19
826.994	156.16
827.172	121.34
827.349	76.29
827.527	59.9
827.704	64
827.882	113.15
828.059	113.15
828.237	49.66
828.414	139.77
828.591	31.23
828.769	55.81
828.946	137.73
829.124	166.4
829.301	127.49
829.478	64
829.655	137.73
829.833	115.2
830.01	55.81
830.187	127.49
830.364	43.52
830.542	92.67
830.719	150.01
830.896	59.9
831.073	113.15
831.25	166.4
831.427	123.39
831.604	96.77
831.782	6.66
831.959	72.19
832.136	121.34
832.313	45.57
832.49	121.34
832.667	84.48
832.844	12.8
833.021	137.73
833.198	20.99
833.374	82.43
833.551	72.19
833.728	55.81
833.905	96.77
834.082	82.43
834.259	35.33
834.436	115.2
834.612	-13.82
834.789	96.77
834.966	74.24
835.143	37.38
835.319	-22.02
835.496	55.81
835.673	92.67
835.85	88.57
836.026	96.77
836.203	113.15
836.38	23.04
836.556	55.81
836.733	31.23
836.909	111.1
837.086	37.38
837.262	12.8
837.439	35.33
837.616	74.24
837.792	29.18
837.968	64
838.145	14.85
838.321	66.05
838.498	39.42
838.674	170.49
838.851	96.77
839.027	35.33
839.203	72.19
839.38	131.58
839.556	82.43
839.732	129.53
839.909	64
840.085	104.96
840.261	16.9
840.437	82.43
840.614	98.81
840.79	57.86
840.966	55.81
841.142	88.57
841.318	23.04
841.494	141.82
841.671	0.51
841.847	162.3
842.023	-38.4
842.199	113.15
842.375	104.96
842.551	-48.64
842.727	96.77
842.903	107.01
843.079	-26.11
843.255	109.05
843.431	14.85
843.607	80.38
843.783	27.14
843.959	107.01
844.134	29.18
844.31	154.11
844.486	76.29
844.662	84.48
844.838	33.28
845.013	14.85
845.189	2.56
845.365	23.04
845.541	51.71
845.716	39.42
845.892	72.19
846.068	64
846.244	43.52
846.419	100.86
846.595	31.23
846.77	55.81
846.946	98.81
847.122	47.62
847.297	82.43
847.473	-7.68
847.648	80.38
847.824	64
847.999	-30.21
848.175	16.9
848.35	96.77
848.526	68.09
848.701	78.33
848.876	41.47
849.052	39.42
849.227	43.52
849.403	59.9
849.578	70.14
849.753	-75.26
849.929	109.05
850.104	23.04
850.279	-9.73
850.454	49.66
850.63	131.58
850.805	49.66
850.98	61.95
851.155	61.95
851.33	27.14
851.505	-38.4
851.681	64
851.856	-3.58
852.031	43.52
852.206	64
852.381	33.28
852.556	2.56
852.731	39.42
852.906	-26.11
853.081	64
853.256	27.14
853.431	43.52
853.606	0.51
853.781	-44.54
853.956	-1.54
854.131	-17.92
854.305	47.62
854.48	102.91
854.655	-17.92
854.83	-30.21
855.005	57.86
855.18	94.72
855.354	8.7
855.529	76.29
855.704	27.14
855.879	102.91
856.053	-34.3
856.228	10.75
856.403	-50.69
856.577	45.57
856.752	-11.78
856.926	6.66
857.101	33.28
857.276	88.57
857.45	14.85
857.625	27.14
857.799	96.77
857.974	16.9
858.148	39.42
858.323	96.77
858.497	29.18
858.672	-42.5
858.846	14.85
859.02	-15.87
859.195	-24.06
859.369	49.66
859.543	43.52
859.718	53.76
859.892	41.47
860.066	55.81
860.241	16.9
860.415	37.38
860.589	39.42
860.763	6.66
860.938	2.56
861.112	27.14
861.286	18.94
861.46	8.7
861.634	16.9
861.808	55.81
861.982	2.56
862.157	-17.92
862.331	12.8
862.505	-42.5
862.679	-15.87
862.853	53.76
863.027	64
863.201	55.81
863.375	53.76
863.549	29.18
863.722	88.57
863.896	84.48
864.07	-50.69
864.244	6.66
864.418	47.62
864.592	23.04
864.766	-19.97
864.939	49.66
865.113	61.95
865.287	51.71
865.461	23.04
865.634	-58.88
865.808	6.66
865.982	-17.92
866.156	6.66
866.329	25.09
866.503	35.33
866.676	55.81
866.85	43.52
867.024	-42.5
867.197	90.62
867.371	23.04
867.544	-5.63
867.718	43.52
867.891	72.19
868.065	27.14
868.238	14.85
868.412	82.43
868.585	-42.5
868.759	41.47
868.932	125.44
869.105	29.18
869.279	37.38
869.452	51.71
869.625	-38.4
869.799	-44.54
869.972	-15.87
870.145	72.19
870.319	84.48
870.492	68.09
870.665	-79.36
870.838	-17.92
871.011	-34.3
871.185	-3.58
871.358	55.81
871.531	8.7
871.704	-13.82
871.877	37.38
872.05	-17.92
872.223	-17.92
872.396	-5.63
872.569	51.71
872.742	-42.5
872.915	-17.92
873.088	43.52
873.261	23.04
873.434	-50.69
873.607	-15.87
873.78	-38.4
873.953	-42.5
874.126	-22.02
874.299	90.62
874.471	14.85
874.644	-42.5
874.817	68.09
874.99	-32.26
875.163	20.99
875.335	102.91
875.508	2.56
875.681	49.66
875.853	23.04
876.026	-17.92
876.199	-9.73
876.371	-30.21
876.544	6.66
876.717	2.56
876.889	18.94
877.062	41.47
877.234	10.75
877.407	-42.5
877.579	14.85
877.752	14.85
877.924	41.47
878.097	80.38
878.269	4.61
878.442	0.51
878.614	43.52
878.786	-9.73
878.959	-34.3
879.131	51.71
879.303	12.8
879.476	2.56
879.648	27.14
879.82	23.04
879.993	47.62
880.165	84.48
880.337	-67.07
880.509	2.56
880.681	10.75
880.854	55.81
881.026	-50.69
881.198	80.38
881.37	14.85
881.542	-38.4
881.714	35.33
881.886	27.14
882.058	-42.5
882.23	64
882.402	-67.07
882.574	-50.69
882.746	-1.54
882.918	31.23
883.09	0.51
883.262	33.28
883.434	14.85
883.606	-40.45
883.778	-44.54
883.95	16.9
884.122	-48.64
884.293	66.05
884.465	-3.58
884.637	6.66
884.809	-67.07
884.98	23.04
885.152	61.95
885.324	8.7
885.496	27.14
885.667	14.85
885.839	88.57
886.011	31.23
886.182	23.04
886.354	68.09
886.525	-26.11
886.697	-7.68
886.869	-69.12
887.04	10.75
887.212	-9.73
887.383	59.9
887.555	-42.5
887.726	-5.63
887.897	-24.06
888.069	0.51
888.24	-15.87
888.412	90.62
888.583	6.66
888.754	43.52
888.926	-75.26
889.097	-13.82
889.268	-101.89
889.44	57.86
889.611	-34.3
889.782	66.05
889.953	-26.11
890.125	2.56
890.296	-46.59
890.467	23.04
890.638	-52.74
890.809	6.66
890.98	-22.02
891.151	55.81
891.323	51.71
891.494	25.09
891.665	0.51
891.836	47.62
892.007	23.04
892.178	35.33
892.349	82.43
892.52	-26.11
892.691	-62.98
892.862	47.62
893.032	-42.5
893.203	49.66
893.374	-26.11
893.545	76.29
893.716	-32.26
893.887	-7.68
894.057	-9.73
894.228	27.14
894.399	-26.11
894.57	-26.11
894.74	25.09
894.911	-22.02
895.082	2.56
895.253	-26.11
895.423	-95.74
895.594	47.62
895.764	37.38
895.935	0.51
896.106	-44.54
896.276	-34.3
896.447	14.85
896.617	-36.35
896.788	-13.82
896.958	51.71
897.129	-50.69
897.299	25.09
897.47	-22.02
897.64	39.42
897.81	-32.26
897.981	35.33
898.151	-54.78
898.322	-40.45
898.492	10.75
898.662	-11.78
898.832	31.23
899.003	43.52
899.173	-40.45
899.343	-22.02
899.513	55.81
