Data from USB4F104151__25__14-42-45-327.txt Node

Date: Thu Mar 13 14:42:45 EDT 2025
User: louis
Spectrometer: USB4F10415
Trigger mode: 4
Integration Time (sec): 2.000000E-2
Scans to average: 1
Electric dark correction enabled: true
Nonlinearity correction enabled: false
Boxcar width: 0
XAxis mode: Wavelengths
Number of Pixels in Spectrum: 3648
>>>>>Begin Spectral Data<<<<<
178.204	-114.17
178.424	-114.17
178.644	-114.17
178.864	-83.45
179.084	-192
179.304	-38.4
179.524	12.8
179.744	59.9
179.964	-22.02
180.184	53.76
180.404	14.85
180.624	6.66
180.844	55.81
181.064	-17.92
181.283	-42.5
181.503	-83.45
181.723	0.51
181.943	-1.54
182.163	137.73
182.383	-24.06
182.602	-5.63
182.822	8.7
183.042	-22.02
183.262	66.05
183.482	-50.69
183.701	47.62
183.921	57.86
184.141	-71.17
184.361	27.14
184.58	14.85
184.8	-22.02
185.02	-15.87
185.239	49.66
185.459	-9.73
185.679	-1.54
185.898	37.38
186.118	47.62
186.338	49.66
186.557	47.62
186.777	23.04
186.997	-22.02
187.216	47.62
187.436	74.24
187.655	-15.87
187.875	14.85
188.095	-5.63
188.314	10.75
188.534	25.09
188.753	-1.54
188.973	39.42
189.192	47.62
189.412	49.66
189.631	31.23
189.851	-67.07
190.07	49.66
190.29	-17.92
190.509	6.66
190.729	18.94
190.948	51.71
191.168	145.92
191.387	23.04
191.607	31.23
191.826	61.95
192.045	-5.63
192.265	-24.06
192.484	8.7
192.704	8.7
192.923	6.66
193.142	166.4
193.362	78.33
193.581	102.91
193.8	92.67
194.02	31.23
194.239	14.85
194.458	-22.02
194.678	-69.12
194.897	18.94
195.116	76.29
195.335	14.85
195.555	80.38
195.774	57.86
195.993	35.33
196.212	-24.06
196.432	2.56
196.651	41.47
196.87	14.85
197.089	80.38
197.308	16.9
197.528	74.24
197.747	6.66
197.966	-54.78
198.185	113.15
198.404	-5.63
198.623	57.86
198.842	47.62
199.062	14.85
199.281	45.57
199.5	20.99
199.719	43.52
199.938	64
200.157	25.09
200.376	133.63
200.595	-19.97
200.814	12.8
201.033	-81.41
201.252	76.29
201.471	8.7
201.69	64
201.909	74.24
202.128	33.28
202.347	39.42
202.566	-26.11
202.785	121.34
203.004	-19.97
203.223	47.62
203.442	80.38
203.661	39.42
203.879	31.23
204.098	113.15
204.317	-9.73
204.536	39.42
204.755	2.56
204.974	-42.5
205.193	-22.02
205.411	64
205.63	53.76
205.849	18.94
206.068	-3.58
206.287	23.04
206.505	-24.06
206.724	35.33
206.943	-5.63
207.162	8.7
207.381	53.76
207.599	84.48
207.818	-11.78
208.037	55.81
208.255	20.99
208.474	-40.45
208.693	-9.73
208.911	6.66
209.13	10.75
209.349	35.33
209.567	49.66
209.786	-3.58
210.005	16.9
210.223	39.42
210.442	-75.26
210.661	8.7
210.879	31.23
211.098	-7.68
211.316	80.38
211.535	-9.73
211.753	23.04
211.972	53.76
212.191	14.85
212.409	-9.73
212.628	64
212.846	-9.73
213.065	16.9
213.283	113.15
213.502	47.62
213.72	45.57
213.938	6.66
214.157	72.19
214.375	47.62
214.594	-1.54
214.812	31.23
215.031	80.38
215.249	72.19
215.467	80.38
215.686	-34.3
215.904	33.28
216.122	-26.11
216.341	115.2
216.559	-15.87
216.778	23.04
216.996	39.42
217.214	27.14
217.432	0.51
217.651	-42.5
217.869	-34.3
218.087	0.51
218.306	-7.68
218.524	66.05
218.742	10.75
218.96	45.57
219.179	113.15
219.397	14.85
219.615	39.42
219.833	16.9
220.051	27.14
220.27	29.18
220.488	-7.68
220.706	49.66
220.924	-19.97
221.142	-5.63
221.36	49.66
221.578	-26.11
221.796	29.18
222.015	14.85
222.233	14.85
222.451	16.9
222.669	113.15
222.887	25.09
223.105	49.66
223.323	-7.68
223.541	23.04
223.759	39.42
223.977	-34.3
224.195	80.38
224.413	41.47
224.631	57.86
224.849	31.23
225.067	80.38
225.285	-50.69
225.503	31.23
225.721	-116.22
225.939	-36.35
226.157	43.52
226.375	6.66
226.592	55.81
226.81	55.81
227.028	57.86
227.246	53.76
227.464	49.66
227.682	107.01
227.9	64
228.117	57.86
228.335	31.23
228.553	18.94
228.771	-7.68
228.989	0.51
229.206	29.18
229.424	-40.45
229.642	47.62
229.86	6.66
230.077	88.57
230.295	88.57
230.513	104.96
230.731	6.66
230.948	16.9
231.166	66.05
231.384	49.66
231.601	-40.45
231.819	41.47
232.037	-15.87
232.254	-97.79
232.472	23.04
232.689	-11.78
232.907	-11.78
233.125	23.04
233.342	-13.82
233.56	-58.88
233.777	47.62
233.995	-7.68
234.213	23.04
234.43	96.77
234.648	4.61
234.865	70.14
235.083	-44.54
235.3	94.72
235.518	-1.54
235.735	35.33
235.953	125.44
236.17	27.14
236.388	37.38
236.605	39.42
236.822	-7.68
237.04	53.76
237.257	20.99
237.475	64
237.692	25.09
237.909	23.04
238.127	-17.92
238.344	-50.69
238.562	27.14
238.779	-52.74
238.996	31.23
239.214	-5.63
239.431	133.63
239.648	-38.4
239.865	59.9
240.083	78.33
240.3	90.62
240.517	39.42
240.735	72.19
240.952	39.42
241.169	6.66
241.386	55.81
241.603	39.42
241.821	-26.11
242.038	45.57
242.255	14.85
242.472	6.66
242.689	47.62
242.907	80.38
243.124	-7.68
243.341	66.05
243.558	0.51
243.775	47.62
243.992	27.14
244.209	45.57
244.426	102.91
244.643	18.94
244.86	39.42
245.078	37.38
245.295	41.47
245.512	23.04
245.729	39.42
245.946	10.75
246.163	25.09
246.38	10.75
246.597	43.52
246.814	139.77
247.031	33.28
247.248	96.77
247.464	-24.06
247.681	33.28
247.898	49.66
248.115	6.66
248.332	-24.06
248.549	0.51
248.766	70.14
248.983	37.38
249.2	57.86
249.417	51.71
249.633	-34.3
249.85	84.48
250.067	-69.12
250.284	14.85
250.501	35.33
250.717	41.47
250.934	-15.87
251.151	-15.87
251.368	-5.63
251.585	-7.68
251.801	33.28
252.018	0.51
252.235	96.77
252.451	-1.54
252.668	-42.5
252.885	55.81
253.102	-48.64
253.318	43.52
253.535	-7.68
253.752	107.01
253.968	61.95
254.185	-11.78
254.401	20.99
254.618	109.05
254.835	14.85
255.051	55.81
255.268	43.52
255.484	-1.54
255.701	-5.63
255.917	139.77
256.134	64
256.351	55.81
256.567	23.04
256.784	2.56
257	-58.88
257.217	51.71
257.433	27.14
257.65	-13.82
257.866	49.66
258.082	10.75
258.299	6.66
258.515	49.66
258.732	0.51
258.948	66.05
259.165	104.96
259.381	31.23
259.597	66.05
259.814	-15.87
260.03	23.04
260.246	31.23
260.463	80.38
260.679	-32.26
260.895	20.99
261.112	16.9
261.328	49.66
261.544	68.09
261.761	117.25
261.977	-26.11
262.193	-7.68
262.409	-13.82
262.626	82.43
262.842	31.23
263.058	-32.26
263.274	33.28
263.49	6.66
263.707	125.44
263.923	25.09
264.139	45.57
264.355	41.47
264.571	43.52
264.787	-7.68
265.004	178.69
265.22	10.75
265.436	-60.93
265.652	23.04
265.868	18.94
266.084	-30.21
266.3	76.29
266.516	-9.73
266.732	23.04
266.948	-17.92
267.164	43.52
267.38	27.14
267.596	72.19
267.812	125.44
268.028	23.04
268.244	-95.74
268.46	-5.63
268.676	-15.87
268.892	-13.82
269.108	31.23
269.324	37.38
269.54	-17.92
269.756	88.57
269.972	-9.73
270.188	0.51
270.403	18.94
270.619	-11.78
270.835	-9.73
271.051	76.29
271.267	8.7
271.483	113.15
271.698	-9.73
271.914	96.77
272.13	49.66
272.346	47.62
272.562	16.9
272.777	64
272.993	43.52
273.209	-40.45
273.425	64
273.64	8.7
273.856	39.42
274.072	33.28
274.287	-7.68
274.503	31.23
274.719	14.85
274.934	41.47
275.15	-108.03
275.366	90.62
275.581	51.71
275.797	82.43
276.012	27.14
276.228	18.94
276.444	-13.82
276.659	18.94
276.875	8.7
277.09	88.57
277.306	6.66
277.521	98.81
277.737	55.81
277.952	109.05
278.168	6.66
278.383	39.42
278.599	100.86
278.814	23.04
279.03	16.9
279.245	-22.02
279.461	20.99
279.676	2.56
279.892	10.75
280.107	80.38
280.322	-26.11
280.538	-5.63
280.753	23.04
280.969	55.81
281.184	8.7
281.399	-24.06
281.615	55.81
281.83	55.81
282.045	14.85
282.26	35.33
282.476	-17.92
282.691	104.96
282.906	55.81
283.122	14.85
283.337	80.38
283.552	-1.54
283.767	-13.82
283.983	109.05
284.198	64
284.413	96.77
284.628	31.23
284.843	-7.68
285.058	90.62
285.274	66.05
285.489	-40.45
285.704	31.23
285.919	-44.54
286.134	-73.21
286.349	55.81
286.564	80.38
286.779	47.62
286.995	16.9
287.21	-38.4
287.425	47.62
287.64	55.81
287.855	18.94
288.07	-54.78
288.285	10.75
288.5	25.09
288.715	14.85
288.93	29.18
289.145	23.04
289.36	0.51
289.575	-34.3
289.79	47.62
290.004	33.28
290.219	2.56
290.434	-22.02
290.649	27.14
290.864	98.81
291.079	12.8
291.294	53.76
291.509	35.33
291.724	82.43
291.938	70.14
292.153	39.42
292.368	-24.06
292.583	39.42
292.798	16.9
293.012	59.9
293.227	12.8
293.442	23.04
293.657	27.14
293.871	53.76
294.086	98.81
294.301	88.57
294.516	55.81
294.73	68.09
294.945	2.56
295.16	10.75
295.374	49.66
295.589	43.52
295.804	18.94
296.018	84.48
296.233	72.19
296.447	57.86
296.662	49.66
296.877	33.28
297.091	59.9
297.306	39.42
297.52	-15.87
297.735	39.42
297.949	115.2
298.164	39.42
298.378	64
298.593	29.18
298.807	90.62
299.022	16.9
299.236	-7.68
299.451	10.75
299.665	-62.98
299.88	27.14
300.094	10.75
300.309	66.05
300.523	29.18
300.737	119.29
300.952	64
301.166	39.42
301.381	-30.21
301.595	14.85
301.809	-17.92
302.024	47.62
302.238	33.28
302.452	23.04
302.667	4.61
302.881	27.14
303.095	61.95
303.309	-1.54
303.524	-38.4
303.738	57.86
303.952	-34.3
304.166	33.28
304.381	-54.78
304.595	72.19
304.809	-1.54
305.023	43.52
305.237	-11.78
305.452	-30.21
305.666	14.85
305.88	82.43
306.094	49.66
306.308	35.33
306.522	51.71
306.736	143.87
306.95	10.75
307.164	80.38
307.379	31.23
307.593	96.77
307.807	41.47
308.021	45.57
308.235	55.81
308.449	12.8
308.663	70.14
308.877	70.14
309.091	0.51
309.305	104.96
309.519	-34.3
309.733	113.15
309.947	23.04
310.161	-1.54
310.374	35.33
310.588	29.18
310.802	-7.68
311.016	25.09
311.23	-17.92
311.444	0.51
311.658	23.04
311.872	94.72
312.085	64
312.299	35.33
312.513	104.96
312.727	-69.12
312.941	2.56
313.154	14.85
313.368	41.47
313.582	123.39
313.796	-17.92
314.009	90.62
314.223	39.42
314.437	31.23
314.651	6.66
314.864	0.51
315.078	109.05
315.292	0.51
315.505	-1.54
315.719	-19.97
315.933	117.25
316.146	35.33
316.36	23.04
316.573	57.86
316.787	55.81
317.001	-15.87
317.214	6.66
317.428	-42.5
317.641	-22.02
317.855	55.81
318.068	-9.73
318.282	55.81
318.495	57.86
318.709	47.62
318.922	16.9
319.136	186.88
319.349	49.66
319.563	64
319.776	43.52
319.99	-34.3
320.203	64
320.417	14.85
320.63	31.23
320.843	76.29
321.057	64
321.27	49.66
321.483	-28.16
321.697	-17.92
321.91	125.44
322.124	23.04
322.337	0.51
322.55	-1.54
322.763	88.57
322.977	35.33
323.19	88.57
323.403	-7.68
323.617	55.81
323.83	84.48
324.043	31.23
324.256	64
324.469	-24.06
324.683	39.42
324.896	-26.11
325.109	14.85
325.322	-32.26
325.535	64
325.748	72.19
325.962	-50.69
326.175	35.33
326.388	53.76
326.601	20.99
326.814	-22.02
327.027	64
327.24	88.57
327.453	31.23
327.666	59.9
327.879	94.72
328.092	31.23
328.305	121.34
328.518	-75.26
328.731	18.94
328.944	-9.73
329.157	10.75
329.37	49.66
329.583	115.2
329.796	51.71
330.009	39.42
330.222	35.33
330.435	66.05
330.648	0.51
330.861	-9.73
331.073	0.51
331.286	102.91
331.499	-26.11
331.712	2.56
331.925	12.8
332.138	80.38
332.35	59.9
332.563	23.04
332.776	23.04
332.989	4.61
333.202	-15.87
333.414	-17.92
333.627	27.14
333.84	84.48
334.053	-9.73
334.265	-15.87
334.478	6.66
334.691	-1.54
334.903	8.7
335.116	-36.35
335.329	80.38
335.541	57.86
335.754	6.66
335.966	47.62
336.179	6.66
336.392	-22.02
336.604	27.14
336.817	94.72
337.029	-13.82
337.242	43.52
337.454	76.29
337.667	57.86
337.88	96.77
338.092	31.23
338.305	37.38
338.517	35.33
338.729	49.66
338.942	-15.87
339.154	33.28
339.367	76.29
339.579	68.09
339.792	16.9
340.004	55.81
340.217	66.05
340.429	55.81
340.641	47.62
340.854	43.52
341.066	31.23
341.278	80.38
341.491	55.81
341.703	14.85
341.915	-5.63
342.128	121.34
342.34	41.47
342.552	-11.78
342.764	33.28
342.977	-1.54
343.189	14.85
343.401	27.14
343.613	-58.88
343.826	23.04
344.038	6.66
344.25	92.67
344.462	-17.92
344.674	20.99
344.886	-42.5
345.099	25.09
345.311	88.57
345.523	-1.54
345.735	84.48
345.947	68.09
346.159	23.04
346.371	55.81
346.583	16.9
346.795	49.66
347.007	10.75
347.219	59.9
347.431	0.51
347.643	14.85
347.855	8.7
348.067	35.33
348.279	47.62
348.491	55.81
348.703	35.33
348.915	-13.82
349.127	-28.16
349.339	72.19
349.551	66.05
349.763	64
349.975	64
350.187	113.15
350.399	72.19
350.61	0.51
350.822	-9.73
351.034	80.38
351.246	6.66
351.458	41.47
351.669	-42.5
351.881	121.34
352.093	27.14
352.305	152.06
352.517	41.47
352.728	74.24
352.94	90.62
353.152	72.19
353.363	23.04
353.575	-26.11
353.787	43.52
353.999	29.18
354.21	113.15
354.422	14.85
354.633	55.81
354.845	104.96
355.057	16.9
355.268	2.56
355.48	-17.92
355.692	35.33
355.903	23.04
356.115	-19.97
356.326	49.66
356.538	39.42
356.749	72.19
356.961	39.42
357.172	-5.63
357.384	72.19
357.595	88.57
357.807	29.18
358.018	-42.5
358.23	82.43
358.441	86.53
358.653	-58.88
358.864	61.95
359.075	43.52
359.287	31.23
359.498	27.14
359.709	61.95
359.921	57.86
360.132	14.85
360.344	115.2
360.555	10.75
360.766	31.23
360.977	39.42
361.189	88.57
361.4	57.86
361.611	31.23
361.823	76.29
362.034	51.71
362.245	2.56
362.456	31.23
362.667	-1.54
362.879	8.7
363.09	-7.68
363.301	27.14
363.512	72.19
363.723	10.75
363.935	47.62
364.146	8.7
364.357	-15.87
364.568	49.66
364.779	59.9
364.99	68.09
365.201	-60.93
365.412	31.23
365.623	72.19
365.834	113.15
366.045	2.56
366.256	84.48
366.467	57.86
366.678	129.53
366.889	45.57
367.1	25.09
367.311	10.75
367.522	59.9
367.733	18.94
367.944	45.57
368.155	-30.21
368.366	18.94
368.577	141.82
368.788	74.24
368.999	29.18
369.209	-24.06
369.42	104.96
369.631	90.62
369.842	57.86
370.053	64
370.264	78.33
370.474	68.09
370.685	-5.63
370.896	82.43
371.107	80.38
371.317	98.81
371.528	8.7
371.739	14.85
371.95	96.77
372.16	90.62
372.371	-34.3
372.582	57.86
372.792	25.09
373.003	18.94
373.214	-9.73
373.424	74.24
373.635	74.24
373.846	115.2
374.056	-9.73
374.267	39.42
374.477	6.66
374.688	2.56
374.898	-17.92
375.109	-3.58
375.319	57.86
375.53	70.14
375.74	20.99
375.951	14.85
376.161	18.94
376.372	92.67
376.582	18.94
376.793	88.57
377.003	-9.73
377.214	76.29
377.424	39.42
377.635	18.94
377.845	-7.68
378.055	64
378.266	33.28
378.476	-15.87
378.686	25.09
378.897	74.24
379.107	27.14
379.317	25.09
379.528	49.66
379.738	55.81
379.948	43.52
380.158	64
380.369	-1.54
380.579	47.62
380.789	23.04
380.999	162.3
381.21	64
381.42	76.29
381.63	-38.4
381.84	100.86
382.05	27.14
382.261	51.71
382.471	14.85
382.681	64
382.891	74.24
383.101	33.28
383.311	27.14
383.521	39.42
383.731	80.38
383.941	100.86
384.151	27.14
384.361	41.47
384.571	133.63
384.781	-22.02
384.991	16.9
385.201	53.76
385.411	100.86
385.621	66.05
385.831	80.38
386.041	8.7
386.251	82.43
386.461	88.57
386.671	76.29
386.881	14.85
387.091	25.09
387.301	0.51
387.511	31.23
387.72	14.85
387.93	-7.68
388.14	68.09
388.35	39.42
388.56	88.57
388.769	100.86
388.979	47.62
389.189	-9.73
389.399	8.7
389.609	8.7
389.818	20.99
390.028	27.14
390.238	72.19
390.447	-9.73
390.657	-73.21
390.867	55.81
391.076	10.75
391.286	64
391.496	16.9
391.705	125.44
391.915	18.94
392.125	82.43
392.334	31.23
392.544	82.43
392.753	6.66
392.963	47.62
393.172	39.42
393.382	76.29
393.591	127.49
393.801	-26.11
394.01	61.95
394.22	96.77
394.429	125.44
394.639	55.81
394.848	119.29
395.058	18.94
395.267	72.19
395.477	12.8
395.686	64
395.895	113.15
396.105	129.53
396.314	53.76
396.524	49.66
396.733	8.7
396.942	57.86
397.152	98.81
397.361	100.86
397.57	94.72
397.78	117.25
397.989	113.15
398.198	59.9
398.407	145.92
398.617	49.66
398.826	31.23
399.035	23.04
399.244	145.92
399.453	64
399.663	72.19
399.872	139.77
400.081	-7.68
400.29	137.73
400.499	35.33
400.708	64
400.917	31.23
401.127	107.01
401.336	55.81
401.545	115.2
401.754	125.44
401.963	80.38
402.172	61.95
402.381	31.23
402.59	113.15
402.799	90.62
403.008	107.01
403.217	150.01
403.426	35.33
403.635	76.29
403.844	154.11
404.053	129.53
404.262	125.44
404.471	64
404.68	92.67
404.888	92.67
405.097	115.2
405.306	147.97
405.515	143.87
405.724	31.23
405.933	139.77
406.142	121.34
406.35	154.11
406.559	59.9
406.768	139.77
406.977	154.11
407.185	102.91
407.394	180.73
407.603	92.67
407.812	211.45
408.02	164.35
408.229	129.53
408.438	154.11
408.646	150.01
408.855	158.21
409.064	205.31
409.272	137.73
409.481	195.07
409.69	170.49
409.898	211.45
410.107	170.49
410.315	238.08
410.524	166.4
410.733	254.46
410.941	252.41
411.15	264.7
411.358	252.41
411.567	358.91
411.775	250.36
411.984	307.71
412.192	309.76
412.401	264.7
412.609	436.73
412.818	416.25
413.026	410.11
413.234	391.67
413.443	295.42
413.651	377.34
413.86	436.73
414.068	489.98
414.276	494.07
414.485	430.59
414.693	432.63
414.901	473.59
415.11	563.7
415.318	551.42
415.526	487.93
415.734	528.89
415.943	578.04
416.151	590.33
416.359	573.94
416.567	664.05
416.776	594.42
416.984	621.05
417.192	713.21
417.4	653.81
417.608	662.01
417.817	737.78
418.025	801.27
418.233	809.46
418.441	801.27
418.649	817.65
418.857	874.99
419.065	858.61
419.273	846.32
419.481	950.77
419.689	965.11
419.897	1014.26
420.105	956.91
420.313	1122.8
420.521	1235.44
420.729	1163.76
420.937	1186.29
421.145	1178.09
421.353	1272.3
421.561	1442.28
421.769	1368.56
421.977	1419.75
422.185	1389.03
422.393	1442.28
422.601	1620.46
422.809	1481.19
423.017	1616.36
423.224	1647.08
423.432	1769.96
423.64	1710.57
423.848	1841.64
424.056	1933.79
424.263	1968.61
424.471	1933.79
424.679	2030.05
424.887	1982.95
425.094	2218.46
425.302	2195.93
425.51	2228.7
425.718	2300.38
425.925	2390.49
426.133	2496.99
426.341	2554.33
426.548	2603.48
426.756	2812.37
426.964	2613.72
427.171	2816.47
427.379	2959.83
427.586	3025.36
427.794	3088.85
428.001	3260.88
428.209	3367.37
428.417	3324.37
428.624	3549.64
428.832	3662.28
429.039	3598.79
429.247	3535.31
429.454	3897.8
429.662	4215.23
429.869	3922.37
430.076	4135.36
430.284	4078.02
430.491	4166.08
430.699	4397.5
430.906	4643.26
431.114	4540.86
431.321	4626.87
431.528	4798.9
431.736	5042.61
431.943	5507.5
432.15	5142.96
432.358	5077.43
432.565	5450.16
432.772	5372.33
432.979	5671.34
433.187	5812.65
433.394	5831.08
433.601	6166.95
433.808	6351.26
434.016	6269.34
434.223	6478.24
434.43	7029.14
434.637	6762.9
434.844	7127.44
435.052	7465.36
435.259	7244.18
435.466	7479.69
435.673	7375.25
435.88	7729.55
436.087	8321.41
436.294	8026.5
436.501	7877
436.708	8083.84
436.915	8280.45
437.122	8845.69
437.329	8655.23
437.537	9109.88
437.743	9089.4
437.95	9050.49
438.157	9656.68
438.364	9726.32
438.571	9675.12
438.778	9777.51
438.985	10885.47
439.192	10234.21
439.399	10678.62
439.606	10471.78
439.813	11067.74
440.02	11790.67
440.227	11438.42
440.433	11419.99
440.64	11923.79
440.847	11737.42
441.054	12091.72
441.261	12876.09
441.467	12562.75
441.674	12886.33
441.881	13130.04
442.088	13482.29
442.294	13082.94
442.501	13474.1
442.708	13742.38
442.914	14571.81
443.121	14922.01
443.328	14536.99
443.534	15679.76
443.741	15294.74
443.948	14801.18
444.154	15995.15
444.361	15722.77
444.568	15902.99
444.774	15984.91
444.981	16292.1
445.187	16599.3
445.394	17449.21
445.6	17180.92
445.807	18862.3
446.013	18135.28
446.22	18041.07
446.426	18938.08
446.633	19198.17
446.839	19839.19
447.046	19087.58
447.252	20123.85
447.459	20146.38
447.665	20105.42
447.871	21022.91
448.078	21772.47
448.284	20914.37
448.491	21272.76
448.697	21946.55
448.903	22608.04
449.11	22900.9
449.316	22306.99
449.522	22771.88
449.728	23337.12
449.935	23455.9
450.141	23300.25
450.347	24281.23
450.553	23677.08
450.76	23507.1
450.966	24594.57
451.172	24291.47
451.378	24592.52
451.584	24309.9
451.791	24735.88
451.997	24791.17
452.203	25491.58
452.409	25127.04
452.615	25348.22
452.821	24111.25
453.027	23845.01
453.233	25477.24
453.44	24260.75
453.646	24424.59
453.852	24465.55
454.058	25149.57
454.264	24375.44
454.47	25114.75
454.676	24264.85
454.882	25065.6
455.088	22700.2
455.294	23244.96
455.5	23959.7
455.705	23859.35
455.911	22808.74
456.117	22638.76
456.323	22239.4
456.529	21004.48
456.735	22198.45
456.941	21487.8
457.147	21223.61
457.352	20668.61
457.558	20435.14
457.764	20654.28
457.97	19853.52
458.176	19441.88
458.381	19497.17
458.587	18761.95
458.793	18725.09
458.999	17826.03
459.204	18981.09
459.41	18278.63
459.616	17154.3
459.821	17201.4
460.027	17307.9
460.233	16826.62
460.438	16089.35
460.644	16314.63
460.85	15421.72
461.055	15178.01
461.261	15139.1
461.466	13877.55
461.672	13678.9
461.878	14635.3
462.083	13736.24
462.289	13408.56
462.494	13302.07
462.7	12802.36
462.905	12155.21
463.111	12849.47
463.316	12910.91
463.522	12726.59
463.727	12550.46
463.932	12626.24
464.138	12616
464.343	12466.5
464.549	12163.4
464.754	12640.58
464.959	12376.39
465.165	12267.84
465.37	11653.45
465.575	11538.77
465.781	11911.5
465.986	12116.3
466.191	11524.43
466.397	11372.88
466.602	10838.36
466.807	11309.4
467.012	11163.99
467.218	11129.17
467.423	11204.95
467.628	11080.02
467.833	11544.91
468.038	11135.32
468.244	10703.2
468.449	11307.35
468.654	10842.46
468.859	10963.29
469.064	10701.15
469.269	10223.97
469.474	10559.84
469.679	10830.17
469.885	10238.31
470.09	10533.22
470.295	10316.13
470.5	10039.65
470.705	10295.65
470.91	9845.1
471.115	9886.06
471.32	10271.08
471.525	10072.42
471.73	9482.61
471.935	9685.36
472.139	9644.4
472.344	9562.48
472.549	9216.37
472.754	9361.78
472.959	9361.78
473.164	8796.54
473.369	8894.84
473.574	9030.01
473.778	9025.91
473.983	9132.4
474.188	8780.15
474.393	8485.25
474.598	8583.55
474.802	8589.69
475.007	8403.33
475.212	8575.36
475.417	8096.13
475.621	8188.29
475.826	8253.83
476.031	7987.59
476.235	7987.59
476.44	8190.34
476.645	7725.45
476.849	7821.7
477.054	7922.06
477.259	7635.34
477.463	7719.31
477.668	7469.45
477.872	7629.2
478.077	7397.78
478.282	7244.18
478.486	7297.42
478.691	7199.12
478.895	7055.76
479.1	6875.54
479.304	7313.81
479.509	6900.12
479.713	6896.02
479.918	6801.82
480.122	6658.46
480.326	6961.56
480.531	6902.17
480.735	6693.27
480.94	6730.14
481.144	6930.84
481.348	6781.34
481.553	6713.75
481.757	6551.96
481.961	6750.62
482.166	6678.94
482.37	6613.4
482.574	6588.83
482.778	6672.79
482.983	6662.55
483.187	6431.13
483.391	6687.13
483.595	6611.36
483.8	6537.63
484.004	6457.76
484.208	6637.98
484.412	6478.24
484.616	6699.42
484.821	6420.89
485.025	6261.15
485.229	6754.71
485.433	6701.47
485.637	6601.12
485.841	6461.85
486.045	6422.94
486.249	6570.4
486.453	6619.55
486.657	6504.86
486.861	6551.96
487.065	6480.29
487.269	6558.11
487.473	6392.22
487.677	6666.65
487.881	6678.94
488.085	6707.61
488.289	6701.47
488.493	6584.73
488.697	6836.63
488.901	6613.4
489.105	6613.4
489.309	6687.13
489.512	6683.03
489.716	6867.35
489.92	6693.27
490.124	6592.92
490.328	6838.68
490.531	6625.69
490.735	6805.91
490.939	6904.21
491.143	6685.08
491.346	6830.49
491.55	6822.3
491.754	6957.46
491.958	6832.54
492.161	6846.87
492.365	6879.64
492.569	6967.7
492.772	7002.52
492.976	7045.52
493.18	7207.31
493.383	7061.91
493.587	7094.68
493.79	7315.86
493.994	7233.94
494.197	7248.27
494.401	7260.56
494.605	7305.62
494.808	7465.36
495.012	7365.01
495.215	7502.22
495.419	7661.96
495.622	7627.15
495.825	7702.92
496.029	7649.68
496.232	7891.34
496.436	7973.25
496.639	8055.17
496.843	8042.89
497.046	8133
497.249	8288.64
497.453	8245.63
497.656	8317.31
497.859	8415.62
498.063	8335.74
498.266	8880.5
498.469	8604.03
498.673	8741.24
498.876	8731
499.079	8825.21
499.282	9087.35
499.485	9273.71
499.689	9242.99
499.892	9406.83
500.095	9412.98
500.298	9777.51
500.501	9374.06
500.705	9754.99
500.908	9763.18
501.111	10123.62
501.314	10166.63
501.517	10185.06
501.72	10312.03
501.923	10201.44
502.126	10404.19
502.329	10733.92
502.532	10821.98
502.735	10647.9
502.938	11233.62
503.141	10973.53
503.344	11247.96
503.547	11059.54
503.75	11516.24
503.953	11401.55
504.156	11899.21
504.359	12042.57
504.562	11962.7
504.765	12171.59
504.968	12452.16
505.17	12456.26
505.373	12640.58
505.576	12831.04
505.779	12882.24
505.982	12898.62
506.185	13175.09
506.387	13383.99
506.59	13386.04
506.793	13824.3
506.996	13764.91
507.198	13920.56
507.401	14104.87
507.604	13945.13
507.807	14442.79
508.009	14643.49
508.212	14502.18
508.415	14752.03
508.617	14491.94
508.82	15042.84
509.022	15057.18
509.225	15536.4
509.428	15464.72
509.63	15692.05
509.833	15948.04
510.035	16079.11
510.238	16087.31
510.44	16156.94
510.643	16531.72
510.845	16683.27
511.048	16881.92
511.25	16789.76
511.453	16926.97
511.655	17680.63
511.858	17410.29
512.06	17680.63
512.262	17705.2
512.465	17770.74
512.667	17873.14
512.87	18213.1
513.072	18282.73
513.274	18696.42
513.477	18725.09
513.679	19218.65
513.881	19269.85
514.084	19601.62
514.286	19314.91
514.488	19509.46
514.69	20029.65
514.893	20093.13
515.095	20234.44
515.297	20383.94
515.499	20719.81
515.701	20984
515.904	20979.9
516.106	21362.87
516.308	21493.94
516.51	21723.32
516.712	21797.04
516.914	22229.16
517.116	22524.07
517.318	22333.61
517.52	22532.26
517.722	22726.82
517.925	23025.82
518.127	23484.57
518.329	23443.61
518.531	23277.72
518.733	23791.76
518.935	23789.72
519.136	24074.38
519.338	24195.21
519.54	24391.82
519.742	24782.98
519.944	24842.37
520.146	25616.51
520.348	25473.15
520.55	25464.96
520.752	25704.57
520.954	25940.08
521.155	26034.29
521.357	26359.92
521.559	26376.3
521.761	26773.61
521.963	26617.96
522.164	27080.8
522.366	26835.05
522.568	27385.95
522.77	27340.89
522.971	28018.77
523.173	27631.71
523.375	28295.25
523.576	28076.12
523.778	28291.15
523.98	28360.78
524.181	28606.54
524.383	28909.64
524.584	29288.51
524.786	29024.33
524.988	29087.81
525.189	29304.9
525.391	29339.71
525.592	29648.96
525.794	29730.87
525.995	29878.33
526.197	30068.79
526.398	29644.86
526.6	30046.26
526.801	30310.45
527.003	30537.77
527.204	30677.04
527.406	30502.96
527.607	30746.67
527.808	30904.36
528.01	30195.76
528.211	30892.07
528.412	31238.18
528.614	31311.91
528.815	30994.47
529.016	31731.74
529.218	31453.22
529.419	31500.32
529.62	31481.89
529.822	31359.01
530.023	31567.9
530.224	31834.14
530.425	31801.37
530.626	31727.64
530.828	31442.98
531.029	32469.01
531.23	31981.59
531.431	31877.15
531.632	31834.14
531.833	31963.16
532.035	32167.96
532.236	31905.82
532.437	32251.92
532.638	32129.05
532.839	32333.84
533.04	32317.46
533.241	31782.94
533.442	32524.3
533.643	32231.44
533.844	32651.28
534.045	32491.54
534.246	32030.74
534.447	32397.33
534.648	32380.95
534.849	32444.43
535.05	32294.93
535.251	32505.87
535.451	32067.61
535.652	32444.43
535.853	32571.41
536.054	32385.04
536.255	32776.2
536.456	32301.08
536.657	32761.87
536.857	32378.9
537.058	32210.96
537.259	32417.81
537.46	32573.45
537.66	32395.28
537.861	32509.97
538.062	32507.92
538.263	32313.36
538.463	32172.05
538.664	32550.93
538.865	32806.92
539.065	32794.64
539.266	32075.8
539.466	32454.67
539.667	31987.74
539.868	32671.76
540.068	32745.48
540.269	32587.79
540.469	32671.76
540.67	32757.77
540.87	32243.73
541.071	32223.25
541.271	32675.85
541.472	32143.38
541.672	32063.51
541.873	32178.2
542.073	32190.48
542.274	32821.26
542.474	32026.65
542.675	32165.91
542.875	32552.98
543.075	32313.36
543.276	31969.3
543.476	32198.68
543.676	32370.71
543.877	32421.91
544.077	32442.38
544.277	32163.86
544.478	32296.98
544.678	32458.77
544.878	31862.81
545.078	32145.43
545.279	31672.35
545.479	32030.74
545.679	31932.44
545.879	32243.73
546.079	32458.77
546.28	32045.08
546.48	31918.1
546.68	32208.92
546.88	32278.55
547.08	31959.06
547.28	32069.65
547.48	31731.74
547.68	32239.64
547.88	31877.15
548.081	32020.5
548.281	32497.68
548.481	31809.56
548.681	32249.88
548.881	32208.92
549.081	32114.71
549.28	31920.15
549.48	32317.46
549.68	31758.36
549.88	32258.07
550.08	31862.81
550.28	32286.74
550.48	32043.03
550.68	32155.67
550.88	31975.45
551.08	32069.65
551.279	32323.6
551.479	31705.12
551.679	31924.25
551.879	31768.6
552.079	31938.58
552.278	31901.72
552.478	31727.64
552.678	31764.51
552.878	31805.47
553.077	31926.3
553.277	31520.8
553.477	32182.29
553.676	31686.68
553.876	32253.97
554.076	31719.45
554.275	31674.4
554.475	31516.7
554.674	31762.46
554.874	31821.85
555.074	31526.94
555.273	31701.02
555.473	31555.61
555.672	31307.81
555.872	31658.01
556.071	31156.26
556.271	31494.18
556.47	31524.89
556.67	31424.54
556.869	31209.51
557.068	31643.68
557.268	30959.66
557.467	31221.8
557.667	31318.05
557.866	30953.51
558.065	31275.04
558.265	30638.12
558.464	30814.25
558.663	31293.47
558.863	30754.86
559.062	31152.16
559.261	31123.49
559.461	31256.61
559.66	30711.85
559.859	31060.01
560.058	30617.64
560.258	30623.79
560.457	30584.88
560.656	30654.51
560.855	30287.92
561.054	30965.8
561.253	30124.08
561.453	30441.52
561.652	30494.77
561.851	30361.65
562.05	30337.07
562.249	29798.46
562.448	30285.87
562.647	30181.43
562.846	30292.02
563.045	30300.21
563.244	29532.22
563.443	30070.84
563.642	29503.55
563.841	29925.43
564.04	29775.93
564.239	29859.9
564.438	29444.16
564.637	29790.27
564.836	29628.48
565.035	29661.24
565.234	29743.16
565.432	29702.2
565.631	29268.03
565.83	29360.19
566.029	29270.08
566.228	29206.59
566.427	29202.5
566.625	29012.04
566.824	28999.75
567.023	29085.76
567.222	28610.64
567.42	29057.09
567.619	28991.56
567.818	28985.41
568.016	28909.64
568.215	28758.09
568.414	28543.05
568.612	28708.94
568.811	28614.73
569.01	28541
569.208	28078.16
569.407	28567.63
569.605	28205.14
569.804	28629.07
570.002	28078.16
570.201	28211.28
570.4	27912.28
570.598	27869.27
570.797	27830.36
570.995	27820.12
571.193	27451.49
571.392	27744.34
571.59	27426.91
571.789	27730.01
571.987	27291.74
572.186	27258.98
572.384	27449.44
572.582	27474.01
572.781	27138.15
572.979	27088.99
573.177	26966.12
573.376	27289.7
573.574	26919.01
573.772	26912.87
573.971	26468.46
574.169	26855.53
574.367	26607.72
574.565	26857.57
574.763	26413.16
574.962	26310.77
575.16	26122.35
575.358	26280.05
575.556	26022
575.754	26384.49
575.952	25811.06
576.151	26159.22
576.349	26140.79
576.547	26083.44
576.745	25829.49
576.943	26048.63
577.141	25688.18
577.339	25958.52
577.537	25583.74
577.735	25555.07
577.933	25325.69
578.131	25520.25
578.329	25380.99
578.527	25133.18
578.725	25182.34
578.923	25380.99
579.121	24942.72
579.319	25299.07
579.516	24948.87
579.714	24971.39
579.912	24813.7
580.11	24455.31
580.308	24860.8
580.506	24670.34
580.704	24029.33
580.901	24539.27
581.099	24805.51
581.297	24307.85
581.495	24350.86
581.692	24524.94
581.89	24164.5
582.088	24244.37
582.285	24166.54
582.483	24539.27
582.681	23992.47
582.878	23881.88
583.076	23838.87
583.274	24082.58
583.471	23773.33
583.669	23677.08
583.866	23511.19
584.064	23863.44
584.262	23537.82
584.459	23505.05
584.657	23347.36
584.854	23308.44
585.052	22927.52
585.249	23247.01
585.447	23320.73
585.644	23017.63
585.841	23163.04
586.039	23175.33
586.236	22878.37
586.434	22988.96
586.631	22667.43
586.828	22501.54
587.026	22704.29
587.223	22708.39
587.42	22624.42
587.618	22370.47
587.815	22296.75
588.012	22057.14
588.21	22223.02
588.407	22243.5
588.604	22145.2
588.801	21887.15
588.999	22202.54
589.196	21805.24
589.393	21989.55
589.59	21864.63
589.787	21889.2
589.984	21670.07
590.182	21283
590.379	21614.77
590.576	21495.99
590.773	21221.56
590.97	21346.49
591.167	21303.48
591.364	21086.4
591.561	21229.76
591.758	21059.77
591.955	21074.11
592.152	21135.55
592.349	21074.11
592.546	21065.92
592.743	21274.81
592.94	20760.77
593.137	20984
593.334	20508.87
593.531	20601.03
593.727	20644.04
593.924	20545.73
594.121	20377.8
594.318	20285.64
594.515	20330.7
594.712	20531.4
594.908	20084.94
595.105	20037.84
595.302	19785.94
595.499	20037.84
595.696	19699.92
595.892	19667.16
596.089	19998.93
596.286	19898.58
596.482	19755.22
596.679	19697.88
596.876	19652.82
597.072	19675.35
597.269	19622.1
597.466	19247.32
597.662	19124.44
597.859	19093.72
598.055	19634.39
598.252	18981.09
598.448	18979.04
598.645	19271.9
598.841	18933.98
599.038	19077.34
599.234	18991.33
599.431	18655.46
599.627	19155.16
599.824	18792.67
600.02	18665.7
600.217	18694.37
600.413	18475.24
600.609	18639.08
600.806	18522.34
601.002	18641.12
601.198	18272.49
601.395	18274.54
601.591	18006.25
601.787	18397.42
601.984	17930.48
602.18	18280.68
602.376	18209
602.572	17967.34
602.769	18073.84
602.965	17756.4
603.161	17889.52
603.357	17801.46
603.553	17647.86
603.75	17729.78
603.946	17635.57
604.142	17490.17
604.338	17320.18
604.534	17780.98
604.73	17316.09
604.926	17185.02
605.122	17477.88
605.318	17154.3
605.514	16881.92
605.71	17025.28
605.906	16965.89
606.102	17031.42
606.298	17242.36
606.494	16883.97
606.69	16941.31
606.886	16943.36
607.082	16625.92
607.278	16859.39
607.474	16283.91
607.67	16812.29
607.866	16519.43
608.062	16935.17
608.257	16468.23
608.453	16611.59
608.649	16771.33
608.845	16175.37
609.041	16351.49
609.236	16498.95
609.432	16347.4
609.628	16390.41
609.824	16283.91
610.019	16374.02
610.215	16120.07
610.411	16124.17
610.606	15941.9
610.802	16204.04
610.998	16083.21
611.193	16154.89
611.389	15882.51
611.584	15925.52
611.78	15663.38
611.976	15816.97
612.171	15960.33
612.367	15929.61
612.562	15956.24
612.758	15687.95
612.953	15702.29
613.149	15628.56
613.344	15354.13
613.539	15657.23
613.735	15571.22
613.93	15571.22
614.126	15634.71
614.321	15388.95
614.517	15550.74
614.712	15569.17
614.907	15282.45
615.103	15261.98
615.298	15053.08
615.493	15511.83
615.688	15210.78
615.884	15542.55
616.079	15079.71
616.274	15108.38
616.47	15270.17
616.665	15145.24
616.86	15046.94
617.055	14985.5
617.25	14831.9
617.445	15046.94
617.641	14584.1
617.836	14938.4
618.031	14725.41
618.226	14670.11
618.421	14680.35
618.616	14911.77
618.811	14373.16
619.006	14506.27
619.201	14364.96
619.396	14307.62
619.591	14154.02
619.786	14573.86
619.981	14164.26
620.176	14367.01
620.371	13973.8
620.566	13947.18
620.761	14151.98
620.956	13928.75
621.151	13914.41
621.346	14047.53
621.541	13730.09
621.735	13836.59
621.93	13525.3
622.125	13728.05
622.32	13326.64
622.515	13525.3
622.709	13347.12
622.904	13359.41
623.099	13107.51
623.294	13130.04
623.488	12976.44
623.683	13107.51
623.878	12947.77
624.072	13035.83
624.267	12812.6
624.462	12777.79
624.656	12624.19
624.851	12732.73
625.046	12544.32
625.24	12581.18
625.435	12644.67
625.629	12292.42
625.824	12370.24
626.018	12157.25
626.213	12132.68
626.407	12155.21
626.602	11966.79
626.796	11974.99
626.991	11815.24
627.185	11948.36
627.38	11821.39
627.574	11835.72
627.768	11655.5
627.963	11565.39
628.157	11426.13
628.352	11383.12
628.546	11174.23
628.74	11434.32
628.935	11282.77
629.129	11319.64
629.323	10969.43
629.517	11092.31
629.712	11188.57
629.906	11262.29
630.1	10668.38
630.294	10903.9
630.489	10692.96
630.683	10924.38
630.877	10525.02
631.071	10713.44
631.265	10514.78
631.459	10549.6
631.653	10293.6
631.848	10461.54
632.042	10330.47
632.236	10291.55
632.43	10215.78
632.624	10215.78
632.818	10107.24
633.012	10174.82
633.206	9906.54
633.4	10008.94
633.594	10023.27
633.788	9910.63
633.982	9892.2
634.176	9752.94
634.369	9767.27
634.563	9648.49
634.757	9625.97
634.951	9576.81
635.145	9781.61
635.339	9595.25
635.533	9439.6
635.726	9435.5
635.92	9263.47
636.114	9386.35
636.308	9197.94
636.501	9294.19
636.695	9275.76
636.889	9036.15
637.083	9058.68
637.276	8845.69
637.47	9058.68
637.664	9011.57
637.857	8821.11
638.051	8671.61
638.244	8667.52
638.438	8747.39
638.632	8780.15
638.825	8503.68
639.019	8395.14
639.212	8685.95
639.406	8491.39
639.599	8716.67
639.793	8518.01
639.986	8167.81
640.18	8321.41
640.373	8354.18
640.567	8012.17
640.76	8026.5
640.954	8030.6
641.147	8055.17
641.34	7901.58
641.534	7932.29
641.727	7944.58
641.92	7879.05
642.114	7891.34
642.307	7813.51
642.5	7731.59
642.694	7584.14
642.887	7608.72
643.08	7553.42
643.273	7725.45
643.467	7549.32
643.66	7487.89
643.853	7504.27
644.046	7408.01
644.239	7510.41
644.432	7338.38
644.626	7217.55
644.819	7217.55
645.012	7238.03
645.205	7305.62
645.398	7326.1
645.591	7209.36
645.784	7145.87
645.977	7012.76
646.17	7141.78
646.363	7049.62
646.556	6896.02
646.749	6930.84
646.942	6736.28
647.135	6709.66
647.328	6820.25
647.521	6842.78
647.714	6678.94
647.907	6748.57
648.099	6711.71
648.292	6572.44
648.485	6564.25
648.678	6484.38
648.871	6527.39
649.064	6330.78
649.256	6470.05
649.449	6392.22
649.642	6379.93
649.835	6228.38
650.027	6171.04
650.22	6125.99
650.413	6209.95
650.605	6240.67
650.798	6164.9
650.991	6078.88
651.183	6171.04
651.376	5956.01
651.568	6005.16
651.761	6052.26
651.954	5786.02
652.146	5839.27
652.339	5923.24
652.531	5732.78
652.724	5872.04
652.916	5759.4
653.109	5814.7
653.301	5667.24
653.494	5747.11
653.686	5568.94
653.879	5532.08
654.071	5671.34
654.263	5523.88
654.456	5570.99
654.648	5487.02
654.84	5503.4
655.033	5460.4
655.225	5454.25
655.417	5372.33
655.61	5355.95
655.802	5341.61
655.994	5339.57
656.186	5200.3
656.379	5224.88
656.571	5198.26
656.763	4981.17
656.955	5075.38
657.148	5134.77
657.34	5032.37
657.532	4989.36
657.724	5085.62
657.916	5022.13
658.108	4819.38
658.3	4927.92
658.492	4956.6
658.684	4768.18
658.876	4876.73
659.068	4833.72
659.26	4743.61
659.452	4831.67
659.644	4725.18
659.836	4719.03
660.028	4690.36
660.22	4536.76
660.412	4602.3
660.604	4606.39
660.796	4714.94
660.988	4430.27
661.18	4485.56
661.372	4520.38
661.563	4383.17
661.755	4368.83
661.947	4389.31
662.139	4510.14
662.331	4438.46
662.522	4204.99
662.714	4323.77
662.906	4252.1
663.097	4413.88
663.289	4270.53
663.481	4278.72
663.673	4127.17
663.864	4186.56
664.056	4159.94
664.247	4151.74
664.439	4014.53
664.631	4098.5
664.822	4118.98
665.014	4147.65
665.205	3979.72
665.397	3981.76
665.588	4002.24
665.78	3992
665.971	3899.84
666.163	3936.71
666.354	3946.95
666.546	3946.95
666.737	3807.69
666.929	3822.02
667.12	3719.62
667.311	3779.01
667.503	3768.77
667.694	3799.49
667.885	3832.26
668.077	3684.81
668.268	3801.54
668.459	3578.31
668.651	3727.82
668.842	3733.96
669.033	3578.31
669.224	3625.42
669.416	3684.81
669.607	3582.41
669.798	3635.66
669.989	3625.42
670.18	3576.27
670.371	3490.25
670.563	3396.04
670.754	3449.29
670.945	3437
671.136	3670.47
671.327	3402.19
671.518	3434.96
671.709	3539.4
671.9	3547.59
672.091	3430.86
672.282	3301.84
672.473	3314.13
672.664	3324.37
672.855	3418.57
673.046	3344.84
673.237	3273.17
673.428	3283.41
673.619	3279.31
673.809	3144.14
674	3299.79
674.191	3238.35
674.382	3152.34
674.573	3258.83
674.764	3103.18
674.954	3129.81
675.145	3191.25
675.336	3185.1
675.527	3205.58
675.717	3070.42
675.908	3094.99
676.099	3146.19
676.289	3140.05
676.48	2951.63
676.671	3047.89
676.861	3062.23
677.052	3072.47
677.243	2939.35
677.433	3051.99
677.624	3049.94
677.814	3013.07
678.005	2931.16
678.195	3070.42
678.386	2988.5
678.576	3111.38
678.767	2875.86
678.957	3097.04
679.148	3037.65
679.338	2904.53
679.529	2980.31
679.719	2824.66
679.909	3037.65
680.1	2916.82
680.29	2906.58
680.481	2939.35
680.671	2845.14
680.861	2769.37
681.052	2828.76
681.242	2832.85
681.432	2791.89
681.622	2877.91
681.813	2800.09
682.003	2892.24
682.193	2890.2
682.383	2841.04
682.573	2900.44
682.764	2750.93
682.954	2783.7
683.144	2763.22
683.334	2859.48
683.524	2750.93
683.714	2804.18
683.904	2660.82
684.094	2802.13
684.284	2671.06
684.474	2666.97
684.664	2812.37
684.854	2793.94
685.044	2705.88
685.234	2544.09
685.424	2515.42
685.614	2648.54
685.804	2648.54
685.994	2662.87
686.184	2679.26
686.374	2728.41
686.564	2574.81
686.753	2576.86
686.943	2617.82
687.133	2591.19
687.323	2628.06
687.513	2644.44
687.702	2652.63
687.892	2509.27
688.082	2539.99
688.272	2472.41
688.461	2521.56
688.651	2527.71
688.841	2337.24
689.03	2539.99
689.22	2484.7
689.41	2496.99
689.599	2523.61
689.789	2449.88
689.979	2439.64
690.168	2478.55
690.358	2523.61
690.547	2384.35
690.737	2353.63
690.926	2466.27
691.116	2292.19
691.305	2456.03
691.495	2310.62
691.684	2304.48
691.874	2382.3
692.063	2365.92
692.252	2431.45
692.442	2353.63
692.631	2251.23
692.82	2292.19
693.01	2306.52
693.199	2402.78
693.388	2308.57
693.578	2367.96
693.767	2357.72
693.956	2243.04
694.146	2284
694.335	2406.88
694.524	2204.13
694.713	2261.47
694.902	2271.71
695.092	2212.32
695.281	2226.65
695.47	2197.98
695.659	2312.67
695.848	2114.02
696.037	2234.85
696.226	2288.09
696.415	2251.23
696.604	2148.83
696.793	2177.5
696.982	2124.26
697.171	2202.08
697.36	2111.97
697.549	2111.97
697.738	2167.26
697.927	2177.5
698.116	2128.35
698.305	2046.43
698.494	2214.37
698.683	2050.53
698.872	2179.55
699.061	2066.91
699.25	1997.28
699.438	2079.2
699.627	2007.52
699.816	2197.98
700.005	2001.38
700.193	2009.57
700.382	2136.54
700.571	2034.14
700.76	2087.39
700.948	1939.94
701.137	2152.93
701.326	2021.86
701.514	2081.25
701.703	2030.05
701.892	1997.28
702.08	2165.21
702.269	2048.48
702.457	1989.09
702.646	1984.99
702.834	1933.79
703.023	1997.28
703.212	2005.47
703.4	1962.47
703.589	1901.03
703.777	1972.71
703.965	1937.89
704.154	2111.97
704.342	1956.32
704.531	2040.29
704.719	2066.91
704.907	2034.14
705.096	1939.94
705.284	1993.19
705.472	1972.71
705.661	2050.53
705.849	2089.44
706.037	2075.1
706.226	2032.1
706.414	1941.99
706.602	1956.32
706.79	1919.46
706.979	1999.33
707.167	2013.67
707.355	1874.4
707.543	1892.84
707.731	1933.79
707.919	1841.64
708.107	1939.94
708.296	1898.98
708.484	1874.4
708.672	1923.55
708.86	2005.47
709.048	1948.13
709.236	1980.9
709.424	1921.51
709.612	1968.61
709.8	1993.19
709.988	1964.51
710.176	1984.99
710.364	2001.38
710.551	1956.32
710.739	1931.75
710.927	1923.55
711.115	1804.77
711.303	1980.9
711.491	1956.32
711.679	1925.6
711.866	1923.55
712.054	1995.23
712.242	1917.41
712.43	2132.45
712.617	1925.6
712.805	2038.24
712.993	1849.83
713.181	1929.7
713.368	1853.92
713.556	1919.46
713.744	1851.88
713.931	1948.13
714.119	1968.61
714.306	1870.31
714.494	1968.61
714.682	1931.75
714.869	1831.4
715.057	1909.22
715.244	1817.06
715.432	1853.92
715.619	1874.4
715.807	1923.55
715.994	1933.79
716.182	1919.46
716.369	1923.55
716.556	1911.27
716.744	1935.84
716.931	1909.22
717.119	1964.51
717.306	2009.57
717.493	1956.32
717.681	1866.21
717.868	1898.98
718.055	1921.51
718.242	1913.31
718.43	1874.4
718.617	1821.16
718.804	1874.4
718.991	1874.4
719.179	1823.2
719.366	1855.97
719.553	1866.21
719.74	1874.4
719.927	1898.98
720.114	1858.02
720.301	1901.03
720.488	1841.64
720.676	1804.77
720.863	1817.06
721.05	1886.69
721.237	1890.79
721.424	1935.84
721.611	1972.71
721.798	1862.12
721.985	1868.26
722.172	1841.64
722.358	1792.48
722.545	1815.01
722.732	1841.64
722.919	1847.78
723.106	1898.98
723.293	1849.83
723.48	1978.85
723.667	1792.48
723.853	1853.92
724.04	1884.64
724.227	1866.21
724.414	1913.31
724.6	1851.88
724.787	1876.45
724.974	1843.68
725.161	1851.88
725.347	1776.1
725.534	1825.25
725.72	1769.96
725.907	1798.63
726.094	1939.94
726.28	1819.11
726.467	1663.46
726.653	1841.64
726.84	1827.3
727.027	1772
727.213	1870.31
727.4	1847.78
727.586	1923.55
727.773	1753.57
727.959	1806.82
728.145	1833.44
728.332	1784.29
728.518	1903.07
728.705	1851.88
728.891	1882.6
729.077	1784.29
729.264	1802.72
729.45	1831.4
729.636	1944.03
729.823	1898.98
730.009	1808.87
730.195	1802.72
730.382	1792.48
730.568	1935.84
730.754	1858.02
730.94	1753.57
731.126	1782.24
731.313	1798.63
731.499	1944.03
731.685	1851.88
731.871	1855.97
732.057	1763.81
732.243	1802.72
732.429	1876.45
732.615	1800.68
732.801	1939.94
732.987	1894.88
733.173	1866.21
733.359	1880.55
733.545	1849.83
733.731	1778.15
733.917	1802.72
734.103	1868.26
734.289	1812.96
734.475	1753.57
734.661	1890.79
734.847	1796.58
735.033	1722.85
735.219	1751.53
735.404	1796.58
735.59	1759.72
735.776	1858.02
735.962	1776.1
736.148	1837.54
736.333	1642.98
736.519	1784.29
736.705	1804.77
736.89	1681.89
737.076	1765.86
737.262	1792.48
737.447	1726.95
737.633	1726.95
737.819	1794.53
738.004	1720.81
738.19	1786.34
738.375	1745.38
738.561	1817.06
738.747	1767.91
738.932	1767.91
739.118	1759.72
739.303	1694.18
739.489	1767.91
739.674	1743.33
739.859	1737.19
740.045	1688.04
740.23	1737.19
740.416	1638.89
740.601	1653.22
740.786	1683.94
740.972	1685.99
741.157	1628.65
741.342	1735.14
741.528	1812.96
741.713	1694.18
741.898	1669.61
742.084	1554.92
742.269	1602.02
742.454	1702.37
742.639	1475.05
742.824	1591.78
743.01	1542.63
743.195	1696.23
743.38	1587.69
743.565	1567.21
743.75	1647.08
743.935	1563.11
744.12	1655.27
744.305	1626.6
744.49	1622.5
744.675	1497.58
744.86	1638.89
745.045	1665.51
745.23	1526.25
745.415	1546.73
745.6	1540.58
745.785	1464.81
745.97	1538.54
746.155	1444.33
746.34	1647.08
746.525	1520.1
746.71	1548.78
746.895	1489.39
747.079	1489.39
747.264	1505.77
747.449	1489.39
747.634	1477.1
747.819	1464.81
748.003	1425.9
748.188	1436.14
748.373	1432.04
748.557	1376.75
748.742	1448.43
748.927	1366.51
749.111	1382.89
749.296	1348.08
749.481	1458.67
749.665	1282.54
749.85	1317.36
750.034	1393.13
750.219	1354.22
750.404	1352.17
750.588	1309.16
750.773	1270.25
750.957	1264.11
751.141	1251.82
751.326	1350.12
751.51	1169.9
751.695	1405.42
751.879	1335.79
752.064	1309.16
752.248	1311.21
752.432	1360.36
752.617	1178.09
752.801	1300.97
752.985	1358.32
753.17	1219.05
753.354	1239.53
753.538	1317.36
753.722	1182.19
753.907	1186.29
754.091	1239.53
754.275	1206.77
754.459	1032.69
754.643	1161.71
754.828	1180.14
755.012	1106.42
755.196	1083.89
755.38	1071.6
755.564	1049.07
755.748	1122.8
755.932	1083.89
756.116	1178.09
756.3	1049.07
756.484	1180.14
756.668	1087.98
756.852	1030.64
757.036	1122.8
757.22	1030.64
757.404	1075.7
757.588	1055.22
757.772	1096.18
757.956	993.78
758.14	991.73
758.323	1030.64
758.507	977.39
758.691	1030.64
758.875	979.44
759.059	1018.35
759.242	981.49
759.426	1014.26
759.61	1010.16
759.794	909.81
759.977	983.54
760.161	1049.07
760.345	969.2
760.528	977.39
760.712	989.68
760.895	940.53
761.079	1012.21
761.263	981.49
761.446	930.29
761.63	932.34
761.813	948.72
761.997	1014.26
762.18	895.47
762.364	891.38
762.547	852.47
762.731	819.7
762.914	854.51
763.098	834.04
763.281	834.04
763.464	885.23
763.648	850.42
763.831	901.62
764.015	809.46
764.198	866.8
764.381	797.17
764.564	926.19
764.748	745.97
764.931	809.46
765.114	877.04
765.297	834.04
765.481	950.77
765.664	772.6
765.847	748.02
766.03	817.65
766.213	682.49
766.397	788.98
766.58	856.56
766.763	831.99
766.946	784.88
767.129	874.99
767.312	770.55
767.495	872.95
767.678	846.32
767.861	762.36
768.044	809.46
768.227	768.5
768.41	776.69
768.593	754.16
768.776	768.5
768.959	776.69
769.142	825.84
769.324	821.75
769.507	827.89
769.69	762.36
769.873	743.92
770.056	727.54
770.239	731.64
770.421	768.5
770.604	737.78
770.787	772.6
770.97	856.56
771.152	573.94
771.335	723.44
771.518	739.83
771.7	776.69
771.883	653.81
772.066	686.58
772.248	659.96
772.431	739.83
772.613	705.01
772.796	637.43
772.978	678.39
773.161	674.29
773.343	680.44
773.526	586.23
773.708	664.05
773.891	653.81
774.073	653.81
774.256	629.24
774.438	690.68
774.621	680.44
774.803	633.33
774.985	604.66
775.168	672.25
775.35	596.47
775.532	653.81
775.715	621.05
775.897	649.72
776.079	649.72
776.261	647.67
776.444	606.71
776.626	614.9
776.808	582.14
776.99	557.56
777.173	549.37
777.355	444.92
777.537	645.62
777.719	655.86
777.901	588.28
778.083	625.14
778.265	459.26
778.447	522.74
778.629	506.36
778.811	653.81
778.993	524.79
779.175	575.99
779.357	514.55
779.539	498.17
779.721	555.51
779.903	559.61
780.085	549.37
780.267	539.13
780.449	539.13
780.631	551.42
780.812	563.7
780.994	469.5
781.176	506.36
781.358	375.29
781.54	498.17
781.721	469.5
781.903	467.45
782.085	479.74
782.267	522.74
782.448	416.25
782.63	539.13
782.812	532.98
782.993	457.21
783.175	530.94
783.357	524.79
783.538	399.87
783.72	403.96
783.901	465.4
784.083	408.06
784.264	436.73
784.446	383.48
784.627	428.54
784.809	416.25
784.99	440.83
785.172	498.17
785.353	379.39
785.535	410.11
785.716	377.34
785.897	385.53
786.079	416.25
786.26	324.09
786.441	438.78
786.623	363
786.804	311.8
786.985	330.23
787.167	309.76
787.348	311.8
787.529	395.77
787.71	414.2
787.891	334.33
788.073	383.48
788.254	287.23
788.435	363
788.616	377.34
788.797	309.76
788.978	367.1
789.159	350.71
789.34	373.24
789.522	328.19
789.703	328.19
789.884	340.47
790.065	330.23
790.246	358.91
790.427	285.18
790.607	344.57
790.788	340.47
790.969	311.8
791.15	317.95
791.331	260.6
791.512	383.48
791.693	236.03
791.874	236.03
792.054	322.04
792.235	317.95
792.416	287.23
792.597	276.99
792.778	313.85
792.958	260.6
793.139	322.04
793.32	268.8
793.5	246.27
793.681	344.57
793.862	270.84
794.042	215.55
794.223	227.84
794.404	338.43
794.584	246.27
794.765	276.99
794.945	274.94
795.126	303.61
795.306	334.33
795.487	268.8
795.667	270.84
795.848	317.95
796.028	309.76
796.209	211.45
796.389	266.75
796.57	274.94
796.75	270.84
796.93	252.41
797.111	256.51
797.291	274.94
797.471	260.6
797.652	268.8
797.832	260.6
798.012	229.88
798.192	172.54
798.373	203.26
798.553	254.46
798.733	223.74
798.913	207.36
799.093	252.41
799.274	256.51
799.454	244.22
799.634	252.41
799.814	260.6
799.994	254.46
800.174	244.22
800.354	262.65
800.534	158.21
800.714	195.07
800.894	139.77
801.074	219.64
801.254	272.89
801.434	270.84
801.614	176.64
801.794	172.54
801.974	776.69
802.154	188.93
802.334	215.55
802.514	162.3
802.693	188.93
802.873	213.5
803.053	213.5
803.233	248.32
803.413	205.31
803.592	199.16
803.772	172.54
803.952	170.49
804.131	231.93
804.311	137.73
804.491	236.03
804.67	164.35
804.85	166.4
805.03	123.39
805.209	227.84
805.389	133.63
805.568	137.73
805.748	137.73
805.928	195.07
806.107	158.21
806.287	178.69
806.466	90.62
806.646	195.07
806.825	137.73
807.004	141.82
807.184	195.07
807.363	211.45
807.543	164.35
807.722	72.19
807.901	152.06
808.081	133.63
808.26	137.73
808.439	137.73
808.619	254.46
808.798	182.78
808.977	162.3
809.156	201.21
809.336	172.54
809.515	219.64
809.694	184.83
809.873	121.34
810.052	180.73
810.231	147.97
810.411	109.05
810.59	182.78
810.769	131.58
810.948	154.11
811.127	98.81
811.306	74.24
811.485	125.44
811.664	240.12
811.843	96.77
812.022	131.58
812.201	137.73
812.38	154.11
812.559	137.73
812.737	221.69
812.916	160.25
813.095	72.19
813.274	190.97
813.453	158.21
813.632	193.02
813.811	188.93
813.989	135.68
814.168	129.53
814.347	98.81
814.526	121.34
814.704	174.59
814.883	129.53
815.062	129.53
815.24	158.21
815.419	121.34
815.598	195.07
815.776	84.48
815.955	172.54
816.133	78.33
816.312	195.07
816.49	92.67
816.669	115.2
816.847	154.11
817.026	47.62
817.204	129.53
817.383	113.15
817.561	168.45
817.74	139.77
817.918	178.69
818.097	109.05
818.275	166.4
818.453	135.68
818.632	121.34
818.81	137.73
818.988	119.29
819.167	135.68
819.345	86.53
819.523	121.34
819.701	96.77
819.879	76.29
820.058	98.81
820.236	64
820.414	72.19
820.592	-42.5
820.77	158.21
820.948	82.43
821.127	121.34
821.305	113.15
821.483	115.2
821.661	150.01
821.839	184.83
822.017	76.29
822.195	72.19
822.373	104.96
822.551	94.72
822.729	139.77
822.907	74.24
823.085	88.57
823.262	102.91
823.44	57.86
823.618	82.43
823.796	55.81
823.974	143.87
824.152	72.19
824.329	57.86
824.507	70.14
824.685	162.3
824.863	88.57
825.04	41.47
825.218	59.9
825.396	137.73
825.574	107.01
825.751	113.15
825.929	190.97
826.107	0.51
826.284	115.2
826.462	119.29
826.639	115.2
826.817	31.23
826.994	96.77
827.172	100.86
827.349	113.15
827.527	49.66
827.704	115.2
827.882	64
828.059	45.57
828.237	76.29
828.414	109.05
828.591	72.19
828.769	74.24
828.946	55.81
829.124	117.25
829.301	76.29
829.478	16.9
829.655	96.77
829.833	84.48
830.01	43.52
830.187	72.19
830.364	133.63
830.542	57.86
830.719	35.33
830.896	41.47
831.073	113.15
831.25	98.81
831.427	-32.26
831.604	49.66
831.782	35.33
831.959	66.05
832.136	14.85
832.313	86.53
832.49	64
832.667	90.62
832.844	72.19
833.021	104.96
833.198	47.62
833.374	68.09
833.551	61.95
833.728	23.04
833.905	98.81
834.082	102.91
834.259	64
834.436	121.34
834.612	72.19
834.789	49.66
834.966	76.29
835.143	145.92
835.319	74.24
835.496	90.62
835.673	6.66
835.85	64
836.026	94.72
836.203	86.53
836.38	16.9
836.556	35.33
836.733	6.66
836.909	96.77
837.086	49.66
837.262	47.62
837.439	14.85
837.616	125.44
837.792	16.9
837.968	-5.63
838.145	20.99
838.321	59.9
838.498	-1.54
838.674	80.38
838.851	61.95
839.027	23.04
839.203	23.04
839.38	59.9
839.556	41.47
839.732	72.19
839.909	14.85
840.085	18.94
840.261	70.14
840.437	35.33
840.614	51.71
840.79	57.86
840.966	35.33
841.142	0.51
841.318	64
841.494	121.34
841.671	64
841.847	-13.82
842.023	41.47
842.199	72.19
842.375	31.23
842.551	72.19
842.727	31.23
842.903	145.92
843.079	2.56
843.255	53.76
843.431	16.9
843.607	35.33
843.783	-13.82
843.959	10.75
844.134	104.96
844.31	92.67
844.486	35.33
844.662	49.66
844.838	49.66
845.013	35.33
845.189	84.48
845.365	35.33
845.541	41.47
845.716	-1.54
845.892	119.29
846.068	27.14
846.244	-7.68
846.419	33.28
846.595	31.23
846.77	23.04
846.946	72.19
847.122	10.75
847.297	-26.11
847.473	51.71
847.648	-5.63
847.824	59.9
847.999	43.52
848.175	-1.54
848.35	-19.97
848.526	82.43
848.701	76.29
848.876	64
849.052	72.19
849.227	86.53
849.403	-15.87
849.578	88.57
849.753	66.05
849.929	109.05
850.104	80.38
850.279	8.7
850.454	-75.26
850.63	45.57
850.805	72.19
850.98	57.86
851.155	33.28
851.33	72.19
851.505	18.94
851.681	55.81
851.856	-26.11
852.031	14.85
852.206	14.85
852.381	47.62
852.556	80.38
852.731	-17.92
852.906	64
853.081	51.71
853.256	31.23
853.431	-5.63
853.606	49.66
853.781	-9.73
853.956	-11.78
854.131	-1.54
854.305	-9.73
854.48	0.51
854.655	29.18
854.83	14.85
855.005	51.71
855.18	-26.11
855.354	51.71
855.529	-19.97
855.704	-19.97
855.879	25.09
856.053	-17.92
856.228	-9.73
856.403	-38.4
856.577	117.25
856.752	-44.54
856.926	84.48
857.101	4.61
857.276	14.85
857.45	47.62
857.625	6.66
857.799	-22.02
857.974	53.76
858.148	-19.97
858.323	41.47
858.497	55.81
858.672	10.75
858.846	55.81
859.02	18.94
859.195	35.33
859.369	35.33
859.543	2.56
859.718	35.33
859.892	152.06
860.066	27.14
860.241	-42.5
860.415	27.14
860.589	98.81
860.763	6.66
860.938	84.48
861.112	-9.73
861.286	-34.3
861.46	90.62
861.634	16.9
861.808	-9.73
861.982	-22.02
862.157	31.23
862.331	-34.3
862.505	4.61
862.679	12.8
862.853	-38.4
863.027	4.61
863.201	113.15
863.375	-9.73
863.549	-42.5
863.722	14.85
863.896	43.52
864.07	23.04
864.244	31.23
864.418	14.85
864.592	-1.54
864.766	39.42
864.939	14.85
865.113	29.18
865.287	41.47
865.461	-17.92
865.634	-40.45
865.808	80.38
865.982	47.62
866.156	-26.11
866.329	-9.73
866.503	-5.63
866.676	49.66
866.85	-40.45
867.024	41.47
867.197	10.75
867.371	8.7
867.544	-9.73
867.718	35.33
867.891	35.33
868.065	-5.63
868.238	-11.78
868.412	8.7
868.585	43.52
868.759	-5.63
868.932	-34.3
869.105	0.51
869.279	0.51
869.452	31.23
869.625	16.9
869.799	35.33
869.972	-26.11
870.145	-79.36
870.319	76.29
870.492	-15.87
870.665	-56.83
870.838	-7.68
871.011	-34.3
871.185	55.81
871.358	31.23
871.531	74.24
871.704	39.42
871.877	-67.07
872.05	37.38
872.223	10.75
872.396	8.7
872.569	10.75
872.742	-19.97
872.915	68.09
873.088	-24.06
873.261	-56.83
873.434	-9.73
873.607	10.75
873.78	47.62
873.953	25.09
874.126	31.23
874.299	41.47
874.471	-15.87
874.644	80.38
874.817	-24.06
874.99	80.38
875.163	8.7
875.335	57.86
875.508	16.9
875.681	76.29
875.853	0.51
876.026	121.34
876.199	20.99
876.371	57.86
876.544	8.7
876.717	35.33
876.889	-22.02
877.062	-5.63
877.234	41.47
877.407	0.51
877.579	-22.02
877.752	51.71
877.924	86.53
878.097	31.23
878.269	0.51
878.442	49.66
878.614	18.94
878.786	-17.92
878.959	49.66
879.131	-9.73
879.303	41.47
879.476	-30.21
879.648	0.51
879.82	-48.64
879.993	35.33
880.165	-9.73
880.337	-30.21
880.509	2.56
880.681	-42.5
880.854	-13.82
881.026	80.38
881.198	51.71
881.37	-22.02
881.542	25.09
881.714	-1.54
881.886	-22.02
882.058	29.18
882.23	88.57
882.402	14.85
882.574	47.62
882.746	10.75
882.918	20.99
883.09	-26.11
883.262	8.7
883.434	20.99
883.606	-77.31
883.778	-42.5
883.95	33.28
884.122	33.28
884.293	31.23
884.465	104.96
884.637	43.52
884.809	-50.69
884.98	49.66
885.152	39.42
885.324	-15.87
885.496	-58.88
885.667	-42.5
885.839	-17.92
886.011	80.38
886.182	-46.59
886.354	55.81
886.525	16.9
886.697	109.05
886.869	-91.65
887.04	-62.98
887.212	72.19
887.383	98.81
887.555	-42.5
887.726	18.94
887.897	84.48
888.069	10.75
888.24	-26.11
888.412	-26.11
888.583	18.94
888.754	-17.92
888.926	-15.87
889.097	-9.73
889.268	-50.69
889.44	16.9
889.611	-42.5
889.782	39.42
889.953	-15.87
890.125	90.62
890.296	64
890.467	20.99
890.638	-9.73
890.809	2.56
890.98	-28.16
891.151	-1.54
891.323	47.62
891.494	0.51
891.665	2.56
891.836	-40.45
892.007	-42.5
892.178	0.51
892.349	14.85
892.52	8.7
892.691	6.66
892.862	0.51
893.032	-1.54
893.203	-42.5
893.374	35.33
893.545	33.28
893.716	-34.3
893.887	-26.11
894.057	-1.54
894.228	27.14
894.399	6.66
894.57	-1.54
894.74	10.75
894.911	18.94
895.082	-17.92
895.253	25.09
895.423	55.81
895.594	-1.54
895.764	-9.73
895.935	-42.5
896.106	35.33
896.276	-5.63
896.447	-26.11
896.617	-56.83
896.788	-38.4
896.958	-24.06
897.129	-30.21
897.299	10.75
897.47	80.38
897.64	0.51
897.81	31.23
897.981	-1.54
898.151	-34.3
898.322	-24.06
898.492	-34.3
898.662	20.99
898.832	27.14
899.003	-9.73
899.173	-79.36
899.343	16.9
899.513	-52.74
